Energy	Ni metal	NiO	NiF2O4
8316	0.0013533947213893	2.85174506717093E-4	0
8316.2	0.00128640843031573	2.71059790432313E-4	0
8316.4	0.00121942213924276	2.56945074147661E-4	0
8316.6	0.00115243584816918	2.42830357862881E-4	0
8316.8	0.00108544955709622	2.2871564157823E-4	0
8317	0.00101846326602264	2.1460092529345E-4	0
8317.2	9.51476974949067E-4	2.0048620900867E-4	0
8317.4	8.84490683876101E-4	1.86371492724019E-4	0
8317.6	8.17504392802526E-4	1.72256776439239E-4	0
8317.8	7.5051810172956E-4	1.58142060154587E-4	0
8318	6.83531810655984E-4	1.44027343869808E-4	0
8318.2	6.16545519582409E-4	1.29912627585028E-4	0
8318.4	5.49559228509443E-4	1.15797911300376E-4	0
8318.6	4.82572937435867E-4	1.01683195015596E-4	0
8318.8	4.15586646362901E-4	8.7568478730945E-5	0
8319	3.48600355289326E-4	7.34537624461738E-5	0
8319.2	2.8161406421575E-4	5.93390461614331E-5	0
8319.4	2.14627773142784E-4	4.52243298768207E-5	0
8319.6	1.47641482069209E-4	3.110961359208E-5	0
8319.8	8.06551909962425E-5	1.69948973074677E-5	0
8320	1.36688999226671E-5	2.88018102272699E-6	0
8320.2	-5.33173911509083E-5	-1.1234535261533E-5	0
8320.4	-1.20303682223875E-4	-2.53492515461146E-5	0
8320.6	-1.8728997329745E-4	-3.94639678308246E-5	0
8320.8	-2.54276264370416E-4	-5.35786841154063E-5	0
8321	-3.21262555443992E-4	-6.76934004001163E-5	0
8321.2	-3.88248846517567E-4	-8.18081166848263E-5	0
8321.4	-4.55235137590533E-4	-9.59228329694079E-5	0
8321.6	-5.22221428664109E-4	-1.10037549254118E-4	0
8321.8	-5.56695544997359E-4	-1.241522655387E-4	0
8322	-1.17711116567908E-4	-1.3826698182341E-4	0
8322.2	3.21273311861542E-4	-1.5238169810812E-4	0
8322.4	7.60257740287001E-4	-1.66496414392701E-4	0
8322.6	0.00117774089058206	-1.8061113067748E-4	0
8322.8	0.00117057379787316	-1.94725846962049E-4	0
8323	0.00116340670516419	-2.08840563246747E-4	0
8323.2	0.00115623961245522	-2.22955279531439E-4	0
8323.4	0.00118490798328342	-2.37069995815925E-4	0
8323.6	0.00229311969342314	-2.51184712100539E-4	0
8323.8	0.00337445480588473	-2.65299428385036E-4	0
8324	0.00336728771317569	-2.79414144669911E-4	0
8324.2	0.00336012062046666	-2.93528860954786E-4	0
8324.4	0.00335295352775785	-2.74373174556988E-4	0
8324.6	0.00335295352774421	0.00121271300543365	0
8324.8	0.00423808947730613	0.00269979918541075	0
8325	0.00512322542687609	0.00418688536540139	0
8325.2	0.00511605833416702	0.00417277064911678	0
8325.4	0.00510889124145802	0.00415865593283229	0
8325.6	0.0062081440856988	0.00414454121654768	0
8325.8	0.00731635579579832	0.00413042650026279	0
8326	0.00732710643488779	0.00411631178397793	0
8326.2	0.00731993934217875	0.00410219706769328	0
8326.4	0.00818357401360622	0.00408808235140875	0
8326.6	0.00906870996317618	0.0048748769648961	0
8326.8	0.0101697545805935	0.00666220332411904	0
8327	0.0112779662907282	0.00844952968335822	0
8327.2	0.0132426455795702	0.00856849657776508	0
8327.4	0.0152431603319255	0.0085543818614806	0
8327.6	0.0161820494768294	0.00854026714519571	2.9471544725845E-4
8327.8	0.0170671854263913	0.00859067684621565	0.00634654471546376
8328	0.0181628547242852	0.00957736272744785	0.0121951219512194
8328.2	0.0192710664344199	0.0105764830015983	0.0121951219512194
8328.4	0.0230929186214348	0.0118133690321929	0.0121951219512194
8328.6	0.0271011152188724	0.0130852057888241	0.0121951219512194
8328.8	0.028212014588838	0.0153228924169321	0.0121951219512194
8329	0.029097150538408	0.0175605790450614	0.0121951219512194
8329.2	0.0311759332009586	0.0197982656732401	0.0121951219512194
8329.4	0.0333445488550702	0.0220238539731178	0.0121951219512194
8329.6	0.0353450636074799	0.0220097392568331	0.0121951219512194
8329.8	0.0375671609761257	0.0219956245405486	0.0121951219512194
8330	0.0426907363763819	0.021981509824264	0.0121951219512194
8330.2	0.0478002762200976	0.0219673951079794	0.0121951219512194
8330.4	0.0527007758598786	0.0229298843327145	0.0121951219512194
8330.6	0.0575033252327013	0.0239165702139467	0.0179014227641778
8330.8	0.0606192187879405	0.02394143899979	0.0239532520323834
8331	0.0641531927512696	0.0239273242835054	0.0243902439024392
8331.2	0.0761921167293274	0.0250969973794338	0.0243902439024392
8331.4	0.0881530985740156	0.0263338834100618	0.0243902439024392
8331.6	0.098184340706673	0.0285030128448302	0.0246104336044192
8331.8	0.108119424345462	0.0307406994729381	0.0279725609756292
8332	0.115027605830384	0.030914108844407	0.0313008130081192
8332.2	0.122189621848704	0.0310572723952602	0.0339905149051116
8332.4	0.140251591361981	0.0332949590234186	0.0365853658536585
8332.6	0.158182164175657	0.0354637523935128	0.0365853658536585
8332.8	0.167321103266183	0.0364504382747361	0.0367073170731278
8333	0.176445110913609	0.0374875338570004	0.0427591463413608
8333.2	0.183353292398406	0.0397252204851286	0.0487804878048779
8333.4	0.19026147388314	0.0419373661980504	0.0487804878048779
8333.6	0.209422397611731	0.0431742522286563	0.0487804878048779
8333.8	0.22859974592776	0.0444084497418667	0.0487804878048779
8334	0.23761176775175	0.0453951356230988	0.0487804878048779
8334.2	0.246527631081831	0.0463818215043309	0.0487804878048779
8334.4	0.255662687996941	0.0498604269390898	0.0487804878048779
8334.6	0.264801627087344	0.0533491143141142	0.0487804878048779
8334.8	0.282202086517395	0.0543828492496922	0.0487804878048779
8335	0.289802976943074	0.0553695351309467	0.0519563008129812
8335.2	0.297403867368752	0.0575652136749067	0.0553184281843129
8335.4	0.305004757794362	0.0598029003030046	0.063055555555659
8335.6	0.308092957451864	0.0653740124270245	0.070571364047005
8335.8	0.310985775246523	0.0711145011464095	0.0719162149954891
8336	0.322066210595797	0.0735733183296936	0.073396567298989
8336.2	0.32769464166476	0.0758110049578219	0.0767586946702448
8336.4	0.333323072733672	0.0782374530027628	0.0804008581750388
8336.6	0.338951503802635	0.081003204162607	0.0891423893404615
8336.8	0.344108195572144	0.0877444934794997	0.097784552845477
8337	0.34923177097254	0.0942740620521819	0.10383638211371
8337.2	0.358901672181219	0.0975125492778124	0.109888211381948
8337.4	0.36893291431383	0.100762462702307	0.115940040650317
8337.6	0.373768177121221	0.104251150077331	0.122014453477931
8337.8	0.378182346083719	0.107940804126887	0.13142841011732
8338	0.383082845723545	0.117934695385997	0.140842366756793
8338.2	0.388418148987712	0.127860029451629	0.149589543812021
8338.4	0.399564769923339	0.133600518171015	0.158331074977365
8338.6	0.410271809172876	0.139339326567069	0.17035569105678
8338.8	0.414280005770404	0.143828814539548	0.182459349593191
8339	0.418335982986046	0.148318302512069	0.212017276422495
8339.2	0.423236482625717	0.159472457055991	0.24227642276448
8339.4	0.428461890468032	0.170717349061669	0.2553556910568
8339.6	0.44050081444609	0.179773955946541	0.267459349593267
8339.8	0.452205274097637	0.188767046608029	0.288328816621226
8340	0.45532116765289	0.193450107832371	0.309846431797748
8340.2	0.458548748402904	0.197939595804912	0.323748460212043
8340.4	0.465456929887607	0.217281293988122	0.338186217576802
8340.6	0.472432004237581	0.237533391371461	0.369309910956768
8340.8	0.482463246370465	0.249115157660732	0.400433604336451
8341	0.492428790153614	0.259864888921467	0.437598238483148
8341.2	0.497552365553986	0.268857979583037	0.476440831075522
8341.4	0.502685497077932	0.278592092849643	0.497958446251362
8341.6	0.509593678562886	0.298844190233075	0.520108401084296
8341.8	0.516501860047776	0.318815337549273	0.568523035230814
8342	0.530529353623502	0.333563031646295	0.616740063234516
8342.2	0.544575959446307	0.348187991387056	0.641619805781808
8342.4	0.549795096082835	0.359551399253008	0.666499548328873
8342.6	0.554918671483208	0.370914807119063	0.702065831075668
8342.8	0.562887881317918	0.382278214985015	0.737704381211461
8343	0.570911441605756	0.420421466982634	0.779920392954517
8343.2	0.590658573792586	0.437170762275059	0.822283197831957
8343.4	0.599629583918768	0.453920057567331	0.90299457994663
8343.6	0.608248012901254	0.468683882768723	0.949539295393653
8343.8	0.616866441883661	0.483431576865678	0.98181571815756
8344	0.625627217290933	0.508936701159645	1.01653116531192
8344.2	0.634394363447288	0.534693201829303	1.05284214092145
8344.4	0.643161509603563	0.557319428098086	1.08915311653064
8344.6	0.668092440678058	0.57982332682593	1.12849347129802
8344.8	0.677167174562589	0.596562106831283	1.16829945799419
8345	0.685190734850209	0.6129821914006	1.21066226287297
8345.2	0.698834191708376	0.629402275969918	1.25470189702071
8345.4	0.71288079753137	0.682501435356182	1.32732384823917
8345.6	0.73064174915101	0.706845141523986	1.398346883469
8345.8	0.748703718664287	0.727380587253757	1.4312957317076
8346	0.758229925093751	0.745380883292776	1.46432926829344
8346.2	0.767166149482608	0.763197688020147	1.500640243903
8346.4	0.778312770418033	0.777945382117368	1.53716802168029
8346.6	0.789718302577637	0.793878645170129	1.59499661246719
8346.8	0.804657211442897	0.839284074346611	1.65282520325357
8347	0.819179533044632	0.892224342354484	1.67184959349617
8347.2	0.827203093332434	0.905721035704617	1.69067750677503
8347.4	0.835017016158388	0.91935383524727	1.70752879403811
8347.6	0.839025212755917	0.944109535319527	1.72433943089484
8347.8	0.843244582620788	0.968865235391559	1.7781266937677
8348	0.852032974087373	1.00040356073668	1.83326558265605
8348.2	0.869415477615049	1.02741106215319	1.85903116531162
8348.4	0.873423674212576	1.04917575302505	1.88323848238444
8348.6	0.87745695563463	1.06807676960197	1.90744579945789
8348.8	0.882357455274389	1.09155413006583	1.93165311653115
8349	0.887320666975442	1.11166785281982	1.97609324956939
8349.2	0.895344227263026	1.13156672222665	2.02028116531206
8349.4	0.903319409674846	1.16629468539564	2.03843665311668
8349.6	0.907327606272394	1.18321585376371	2.05659214092148
8349.8	0.911324156344274	1.19896434845818	2.07474762872642
8350	0.912432368054409	1.2125074187335	2.09301603432742
8350.2	0.913540579764544	1.22656769254133	2.1138612240292
8350.4	0.91642623046652	1.24907159126897	2.13430894308943
8350.6	0.919319048261217	1.27129722844718	2.14036077235783
8350.8	0.920448761249403	1.28929752448595	2.14634146341463
8351	0.921556972959513	1.30723508845253	2.14634146341463
8351.2	0.921572203031537	1.32390098369486	2.14634146341463
8351.4	0.921565035938827	1.33495298578037	2.11350327461578
8351.6	0.921557868846118	1.34114383476881	2.08055442637658
8351.8	0.92155070175341	1.34728750027698	2.05882565492294
8352	0.921543534660701	1.35077618765201	2.037308039747
8352.2	0.921536367567992	1.35426151438028	2.0105916892503
8352.4	0.921529200475283	1.35649920100837	1.9836946702805
8352.6	0.921522033382574	1.35873688763649	1.92316879597374
8352.8	0.921514866289864	1.35973869642802	1.88417344173464
8353	0.921507699197155	1.36072538230925	1.84602811653171
8353.2	0.921500532104446	1.35757292764006	1.79156165311762
8353.4	0.921493365011738	1.35430621098189	1.75347992116336
8353.6	0.921486197919029	1.3519986229016	1.71684680376205
8353.8	0.921479030826319	1.34973270684086	1.68077315479021
8354	0.92147186373361	1.33778728802312	1.64469950581803
8354.2	0.921872026409811	1.32526316583794	1.60971060781971
8354.4	0.926772526049592	1.31979521029319	1.57900632339658
8354.6	0.931388731011943	1.31471712032085	1.55748870822016
8354.8	0.932496942722072	1.30794760157124	1.53616305329698
8355	0.933724605977392	1.30065718257757	1.52136969286352
8355.2	0.936617423772011	1.28613145919729	1.50636856368577
8355.4	0.939575939916419	1.27206446409651	1.47610941734392
8355.6	0.943584136513947	1.26629574594453	1.4458502710018
8355.8	0.947546941524294	1.26045174930576	1.43640130984632
8356	0.950662835079562	1.25268142995872	1.42698735320685
8356.2	0.953769172511215	1.24475114382714	1.41492886178867
8356.4	0.956661990305887	1.22997522029762	1.40282520325226
8356.6	0.959593629852785	1.21525575563301	1.3790040650408
8356.8	0.963601826450186	1.20748543628587	1.35479674796754
8357	0.967556269852333	1.19971511693865	1.34532802619699
8357.2	0.969556784604742	1.19169627776559	1.33658649503172
8357.4	0.971578203377529	1.18367575826925	1.32469173441741
8357.6	0.974694096932796	1.16806572222004	1.31258807588062
8357.8	0.977786100178983	1.15228899809308	1.28999260901675
8358	0.97867123612853	1.14639845649695	1.26763211382099
8358.2	0.979556969335797	1.14087993849432	1.25889058265572
8358.4	0.980665181045926	1.13203740480677	1.2497425474255
8358.6	0.981773392756066	1.12301608471288	1.23427676151745
8358.8	0.980662792015044	1.10768397414853	1.21841463414601
8359	0.979540246119487	1.09190725002093	1.19420731707296
8359.2	0.979518147583645	1.08259245381338	1.17054878048778
8359.4	0.979510980490936	1.07398760950404	1.16449695121944
8359.6	0.979503813398228	1.06721809075451	1.15831300812965
8359.8	0.979496646305519	1.06039076888124	1.14351964769633
8360	0.977540925882576	1.0526204495342	1.12872628726287
8360.2	0.975526076944739	1.04460278658758	1.11057079945809
8360.4	0.97351122800692	1.03107786380464	1.09241531165347
8360.6	0.971496379069084	1.01777171912416	1.0861805555556
8360.8	0.970546142027458	1.01200300097223	1.08012872628728
8361	0.969646671892495	1.00623764346698	1.07668529810301
8361.2	0.969591724181707	1.00071912546435	1.07332317073175
8361.4	0.969584557088998	0.995200607461777	1.06739329268299
8361.6	0.966646646336051	0.986183992273283	1.06134146341462
8361.8	0.963516418595394	0.977162672179429	1.0609756097561
8362	0.961423926153219	0.972572364804719	1.0609756097561
8362.2	0.959409077215391	0.968054647399527	1.06436622320765
8362.4	0.958348184606004	0.964506812642046	1.0684259259259
8362.6	0.957283138340562	0.960989895834469	1.07716745709132
8362.8	0.955268289402799	0.958666848779317	1.08557475158089
8363	0.953253440465013	0.956400932718619	1.08893687895214
8363.2	0.951238591527186	0.955310402853292	1.09242547425476
8363.4	0.949223742589376	0.9542954875395	1.0984773035231
8363.6	0.947208893651538	0.955215754820727	1.10461495031641
8363.8	0.945194044713723	0.956305826416055	1.11335648148155
8364	0.943179195775941	0.957542712446666	1.12210930442636
8364.2	0.941164346838156	0.95876380343762	1.13152326106588
8364.4	0.939149497900338	0.959750489318839	1.14093157181559
8364.6	0.937134648962501	0.960906551795484	1.14698340108396
8364.8	0.935119800024692	0.965396039767984	1.15303523035227
8365	0.933104951086864	0.969851921273191	1.16174062782286
8365.2	0.931090102149027	0.973340608648278	1.17048215898812
8365.4	0.929097949004806	0.976824591117899	1.17661077235765
8365.6	0.927975403109279	0.980063078343545	1.18266260162602
8365.8	0.926837328512908	0.983302573763184	1.18614216350491
8366	0.924822479575071	0.986791261138193	1.18950429087615
8366.2	0.922818082647441	0.990279948513201	1.19223351400179
8366.4	0.921918612512462	0.994758682416155	1.19492321589884
8366.6	0.921017649233135	0.999248170388696	1.19512195121951
8366.8	0.919002800295372	1.00251858375828	1.19490966576329
8367	0.91698795135759	1.00575707098391	1.19221996386629
8367.2	0.916967345966016	1.00707461253619	1.18948735320686
8367.4	0.916960178873307	1.00831149856679	1.18612522583556
8367.6	0.91585405756522	1.01049407058849	1.18263211382098
8367.8	0.914731511669673	1.01273175721665	1.1765802845528
8368	0.91382696484402	1.01287492076752	1.17052845528457
8368.2	0.912927494709036	1.01286080605124	1.16447662601633
8368.4	0.91289285376096	1.01284669133496	1.15848690153576
8368.6	0.912885686668252	1.01283257661867	1.1557971996387
8368.8	0.912878519575543	1.01281846190239	1.15307588075888
8369	0.912871352482834	1.01268336390362	1.14097222222236
8369.2	0.911801066638283	1.01041744784293	1.12886856368584
8369.4	0.910678520742736	1.00819051528438	1.12540368112019
8369.6	0.911664294619117	1.0069253998212	1.12204155374887
8369.8	0.912772506329242	1.00561189104508	1.11606199187003
8370	0.912835517019289	1.00234517438687	1.1100101626018
8370.2	0.91282834992658	0.999097277350349	1.10138154923223
8370.4	0.912821182833871	0.997832161887185	1.0926400180668
8370.6	0.912814015741162	0.99656704642401	1.08897075429089
8370.8	0.913703386790964	0.994306507398072	1.08560862691968
8371	0.914681043391862	0.992040591337313	1.07924057649675
8371.2	0.915789255101997	0.98756824266309	1.07268292682926
8371.4	0.916816837019128	0.983050525258041	1.06663109756092
8371.6	0.916809669926419	0.980705970063767	1.06057926829253
8371.8	0.916859839575361	0.97844005400309	1.05452743902435
8372	0.917744975524935	0.976174137942402	1.04878048780488
8372.2	0.918692823535724	0.973908221881714	1.04878048780488
8372.4	0.920693338288115	0.971642305820981	1.0484722222225
8372.6	0.922650850484255	0.969376389760222	1.03973069105704
8372.8	0.923759062194355	0.966921987244771	1.03109756097563
8373	0.924938944831516	0.964466484881286	1.02773543360438
8373.2	0.927831762626213	0.962200568820588	1.02439024390244
8373.4	0.930695912050054	0.959934652759912	1.02439024390244
8373.6	0.932696426802464	0.957668736699214	1.02439024390244
8373.8	0.934723818152513	0.955402820638535	1.01573678861802
8374	0.937839711707795	0.953136904577786	1.00699525745275
8374.2	0.940937687531267	0.95090795563115	1.0034976287263
8374.4	0.942938202283613	0.949893040317362	1.000135501355
8374.6	0.94495484299456	0.948874428292155	0.997418699187004
8374.8	0.948963039592052	0.947609312828986	0.994728997290036
8375	0.952971236189581	0.946344197365806	0.988863482384872
8375.2	0.954971750941991	0.941826479960695	0.982811653116476
8375.4	0.956972265694382	0.937308762555625	0.9789757329391
8375.6	0.957866360509807	0.937228107033962	0.97560975609756
8375.8	0.958751496459345	0.937213992317678	0.97560975609756
8376	0.962709523407844	0.936228650695143	0.975203252032552
8376.2	0.966717720005409	0.935213735381318	0.96915142276432
8376.4	0.968766612633585	0.933959710052366	0.963414634146341
8376.6	0.970767127385995	0.932694594589185	0.963414634146341
8376.8	0.974710820149137	0.930487825911022	0.963414634146341
8377	0.978719016746684	0.928221909850324	0.963414634146341
8377.2	0.981870745765395	0.927030316172285	0.963355916892552
8377.4	0.984986639320549	0.926010940363747	0.960666214995523
8377.6	0.987890207754298	0.925996825647462	0.958012646793128
8377.8	0.990783025548957	0.925902055409535	0.960702348690108
8378	0.992833709950355	0.924636939946359	0.963392050587113
8378.2	0.994834224702783	0.923433996447776	0.963414634146341
8378.4	0.998713413631476	0.923419881731492	0.963414634146341
8378.6	1.00272161022891	0.923405767015208	0.963414634146341
8378.8	1.00486725860869	0.923391652298923	0.963414634146341
8379	1.0068677733611	0.923377537582639	0.963414634146341
8379.2	1.00903614468251	0.923363422866354	0.963414634146341
8379.4	1.01129285585115	0.923349308150069	0.963414634146341
8379.6	1.01440874940642	0.923335193433784	0.963414634146341
8379.8	1.01750881563192	0.9233210787175	0.96904979674789
8380	1.02040163342655	0.924546202484551	0.975101626016286
8380.2	1.02330848677774	0.925783088515162	0.97896957378671
8380.4	1.02642438033296	0.926775823560501	0.982570009033475
8380.6	1.02936886092096	0.927762509441729	0.985259710930466
8380.8	1.02936169382825	0.928989649596797	0.987804878048778
8381	1.02949040286816	0.930226535627408	0.987804878048778
8381.2	1.03238322066285	0.932410451907816	0.988168473351633
8381.4	1.03516345537617	0.934648138535975	0.997582429991022
8381.6	1.03515628828346	0.936885825164097	1.00683830171634
8381.8	1.03514912119075	0.939123511792195	1.00952800361339
8382	1.03514195409805	0.940297782863865	1.01224593495954
8382.2	1.03520586067469	0.941701127837467	1.01829776422777
8382.4	1.03832175422993	0.947441616556982	1.02434959349595
8382.6	1.04139165894028	0.952920310895788	1.03040142276432
8382.8	1.04138449184757	0.953906996777011	1.03645325203263
8383	1.04137732475486	0.954944092359286	1.04250508130089
8383.2	1.04137015766215	0.957181778987405	1.04855691056915
8383.4	1.04136299056944	0.959476932674671	1.04878048780488
8383.6	1.03935082929141	0.963966420647212	1.04878048780488
