# == pyFAI calibration ==
# Distance Sample to Detector: 0.3999999939076516 m
# PONI: 9.750e-02, 1.135e-01 m
# Rotations: -0.000175 0.000000 -0.000000 rad
# 
# == Fit2d calibration ==
# Distance Sample-beamCenter: 400.000 mm
# Center: x=1514.000, y=1300.000 pix
# Tilt: 0.010 deg  TiltPlanRot: 0.010 deg
# 
# Detector Detector	 Spline= None	 PixelSize= 7.500e-05, 7.500e-05 m
#    Detector has a mask: False 
#    Detector has a dark current: False 
#    detector has a flat field: False 
# 
# Wavelength: 6.888e-11 m
# Mask applied: user provided
# Dark current applied: False
# Flat field applied: False
# Polarization factor: 0.99
# Normalization factor: 1.0
# --> /home/myspot/data/2024_07_Rosario/Ru-CGO-ex/2024-07-27_002_Ru-CGO-ex_Activtation_ramp_000002_data_000086.dat
#       q_nm^-1             I 
  2.003187e-02    0.000000e+00
  3.590745e-02    0.000000e+00
  5.178302e-02    0.000000e+00
  6.765859e-02    3.248854e-02
  8.353417e-02    5.559655e-02
  9.940974e-02    6.157203e-02
  1.152853e-01    3.177292e-02
  1.311609e-01    4.543610e-02
  1.470365e-01    5.218831e-02
  1.629120e-01    3.497633e-02
  1.787876e-01    1.897041e-02
  1.946632e-01    1.254156e-02
  2.105388e-01    5.124550e-02
  2.264143e-01    2.252015e-02
  2.422899e-01    3.666023e-02
  2.581655e-01    4.596264e-02
  2.740411e-01    3.260752e-02
  2.899166e-01    5.734079e-02
  3.057922e-01    4.435865e-02
  3.216678e-01    2.242589e-02
  3.375433e-01    4.554607e-03
  3.534189e-01    2.097605e-02
  3.692945e-01    3.290271e-02
  3.851701e-01    2.960007e-02
  4.010456e-01    5.472506e-02
  4.169212e-01    5.678617e-02
  4.327968e-01    3.004631e-02
  4.486724e-01    4.865186e-02
  4.645479e-01    3.839411e-02
  4.804235e-01    8.478113e-03
  4.962991e-01    2.677350e-02
  5.121747e-01    3.800808e-02
  5.280502e-01    3.173465e-02
  5.439258e-01    3.511346e-02
  5.598014e-01    4.896850e-02
  5.756770e-01    3.714253e-02
  5.915525e-01    2.034654e-02
  6.074281e-01    2.819868e-02
  6.233037e-01    1.206783e-02
  6.391793e-01    4.068683e-02
  6.550548e-01    3.392442e-02
  6.709304e-01    3.972876e-02
  6.868060e-01    1.730404e-02
  7.026815e-01    2.404475e-02
  7.185571e-01    3.668589e-02
  7.344327e-01    2.914133e-02
  7.503083e-01    2.879522e-02
  7.661838e-01    7.940711e-02
  7.820594e-01    9.920607e-02
  7.979350e-01    1.626282e-01
  8.138106e-01    1.701822e-01
  8.296861e-01    2.036259e-01
  8.455617e-01    3.425793e-01
  8.614373e-01    4.119115e-01
  8.773129e-01    4.185385e-01
  8.931884e-01    5.541608e-01
  9.090640e-01    5.995190e-01
  9.249396e-01    6.374354e-01
  9.408152e-01    7.476344e-01
  9.566907e-01    8.105862e-01
  9.725663e-01    9.096686e-01
  9.884419e-01    1.019985e+00
  1.004317e+00    9.989421e-01
  1.020193e+00    1.058538e+00
  1.036069e+00    1.153465e+00
  1.051944e+00    1.146962e+00
  1.067820e+00    1.260456e+00
  1.083695e+00    1.304379e+00
  1.099571e+00    1.405264e+00
  1.115446e+00    1.477537e+00
  1.131322e+00    1.450719e+00
  1.147198e+00    1.393409e+00
  1.163073e+00    1.444248e+00
  1.178949e+00    1.560175e+00
  1.194824e+00    1.578578e+00
  1.210700e+00    1.798268e+00
  1.226575e+00    2.033181e+00
  1.242451e+00    2.191572e+00
  1.258327e+00    2.320862e+00
  1.274202e+00    2.382043e+00
  1.290078e+00    2.511759e+00
  1.305953e+00    2.660904e+00
  1.321829e+00    2.573601e+00
  1.337705e+00    2.510109e+00
  1.353580e+00    2.692579e+00
  1.369456e+00    2.811438e+00
  1.385331e+00    2.577873e+00
  1.401207e+00    2.610437e+00
  1.417082e+00    2.689933e+00
  1.432958e+00    2.680218e+00
  1.448834e+00    2.706761e+00
  1.464709e+00    2.783454e+00
  1.480585e+00    2.704319e+00
  1.496460e+00    2.765921e+00
  1.512336e+00    2.860997e+00
  1.528211e+00    2.948020e+00
  1.544087e+00    3.013546e+00
  1.559963e+00    2.969856e+00
  1.575838e+00    2.827832e+00
  1.591714e+00    2.861857e+00
  1.607589e+00    2.881897e+00
  1.623465e+00    2.899602e+00
  1.639340e+00    2.758891e+00
  1.655216e+00    2.864460e+00
  1.671092e+00    2.847902e+00
  1.686967e+00    2.879570e+00
  1.702843e+00    2.872676e+00
  1.718718e+00    2.730109e+00
  1.734594e+00    2.778866e+00
  1.750469e+00    2.905472e+00
  1.766345e+00    2.832502e+00
  1.782221e+00    2.638693e+00
  1.798096e+00    2.686754e+00
  1.813972e+00    2.797813e+00
  1.829847e+00    2.753786e+00
  1.845723e+00    2.641572e+00
  1.861598e+00    2.636571e+00
  1.877474e+00    2.781998e+00
  1.893350e+00    2.877738e+00
  1.909225e+00    2.841244e+00
  1.925101e+00    2.723617e+00
  1.940976e+00    2.654196e+00
  1.956852e+00    2.702601e+00
  1.972727e+00    2.808919e+00
  1.988603e+00    2.843159e+00
  2.004479e+00    2.764772e+00
  2.020354e+00    2.707577e+00
  2.036230e+00    2.757143e+00
  2.052105e+00    2.756194e+00
  2.067981e+00    2.721222e+00
  2.083856e+00    2.738654e+00
  2.099732e+00    2.707767e+00
  2.115608e+00    2.915983e+00
  2.131483e+00    2.845480e+00
  2.147359e+00    2.711078e+00
  2.163234e+00    2.754008e+00
  2.179110e+00    2.806830e+00
  2.194985e+00    2.773361e+00
  2.210861e+00    2.682833e+00
  2.226737e+00    2.694878e+00
  2.242612e+00    2.758430e+00
  2.258488e+00    2.789531e+00
  2.274363e+00    2.819441e+00
  2.290239e+00    2.852022e+00
  2.306115e+00    2.809942e+00
  2.321990e+00    2.801201e+00
  2.337866e+00    2.764013e+00
  2.353741e+00    2.709890e+00
  2.369617e+00    2.677567e+00
  2.385492e+00    2.689133e+00
  2.401368e+00    2.776427e+00
  2.417244e+00    2.780119e+00
  2.433119e+00    2.798443e+00
  2.448995e+00    2.794598e+00
  2.464870e+00    2.815653e+00
  2.480746e+00    2.883324e+00
  2.496621e+00    2.751787e+00
  2.512497e+00    2.679048e+00
  2.528373e+00    2.711134e+00
  2.544248e+00    2.680191e+00
  2.560124e+00    2.766057e+00
  2.575999e+00    2.715810e+00
  2.591875e+00    2.697604e+00
  2.607750e+00    2.825760e+00
  2.623626e+00    2.767122e+00
  2.639502e+00    2.766548e+00
  2.655377e+00    2.831884e+00
  2.671253e+00    2.916446e+00
  2.687128e+00    2.951310e+00
  2.703004e+00    2.844988e+00
  2.718879e+00    2.716395e+00
  2.734755e+00    2.607478e+00
  2.750631e+00    2.742612e+00
  2.766506e+00    2.875750e+00
  2.782382e+00    2.860827e+00
  2.798257e+00    2.814631e+00
  2.814133e+00    2.760001e+00
  2.830008e+00    2.731599e+00
  2.845884e+00    2.839342e+00
  2.861760e+00    2.754084e+00
  2.877635e+00    2.788461e+00
  2.893511e+00    2.823307e+00
  2.909386e+00    2.821695e+00
  2.925262e+00    2.839809e+00
  2.941137e+00    2.720576e+00
  2.957013e+00    2.689931e+00
  2.972889e+00    2.761580e+00
  2.988764e+00    2.799052e+00
  3.004640e+00    2.811653e+00
  3.020515e+00    2.873009e+00
  3.036391e+00    2.898136e+00
  3.052266e+00    2.896767e+00
  3.068142e+00    2.969725e+00
  3.084018e+00    2.914326e+00
  3.099893e+00    2.818157e+00
  3.115769e+00    2.798068e+00
  3.131644e+00    2.861798e+00
  3.147520e+00    2.926857e+00
  3.163395e+00    2.963067e+00
  3.179271e+00    2.821476e+00
  3.195147e+00    2.784847e+00
  3.211022e+00    2.857054e+00
  3.226898e+00    2.934617e+00
  3.242773e+00    2.865806e+00
  3.258649e+00    2.826548e+00
  3.274525e+00    2.825018e+00
  3.290400e+00    2.839725e+00
  3.306276e+00    2.815084e+00
  3.322151e+00    2.901557e+00
  3.338027e+00    2.952065e+00
  3.353902e+00    2.963640e+00
  3.369778e+00    2.880422e+00
  3.385654e+00    2.938247e+00
  3.401529e+00    2.922830e+00
  3.417405e+00    2.841720e+00
  3.433280e+00    2.862045e+00
  3.449156e+00    2.944329e+00
  3.465031e+00    2.969859e+00
  3.480907e+00    2.955235e+00
  3.496783e+00    2.974678e+00
  3.512658e+00    2.948001e+00
  3.528534e+00    2.919399e+00
  3.544409e+00    2.887663e+00
  3.560285e+00    2.923572e+00
  3.576160e+00    2.917750e+00
  3.592036e+00    2.938774e+00
  3.607912e+00    2.933377e+00
  3.623787e+00    2.880372e+00
  3.639663e+00    2.929572e+00
  3.655538e+00    2.920776e+00
  3.671414e+00    2.941811e+00
  3.687289e+00    2.986042e+00
  3.703165e+00    2.991654e+00
  3.719041e+00    2.954880e+00
  3.734916e+00    2.960089e+00
  3.750792e+00    2.946292e+00
  3.766667e+00    3.012375e+00
  3.782543e+00    3.073475e+00
  3.798418e+00    3.001770e+00
  3.814294e+00    2.944422e+00
  3.830170e+00    2.919713e+00
  3.846045e+00    2.878089e+00
  3.861921e+00    2.946564e+00
  3.877796e+00    2.909751e+00
  3.893672e+00    3.025369e+00
  3.909547e+00    2.999611e+00
  3.925423e+00    2.972817e+00
  3.941299e+00    2.976334e+00
  3.957174e+00    2.974132e+00
  3.973050e+00    2.981249e+00
  3.988925e+00    2.927828e+00
  4.004801e+00    2.968698e+00
  4.020676e+00    3.020929e+00
  4.036552e+00    3.024802e+00
  4.052428e+00    2.933328e+00
  4.068303e+00    3.013408e+00
  4.084179e+00    2.977431e+00
  4.100054e+00    2.958250e+00
  4.115930e+00    2.987895e+00
  4.131806e+00    2.951994e+00
  4.147681e+00    2.962310e+00
  4.163557e+00    3.010916e+00
  4.179432e+00    2.994236e+00
  4.195308e+00    2.949057e+00
  4.211183e+00    2.970335e+00
  4.227059e+00    2.932888e+00
  4.242935e+00    2.980240e+00
  4.258810e+00    2.981601e+00
  4.274686e+00    2.945985e+00
  4.290561e+00    2.910618e+00
  4.306437e+00    3.054798e+00
  4.322312e+00    3.045879e+00
  4.338188e+00    2.980221e+00
  4.354064e+00    3.056234e+00
  4.369939e+00    3.005205e+00
  4.385815e+00    3.003859e+00
  4.401690e+00    2.988039e+00
  4.417566e+00    3.054877e+00
  4.433441e+00    2.996599e+00
  4.449317e+00    2.985648e+00
  4.465193e+00    3.004969e+00
  4.481068e+00    3.015286e+00
  4.496944e+00    3.087609e+00
  4.512819e+00    2.999189e+00
  4.528695e+00    3.074210e+00
  4.544570e+00    3.086751e+00
  4.560446e+00    3.030026e+00
  4.576322e+00    2.977258e+00
  4.592197e+00    2.982140e+00
  4.608073e+00    2.990152e+00
  4.623948e+00    3.053954e+00
  4.639824e+00    3.058648e+00
  4.655699e+00    2.998243e+00
  4.671575e+00    2.968975e+00
  4.687451e+00    3.096687e+00
  4.703326e+00    3.107845e+00
  4.719202e+00    3.013915e+00
  4.735077e+00    3.054291e+00
  4.750953e+00    3.029226e+00
  4.766828e+00    3.010855e+00
  4.782704e+00    3.002337e+00
  4.798580e+00    3.127354e+00
  4.814455e+00    3.137590e+00
  4.830331e+00    3.073661e+00
  4.846206e+00    3.097375e+00
  4.862082e+00    3.062773e+00
  4.877957e+00    3.017786e+00
  4.893833e+00    3.076230e+00
  4.909709e+00    3.103973e+00
  4.925584e+00    3.078106e+00
  4.941460e+00    3.037869e+00
  4.957335e+00    3.066344e+00
  4.973211e+00    3.077752e+00
  4.989086e+00    3.060704e+00
  5.004962e+00    3.003619e+00
  5.020838e+00    3.049600e+00
  5.036713e+00    2.974257e+00
  5.052589e+00    3.033671e+00
  5.068464e+00    3.110001e+00
  5.084340e+00    3.090886e+00
  5.100216e+00    3.152524e+00
  5.116091e+00    3.123857e+00
  5.131967e+00    3.001778e+00
  5.147842e+00    3.152847e+00
  5.163718e+00    3.074546e+00
  5.179593e+00    3.054991e+00
  5.195469e+00    3.039999e+00
  5.211345e+00    3.099233e+00
  5.227220e+00    3.060434e+00
  5.243096e+00    3.083531e+00
  5.258971e+00    3.078812e+00
  5.274847e+00    3.105928e+00
  5.290722e+00    3.156578e+00
  5.306598e+00    3.048885e+00
  5.322474e+00    3.010870e+00
  5.338349e+00    3.079305e+00
  5.354225e+00    3.085616e+00
  5.370100e+00    3.081567e+00
  5.385976e+00    3.025141e+00
  5.401851e+00    3.095067e+00
  5.417727e+00    3.030622e+00
  5.433603e+00    3.048876e+00
  5.449478e+00    3.010492e+00
  5.465354e+00    2.985593e+00
  5.481229e+00    3.006852e+00
  5.497105e+00    3.062473e+00
  5.512980e+00    3.028737e+00
  5.528856e+00    3.033076e+00
  5.544732e+00    3.081974e+00
  5.560607e+00    3.008610e+00
  5.576483e+00    3.019195e+00
  5.592358e+00    3.038331e+00
  5.608234e+00    3.038471e+00
  5.624109e+00    3.045666e+00
  5.639985e+00    3.074583e+00
  5.655861e+00    2.990806e+00
  5.671736e+00    3.036987e+00
  5.687612e+00    3.036169e+00
  5.703487e+00    3.062889e+00
  5.719363e+00    3.020299e+00
  5.735238e+00    2.960187e+00
  5.751114e+00    3.004539e+00
  5.766990e+00    3.099490e+00
  5.782865e+00    3.030936e+00
  5.798741e+00    2.966487e+00
  5.814616e+00    3.030524e+00
  5.830492e+00    3.046067e+00
  5.846367e+00    2.993080e+00
  5.862243e+00    2.849450e+00
  5.878119e+00    2.902177e+00
  5.893994e+00    3.031795e+00
  5.909870e+00    3.068780e+00
  5.925745e+00    3.047407e+00
  5.941621e+00    2.975729e+00
  5.957497e+00    2.892908e+00
  5.973372e+00    2.923813e+00
  5.989248e+00    2.951371e+00
  6.005123e+00    3.004676e+00
  6.020999e+00    2.931671e+00
  6.036874e+00    2.924015e+00
  6.052750e+00    2.985146e+00
  6.068626e+00    2.946558e+00
  6.084501e+00    3.005693e+00
  6.100377e+00    3.039907e+00
  6.116252e+00    3.091388e+00
  6.132128e+00    3.080279e+00
  6.148003e+00    3.078555e+00
  6.163879e+00    3.028806e+00
  6.179755e+00    3.020549e+00
  6.195630e+00    3.036644e+00
  6.211506e+00    3.052245e+00
  6.227381e+00    3.062845e+00
  6.243257e+00    3.077213e+00
  6.259132e+00    3.005878e+00
  6.275008e+00    3.063331e+00
  6.290884e+00    3.025777e+00
  6.306759e+00    2.992698e+00
  6.322635e+00    2.966728e+00
  6.338510e+00    2.892811e+00
  6.354386e+00    2.928787e+00
  6.370261e+00    2.953621e+00
  6.386137e+00    2.999083e+00
  6.402013e+00    2.976973e+00
  6.417888e+00    2.933646e+00
  6.433764e+00    3.043435e+00
  6.449639e+00    3.012609e+00
  6.465515e+00    3.007191e+00
  6.481390e+00    2.978383e+00
  6.497266e+00    2.990456e+00
  6.513142e+00    3.019018e+00
  6.529017e+00    3.040976e+00
  6.544893e+00    3.018835e+00
  6.560768e+00    2.944711e+00
  6.576644e+00    2.923633e+00
  6.592519e+00    3.006613e+00
  6.608395e+00    2.954993e+00
  6.624271e+00    2.969079e+00
  6.640146e+00    2.990437e+00
  6.656022e+00    2.961430e+00
  6.671897e+00    2.990202e+00
  6.687773e+00    3.007295e+00
  6.703648e+00    3.031843e+00
  6.719524e+00    2.981606e+00
  6.735400e+00    2.953060e+00
  6.751275e+00    2.918949e+00
  6.767151e+00    2.918883e+00
  6.783026e+00    2.969353e+00
  6.798902e+00    3.023607e+00
  6.814777e+00    3.016671e+00
  6.830653e+00    2.996715e+00
  6.846529e+00    2.981140e+00
  6.862404e+00    2.977826e+00
  6.878280e+00    3.013756e+00
  6.894155e+00    2.932938e+00
  6.910031e+00    2.952012e+00
  6.925907e+00    2.962145e+00
  6.941782e+00    3.044171e+00
  6.957658e+00    2.986752e+00
  6.973533e+00    2.938386e+00
  6.989409e+00    2.951945e+00
  7.005284e+00    2.906976e+00
  7.021160e+00    2.926476e+00
  7.037036e+00    3.029649e+00
  7.052911e+00    3.027647e+00
  7.068787e+00    3.007509e+00
  7.084662e+00    3.013986e+00
  7.100538e+00    2.989476e+00
  7.116413e+00    2.933262e+00
  7.132289e+00    2.894827e+00
  7.148165e+00    2.969934e+00
  7.164040e+00    2.987876e+00
  7.179916e+00    2.963895e+00
  7.195791e+00    2.906518e+00
  7.211667e+00    2.955479e+00
  7.227542e+00    2.925257e+00
  7.243418e+00    2.942675e+00
  7.259294e+00    2.949273e+00
  7.275169e+00    2.980069e+00
  7.291045e+00    2.888506e+00
  7.306920e+00    2.928061e+00
  7.322796e+00    2.971614e+00
  7.338671e+00    2.952224e+00
  7.354547e+00    2.997048e+00
  7.370423e+00    3.003027e+00
  7.386298e+00    2.972827e+00
  7.402174e+00    2.934212e+00
  7.418049e+00    2.904329e+00
  7.433925e+00    2.882796e+00
  7.449800e+00    2.911940e+00
  7.465676e+00    2.926996e+00
  7.481552e+00    2.917751e+00
  7.497427e+00    2.908618e+00
  7.513303e+00    2.944292e+00
  7.529178e+00    2.974384e+00
  7.545054e+00    2.953135e+00
  7.560929e+00    2.937967e+00
  7.576805e+00    2.891965e+00
  7.592681e+00    2.905887e+00
  7.608556e+00    2.927810e+00
  7.624432e+00    2.920690e+00
  7.640307e+00    2.937989e+00
  7.656183e+00    2.949933e+00
  7.672058e+00    2.975067e+00
  7.687934e+00    2.901780e+00
  7.703810e+00    2.968273e+00
  7.719685e+00    2.948909e+00
  7.735561e+00    2.911985e+00
  7.751436e+00    2.929406e+00
  7.767312e+00    2.931935e+00
  7.783187e+00    2.883284e+00
  7.799063e+00    2.879360e+00
  7.814939e+00    2.943810e+00
  7.830814e+00    2.905610e+00
  7.846690e+00    2.886853e+00
  7.862565e+00    2.889961e+00
  7.878441e+00    2.875404e+00
  7.894317e+00    2.879684e+00
  7.910192e+00    2.909450e+00
  7.926068e+00    2.942938e+00
  7.941943e+00    2.854759e+00
  7.957819e+00    2.863219e+00
  7.973694e+00    2.904505e+00
  7.989570e+00    2.873859e+00
  8.005446e+00    2.845675e+00
  8.021321e+00    2.883939e+00
  8.037197e+00    2.917383e+00
  8.053072e+00    2.952440e+00
  8.068948e+00    2.872323e+00
  8.084823e+00    2.913058e+00
  8.100699e+00    2.959767e+00
  8.116575e+00    2.930677e+00
  8.132450e+00    2.944901e+00
  8.148326e+00    2.953299e+00
  8.164201e+00    2.938366e+00
  8.180077e+00    2.938366e+00
  8.195952e+00    2.952335e+00
  8.211828e+00    2.974798e+00
  8.227704e+00    2.926360e+00
  8.243579e+00    2.980427e+00
  8.259455e+00    2.940952e+00
  8.275330e+00    2.911795e+00
  8.291206e+00    2.920852e+00
  8.307081e+00    2.917209e+00
  8.322957e+00    2.909157e+00
  8.338833e+00    2.880332e+00
  8.354708e+00    2.882094e+00
  8.370584e+00    2.872896e+00
  8.386459e+00    2.820513e+00
  8.402335e+00    2.806167e+00
  8.418210e+00    2.837361e+00
  8.434086e+00    2.854390e+00
  8.449962e+00    2.799202e+00
  8.465837e+00    2.844611e+00
  8.481713e+00    2.860327e+00
  8.497588e+00    2.809835e+00
  8.513464e+00    2.892259e+00
  8.529339e+00    2.889117e+00
  8.545215e+00    2.867937e+00
  8.561091e+00    2.866418e+00
  8.576966e+00    2.839186e+00
  8.592842e+00    2.828313e+00
  8.608717e+00    2.825863e+00
  8.624593e+00    2.804423e+00
  8.640468e+00    2.798381e+00
  8.656344e+00    2.817981e+00
  8.672220e+00    2.859210e+00
  8.688095e+00    2.823241e+00
  8.703971e+00    2.773746e+00
  8.719846e+00    2.785213e+00
  8.735722e+00    2.852997e+00
  8.751598e+00    2.833548e+00
  8.767473e+00    2.841180e+00
  8.783349e+00    2.863165e+00
  8.799224e+00    2.801458e+00
  8.815100e+00    2.765683e+00
  8.830975e+00    2.766329e+00
  8.846851e+00    2.772764e+00
  8.862727e+00    2.802994e+00
  8.878602e+00    2.797956e+00
  8.894478e+00    2.796909e+00
  8.910353e+00    2.779515e+00
  8.926229e+00    2.786350e+00
  8.942104e+00    2.782600e+00
  8.957980e+00    2.858198e+00
  8.973856e+00    2.848456e+00
  8.989731e+00    2.831793e+00
  9.005607e+00    2.764646e+00
  9.021482e+00    2.758336e+00
  9.037358e+00    2.758911e+00
  9.053233e+00    2.803315e+00
  9.069109e+00    2.822331e+00
  9.084985e+00    2.777331e+00
  9.100860e+00    2.750493e+00
  9.116736e+00    2.817729e+00
  9.132611e+00    2.768172e+00
  9.148487e+00    2.749645e+00
  9.164362e+00    2.774389e+00
  9.180238e+00    2.733787e+00
  9.196114e+00    2.763475e+00
  9.211989e+00    2.753636e+00
  9.227865e+00    2.723259e+00
  9.243740e+00    2.686388e+00
  9.259616e+00    2.728224e+00
  9.275491e+00    2.700725e+00
  9.291367e+00    2.760835e+00
  9.307243e+00    2.770894e+00
  9.323118e+00    2.748093e+00
  9.338994e+00    2.732666e+00
  9.354869e+00    2.737540e+00
  9.370745e+00    2.755815e+00
  9.386620e+00    2.714884e+00
  9.402496e+00    2.666797e+00
  9.418372e+00    2.742017e+00
  9.434247e+00    2.726142e+00
  9.450123e+00    2.746399e+00
  9.465998e+00    2.732563e+00
  9.481874e+00    2.712671e+00
  9.497749e+00    2.682956e+00
  9.513625e+00    2.692413e+00
  9.529501e+00    2.688096e+00
  9.545376e+00    2.673697e+00
  9.561252e+00    2.687718e+00
  9.577127e+00    2.814921e+00
  9.593003e+00    2.762220e+00
  9.608878e+00    2.760244e+00
  9.624754e+00    2.723090e+00
  9.640630e+00    2.662478e+00
  9.656505e+00    2.716353e+00
  9.672381e+00    2.762595e+00
  9.688256e+00    2.743552e+00
  9.704132e+00    2.714065e+00
  9.720008e+00    2.695512e+00
  9.735883e+00    2.650875e+00
  9.751759e+00    2.685452e+00
  9.767634e+00    2.658061e+00
  9.783510e+00    2.677280e+00
  9.799385e+00    2.682554e+00
  9.815261e+00    2.673811e+00
  9.831137e+00    2.672050e+00
  9.847012e+00    2.643419e+00
  9.862888e+00    2.631242e+00
  9.878763e+00    2.645537e+00
  9.894639e+00    2.668663e+00
  9.910514e+00    2.694548e+00
  9.926390e+00    2.689157e+00
  9.942266e+00    2.664862e+00
  9.958141e+00    2.659098e+00
  9.974017e+00    2.608167e+00
  9.989892e+00    2.620474e+00
  1.000577e+01    2.723021e+00
  1.002164e+01    2.671208e+00
  1.003752e+01    2.647821e+00
  1.005339e+01    2.601433e+00
  1.006927e+01    2.609722e+00
  1.008515e+01    2.635478e+00
  1.010102e+01    2.635464e+00
  1.011690e+01    2.659874e+00
  1.013277e+01    2.625168e+00
  1.014865e+01    2.622793e+00
  1.016452e+01    2.565916e+00
  1.018040e+01    2.600174e+00
  1.019627e+01    2.621961e+00
  1.021215e+01    2.584669e+00
  1.022803e+01    2.574580e+00
  1.024390e+01    2.547397e+00
  1.025978e+01    2.527921e+00
  1.027565e+01    2.577463e+00
  1.029153e+01    2.558466e+00
  1.030740e+01    2.627373e+00
  1.032328e+01    2.601600e+00
  1.033915e+01    2.583046e+00
  1.035503e+01    2.592020e+00
  1.037091e+01    2.557832e+00
  1.038678e+01    2.586447e+00
  1.040266e+01    2.618047e+00
  1.041853e+01    2.618132e+00
  1.043441e+01    2.598818e+00
  1.045028e+01    2.598282e+00
  1.046616e+01    2.592287e+00
  1.048204e+01    2.517938e+00
  1.049791e+01    2.520182e+00
  1.051379e+01    2.566930e+00
  1.052966e+01    2.543283e+00
  1.054554e+01    2.541194e+00
  1.056141e+01    2.572096e+00
  1.057729e+01    2.552198e+00
  1.059316e+01    2.548540e+00
  1.060904e+01    2.537040e+00
  1.062492e+01    2.526065e+00
  1.064079e+01    2.508325e+00
  1.065667e+01    2.493273e+00
  1.067254e+01    2.505061e+00
  1.068842e+01    2.511883e+00
  1.070429e+01    2.554748e+00
  1.072017e+01    2.537563e+00
  1.073604e+01    2.537474e+00
  1.075192e+01    2.513750e+00
  1.076780e+01    2.524776e+00
  1.078367e+01    2.532574e+00
  1.079955e+01    2.470693e+00
  1.081542e+01    2.459666e+00
  1.083130e+01    2.516507e+00
  1.084717e+01    2.522891e+00
  1.086305e+01    2.518515e+00
  1.087892e+01    2.484149e+00
  1.089480e+01    2.457683e+00
  1.091068e+01    2.467571e+00
  1.092655e+01    2.472908e+00
  1.094243e+01    2.485771e+00
  1.095830e+01    2.457040e+00
  1.097418e+01    2.466103e+00
  1.099005e+01    2.514097e+00
  1.100593e+01    2.490879e+00
  1.102180e+01    2.518192e+00
  1.103768e+01    2.504555e+00
  1.105356e+01    2.550219e+00
  1.106943e+01    2.539603e+00
  1.108531e+01    2.456391e+00
  1.110118e+01    2.447224e+00
  1.111706e+01    2.457979e+00
  1.113293e+01    2.456342e+00
  1.114881e+01    2.450265e+00
  1.116468e+01    2.396082e+00
  1.118056e+01    2.411330e+00
  1.119644e+01    2.419302e+00
  1.121231e+01    2.441762e+00
  1.122819e+01    2.452397e+00
  1.124406e+01    2.424636e+00
  1.125994e+01    2.435686e+00
  1.127581e+01    2.400414e+00
  1.129169e+01    2.432531e+00
  1.130756e+01    2.448513e+00
  1.132344e+01    2.402297e+00
  1.133932e+01    2.433822e+00
  1.135519e+01    2.408535e+00
  1.137107e+01    2.411440e+00
  1.138694e+01    2.327793e+00
  1.140282e+01    2.394163e+00
  1.141869e+01    2.450082e+00
  1.143457e+01    2.438003e+00
  1.145045e+01    2.390425e+00
  1.146632e+01    2.409498e+00
  1.148220e+01    2.386627e+00
  1.149807e+01    2.409745e+00
  1.151395e+01    2.419621e+00
  1.152982e+01    2.360904e+00
  1.154570e+01    2.380854e+00
  1.156157e+01    2.359202e+00
  1.157745e+01    2.333622e+00
  1.159333e+01    2.355402e+00
  1.160920e+01    2.373107e+00
  1.162508e+01    2.359491e+00
  1.164095e+01    2.367871e+00
  1.165683e+01    2.385078e+00
  1.167270e+01    2.381035e+00
  1.168858e+01    2.356389e+00
  1.170445e+01    2.365470e+00
  1.172033e+01    2.323759e+00
  1.173621e+01    2.314984e+00
  1.175208e+01    2.313172e+00
  1.176796e+01    2.346481e+00
  1.178383e+01    2.348701e+00
  1.179971e+01    2.356926e+00
  1.181558e+01    2.327796e+00
  1.183146e+01    2.367700e+00
  1.184733e+01    2.292336e+00
  1.186321e+01    2.304807e+00
  1.187909e+01    2.315596e+00
  1.189496e+01    2.316781e+00
  1.191084e+01    2.322879e+00
  1.192671e+01    2.324486e+00
  1.194259e+01    2.319096e+00
  1.195846e+01    2.342791e+00
  1.197434e+01    2.348185e+00
  1.199021e+01    2.323484e+00
  1.200609e+01    2.308254e+00
  1.202197e+01    2.317479e+00
  1.203784e+01    2.329088e+00
  1.205372e+01    2.292363e+00
  1.206959e+01    2.314210e+00
  1.208547e+01    2.304821e+00
  1.210134e+01    2.296962e+00
  1.211722e+01    2.311453e+00
  1.213309e+01    2.340454e+00
  1.214897e+01    2.325231e+00
  1.216485e+01    2.325811e+00
  1.218072e+01    2.306278e+00
  1.219660e+01    2.290148e+00
  1.221247e+01    2.279653e+00
  1.222835e+01    2.327557e+00
  1.224422e+01    2.308994e+00
  1.226010e+01    2.266496e+00
  1.227597e+01    2.227237e+00
  1.229185e+01    2.260195e+00
  1.230773e+01    2.291304e+00
  1.232360e+01    2.284130e+00
  1.233948e+01    2.287631e+00
  1.235535e+01    2.291183e+00
  1.237123e+01    2.289442e+00
  1.238710e+01    2.235299e+00
  1.240298e+01    2.318181e+00
  1.241886e+01    2.334316e+00
  1.243473e+01    2.326595e+00
  1.245061e+01    2.344431e+00
  1.246648e+01    2.353588e+00
  1.248236e+01    2.318893e+00
  1.249823e+01    2.297009e+00
  1.251411e+01    2.392435e+00
  1.252998e+01    2.385522e+00
  1.254586e+01    2.376999e+00
  1.256174e+01    2.367877e+00
  1.257761e+01    2.374618e+00
  1.259349e+01    2.369503e+00
  1.260936e+01    2.336086e+00
  1.262524e+01    2.388071e+00
  1.264111e+01    2.392219e+00
  1.265699e+01    2.435708e+00
  1.267286e+01    2.434292e+00
  1.268874e+01    2.448068e+00
  1.270462e+01    2.460986e+00
  1.272049e+01    2.488713e+00
  1.273637e+01    2.450603e+00
  1.275224e+01    2.479083e+00
  1.276812e+01    2.556515e+00
  1.278399e+01    2.617371e+00
  1.279987e+01    2.650630e+00
  1.281574e+01    2.710358e+00
  1.283162e+01    2.725829e+00
  1.284750e+01    2.791974e+00
  1.286337e+01    2.915150e+00
  1.287925e+01    3.029584e+00
  1.289512e+01    3.129810e+00
  1.291100e+01    3.263922e+00
  1.292687e+01    3.430379e+00
  1.294275e+01    3.629555e+00
  1.295862e+01    3.958103e+00
  1.297450e+01    4.302061e+00
  1.299038e+01    4.710130e+00
  1.300625e+01    5.232601e+00
  1.302213e+01    5.912793e+00
  1.303800e+01    6.841092e+00
  1.305388e+01    7.901115e+00
  1.306975e+01    9.259506e+00
  1.308563e+01    1.069557e+01
  1.310150e+01    1.210698e+01
  1.311738e+01    1.351504e+01
  1.313326e+01    1.487116e+01
  1.314913e+01    1.603553e+01
  1.316501e+01    1.725028e+01
  1.318088e+01    1.799732e+01
  1.319676e+01    1.805005e+01
  1.321263e+01    1.732187e+01
  1.322851e+01    1.563504e+01
  1.324438e+01    1.338254e+01
  1.326026e+01    1.134160e+01
  1.327614e+01    9.552071e+00
  1.329201e+01    8.034897e+00
  1.330789e+01    6.878624e+00
  1.332376e+01    6.056061e+00
  1.333964e+01    5.254519e+00
  1.335551e+01    4.708832e+00
  1.337139e+01    4.239301e+00
  1.338727e+01    3.952839e+00
  1.340314e+01    3.666426e+00
  1.341902e+01    3.413799e+00
  1.343489e+01    3.202663e+00
  1.345077e+01    3.092212e+00
  1.346664e+01    2.973724e+00
  1.348252e+01    2.845075e+00
  1.349839e+01    2.822276e+00
  1.351427e+01    2.700269e+00
  1.353015e+01    2.569973e+00
  1.354602e+01    2.588847e+00
  1.356190e+01    2.472480e+00
  1.357777e+01    2.415891e+00
  1.359365e+01    2.415108e+00
  1.360952e+01    2.370411e+00
  1.362540e+01    2.345670e+00
  1.364127e+01    2.335573e+00
  1.365715e+01    2.288566e+00
  1.367303e+01    2.264686e+00
  1.368890e+01    2.195409e+00
  1.370478e+01    2.262359e+00
  1.372065e+01    2.274381e+00
  1.373653e+01    2.235000e+00
  1.375240e+01    2.160211e+00
  1.376828e+01    2.141761e+00
  1.378415e+01    2.158444e+00
  1.380003e+01    2.156103e+00
  1.381591e+01    2.132293e+00
  1.383178e+01    2.104207e+00
  1.384766e+01    2.103684e+00
  1.386353e+01    2.093940e+00
  1.387941e+01    2.078599e+00
  1.389528e+01    2.089298e+00
  1.391116e+01    2.075585e+00
  1.392703e+01    2.078129e+00
  1.394291e+01    2.083692e+00
  1.395879e+01    2.051570e+00
  1.397466e+01    2.030045e+00
  1.399054e+01    2.039140e+00
  1.400641e+01    2.045372e+00
  1.402229e+01    2.015465e+00
  1.403816e+01    1.991025e+00
  1.405404e+01    2.036616e+00
  1.406991e+01    1.991769e+00
  1.408579e+01    2.005977e+00
  1.410167e+01    2.043602e+00
  1.411754e+01    1.974644e+00
  1.413342e+01    1.968051e+00
  1.414929e+01    1.970579e+00
  1.416517e+01    1.955066e+00
  1.418104e+01    2.005528e+00
  1.419692e+01    1.980874e+00
  1.421279e+01    1.986319e+00
  1.422867e+01    1.989369e+00
  1.424455e+01    1.952134e+00
  1.426042e+01    1.959447e+00
  1.427630e+01    1.982559e+00
  1.429217e+01    1.952395e+00
  1.430805e+01    1.915352e+00
  1.432392e+01    1.939765e+00
  1.433980e+01    1.940777e+00
  1.435568e+01    1.916832e+00
  1.437155e+01    1.930105e+00
  1.438743e+01    1.903559e+00
  1.440330e+01    1.913763e+00
  1.441918e+01    1.913258e+00
  1.443505e+01    1.884585e+00
  1.445093e+01    1.912428e+00
  1.446680e+01    1.937396e+00
  1.448268e+01    1.899686e+00
  1.449856e+01    1.895447e+00
  1.451443e+01    1.884950e+00
  1.453031e+01    1.914542e+00
  1.454618e+01    1.915526e+00
  1.456206e+01    1.911174e+00
  1.457793e+01    1.898686e+00
  1.459381e+01    1.859678e+00
  1.460968e+01    1.884263e+00
  1.462556e+01    1.868876e+00
  1.464144e+01    1.866995e+00
  1.465731e+01    1.884886e+00
  1.467319e+01    1.907361e+00
  1.468906e+01    1.912582e+00
  1.470494e+01    1.890734e+00
  1.472081e+01    1.882280e+00
  1.473669e+01    1.891672e+00
  1.475256e+01    1.886298e+00
  1.476844e+01    1.896142e+00
  1.478432e+01    1.873108e+00
  1.480019e+01    1.902668e+00
  1.481607e+01    1.940063e+00
  1.483194e+01    1.916741e+00
  1.484782e+01    1.901113e+00
  1.486369e+01    1.917996e+00
  1.487957e+01    1.924033e+00
  1.489544e+01    1.934749e+00
  1.491132e+01    1.944298e+00
  1.492720e+01    1.949824e+00
  1.494307e+01    1.950399e+00
  1.495895e+01    2.006458e+00
  1.497482e+01    2.042906e+00
  1.499070e+01    2.075277e+00
  1.500657e+01    2.147330e+00
  1.502245e+01    2.179626e+00
  1.503832e+01    2.245015e+00
  1.505420e+01    2.383598e+00
  1.507008e+01    2.452029e+00
  1.508595e+01    2.592610e+00
  1.510183e+01    2.821375e+00
  1.511770e+01    3.110645e+00
  1.513358e+01    3.356182e+00
  1.514945e+01    3.671349e+00
  1.516533e+01    4.026294e+00
  1.518120e+01    4.453276e+00
  1.519708e+01    4.835683e+00
  1.521296e+01    5.218520e+00
  1.522883e+01    5.529336e+00
  1.524471e+01    5.791395e+00
  1.526058e+01    6.017118e+00
  1.527646e+01    6.211170e+00
  1.529233e+01    6.086505e+00
  1.530821e+01    5.822429e+00
  1.532409e+01    5.422809e+00
  1.533996e+01    4.807722e+00
  1.535584e+01    4.269722e+00
  1.537171e+01    3.747351e+00
  1.538759e+01    3.325391e+00
  1.540346e+01    2.987290e+00
  1.541934e+01    2.763368e+00
  1.543521e+01    2.584323e+00
  1.545109e+01    2.400799e+00
  1.546697e+01    2.286604e+00
  1.548284e+01    2.213086e+00
  1.549872e+01    2.104146e+00
  1.551459e+01    2.049049e+00
  1.553047e+01    2.007950e+00
  1.554634e+01    1.982200e+00
  1.556222e+01    1.943041e+00
  1.557809e+01    1.906237e+00
  1.559397e+01    1.861488e+00
  1.560985e+01    1.813236e+00
  1.562572e+01    1.793228e+00
  1.564160e+01    1.800431e+00
  1.565747e+01    1.753342e+00
  1.567335e+01    1.768383e+00
  1.568922e+01    1.732844e+00
  1.570510e+01    1.747648e+00
  1.572097e+01    1.706791e+00
  1.573685e+01    1.701834e+00
  1.575273e+01    1.727036e+00
  1.576860e+01    1.720669e+00
  1.578448e+01    1.739469e+00
  1.580035e+01    1.679404e+00
  1.581623e+01    1.638892e+00
  1.583210e+01    1.652422e+00
  1.584798e+01    1.640832e+00
  1.586385e+01    1.634876e+00
  1.587973e+01    1.647317e+00
  1.589561e+01    1.642645e+00
  1.591148e+01    1.665955e+00
  1.592736e+01    1.612508e+00
  1.594323e+01    1.632113e+00
  1.595911e+01    1.600506e+00
  1.597498e+01    1.603815e+00
  1.599086e+01    1.622883e+00
  1.600673e+01    1.609001e+00
  1.602261e+01    1.596091e+00
  1.603849e+01    1.600224e+00
  1.605436e+01    1.586628e+00
  1.607024e+01    1.592343e+00
  1.608611e+01    1.548906e+00
  1.610199e+01    1.520043e+00
  1.611786e+01    1.541760e+00
  1.613374e+01    1.528684e+00
  1.614961e+01    1.559681e+00
  1.616549e+01    1.560754e+00
  1.618137e+01    1.600528e+00
  1.619724e+01    1.577302e+00
  1.621312e+01    1.553237e+00
  1.622899e+01    1.578126e+00
  1.624487e+01    1.564186e+00
  1.626074e+01    1.531898e+00
  1.627662e+01    1.531860e+00
  1.629250e+01    1.522817e+00
  1.630837e+01    1.496284e+00
  1.632425e+01    1.528925e+00
  1.634012e+01    1.523670e+00
  1.635600e+01    1.522579e+00
  1.637187e+01    1.539530e+00
  1.638775e+01    1.538125e+00
  1.640362e+01    1.516356e+00
  1.641950e+01    1.500079e+00
  1.643538e+01    1.524446e+00
  1.645125e+01    1.504469e+00
  1.646713e+01    1.477007e+00
  1.648300e+01    1.465662e+00
  1.649888e+01    1.501469e+00
  1.651475e+01    1.501131e+00
  1.653063e+01    1.505080e+00
  1.654650e+01    1.504756e+00
  1.656238e+01    1.463199e+00
  1.657826e+01    1.479806e+00
  1.659413e+01    1.537359e+00
  1.661001e+01    1.492170e+00
  1.662588e+01    1.475850e+00
  1.664176e+01    1.473896e+00
  1.665763e+01    1.482988e+00
  1.667351e+01    1.461410e+00
  1.668938e+01    1.493569e+00
  1.670526e+01    1.497440e+00
  1.672114e+01    1.459589e+00
  1.673701e+01    1.436549e+00
  1.675289e+01    1.451695e+00
  1.676876e+01    1.440593e+00
  1.678464e+01    1.406920e+00
  1.680051e+01    1.458373e+00
  1.681639e+01    1.453062e+00
  1.683226e+01    1.450813e+00
  1.684814e+01    1.479229e+00
  1.686402e+01    1.433366e+00
  1.687989e+01    1.430665e+00
  1.689577e+01    1.447040e+00
  1.691164e+01    1.460896e+00
  1.692752e+01    1.458774e+00
  1.694339e+01    1.431475e+00
  1.695927e+01    1.436056e+00
  1.697514e+01    1.440581e+00
  1.699102e+01    1.426186e+00
  1.700690e+01    1.399139e+00
  1.702277e+01    1.399574e+00
  1.703865e+01    1.419042e+00
  1.705452e+01    1.399678e+00
  1.707040e+01    1.383492e+00
  1.708627e+01    1.387991e+00
  1.710215e+01    1.418923e+00
  1.711802e+01    1.393116e+00
  1.713390e+01    1.398356e+00
  1.714978e+01    1.391096e+00
  1.716565e+01    1.383318e+00
  1.718153e+01    1.372441e+00
  1.719740e+01    1.397470e+00
  1.721328e+01    1.375604e+00
  1.722915e+01    1.367772e+00
  1.724503e+01    1.395983e+00
  1.726091e+01    1.384515e+00
  1.727678e+01    1.368889e+00
  1.729266e+01    1.374252e+00
  1.730853e+01    1.362870e+00
  1.732441e+01    1.368162e+00
  1.734028e+01    1.361063e+00
  1.735616e+01    1.393884e+00
  1.737203e+01    1.368034e+00
  1.738791e+01    1.351593e+00
  1.740379e+01    1.354293e+00
  1.741966e+01    1.355978e+00
  1.743554e+01    1.345712e+00
  1.745141e+01    1.343066e+00
  1.746729e+01    1.341433e+00
  1.748316e+01    1.359914e+00
  1.749904e+01    1.349920e+00
  1.751491e+01    1.375702e+00
  1.753079e+01    1.331630e+00
  1.754667e+01    1.358926e+00
  1.756254e+01    1.369280e+00
  1.757842e+01    1.337588e+00
  1.759429e+01    1.330102e+00
  1.761017e+01    1.333902e+00
  1.762604e+01    1.347603e+00
  1.764192e+01    1.320685e+00
  1.765779e+01    1.322939e+00
  1.767367e+01    1.345493e+00
  1.768955e+01    1.369673e+00
  1.770542e+01    1.355301e+00
  1.772130e+01    1.332294e+00
  1.773717e+01    1.318683e+00
  1.775305e+01    1.301891e+00
  1.776892e+01    1.283922e+00
  1.778480e+01    1.323126e+00
  1.780067e+01    1.331737e+00
  1.781655e+01    1.331587e+00
  1.783243e+01    1.296884e+00
  1.784830e+01    1.299884e+00
  1.786418e+01    1.337395e+00
  1.788005e+01    1.318981e+00
  1.789593e+01    1.302857e+00
  1.791180e+01    1.301488e+00
  1.792768e+01    1.307379e+00
  1.794355e+01    1.295465e+00
  1.795943e+01    1.310871e+00
  1.797531e+01    1.304412e+00
  1.799118e+01    1.308770e+00
  1.800706e+01    1.304229e+00
  1.802293e+01    1.275744e+00
  1.803881e+01    1.281833e+00
  1.805468e+01    1.295518e+00
  1.807056e+01    1.307358e+00
  1.808643e+01    1.304300e+00
  1.810231e+01    1.289180e+00
  1.811819e+01    1.277594e+00
  1.813406e+01    1.283869e+00
  1.814994e+01    1.291694e+00
  1.816581e+01    1.274869e+00
  1.818169e+01    1.271537e+00
  1.819756e+01    1.286711e+00
  1.821344e+01    1.278584e+00
  1.822932e+01    1.246592e+00
  1.824519e+01    1.248984e+00
  1.826107e+01    1.266567e+00
  1.827694e+01    1.275898e+00
  1.829282e+01    1.252309e+00
  1.830869e+01    1.254644e+00
  1.832457e+01    1.265744e+00
  1.834044e+01    1.253857e+00
  1.835632e+01    1.233986e+00
  1.837220e+01    1.239836e+00
  1.838807e+01    1.251312e+00
  1.840395e+01    1.250048e+00
  1.841982e+01    1.229202e+00
  1.843570e+01    1.270959e+00
  1.845157e+01    1.258106e+00
  1.846745e+01    1.271485e+00
  1.848332e+01    1.243380e+00
  1.849920e+01    1.232765e+00
  1.851508e+01    1.238483e+00
  1.853095e+01    1.223974e+00
  1.854683e+01    1.226442e+00
  1.856270e+01    1.236757e+00
  1.857858e+01    1.216260e+00
  1.859445e+01    1.207766e+00
  1.861033e+01    1.230417e+00
  1.862620e+01    1.219172e+00
  1.864208e+01    1.192938e+00
  1.865796e+01    1.195174e+00
  1.867383e+01    1.220360e+00
  1.868971e+01    1.221219e+00
  1.870558e+01    1.210476e+00
  1.872146e+01    1.215894e+00
  1.873733e+01    1.215668e+00
  1.875321e+01    1.198538e+00
  1.876908e+01    1.215282e+00
  1.878496e+01    1.220384e+00
  1.880084e+01    1.199888e+00
  1.881671e+01    1.207157e+00
  1.883259e+01    1.171047e+00
  1.884846e+01    1.178099e+00
  1.886434e+01    1.207448e+00
  1.888021e+01    1.218626e+00
  1.889609e+01    1.187437e+00
  1.891196e+01    1.202587e+00
  1.892784e+01    1.208945e+00
  1.894372e+01    1.192462e+00
  1.895959e+01    1.185282e+00
  1.897547e+01    1.188087e+00
  1.899134e+01    1.172899e+00
  1.900722e+01    1.165569e+00
  1.902309e+01    1.185177e+00
  1.903897e+01    1.161471e+00
  1.905484e+01    1.156670e+00
  1.907072e+01    1.170194e+00
  1.908660e+01    1.226397e+00
  1.910247e+01    1.219617e+00
  1.911835e+01    1.227153e+00
  1.913422e+01    1.185746e+00
  1.915010e+01    1.193838e+00
  1.916597e+01    1.157845e+00
  1.918185e+01    1.140505e+00
  1.919773e+01    1.156829e+00
  1.921360e+01    1.181509e+00
  1.922948e+01    1.155679e+00
  1.924535e+01    1.148221e+00
  1.926123e+01    1.171582e+00
  1.927710e+01    1.153646e+00
  1.929298e+01    1.154957e+00
  1.930885e+01    1.164859e+00
  1.932473e+01    1.166084e+00
  1.934061e+01    1.174527e+00
  1.935648e+01    1.200454e+00
  1.937236e+01    1.153098e+00
  1.938823e+01    1.169349e+00
  1.940411e+01    1.169593e+00
  1.941998e+01    1.167159e+00
  1.943586e+01    1.163780e+00
  1.945173e+01    1.165745e+00
  1.946761e+01    1.165280e+00
  1.948349e+01    1.168075e+00
  1.949936e+01    1.150859e+00
  1.951524e+01    1.148986e+00
  1.953111e+01    1.136155e+00
  1.954699e+01    1.135818e+00
  1.956286e+01    1.149473e+00
  1.957874e+01    1.132220e+00
  1.959461e+01    1.129192e+00
  1.961049e+01    1.124039e+00
  1.962637e+01    1.129364e+00
  1.964224e+01    1.140871e+00
  1.965812e+01    1.148446e+00
  1.967399e+01    1.164117e+00
  1.968987e+01    1.142995e+00
  1.970574e+01    1.142988e+00
  1.972162e+01    1.130862e+00
  1.973749e+01    1.124017e+00
  1.975337e+01    1.130817e+00
  1.976925e+01    1.139765e+00
  1.978512e+01    1.119316e+00
  1.980100e+01    1.102861e+00
  1.981687e+01    1.118423e+00
  1.983275e+01    1.097145e+00
  1.984862e+01    1.095073e+00
  1.986450e+01    1.111349e+00
  1.988037e+01    1.107098e+00
  1.989625e+01    1.099352e+00
  1.991213e+01    1.101233e+00
  1.992800e+01    1.116346e+00
  1.994388e+01    1.139161e+00
  1.995975e+01    1.143517e+00
  1.997563e+01    1.117089e+00
  1.999150e+01    1.117231e+00
  2.000738e+01    1.127459e+00
  2.002325e+01    1.101730e+00
  2.003913e+01    1.103537e+00
  2.005501e+01    1.090823e+00
  2.007088e+01    1.095833e+00
  2.008676e+01    1.102381e+00
  2.010263e+01    1.096171e+00
  2.011851e+01    1.118050e+00
  2.013438e+01    1.100763e+00
  2.015026e+01    1.097805e+00
  2.016614e+01    1.076234e+00
  2.018201e+01    1.075577e+00
  2.019789e+01    1.078655e+00
  2.021376e+01    1.102655e+00
  2.022964e+01    1.113027e+00
  2.024551e+01    1.113000e+00
  2.026139e+01    1.092644e+00
  2.027726e+01    1.054265e+00
  2.029314e+01    1.096996e+00
  2.030902e+01    1.086085e+00
  2.032489e+01    1.092572e+00
  2.034077e+01    1.094559e+00
  2.035664e+01    1.096865e+00
  2.037252e+01    1.085591e+00
  2.038839e+01    1.077554e+00
  2.040427e+01    1.092111e+00
  2.042014e+01    1.093515e+00
  2.043602e+01    1.084607e+00
  2.045190e+01    1.075204e+00
  2.046777e+01    1.087122e+00
  2.048365e+01    1.083090e+00
  2.049952e+01    1.079515e+00
  2.051540e+01    1.074141e+00
  2.053127e+01    1.076158e+00
  2.054715e+01    1.070100e+00
  2.056302e+01    1.079698e+00
  2.057890e+01    1.070832e+00
  2.059478e+01    1.084346e+00
  2.061065e+01    1.065050e+00
  2.062653e+01    1.059000e+00
  2.064240e+01    1.079877e+00
  2.065828e+01    1.094795e+00
  2.067415e+01    1.082581e+00
  2.069003e+01    1.048611e+00
  2.070590e+01    1.068517e+00
  2.072178e+01    1.045315e+00
  2.073766e+01    1.078163e+00
  2.075353e+01    1.077412e+00
  2.076941e+01    1.066754e+00
  2.078528e+01    1.064526e+00
  2.080116e+01    1.070566e+00
  2.081703e+01    1.056083e+00
  2.083291e+01    1.061746e+00
  2.084878e+01    1.064719e+00
  2.086466e+01    1.058891e+00
  2.088054e+01    1.079587e+00
  2.089641e+01    1.075448e+00
  2.091229e+01    1.082427e+00
  2.092816e+01    1.053897e+00
  2.094404e+01    1.067251e+00
  2.095991e+01    1.070227e+00
  2.097579e+01    1.060767e+00
  2.099166e+01    1.076614e+00
  2.100754e+01    1.089086e+00
  2.102342e+01    1.082532e+00
  2.103929e+01    1.092297e+00
  2.105517e+01    1.089974e+00
  2.107104e+01    1.086496e+00
  2.108692e+01    1.095157e+00
  2.110279e+01    1.090807e+00
  2.111867e+01    1.082776e+00
  2.113455e+01    1.081733e+00
  2.115042e+01    1.103385e+00
  2.116630e+01    1.070392e+00
  2.118217e+01    1.087007e+00
  2.119805e+01    1.096537e+00
  2.121392e+01    1.099986e+00
  2.122980e+01    1.098567e+00
  2.124567e+01    1.125921e+00
  2.126155e+01    1.115856e+00
  2.127743e+01    1.095424e+00
  2.129330e+01    1.115475e+00
  2.130918e+01    1.103065e+00
  2.132505e+01    1.106469e+00
  2.134093e+01    1.123763e+00
  2.135680e+01    1.119483e+00
  2.137268e+01    1.150608e+00
  2.138855e+01    1.157625e+00
  2.140443e+01    1.169652e+00
  2.142031e+01    1.159542e+00
  2.143618e+01    1.175104e+00
  2.145206e+01    1.196418e+00
  2.146793e+01    1.235546e+00
  2.148381e+01    1.241295e+00
  2.149968e+01    1.257623e+00
  2.151556e+01    1.292656e+00
  2.153143e+01    1.332654e+00
  2.154731e+01    1.351052e+00
  2.156319e+01    1.386145e+00
  2.157906e+01    1.454803e+00
  2.159494e+01    1.497171e+00
  2.161081e+01    1.574780e+00
  2.162669e+01    1.664672e+00
  2.164256e+01    1.749599e+00
  2.165844e+01    1.862558e+00
  2.167431e+01    2.023618e+00
  2.169019e+01    2.220353e+00
  2.170607e+01    2.449006e+00
  2.172194e+01    2.695236e+00
  2.173782e+01    3.057019e+00
  2.175369e+01    3.446306e+00
  2.176957e+01    3.931976e+00
  2.178544e+01    4.547328e+00
  2.180132e+01    5.225352e+00
  2.181719e+01    5.908178e+00
  2.183307e+01    6.675281e+00
  2.184895e+01    7.506984e+00
  2.186482e+01    8.262131e+00
  2.188070e+01    9.003440e+00
  2.189657e+01    9.621390e+00
  2.191245e+01    9.953199e+00
  2.192832e+01    9.917186e+00
  2.194420e+01    9.426335e+00
  2.196007e+01    8.603738e+00
  2.197595e+01    7.646063e+00
  2.199183e+01    6.530502e+00
  2.200770e+01    5.440166e+00
  2.202358e+01    4.586944e+00
  2.203945e+01    3.925246e+00
  2.205533e+01    3.422822e+00
  2.207120e+01    2.999021e+00
  2.208708e+01    2.624026e+00
  2.210296e+01    2.384841e+00
  2.211883e+01    2.169595e+00
  2.213471e+01    1.996181e+00
  2.215058e+01    1.888135e+00
  2.216646e+01    1.740603e+00
  2.218233e+01    1.630947e+00
  2.219821e+01    1.556280e+00
  2.221408e+01    1.493669e+00
  2.222996e+01    1.418862e+00
  2.224584e+01    1.346750e+00
  2.226171e+01    1.335990e+00
  2.227759e+01    1.293130e+00
  2.229346e+01    1.264992e+00
  2.230934e+01    1.239528e+00
  2.232521e+01    1.205711e+00
  2.234109e+01    1.177194e+00
  2.235696e+01    1.159359e+00
  2.237284e+01    1.146965e+00
  2.238872e+01    1.140254e+00
  2.240459e+01    1.129283e+00
  2.242047e+01    1.099316e+00
  2.243634e+01    1.042966e+00
  2.245222e+01    1.032817e+00
  2.246809e+01    1.046297e+00
  2.248397e+01    1.032046e+00
  2.249984e+01    1.026901e+00
  2.251572e+01    1.025610e+00
  2.253160e+01    1.003621e+00
  2.254747e+01    9.774851e-01
  2.256335e+01    9.796943e-01
  2.257922e+01    9.905807e-01
  2.259510e+01    9.883680e-01
  2.261097e+01    9.746890e-01
  2.262685e+01    9.910274e-01
  2.264272e+01    9.851342e-01
  2.265860e+01    9.813567e-01
  2.267448e+01    9.511178e-01
  2.269035e+01    9.507226e-01
  2.270623e+01    9.563897e-01
  2.272210e+01    9.582464e-01
  2.273798e+01    9.479234e-01
  2.275385e+01    9.456078e-01
  2.276973e+01    9.506617e-01
  2.278560e+01    9.484609e-01
  2.280148e+01    9.297054e-01
  2.281736e+01    9.265292e-01
  2.283323e+01    9.169236e-01
  2.284911e+01    9.131465e-01
  2.286498e+01    9.122896e-01
  2.288086e+01    9.145901e-01
  2.289673e+01    9.114023e-01
  2.291261e+01    9.045597e-01
  2.292848e+01    9.298714e-01
  2.294436e+01    9.373446e-01
  2.296024e+01    9.256096e-01
  2.297611e+01    8.925678e-01
  2.299199e+01    8.779537e-01
  2.300786e+01    8.812767e-01
  2.302374e+01    8.835722e-01
  2.303961e+01    8.927770e-01
  2.305549e+01    8.909349e-01
  2.307137e+01    8.739389e-01
  2.308724e+01    9.093291e-01
  2.310312e+01    9.051767e-01
  2.311899e+01    8.897845e-01
  2.313487e+01    8.633045e-01
  2.315074e+01    8.779750e-01
  2.316662e+01    8.579327e-01
  2.318249e+01    8.744122e-01
  2.319837e+01    8.671152e-01
  2.321425e+01    8.583377e-01
  2.323012e+01    8.491611e-01
  2.324600e+01    8.615811e-01
  2.326187e+01    8.632550e-01
  2.327775e+01    8.546584e-01
  2.329362e+01    8.619129e-01
  2.330950e+01    8.473206e-01
  2.332537e+01    8.383681e-01
  2.334125e+01    8.529309e-01
  2.335713e+01    8.691586e-01
  2.337300e+01    8.561882e-01
  2.338888e+01    8.711239e-01
  2.340475e+01    8.532441e-01
  2.342063e+01    8.470964e-01
  2.343650e+01    8.417549e-01
  2.345238e+01    8.442009e-01
  2.346825e+01    8.667200e-01
  2.348413e+01    8.525522e-01
  2.350001e+01    8.284426e-01
  2.351588e+01    8.481207e-01
  2.353176e+01    8.361039e-01
  2.354763e+01    8.162158e-01
  2.356351e+01    8.381957e-01
  2.357938e+01    8.539331e-01
  2.359526e+01    8.595138e-01
  2.361113e+01    8.495457e-01
  2.362701e+01    8.525895e-01
  2.364289e+01    8.331985e-01
  2.365876e+01    8.280545e-01
  2.367464e+01    8.323628e-01
  2.369051e+01    8.185268e-01
  2.370639e+01    8.383555e-01
  2.372226e+01    8.057671e-01
  2.373814e+01    8.112112e-01
  2.375401e+01    8.070871e-01
  2.376989e+01    8.002242e-01
  2.378577e+01    8.054268e-01
  2.380164e+01    8.117419e-01
  2.381752e+01    8.100301e-01
  2.383339e+01    8.050653e-01
  2.384927e+01    8.058727e-01
  2.386514e+01    8.058145e-01
  2.388102e+01    8.277965e-01
  2.389689e+01    8.100610e-01
  2.391277e+01    7.817051e-01
  2.392865e+01    7.953600e-01
  2.394452e+01    8.091074e-01
  2.396040e+01    7.944626e-01
  2.397627e+01    7.836483e-01
  2.399215e+01    7.945245e-01
  2.400802e+01    7.702507e-01
  2.402390e+01    7.711166e-01
  2.403978e+01    7.855142e-01
  2.405565e+01    7.735502e-01
  2.407153e+01    7.672299e-01
  2.408740e+01    7.727913e-01
  2.410328e+01    7.750807e-01
  2.411915e+01    7.596800e-01
  2.413503e+01    7.660341e-01
  2.415090e+01    7.656838e-01
  2.416678e+01    7.810907e-01
  2.418266e+01    7.664658e-01
  2.419853e+01    7.669569e-01
  2.421441e+01    7.639763e-01
  2.423028e+01    7.567772e-01
  2.424616e+01    7.673413e-01
  2.426203e+01    7.821324e-01
  2.427791e+01    7.859623e-01
  2.429378e+01    7.770168e-01
  2.430966e+01    7.775775e-01
  2.432554e+01    7.789499e-01
  2.434141e+01    7.916787e-01
  2.435729e+01    8.139979e-01
  2.437316e+01    7.921146e-01
  2.438904e+01    7.850528e-01
  2.440491e+01    8.009963e-01
  2.442079e+01    7.824308e-01
  2.443666e+01    7.778244e-01
  2.445254e+01    7.776195e-01
  2.446842e+01    7.958619e-01
  2.448429e+01    7.830547e-01
  2.450017e+01    7.810937e-01
  2.451604e+01    7.890370e-01
  2.453192e+01    8.071225e-01
  2.454779e+01    7.804509e-01
  2.456367e+01    7.693727e-01
  2.457954e+01    7.759202e-01
  2.459542e+01    7.868192e-01
  2.461130e+01    7.879242e-01
  2.462717e+01    7.817918e-01
  2.464305e+01    7.806628e-01
  2.465892e+01    8.054582e-01
  2.467480e+01    8.101035e-01
  2.469067e+01    8.164116e-01
  2.470655e+01    8.048632e-01
  2.472242e+01    7.957246e-01
  2.473830e+01    7.861329e-01
  2.475418e+01    7.827569e-01
  2.477005e+01    7.970195e-01
  2.478593e+01    7.794342e-01
  2.480180e+01    7.739669e-01
  2.481768e+01    7.933727e-01
  2.483355e+01    7.920377e-01
  2.484943e+01    7.929340e-01
  2.486530e+01    8.148791e-01
  2.488118e+01    7.922514e-01
  2.489706e+01    7.959144e-01
  2.491293e+01    7.853496e-01
  2.492881e+01    7.824516e-01
  2.494468e+01    7.999589e-01
  2.496056e+01    8.062593e-01
  2.497643e+01    8.155531e-01
  2.499231e+01    8.056288e-01
  2.500819e+01    7.999153e-01
  2.502406e+01    7.934180e-01
  2.503994e+01    7.823732e-01
  2.505581e+01    8.031913e-01
  2.507169e+01    8.003064e-01
  2.508756e+01    7.925909e-01
  2.510344e+01    8.082078e-01
  2.511931e+01    8.153776e-01
  2.513519e+01    8.206521e-01
  2.515107e+01    8.306510e-01
  2.516694e+01    8.291810e-01
  2.518282e+01    8.272863e-01
  2.519869e+01    8.184907e-01
  2.521457e+01    8.307505e-01
  2.523044e+01    8.490278e-01
  2.524632e+01    8.394117e-01
  2.526219e+01    8.226282e-01
  2.527807e+01    8.575333e-01
  2.529395e+01    8.706730e-01
  2.530982e+01    8.623402e-01
  2.532570e+01    8.517591e-01
  2.534157e+01    8.582350e-01
  2.535745e+01    8.744690e-01
  2.537332e+01    8.905144e-01
  2.538920e+01    8.913753e-01
  2.540507e+01    9.018958e-01
  2.542095e+01    9.100178e-01
  2.543683e+01    9.283126e-01
  2.545270e+01    9.121562e-01
  2.546858e+01    9.312834e-01
  2.548445e+01    9.413531e-01
  2.550033e+01    9.401433e-01
  2.551620e+01    9.611814e-01
  2.553208e+01    9.871859e-01
  2.554795e+01    9.825056e-01
  2.556383e+01    1.010135e+00
  2.557971e+01    1.033781e+00
  2.559558e+01    1.072066e+00
  2.561146e+01    1.108400e+00
  2.562733e+01    1.148651e+00
  2.564321e+01    1.208735e+00
  2.565908e+01    1.243183e+00
  2.567496e+01    1.278941e+00
  2.569083e+01    1.361148e+00
  2.570671e+01    1.430602e+00
  2.572259e+01    1.512836e+00
  2.573846e+01    1.639679e+00
  2.575434e+01    1.759381e+00
  2.577021e+01    1.941841e+00
  2.578609e+01    2.165482e+00
  2.580196e+01    2.399364e+00
  2.581784e+01    2.708298e+00
  2.583371e+01    3.091271e+00
  2.584959e+01    3.514265e+00
  2.586547e+01    4.062142e+00
  2.588134e+01    4.650465e+00
  2.589722e+01    5.329840e+00
  2.591309e+01    6.008713e+00
  2.592897e+01    6.707073e+00
  2.594484e+01    7.465318e+00
  2.596072e+01    7.967021e+00
  2.597660e+01    8.217450e+00
  2.599247e+01    8.219149e+00
  2.600835e+01    7.969365e+00
  2.602422e+01    7.350271e+00
  2.604010e+01    6.572139e+00
  2.605597e+01    5.743533e+00
  2.607185e+01    4.903089e+00
  2.608772e+01    4.159308e+00
  2.610360e+01    3.587861e+00
  2.611948e+01    3.095013e+00
  2.613535e+01    2.720675e+00
  2.615123e+01    2.390496e+00
  2.616710e+01    2.153739e+00
  2.618298e+01    1.981243e+00
  2.619885e+01    1.832079e+00
  2.621473e+01    1.657994e+00
  2.623060e+01    1.545126e+00
  2.624648e+01    1.467568e+00
  2.626236e+01    1.371193e+00
  2.627823e+01    1.309180e+00
  2.629411e+01    1.254444e+00
  2.630998e+01    1.209470e+00
  2.632586e+01    1.154089e+00
  2.634173e+01    1.118645e+00
  2.635761e+01    1.118458e+00
  2.637348e+01    1.088942e+00
  2.638936e+01    1.059445e+00
  2.640524e+01    9.986426e-01
  2.642111e+01    1.003196e+00
  2.643699e+01    1.002432e+00
  2.645286e+01    9.908948e-01
  2.646874e+01    9.756355e-01
  2.648461e+01    9.672648e-01
  2.650049e+01    9.598823e-01
  2.651636e+01    9.386626e-01
  2.653224e+01    9.622940e-01
  2.654812e+01    9.337255e-01
  2.656399e+01    9.360951e-01
  2.657987e+01    9.259641e-01
  2.659574e+01    8.993165e-01
  2.661162e+01    9.138707e-01
  2.662749e+01    9.028522e-01
  2.664337e+01    9.050022e-01
  2.665924e+01    9.132657e-01
  2.667512e+01    9.187267e-01
  2.669100e+01    9.054440e-01
  2.670687e+01    9.067430e-01
  2.672275e+01    8.902425e-01
  2.673862e+01    8.907123e-01
  2.675450e+01    8.938997e-01
  2.677037e+01    8.620426e-01
  2.678625e+01    8.876740e-01
  2.680212e+01    8.987396e-01
  2.681800e+01    9.091252e-01
  2.683388e+01    9.169374e-01
  2.684975e+01    8.931174e-01
  2.686563e+01    8.974769e-01
  2.688150e+01    9.354737e-01
  2.689738e+01    9.386162e-01
  2.691325e+01    9.203244e-01
  2.692913e+01    9.202647e-01
  2.694501e+01    9.561470e-01
  2.696088e+01    9.537639e-01
  2.697676e+01    9.474316e-01
  2.699263e+01    9.859925e-01
  2.700851e+01    1.017985e+00
  2.702438e+01    1.029442e+00
  2.704026e+01    1.060904e+00
  2.705613e+01    1.110645e+00
  2.707201e+01    1.152920e+00
  2.708789e+01    1.239340e+00
  2.710376e+01    1.324493e+00
  2.711964e+01    1.425328e+00
  2.713551e+01    1.549591e+00
  2.715139e+01    1.692856e+00
  2.716726e+01    1.821976e+00
  2.718314e+01    2.011894e+00
  2.719901e+01    2.118418e+00
  2.721489e+01    2.275820e+00
  2.723077e+01    2.398510e+00
  2.724664e+01    2.425368e+00
  2.726252e+01    2.379691e+00
  2.727839e+01    2.241266e+00
  2.729427e+01    2.115264e+00
  2.731014e+01    1.940361e+00
  2.732602e+01    1.758123e+00
  2.734189e+01    1.588681e+00
  2.735777e+01    1.475820e+00
  2.737365e+01    1.364706e+00
  2.738952e+01    1.271488e+00
  2.740540e+01    1.176060e+00
  2.742127e+01    1.141230e+00
  2.743715e+01    1.066170e+00
  2.745302e+01    1.051194e+00
  2.746890e+01    9.960555e-01
  2.748477e+01    9.624609e-01
  2.750065e+01    9.406666e-01
  2.751653e+01    9.441577e-01
  2.753240e+01    9.187601e-01
  2.754828e+01    9.021510e-01
  2.756415e+01    8.772219e-01
  2.758003e+01    8.741387e-01
  2.759590e+01    8.721408e-01
  2.761178e+01    8.597877e-01
  2.762765e+01    8.784623e-01
  2.764353e+01    8.725075e-01
  2.765941e+01    8.456911e-01
  2.767528e+01    8.408520e-01
  2.769116e+01    8.451466e-01
  2.770703e+01    8.299307e-01
  2.772291e+01    8.202707e-01
  2.773878e+01    8.052025e-01
  2.775466e+01    8.086766e-01
  2.777054e+01    8.028702e-01
  2.778641e+01    8.057241e-01
  2.780229e+01    7.968046e-01
  2.781816e+01    8.272979e-01
  2.783404e+01    8.059117e-01
  2.784991e+01    7.927717e-01
  2.786579e+01    7.910820e-01
  2.788166e+01    8.153375e-01
  2.789754e+01    8.132778e-01
  2.791342e+01    7.897359e-01
  2.792929e+01    7.992479e-01
  2.794517e+01    7.991920e-01
  2.796104e+01    7.973737e-01
  2.797692e+01    7.996390e-01
  2.799279e+01    8.085080e-01
  2.800867e+01    7.848817e-01
  2.802454e+01    7.873418e-01
  2.804042e+01    7.722525e-01
  2.805630e+01    7.880393e-01
  2.807217e+01    7.983935e-01
  2.808805e+01    7.902173e-01
  2.810392e+01    7.865549e-01
  2.811980e+01    7.864889e-01
  2.813567e+01    7.771527e-01
  2.815155e+01    7.714838e-01
  2.816742e+01    7.670883e-01
  2.818330e+01    7.715747e-01
  2.819918e+01    7.773536e-01
  2.821505e+01    7.633626e-01
  2.823093e+01    7.604428e-01
  2.824680e+01    7.566154e-01
  2.826268e+01    7.581841e-01
  2.827855e+01    7.647145e-01
  2.829443e+01    7.666125e-01
  2.831030e+01    7.579850e-01
  2.832618e+01    7.456107e-01
  2.834206e+01    7.700049e-01
  2.835793e+01    7.661477e-01
  2.837381e+01    7.550210e-01
  2.838968e+01    7.590962e-01
  2.840556e+01    7.839502e-01
  2.842143e+01    7.908182e-01
  2.843731e+01    7.925308e-01
  2.845318e+01    7.636966e-01
  2.846906e+01    7.640340e-01
  2.848494e+01    7.655662e-01
  2.850081e+01    7.584116e-01
  2.851669e+01    7.611664e-01
  2.853256e+01    7.353384e-01
  2.854844e+01    7.524071e-01
  2.856431e+01    7.545027e-01
  2.858019e+01    7.587025e-01
  2.859606e+01    7.558620e-01
  2.861194e+01    7.607758e-01
  2.862782e+01    7.668166e-01
  2.864369e+01    7.634629e-01
  2.865957e+01    7.583936e-01
  2.867544e+01    7.466367e-01
  2.869132e+01    7.616929e-01
  2.870719e+01    7.388592e-01
  2.872307e+01    7.510936e-01
  2.873895e+01    7.597229e-01
  2.875482e+01    7.476294e-01
  2.877070e+01    7.616826e-01
  2.878657e+01    7.517613e-01
  2.880245e+01    7.387844e-01
  2.881832e+01    7.389044e-01
  2.883420e+01    7.351549e-01
  2.885007e+01    7.171135e-01
  2.886595e+01    7.375614e-01
  2.888183e+01    7.471353e-01
  2.889770e+01    7.436539e-01
  2.891358e+01    7.300510e-01
  2.892945e+01    7.506666e-01
  2.894533e+01    7.507626e-01
  2.896120e+01    7.305812e-01
  2.897708e+01    7.466925e-01
  2.899295e+01    7.277358e-01
  2.900883e+01    7.285838e-01
  2.902471e+01    7.252587e-01
  2.904058e+01    7.423731e-01
  2.905646e+01    7.442098e-01
  2.907233e+01    7.332258e-01
  2.908821e+01    7.429368e-01
  2.910408e+01    7.392637e-01
  2.911996e+01    7.366821e-01
  2.913583e+01    7.289720e-01
  2.915171e+01    7.480026e-01
  2.916759e+01    7.413522e-01
  2.918346e+01    7.457975e-01
  2.919934e+01    7.316754e-01
  2.921521e+01    7.345143e-01
  2.923109e+01    7.186079e-01
  2.924696e+01    7.373788e-01
  2.926284e+01    7.265264e-01
  2.927871e+01    7.328478e-01
  2.929459e+01    7.189421e-01
  2.931047e+01    7.142388e-01
  2.932634e+01    7.249644e-01
  2.934222e+01    7.359784e-01
  2.935809e+01    7.390289e-01
  2.937397e+01    7.218729e-01
  2.938984e+01    7.109893e-01
  2.940572e+01    7.395742e-01
  2.942159e+01    7.189555e-01
  2.943747e+01    7.224736e-01
  2.945335e+01    7.197714e-01
  2.946922e+01    7.252707e-01
  2.948510e+01    7.429770e-01
  2.950097e+01    7.405457e-01
  2.951685e+01    7.373812e-01
  2.953272e+01    7.228587e-01
  2.954860e+01    7.095348e-01
  2.956447e+01    7.012956e-01
  2.958035e+01    7.009061e-01
  2.959623e+01    6.858507e-01
  2.961210e+01    7.141929e-01
  2.962798e+01    7.222980e-01
  2.964385e+01    7.253428e-01
  2.965973e+01    7.225004e-01
  2.967560e+01    7.285188e-01
  2.969148e+01    7.279367e-01
  2.970736e+01    7.349788e-01
  2.972323e+01    7.304348e-01
  2.973911e+01    7.250519e-01
  2.975498e+01    7.148689e-01
  2.977086e+01    7.188433e-01
  2.978673e+01    7.123383e-01
  2.980261e+01    7.077306e-01
  2.981848e+01    7.261430e-01
  2.983436e+01    7.275239e-01
  2.985024e+01    7.199526e-01
  2.986611e+01    7.230413e-01
  2.988199e+01    7.295315e-01
  2.989786e+01    7.202273e-01
  2.991374e+01    7.021322e-01
  2.992961e+01    7.324864e-01
  2.994549e+01    7.239721e-01
  2.996136e+01    7.103513e-01
  2.997724e+01    7.142612e-01
  2.999312e+01    7.358544e-01
  3.000899e+01    7.246299e-01
  3.002487e+01    7.180207e-01
  3.004074e+01    7.323372e-01
  3.005662e+01    7.314541e-01
  3.007249e+01    7.352903e-01
  3.008837e+01    7.312173e-01
  3.010424e+01    7.103614e-01
  3.012012e+01    7.207624e-01
  3.013600e+01    7.279077e-01
  3.015187e+01    7.128516e-01
  3.016775e+01    7.244641e-01
  3.018362e+01    7.304118e-01
  3.019950e+01    7.015041e-01
  3.021537e+01    7.031642e-01
  3.023125e+01    7.152296e-01
  3.024712e+01    7.108469e-01
  3.026300e+01    6.965734e-01
  3.027888e+01    7.110143e-01
  3.029475e+01    7.179707e-01
  3.031063e+01    7.056319e-01
  3.032650e+01    7.045328e-01
  3.034238e+01    7.229617e-01
  3.035825e+01    7.170867e-01
  3.037413e+01    7.056717e-01
  3.039000e+01    7.157371e-01
  3.040588e+01    7.124766e-01
  3.042176e+01    7.126788e-01
  3.043763e+01    7.035910e-01
  3.045351e+01    6.864802e-01
  3.046938e+01    7.030269e-01
  3.048526e+01    7.086183e-01
  3.050113e+01    7.240523e-01
  3.051701e+01    7.019632e-01
  3.053288e+01    7.022154e-01
  3.054876e+01    7.207733e-01
  3.056464e+01    7.280465e-01
  3.058051e+01    7.066498e-01
  3.059639e+01    6.894650e-01
  3.061226e+01    6.943290e-01
  3.062814e+01    6.982507e-01
  3.064401e+01    7.138388e-01
  3.065989e+01    7.079146e-01
  3.067577e+01    6.994902e-01
  3.069164e+01    7.114046e-01
  3.070752e+01    7.058894e-01
  3.072339e+01    6.956098e-01
  3.073927e+01    7.037863e-01
  3.075514e+01    7.137263e-01
  3.077102e+01    7.103206e-01
  3.078689e+01    7.131441e-01
  3.080277e+01    7.110434e-01
  3.081865e+01    7.207307e-01
  3.083452e+01    7.127947e-01
  3.085040e+01    7.144454e-01
  3.086627e+01    7.263721e-01
  3.088215e+01    7.208182e-01
  3.089802e+01    7.157044e-01
  3.091390e+01    7.206682e-01
  3.092977e+01    7.078028e-01
  3.094565e+01    7.052019e-01
  3.096153e+01    7.191304e-01
  3.097740e+01    7.191666e-01
  3.099328e+01    6.902288e-01
  3.100915e+01    7.096015e-01
  3.102503e+01    7.212327e-01
  3.104090e+01    7.074183e-01
  3.105678e+01    7.070433e-01
  3.107265e+01    7.264020e-01
  3.108853e+01    7.248272e-01
  3.110441e+01    7.068674e-01
  3.112028e+01    7.069056e-01
  3.113616e+01    6.986768e-01
  3.115203e+01    6.969538e-01
  3.116791e+01    7.267156e-01
  3.118378e+01    7.358929e-01
  3.119966e+01    7.044601e-01
  3.121553e+01    7.206683e-01
  3.123141e+01    7.264378e-01
  3.124729e+01    7.376816e-01
  3.126316e+01    7.243401e-01
  3.127904e+01    7.262376e-01
  3.129491e+01    7.266099e-01
  3.131079e+01    7.235751e-01
  3.132666e+01    7.201372e-01
  3.134254e+01    7.298911e-01
  3.135841e+01    7.100899e-01
  3.137429e+01    7.218182e-01
  3.139017e+01    7.442868e-01
  3.140604e+01    7.502618e-01
  3.142192e+01    7.215930e-01
  3.143779e+01    7.551683e-01
  3.145367e+01    7.440837e-01
  3.146954e+01    7.443759e-01
  3.148542e+01    7.682101e-01
  3.150129e+01    7.723348e-01
  3.151717e+01    7.761907e-01
  3.153305e+01    7.757268e-01
  3.154892e+01    7.730901e-01
  3.156480e+01    7.865723e-01
  3.158067e+01    7.951359e-01
  3.159655e+01    8.034204e-01
  3.161242e+01    8.252509e-01
  3.162830e+01    8.062095e-01
  3.164418e+01    8.128487e-01
  3.166005e+01    8.381692e-01
  3.167593e+01    8.736312e-01
  3.169180e+01    8.774523e-01
  3.170768e+01    9.084495e-01
  3.172355e+01    9.822834e-01
  3.173943e+01    1.006811e+00
  3.175530e+01    1.040415e+00
  3.177118e+01    1.128801e+00
  3.178706e+01    1.201534e+00
  3.180293e+01    1.269897e+00
  3.181881e+01    1.375528e+00
  3.183468e+01    1.527267e+00
  3.185056e+01    1.678858e+00
  3.186643e+01    1.828380e+00
  3.188231e+01    2.034950e+00
  3.189818e+01    2.172726e+00
  3.191406e+01    2.310372e+00
  3.192994e+01    2.385460e+00
  3.194581e+01    2.407272e+00
  3.196169e+01    2.345306e+00
  3.197756e+01    2.227475e+00
  3.199344e+01    2.039308e+00
  3.200931e+01    1.893743e+00
  3.202519e+01    1.682976e+00
  3.204106e+01    1.479823e+00
  3.205694e+01    1.365997e+00
  3.207282e+01    1.253718e+00
  3.208869e+01    1.168459e+00
  3.210457e+01    1.091524e+00
  3.212044e+01    1.038573e+00
  3.213632e+01    9.748890e-01
  3.215219e+01    9.502320e-01
  3.216807e+01    9.043418e-01
  3.218394e+01    8.805102e-01
  3.219982e+01    8.632117e-01
  3.221570e+01    8.440527e-01
  3.223157e+01    8.040216e-01
  3.224745e+01    8.091394e-01
  3.226332e+01    8.026819e-01
  3.227920e+01    7.908212e-01
  3.229507e+01    7.871146e-01
  3.231095e+01    7.965683e-01
  3.232682e+01    7.757545e-01
  3.234270e+01    7.625242e-01
  3.235858e+01    7.563393e-01
  3.237445e+01    7.522735e-01
  3.239033e+01    7.418961e-01
  3.240620e+01    7.490404e-01
  3.242208e+01    7.640209e-01
  3.243795e+01    7.266421e-01
  3.245383e+01    7.517615e-01
  3.246970e+01    7.477467e-01
  3.248558e+01    7.457413e-01
  3.250146e+01    7.371318e-01
  3.251733e+01    7.478056e-01
  3.253321e+01    7.507864e-01
  3.254908e+01    7.032236e-01
