# == pyFAI calibration ==
# Distance Sample to Detector: 0.3999999939076516 m
# PONI: 9.750e-02, 1.135e-01 m
# Rotations: -0.000175 0.000000 -0.000000 rad
# 
# == Fit2d calibration ==
# Distance Sample-beamCenter: 400.000 mm
# Center: x=1514.000, y=1300.000 pix
# Tilt: 0.010 deg  TiltPlanRot: 0.010 deg
# 
# Detector Detector	 Spline= None	 PixelSize= 7.500e-05, 7.500e-05 m
#    Detector has a mask: False 
#    Detector has a dark current: False 
#    detector has a flat field: False 
# 
# Wavelength: 6.888e-11 m
# Mask applied: user provided
# Dark current applied: False
# Flat field applied: False
# Polarization factor: 0.99
# Normalization factor: 1.0
# --> /home/myspot/data/2024_07_Rosario/Ru-CGO-ex/2024-07-27_002_Ru-CGO-ex_Activtation_ramp_000002_data_000077.dat
#       q_nm^-1             I 
  2.003187e-02    9.939597e-02
  3.590745e-02    1.903919e-01
  5.178302e-02    8.768237e-02
  6.765859e-02    3.910095e-02
  8.353417e-02    1.551787e-01
  9.940974e-02    1.340250e-01
  1.152853e-01    4.760569e-02
  1.311609e-01    6.262403e-02
  1.470365e-01    1.992341e-02
  1.629120e-01    5.883648e-02
  1.787876e-01    5.423602e-02
  1.946632e-01    3.895308e-02
  2.105388e-01    5.003535e-03
  2.264143e-01    0.000000e+00
  2.422899e-01    2.877790e-02
  2.581655e-01    4.070268e-02
  2.740411e-01    2.887345e-02
  2.899166e-01    5.824785e-02
  3.057922e-01    3.774247e-02
  3.216678e-01    4.143176e-02
  3.375433e-01    4.581008e-02
  3.534189e-01    3.516317e-02
  3.692945e-01    4.168282e-02
  3.851701e-01    7.132982e-02
  4.010456e-01    2.218371e-02
  4.169212e-01    2.831909e-02
  4.327968e-01    2.504769e-02
  4.486724e-01    2.712024e-02
  4.645479e-01    3.421214e-02
  4.804235e-01    1.068711e-02
  4.962991e-01    1.809765e-02
  5.121747e-01    3.645020e-02
  5.280502e-01    4.487640e-02
  5.439258e-01    3.822530e-02
  5.598014e-01    2.809487e-02
  5.756770e-01    4.437512e-02
  5.915525e-01    3.792830e-02
  6.074281e-01    1.555815e-02
  6.233037e-01    3.726305e-02
  6.391793e-01    4.935534e-02
  6.550548e-01    3.491158e-02
  6.709304e-01    4.435884e-02
  6.868060e-01    4.044485e-02
  7.026815e-01    4.331915e-02
  7.185571e-01    4.370681e-02
  7.344327e-01    3.723976e-02
  7.503083e-01    2.925807e-02
  7.661838e-01    7.237049e-02
  7.820594e-01    1.162966e-01
  7.979350e-01    1.824117e-01
  8.138106e-01    2.026586e-01
  8.296861e-01    3.016860e-01
  8.455617e-01    3.289427e-01
  8.614373e-01    3.478287e-01
  8.773129e-01    4.156717e-01
  8.931884e-01    4.729153e-01
  9.090640e-01    5.140274e-01
  9.249396e-01    5.297599e-01
  9.408152e-01    6.820447e-01
  9.566907e-01    8.198865e-01
  9.725663e-01    9.182127e-01
  9.884419e-01    9.242600e-01
  1.004317e+00    1.046659e+00
  1.020193e+00    1.038463e+00
  1.036069e+00    1.169660e+00
  1.051944e+00    1.234308e+00
  1.067820e+00    1.289312e+00
  1.083695e+00    1.226693e+00
  1.099571e+00    1.343347e+00
  1.115446e+00    1.477382e+00
  1.131322e+00    1.473910e+00
  1.147198e+00    1.521994e+00
  1.163073e+00    1.527781e+00
  1.178949e+00    1.486784e+00
  1.194824e+00    1.600109e+00
  1.210700e+00    1.751474e+00
  1.226575e+00    2.012768e+00
  1.242451e+00    2.376774e+00
  1.258327e+00    2.359145e+00
  1.274202e+00    2.428500e+00
  1.290078e+00    2.460900e+00
  1.305953e+00    2.685446e+00
  1.321829e+00    2.630858e+00
  1.337705e+00    2.554549e+00
  1.353580e+00    2.529165e+00
  1.369456e+00    2.668430e+00
  1.385331e+00    2.665246e+00
  1.401207e+00    2.633636e+00
  1.417082e+00    2.584755e+00
  1.432958e+00    2.716188e+00
  1.448834e+00    2.810394e+00
  1.464709e+00    2.967863e+00
  1.480585e+00    2.861956e+00
  1.496460e+00    2.743920e+00
  1.512336e+00    2.822290e+00
  1.528211e+00    2.965206e+00
  1.544087e+00    2.993104e+00
  1.559963e+00    2.963617e+00
  1.575838e+00    2.944562e+00
  1.591714e+00    2.928694e+00
  1.607589e+00    3.002652e+00
  1.623465e+00    2.992527e+00
  1.639340e+00    3.049297e+00
  1.655216e+00    2.952030e+00
  1.671092e+00    2.743896e+00
  1.686967e+00    2.936138e+00
  1.702843e+00    2.918482e+00
  1.718718e+00    2.747214e+00
  1.734594e+00    2.830660e+00
  1.750469e+00    2.705415e+00
  1.766345e+00    2.681130e+00
  1.782221e+00    2.782837e+00
  1.798096e+00    2.793262e+00
  1.813972e+00    2.863764e+00
  1.829847e+00    2.872971e+00
  1.845723e+00    2.758754e+00
  1.861598e+00    2.761498e+00
  1.877474e+00    2.800557e+00
  1.893350e+00    2.739809e+00
  1.909225e+00    2.812743e+00
  1.925101e+00    2.865254e+00
  1.940976e+00    2.749854e+00
  1.956852e+00    2.825795e+00
  1.972727e+00    2.766636e+00
  1.988603e+00    2.744790e+00
  2.004479e+00    2.703710e+00
  2.020354e+00    2.713389e+00
  2.036230e+00    2.738768e+00
  2.052105e+00    2.705364e+00
  2.067981e+00    2.802047e+00
  2.083856e+00    2.753084e+00
  2.099732e+00    2.796476e+00
  2.115608e+00    2.764233e+00
  2.131483e+00    2.776423e+00
  2.147359e+00    2.852382e+00
  2.163234e+00    2.743474e+00
  2.179110e+00    2.791142e+00
  2.194985e+00    2.752019e+00
  2.210861e+00    2.795074e+00
  2.226737e+00    2.777819e+00
  2.242612e+00    2.790279e+00
  2.258488e+00    2.751436e+00
  2.274363e+00    2.746441e+00
  2.290239e+00    2.779489e+00
  2.306115e+00    2.833033e+00
  2.321990e+00    2.808429e+00
  2.337866e+00    2.675828e+00
  2.353741e+00    2.674409e+00
  2.369617e+00    2.691858e+00
  2.385492e+00    2.649990e+00
  2.401368e+00    2.689143e+00
  2.417244e+00    2.724227e+00
  2.433119e+00    2.858741e+00
  2.448995e+00    2.919690e+00
  2.464870e+00    2.969017e+00
  2.480746e+00    2.829475e+00
  2.496621e+00    2.783945e+00
  2.512497e+00    2.754421e+00
  2.528373e+00    2.779317e+00
  2.544248e+00    2.736311e+00
  2.560124e+00    2.771015e+00
  2.575999e+00    2.816484e+00
  2.591875e+00    2.791160e+00
  2.607750e+00    2.786690e+00
  2.623626e+00    2.808630e+00
  2.639502e+00    2.836959e+00
  2.655377e+00    2.809071e+00
  2.671253e+00    2.768308e+00
  2.687128e+00    2.820187e+00
  2.703004e+00    2.925264e+00
  2.718879e+00    2.826505e+00
  2.734755e+00    2.775058e+00
  2.750631e+00    2.836419e+00
  2.766506e+00    2.800099e+00
  2.782382e+00    2.895952e+00
  2.798257e+00    2.794264e+00
  2.814133e+00    2.891364e+00
  2.830008e+00    2.929411e+00
  2.845884e+00    2.882220e+00
  2.861760e+00    2.896469e+00
  2.877635e+00    2.849953e+00
  2.893511e+00    2.815513e+00
  2.909386e+00    2.822450e+00
  2.925262e+00    2.831976e+00
  2.941137e+00    2.858950e+00
  2.957013e+00    2.827879e+00
  2.972889e+00    2.905891e+00
  2.988764e+00    2.824443e+00
  3.004640e+00    2.845294e+00
  3.020515e+00    2.879624e+00
  3.036391e+00    2.893228e+00
  3.052266e+00    2.886493e+00
  3.068142e+00    2.963166e+00
  3.084018e+00    2.830043e+00
  3.099893e+00    2.808030e+00
  3.115769e+00    2.834718e+00
  3.131644e+00    2.863674e+00
  3.147520e+00    2.940842e+00
  3.163395e+00    2.897481e+00
  3.179271e+00    2.948763e+00
  3.195147e+00    2.994091e+00
  3.211022e+00    2.838983e+00
  3.226898e+00    2.872676e+00
  3.242773e+00    2.857758e+00
  3.258649e+00    2.906540e+00
  3.274525e+00    2.899485e+00
  3.290400e+00    2.897859e+00
  3.306276e+00    2.853384e+00
  3.322151e+00    2.910203e+00
  3.338027e+00    2.879959e+00
  3.353902e+00    2.809893e+00
  3.369778e+00    2.905653e+00
  3.385654e+00    2.883929e+00
  3.401529e+00    2.939402e+00
  3.417405e+00    2.912112e+00
  3.433280e+00    2.914886e+00
  3.449156e+00    2.965627e+00
  3.465031e+00    2.883157e+00
  3.480907e+00    2.909229e+00
  3.496783e+00    2.928544e+00
  3.512658e+00    2.893789e+00
  3.528534e+00    2.848676e+00
  3.544409e+00    2.951098e+00
  3.560285e+00    2.912784e+00
  3.576160e+00    2.880725e+00
  3.592036e+00    2.920222e+00
  3.607912e+00    2.974048e+00
  3.623787e+00    2.927969e+00
  3.639663e+00    2.998659e+00
  3.655538e+00    2.924353e+00
  3.671414e+00    2.922150e+00
  3.687289e+00    2.911091e+00
  3.703165e+00    2.895289e+00
  3.719041e+00    2.951298e+00
  3.734916e+00    3.007994e+00
  3.750792e+00    3.014441e+00
  3.766667e+00    3.038425e+00
  3.782543e+00    2.888620e+00
  3.798418e+00    2.890794e+00
  3.814294e+00    2.938295e+00
  3.830170e+00    2.929676e+00
  3.846045e+00    3.019387e+00
  3.861921e+00    3.002177e+00
  3.877796e+00    3.046468e+00
  3.893672e+00    3.069496e+00
  3.909547e+00    2.957767e+00
  3.925423e+00    2.930068e+00
  3.941299e+00    2.981606e+00
  3.957174e+00    2.964215e+00
  3.973050e+00    3.048925e+00
  3.988925e+00    3.032286e+00
  4.004801e+00    3.036722e+00
  4.020676e+00    3.077600e+00
  4.036552e+00    3.014268e+00
  4.052428e+00    3.041007e+00
  4.068303e+00    3.016441e+00
  4.084179e+00    2.939526e+00
  4.100054e+00    2.995520e+00
  4.115930e+00    3.053252e+00
  4.131806e+00    2.981537e+00
  4.147681e+00    3.015016e+00
  4.163557e+00    3.010777e+00
  4.179432e+00    3.063916e+00
  4.195308e+00    3.098280e+00
  4.211183e+00    3.136767e+00
  4.227059e+00    2.999983e+00
  4.242935e+00    2.968006e+00
  4.258810e+00    3.053421e+00
  4.274686e+00    3.094638e+00
  4.290561e+00    3.020919e+00
  4.306437e+00    3.002084e+00
  4.322312e+00    3.054610e+00
  4.338188e+00    3.108177e+00
  4.354064e+00    3.047480e+00
  4.369939e+00    3.005766e+00
  4.385815e+00    3.089012e+00
  4.401690e+00    3.083048e+00
  4.417566e+00    3.093366e+00
  4.433441e+00    3.047298e+00
  4.449317e+00    3.082121e+00
  4.465193e+00    3.063688e+00
  4.481068e+00    3.035335e+00
  4.496944e+00    2.969220e+00
  4.512819e+00    2.972429e+00
  4.528695e+00    2.996409e+00
  4.544570e+00    3.135175e+00
  4.560446e+00    3.083124e+00
  4.576322e+00    3.095621e+00
  4.592197e+00    3.001197e+00
  4.608073e+00    3.000025e+00
  4.623948e+00    3.055731e+00
  4.639824e+00    3.082137e+00
  4.655699e+00    3.071877e+00
  4.671575e+00    3.111505e+00
  4.687451e+00    3.109147e+00
  4.703326e+00    3.076937e+00
  4.719202e+00    3.031673e+00
  4.735077e+00    3.285009e+00
  4.750953e+00    3.225784e+00
  4.766828e+00    3.079609e+00
  4.782704e+00    3.093947e+00
  4.798580e+00    3.090547e+00
  4.814455e+00    3.054255e+00
  4.830331e+00    3.043188e+00
  4.846206e+00    3.079408e+00
  4.862082e+00    3.169990e+00
  4.877957e+00    3.140389e+00
  4.893833e+00    3.068486e+00
  4.909709e+00    3.109963e+00
  4.925584e+00    3.137881e+00
  4.941460e+00    3.118362e+00
  4.957335e+00    3.128743e+00
  4.973211e+00    3.119470e+00
  4.989086e+00    3.194008e+00
  5.004962e+00    3.134551e+00
  5.020838e+00    3.123893e+00
  5.036713e+00    3.105245e+00
  5.052589e+00    3.026913e+00
  5.068464e+00    3.064910e+00
  5.084340e+00    3.114724e+00
  5.100216e+00    3.003036e+00
  5.116091e+00    2.982194e+00
  5.131967e+00    3.020396e+00
  5.147842e+00    3.155720e+00
  5.163718e+00    3.339221e+00
  5.179593e+00    3.112648e+00
  5.195469e+00    3.101896e+00
  5.211345e+00    3.094314e+00
  5.227220e+00    3.145594e+00
  5.243096e+00    3.170565e+00
  5.258971e+00    3.106078e+00
  5.274847e+00    3.108215e+00
  5.290722e+00    3.127084e+00
  5.306598e+00    3.037684e+00
  5.322474e+00    3.020699e+00
  5.338349e+00    3.106442e+00
  5.354225e+00    3.143713e+00
  5.370100e+00    3.114945e+00
  5.385976e+00    3.106085e+00
  5.401851e+00    3.151927e+00
  5.417727e+00    3.144313e+00
  5.433603e+00    3.058921e+00
  5.449478e+00    3.092033e+00
  5.465354e+00    3.059877e+00
  5.481229e+00    3.080176e+00
  5.497105e+00    3.033191e+00
  5.512980e+00    3.086510e+00
  5.528856e+00    3.070770e+00
  5.544732e+00    3.043012e+00
  5.560607e+00    3.032481e+00
  5.576483e+00    3.030283e+00
  5.592358e+00    3.081594e+00
  5.608234e+00    3.134363e+00
  5.624109e+00    3.038563e+00
  5.639985e+00    3.081227e+00
  5.655861e+00    3.043004e+00
  5.671736e+00    3.077380e+00
  5.687612e+00    3.101661e+00
  5.703487e+00    3.039578e+00
  5.719363e+00    3.104643e+00
  5.735238e+00    3.070540e+00
  5.751114e+00    3.031846e+00
  5.766990e+00    3.097257e+00
  5.782865e+00    3.079612e+00
  5.798741e+00    3.134440e+00
  5.814616e+00    3.060689e+00
  5.830492e+00    2.961446e+00
  5.846367e+00    2.947227e+00
  5.862243e+00    3.080299e+00
  5.878119e+00    3.112889e+00
  5.893994e+00    3.104759e+00
  5.909870e+00    3.037975e+00
  5.925745e+00    3.062546e+00
  5.941621e+00    3.036125e+00
  5.957497e+00    2.958659e+00
  5.973372e+00    2.989065e+00
  5.989248e+00    2.985837e+00
  6.005123e+00    2.995806e+00
  6.020999e+00    3.011791e+00
  6.036874e+00    3.023570e+00
  6.052750e+00    3.025143e+00
  6.068626e+00    3.105814e+00
  6.084501e+00    3.116463e+00
  6.100377e+00    3.106406e+00
  6.116252e+00    3.092323e+00
  6.132128e+00    3.047624e+00
  6.148003e+00    3.059276e+00
  6.163879e+00    3.050066e+00
  6.179755e+00    3.177697e+00
  6.195630e+00    3.077259e+00
  6.211506e+00    3.031963e+00
  6.227381e+00    3.040938e+00
  6.243257e+00    3.035176e+00
  6.259132e+00    3.036358e+00
  6.275008e+00    2.994742e+00
  6.290884e+00    2.980739e+00
  6.306759e+00    3.018007e+00
  6.322635e+00    3.034646e+00
  6.338510e+00    3.011180e+00
  6.354386e+00    3.020651e+00
  6.370261e+00    3.097483e+00
  6.386137e+00    3.077856e+00
  6.402013e+00    3.103592e+00
  6.417888e+00    2.977696e+00
  6.433764e+00    2.890799e+00
  6.449639e+00    2.894296e+00
  6.465515e+00    2.957830e+00
  6.481390e+00    3.014931e+00
  6.497266e+00    3.025776e+00
  6.513142e+00    3.019009e+00
  6.529017e+00    3.005958e+00
  6.544893e+00    3.012326e+00
  6.560768e+00    3.039046e+00
  6.576644e+00    3.051963e+00
  6.592519e+00    3.009198e+00
  6.608395e+00    3.031619e+00
  6.624271e+00    3.051028e+00
  6.640146e+00    2.996642e+00
  6.656022e+00    2.998212e+00
  6.671897e+00    2.981522e+00
  6.687773e+00    3.003552e+00
  6.703648e+00    2.992950e+00
  6.719524e+00    3.031593e+00
  6.735400e+00    3.026437e+00
  6.751275e+00    3.044905e+00
  6.767151e+00    2.984221e+00
  6.783026e+00    3.016367e+00
  6.798902e+00    2.996784e+00
  6.814777e+00    3.056525e+00
  6.830653e+00    3.050654e+00
  6.846529e+00    2.995202e+00
  6.862404e+00    3.089113e+00
  6.878280e+00    3.061452e+00
  6.894155e+00    3.049019e+00
  6.910031e+00    2.967989e+00
  6.925907e+00    2.969468e+00
  6.941782e+00    3.033017e+00
  6.957658e+00    3.050957e+00
  6.973533e+00    3.014896e+00
  6.989409e+00    3.108260e+00
  7.005284e+00    3.045909e+00
  7.021160e+00    2.901068e+00
  7.037036e+00    2.937821e+00
  7.052911e+00    2.984901e+00
  7.068787e+00    2.976641e+00
  7.084662e+00    2.962658e+00
  7.100538e+00    3.003196e+00
  7.116413e+00    3.004310e+00
  7.132289e+00    3.022943e+00
  7.148165e+00    2.951796e+00
  7.164040e+00    2.998559e+00
  7.179916e+00    2.982559e+00
  7.195791e+00    3.003322e+00
  7.211667e+00    2.973136e+00
  7.227542e+00    2.945604e+00
  7.243418e+00    2.992171e+00
  7.259294e+00    2.985368e+00
  7.275169e+00    2.945047e+00
  7.291045e+00    2.966084e+00
  7.306920e+00    2.924079e+00
  7.322796e+00    3.002987e+00
  7.338671e+00    3.002465e+00
  7.354547e+00    2.958730e+00
  7.370423e+00    2.968167e+00
  7.386298e+00    3.028994e+00
  7.402174e+00    3.031867e+00
  7.418049e+00    3.022372e+00
  7.433925e+00    2.978561e+00
  7.449800e+00    2.978068e+00
  7.465676e+00    2.984374e+00
  7.481552e+00    2.938449e+00
  7.497427e+00    2.962443e+00
  7.513303e+00    2.969929e+00
  7.529178e+00    2.995820e+00
  7.545054e+00    2.966329e+00
  7.560929e+00    3.021071e+00
  7.576805e+00    3.007681e+00
  7.592681e+00    3.009735e+00
  7.608556e+00    2.952745e+00
  7.624432e+00    2.945611e+00
  7.640307e+00    2.953522e+00
  7.656183e+00    2.915292e+00
  7.672058e+00    2.988627e+00
  7.687934e+00    3.012710e+00
  7.703810e+00    2.951810e+00
  7.719685e+00    2.910103e+00
  7.735561e+00    2.951873e+00
  7.751436e+00    2.940658e+00
  7.767312e+00    2.918459e+00
  7.783187e+00    2.947015e+00
  7.799063e+00    2.934666e+00
  7.814939e+00    2.918799e+00
  7.830814e+00    2.929993e+00
  7.846690e+00    2.911553e+00
  7.862565e+00    2.858118e+00
  7.878441e+00    2.889025e+00
  7.894317e+00    2.917454e+00
  7.910192e+00    2.873360e+00
  7.926068e+00    2.941312e+00
  7.941943e+00    2.961268e+00
  7.957819e+00    2.994157e+00
  7.973694e+00    2.914331e+00
  7.989570e+00    2.955750e+00
  8.005446e+00    2.881328e+00
  8.021321e+00    2.867431e+00
  8.037197e+00    2.904688e+00
  8.053072e+00    2.953393e+00
  8.068948e+00    2.945384e+00
  8.084823e+00    2.887987e+00
  8.100699e+00    2.869147e+00
  8.116575e+00    2.959352e+00
  8.132450e+00    2.977185e+00
  8.148326e+00    2.905931e+00
  8.164201e+00    2.933495e+00
  8.180077e+00    2.914037e+00
  8.195952e+00    2.910026e+00
  8.211828e+00    2.970243e+00
  8.227704e+00    2.954639e+00
  8.243579e+00    2.936142e+00
  8.259455e+00    2.977580e+00
  8.275330e+00    2.926062e+00
  8.291206e+00    2.929512e+00
  8.307081e+00    2.880844e+00
  8.322957e+00    2.962291e+00
  8.338833e+00    2.952225e+00
  8.354708e+00    2.872318e+00
  8.370584e+00    2.909939e+00
  8.386459e+00    2.905515e+00
  8.402335e+00    2.865023e+00
  8.418210e+00    2.863819e+00
  8.434086e+00    2.919732e+00
  8.449962e+00    2.904145e+00
  8.465837e+00    2.930183e+00
  8.481713e+00    2.870398e+00
  8.497588e+00    2.889552e+00
  8.513464e+00    2.875430e+00
  8.529339e+00    2.897005e+00
  8.545215e+00    2.897506e+00
  8.561091e+00    2.835090e+00
  8.576966e+00    2.860842e+00
  8.592842e+00    2.824499e+00
  8.608717e+00    2.805321e+00
  8.624593e+00    2.845436e+00
  8.640468e+00    2.867434e+00
  8.656344e+00    2.880452e+00
  8.672220e+00    2.855501e+00
  8.688095e+00    2.854539e+00
  8.703971e+00    2.797828e+00
  8.719846e+00    2.810799e+00
  8.735722e+00    2.826619e+00
  8.751598e+00    2.809756e+00
  8.767473e+00    2.827946e+00
  8.783349e+00    2.791201e+00
  8.799224e+00    2.750025e+00
  8.815100e+00    2.833471e+00
  8.830975e+00    2.858652e+00
  8.846851e+00    2.835556e+00
  8.862727e+00    2.804141e+00
  8.878602e+00    2.835111e+00
  8.894478e+00    2.819717e+00
  8.910353e+00    2.846967e+00
  8.926229e+00    2.811457e+00
  8.942104e+00    2.836692e+00
  8.957980e+00    2.797903e+00
  8.973856e+00    2.759460e+00
  8.989731e+00    2.746221e+00
  9.005607e+00    2.773625e+00
  9.021482e+00    2.757295e+00
  9.037358e+00    2.773678e+00
  9.053233e+00    2.772465e+00
  9.069109e+00    2.792928e+00
  9.084985e+00    2.767988e+00
  9.100860e+00    2.740881e+00
  9.116736e+00    2.771182e+00
  9.132611e+00    2.731549e+00
  9.148487e+00    2.771150e+00
  9.164362e+00    2.814898e+00
  9.180238e+00    2.863382e+00
  9.196114e+00    2.757499e+00
  9.211989e+00    2.732164e+00
  9.227865e+00    2.752842e+00
  9.243740e+00    2.727494e+00
  9.259616e+00    2.749631e+00
  9.275491e+00    2.811527e+00
  9.291367e+00    2.800433e+00
  9.307243e+00    2.729501e+00
  9.323118e+00    2.770377e+00
  9.338994e+00    2.748974e+00
  9.354869e+00    2.715689e+00
  9.370745e+00    2.720432e+00
  9.386620e+00    2.753280e+00
  9.402496e+00    2.738612e+00
  9.418372e+00    2.747312e+00
  9.434247e+00    2.764976e+00
  9.450123e+00    2.700536e+00
  9.465998e+00    2.707812e+00
  9.481874e+00    2.745511e+00
  9.497749e+00    2.700284e+00
  9.513625e+00    2.691192e+00
  9.529501e+00    2.746738e+00
  9.545376e+00    2.806179e+00
  9.561252e+00    2.744043e+00
  9.577127e+00    2.761698e+00
  9.593003e+00    2.779066e+00
  9.608878e+00    2.728487e+00
  9.624754e+00    2.715095e+00
  9.640630e+00    2.723453e+00
  9.656505e+00    2.706134e+00
  9.672381e+00    2.697392e+00
  9.688256e+00    2.713031e+00
  9.704132e+00    2.760952e+00
  9.720008e+00    2.728111e+00
  9.735883e+00    2.689816e+00
  9.751759e+00    2.682527e+00
  9.767634e+00    2.699450e+00
  9.783510e+00    2.736203e+00
  9.799385e+00    2.716944e+00
  9.815261e+00    2.692963e+00
  9.831137e+00    2.693685e+00
  9.847012e+00    2.705386e+00
  9.862888e+00    2.681298e+00
  9.878763e+00    2.694103e+00
  9.894639e+00    2.684302e+00
  9.910514e+00    2.619793e+00
  9.926390e+00    2.603752e+00
  9.942266e+00    2.679651e+00
  9.958141e+00    2.678343e+00
  9.974017e+00    2.717648e+00
  9.989892e+00    2.695193e+00
  1.000577e+01    2.644806e+00
  1.002164e+01    2.656976e+00
  1.003752e+01    2.640296e+00
  1.005339e+01    2.637746e+00
  1.006927e+01    2.649409e+00
  1.008515e+01    2.626598e+00
  1.010102e+01    2.621918e+00
  1.011690e+01    2.654085e+00
  1.013277e+01    2.615001e+00
  1.014865e+01    2.617560e+00
  1.016452e+01    2.620540e+00
  1.018040e+01    2.634835e+00
  1.019627e+01    2.692349e+00
  1.021215e+01    2.666843e+00
  1.022803e+01    2.655014e+00
  1.024390e+01    2.648697e+00
  1.025978e+01    2.695852e+00
  1.027565e+01    2.650999e+00
  1.029153e+01    2.600847e+00
  1.030740e+01    2.616935e+00
  1.032328e+01    2.644312e+00
  1.033915e+01    2.657601e+00
  1.035503e+01    2.625444e+00
  1.037091e+01    2.593612e+00
  1.038678e+01    2.594747e+00
  1.040266e+01    2.618106e+00
  1.041853e+01    2.593950e+00
  1.043441e+01    2.567921e+00
  1.045028e+01    2.577257e+00
  1.046616e+01    2.623717e+00
  1.048204e+01    2.639930e+00
  1.049791e+01    2.584569e+00
  1.051379e+01    2.662338e+00
  1.052966e+01    2.613527e+00
  1.054554e+01    2.583886e+00
  1.056141e+01    2.565432e+00
  1.057729e+01    2.599766e+00
  1.059316e+01    2.589120e+00
  1.060904e+01    2.551552e+00
  1.062492e+01    2.559512e+00
  1.064079e+01    2.526469e+00
  1.065667e+01    2.521969e+00
  1.067254e+01    2.504190e+00
  1.068842e+01    2.541767e+00
  1.070429e+01    2.584706e+00
  1.072017e+01    2.533881e+00
  1.073604e+01    2.527460e+00
  1.075192e+01    2.488762e+00
  1.076780e+01    2.522667e+00
  1.078367e+01    2.557199e+00
  1.079955e+01    2.535043e+00
  1.081542e+01    2.513770e+00
  1.083130e+01    2.512193e+00
  1.084717e+01    2.509887e+00
  1.086305e+01    2.546509e+00
  1.087892e+01    2.516301e+00
  1.089480e+01    2.511725e+00
  1.091068e+01    2.542574e+00
  1.092655e+01    2.508504e+00
  1.094243e+01    2.508689e+00
  1.095830e+01    2.498673e+00
  1.097418e+01    2.490511e+00
  1.099005e+01    2.471620e+00
  1.100593e+01    2.481981e+00
  1.102180e+01    2.447571e+00
  1.103768e+01    2.472849e+00
  1.105356e+01    2.461092e+00
  1.106943e+01    2.414523e+00
  1.108531e+01    2.453312e+00
  1.110118e+01    2.480357e+00
  1.111706e+01    2.442360e+00
  1.113293e+01    2.466723e+00
  1.114881e+01    2.442197e+00
  1.116468e+01    2.414360e+00
  1.118056e+01    2.408547e+00
  1.119644e+01    2.453458e+00
  1.121231e+01    2.463076e+00
  1.122819e+01    2.426063e+00
  1.124406e+01    2.424049e+00
  1.125994e+01    2.419425e+00
  1.127581e+01    2.389791e+00
  1.129169e+01    2.363739e+00
  1.130756e+01    2.390554e+00
  1.132344e+01    2.410369e+00
  1.133932e+01    2.446839e+00
  1.135519e+01    2.446704e+00
  1.137107e+01    2.465010e+00
  1.138694e+01    2.458305e+00
  1.140282e+01    2.452644e+00
  1.141869e+01    2.386142e+00
  1.143457e+01    2.427860e+00
  1.145045e+01    2.425102e+00
  1.146632e+01    2.409033e+00
  1.148220e+01    2.371294e+00
  1.149807e+01    2.387578e+00
  1.151395e+01    2.325335e+00
  1.152982e+01    2.357407e+00
  1.154570e+01    2.353149e+00
  1.156157e+01    2.381552e+00
  1.157745e+01    2.358746e+00
  1.159333e+01    2.356567e+00
  1.160920e+01    2.377101e+00
  1.162508e+01    2.342121e+00
  1.164095e+01    2.377747e+00
  1.165683e+01    2.401976e+00
  1.167270e+01    2.384204e+00
  1.168858e+01    2.387508e+00
  1.170445e+01    2.380309e+00
  1.172033e+01    2.376471e+00
  1.173621e+01    2.327639e+00
  1.175208e+01    2.344563e+00
  1.176796e+01    2.349398e+00
  1.178383e+01    2.339663e+00
  1.179971e+01    2.345989e+00
  1.181558e+01    2.343628e+00
  1.183146e+01    2.333525e+00
  1.184733e+01    2.361958e+00
  1.186321e+01    2.326267e+00
  1.187909e+01    2.335349e+00
  1.189496e+01    2.338939e+00
  1.191084e+01    2.338228e+00
  1.192671e+01    2.294271e+00
  1.194259e+01    2.320326e+00
  1.195846e+01    2.305804e+00
  1.197434e+01    2.300065e+00
  1.199021e+01    2.295927e+00
  1.200609e+01    2.321555e+00
  1.202197e+01    2.345591e+00
  1.203784e+01    2.365474e+00
  1.205372e+01    2.342588e+00
  1.206959e+01    2.326639e+00
  1.208547e+01    2.338615e+00
  1.210134e+01    2.347526e+00
  1.211722e+01    2.311351e+00
  1.213309e+01    2.295678e+00
  1.214897e+01    2.257734e+00
  1.216485e+01    2.324054e+00
  1.218072e+01    2.362227e+00
  1.219660e+01    2.296829e+00
  1.221247e+01    2.316486e+00
  1.222835e+01    2.303221e+00
  1.224422e+01    2.296848e+00
  1.226010e+01    2.298915e+00
  1.227597e+01    2.294979e+00
  1.229185e+01    2.328993e+00
  1.230773e+01    2.313773e+00
  1.232360e+01    2.349059e+00
  1.233948e+01    2.355997e+00
  1.235535e+01    2.302081e+00
  1.237123e+01    2.358811e+00
  1.238710e+01    2.336058e+00
  1.240298e+01    2.327464e+00
  1.241886e+01    2.340694e+00
  1.243473e+01    2.345400e+00
  1.245061e+01    2.347054e+00
  1.246648e+01    2.381735e+00
  1.248236e+01    2.355171e+00
  1.249823e+01    2.320081e+00
  1.251411e+01    2.351989e+00
  1.252998e+01    2.327447e+00
  1.254586e+01    2.336133e+00
  1.256174e+01    2.325435e+00
  1.257761e+01    2.400075e+00
  1.259349e+01    2.433586e+00
  1.260936e+01    2.390276e+00
  1.262524e+01    2.406704e+00
  1.264111e+01    2.430945e+00
  1.265699e+01    2.409817e+00
  1.267286e+01    2.465643e+00
  1.268874e+01    2.509076e+00
  1.270462e+01    2.481593e+00
  1.272049e+01    2.469471e+00
  1.273637e+01    2.499750e+00
  1.275224e+01    2.528312e+00
  1.276812e+01    2.574081e+00
  1.278399e+01    2.628178e+00
  1.279987e+01    2.676153e+00
  1.281574e+01    2.715432e+00
  1.283162e+01    2.751636e+00
  1.284750e+01    2.823997e+00
  1.286337e+01    2.920542e+00
  1.287925e+01    3.024969e+00
  1.289512e+01    3.134335e+00
  1.291100e+01    3.270546e+00
  1.292687e+01    3.438345e+00
  1.294275e+01    3.660411e+00
  1.295862e+01    3.888944e+00
  1.297450e+01    4.247523e+00
  1.299038e+01    4.659831e+00
  1.300625e+01    5.248404e+00
  1.302213e+01    5.929675e+00
  1.303800e+01    6.787586e+00
  1.305388e+01    7.964951e+00
  1.306975e+01    9.281007e+00
  1.308563e+01    1.064402e+01
  1.310150e+01    1.210251e+01
  1.311738e+01    1.352149e+01
  1.313326e+01    1.487004e+01
  1.314913e+01    1.627429e+01
  1.316501e+01    1.744842e+01
  1.318088e+01    1.827848e+01
  1.319676e+01    1.839729e+01
  1.321263e+01    1.772614e+01
  1.322851e+01    1.605329e+01
  1.324438e+01    1.395010e+01
  1.326026e+01    1.175561e+01
  1.327614e+01    9.856575e+00
  1.329201e+01    8.304483e+00
  1.330789e+01    7.144764e+00
  1.332376e+01    6.162421e+00
  1.333964e+01    5.414877e+00
  1.335551e+01    4.903901e+00
  1.337139e+01    4.443546e+00
  1.338727e+01    4.047812e+00
  1.340314e+01    3.719206e+00
  1.341902e+01    3.563951e+00
  1.343489e+01    3.332464e+00
  1.345077e+01    3.126679e+00
  1.346664e+01    3.003803e+00
  1.348252e+01    2.869372e+00
  1.349839e+01    2.808158e+00
  1.351427e+01    2.752373e+00
  1.353015e+01    2.661427e+00
  1.354602e+01    2.599860e+00
  1.356190e+01    2.487281e+00
  1.357777e+01    2.493771e+00
  1.359365e+01    2.479883e+00
  1.360952e+01    2.443717e+00
  1.362540e+01    2.394992e+00
  1.364127e+01    2.382366e+00
  1.365715e+01    2.367982e+00
  1.367303e+01    2.306437e+00
  1.368890e+01    2.309128e+00
  1.370478e+01    2.260314e+00
  1.372065e+01    2.251908e+00
  1.373653e+01    2.262431e+00
  1.375240e+01    2.202834e+00
  1.376828e+01    2.152929e+00
  1.378415e+01    2.119130e+00
  1.380003e+01    2.164092e+00
  1.381591e+01    2.165866e+00
  1.383178e+01    2.155891e+00
  1.384766e+01    2.140253e+00
  1.386353e+01    2.116095e+00
  1.387941e+01    2.094166e+00
  1.389528e+01    2.107514e+00
  1.391116e+01    2.065479e+00
  1.392703e+01    2.063471e+00
  1.394291e+01    2.055600e+00
  1.395879e+01    2.067977e+00
  1.397466e+01    2.065444e+00
  1.399054e+01    2.067907e+00
  1.400641e+01    2.080306e+00
  1.402229e+01    2.070570e+00
  1.403816e+01    2.084573e+00
  1.405404e+01    2.070371e+00
  1.406991e+01    2.056834e+00
  1.408579e+01    2.013296e+00
  1.410167e+01    1.985867e+00
  1.411754e+01    2.001364e+00
  1.413342e+01    1.969404e+00
  1.414929e+01    2.003770e+00
  1.416517e+01    2.031063e+00
  1.418104e+01    2.019663e+00
  1.419692e+01    2.034178e+00
  1.421279e+01    2.042748e+00
  1.422867e+01    1.974664e+00
  1.424455e+01    2.002665e+00
  1.426042e+01    1.978103e+00
  1.427630e+01    1.980572e+00
  1.429217e+01    1.989167e+00
  1.430805e+01    1.962964e+00
  1.432392e+01    1.946929e+00
  1.433980e+01    1.958021e+00
  1.435568e+01    1.951772e+00
  1.437155e+01    1.966228e+00
  1.438743e+01    1.979706e+00
  1.440330e+01    1.939823e+00
  1.441918e+01    1.936671e+00
  1.443505e+01    1.925843e+00
  1.445093e+01    1.916247e+00
  1.446680e+01    1.922001e+00
  1.448268e+01    1.905060e+00
  1.449856e+01    1.887439e+00
  1.451443e+01    1.929636e+00
  1.453031e+01    1.916359e+00
  1.454618e+01    1.897691e+00
  1.456206e+01    1.871974e+00
  1.457793e+01    1.896821e+00
  1.459381e+01    1.903012e+00
  1.460968e+01    1.892698e+00
  1.462556e+01    1.902426e+00
  1.464144e+01    1.936836e+00
  1.465731e+01    1.909611e+00
  1.467319e+01    1.902191e+00
  1.468906e+01    1.939833e+00
  1.470494e+01    1.889755e+00
  1.472081e+01    1.928159e+00
  1.473669e+01    1.948973e+00
  1.475256e+01    1.915151e+00
  1.476844e+01    1.887024e+00
  1.478432e+01    1.888204e+00
  1.480019e+01    1.915939e+00
  1.481607e+01    1.944134e+00
  1.483194e+01    1.941860e+00
  1.484782e+01    1.933424e+00
  1.486369e+01    1.924388e+00
  1.487957e+01    1.903582e+00
  1.489544e+01    1.946327e+00
  1.491132e+01    1.960635e+00
  1.492720e+01    1.965613e+00
  1.494307e+01    1.992035e+00
  1.495895e+01    2.074411e+00
  1.497482e+01    2.068679e+00
  1.499070e+01    2.105399e+00
  1.500657e+01    2.195192e+00
  1.502245e+01    2.223055e+00
  1.503832e+01    2.251074e+00
  1.505420e+01    2.377019e+00
  1.507008e+01    2.476331e+00
  1.508595e+01    2.630355e+00
  1.510183e+01    2.872770e+00
  1.511770e+01    3.069671e+00
  1.513358e+01    3.312461e+00
  1.514945e+01    3.691433e+00
  1.516533e+01    4.113199e+00
  1.518120e+01    4.493023e+00
  1.519708e+01    4.847445e+00
  1.521296e+01    5.223139e+00
  1.522883e+01    5.565982e+00
  1.524471e+01    5.875715e+00
  1.526058e+01    6.065915e+00
  1.527646e+01    6.193056e+00
  1.529233e+01    6.174317e+00
  1.530821e+01    5.976186e+00
  1.532409e+01    5.542122e+00
  1.533996e+01    4.963990e+00
  1.535584e+01    4.343721e+00
  1.537171e+01    3.915314e+00
  1.538759e+01    3.412524e+00
  1.540346e+01    3.100517e+00
  1.541934e+01    2.853469e+00
  1.543521e+01    2.652124e+00
  1.545109e+01    2.448500e+00
  1.546697e+01    2.334691e+00
  1.548284e+01    2.237382e+00
  1.549872e+01    2.134999e+00
  1.551459e+01    2.053234e+00
  1.553047e+01    2.024401e+00
  1.554634e+01    1.983443e+00
  1.556222e+01    1.972862e+00
  1.557809e+01    1.904655e+00
  1.559397e+01    1.867262e+00
  1.560985e+01    1.853842e+00
  1.562572e+01    1.866814e+00
  1.564160e+01    1.836550e+00
  1.565747e+01    1.812505e+00
  1.567335e+01    1.803616e+00
  1.568922e+01    1.765983e+00
  1.570510e+01    1.785067e+00
  1.572097e+01    1.753738e+00
  1.573685e+01    1.720576e+00
  1.575273e+01    1.754163e+00
  1.576860e+01    1.739564e+00
  1.578448e+01    1.675697e+00
  1.580035e+01    1.699274e+00
  1.581623e+01    1.705966e+00
  1.583210e+01    1.691694e+00
  1.584798e+01    1.672755e+00
  1.586385e+01    1.661053e+00
  1.587973e+01    1.669948e+00
  1.589561e+01    1.669453e+00
  1.591148e+01    1.646999e+00
  1.592736e+01    1.663092e+00
  1.594323e+01    1.645970e+00
  1.595911e+01    1.623854e+00
  1.597498e+01    1.639845e+00
  1.599086e+01    1.636351e+00
  1.600673e+01    1.648311e+00
  1.602261e+01    1.625318e+00
  1.603849e+01    1.583148e+00
  1.605436e+01    1.602345e+00
  1.607024e+01    1.606266e+00
  1.608611e+01    1.602982e+00
  1.610199e+01    1.587511e+00
  1.611786e+01    1.581529e+00
  1.613374e+01    1.591144e+00
  1.614961e+01    1.600353e+00
  1.616549e+01    1.561860e+00
  1.618137e+01    1.576363e+00
  1.619724e+01    1.582289e+00
  1.621312e+01    1.588655e+00
  1.622899e+01    1.577536e+00
  1.624487e+01    1.558159e+00
  1.626074e+01    1.565887e+00
  1.627662e+01    1.539399e+00
  1.629250e+01    1.555036e+00
  1.630837e+01    1.564238e+00
  1.632425e+01    1.554195e+00
  1.634012e+01    1.568755e+00
  1.635600e+01    1.568438e+00
  1.637187e+01    1.529256e+00
  1.638775e+01    1.545855e+00
  1.640362e+01    1.542085e+00
  1.641950e+01    1.521917e+00
  1.643538e+01    1.509236e+00
  1.645125e+01    1.536517e+00
  1.646713e+01    1.519032e+00
  1.648300e+01    1.525391e+00
  1.649888e+01    1.491271e+00
  1.651475e+01    1.457735e+00
  1.653063e+01    1.469280e+00
  1.654650e+01    1.503491e+00
  1.656238e+01    1.492620e+00
  1.657826e+01    1.511658e+00
  1.659413e+01    1.495273e+00
  1.661001e+01    1.509904e+00
  1.662588e+01    1.506244e+00
  1.664176e+01    1.502176e+00
  1.665763e+01    1.498374e+00
  1.667351e+01    1.473828e+00
  1.668938e+01    1.452787e+00
  1.670526e+01    1.496195e+00
  1.672114e+01    1.504087e+00
  1.673701e+01    1.500601e+00
  1.675289e+01    1.489416e+00
  1.676876e+01    1.480134e+00
  1.678464e+01    1.457533e+00
  1.680051e+01    1.487604e+00
  1.681639e+01    1.493321e+00
  1.683226e+01    1.465310e+00
  1.684814e+01    1.459740e+00
  1.686402e+01    1.445359e+00
  1.687989e+01    1.442774e+00
  1.689577e+01    1.442709e+00
  1.691164e+01    1.429720e+00
  1.692752e+01    1.445153e+00
  1.694339e+01    1.427832e+00
  1.695927e+01    1.429825e+00
  1.697514e+01    1.424857e+00
  1.699102e+01    1.422466e+00
  1.700690e+01    1.450905e+00
  1.702277e+01    1.430331e+00
  1.703865e+01    1.417716e+00
  1.705452e+01    1.446009e+00
  1.707040e+01    1.444452e+00
  1.708627e+01    1.450974e+00
  1.710215e+01    1.452101e+00
  1.711802e+01    1.446877e+00
  1.713390e+01    1.439730e+00
  1.714978e+01    1.418773e+00
  1.716565e+01    1.422214e+00
  1.718153e+01    1.410042e+00
  1.719740e+01    1.420454e+00
  1.721328e+01    1.409088e+00
  1.722915e+01    1.426231e+00
  1.724503e+01    1.401249e+00
  1.726091e+01    1.402733e+00
  1.727678e+01    1.392702e+00
  1.729266e+01    1.371675e+00
  1.730853e+01    1.399366e+00
  1.732441e+01    1.389270e+00
  1.734028e+01    1.406066e+00
  1.735616e+01    1.381117e+00
  1.737203e+01    1.366025e+00
  1.738791e+01    1.373276e+00
  1.740379e+01    1.377139e+00
  1.741966e+01    1.414611e+00
  1.743554e+01    1.384137e+00
  1.745141e+01    1.367014e+00
  1.746729e+01    1.381558e+00
  1.748316e+01    1.377099e+00
  1.749904e+01    1.353038e+00
  1.751491e+01    1.356389e+00
  1.753079e+01    1.372053e+00
  1.754667e+01    1.374265e+00
  1.756254e+01    1.353127e+00
  1.757842e+01    1.327876e+00
  1.759429e+01    1.327046e+00
  1.761017e+01    1.351284e+00
  1.762604e+01    1.353849e+00
  1.764192e+01    1.334222e+00
  1.765779e+01    1.325000e+00
  1.767367e+01    1.348181e+00
  1.768955e+01    1.332794e+00
  1.770542e+01    1.313692e+00
  1.772130e+01    1.309316e+00
  1.773717e+01    1.310221e+00
  1.775305e+01    1.316106e+00
  1.776892e+01    1.298547e+00
  1.778480e+01    1.315244e+00
  1.780067e+01    1.347406e+00
  1.781655e+01    1.350046e+00
  1.783243e+01    1.316037e+00
  1.784830e+01    1.285234e+00
  1.786418e+01    1.311668e+00
  1.788005e+01    1.302517e+00
  1.789593e+01    1.321128e+00
  1.791180e+01    1.305497e+00
  1.792768e+01    1.331151e+00
  1.794355e+01    1.339229e+00
  1.795943e+01    1.327321e+00
  1.797531e+01    1.297870e+00
  1.799118e+01    1.302055e+00
  1.800706e+01    1.303455e+00
  1.802293e+01    1.279837e+00
  1.803881e+01    1.305857e+00
  1.805468e+01    1.316921e+00
  1.807056e+01    1.302494e+00
  1.808643e+01    1.298254e+00
  1.810231e+01    1.315798e+00
  1.811819e+01    1.303998e+00
  1.813406e+01    1.292096e+00
  1.814994e+01    1.287069e+00
  1.816581e+01    1.280037e+00
  1.818169e+01    1.250578e+00
  1.819756e+01    1.304642e+00
  1.821344e+01    1.308640e+00
  1.822932e+01    1.281899e+00
  1.824519e+01    1.273893e+00
  1.826107e+01    1.272485e+00
  1.827694e+01    1.265196e+00
  1.829282e+01    1.253227e+00
  1.830869e+01    1.242187e+00
  1.832457e+01    1.248788e+00
  1.834044e+01    1.256723e+00
  1.835632e+01    1.240736e+00
  1.837220e+01    1.248011e+00
  1.838807e+01    1.265561e+00
  1.840395e+01    1.250096e+00
  1.841982e+01    1.249348e+00
  1.843570e+01    1.238920e+00
  1.845157e+01    1.227160e+00
  1.846745e+01    1.243222e+00
  1.848332e+01    1.254234e+00
  1.849920e+01    1.235955e+00
  1.851508e+01    1.237097e+00
  1.853095e+01    1.253903e+00
  1.854683e+01    1.246597e+00
  1.856270e+01    1.252085e+00
  1.857858e+01    1.250953e+00
  1.859445e+01    1.253428e+00
  1.861033e+01    1.263002e+00
  1.862620e+01    1.215513e+00
  1.864208e+01    1.188042e+00
  1.865796e+01    1.207831e+00
  1.867383e+01    1.228968e+00
  1.868971e+01    1.238365e+00
  1.870558e+01    1.234892e+00
  1.872146e+01    1.243075e+00
  1.873733e+01    1.247941e+00
  1.875321e+01    1.241286e+00
  1.876908e+01    1.213092e+00
  1.878496e+01    1.224828e+00
  1.880084e+01    1.229162e+00
  1.881671e+01    1.219033e+00
  1.883259e+01    1.195219e+00
  1.884846e+01    1.201815e+00
  1.886434e+01    1.215103e+00
  1.888021e+01    1.201233e+00
  1.889609e+01    1.198495e+00
  1.891196e+01    1.199983e+00
  1.892784e+01    1.225324e+00
  1.894372e+01    1.226725e+00
  1.895959e+01    1.208318e+00
  1.897547e+01    1.215779e+00
  1.899134e+01    1.189157e+00
  1.900722e+01    1.188861e+00
  1.902309e+01    1.206004e+00
  1.903897e+01    1.194483e+00
  1.905484e+01    1.198659e+00
  1.907072e+01    1.192002e+00
  1.908660e+01    1.191322e+00
  1.910247e+01    1.197911e+00
  1.911835e+01    1.208601e+00
  1.913422e+01    1.184412e+00
  1.915010e+01    1.162967e+00
  1.916597e+01    1.195734e+00
  1.918185e+01    1.198166e+00
  1.919773e+01    1.172248e+00
  1.921360e+01    1.175652e+00
  1.922948e+01    1.176099e+00
  1.924535e+01    1.183938e+00
  1.926123e+01    1.199163e+00
  1.927710e+01    1.199202e+00
  1.929298e+01    1.193931e+00
  1.930885e+01    1.194303e+00
  1.932473e+01    1.171576e+00
  1.934061e+01    1.180966e+00
  1.935648e+01    1.183582e+00
  1.937236e+01    1.186094e+00
  1.938823e+01    1.164410e+00
  1.940411e+01    1.154645e+00
  1.941998e+01    1.155274e+00
  1.943586e+01    1.171473e+00
  1.945173e+01    1.184896e+00
  1.946761e+01    1.180843e+00
  1.948349e+01    1.159088e+00
  1.949936e+01    1.172530e+00
  1.951524e+01    1.169229e+00
  1.953111e+01    1.143113e+00
  1.954699e+01    1.147561e+00
  1.956286e+01    1.151630e+00
  1.957874e+01    1.136533e+00
  1.959461e+01    1.148055e+00
  1.961049e+01    1.174001e+00
  1.962637e+01    1.135784e+00
  1.964224e+01    1.131585e+00
  1.965812e+01    1.159326e+00
  1.967399e+01    1.150536e+00
  1.968987e+01    1.128863e+00
  1.970574e+01    1.156375e+00
  1.972162e+01    1.154218e+00
  1.973749e+01    1.139876e+00
  1.975337e+01    1.146519e+00
  1.976925e+01    1.118111e+00
  1.978512e+01    1.103419e+00
  1.980100e+01    1.138690e+00
  1.981687e+01    1.151296e+00
  1.983275e+01    1.120329e+00
  1.984862e+01    1.147166e+00
  1.986450e+01    1.144068e+00
  1.988037e+01    1.120296e+00
  1.989625e+01    1.134531e+00
  1.991213e+01    1.129388e+00
  1.992800e+01    1.103018e+00
  1.994388e+01    1.109832e+00
  1.995975e+01    1.117105e+00
  1.997563e+01    1.114820e+00
  1.999150e+01    1.105912e+00
  2.000738e+01    1.117267e+00
  2.002325e+01    1.124543e+00
  2.003913e+01    1.127860e+00
  2.005501e+01    1.125961e+00
  2.007088e+01    1.106249e+00
  2.008676e+01    1.101845e+00
  2.010263e+01    1.102500e+00
  2.011851e+01    1.101905e+00
  2.013438e+01    1.119479e+00
  2.015026e+01    1.131847e+00
  2.016614e+01    1.127332e+00
  2.018201e+01    1.100809e+00
  2.019789e+01    1.078971e+00
  2.021376e+01    1.099956e+00
  2.022964e+01    1.085230e+00
  2.024551e+01    1.089554e+00
  2.026139e+01    1.104677e+00
  2.027726e+01    1.122679e+00
  2.029314e+01    1.082196e+00
  2.030902e+01    1.101084e+00
  2.032489e+01    1.088829e+00
  2.034077e+01    1.109035e+00
  2.035664e+01    1.102290e+00
  2.037252e+01    1.084092e+00
  2.038839e+01    1.072025e+00
  2.040427e+01    1.093935e+00
  2.042014e+01    1.103874e+00
  2.043602e+01    1.091101e+00
  2.045190e+01    1.096567e+00
  2.046777e+01    1.110592e+00
  2.048365e+01    1.081880e+00
  2.049952e+01    1.082318e+00
  2.051540e+01    1.082401e+00
  2.053127e+01    1.094229e+00
  2.054715e+01    1.088435e+00
  2.056302e+01    1.099125e+00
  2.057890e+01    1.097838e+00
  2.059478e+01    1.097848e+00
  2.061065e+01    1.093345e+00
  2.062653e+01    1.086443e+00
  2.064240e+01    1.066596e+00
  2.065828e+01    1.086252e+00
  2.067415e+01    1.090487e+00
  2.069003e+01    1.088978e+00
  2.070590e+01    1.090082e+00
  2.072178e+01    1.080638e+00
  2.073766e+01    1.089417e+00
  2.075353e+01    1.084709e+00
  2.076941e+01    1.095528e+00
  2.078528e+01    1.086094e+00
  2.080116e+01    1.078323e+00
  2.081703e+01    1.074919e+00
  2.083291e+01    1.058845e+00
  2.084878e+01    1.077809e+00
  2.086466e+01    1.093644e+00
  2.088054e+01    1.087019e+00
  2.089641e+01    1.093004e+00
  2.091229e+01    1.098710e+00
  2.092816e+01    1.084753e+00
  2.094404e+01    1.081099e+00
  2.095991e+01    1.077380e+00
  2.097579e+01    1.098811e+00
  2.099166e+01    1.100100e+00
  2.100754e+01    1.087682e+00
  2.102342e+01    1.082168e+00
  2.103929e+01    1.097742e+00
  2.105517e+01    1.084573e+00
  2.107104e+01    1.095930e+00
  2.108692e+01    1.111944e+00
  2.110279e+01    1.082705e+00
  2.111867e+01    1.078527e+00
  2.113455e+01    1.087136e+00
  2.115042e+01    1.089225e+00
  2.116630e+01    1.102387e+00
  2.118217e+01    1.123524e+00
  2.119805e+01    1.110245e+00
  2.121392e+01    1.093174e+00
  2.122980e+01    1.115471e+00
  2.124567e+01    1.098394e+00
  2.126155e+01    1.142388e+00
  2.127743e+01    1.125556e+00
  2.129330e+01    1.115089e+00
  2.130918e+01    1.144309e+00
  2.132505e+01    1.162450e+00
  2.134093e+01    1.129347e+00
  2.135680e+01    1.134127e+00
  2.137268e+01    1.141255e+00
  2.138855e+01    1.157373e+00
  2.140443e+01    1.162929e+00
  2.142031e+01    1.163107e+00
  2.143618e+01    1.188228e+00
  2.145206e+01    1.225127e+00
  2.146793e+01    1.228639e+00
  2.148381e+01    1.259136e+00
  2.149968e+01    1.283018e+00
  2.151556e+01    1.290547e+00
  2.153143e+01    1.337105e+00
  2.154731e+01    1.376128e+00
  2.156319e+01    1.390181e+00
  2.157906e+01    1.421759e+00
  2.159494e+01    1.513689e+00
  2.161081e+01    1.616047e+00
  2.162669e+01    1.681950e+00
  2.164256e+01    1.763129e+00
  2.165844e+01    1.874209e+00
  2.167431e+01    2.022818e+00
  2.169019e+01    2.201141e+00
  2.170607e+01    2.439894e+00
  2.172194e+01    2.660528e+00
  2.173782e+01    2.996182e+00
  2.175369e+01    3.407799e+00
  2.176957e+01    3.919621e+00
  2.178544e+01    4.524459e+00
  2.180132e+01    5.186769e+00
  2.181719e+01    5.875162e+00
  2.183307e+01    6.674726e+00
  2.184895e+01    7.470811e+00
  2.186482e+01    8.241606e+00
  2.188070e+01    9.011518e+00
  2.189657e+01    9.650343e+00
  2.191245e+01    1.011100e+01
  2.192832e+01    1.016818e+01
  2.194420e+01    9.701727e+00
  2.196007e+01    8.944116e+00
  2.197595e+01    7.981205e+00
  2.199183e+01    6.850532e+00
  2.200770e+01    5.745322e+00
  2.202358e+01    4.845542e+00
  2.203945e+01    4.116486e+00
  2.205533e+01    3.519173e+00
  2.207120e+01    3.084927e+00
  2.208708e+01    2.750702e+00
  2.210296e+01    2.471486e+00
  2.211883e+01    2.199522e+00
  2.213471e+01    2.041372e+00
  2.215058e+01    1.878734e+00
  2.216646e+01    1.761282e+00
  2.218233e+01    1.648864e+00
  2.219821e+01    1.561372e+00
  2.221408e+01    1.512826e+00
  2.222996e+01    1.455285e+00
  2.224584e+01    1.386836e+00
  2.226171e+01    1.356361e+00
  2.227759e+01    1.313019e+00
  2.229346e+01    1.271214e+00
  2.230934e+01    1.223013e+00
  2.232521e+01    1.201867e+00
  2.234109e+01    1.207114e+00
  2.235696e+01    1.176874e+00
  2.237284e+01    1.144627e+00
  2.238872e+01    1.129624e+00
  2.240459e+01    1.117025e+00
  2.242047e+01    1.094332e+00
  2.243634e+01    1.104344e+00
  2.245222e+01    1.089333e+00
  2.246809e+01    1.049827e+00
  2.248397e+01    1.052228e+00
  2.249984e+01    1.045437e+00
  2.251572e+01    1.040009e+00
  2.253160e+01    1.034857e+00
  2.254747e+01    1.018891e+00
  2.256335e+01    1.015543e+00
  2.257922e+01    1.013757e+00
  2.259510e+01    1.009956e+00
  2.261097e+01    1.004230e+00
  2.262685e+01    1.011682e+00
  2.264272e+01    9.902998e-01
  2.265860e+01    9.698739e-01
  2.267448e+01    9.779204e-01
  2.269035e+01    9.766154e-01
  2.270623e+01    9.581441e-01
  2.272210e+01    9.459932e-01
  2.273798e+01    9.468260e-01
  2.275385e+01    9.485666e-01
  2.276973e+01    9.300440e-01
  2.278560e+01    9.403105e-01
  2.280148e+01    9.730335e-01
  2.281736e+01    9.277909e-01
  2.283323e+01    9.300223e-01
  2.284911e+01    9.428362e-01
  2.286498e+01    9.229904e-01
  2.288086e+01    9.102749e-01
  2.289673e+01    9.186295e-01
  2.291261e+01    9.191447e-01
  2.292848e+01    9.192125e-01
  2.294436e+01    9.298772e-01
  2.296024e+01    9.300059e-01
  2.297611e+01    9.019782e-01
  2.299199e+01    9.057138e-01
  2.300786e+01    9.118116e-01
  2.302374e+01    9.003018e-01
  2.303961e+01    8.973581e-01
  2.305549e+01    9.048861e-01
  2.307137e+01    9.153511e-01
  2.308724e+01    9.108732e-01
  2.310312e+01    9.080139e-01
  2.311899e+01    8.784398e-01
  2.313487e+01    8.932818e-01
  2.315074e+01    8.989450e-01
  2.316662e+01    8.880760e-01
  2.318249e+01    8.655274e-01
  2.319837e+01    8.589851e-01
  2.321425e+01    8.651506e-01
  2.323012e+01    8.721223e-01
  2.324600e+01    8.748773e-01
  2.326187e+01    8.560326e-01
  2.327775e+01    8.573735e-01
  2.329362e+01    8.766468e-01
  2.330950e+01    8.842304e-01
  2.332537e+01    8.665145e-01
  2.334125e+01    8.581241e-01
  2.335713e+01    8.691870e-01
  2.337300e+01    8.419276e-01
  2.338888e+01    8.454988e-01
  2.340475e+01    8.610178e-01
  2.342063e+01    8.594730e-01
  2.343650e+01    8.460544e-01
  2.345238e+01    8.545637e-01
  2.346825e+01    8.755900e-01
  2.348413e+01    8.558226e-01
  2.350001e+01    8.615479e-01
  2.351588e+01    8.516184e-01
  2.353176e+01    8.658114e-01
  2.354763e+01    8.662161e-01
  2.356351e+01    8.567034e-01
  2.357938e+01    8.479549e-01
  2.359526e+01    8.484572e-01
  2.361113e+01    8.534973e-01
  2.362701e+01    8.598739e-01
  2.364289e+01    8.436636e-01
  2.365876e+01    8.379503e-01
  2.367464e+01    8.184912e-01
  2.369051e+01    8.510474e-01
  2.370639e+01    8.350728e-01
  2.372226e+01    8.205339e-01
  2.373814e+01    8.147357e-01
  2.375401e+01    8.188560e-01
  2.376989e+01    8.304673e-01
  2.378577e+01    8.298652e-01
  2.380164e+01    8.133838e-01
  2.381752e+01    8.077241e-01
  2.383339e+01    8.146417e-01
  2.384927e+01    8.079631e-01
  2.386514e+01    8.184916e-01
  2.388102e+01    7.946708e-01
  2.389689e+01    7.866377e-01
  2.391277e+01    7.815441e-01
  2.392865e+01    8.135901e-01
  2.394452e+01    8.323942e-01
  2.396040e+01    8.122863e-01
  2.397627e+01    7.976432e-01
  2.399215e+01    7.863890e-01
  2.400802e+01    7.971468e-01
  2.402390e+01    7.850803e-01
  2.403978e+01    7.826938e-01
  2.405565e+01    7.816393e-01
  2.407153e+01    7.696015e-01
  2.408740e+01    7.932486e-01
  2.410328e+01    7.853532e-01
  2.411915e+01    7.910303e-01
  2.413503e+01    7.986067e-01
  2.415090e+01    7.869172e-01
  2.416678e+01    7.836048e-01
  2.418266e+01    7.774733e-01
  2.419853e+01    7.808905e-01
  2.421441e+01    7.543343e-01
  2.423028e+01    7.664416e-01
  2.424616e+01    7.814232e-01
  2.426203e+01    7.648455e-01
  2.427791e+01    7.844337e-01
  2.429378e+01    7.914138e-01
  2.430966e+01    7.942791e-01
  2.432554e+01    8.066589e-01
  2.434141e+01    7.916269e-01
  2.435729e+01    7.895486e-01
  2.437316e+01    8.109566e-01
  2.438904e+01    7.916844e-01
  2.440491e+01    7.943980e-01
  2.442079e+01    7.791656e-01
  2.443666e+01    7.756723e-01
  2.445254e+01    7.759815e-01
  2.446842e+01    7.809356e-01
  2.448429e+01    7.869987e-01
  2.450017e+01    7.767786e-01
  2.451604e+01    7.817002e-01
  2.453192e+01    7.823458e-01
  2.454779e+01    8.050427e-01
  2.456367e+01    8.137203e-01
  2.457954e+01    8.007943e-01
  2.459542e+01    7.934620e-01
  2.461130e+01    8.057728e-01
  2.462717e+01    8.003115e-01
  2.464305e+01    7.861692e-01
  2.465892e+01    7.875794e-01
  2.467480e+01    7.936921e-01
  2.469067e+01    7.879968e-01
  2.470655e+01    7.892917e-01
  2.472242e+01    7.970092e-01
  2.473830e+01    7.858812e-01
  2.475418e+01    8.041307e-01
  2.477005e+01    8.195288e-01
  2.478593e+01    8.044195e-01
  2.480180e+01    7.929632e-01
  2.481768e+01    7.913529e-01
  2.483355e+01    7.977619e-01
  2.484943e+01    8.132257e-01
  2.486530e+01    8.024041e-01
  2.488118e+01    7.964113e-01
  2.489706e+01    7.805361e-01
  2.491293e+01    7.969093e-01
  2.492881e+01    7.975804e-01
  2.494468e+01    7.803109e-01
  2.496056e+01    7.921336e-01
  2.497643e+01    8.112096e-01
  2.499231e+01    8.097957e-01
  2.500819e+01    7.966187e-01
  2.502406e+01    8.149947e-01
  2.503994e+01    8.336509e-01
  2.505581e+01    8.305953e-01
  2.507169e+01    8.043678e-01
  2.508756e+01    8.090253e-01
  2.510344e+01    8.229436e-01
  2.511931e+01    8.415717e-01
  2.513519e+01    8.275165e-01
  2.515107e+01    8.226320e-01
  2.516694e+01    8.237016e-01
  2.518282e+01    8.238360e-01
  2.519869e+01    8.310246e-01
  2.521457e+01    8.515025e-01
  2.523044e+01    8.525263e-01
  2.524632e+01    8.342791e-01
  2.526219e+01    8.481976e-01
  2.527807e+01    8.607886e-01
  2.529395e+01    8.786774e-01
  2.530982e+01    8.764309e-01
  2.532570e+01    8.803299e-01
  2.534157e+01    8.863871e-01
  2.535745e+01    8.679578e-01
  2.537332e+01    8.968284e-01
  2.538920e+01    9.086571e-01
  2.540507e+01    9.074478e-01
  2.542095e+01    9.122936e-01
  2.543683e+01    9.251145e-01
  2.545270e+01    9.440936e-01
  2.546858e+01    9.592203e-01
  2.548445e+01    9.843183e-01
  2.550033e+01    9.846653e-01
  2.551620e+01    9.973071e-01
  2.553208e+01    1.001726e+00
  2.554795e+01    1.017421e+00
  2.556383e+01    1.043016e+00
  2.557971e+01    1.064004e+00
  2.559558e+01    1.085086e+00
  2.561146e+01    1.112904e+00
  2.562733e+01    1.163811e+00
  2.564321e+01    1.208071e+00
  2.565908e+01    1.259122e+00
  2.567496e+01    1.275646e+00
  2.569083e+01    1.337693e+00
  2.570671e+01    1.414854e+00
  2.572259e+01    1.525038e+00
  2.573846e+01    1.657825e+00
  2.575434e+01    1.756505e+00
  2.577021e+01    1.909908e+00
  2.578609e+01    2.142737e+00
  2.580196e+01    2.394566e+00
  2.581784e+01    2.709709e+00
  2.583371e+01    3.034401e+00
  2.584959e+01    3.470318e+00
  2.586547e+01    4.003875e+00
  2.588134e+01    4.607045e+00
  2.589722e+01    5.249483e+00
  2.591309e+01    5.987634e+00
  2.592897e+01    6.700572e+00
  2.594484e+01    7.371764e+00
  2.596072e+01    7.912126e+00
  2.597660e+01    8.286794e+00
  2.599247e+01    8.412390e+00
  2.600835e+01    8.192888e+00
  2.602422e+01    7.670483e+00
  2.604010e+01    6.892320e+00
  2.605597e+01    5.970325e+00
  2.607185e+01    5.167626e+00
  2.608772e+01    4.458652e+00
  2.610360e+01    3.767423e+00
  2.611948e+01    3.237636e+00
  2.613535e+01    2.855665e+00
  2.615123e+01    2.503967e+00
  2.616710e+01    2.221947e+00
  2.618298e+01    2.016304e+00
  2.619885e+01    1.862725e+00
  2.621473e+01    1.731972e+00
  2.623060e+01    1.613292e+00
  2.624648e+01    1.492528e+00
  2.626236e+01    1.416282e+00
  2.627823e+01    1.332648e+00
  2.629411e+01    1.278461e+00
  2.630998e+01    1.242208e+00
  2.632586e+01    1.180104e+00
  2.634173e+01    1.123613e+00
  2.635761e+01    1.116946e+00
  2.637348e+01    1.089558e+00
  2.638936e+01    1.032434e+00
  2.640524e+01    1.049344e+00
  2.642111e+01    1.007758e+00
  2.643699e+01    9.997363e-01
  2.645286e+01    9.848510e-01
  2.646874e+01    9.845989e-01
  2.648461e+01    9.890416e-01
  2.650049e+01    9.800467e-01
  2.651636e+01    9.556626e-01
  2.653224e+01    9.536972e-01
  2.654812e+01    9.553159e-01
  2.656399e+01    9.560695e-01
  2.657987e+01    9.341767e-01
  2.659574e+01    9.236951e-01
  2.661162e+01    9.282590e-01
  2.662749e+01    9.386188e-01
  2.664337e+01    9.337206e-01
  2.665924e+01    9.277635e-01
  2.667512e+01    9.092286e-01
  2.669100e+01    9.158495e-01
  2.670687e+01    9.033663e-01
  2.672275e+01    8.938901e-01
  2.673862e+01    8.888932e-01
  2.675450e+01    9.047307e-01
  2.677037e+01    9.210194e-01
  2.678625e+01    9.264453e-01
  2.680212e+01    9.233651e-01
  2.681800e+01    8.848183e-01
  2.683388e+01    8.995319e-01
  2.684975e+01    9.310708e-01
  2.686563e+01    9.217732e-01
  2.688150e+01    8.923045e-01
  2.689738e+01    9.259137e-01
  2.691325e+01    9.501776e-01
  2.692913e+01    9.261475e-01
  2.694501e+01    9.530091e-01
  2.696088e+01    9.788848e-01
  2.697676e+01    9.958651e-01
  2.699263e+01    9.998276e-01
  2.700851e+01    1.009105e+00
  2.702438e+01    1.036387e+00
  2.704026e+01    1.078972e+00
  2.705613e+01    1.117692e+00
  2.707201e+01    1.178796e+00
  2.708789e+01    1.233475e+00
  2.710376e+01    1.319124e+00
  2.711964e+01    1.430948e+00
  2.713551e+01    1.516043e+00
  2.715139e+01    1.656705e+00
  2.716726e+01    1.826119e+00
  2.718314e+01    1.979574e+00
  2.719901e+01    2.112236e+00
  2.721489e+01    2.243961e+00
  2.723077e+01    2.404056e+00
  2.724664e+01    2.436373e+00
  2.726252e+01    2.412690e+00
  2.727839e+01    2.319330e+00
  2.729427e+01    2.180620e+00
  2.731014e+01    2.015397e+00
  2.732602e+01    1.858170e+00
  2.734189e+01    1.714616e+00
  2.735777e+01    1.498410e+00
  2.737365e+01    1.368168e+00
  2.738952e+01    1.272431e+00
  2.740540e+01    1.204258e+00
  2.742127e+01    1.139709e+00
  2.743715e+01    1.086159e+00
  2.745302e+01    1.037610e+00
  2.746890e+01    1.034292e+00
  2.748477e+01    1.010231e+00
  2.750065e+01    9.920116e-01
  2.751653e+01    9.570965e-01
  2.753240e+01    9.440280e-01
  2.754828e+01    9.422718e-01
  2.756415e+01    9.227729e-01
  2.758003e+01    8.943744e-01
  2.759590e+01    8.871201e-01
  2.761178e+01    8.657284e-01
  2.762765e+01    8.570660e-01
  2.764353e+01    8.518959e-01
  2.765941e+01    8.599023e-01
  2.767528e+01    8.805934e-01
  2.769116e+01    8.575261e-01
  2.770703e+01    8.619812e-01
  2.772291e+01    8.460020e-01
  2.773878e+01    8.347854e-01
  2.775466e+01    8.279198e-01
  2.777054e+01    8.052686e-01
  2.778641e+01    7.902299e-01
  2.780229e+01    7.901173e-01
  2.781816e+01    8.016959e-01
  2.783404e+01    7.943396e-01
  2.784991e+01    8.101373e-01
  2.786579e+01    8.196574e-01
  2.788166e+01    8.155205e-01
  2.789754e+01    7.784045e-01
  2.791342e+01    7.899001e-01
  2.792929e+01    8.002098e-01
  2.794517e+01    7.717960e-01
  2.796104e+01    7.909274e-01
  2.797692e+01    8.053552e-01
  2.799279e+01    8.100026e-01
  2.800867e+01    7.976357e-01
  2.802454e+01    7.955400e-01
  2.804042e+01    7.831352e-01
  2.805630e+01    7.791566e-01
  2.807217e+01    7.893445e-01
  2.808805e+01    7.999874e-01
  2.810392e+01    7.970576e-01
  2.811980e+01    8.068319e-01
  2.813567e+01    8.008792e-01
  2.815155e+01    7.952445e-01
  2.816742e+01    7.921706e-01
  2.818330e+01    7.728332e-01
  2.819918e+01    7.758013e-01
  2.821505e+01    7.771758e-01
  2.823093e+01    7.946327e-01
  2.824680e+01    7.916809e-01
  2.826268e+01    7.907254e-01
  2.827855e+01    7.817249e-01
  2.829443e+01    7.700492e-01
  2.831030e+01    7.684243e-01
  2.832618e+01    7.856175e-01
  2.834206e+01    7.775311e-01
  2.835793e+01    7.729434e-01
  2.837381e+01    7.852955e-01
  2.838968e+01    7.827955e-01
  2.840556e+01    7.839606e-01
  2.842143e+01    7.691426e-01
  2.843731e+01    7.545888e-01
  2.845318e+01    7.605333e-01
  2.846906e+01    7.552387e-01
  2.848494e+01    7.549436e-01
  2.850081e+01    7.726702e-01
  2.851669e+01    7.679752e-01
  2.853256e+01    7.617491e-01
  2.854844e+01    7.661160e-01
  2.856431e+01    7.568418e-01
  2.858019e+01    7.808824e-01
  2.859606e+01    7.757419e-01
  2.861194e+01    7.447187e-01
  2.862782e+01    7.526564e-01
  2.864369e+01    7.325688e-01
  2.865957e+01    7.474428e-01
  2.867544e+01    7.634669e-01
  2.869132e+01    7.587816e-01
  2.870719e+01    7.580544e-01
  2.872307e+01    7.549409e-01
  2.873895e+01    7.563058e-01
  2.875482e+01    7.601367e-01
  2.877070e+01    7.402366e-01
  2.878657e+01    7.553620e-01
  2.880245e+01    7.702219e-01
  2.881832e+01    7.597904e-01
  2.883420e+01    7.690356e-01
  2.885007e+01    7.607396e-01
  2.886595e+01    7.374426e-01
  2.888183e+01    7.491720e-01
  2.889770e+01    7.432402e-01
  2.891358e+01    7.434410e-01
  2.892945e+01    7.547503e-01
  2.894533e+01    7.475860e-01
  2.896120e+01    7.340553e-01
  2.897708e+01    7.382628e-01
  2.899295e+01    7.337983e-01
  2.900883e+01    7.416864e-01
  2.902471e+01    7.422408e-01
  2.904058e+01    7.490247e-01
  2.905646e+01    7.450033e-01
  2.907233e+01    7.463447e-01
  2.908821e+01    7.468926e-01
  2.910408e+01    7.440467e-01
  2.911996e+01    7.376987e-01
  2.913583e+01    7.496698e-01
  2.915171e+01    7.545980e-01
  2.916759e+01    7.589688e-01
  2.918346e+01    7.521720e-01
  2.919934e+01    7.464924e-01
  2.921521e+01    7.378839e-01
  2.923109e+01    7.181688e-01
  2.924696e+01    7.224840e-01
  2.926284e+01    7.232205e-01
  2.927871e+01    7.308368e-01
  2.929459e+01    7.326413e-01
  2.931047e+01    7.420840e-01
  2.932634e+01    7.474384e-01
  2.934222e+01    7.350624e-01
  2.935809e+01    7.462201e-01
  2.937397e+01    7.541163e-01
  2.938984e+01    7.430622e-01
  2.940572e+01    7.492371e-01
  2.942159e+01    7.392575e-01
  2.943747e+01    7.207599e-01
  2.945335e+01    7.366101e-01
  2.946922e+01    7.399707e-01
  2.948510e+01    7.488090e-01
  2.950097e+01    7.183747e-01
  2.951685e+01    7.133863e-01
  2.953272e+01    7.221053e-01
  2.954860e+01    7.460124e-01
  2.956447e+01    7.526587e-01
  2.958035e+01    6.978737e-01
  2.959623e+01    7.144715e-01
  2.961210e+01    7.584038e-01
  2.962798e+01    7.332559e-01
  2.964385e+01    7.308413e-01
  2.965973e+01    7.133887e-01
  2.967560e+01    7.156493e-01
  2.969148e+01    7.272209e-01
  2.970736e+01    7.066912e-01
  2.972323e+01    7.047368e-01
  2.973911e+01    7.023052e-01
  2.975498e+01    7.052522e-01
  2.977086e+01    7.022247e-01
  2.978673e+01    7.111682e-01
  2.980261e+01    7.262635e-01
  2.981848e+01    7.328362e-01
  2.983436e+01    7.377537e-01
  2.985024e+01    7.360750e-01
  2.986611e+01    7.277778e-01
  2.988199e+01    7.152444e-01
  2.989786e+01    7.166916e-01
  2.991374e+01    7.154808e-01
  2.992961e+01    7.196499e-01
  2.994549e+01    7.314287e-01
  2.996136e+01    7.451264e-01
  2.997724e+01    7.523816e-01
  2.999312e+01    7.423629e-01
  3.000899e+01    7.466925e-01
  3.002487e+01    7.282780e-01
  3.004074e+01    7.393755e-01
  3.005662e+01    7.407444e-01
  3.007249e+01    7.335438e-01
  3.008837e+01    7.249984e-01
  3.010424e+01    7.269060e-01
  3.012012e+01    7.328633e-01
  3.013600e+01    7.172225e-01
  3.015187e+01    7.277482e-01
  3.016775e+01    7.083126e-01
  3.018362e+01    7.058984e-01
  3.019950e+01    7.204623e-01
  3.021537e+01    7.180042e-01
  3.023125e+01    7.152565e-01
  3.024712e+01    7.185498e-01
  3.026300e+01    7.247934e-01
  3.027888e+01    7.287033e-01
  3.029475e+01    7.150371e-01
  3.031063e+01    7.115269e-01
  3.032650e+01    7.208616e-01
  3.034238e+01    7.096731e-01
  3.035825e+01    7.153733e-01
  3.037413e+01    7.251924e-01
  3.039000e+01    7.149985e-01
  3.040588e+01    6.997002e-01
  3.042176e+01    6.913848e-01
  3.043763e+01    6.986883e-01
  3.045351e+01    7.246231e-01
  3.046938e+01    7.085069e-01
  3.048526e+01    7.110389e-01
  3.050113e+01    7.097384e-01
  3.051701e+01    7.003690e-01
  3.053288e+01    6.995373e-01
  3.054876e+01    7.066635e-01
  3.056464e+01    7.114706e-01
  3.058051e+01    7.366968e-01
  3.059639e+01    7.227086e-01
  3.061226e+01    7.102158e-01
  3.062814e+01    7.151060e-01
  3.064401e+01    7.273889e-01
  3.065989e+01    7.249480e-01
  3.067577e+01    7.206843e-01
  3.069164e+01    7.147608e-01
  3.070752e+01    7.041202e-01
  3.072339e+01    7.049581e-01
  3.073927e+01    7.154524e-01
  3.075514e+01    7.135287e-01
  3.077102e+01    7.226116e-01
  3.078689e+01    7.239742e-01
  3.080277e+01    7.032434e-01
  3.081865e+01    6.967468e-01
  3.083452e+01    7.253335e-01
  3.085040e+01    7.392151e-01
  3.086627e+01    7.444715e-01
  3.088215e+01    7.129745e-01
  3.089802e+01    7.145212e-01
  3.091390e+01    7.069262e-01
  3.092977e+01    7.061778e-01
  3.094565e+01    7.073832e-01
  3.096153e+01    7.064882e-01
  3.097740e+01    7.342086e-01
  3.099328e+01    7.419297e-01
  3.100915e+01    7.266156e-01
  3.102503e+01    7.109802e-01
  3.104090e+01    7.377347e-01
  3.105678e+01    7.268521e-01
  3.107265e+01    7.064360e-01
  3.108853e+01    7.205245e-01
  3.110441e+01    7.213723e-01
  3.112028e+01    7.219884e-01
  3.113616e+01    7.080702e-01
  3.115203e+01    7.061829e-01
  3.116791e+01    7.309758e-01
  3.118378e+01    7.197251e-01
  3.119966e+01    7.227164e-01
  3.121553e+01    7.352525e-01
  3.123141e+01    7.251855e-01
  3.124729e+01    7.355704e-01
  3.126316e+01    7.460510e-01
  3.127904e+01    7.414684e-01
  3.129491e+01    7.327113e-01
  3.131079e+01    7.218049e-01
  3.132666e+01    7.308304e-01
  3.134254e+01    7.499598e-01
  3.135841e+01    7.414141e-01
  3.137429e+01    7.390856e-01
  3.139017e+01    7.574194e-01
  3.140604e+01    7.680284e-01
  3.142192e+01    7.535654e-01
  3.143779e+01    7.403801e-01
  3.145367e+01    7.631377e-01
  3.146954e+01    7.485878e-01
  3.148542e+01    7.510816e-01
  3.150129e+01    7.658420e-01
  3.151717e+01    7.827656e-01
  3.153305e+01    8.030934e-01
  3.154892e+01    7.755188e-01
  3.156480e+01    7.692342e-01
  3.158067e+01    7.835813e-01
  3.159655e+01    7.944171e-01
  3.161242e+01    8.147743e-01
  3.162830e+01    8.470272e-01
  3.164418e+01    8.646041e-01
  3.166005e+01    8.650280e-01
  3.167593e+01    8.777232e-01
  3.169180e+01    9.104739e-01
  3.170768e+01    9.510235e-01
  3.172355e+01    9.611133e-01
  3.173943e+01    9.989829e-01
  3.175530e+01    1.027016e+00
  3.177118e+01    1.092491e+00
  3.178706e+01    1.181587e+00
  3.180293e+01    1.296607e+00
  3.181881e+01    1.414019e+00
  3.183468e+01    1.541679e+00
  3.185056e+01    1.665738e+00
  3.186643e+01    1.843483e+00
  3.188231e+01    2.000320e+00
  3.189818e+01    2.170825e+00
  3.191406e+01    2.323514e+00
  3.192994e+01    2.412129e+00
  3.194581e+01    2.467157e+00
  3.196169e+01    2.391791e+00
  3.197756e+01    2.233251e+00
  3.199344e+01    2.104130e+00
  3.200931e+01    1.931964e+00
  3.202519e+01    1.759781e+00
  3.204106e+01    1.575588e+00
  3.205694e+01    1.427529e+00
  3.207282e+01    1.287388e+00
  3.208869e+01    1.187338e+00
  3.210457e+01    1.122913e+00
  3.212044e+01    1.068692e+00
  3.213632e+01    1.019993e+00
  3.215219e+01    9.656977e-01
  3.216807e+01    9.236103e-01
  3.218394e+01    9.093324e-01
  3.219982e+01    8.670210e-01
  3.221570e+01    8.604895e-01
  3.223157e+01    8.642469e-01
  3.224745e+01    8.491328e-01
  3.226332e+01    8.137866e-01
  3.227920e+01    7.783207e-01
  3.229507e+01    7.934815e-01
  3.231095e+01    7.811474e-01
  3.232682e+01    7.505981e-01
  3.234270e+01    7.457910e-01
  3.235858e+01    7.451532e-01
  3.237445e+01    7.432830e-01
  3.239033e+01    7.318930e-01
  3.240620e+01    7.339468e-01
  3.242208e+01    7.272880e-01
  3.243795e+01    7.387656e-01
  3.245383e+01    7.331374e-01
  3.246970e+01    7.366121e-01
  3.248558e+01    7.548149e-01
  3.250146e+01    7.209439e-01
  3.251733e+01    7.320647e-01
  3.253321e+01    7.363303e-01
  3.254908e+01    7.418655e-01
