# == pyFAI calibration ==
# Distance Sample to Detector: 0.3999999939076516 m
# PONI: 9.750e-02, 1.135e-01 m
# Rotations: -0.000175 0.000000 -0.000000 rad
# 
# == Fit2d calibration ==
# Distance Sample-beamCenter: 400.000 mm
# Center: x=1514.000, y=1300.000 pix
# Tilt: 0.010 deg  TiltPlanRot: 0.010 deg
# 
# Detector Detector	 Spline= None	 PixelSize= 7.500e-05, 7.500e-05 m
#    Detector has a mask: False 
#    Detector has a dark current: False 
#    detector has a flat field: False 
# 
# Wavelength: 6.888e-11 m
# Mask applied: user provided
# Dark current applied: False
# Flat field applied: False
# Polarization factor: 0.99
# Normalization factor: 1.0
# --> /home/myspot/data/2024_07_Rosario/Ru-CGO-ex/2024-07-27_002_Ru-CGO-ex_Activtation_ramp_000002_data_000161.dat
#       q_nm^-1             I 
  2.003187e-02    0.000000e+00
  3.590745e-02    0.000000e+00
  5.178302e-02    4.781393e-02
  6.765859e-02    7.503502e-02
  8.353417e-02    5.559203e-02
  9.940974e-02    4.690670e-02
  1.152853e-01    7.966437e-02
  1.311609e-01    5.505009e-02
  1.470365e-01    3.447823e-03
  1.629120e-01    2.405646e-02
  1.787876e-01    7.177264e-03
  1.946632e-01    0.000000e+00
  2.105388e-01    9.027494e-03
  2.264143e-01    2.126851e-02
  2.422899e-01    1.553605e-02
  2.581655e-01    2.099277e-02
  2.740411e-01    3.945730e-02
  2.899166e-01    3.451808e-02
  3.057922e-01    6.361239e-02
  3.216678e-01    3.330337e-02
  3.375433e-01    1.364650e-02
  3.534189e-01    3.407949e-02
  3.692945e-01    4.736599e-02
  3.851701e-01    3.831234e-02
  4.010456e-01    4.715175e-02
  4.169212e-01    4.826143e-02
  4.327968e-01    2.330017e-03
  4.486724e-01    1.815480e-02
  4.645479e-01    3.754911e-02
  4.804235e-01    3.938892e-02
  4.962991e-01    5.663805e-02
  5.121747e-01    5.681483e-02
  5.280502e-01    2.885365e-02
  5.439258e-01    1.992726e-02
  5.598014e-01    2.384408e-02
  5.756770e-01    3.687072e-02
  5.915525e-01    4.560027e-02
  6.074281e-01    2.879878e-02
  6.233037e-01    5.376009e-02
  6.391793e-01    5.485339e-02
  6.550548e-01    4.086132e-02
  6.709304e-01    4.186147e-02
  6.868060e-01    3.605521e-02
  7.026815e-01    3.531423e-02
  7.185571e-01    1.834999e-02
  7.344327e-01    2.939755e-02
  7.503083e-01    5.607066e-02
  7.661838e-01    8.366057e-02
  7.820594e-01    1.009568e-01
  7.979350e-01    1.473600e-01
  8.138106e-01    1.991283e-01
  8.296861e-01    2.446932e-01
  8.455617e-01    2.967261e-01
  8.614373e-01    3.844914e-01
  8.773129e-01    3.961635e-01
  8.931884e-01    4.883337e-01
  9.090640e-01    5.615217e-01
  9.249396e-01    6.576793e-01
  9.408152e-01    7.814373e-01
  9.566907e-01    8.854826e-01
  9.725663e-01    9.347606e-01
  9.884419e-01    9.224356e-01
  1.004317e+00    1.108665e+00
  1.020193e+00    1.205870e+00
  1.036069e+00    1.250837e+00
  1.051944e+00    1.317349e+00
  1.067820e+00    1.327769e+00
  1.083695e+00    1.312620e+00
  1.099571e+00    1.387048e+00
  1.115446e+00    1.377738e+00
  1.131322e+00    1.430072e+00
  1.147198e+00    1.367894e+00
  1.163073e+00    1.422344e+00
  1.178949e+00    1.497420e+00
  1.194824e+00    1.615433e+00
  1.210700e+00    1.957704e+00
  1.226575e+00    2.174074e+00
  1.242451e+00    2.136252e+00
  1.258327e+00    2.367696e+00
  1.274202e+00    2.404929e+00
  1.290078e+00    2.304774e+00
  1.305953e+00    2.480584e+00
  1.321829e+00    2.494485e+00
  1.337705e+00    2.466261e+00
  1.353580e+00    2.421964e+00
  1.369456e+00    2.471091e+00
  1.385331e+00    2.680384e+00
  1.401207e+00    2.657209e+00
  1.417082e+00    2.639489e+00
  1.432958e+00    2.602381e+00
  1.448834e+00    2.705312e+00
  1.464709e+00    2.874584e+00
  1.480585e+00    2.820682e+00
  1.496460e+00    2.764553e+00
  1.512336e+00    2.917049e+00
  1.528211e+00    2.953005e+00
  1.544087e+00    3.052941e+00
  1.559963e+00    2.826027e+00
  1.575838e+00    2.766576e+00
  1.591714e+00    2.752960e+00
  1.607589e+00    2.789787e+00
  1.623465e+00    2.855479e+00
  1.639340e+00    2.776797e+00
  1.655216e+00    2.903590e+00
  1.671092e+00    2.887804e+00
  1.686967e+00    2.736654e+00
  1.702843e+00    2.755916e+00
  1.718718e+00    2.878890e+00
  1.734594e+00    2.840048e+00
  1.750469e+00    2.789988e+00
  1.766345e+00    2.724021e+00
  1.782221e+00    2.553132e+00
  1.798096e+00    2.573290e+00
  1.813972e+00    2.669192e+00
  1.829847e+00    2.697980e+00
  1.845723e+00    2.722813e+00
  1.861598e+00    2.737630e+00
  1.877474e+00    2.727383e+00
  1.893350e+00    2.736902e+00
  1.909225e+00    2.669230e+00
  1.925101e+00    2.718327e+00
  1.940976e+00    2.855987e+00
  1.956852e+00    2.835330e+00
  1.972727e+00    2.785756e+00
  1.988603e+00    2.660752e+00
  2.004479e+00    2.670799e+00
  2.020354e+00    2.622058e+00
  2.036230e+00    2.669003e+00
  2.052105e+00    2.746829e+00
  2.067981e+00    2.756089e+00
  2.083856e+00    2.694529e+00
  2.099732e+00    2.649989e+00
  2.115608e+00    2.702048e+00
  2.131483e+00    2.803103e+00
  2.147359e+00    2.847596e+00
  2.163234e+00    2.785917e+00
  2.179110e+00    2.673748e+00
  2.194985e+00    2.681999e+00
  2.210861e+00    2.766350e+00
  2.226737e+00    2.800747e+00
  2.242612e+00    2.729861e+00
  2.258488e+00    2.722200e+00
  2.274363e+00    2.741258e+00
  2.290239e+00    2.833330e+00
  2.306115e+00    2.789456e+00
  2.321990e+00    2.728625e+00
  2.337866e+00    2.765160e+00
  2.353741e+00    2.691341e+00
  2.369617e+00    2.790861e+00
  2.385492e+00    2.808139e+00
  2.401368e+00    2.760279e+00
  2.417244e+00    2.744044e+00
  2.433119e+00    2.727747e+00
  2.448995e+00    2.789726e+00
  2.464870e+00    2.724740e+00
  2.480746e+00    2.815224e+00
  2.496621e+00    2.689925e+00
  2.512497e+00    2.679724e+00
  2.528373e+00    2.742492e+00
  2.544248e+00    2.791971e+00
  2.560124e+00    2.742377e+00
  2.575999e+00    2.752464e+00
  2.591875e+00    2.796259e+00
  2.607750e+00    2.821331e+00
  2.623626e+00    2.873548e+00
  2.639502e+00    2.842489e+00
  2.655377e+00    2.800587e+00
  2.671253e+00    2.802843e+00
  2.687128e+00    2.808738e+00
  2.703004e+00    2.795908e+00
  2.718879e+00    2.810002e+00
  2.734755e+00    2.807050e+00
  2.750631e+00    2.740988e+00
  2.766506e+00    2.822781e+00
  2.782382e+00    2.749822e+00
  2.798257e+00    2.822574e+00
  2.814133e+00    2.849571e+00
  2.830008e+00    2.760073e+00
  2.845884e+00    2.828155e+00
  2.861760e+00    2.844124e+00
  2.877635e+00    2.833516e+00
  2.893511e+00    2.849430e+00
  2.909386e+00    2.812067e+00
  2.925262e+00    2.802137e+00
  2.941137e+00    2.848175e+00
  2.957013e+00    2.843338e+00
  2.972889e+00    2.890657e+00
  2.988764e+00    2.912471e+00
  3.004640e+00    2.847199e+00
  3.020515e+00    2.879087e+00
  3.036391e+00    2.905671e+00
  3.052266e+00    2.817963e+00
  3.068142e+00    2.831697e+00
  3.084018e+00    2.939698e+00
  3.099893e+00    2.875721e+00
  3.115769e+00    2.775524e+00
  3.131644e+00    2.828014e+00
  3.147520e+00    2.925664e+00
  3.163395e+00    2.889871e+00
  3.179271e+00    2.865587e+00
  3.195147e+00    2.961257e+00
  3.211022e+00    2.958684e+00
  3.226898e+00    2.915105e+00
  3.242773e+00    2.877067e+00
  3.258649e+00    2.952893e+00
  3.274525e+00    2.930707e+00
  3.290400e+00    2.900577e+00
  3.306276e+00    2.938172e+00
  3.322151e+00    2.990247e+00
  3.338027e+00    2.969014e+00
  3.353902e+00    2.990477e+00
  3.369778e+00    2.963976e+00
  3.385654e+00    3.001092e+00
  3.401529e+00    2.956218e+00
  3.417405e+00    2.832843e+00
  3.433280e+00    2.864909e+00
  3.449156e+00    2.987585e+00
  3.465031e+00    3.086628e+00
  3.480907e+00    2.989742e+00
  3.496783e+00    2.877209e+00
  3.512658e+00    3.038172e+00
  3.528534e+00    2.950324e+00
  3.544409e+00    2.960458e+00
  3.560285e+00    2.980901e+00
  3.576160e+00    2.963771e+00
  3.592036e+00    3.034789e+00
  3.607912e+00    3.019290e+00
  3.623787e+00    2.921382e+00
  3.639663e+00    2.992377e+00
  3.655538e+00    2.965388e+00
  3.671414e+00    2.996041e+00
  3.687289e+00    3.069315e+00
  3.703165e+00    3.103405e+00
  3.719041e+00    3.045870e+00
  3.734916e+00    3.032200e+00
  3.750792e+00    3.049965e+00
  3.766667e+00    2.930702e+00
  3.782543e+00    2.915756e+00
  3.798418e+00    2.919684e+00
  3.814294e+00    3.007082e+00
  3.830170e+00    3.091288e+00
  3.846045e+00    3.069070e+00
  3.861921e+00    2.932153e+00
  3.877796e+00    2.968513e+00
  3.893672e+00    3.050041e+00
  3.909547e+00    3.062917e+00
  3.925423e+00    3.021583e+00
  3.941299e+00    3.103777e+00
  3.957174e+00    3.085766e+00
  3.973050e+00    3.078953e+00
  3.988925e+00    3.120824e+00
  4.004801e+00    3.048897e+00
  4.020676e+00    3.030984e+00
  4.036552e+00    3.096022e+00
  4.052428e+00    3.066509e+00
  4.068303e+00    2.998573e+00
  4.084179e+00    3.035542e+00
  4.100054e+00    3.032867e+00
  4.115930e+00    3.089343e+00
  4.131806e+00    3.054171e+00
  4.147681e+00    3.059855e+00
  4.163557e+00    3.042209e+00
  4.179432e+00    3.068091e+00
  4.195308e+00    3.142639e+00
  4.211183e+00    3.131917e+00
  4.227059e+00    3.061431e+00
  4.242935e+00    3.065188e+00
  4.258810e+00    3.098540e+00
  4.274686e+00    3.048769e+00
  4.290561e+00    3.029592e+00
  4.306437e+00    3.121879e+00
  4.322312e+00    3.118300e+00
  4.338188e+00    3.028683e+00
  4.354064e+00    3.031619e+00
  4.369939e+00    3.089203e+00
  4.385815e+00    3.074235e+00
  4.401690e+00    3.134618e+00
  4.417566e+00    3.089136e+00
  4.433441e+00    3.113017e+00
  4.449317e+00    3.064604e+00
  4.465193e+00    3.033109e+00
  4.481068e+00    3.058205e+00
  4.496944e+00    3.166860e+00
  4.512819e+00    3.171475e+00
  4.528695e+00    3.094600e+00
  4.544570e+00    3.116793e+00
  4.560446e+00    3.134611e+00
  4.576322e+00    3.077140e+00
  4.592197e+00    3.125621e+00
  4.608073e+00    3.077857e+00
  4.623948e+00    3.172049e+00
  4.639824e+00    3.101840e+00
  4.655699e+00    3.085113e+00
  4.671575e+00    3.095794e+00
  4.687451e+00    3.092033e+00
  4.703326e+00    3.121678e+00
  4.719202e+00    3.129509e+00
  4.735077e+00    3.103124e+00
  4.750953e+00    3.148163e+00
  4.766828e+00    3.153364e+00
  4.782704e+00    3.165945e+00
  4.798580e+00    3.117041e+00
  4.814455e+00    3.064019e+00
  4.830331e+00    3.094659e+00
  4.846206e+00    3.080211e+00
  4.862082e+00    3.064498e+00
  4.877957e+00    3.043196e+00
  4.893833e+00    3.129580e+00
  4.909709e+00    3.172228e+00
  4.925584e+00    3.117412e+00
  4.941460e+00    3.111908e+00
  4.957335e+00    3.179792e+00
  4.973211e+00    3.185161e+00
  4.989086e+00    3.148397e+00
  5.004962e+00    3.110378e+00
  5.020838e+00    3.168612e+00
  5.036713e+00    3.173090e+00
  5.052589e+00    3.180279e+00
  5.068464e+00    3.123054e+00
  5.084340e+00    3.079077e+00
  5.100216e+00    3.117091e+00
  5.116091e+00    3.137117e+00
  5.131967e+00    3.151667e+00
  5.147842e+00    3.107413e+00
  5.163718e+00    3.122531e+00
  5.179593e+00    3.116311e+00
  5.195469e+00    3.190066e+00
  5.211345e+00    3.205954e+00
  5.227220e+00    3.116358e+00
  5.243096e+00    3.041531e+00
  5.258971e+00    3.145741e+00
  5.274847e+00    3.142563e+00
  5.290722e+00    3.113507e+00
  5.306598e+00    3.150229e+00
  5.322474e+00    3.147981e+00
  5.338349e+00    3.171131e+00
  5.354225e+00    3.172518e+00
  5.370100e+00    3.160623e+00
  5.385976e+00    3.136032e+00
  5.401851e+00    3.076521e+00
  5.417727e+00    3.065453e+00
  5.433603e+00    3.162141e+00
  5.449478e+00    3.133053e+00
  5.465354e+00    3.091500e+00
  5.481229e+00    3.117363e+00
  5.497105e+00    3.153826e+00
  5.512980e+00    3.131745e+00
  5.528856e+00    3.091939e+00
  5.544732e+00    3.089472e+00
  5.560607e+00    2.994951e+00
  5.576483e+00    2.966202e+00
  5.592358e+00    3.017094e+00
  5.608234e+00    3.059004e+00
  5.624109e+00    3.082234e+00
  5.639985e+00    3.077541e+00
  5.655861e+00    3.054006e+00
  5.671736e+00    3.130197e+00
  5.687612e+00    3.103001e+00
  5.703487e+00    3.070123e+00
  5.719363e+00    3.046633e+00
  5.735238e+00    3.042983e+00
  5.751114e+00    3.058275e+00
  5.766990e+00    3.070814e+00
  5.782865e+00    3.083390e+00
  5.798741e+00    3.164711e+00
  5.814616e+00    3.131077e+00
  5.830492e+00    3.017787e+00
  5.846367e+00    3.039316e+00
  5.862243e+00    2.983778e+00
  5.878119e+00    3.071046e+00
  5.893994e+00    3.081491e+00
  5.909870e+00    3.112590e+00
  5.925745e+00    3.082612e+00
  5.941621e+00    3.046555e+00
  5.957497e+00    3.038949e+00
  5.973372e+00    3.037186e+00
  5.989248e+00    3.059926e+00
  6.005123e+00    2.986606e+00
  6.020999e+00    3.047907e+00
  6.036874e+00    3.024213e+00
  6.052750e+00    3.012891e+00
  6.068626e+00    3.032368e+00
  6.084501e+00    3.080306e+00
  6.100377e+00    3.153343e+00
  6.116252e+00    3.181939e+00
  6.132128e+00    3.143940e+00
  6.148003e+00    3.056892e+00
  6.163879e+00    3.054123e+00
  6.179755e+00    3.055591e+00
  6.195630e+00    3.047480e+00
  6.211506e+00    3.108645e+00
  6.227381e+00    3.101374e+00
  6.243257e+00    3.089690e+00
  6.259132e+00    3.098765e+00
  6.275008e+00    3.082133e+00
  6.290884e+00    3.059928e+00
  6.306759e+00    3.138695e+00
  6.322635e+00    3.130174e+00
  6.338510e+00    3.052265e+00
  6.354386e+00    3.050260e+00
  6.370261e+00    3.043359e+00
  6.386137e+00    3.122529e+00
  6.402013e+00    3.048220e+00
  6.417888e+00    2.961829e+00
  6.433764e+00    2.991113e+00
  6.449639e+00    3.099414e+00
  6.465515e+00    3.076569e+00
  6.481390e+00    3.057767e+00
  6.497266e+00    3.083762e+00
  6.513142e+00    3.056372e+00
  6.529017e+00    3.097641e+00
  6.544893e+00    3.094431e+00
  6.560768e+00    3.078662e+00
  6.576644e+00    3.074876e+00
  6.592519e+00    3.032072e+00
  6.608395e+00    3.053230e+00
  6.624271e+00    3.075347e+00
  6.640146e+00    3.054656e+00
  6.656022e+00    3.025294e+00
  6.671897e+00    3.089121e+00
  6.687773e+00    3.053676e+00
  6.703648e+00    3.069414e+00
  6.719524e+00    3.087377e+00
  6.735400e+00    3.005821e+00
  6.751275e+00    3.014679e+00
  6.767151e+00    2.999868e+00
  6.783026e+00    2.958484e+00
  6.798902e+00    2.909429e+00
  6.814777e+00    3.009666e+00
  6.830653e+00    3.064959e+00
  6.846529e+00    3.084117e+00
  6.862404e+00    2.986354e+00
  6.878280e+00    2.963662e+00
  6.894155e+00    3.001660e+00
  6.910031e+00    3.034609e+00
  6.925907e+00    3.014505e+00
  6.941782e+00    2.995066e+00
  6.957658e+00    3.061120e+00
  6.973533e+00    3.011235e+00
  6.989409e+00    2.957699e+00
  7.005284e+00    3.022480e+00
  7.021160e+00    3.055715e+00
  7.037036e+00    3.051593e+00
  7.052911e+00    2.953191e+00
  7.068787e+00    2.938669e+00
  7.084662e+00    3.005677e+00
  7.100538e+00    3.016327e+00
  7.116413e+00    3.073833e+00
  7.132289e+00    3.017130e+00
  7.148165e+00    2.977322e+00
  7.164040e+00    2.992547e+00
  7.179916e+00    3.050648e+00
  7.195791e+00    3.041815e+00
  7.211667e+00    2.990695e+00
  7.227542e+00    3.002183e+00
  7.243418e+00    3.038107e+00
  7.259294e+00    3.038553e+00
  7.275169e+00    2.974036e+00
  7.291045e+00    2.995057e+00
  7.306920e+00    3.029342e+00
  7.322796e+00    3.009706e+00
  7.338671e+00    3.020373e+00
  7.354547e+00    3.024290e+00
  7.370423e+00    2.982428e+00
  7.386298e+00    2.973856e+00
  7.402174e+00    2.999310e+00
  7.418049e+00    3.060728e+00
  7.433925e+00    3.100130e+00
  7.449800e+00    3.015842e+00
  7.465676e+00    3.043832e+00
  7.481552e+00    2.992147e+00
  7.497427e+00    2.971900e+00
  7.513303e+00    3.043338e+00
  7.529178e+00    3.014130e+00
  7.545054e+00    2.955938e+00
  7.560929e+00    3.002245e+00
  7.576805e+00    3.007014e+00
  7.592681e+00    3.004466e+00
  7.608556e+00    2.976600e+00
  7.624432e+00    3.017036e+00
  7.640307e+00    3.023527e+00
  7.656183e+00    3.018233e+00
  7.672058e+00    2.982194e+00
  7.687934e+00    3.021701e+00
  7.703810e+00    2.993947e+00
  7.719685e+00    2.923581e+00
  7.735561e+00    2.930889e+00
  7.751436e+00    2.973888e+00
  7.767312e+00    2.953751e+00
  7.783187e+00    2.952166e+00
  7.799063e+00    2.951175e+00
  7.814939e+00    2.975038e+00
  7.830814e+00    3.024546e+00
  7.846690e+00    3.025549e+00
  7.862565e+00    2.957731e+00
  7.878441e+00    2.943430e+00
  7.894317e+00    2.921776e+00
  7.910192e+00    2.910479e+00
  7.926068e+00    2.971668e+00
  7.941943e+00    2.918044e+00
  7.957819e+00    2.906328e+00
  7.973694e+00    2.886549e+00
  7.989570e+00    2.896171e+00
  8.005446e+00    2.968694e+00
  8.021321e+00    2.927192e+00
  8.037197e+00    2.961546e+00
  8.053072e+00    2.978035e+00
  8.068948e+00    2.972194e+00
  8.084823e+00    3.005278e+00
  8.100699e+00    3.015041e+00
  8.116575e+00    2.961815e+00
  8.132450e+00    3.027845e+00
  8.148326e+00    2.992582e+00
  8.164201e+00    2.938373e+00
  8.180077e+00    2.909709e+00
  8.195952e+00    2.918952e+00
  8.211828e+00    2.985140e+00
  8.227704e+00    2.958747e+00
  8.243579e+00    2.915090e+00
  8.259455e+00    2.936339e+00
  8.275330e+00    2.923843e+00
  8.291206e+00    2.909841e+00
  8.307081e+00    2.930485e+00
  8.322957e+00    2.924644e+00
  8.338833e+00    2.886111e+00
  8.354708e+00    2.879995e+00
  8.370584e+00    2.934617e+00
  8.386459e+00    2.928362e+00
  8.402335e+00    2.952452e+00
  8.418210e+00    2.951108e+00
  8.434086e+00    2.859608e+00
  8.449962e+00    2.827468e+00
  8.465837e+00    2.854073e+00
  8.481713e+00    2.930505e+00
  8.497588e+00    2.844523e+00
  8.513464e+00    2.831701e+00
  8.529339e+00    2.848965e+00
  8.545215e+00    2.901808e+00
  8.561091e+00    2.899130e+00
  8.576966e+00    2.857983e+00
  8.592842e+00    2.878201e+00
  8.608717e+00    2.912902e+00
  8.624593e+00    2.877141e+00
  8.640468e+00    2.839628e+00
  8.656344e+00    2.876659e+00
  8.672220e+00    2.864614e+00
  8.688095e+00    2.919358e+00
  8.703971e+00    2.866524e+00
  8.719846e+00    2.878300e+00
  8.735722e+00    2.871670e+00
  8.751598e+00    2.855140e+00
  8.767473e+00    2.897299e+00
  8.783349e+00    2.890838e+00
  8.799224e+00    2.898890e+00
  8.815100e+00    2.922365e+00
  8.830975e+00    2.887506e+00
  8.846851e+00    2.828202e+00
  8.862727e+00    2.839287e+00
  8.878602e+00    2.868623e+00
  8.894478e+00    2.882782e+00
  8.910353e+00    2.877382e+00
  8.926229e+00    2.865473e+00
  8.942104e+00    2.821535e+00
  8.957980e+00    2.837817e+00
  8.973856e+00    2.849864e+00
  8.989731e+00    2.869949e+00
  9.005607e+00    2.876626e+00
  9.021482e+00    2.845483e+00
  9.037358e+00    2.827895e+00
  9.053233e+00    2.810111e+00
  9.069109e+00    2.786474e+00
  9.084985e+00    2.854668e+00
  9.100860e+00    2.832205e+00
  9.116736e+00    2.801726e+00
  9.132611e+00    2.791340e+00
  9.148487e+00    2.824474e+00
  9.164362e+00    2.824184e+00
  9.180238e+00    2.799877e+00
  9.196114e+00    2.829751e+00
  9.211989e+00    2.740059e+00
  9.227865e+00    2.801165e+00
  9.243740e+00    2.791380e+00
  9.259616e+00    2.790105e+00
  9.275491e+00    2.825020e+00
  9.291367e+00    2.843904e+00
  9.307243e+00    2.835816e+00
  9.323118e+00    2.807950e+00
  9.338994e+00    2.822528e+00
  9.354869e+00    2.842434e+00
  9.370745e+00    2.756268e+00
  9.386620e+00    2.795211e+00
  9.402496e+00    2.781003e+00
  9.418372e+00    2.789037e+00
  9.434247e+00    2.819290e+00
  9.450123e+00    2.732189e+00
  9.465998e+00    2.747870e+00
  9.481874e+00    2.796415e+00
  9.497749e+00    2.775499e+00
  9.513625e+00    2.712048e+00
  9.529501e+00    2.795184e+00
  9.545376e+00    2.774761e+00
  9.561252e+00    2.828094e+00
  9.577127e+00    2.855623e+00
  9.593003e+00    2.834834e+00
  9.608878e+00    2.803792e+00
  9.624754e+00    2.767352e+00
  9.640630e+00    2.753005e+00
  9.656505e+00    2.759393e+00
  9.672381e+00    2.767096e+00
  9.688256e+00    2.777757e+00
  9.704132e+00    2.764296e+00
  9.720008e+00    2.692515e+00
  9.735883e+00    2.713494e+00
  9.751759e+00    2.670657e+00
  9.767634e+00    2.626316e+00
  9.783510e+00    2.746802e+00
  9.799385e+00    2.754009e+00
  9.815261e+00    2.719660e+00
  9.831137e+00    2.687802e+00
  9.847012e+00    2.721801e+00
  9.862888e+00    2.739317e+00
  9.878763e+00    2.709975e+00
  9.894639e+00    2.686124e+00
  9.910514e+00    2.689638e+00
  9.926390e+00    2.646437e+00
  9.942266e+00    2.698752e+00
  9.958141e+00    2.730664e+00
  9.974017e+00    2.703852e+00
  9.989892e+00    2.751123e+00
  1.000577e+01    2.674841e+00
  1.002164e+01    2.653158e+00
  1.003752e+01    2.661286e+00
  1.005339e+01    2.689197e+00
  1.006927e+01    2.695260e+00
  1.008515e+01    2.682626e+00
  1.010102e+01    2.701770e+00
  1.011690e+01    2.685470e+00
  1.013277e+01    2.659090e+00
  1.014865e+01    2.676740e+00
  1.016452e+01    2.671561e+00
  1.018040e+01    2.719530e+00
  1.019627e+01    2.677962e+00
  1.021215e+01    2.625624e+00
  1.022803e+01    2.628844e+00
  1.024390e+01    2.648828e+00
  1.025978e+01    2.620865e+00
  1.027565e+01    2.595926e+00
  1.029153e+01    2.616270e+00
  1.030740e+01    2.667313e+00
  1.032328e+01    2.601038e+00
  1.033915e+01    2.572473e+00
  1.035503e+01    2.569660e+00
  1.037091e+01    2.551468e+00
  1.038678e+01    2.537956e+00
  1.040266e+01    2.581656e+00
  1.041853e+01    2.599388e+00
  1.043441e+01    2.621403e+00
  1.045028e+01    2.594188e+00
  1.046616e+01    2.621941e+00
  1.048204e+01    2.636934e+00
  1.049791e+01    2.653806e+00
  1.051379e+01    2.631510e+00
  1.052966e+01    2.615617e+00
  1.054554e+01    2.578042e+00
  1.056141e+01    2.566034e+00
  1.057729e+01    2.591485e+00
  1.059316e+01    2.556946e+00
  1.060904e+01    2.519078e+00
  1.062492e+01    2.580403e+00
  1.064079e+01    2.561807e+00
  1.065667e+01    2.602193e+00
  1.067254e+01    2.550042e+00
  1.068842e+01    2.505782e+00
  1.070429e+01    2.590846e+00
  1.072017e+01    2.554373e+00
  1.073604e+01    2.533279e+00
  1.075192e+01    2.552874e+00
  1.076780e+01    2.546599e+00
  1.078367e+01    2.547161e+00
  1.079955e+01    2.541803e+00
  1.081542e+01    2.572649e+00
  1.083130e+01    2.525892e+00
  1.084717e+01    2.510943e+00
  1.086305e+01    2.537313e+00
  1.087892e+01    2.496948e+00
  1.089480e+01    2.543602e+00
  1.091068e+01    2.528117e+00
  1.092655e+01    2.524713e+00
  1.094243e+01    2.489371e+00
  1.095830e+01    2.566534e+00
  1.097418e+01    2.572578e+00
  1.099005e+01    2.503006e+00
  1.100593e+01    2.531462e+00
  1.102180e+01    2.524757e+00
  1.103768e+01    2.515173e+00
  1.105356e+01    2.502717e+00
  1.106943e+01    2.505808e+00
  1.108531e+01    2.488936e+00
  1.110118e+01    2.462636e+00
  1.111706e+01    2.468545e+00
  1.113293e+01    2.502904e+00
  1.114881e+01    2.483935e+00
  1.116468e+01    2.468294e+00
  1.118056e+01    2.431879e+00
  1.119644e+01    2.461257e+00
  1.121231e+01    2.476657e+00
  1.122819e+01    2.454384e+00
  1.124406e+01    2.519226e+00
  1.125994e+01    2.460449e+00
  1.127581e+01    2.435585e+00
  1.129169e+01    2.478174e+00
  1.130756e+01    2.487030e+00
  1.132344e+01    2.468042e+00
  1.133932e+01    2.453243e+00
  1.135519e+01    2.431744e+00
  1.137107e+01    2.436311e+00
  1.138694e+01    2.424787e+00
  1.140282e+01    2.397791e+00
  1.141869e+01    2.382053e+00
  1.143457e+01    2.360434e+00
  1.145045e+01    2.384319e+00
  1.146632e+01    2.447640e+00
  1.148220e+01    2.407200e+00
  1.149807e+01    2.398960e+00
  1.151395e+01    2.458483e+00
  1.152982e+01    2.421623e+00
  1.154570e+01    2.419710e+00
  1.156157e+01    2.393791e+00
  1.157745e+01    2.411894e+00
  1.159333e+01    2.433942e+00
  1.160920e+01    2.440816e+00
  1.162508e+01    2.434798e+00
  1.164095e+01    2.385171e+00
  1.165683e+01    2.334581e+00
  1.167270e+01    2.395414e+00
  1.168858e+01    2.409155e+00
  1.170445e+01    2.359381e+00
  1.172033e+01    2.364240e+00
  1.173621e+01    2.356343e+00
  1.175208e+01    2.376973e+00
  1.176796e+01    2.361604e+00
  1.178383e+01    2.358135e+00
  1.179971e+01    2.375544e+00
  1.181558e+01    2.409509e+00
  1.183146e+01    2.385170e+00
  1.184733e+01    2.320075e+00
  1.186321e+01    2.352715e+00
  1.187909e+01    2.370130e+00
  1.189496e+01    2.400663e+00
  1.191084e+01    2.365343e+00
  1.192671e+01    2.329193e+00
  1.194259e+01    2.343783e+00
  1.195846e+01    2.318718e+00
  1.197434e+01    2.339384e+00
  1.199021e+01    2.332153e+00
  1.200609e+01    2.313209e+00
  1.202197e+01    2.316423e+00
  1.203784e+01    2.321540e+00
  1.205372e+01    2.336631e+00
  1.206959e+01    2.348166e+00
  1.208547e+01    2.356679e+00
  1.210134e+01    2.342557e+00
  1.211722e+01    2.275134e+00
  1.213309e+01    2.305406e+00
  1.214897e+01    2.342134e+00
  1.216485e+01    2.335876e+00
  1.218072e+01    2.357630e+00
  1.219660e+01    2.356304e+00
  1.221247e+01    2.361923e+00
  1.222835e+01    2.338264e+00
  1.224422e+01    2.319844e+00
  1.226010e+01    2.335500e+00
  1.227597e+01    2.313942e+00
  1.229185e+01    2.316998e+00
  1.230773e+01    2.336534e+00
  1.232360e+01    2.356600e+00
  1.233948e+01    2.360464e+00
  1.235535e+01    2.340566e+00
  1.237123e+01    2.355212e+00
  1.238710e+01    2.338047e+00
  1.240298e+01    2.310570e+00
  1.241886e+01    2.275552e+00
  1.243473e+01    2.358707e+00
  1.245061e+01    2.367733e+00
  1.246648e+01    2.324460e+00
  1.248236e+01    2.330299e+00
  1.249823e+01    2.337606e+00
  1.251411e+01    2.354441e+00
  1.252998e+01    2.390317e+00
  1.254586e+01    2.367949e+00
  1.256174e+01    2.405905e+00
  1.257761e+01    2.429110e+00
  1.259349e+01    2.392111e+00
  1.260936e+01    2.392636e+00
  1.262524e+01    2.400470e+00
  1.264111e+01    2.403818e+00
  1.265699e+01    2.458566e+00
  1.267286e+01    2.489020e+00
  1.268874e+01    2.479666e+00
  1.270462e+01    2.509832e+00
  1.272049e+01    2.501028e+00
  1.273637e+01    2.494605e+00
  1.275224e+01    2.546433e+00
  1.276812e+01    2.575973e+00
  1.278399e+01    2.646380e+00
  1.279987e+01    2.681510e+00
  1.281574e+01    2.683496e+00
  1.283162e+01    2.756090e+00
  1.284750e+01    2.853232e+00
  1.286337e+01    2.902373e+00
  1.287925e+01    3.001612e+00
  1.289512e+01    3.086852e+00
  1.291100e+01    3.296283e+00
  1.292687e+01    3.523177e+00
  1.294275e+01    3.706782e+00
  1.295862e+01    4.037073e+00
  1.297450e+01    4.445529e+00
  1.299038e+01    4.912696e+00
  1.300625e+01    5.533369e+00
  1.302213e+01    6.263950e+00
  1.303800e+01    7.224298e+00
  1.305388e+01    8.317486e+00
  1.306975e+01    9.579890e+00
  1.308563e+01    1.097873e+01
  1.310150e+01    1.218747e+01
  1.311738e+01    1.324114e+01
  1.313326e+01    1.439024e+01
  1.314913e+01    1.535594e+01
  1.316501e+01    1.610608e+01
  1.318088e+01    1.642111e+01
  1.319676e+01    1.577007e+01
  1.321263e+01    1.448065e+01
  1.322851e+01    1.271891e+01
  1.324438e+01    1.083025e+01
  1.326026e+01    9.187002e+00
  1.327614e+01    7.692212e+00
  1.329201e+01    6.531495e+00
  1.330789e+01    5.761246e+00
  1.332376e+01    5.165753e+00
  1.333964e+01    4.637746e+00
  1.335551e+01    4.197220e+00
  1.337139e+01    3.908022e+00
  1.338727e+01    3.604477e+00
  1.340314e+01    3.371361e+00
  1.341902e+01    3.160174e+00
  1.343489e+01    3.059546e+00
  1.345077e+01    2.932054e+00
  1.346664e+01    2.845755e+00
  1.348252e+01    2.735442e+00
  1.349839e+01    2.632168e+00
  1.351427e+01    2.603395e+00
  1.353015e+01    2.528508e+00
  1.354602e+01    2.494758e+00
  1.356190e+01    2.447355e+00
  1.357777e+01    2.397131e+00
  1.359365e+01    2.386966e+00
  1.360952e+01    2.370531e+00
  1.362540e+01    2.328020e+00
  1.364127e+01    2.293899e+00
  1.365715e+01    2.288707e+00
  1.367303e+01    2.278981e+00
  1.368890e+01    2.268738e+00
  1.370478e+01    2.255466e+00
  1.372065e+01    2.220449e+00
  1.373653e+01    2.212053e+00
  1.375240e+01    2.217950e+00
  1.376828e+01    2.175653e+00
  1.378415e+01    2.166692e+00
  1.380003e+01    2.139287e+00
  1.381591e+01    2.100621e+00
  1.383178e+01    2.093843e+00
  1.384766e+01    2.091681e+00
  1.386353e+01    2.145006e+00
  1.387941e+01    2.139207e+00
  1.389528e+01    2.110229e+00
  1.391116e+01    2.087429e+00
  1.392703e+01    2.122846e+00
  1.394291e+01    2.103350e+00
  1.395879e+01    2.063265e+00
  1.397466e+01    2.062971e+00
  1.399054e+01    2.064580e+00
  1.400641e+01    2.073206e+00
  1.402229e+01    2.065804e+00
  1.403816e+01    2.059398e+00
  1.405404e+01    2.060477e+00
  1.406991e+01    2.042994e+00
  1.408579e+01    2.023873e+00
  1.410167e+01    2.021140e+00
  1.411754e+01    2.016200e+00
  1.413342e+01    1.991441e+00
  1.414929e+01    2.000314e+00
  1.416517e+01    2.017055e+00
  1.418104e+01    1.981066e+00
  1.419692e+01    2.020239e+00
  1.421279e+01    1.993381e+00
  1.422867e+01    1.949717e+00
  1.424455e+01    1.948652e+00
  1.426042e+01    1.985556e+00
  1.427630e+01    1.976804e+00
  1.429217e+01    1.946847e+00
  1.430805e+01    1.953231e+00
  1.432392e+01    1.998877e+00
  1.433980e+01    2.008327e+00
  1.435568e+01    1.952619e+00
  1.437155e+01    1.961595e+00
  1.438743e+01    1.928996e+00
  1.440330e+01    1.930993e+00
  1.441918e+01    1.916774e+00
  1.443505e+01    1.939487e+00
  1.445093e+01    1.921849e+00
  1.446680e+01    1.917871e+00
  1.448268e+01    1.935037e+00
  1.449856e+01    1.982388e+00
  1.451443e+01    1.954062e+00
  1.453031e+01    1.942354e+00
  1.454618e+01    1.930614e+00
  1.456206e+01    1.935799e+00
  1.457793e+01    1.920660e+00
  1.459381e+01    1.951789e+00
  1.460968e+01    1.968371e+00
  1.462556e+01    1.920569e+00
  1.464144e+01    1.951157e+00
  1.465731e+01    1.939362e+00
  1.467319e+01    1.899909e+00
  1.468906e+01    1.863557e+00
  1.470494e+01    1.909609e+00
  1.472081e+01    1.882780e+00
  1.473669e+01    1.898798e+00
  1.475256e+01    1.917555e+00
  1.476844e+01    1.954574e+00
  1.478432e+01    1.937393e+00
  1.480019e+01    1.942518e+00
  1.481607e+01    1.951502e+00
  1.483194e+01    1.929313e+00
  1.484782e+01    1.973853e+00
  1.486369e+01    1.963495e+00
  1.487957e+01    1.947399e+00
  1.489544e+01    2.005119e+00
  1.491132e+01    1.938977e+00
  1.492720e+01    1.970279e+00
  1.494307e+01    1.996467e+00
  1.495895e+01    2.017321e+00
  1.497482e+01    2.080251e+00
  1.499070e+01    2.163534e+00
  1.500657e+01    2.237150e+00
  1.502245e+01    2.236585e+00
  1.503832e+01    2.283022e+00
  1.505420e+01    2.437073e+00
  1.507008e+01    2.596474e+00
  1.508595e+01    2.734642e+00
  1.510183e+01    2.942423e+00
  1.511770e+01    3.161052e+00
  1.513358e+01    3.433605e+00
  1.514945e+01    3.815909e+00
  1.516533e+01    4.206996e+00
  1.518120e+01    4.541238e+00
  1.519708e+01    4.830387e+00
  1.521296e+01    5.063896e+00
  1.522883e+01    5.393782e+00
  1.524471e+01    5.633810e+00
  1.526058e+01    5.681114e+00
  1.527646e+01    5.589116e+00
  1.529233e+01    5.350080e+00
  1.530821e+01    5.053380e+00
  1.532409e+01    4.566231e+00
  1.533996e+01    4.011492e+00
  1.535584e+01    3.569154e+00
  1.537171e+01    3.247067e+00
  1.538759e+01    2.929298e+00
  1.540346e+01    2.699231e+00
  1.541934e+01    2.507418e+00
  1.543521e+01    2.373544e+00
  1.545109e+01    2.262678e+00
  1.546697e+01    2.176102e+00
  1.548284e+01    2.163026e+00
  1.549872e+01    2.066138e+00
  1.551459e+01    2.013281e+00
  1.553047e+01    1.961045e+00
  1.554634e+01    1.895147e+00
  1.556222e+01    1.880562e+00
  1.557809e+01    1.891755e+00
  1.559397e+01    1.836238e+00
  1.560985e+01    1.797519e+00
  1.562572e+01    1.790702e+00
  1.564160e+01    1.776834e+00
  1.565747e+01    1.772511e+00
  1.567335e+01    1.736304e+00
  1.568922e+01    1.712836e+00
  1.570510e+01    1.746321e+00
  1.572097e+01    1.727639e+00
  1.573685e+01    1.722878e+00
  1.575273e+01    1.713112e+00
  1.576860e+01    1.705146e+00
  1.578448e+01    1.671815e+00
  1.580035e+01    1.638043e+00
  1.581623e+01    1.671055e+00
  1.583210e+01    1.684330e+00
  1.584798e+01    1.672933e+00
  1.586385e+01    1.675372e+00
  1.587973e+01    1.661731e+00
  1.589561e+01    1.653060e+00
  1.591148e+01    1.645829e+00
  1.592736e+01    1.631323e+00
  1.594323e+01    1.644332e+00
  1.595911e+01    1.647785e+00
  1.597498e+01    1.638025e+00
  1.599086e+01    1.640618e+00
  1.600673e+01    1.612432e+00
  1.602261e+01    1.608583e+00
  1.603849e+01    1.605555e+00
  1.605436e+01    1.611484e+00
  1.607024e+01    1.611833e+00
  1.608611e+01    1.585022e+00
  1.610199e+01    1.598909e+00
  1.611786e+01    1.621257e+00
  1.613374e+01    1.635334e+00
  1.614961e+01    1.604148e+00
  1.616549e+01    1.602733e+00
  1.618137e+01    1.616116e+00
  1.619724e+01    1.584018e+00
  1.621312e+01    1.536706e+00
  1.622899e+01    1.542552e+00
  1.624487e+01    1.532365e+00
  1.626074e+01    1.576175e+00
  1.627662e+01    1.586005e+00
  1.629250e+01    1.582051e+00
  1.630837e+01    1.577120e+00
  1.632425e+01    1.560798e+00
  1.634012e+01    1.562413e+00
  1.635600e+01    1.580371e+00
  1.637187e+01    1.600159e+00
  1.638775e+01    1.532083e+00
  1.640362e+01    1.519354e+00
  1.641950e+01    1.517425e+00
  1.643538e+01    1.510059e+00
  1.645125e+01    1.554650e+00
  1.646713e+01    1.541940e+00
  1.648300e+01    1.523387e+00
  1.649888e+01    1.534425e+00
  1.651475e+01    1.548540e+00
  1.653063e+01    1.552930e+00
  1.654650e+01    1.523275e+00
  1.656238e+01    1.499509e+00
  1.657826e+01    1.482835e+00
  1.659413e+01    1.508136e+00
  1.661001e+01    1.499447e+00
  1.662588e+01    1.494172e+00
  1.664176e+01    1.502626e+00
  1.665763e+01    1.485896e+00
  1.667351e+01    1.498744e+00
  1.668938e+01    1.495566e+00
  1.670526e+01    1.486437e+00
  1.672114e+01    1.466616e+00
  1.673701e+01    1.476030e+00
  1.675289e+01    1.501158e+00
  1.676876e+01    1.481890e+00
  1.678464e+01    1.467116e+00
  1.680051e+01    1.457010e+00
  1.681639e+01    1.455997e+00
  1.683226e+01    1.461060e+00
  1.684814e+01    1.447348e+00
  1.686402e+01    1.458168e+00
  1.687989e+01    1.483257e+00
  1.689577e+01    1.465854e+00
  1.691164e+01    1.454900e+00
  1.692752e+01    1.463378e+00
  1.694339e+01    1.459363e+00
  1.695927e+01    1.437651e+00
  1.697514e+01    1.449114e+00
  1.699102e+01    1.453913e+00
  1.700690e+01    1.444567e+00
  1.702277e+01    1.432258e+00
  1.703865e+01    1.420392e+00
  1.705452e+01    1.404515e+00
  1.707040e+01    1.430042e+00
  1.708627e+01    1.379593e+00
  1.710215e+01    1.394783e+00
  1.711802e+01    1.410369e+00
  1.713390e+01    1.409075e+00
  1.714978e+01    1.391908e+00
  1.716565e+01    1.428391e+00
  1.718153e+01    1.450139e+00
  1.719740e+01    1.441767e+00
  1.721328e+01    1.438715e+00
  1.722915e+01    1.415686e+00
  1.724503e+01    1.406819e+00
  1.726091e+01    1.401804e+00
  1.727678e+01    1.393169e+00
  1.729266e+01    1.410760e+00
  1.730853e+01    1.410951e+00
  1.732441e+01    1.388955e+00
  1.734028e+01    1.370210e+00
  1.735616e+01    1.359212e+00
  1.737203e+01    1.343290e+00
  1.738791e+01    1.373738e+00
  1.740379e+01    1.392729e+00
  1.741966e+01    1.364517e+00
  1.743554e+01    1.360288e+00
  1.745141e+01    1.366013e+00
  1.746729e+01    1.383032e+00
  1.748316e+01    1.346737e+00
  1.749904e+01    1.355559e+00
  1.751491e+01    1.329205e+00
  1.753079e+01    1.331486e+00
  1.754667e+01    1.340886e+00
  1.756254e+01    1.380695e+00
  1.757842e+01    1.354739e+00
  1.759429e+01    1.317972e+00
  1.761017e+01    1.313537e+00
  1.762604e+01    1.341389e+00
  1.764192e+01    1.359329e+00
  1.765779e+01    1.347970e+00
  1.767367e+01    1.354673e+00
  1.768955e+01    1.334301e+00
  1.770542e+01    1.324617e+00
  1.772130e+01    1.366326e+00
  1.773717e+01    1.347946e+00
  1.775305e+01    1.343268e+00
  1.776892e+01    1.334400e+00
  1.778480e+01    1.362691e+00
  1.780067e+01    1.335990e+00
  1.781655e+01    1.341318e+00
  1.783243e+01    1.350466e+00
  1.784830e+01    1.350502e+00
  1.786418e+01    1.316494e+00
  1.788005e+01    1.327025e+00
  1.789593e+01    1.315735e+00
  1.791180e+01    1.313621e+00
  1.792768e+01    1.311637e+00
  1.794355e+01    1.315534e+00
  1.795943e+01    1.311367e+00
  1.797531e+01    1.304464e+00
  1.799118e+01    1.291997e+00
  1.800706e+01    1.303931e+00
  1.802293e+01    1.308894e+00
  1.803881e+01    1.300262e+00
  1.805468e+01    1.299648e+00
  1.807056e+01    1.308806e+00
  1.808643e+01    1.304841e+00
  1.810231e+01    1.318726e+00
  1.811819e+01    1.305017e+00
  1.813406e+01    1.304487e+00
  1.814994e+01    1.312112e+00
  1.816581e+01    1.262495e+00
  1.818169e+01    1.304477e+00
  1.819756e+01    1.326444e+00
  1.821344e+01    1.295072e+00
  1.822932e+01    1.308834e+00
  1.824519e+01    1.306036e+00
  1.826107e+01    1.315895e+00
  1.827694e+01    1.281406e+00
  1.829282e+01    1.291033e+00
  1.830869e+01    1.282501e+00
  1.832457e+01    1.259062e+00
  1.834044e+01    1.266221e+00
  1.835632e+01    1.282569e+00
  1.837220e+01    1.268951e+00
  1.838807e+01    1.255024e+00
  1.840395e+01    1.276214e+00
  1.841982e+01    1.239829e+00
  1.843570e+01    1.247537e+00
  1.845157e+01    1.293737e+00
  1.846745e+01    1.278102e+00
  1.848332e+01    1.260047e+00
  1.849920e+01    1.234463e+00
  1.851508e+01    1.222449e+00
  1.853095e+01    1.257264e+00
  1.854683e+01    1.258060e+00
  1.856270e+01    1.263848e+00
  1.857858e+01    1.259560e+00
  1.859445e+01    1.257296e+00
  1.861033e+01    1.270451e+00
  1.862620e+01    1.254917e+00
  1.864208e+01    1.252029e+00
  1.865796e+01    1.249980e+00
  1.867383e+01    1.247009e+00
  1.868971e+01    1.260888e+00
  1.870558e+01    1.245214e+00
  1.872146e+01    1.247777e+00
  1.873733e+01    1.232909e+00
  1.875321e+01    1.227529e+00
  1.876908e+01    1.231342e+00
  1.878496e+01    1.241749e+00
  1.880084e+01    1.217122e+00
  1.881671e+01    1.221755e+00
  1.883259e+01    1.209418e+00
  1.884846e+01    1.194740e+00
  1.886434e+01    1.206558e+00
  1.888021e+01    1.226033e+00
  1.889609e+01    1.216537e+00
  1.891196e+01    1.194234e+00
  1.892784e+01    1.203839e+00
  1.894372e+01    1.212112e+00
  1.895959e+01    1.210534e+00
  1.897547e+01    1.194743e+00
  1.899134e+01    1.200300e+00
  1.900722e+01    1.225982e+00
  1.902309e+01    1.171336e+00
  1.903897e+01    1.175015e+00
  1.905484e+01    1.184363e+00
  1.907072e+01    1.183521e+00
  1.908660e+01    1.173770e+00
  1.910247e+01    1.179982e+00
  1.911835e+01    1.202990e+00
  1.913422e+01    1.201245e+00
  1.915010e+01    1.184753e+00
  1.916597e+01    1.180297e+00
  1.918185e+01    1.176957e+00
  1.919773e+01    1.193264e+00
  1.921360e+01    1.197789e+00
  1.922948e+01    1.184208e+00
  1.924535e+01    1.199936e+00
  1.926123e+01    1.196910e+00
  1.927710e+01    1.206264e+00
  1.929298e+01    1.174965e+00
  1.930885e+01    1.170370e+00
  1.932473e+01    1.209929e+00
  1.934061e+01    1.202204e+00
  1.935648e+01    1.173204e+00
  1.937236e+01    1.165101e+00
  1.938823e+01    1.173075e+00
  1.940411e+01    1.168361e+00
  1.941998e+01    1.178920e+00
  1.943586e+01    1.177244e+00
  1.945173e+01    1.188303e+00
  1.946761e+01    1.176340e+00
  1.948349e+01    1.168414e+00
  1.949936e+01    1.167451e+00
  1.951524e+01    1.184520e+00
  1.953111e+01    1.152768e+00
  1.954699e+01    1.154089e+00
  1.956286e+01    1.168477e+00
  1.957874e+01    1.196385e+00
  1.959461e+01    1.158340e+00
  1.961049e+01    1.166588e+00
  1.962637e+01    1.149496e+00
  1.964224e+01    1.164763e+00
  1.965812e+01    1.182553e+00
  1.967399e+01    1.158855e+00
  1.968987e+01    1.150055e+00
  1.970574e+01    1.142141e+00
  1.972162e+01    1.141508e+00
  1.973749e+01    1.150453e+00
  1.975337e+01    1.155434e+00
  1.976925e+01    1.150818e+00
  1.978512e+01    1.129384e+00
  1.980100e+01    1.124929e+00
  1.981687e+01    1.152812e+00
  1.983275e+01    1.161628e+00
  1.984862e+01    1.130476e+00
  1.986450e+01    1.131403e+00
  1.988037e+01    1.145486e+00
  1.989625e+01    1.135121e+00
  1.991213e+01    1.117659e+00
  1.992800e+01    1.110713e+00
  1.994388e+01    1.153406e+00
  1.995975e+01    1.144499e+00
  1.997563e+01    1.140309e+00
  1.999150e+01    1.130253e+00
  2.000738e+01    1.116855e+00
  2.002325e+01    1.081213e+00
  2.003913e+01    1.110998e+00
  2.005501e+01    1.143702e+00
  2.007088e+01    1.127075e+00
  2.008676e+01    1.111291e+00
  2.010263e+01    1.119986e+00
  2.011851e+01    1.133554e+00
  2.013438e+01    1.124393e+00
  2.015026e+01    1.119176e+00
  2.016614e+01    1.129394e+00
  2.018201e+01    1.120701e+00
  2.019789e+01    1.103340e+00
  2.021376e+01    1.087298e+00
  2.022964e+01    1.085594e+00
  2.024551e+01    1.108283e+00
  2.026139e+01    1.106049e+00
  2.027726e+01    1.080421e+00
  2.029314e+01    1.076419e+00
  2.030902e+01    1.086142e+00
  2.032489e+01    1.098957e+00
  2.034077e+01    1.119640e+00
  2.035664e+01    1.084185e+00
  2.037252e+01    1.103633e+00
  2.038839e+01    1.103823e+00
  2.040427e+01    1.065908e+00
  2.042014e+01    1.094556e+00
  2.043602e+01    1.093260e+00
  2.045190e+01    1.093189e+00
  2.046777e+01    1.058365e+00
  2.048365e+01    1.067257e+00
  2.049952e+01    1.106871e+00
  2.051540e+01    1.095264e+00
  2.053127e+01    1.086371e+00
  2.054715e+01    1.101837e+00
  2.056302e+01    1.086524e+00
  2.057890e+01    1.095524e+00
  2.059478e+01    1.081888e+00
  2.061065e+01    1.098738e+00
  2.062653e+01    1.102927e+00
  2.064240e+01    1.082856e+00
  2.065828e+01    1.078621e+00
  2.067415e+01    1.079838e+00
  2.069003e+01    1.086385e+00
  2.070590e+01    1.089137e+00
  2.072178e+01    1.077945e+00
  2.073766e+01    1.084394e+00
  2.075353e+01    1.098435e+00
  2.076941e+01    1.091946e+00
  2.078528e+01    1.086214e+00
  2.080116e+01    1.104006e+00
  2.081703e+01    1.079981e+00
  2.083291e+01    1.082176e+00
  2.084878e+01    1.074999e+00
  2.086466e+01    1.052877e+00
  2.088054e+01    1.074906e+00
  2.089641e+01    1.081744e+00
  2.091229e+01    1.076202e+00
  2.092816e+01    1.068723e+00
  2.094404e+01    1.073056e+00
  2.095991e+01    1.093249e+00
  2.097579e+01    1.112332e+00
  2.099166e+01    1.078539e+00
  2.100754e+01    1.078978e+00
  2.102342e+01    1.102335e+00
  2.103929e+01    1.098084e+00
  2.105517e+01    1.097502e+00
  2.107104e+01    1.081606e+00
  2.108692e+01    1.081919e+00
  2.110279e+01    1.094269e+00
  2.111867e+01    1.081185e+00
  2.113455e+01    1.069293e+00
  2.115042e+01    1.094671e+00
  2.116630e+01    1.115391e+00
  2.118217e+01    1.094285e+00
  2.119805e+01    1.101982e+00
  2.121392e+01    1.091548e+00
  2.122980e+01    1.119526e+00
  2.124567e+01    1.120820e+00
  2.126155e+01    1.129015e+00
  2.127743e+01    1.136658e+00
  2.129330e+01    1.119277e+00
  2.130918e+01    1.116122e+00
  2.132505e+01    1.132421e+00
  2.134093e+01    1.152167e+00
  2.135680e+01    1.169379e+00
  2.137268e+01    1.142719e+00
  2.138855e+01    1.157175e+00
  2.140443e+01    1.157247e+00
  2.142031e+01    1.182382e+00
  2.143618e+01    1.201825e+00
  2.145206e+01    1.218865e+00
  2.146793e+01    1.216571e+00
  2.148381e+01    1.259792e+00
  2.149968e+01    1.285009e+00
  2.151556e+01    1.324198e+00
  2.153143e+01    1.347377e+00
  2.154731e+01    1.395944e+00
  2.156319e+01    1.427086e+00
  2.157906e+01    1.480599e+00
  2.159494e+01    1.534508e+00
  2.161081e+01    1.623937e+00
  2.162669e+01    1.710726e+00
  2.164256e+01    1.828755e+00
  2.165844e+01    1.984112e+00
  2.167431e+01    2.153052e+00
  2.169019e+01    2.339812e+00
  2.170607e+01    2.654596e+00
  2.172194e+01    2.983408e+00
  2.173782e+01    3.384159e+00
  2.175369e+01    3.860223e+00
  2.176957e+01    4.402422e+00
  2.178544e+01    4.964284e+00
  2.180132e+01    5.642091e+00
  2.181719e+01    6.259882e+00
  2.183307e+01    6.904681e+00
  2.184895e+01    7.602921e+00
  2.186482e+01    8.259134e+00
  2.188070e+01    8.814979e+00
  2.189657e+01    9.083323e+00
  2.191245e+01    8.940114e+00
  2.192832e+01    8.442327e+00
  2.194420e+01    7.644589e+00
  2.196007e+01    6.666487e+00
  2.197595e+01    5.698562e+00
  2.199183e+01    4.862226e+00
  2.200770e+01    4.123477e+00
  2.202358e+01    3.478322e+00
  2.203945e+01    3.063713e+00
  2.205533e+01    2.737381e+00
  2.207120e+01    2.442184e+00
  2.208708e+01    2.191402e+00
  2.210296e+01    2.012504e+00
  2.211883e+01    1.870394e+00
  2.213471e+01    1.750174e+00
  2.215058e+01    1.624978e+00
  2.216646e+01    1.526555e+00
  2.218233e+01    1.461098e+00
  2.219821e+01    1.430330e+00
  2.221408e+01    1.344539e+00
  2.222996e+01    1.333206e+00
  2.224584e+01    1.313203e+00
  2.226171e+01    1.249190e+00
  2.227759e+01    1.225862e+00
  2.229346e+01    1.180029e+00
  2.230934e+01    1.154509e+00
  2.232521e+01    1.157630e+00
  2.234109e+01    1.148246e+00
  2.235696e+01    1.105693e+00
  2.237284e+01    1.103376e+00
  2.238872e+01    1.103897e+00
  2.240459e+01    1.070184e+00
  2.242047e+01    1.065865e+00
  2.243634e+01    1.087574e+00
  2.245222e+01    1.038045e+00
  2.246809e+01    1.022535e+00
  2.248397e+01    1.023877e+00
  2.249984e+01    1.035212e+00
  2.251572e+01    1.014313e+00
  2.253160e+01    9.968022e-01
  2.254747e+01    9.937224e-01
  2.256335e+01    1.003378e+00
  2.257922e+01    9.937754e-01
  2.259510e+01    9.695117e-01
  2.261097e+01    9.845250e-01
  2.262685e+01    9.747054e-01
  2.264272e+01    9.677072e-01
  2.265860e+01    9.581896e-01
  2.267448e+01    9.783876e-01
  2.269035e+01    9.631498e-01
  2.270623e+01    9.521711e-01
  2.272210e+01    9.531471e-01
  2.273798e+01    9.355872e-01
  2.275385e+01    9.265056e-01
  2.276973e+01    9.401879e-01
  2.278560e+01    9.417549e-01
  2.280148e+01    9.288121e-01
  2.281736e+01    9.210856e-01
  2.283323e+01    9.107530e-01
  2.284911e+01    9.113854e-01
  2.286498e+01    9.400240e-01
  2.288086e+01    9.281868e-01
  2.289673e+01    9.180798e-01
  2.291261e+01    8.925444e-01
  2.292848e+01    9.025276e-01
  2.294436e+01    9.071547e-01
  2.296024e+01    8.674348e-01
  2.297611e+01    8.639439e-01
  2.299199e+01    9.026727e-01
  2.300786e+01    9.152488e-01
  2.302374e+01    8.892499e-01
  2.303961e+01    8.870495e-01
  2.305549e+01    9.000370e-01
  2.307137e+01    8.978659e-01
  2.308724e+01    8.797550e-01
  2.310312e+01    8.835236e-01
  2.311899e+01    9.039146e-01
  2.313487e+01    9.002902e-01
  2.315074e+01    8.699867e-01
  2.316662e+01    8.740368e-01
  2.318249e+01    8.709978e-01
  2.319837e+01    8.748201e-01
  2.321425e+01    8.720186e-01
  2.323012e+01    8.612917e-01
  2.324600e+01    8.976238e-01
  2.326187e+01    8.724437e-01
  2.327775e+01    8.797738e-01
  2.329362e+01    8.847295e-01
  2.330950e+01    8.740883e-01
  2.332537e+01    8.512331e-01
  2.334125e+01    8.579757e-01
  2.335713e+01    8.438097e-01
  2.337300e+01    8.626818e-01
  2.338888e+01    8.492764e-01
  2.340475e+01    8.502825e-01
  2.342063e+01    8.628805e-01
  2.343650e+01    8.551761e-01
  2.345238e+01    8.378030e-01
  2.346825e+01    8.526851e-01
  2.348413e+01    8.572652e-01
  2.350001e+01    8.449197e-01
  2.351588e+01    8.560225e-01
  2.353176e+01    8.440844e-01
  2.354763e+01    8.537443e-01
  2.356351e+01    8.543873e-01
  2.357938e+01    8.467370e-01
  2.359526e+01    8.389008e-01
  2.361113e+01    8.310878e-01
  2.362701e+01    8.286780e-01
  2.364289e+01    8.374698e-01
  2.365876e+01    8.315405e-01
  2.367464e+01    8.385929e-01
  2.369051e+01    8.445240e-01
  2.370639e+01    8.269244e-01
  2.372226e+01    8.406880e-01
  2.373814e+01    8.461535e-01
  2.375401e+01    8.208980e-01
  2.376989e+01    8.179179e-01
  2.378577e+01    8.140164e-01
  2.380164e+01    7.953434e-01
  2.381752e+01    8.098837e-01
  2.383339e+01    8.156721e-01
  2.384927e+01    8.056734e-01
  2.386514e+01    8.096874e-01
  2.388102e+01    8.076174e-01
  2.389689e+01    8.068710e-01
  2.391277e+01    8.077605e-01
  2.392865e+01    7.972860e-01
  2.394452e+01    8.014030e-01
  2.396040e+01    7.906094e-01
  2.397627e+01    8.012775e-01
  2.399215e+01    7.928687e-01
  2.400802e+01    7.915154e-01
  2.402390e+01    7.955955e-01
  2.403978e+01    7.896866e-01
  2.405565e+01    7.780486e-01
  2.407153e+01    7.809055e-01
  2.408740e+01    7.908090e-01
  2.410328e+01    7.850940e-01
  2.411915e+01    7.840366e-01
  2.413503e+01    7.775729e-01
  2.415090e+01    7.533077e-01
  2.416678e+01    7.808109e-01
  2.418266e+01    7.923357e-01
  2.419853e+01    7.622206e-01
  2.421441e+01    7.686451e-01
  2.423028e+01    7.626399e-01
  2.424616e+01    7.796020e-01
  2.426203e+01    7.670373e-01
  2.427791e+01    7.841118e-01
  2.429378e+01    7.747970e-01
  2.430966e+01    7.811064e-01
  2.432554e+01    7.856830e-01
  2.434141e+01    8.094182e-01
  2.435729e+01    7.866563e-01
  2.437316e+01    7.805641e-01
  2.438904e+01    7.815183e-01
  2.440491e+01    7.985087e-01
  2.442079e+01    8.039676e-01
  2.443666e+01    7.815025e-01
  2.445254e+01    7.976489e-01
  2.446842e+01    7.976393e-01
  2.448429e+01    8.009384e-01
  2.450017e+01    7.945008e-01
  2.451604e+01    8.031740e-01
  2.453192e+01    7.964000e-01
  2.454779e+01    7.844691e-01
  2.456367e+01    7.750055e-01
  2.457954e+01    7.725892e-01
  2.459542e+01    7.836877e-01
  2.461130e+01    7.993940e-01
  2.462717e+01    7.919089e-01
  2.464305e+01    7.943553e-01
  2.465892e+01    7.881722e-01
  2.467480e+01    7.762375e-01
  2.469067e+01    7.981172e-01
  2.470655e+01    8.136659e-01
  2.472242e+01    8.123280e-01
  2.473830e+01    7.789495e-01
  2.475418e+01    8.021195e-01
  2.477005e+01    7.800883e-01
  2.478593e+01    8.033296e-01
  2.480180e+01    7.992775e-01
  2.481768e+01    8.017488e-01
  2.483355e+01    8.085544e-01
  2.484943e+01    7.902536e-01
  2.486530e+01    7.917423e-01
  2.488118e+01    7.626997e-01
  2.489706e+01    7.814305e-01
  2.491293e+01    7.997142e-01
  2.492881e+01    7.903656e-01
  2.494468e+01    7.984859e-01
  2.496056e+01    8.062422e-01
  2.497643e+01    8.122225e-01
  2.499231e+01    8.254011e-01
  2.500819e+01    8.104630e-01
  2.502406e+01    8.023780e-01
  2.503994e+01    7.924699e-01
  2.505581e+01    8.190764e-01
  2.507169e+01    8.135756e-01
  2.508756e+01    8.105617e-01
  2.510344e+01    8.102555e-01
  2.511931e+01    8.140576e-01
  2.513519e+01    8.197199e-01
  2.515107e+01    8.302592e-01
  2.516694e+01    8.233368e-01
  2.518282e+01    8.420097e-01
  2.519869e+01    8.456235e-01
  2.521457e+01    8.308907e-01
  2.523044e+01    8.538886e-01
  2.524632e+01    8.493435e-01
  2.526219e+01    8.690851e-01
  2.527807e+01    8.720746e-01
  2.529395e+01    8.797656e-01
  2.530982e+01    8.715108e-01
  2.532570e+01    8.766404e-01
  2.534157e+01    8.744591e-01
  2.535745e+01    8.644680e-01
  2.537332e+01    8.756369e-01
  2.538920e+01    8.957375e-01
  2.540507e+01    8.977257e-01
  2.542095e+01    9.081349e-01
  2.543683e+01    9.097788e-01
  2.545270e+01    9.336071e-01
  2.546858e+01    9.487630e-01
  2.548445e+01    9.560259e-01
  2.550033e+01    9.609527e-01
  2.551620e+01    9.904087e-01
  2.553208e+01    1.004031e+00
  2.554795e+01    1.027167e+00
  2.556383e+01    1.043220e+00
  2.557971e+01    1.050409e+00
  2.559558e+01    1.098436e+00
  2.561146e+01    1.148209e+00
  2.562733e+01    1.195107e+00
  2.564321e+01    1.230463e+00
  2.565908e+01    1.270564e+00
  2.567496e+01    1.341948e+00
  2.569083e+01    1.457272e+00
  2.570671e+01    1.496478e+00
  2.572259e+01    1.625127e+00
  2.573846e+01    1.776160e+00
  2.575434e+01    1.951753e+00
  2.577021e+01    2.146995e+00
  2.578609e+01    2.419610e+00
  2.580196e+01    2.711491e+00
  2.581784e+01    3.087376e+00
  2.583371e+01    3.538877e+00
  2.584959e+01    4.049446e+00
  2.586547e+01    4.567682e+00
  2.588134e+01    5.121866e+00
  2.589722e+01    5.753597e+00
  2.591309e+01    6.359912e+00
  2.592897e+01    6.865111e+00
  2.594484e+01    7.204801e+00
  2.596072e+01    7.305883e+00
  2.597660e+01    7.203356e+00
  2.599247e+01    6.814652e+00
  2.600835e+01    6.271441e+00
  2.602422e+01    5.495844e+00
  2.604010e+01    4.760559e+00
  2.605597e+01    4.103670e+00
  2.607185e+01    3.534600e+00
  2.608772e+01    3.047076e+00
  2.610360e+01    2.642541e+00
  2.611948e+01    2.329256e+00
  2.613535e+01    2.097445e+00
  2.615123e+01    1.918386e+00
  2.616710e+01    1.739417e+00
  2.618298e+01    1.598619e+00
  2.619885e+01    1.509358e+00
  2.621473e+01    1.416598e+00
  2.623060e+01    1.341932e+00
  2.624648e+01    1.258187e+00
  2.626236e+01    1.241764e+00
  2.627823e+01    1.177682e+00
  2.629411e+01    1.129897e+00
  2.630998e+01    1.124400e+00
  2.632586e+01    1.103586e+00
  2.634173e+01    1.049747e+00
  2.635761e+01    1.022985e+00
  2.637348e+01    9.914849e-01
  2.638936e+01    9.771828e-01
  2.640524e+01    9.552045e-01
  2.642111e+01    9.576439e-01
  2.643699e+01    9.500969e-01
  2.645286e+01    9.405717e-01
  2.646874e+01    9.198669e-01
  2.648461e+01    9.396810e-01
  2.650049e+01    9.111326e-01
  2.651636e+01    9.271489e-01
  2.653224e+01    9.268547e-01
  2.654812e+01    9.031363e-01
  2.656399e+01    9.004924e-01
  2.657987e+01    8.969010e-01
  2.659574e+01    8.828067e-01
  2.661162e+01    9.011911e-01
  2.662749e+01    9.026971e-01
  2.664337e+01    8.787994e-01
  2.665924e+01    8.834250e-01
  2.667512e+01    8.832778e-01
  2.669100e+01    8.574408e-01
  2.670687e+01    8.796394e-01
  2.672275e+01    8.922259e-01
  2.673862e+01    8.942047e-01
  2.675450e+01    8.884200e-01
  2.677037e+01    8.876733e-01
  2.678625e+01    8.808258e-01
  2.680212e+01    8.992774e-01
  2.681800e+01    9.052774e-01
  2.683388e+01    8.978551e-01
  2.684975e+01    8.976529e-01
  2.686563e+01    8.857311e-01
  2.688150e+01    8.899808e-01
  2.689738e+01    9.070417e-01
  2.691325e+01    9.240363e-01
  2.692913e+01    9.336295e-01
  2.694501e+01    9.248475e-01
  2.696088e+01    9.540609e-01
  2.697676e+01    9.704666e-01
  2.699263e+01    1.007552e+00
  2.700851e+01    1.046818e+00
  2.702438e+01    1.092046e+00
  2.704026e+01    1.125617e+00
  2.705613e+01    1.159859e+00
  2.707201e+01    1.228131e+00
  2.708789e+01    1.325643e+00
  2.710376e+01    1.406314e+00
  2.711964e+01    1.511716e+00
  2.713551e+01    1.653844e+00
  2.715139e+01    1.783575e+00
  2.716726e+01    1.946214e+00
  2.718314e+01    2.074015e+00
  2.719901e+01    2.179023e+00
  2.721489e+01    2.209506e+00
  2.723077e+01    2.213469e+00
  2.724664e+01    2.117660e+00
  2.726252e+01    1.978201e+00
  2.727839e+01    1.833966e+00
  2.729427e+01    1.688140e+00
  2.731014e+01    1.576730e+00
  2.732602e+01    1.435148e+00
  2.734189e+01    1.317011e+00
  2.735777e+01    1.217094e+00
  2.737365e+01    1.138175e+00
  2.738952e+01    1.099149e+00
  2.740540e+01    1.068362e+00
  2.742127e+01    1.031775e+00
  2.743715e+01    9.927700e-01
  2.745302e+01    9.668156e-01
  2.746890e+01    9.454082e-01
  2.748477e+01    9.023931e-01
  2.750065e+01    8.857969e-01
  2.751653e+01    8.913631e-01
  2.753240e+01    8.909941e-01
  2.754828e+01    8.760333e-01
  2.756415e+01    8.658686e-01
  2.758003e+01    8.564526e-01
  2.759590e+01    8.575393e-01
  2.761178e+01    8.353774e-01
  2.762765e+01    8.122638e-01
  2.764353e+01    8.313818e-01
  2.765941e+01    8.420350e-01
  2.767528e+01    8.329884e-01
  2.769116e+01    8.245893e-01
  2.770703e+01    8.025497e-01
  2.772291e+01    7.984822e-01
  2.773878e+01    8.162932e-01
  2.775466e+01    8.251325e-01
  2.777054e+01    8.192877e-01
  2.778641e+01    8.132754e-01
  2.780229e+01    8.017587e-01
  2.781816e+01    8.049471e-01
  2.783404e+01    8.050798e-01
  2.784991e+01    7.974890e-01
  2.786579e+01    8.109168e-01
  2.788166e+01    7.942317e-01
  2.789754e+01    7.962220e-01
  2.791342e+01    8.103807e-01
  2.792929e+01    7.908570e-01
  2.794517e+01    7.932284e-01
  2.796104e+01    7.979550e-01
  2.797692e+01    7.872807e-01
  2.799279e+01    7.906023e-01
  2.800867e+01    7.557456e-01
  2.802454e+01    7.848291e-01
  2.804042e+01    7.718335e-01
  2.805630e+01    7.921569e-01
  2.807217e+01    7.754278e-01
  2.808805e+01    7.827232e-01
  2.810392e+01    7.798144e-01
  2.811980e+01    7.743680e-01
  2.813567e+01    7.596258e-01
  2.815155e+01    7.610357e-01
  2.816742e+01    7.710577e-01
  2.818330e+01    7.682309e-01
  2.819918e+01    7.673401e-01
  2.821505e+01    7.862576e-01
  2.823093e+01    7.816746e-01
  2.824680e+01    7.691981e-01
  2.826268e+01    7.620361e-01
  2.827855e+01    7.762516e-01
  2.829443e+01    7.464895e-01
  2.831030e+01    7.521913e-01
  2.832618e+01    7.512177e-01
  2.834206e+01    7.413141e-01
  2.835793e+01    7.437606e-01
  2.837381e+01    7.706367e-01
  2.838968e+01    7.677186e-01
  2.840556e+01    7.546530e-01
  2.842143e+01    7.813808e-01
  2.843731e+01    7.698996e-01
  2.845318e+01    7.500746e-01
  2.846906e+01    7.578233e-01
  2.848494e+01    7.716405e-01
  2.850081e+01    7.449502e-01
  2.851669e+01    7.645416e-01
  2.853256e+01    7.709734e-01
  2.854844e+01    7.610025e-01
  2.856431e+01    7.573790e-01
  2.858019e+01    7.589511e-01
  2.859606e+01    7.410812e-01
  2.861194e+01    7.387642e-01
  2.862782e+01    7.353856e-01
  2.864369e+01    7.451205e-01
  2.865957e+01    7.569877e-01
  2.867544e+01    7.543480e-01
  2.869132e+01    7.439367e-01
  2.870719e+01    7.435203e-01
  2.872307e+01    7.403424e-01
  2.873895e+01    7.307187e-01
  2.875482e+01    7.503223e-01
  2.877070e+01    7.578337e-01
  2.878657e+01    7.450899e-01
  2.880245e+01    7.486353e-01
  2.881832e+01    7.409992e-01
  2.883420e+01    7.478021e-01
  2.885007e+01    7.473982e-01
  2.886595e+01    7.417145e-01
  2.888183e+01    7.330917e-01
  2.889770e+01    7.597951e-01
  2.891358e+01    7.566648e-01
  2.892945e+01    7.441851e-01
  2.894533e+01    7.510673e-01
  2.896120e+01    7.576206e-01
  2.897708e+01    7.565718e-01
  2.899295e+01    7.672297e-01
  2.900883e+01    7.377446e-01
  2.902471e+01    7.099646e-01
  2.904058e+01    7.162633e-01
  2.905646e+01    7.394596e-01
  2.907233e+01    7.301843e-01
  2.908821e+01    7.141140e-01
  2.910408e+01    7.185020e-01
  2.911996e+01    7.282979e-01
  2.913583e+01    7.235603e-01
  2.915171e+01    7.292026e-01
  2.916759e+01    7.443573e-01
  2.918346e+01    7.497616e-01
  2.919934e+01    7.422199e-01
  2.921521e+01    7.181534e-01
  2.923109e+01    7.129903e-01
  2.924696e+01    7.138021e-01
  2.926284e+01    7.307069e-01
  2.927871e+01    7.478432e-01
  2.929459e+01    7.483277e-01
  2.931047e+01    7.371697e-01
  2.932634e+01    7.600870e-01
  2.934222e+01    7.391922e-01
  2.935809e+01    7.225696e-01
  2.937397e+01    7.390215e-01
  2.938984e+01    7.494322e-01
  2.940572e+01    7.294585e-01
  2.942159e+01    7.095351e-01
  2.943747e+01    7.153581e-01
  2.945335e+01    7.281587e-01
  2.946922e+01    7.151629e-01
  2.948510e+01    7.219887e-01
  2.950097e+01    7.256645e-01
  2.951685e+01    7.406637e-01
  2.953272e+01    7.300432e-01
  2.954860e+01    7.097959e-01
  2.956447e+01    7.098950e-01
  2.958035e+01    7.116914e-01
  2.959623e+01    7.147956e-01
  2.961210e+01    7.061438e-01
  2.962798e+01    7.166341e-01
  2.964385e+01    7.543951e-01
  2.965973e+01    7.307669e-01
  2.967560e+01    7.212737e-01
  2.969148e+01    7.421706e-01
  2.970736e+01    7.343767e-01
  2.972323e+01    7.089684e-01
  2.973911e+01    7.065786e-01
  2.975498e+01    6.903474e-01
  2.977086e+01    6.970070e-01
  2.978673e+01    7.248266e-01
  2.980261e+01    7.205090e-01
  2.981848e+01    7.214468e-01
  2.983436e+01    7.154161e-01
  2.985024e+01    7.084353e-01
  2.986611e+01    7.121330e-01
  2.988199e+01    7.011117e-01
  2.989786e+01    7.250599e-01
  2.991374e+01    7.211701e-01
  2.992961e+01    7.243162e-01
  2.994549e+01    7.487900e-01
  2.996136e+01    7.169119e-01
  2.997724e+01    7.259424e-01
  2.999312e+01    7.408752e-01
  3.000899e+01    7.375708e-01
  3.002487e+01    7.508216e-01
  3.004074e+01    7.476635e-01
  3.005662e+01    7.407023e-01
  3.007249e+01    7.419035e-01
  3.008837e+01    7.278084e-01
  3.010424e+01    7.360430e-01
  3.012012e+01    7.247152e-01
  3.013600e+01    7.265749e-01
  3.015187e+01    7.350924e-01
  3.016775e+01    7.447010e-01
  3.018362e+01    7.427399e-01
  3.019950e+01    7.326593e-01
  3.021537e+01    7.120005e-01
  3.023125e+01    7.124181e-01
  3.024712e+01    7.258989e-01
  3.026300e+01    7.102783e-01
  3.027888e+01    7.240112e-01
  3.029475e+01    7.018818e-01
  3.031063e+01    6.911359e-01
  3.032650e+01    7.006801e-01
  3.034238e+01    7.296386e-01
  3.035825e+01    7.065933e-01
  3.037413e+01    6.850875e-01
  3.039000e+01    7.015328e-01
  3.040588e+01    6.973407e-01
  3.042176e+01    7.050731e-01
  3.043763e+01    7.226645e-01
  3.045351e+01    7.305110e-01
  3.046938e+01    7.132821e-01
  3.048526e+01    7.017176e-01
  3.050113e+01    6.968310e-01
  3.051701e+01    7.194148e-01
  3.053288e+01    7.193801e-01
  3.054876e+01    6.957361e-01
  3.056464e+01    7.036377e-01
  3.058051e+01    7.165554e-01
  3.059639e+01    7.238720e-01
  3.061226e+01    7.222393e-01
  3.062814e+01    7.069724e-01
  3.064401e+01    7.249160e-01
  3.065989e+01    7.086669e-01
  3.067577e+01    7.176443e-01
  3.069164e+01    7.032014e-01
  3.070752e+01    6.888830e-01
  3.072339e+01    6.949962e-01
  3.073927e+01    6.893541e-01
  3.075514e+01    7.094410e-01
  3.077102e+01    7.150342e-01
  3.078689e+01    7.174485e-01
  3.080277e+01    7.199827e-01
  3.081865e+01    7.249968e-01
  3.083452e+01    7.251250e-01
  3.085040e+01    7.191070e-01
  3.086627e+01    6.920065e-01
  3.088215e+01    7.038167e-01
  3.089802e+01    7.052606e-01
  3.091390e+01    7.024456e-01
  3.092977e+01    7.275414e-01
  3.094565e+01    7.013963e-01
  3.096153e+01    6.931363e-01
  3.097740e+01    7.155350e-01
  3.099328e+01    7.335116e-01
  3.100915e+01    7.104643e-01
  3.102503e+01    7.026118e-01
  3.104090e+01    7.283425e-01
  3.105678e+01    7.355124e-01
  3.107265e+01    7.135096e-01
  3.108853e+01    7.130539e-01
  3.110441e+01    6.957654e-01
  3.112028e+01    7.056132e-01
  3.113616e+01    7.065639e-01
  3.115203e+01    7.155577e-01
  3.116791e+01    7.201260e-01
  3.118378e+01    7.284366e-01
  3.119966e+01    7.153796e-01
  3.121553e+01    7.133654e-01
  3.123141e+01    7.174966e-01
  3.124729e+01    7.499713e-01
  3.126316e+01    7.259006e-01
  3.127904e+01    7.193522e-01
  3.129491e+01    7.137558e-01
  3.131079e+01    7.070076e-01
  3.132666e+01    7.447991e-01
  3.134254e+01    7.432130e-01
  3.135841e+01    7.530638e-01
  3.137429e+01    7.467064e-01
  3.139017e+01    7.530861e-01
  3.140604e+01    7.479759e-01
  3.142192e+01    7.576129e-01
  3.143779e+01    7.611583e-01
  3.145367e+01    7.296398e-01
  3.146954e+01    7.543418e-01
  3.148542e+01    7.493306e-01
  3.150129e+01    7.680616e-01
  3.151717e+01    7.684360e-01
  3.153305e+01    7.912217e-01
  3.154892e+01    7.799911e-01
  3.156480e+01    8.157487e-01
  3.158067e+01    7.982991e-01
  3.159655e+01    8.171048e-01
  3.161242e+01    8.119895e-01
  3.162830e+01    8.393344e-01
  3.164418e+01    8.624398e-01
  3.166005e+01    8.844019e-01
  3.167593e+01    9.124126e-01
  3.169180e+01    9.535413e-01
  3.170768e+01    9.704622e-01
  3.172355e+01    1.019329e+00
  3.173943e+01    1.082146e+00
  3.175530e+01    1.145248e+00
  3.177118e+01    1.212907e+00
  3.178706e+01    1.307368e+00
  3.180293e+01    1.419363e+00
  3.181881e+01    1.532979e+00
  3.183468e+01    1.678552e+00
  3.185056e+01    1.812759e+00
  3.186643e+01    1.987160e+00
  3.188231e+01    2.131128e+00
  3.189818e+01    2.175205e+00
  3.191406e+01    2.153844e+00
  3.192994e+01    2.123333e+00
  3.194581e+01    2.029717e+00
  3.196169e+01    1.888073e+00
  3.197756e+01    1.709337e+00
  3.199344e+01    1.568860e+00
  3.200931e+01    1.441341e+00
  3.202519e+01    1.325030e+00
  3.204106e+01    1.225878e+00
  3.205694e+01    1.136378e+00
  3.207282e+01    1.061041e+00
  3.208869e+01    1.006980e+00
  3.210457e+01    9.620171e-01
  3.212044e+01    9.073243e-01
  3.213632e+01    8.777061e-01
  3.215219e+01    8.580077e-01
  3.216807e+01    8.355099e-01
  3.218394e+01    8.156117e-01
  3.219982e+01    8.103696e-01
  3.221570e+01    7.881637e-01
  3.223157e+01    7.858149e-01
  3.224745e+01    7.700732e-01
  3.226332e+01    7.619168e-01
  3.227920e+01    7.570124e-01
  3.229507e+01    7.618206e-01
  3.231095e+01    7.609670e-01
  3.232682e+01    7.605267e-01
  3.234270e+01    7.495658e-01
  3.235858e+01    7.566102e-01
  3.237445e+01    7.502038e-01
  3.239033e+01    7.267649e-01
  3.240620e+01    7.212170e-01
  3.242208e+01    7.304543e-01
  3.243795e+01    7.111400e-01
  3.245383e+01    7.171245e-01
  3.246970e+01    7.294052e-01
  3.248558e+01    7.200072e-01
  3.250146e+01    7.288234e-01
  3.251733e+01    6.911558e-01
  3.253321e+01    6.897398e-01
  3.254908e+01    6.965877e-01
