# == pyFAI calibration ==
# Distance Sample to Detector: 0.3999999939076516 m
# PONI: 9.750e-02, 1.135e-01 m
# Rotations: -0.000175 0.000000 -0.000000 rad
# 
# == Fit2d calibration ==
# Distance Sample-beamCenter: 400.000 mm
# Center: x=1514.000, y=1300.000 pix
# Tilt: 0.010 deg  TiltPlanRot: 0.010 deg
# 
# Detector Detector	 Spline= None	 PixelSize= 7.500e-05, 7.500e-05 m
#    Detector has a mask: False 
#    Detector has a dark current: False 
#    detector has a flat field: False 
# 
# Wavelength: 6.888e-11 m
# Mask applied: user provided
# Dark current applied: False
# Flat field applied: False
# Polarization factor: 0.99
# Normalization factor: 1.0
# --> /home/myspot/data/2024_07_Rosario/Ru-CGO-ex/2024-07-27_002_Ru-CGO-ex_Activtation_ramp_000002_data_000180.dat
#       q_nm^-1             I 
  2.003187e-02    0.000000e+00
  3.590745e-02    6.857251e-02
  5.178302e-02    2.321563e-01
  6.765859e-02    1.456575e-01
  8.353417e-02    1.192106e-01
  9.940974e-02    1.554339e-01
  1.152853e-01    4.056899e-02
  1.311609e-01    0.000000e+00
  1.470365e-01    0.000000e+00
  1.629120e-01    4.457682e-02
  1.787876e-01    2.322011e-02
  1.946632e-01    2.496614e-02
  2.105388e-01    3.101821e-02
  2.264143e-01    3.475012e-02
  2.422899e-01    3.602526e-02
  2.581655e-01    1.439905e-02
  2.740411e-01    3.255506e-02
  2.899166e-01    5.906523e-02
  3.057922e-01    5.331908e-02
  3.216678e-01    1.753175e-03
  3.375433e-01    0.000000e+00
  3.534189e-01    0.000000e+00
  3.692945e-01    6.217204e-04
  3.851701e-01    2.801874e-02
  4.010456e-01    4.712349e-02
  4.169212e-01    4.507628e-02
  4.327968e-01    3.478463e-02
  4.486724e-01    6.155096e-02
  4.645479e-01    3.140778e-02
  4.804235e-01    2.693812e-02
  4.962991e-01    1.987058e-02
  5.121747e-01    4.423305e-02
  5.280502e-01    7.274037e-02
  5.439258e-01    6.468745e-02
  5.598014e-01    2.337722e-02
  5.756770e-01    2.319029e-02
  5.915525e-01    3.253186e-02
  6.074281e-01    3.534866e-02
  6.233037e-01    2.473860e-02
  6.391793e-01    3.808774e-02
  6.550548e-01    5.191389e-02
  6.709304e-01    3.550030e-02
  6.868060e-01    2.840449e-02
  7.026815e-01    3.912001e-02
  7.185571e-01    3.052732e-02
  7.344327e-01    5.333971e-02
  7.503083e-01    6.294676e-02
  7.661838e-01    8.800735e-02
  7.820594e-01    1.063300e-01
  7.979350e-01    1.259466e-01
  8.138106e-01    2.445304e-01
  8.296861e-01    2.607882e-01
  8.455617e-01    2.790754e-01
  8.614373e-01    3.264435e-01
  8.773129e-01    4.684056e-01
  8.931884e-01    5.269659e-01
  9.090640e-01    5.413330e-01
  9.249396e-01    6.445184e-01
  9.408152e-01    6.844980e-01
  9.566907e-01    7.496822e-01
  9.725663e-01    8.194287e-01
  9.884419e-01    8.614306e-01
  1.004317e+00    1.110857e+00
  1.020193e+00    1.191319e+00
  1.036069e+00    1.065856e+00
  1.051944e+00    1.216710e+00
  1.067820e+00    1.369700e+00
  1.083695e+00    1.404649e+00
  1.099571e+00    1.420137e+00
  1.115446e+00    1.451115e+00
  1.131322e+00    1.405301e+00
  1.147198e+00    1.450972e+00
  1.163073e+00    1.442621e+00
  1.178949e+00    1.490307e+00
  1.194824e+00    1.673327e+00
  1.210700e+00    1.907326e+00
  1.226575e+00    1.973455e+00
  1.242451e+00    2.058944e+00
  1.258327e+00    2.254141e+00
  1.274202e+00    2.350564e+00
  1.290078e+00    2.421929e+00
  1.305953e+00    2.419075e+00
  1.321829e+00    2.376391e+00
  1.337705e+00    2.427106e+00
  1.353580e+00    2.498664e+00
  1.369456e+00    2.480740e+00
  1.385331e+00    2.559051e+00
  1.401207e+00    2.557381e+00
  1.417082e+00    2.514773e+00
  1.432958e+00    2.602206e+00
  1.448834e+00    2.723226e+00
  1.464709e+00    2.654234e+00
  1.480585e+00    2.664936e+00
  1.496460e+00    2.773548e+00
  1.512336e+00    2.879706e+00
  1.528211e+00    2.767249e+00
  1.544087e+00    2.773102e+00
  1.559963e+00    2.880701e+00
  1.575838e+00    2.821884e+00
  1.591714e+00    2.738033e+00
  1.607589e+00    2.854403e+00
  1.623465e+00    2.888939e+00
  1.639340e+00    2.921813e+00
  1.655216e+00    2.747410e+00
  1.671092e+00    2.744872e+00
  1.686967e+00    2.818771e+00
  1.702843e+00    2.868009e+00
  1.718718e+00    2.762875e+00
  1.734594e+00    2.602981e+00
  1.750469e+00    2.737421e+00
  1.766345e+00    2.741715e+00
  1.782221e+00    2.640736e+00
  1.798096e+00    2.725052e+00
  1.813972e+00    2.759405e+00
  1.829847e+00    2.609586e+00
  1.845723e+00    2.782943e+00
  1.861598e+00    2.776435e+00
  1.877474e+00    2.730503e+00
  1.893350e+00    2.719402e+00
  1.909225e+00    2.709335e+00
  1.925101e+00    2.754437e+00
  1.940976e+00    2.633224e+00
  1.956852e+00    2.658292e+00
  1.972727e+00    2.724073e+00
  1.988603e+00    2.718271e+00
  2.004479e+00    2.824910e+00
  2.020354e+00    2.710130e+00
  2.036230e+00    2.698926e+00
  2.052105e+00    2.663061e+00
  2.067981e+00    2.690009e+00
  2.083856e+00    2.673668e+00
  2.099732e+00    2.779104e+00
  2.115608e+00    2.765924e+00
  2.131483e+00    2.728791e+00
  2.147359e+00    2.799685e+00
  2.163234e+00    2.817570e+00
  2.179110e+00    2.835668e+00
  2.194985e+00    2.855785e+00
  2.210861e+00    2.809160e+00
  2.226737e+00    2.737252e+00
  2.242612e+00    2.614970e+00
  2.258488e+00    2.636141e+00
  2.274363e+00    2.745293e+00
  2.290239e+00    2.799675e+00
  2.306115e+00    2.766185e+00
  2.321990e+00    2.782162e+00
  2.337866e+00    2.715696e+00
  2.353741e+00    2.707211e+00
  2.369617e+00    2.746141e+00
  2.385492e+00    2.776868e+00
  2.401368e+00    2.679956e+00
  2.417244e+00    2.704140e+00
  2.433119e+00    2.711262e+00
  2.448995e+00    2.641671e+00
  2.464870e+00    2.751814e+00
  2.480746e+00    2.799109e+00
  2.496621e+00    2.682025e+00
  2.512497e+00    2.859575e+00
  2.528373e+00    2.887392e+00
  2.544248e+00    2.779261e+00
  2.560124e+00    2.800026e+00
  2.575999e+00    2.767787e+00
  2.591875e+00    2.718436e+00
  2.607750e+00    2.907487e+00
  2.623626e+00    2.976609e+00
  2.639502e+00    2.814707e+00
  2.655377e+00    2.806665e+00
  2.671253e+00    2.734101e+00
  2.687128e+00    2.804070e+00
  2.703004e+00    2.855512e+00
  2.718879e+00    2.831771e+00
  2.734755e+00    2.766001e+00
  2.750631e+00    2.857965e+00
  2.766506e+00    2.878869e+00
  2.782382e+00    2.864368e+00
  2.798257e+00    2.727778e+00
  2.814133e+00    2.788001e+00
  2.830008e+00    2.839958e+00
  2.845884e+00    2.941159e+00
  2.861760e+00    2.816083e+00
  2.877635e+00    2.829816e+00
  2.893511e+00    2.852679e+00
  2.909386e+00    2.820164e+00
  2.925262e+00    2.803810e+00
  2.941137e+00    2.830935e+00
  2.957013e+00    2.862121e+00
  2.972889e+00    2.845219e+00
  2.988764e+00    2.854846e+00
  3.004640e+00    2.915109e+00
  3.020515e+00    2.909662e+00
  3.036391e+00    2.993114e+00
  3.052266e+00    2.929270e+00
  3.068142e+00    2.802089e+00
  3.084018e+00    2.817327e+00
  3.099893e+00    2.874856e+00
  3.115769e+00    2.966053e+00
  3.131644e+00    2.940638e+00
  3.147520e+00    2.895460e+00
  3.163395e+00    2.921278e+00
  3.179271e+00    2.935877e+00
  3.195147e+00    2.919974e+00
  3.211022e+00    2.880006e+00
  3.226898e+00    3.018321e+00
  3.242773e+00    2.953091e+00
  3.258649e+00    2.904372e+00
  3.274525e+00    2.858255e+00
  3.290400e+00    2.953760e+00
  3.306276e+00    2.887582e+00
  3.322151e+00    2.820734e+00
  3.338027e+00    2.937800e+00
  3.353902e+00    3.013549e+00
  3.369778e+00    3.015930e+00
  3.385654e+00    3.029294e+00
  3.401529e+00    2.977329e+00
  3.417405e+00    2.872945e+00
  3.433280e+00    2.979922e+00
  3.449156e+00    2.927371e+00
  3.465031e+00    2.959027e+00
  3.480907e+00    3.010677e+00
  3.496783e+00    2.972145e+00
  3.512658e+00    2.999513e+00
  3.528534e+00    2.882485e+00
  3.544409e+00    2.840348e+00
  3.560285e+00    2.857904e+00
  3.576160e+00    2.974969e+00
  3.592036e+00    3.066849e+00
  3.607912e+00    2.916109e+00
  3.623787e+00    2.983278e+00
  3.639663e+00    2.975075e+00
  3.655538e+00    2.981088e+00
  3.671414e+00    2.956234e+00
  3.687289e+00    2.964765e+00
  3.703165e+00    2.897738e+00
  3.719041e+00    2.942168e+00
  3.734916e+00    2.925663e+00
  3.750792e+00    2.934159e+00
  3.766667e+00    2.995350e+00
  3.782543e+00    3.023206e+00
  3.798418e+00    2.988943e+00
  3.814294e+00    3.012614e+00
  3.830170e+00    3.071327e+00
  3.846045e+00    3.091833e+00
  3.861921e+00    3.050323e+00
  3.877796e+00    2.999143e+00
  3.893672e+00    3.055609e+00
  3.909547e+00    3.068226e+00
  3.925423e+00    3.003345e+00
  3.941299e+00    3.034783e+00
  3.957174e+00    2.927776e+00
  3.973050e+00    2.959422e+00
  3.988925e+00    2.953269e+00
  4.004801e+00    2.969359e+00
  4.020676e+00    2.994519e+00
  4.036552e+00    3.078482e+00
  4.052428e+00    3.061104e+00
  4.068303e+00    3.124560e+00
  4.084179e+00    3.076529e+00
  4.100054e+00    3.075978e+00
  4.115930e+00    3.090320e+00
  4.131806e+00    3.008451e+00
  4.147681e+00    3.022191e+00
  4.163557e+00    3.021945e+00
  4.179432e+00    2.914285e+00
  4.195308e+00    2.952250e+00
  4.211183e+00    2.999662e+00
  4.227059e+00    3.111843e+00
  4.242935e+00    3.074020e+00
  4.258810e+00    3.025979e+00
  4.274686e+00    3.095755e+00
  4.290561e+00    3.102521e+00
  4.306437e+00    3.076991e+00
  4.322312e+00    3.122065e+00
  4.338188e+00    3.139252e+00
  4.354064e+00    3.185609e+00
  4.369939e+00    3.058890e+00
  4.385815e+00    3.037146e+00
  4.401690e+00    3.062045e+00
  4.417566e+00    3.124379e+00
  4.433441e+00    3.093581e+00
  4.449317e+00    3.024572e+00
  4.465193e+00    3.078005e+00
  4.481068e+00    3.114703e+00
  4.496944e+00    3.031020e+00
  4.512819e+00    3.105681e+00
  4.528695e+00    3.088328e+00
  4.544570e+00    3.112099e+00
  4.560446e+00    2.996541e+00
  4.576322e+00    3.082942e+00
  4.592197e+00    3.141770e+00
  4.608073e+00    3.120011e+00
  4.623948e+00    3.064903e+00
  4.639824e+00    3.153523e+00
  4.655699e+00    3.076478e+00
  4.671575e+00    3.076509e+00
  4.687451e+00    3.109468e+00
  4.703326e+00    3.131186e+00
  4.719202e+00    3.155622e+00
  4.735077e+00    3.129898e+00
  4.750953e+00    3.113557e+00
  4.766828e+00    3.121735e+00
  4.782704e+00    3.080585e+00
  4.798580e+00    3.117317e+00
  4.814455e+00    3.162029e+00
  4.830331e+00    3.085761e+00
  4.846206e+00    3.139604e+00
  4.862082e+00    3.149502e+00
  4.877957e+00    3.138708e+00
  4.893833e+00    3.156945e+00
  4.909709e+00    3.197359e+00
  4.925584e+00    3.144699e+00
  4.941460e+00    3.097729e+00
  4.957335e+00    3.108074e+00
  4.973211e+00    3.079002e+00
  4.989086e+00    3.083003e+00
  5.004962e+00    3.139875e+00
  5.020838e+00    3.161678e+00
  5.036713e+00    3.118918e+00
  5.052589e+00    3.130531e+00
  5.068464e+00    3.088124e+00
  5.084340e+00    3.107411e+00
  5.100216e+00    3.128544e+00
  5.116091e+00    3.095829e+00
  5.131967e+00    3.108584e+00
  5.147842e+00    3.120801e+00
  5.163718e+00    3.179914e+00
  5.179593e+00    3.193398e+00
  5.195469e+00    3.128045e+00
  5.211345e+00    3.075285e+00
  5.227220e+00    3.171587e+00
  5.243096e+00    3.215597e+00
  5.258971e+00    3.115435e+00
  5.274847e+00    3.143682e+00
  5.290722e+00    3.157954e+00
  5.306598e+00    3.119675e+00
  5.322474e+00    3.131627e+00
  5.338349e+00    3.105363e+00
  5.354225e+00    3.088362e+00
  5.370100e+00    3.139810e+00
  5.385976e+00    3.155076e+00
  5.401851e+00    3.088557e+00
  5.417727e+00    3.082521e+00
  5.433603e+00    3.202698e+00
  5.449478e+00    3.078003e+00
  5.465354e+00    3.102667e+00
  5.481229e+00    3.082653e+00
  5.497105e+00    3.037491e+00
  5.512980e+00    3.059541e+00
  5.528856e+00    3.078963e+00
  5.544732e+00    3.065784e+00
  5.560607e+00    3.091562e+00
  5.576483e+00    3.148867e+00
  5.592358e+00    3.084709e+00
  5.608234e+00    3.037832e+00
  5.624109e+00    3.096230e+00
  5.639985e+00    3.155518e+00
  5.655861e+00    3.087222e+00
  5.671736e+00    3.170946e+00
  5.687612e+00    3.105427e+00
  5.703487e+00    3.099209e+00
  5.719363e+00    3.058789e+00
  5.735238e+00    3.064664e+00
  5.751114e+00    3.044379e+00
  5.766990e+00    3.007361e+00
  5.782865e+00    3.076306e+00
  5.798741e+00    3.043005e+00
  5.814616e+00    3.030593e+00
  5.830492e+00    3.103268e+00
  5.846367e+00    3.055723e+00
  5.862243e+00    3.091070e+00
  5.878119e+00    3.061923e+00
  5.893994e+00    3.008387e+00
  5.909870e+00    3.021267e+00
  5.925745e+00    3.054840e+00
  5.941621e+00    3.034115e+00
  5.957497e+00    3.098241e+00
  5.973372e+00    3.107755e+00
  5.989248e+00    3.000694e+00
  6.005123e+00    2.981816e+00
  6.020999e+00    3.027370e+00
  6.036874e+00    3.031230e+00
  6.052750e+00    3.100636e+00
  6.068626e+00    3.103963e+00
  6.084501e+00    3.045473e+00
  6.100377e+00    3.096034e+00
  6.116252e+00    3.112715e+00
  6.132128e+00    3.073276e+00
  6.148003e+00    3.097689e+00
  6.163879e+00    3.081326e+00
  6.179755e+00    3.059745e+00
  6.195630e+00    3.007372e+00
  6.211506e+00    3.064204e+00
  6.227381e+00    3.122060e+00
  6.243257e+00    3.074289e+00
  6.259132e+00    3.109795e+00
  6.275008e+00    3.065470e+00
  6.290884e+00    3.090687e+00
  6.306759e+00    3.074101e+00
  6.322635e+00    3.022188e+00
  6.338510e+00    3.068528e+00
  6.354386e+00    3.082862e+00
  6.370261e+00    3.068765e+00
  6.386137e+00    3.028064e+00
  6.402013e+00    3.019243e+00
  6.417888e+00    3.056200e+00
  6.433764e+00    3.047490e+00
  6.449639e+00    3.078922e+00
  6.465515e+00    3.086697e+00
  6.481390e+00    3.115097e+00
  6.497266e+00    3.057376e+00
  6.513142e+00    3.101998e+00
  6.529017e+00    3.091766e+00
  6.544893e+00    3.047583e+00
  6.560768e+00    2.935532e+00
  6.576644e+00    3.037483e+00
  6.592519e+00    3.150600e+00
  6.608395e+00    3.071501e+00
  6.624271e+00    3.057677e+00
  6.640146e+00    3.025800e+00
  6.656022e+00    3.027658e+00
  6.671897e+00    3.087592e+00
  6.687773e+00    3.038409e+00
  6.703648e+00    2.995863e+00
  6.719524e+00    3.050275e+00
  6.735400e+00    3.142390e+00
  6.751275e+00    3.106987e+00
  6.767151e+00    3.068360e+00
  6.783026e+00    3.013713e+00
  6.798902e+00    3.041516e+00
  6.814777e+00    3.009835e+00
  6.830653e+00    3.066576e+00
  6.846529e+00    3.032658e+00
  6.862404e+00    2.994425e+00
  6.878280e+00    3.012976e+00
  6.894155e+00    3.046454e+00
  6.910031e+00    3.032075e+00
  6.925907e+00    3.031254e+00
  6.941782e+00    3.013363e+00
  6.957658e+00    3.041132e+00
  6.973533e+00    2.981752e+00
  6.989409e+00    3.002677e+00
  7.005284e+00    3.085987e+00
  7.021160e+00    3.103604e+00
  7.037036e+00    3.045542e+00
  7.052911e+00    3.112562e+00
  7.068787e+00    3.001976e+00
  7.084662e+00    3.042768e+00
  7.100538e+00    3.055048e+00
  7.116413e+00    3.027515e+00
  7.132289e+00    2.964332e+00
  7.148165e+00    3.032095e+00
  7.164040e+00    2.983594e+00
  7.179916e+00    3.072205e+00
  7.195791e+00    3.076160e+00
  7.211667e+00    3.070881e+00
  7.227542e+00    3.055325e+00
  7.243418e+00    2.995882e+00
  7.259294e+00    3.043651e+00
  7.275169e+00    3.100613e+00
  7.291045e+00    3.066813e+00
  7.306920e+00    2.954967e+00
  7.322796e+00    3.030890e+00
  7.338671e+00    3.074098e+00
  7.354547e+00    2.976316e+00
  7.370423e+00    2.970801e+00
  7.386298e+00    3.024172e+00
  7.402174e+00    3.028463e+00
  7.418049e+00    3.050555e+00
  7.433925e+00    3.028045e+00
  7.449800e+00    3.008318e+00
  7.465676e+00    3.011185e+00
  7.481552e+00    2.991645e+00
  7.497427e+00    2.991106e+00
  7.513303e+00    2.991657e+00
  7.529178e+00    3.000130e+00
  7.545054e+00    2.986726e+00
  7.560929e+00    3.025276e+00
  7.576805e+00    2.995952e+00
  7.592681e+00    2.927156e+00
  7.608556e+00    2.906285e+00
  7.624432e+00    2.935927e+00
  7.640307e+00    2.944899e+00
  7.656183e+00    2.972623e+00
  7.672058e+00    2.990353e+00
  7.687934e+00    2.939993e+00
  7.703810e+00    2.968831e+00
  7.719685e+00    3.036639e+00
  7.735561e+00    3.006180e+00
  7.751436e+00    2.932715e+00
  7.767312e+00    2.968264e+00
  7.783187e+00    2.942309e+00
  7.799063e+00    2.904673e+00
  7.814939e+00    2.993591e+00
  7.830814e+00    2.994646e+00
  7.846690e+00    3.045089e+00
  7.862565e+00    3.022787e+00
  7.878441e+00    2.987842e+00
  7.894317e+00    2.995736e+00
  7.910192e+00    2.917766e+00
  7.926068e+00    2.954503e+00
  7.941943e+00    2.967560e+00
  7.957819e+00    2.964019e+00
  7.973694e+00    2.967118e+00
  7.989570e+00    2.973979e+00
  8.005446e+00    2.973613e+00
  8.021321e+00    2.996007e+00
  8.037197e+00    2.983933e+00
  8.053072e+00    2.941278e+00
  8.068948e+00    2.926718e+00
  8.084823e+00    2.937776e+00
  8.100699e+00    2.935961e+00
  8.116575e+00    2.888637e+00
  8.132450e+00    2.943520e+00
  8.148326e+00    2.977127e+00
  8.164201e+00    2.984964e+00
  8.180077e+00    2.916270e+00
  8.195952e+00    2.919626e+00
  8.211828e+00    2.941148e+00
  8.227704e+00    2.964490e+00
  8.243579e+00    2.970776e+00
  8.259455e+00    2.907313e+00
  8.275330e+00    2.948346e+00
  8.291206e+00    2.928774e+00
  8.307081e+00    2.922557e+00
  8.322957e+00    2.894135e+00
  8.338833e+00    2.845600e+00
  8.354708e+00    2.860480e+00
  8.370584e+00    2.948219e+00
  8.386459e+00    2.979403e+00
  8.402335e+00    2.955320e+00
  8.418210e+00    2.892955e+00
  8.434086e+00    2.946664e+00
  8.449962e+00    2.942559e+00
  8.465837e+00    2.929161e+00
  8.481713e+00    2.907489e+00
  8.497588e+00    2.926251e+00
  8.513464e+00    2.933725e+00
  8.529339e+00    2.896327e+00
  8.545215e+00    2.920361e+00
  8.561091e+00    2.908717e+00
  8.576966e+00    2.899350e+00
  8.592842e+00    2.876424e+00
  8.608717e+00    2.880303e+00
  8.624593e+00    2.942725e+00
  8.640468e+00    2.931381e+00
  8.656344e+00    2.887965e+00
  8.672220e+00    2.832165e+00
  8.688095e+00    2.825267e+00
  8.703971e+00    2.864606e+00
  8.719846e+00    2.899283e+00
  8.735722e+00    2.879168e+00
  8.751598e+00    2.845785e+00
  8.767473e+00    2.864563e+00
  8.783349e+00    2.867758e+00
  8.799224e+00    2.886959e+00
  8.815100e+00    2.895559e+00
  8.830975e+00    2.859752e+00
  8.846851e+00    2.838544e+00
  8.862727e+00    2.891144e+00
  8.878602e+00    2.849987e+00
  8.894478e+00    2.800439e+00
  8.910353e+00    2.889126e+00
  8.926229e+00    2.834850e+00
  8.942104e+00    2.865784e+00
  8.957980e+00    2.859517e+00
  8.973856e+00    2.769228e+00
  8.989731e+00    2.784089e+00
  9.005607e+00    2.811568e+00
  9.021482e+00    2.849993e+00
  9.037358e+00    2.828992e+00
  9.053233e+00    2.827198e+00
  9.069109e+00    2.803235e+00
  9.084985e+00    2.855963e+00
  9.100860e+00    2.854435e+00
  9.116736e+00    2.825496e+00
  9.132611e+00    2.837402e+00
  9.148487e+00    2.806060e+00
  9.164362e+00    2.881842e+00
  9.180238e+00    2.818642e+00
  9.196114e+00    2.752398e+00
  9.211989e+00    2.747823e+00
  9.227865e+00    2.764689e+00
  9.243740e+00    2.738448e+00
  9.259616e+00    2.783640e+00
  9.275491e+00    2.839029e+00
  9.291367e+00    2.821072e+00
  9.307243e+00    2.751880e+00
  9.323118e+00    2.760182e+00
  9.338994e+00    2.811012e+00
  9.354869e+00    2.803725e+00
  9.370745e+00    2.767727e+00
  9.386620e+00    2.788611e+00
  9.402496e+00    2.770487e+00
  9.418372e+00    2.788123e+00
  9.434247e+00    2.770218e+00
  9.450123e+00    2.704543e+00
  9.465998e+00    2.787609e+00
  9.481874e+00    2.833257e+00
  9.497749e+00    2.789360e+00
  9.513625e+00    2.753359e+00
  9.529501e+00    2.734288e+00
  9.545376e+00    2.807166e+00
  9.561252e+00    2.823656e+00
  9.577127e+00    2.765416e+00
  9.593003e+00    2.782924e+00
  9.608878e+00    2.813164e+00
  9.624754e+00    2.816200e+00
  9.640630e+00    2.786421e+00
  9.656505e+00    2.727496e+00
  9.672381e+00    2.687006e+00
  9.688256e+00    2.763815e+00
  9.704132e+00    2.810210e+00
  9.720008e+00    2.770648e+00
  9.735883e+00    2.730807e+00
  9.751759e+00    2.736891e+00
  9.767634e+00    2.730852e+00
  9.783510e+00    2.699602e+00
  9.799385e+00    2.652112e+00
  9.815261e+00    2.668783e+00
  9.831137e+00    2.637503e+00
  9.847012e+00    2.658578e+00
  9.862888e+00    2.661770e+00
  9.878763e+00    2.663066e+00
  9.894639e+00    2.680221e+00
  9.910514e+00    2.716509e+00
  9.926390e+00    2.710135e+00
  9.942266e+00    2.711668e+00
  9.958141e+00    2.699944e+00
  9.974017e+00    2.654808e+00
  9.989892e+00    2.728543e+00
  1.000577e+01    2.730039e+00
  1.002164e+01    2.722777e+00
  1.003752e+01    2.734683e+00
  1.005339e+01    2.661992e+00
  1.006927e+01    2.659014e+00
  1.008515e+01    2.677441e+00
  1.010102e+01    2.673029e+00
  1.011690e+01    2.687803e+00
  1.013277e+01    2.677141e+00
  1.014865e+01    2.663385e+00
  1.016452e+01    2.663475e+00
  1.018040e+01    2.618988e+00
  1.019627e+01    2.606154e+00
  1.021215e+01    2.624463e+00
  1.022803e+01    2.666068e+00
  1.024390e+01    2.674175e+00
  1.025978e+01    2.647998e+00
  1.027565e+01    2.645941e+00
  1.029153e+01    2.623323e+00
  1.030740e+01    2.619826e+00
  1.032328e+01    2.646445e+00
  1.033915e+01    2.666147e+00
  1.035503e+01    2.636975e+00
  1.037091e+01    2.703723e+00
  1.038678e+01    2.692274e+00
  1.040266e+01    2.646375e+00
  1.041853e+01    2.625332e+00
  1.043441e+01    2.594299e+00
  1.045028e+01    2.577787e+00
  1.046616e+01    2.592006e+00
  1.048204e+01    2.623847e+00
  1.049791e+01    2.632171e+00
  1.051379e+01    2.586114e+00
  1.052966e+01    2.644713e+00
  1.054554e+01    2.640338e+00
  1.056141e+01    2.641820e+00
  1.057729e+01    2.635608e+00
  1.059316e+01    2.569501e+00
  1.060904e+01    2.565527e+00
  1.062492e+01    2.601432e+00
  1.064079e+01    2.626208e+00
  1.065667e+01    2.550825e+00
  1.067254e+01    2.574840e+00
  1.068842e+01    2.579773e+00
  1.070429e+01    2.594997e+00
  1.072017e+01    2.568303e+00
  1.073604e+01    2.531197e+00
  1.075192e+01    2.570474e+00
  1.076780e+01    2.520135e+00
  1.078367e+01    2.539634e+00
  1.079955e+01    2.622732e+00
  1.081542e+01    2.588685e+00
  1.083130e+01    2.548660e+00
  1.084717e+01    2.492993e+00
  1.086305e+01    2.522576e+00
  1.087892e+01    2.508771e+00
  1.089480e+01    2.514643e+00
  1.091068e+01    2.539276e+00
  1.092655e+01    2.521922e+00
  1.094243e+01    2.548256e+00
  1.095830e+01    2.540553e+00
  1.097418e+01    2.507668e+00
  1.099005e+01    2.521338e+00
  1.100593e+01    2.534618e+00
  1.102180e+01    2.507200e+00
  1.103768e+01    2.502271e+00
  1.105356e+01    2.489532e+00
  1.106943e+01    2.485772e+00
  1.108531e+01    2.483697e+00
  1.110118e+01    2.501228e+00
  1.111706e+01    2.512348e+00
  1.113293e+01    2.521337e+00
  1.114881e+01    2.467666e+00
  1.116468e+01    2.483881e+00
  1.118056e+01    2.478689e+00
  1.119644e+01    2.457940e+00
  1.121231e+01    2.454067e+00
  1.122819e+01    2.458926e+00
  1.124406e+01    2.458317e+00
  1.125994e+01    2.447203e+00
  1.127581e+01    2.425163e+00
  1.129169e+01    2.399674e+00
  1.130756e+01    2.440592e+00
  1.132344e+01    2.450303e+00
  1.133932e+01    2.428126e+00
  1.135519e+01    2.421696e+00
  1.137107e+01    2.447530e+00
  1.138694e+01    2.396311e+00
  1.140282e+01    2.398462e+00
  1.141869e+01    2.376877e+00
  1.143457e+01    2.443208e+00
  1.145045e+01    2.404307e+00
  1.146632e+01    2.426316e+00
  1.148220e+01    2.434755e+00
  1.149807e+01    2.416199e+00
  1.151395e+01    2.394703e+00
  1.152982e+01    2.416736e+00
  1.154570e+01    2.429454e+00
  1.156157e+01    2.381277e+00
  1.157745e+01    2.394348e+00
  1.159333e+01    2.402098e+00
  1.160920e+01    2.390762e+00
  1.162508e+01    2.399175e+00
  1.164095e+01    2.409751e+00
  1.165683e+01    2.428811e+00
  1.167270e+01    2.443158e+00
  1.168858e+01    2.387732e+00
  1.170445e+01    2.393913e+00
  1.172033e+01    2.388553e+00
  1.173621e+01    2.391574e+00
  1.175208e+01    2.369075e+00
  1.176796e+01    2.344911e+00
  1.178383e+01    2.383377e+00
  1.179971e+01    2.427081e+00
  1.181558e+01    2.391806e+00
  1.183146e+01    2.340743e+00
  1.184733e+01    2.328639e+00
  1.186321e+01    2.332379e+00
  1.187909e+01    2.359870e+00
  1.189496e+01    2.381403e+00
  1.191084e+01    2.348152e+00
  1.192671e+01    2.328309e+00
  1.194259e+01    2.343153e+00
  1.195846e+01    2.349217e+00
  1.197434e+01    2.333262e+00
  1.199021e+01    2.366878e+00
  1.200609e+01    2.414652e+00
  1.202197e+01    2.354225e+00
  1.203784e+01    2.335469e+00
  1.205372e+01    2.317287e+00
  1.206959e+01    2.317909e+00
  1.208547e+01    2.290253e+00
  1.210134e+01    2.326233e+00
  1.211722e+01    2.316960e+00
  1.213309e+01    2.320715e+00
  1.214897e+01    2.255709e+00
  1.216485e+01    2.291828e+00
  1.218072e+01    2.317167e+00
  1.219660e+01    2.289752e+00
  1.221247e+01    2.310157e+00
  1.222835e+01    2.305026e+00
  1.224422e+01    2.299349e+00
  1.226010e+01    2.296542e+00
  1.227597e+01    2.325388e+00
  1.229185e+01    2.369637e+00
  1.230773e+01    2.337457e+00
  1.232360e+01    2.292810e+00
  1.233948e+01    2.327237e+00
  1.235535e+01    2.344786e+00
  1.237123e+01    2.366915e+00
  1.238710e+01    2.355168e+00
  1.240298e+01    2.370047e+00
  1.241886e+01    2.366884e+00
  1.243473e+01    2.358814e+00
  1.245061e+01    2.343469e+00
  1.246648e+01    2.366241e+00
  1.248236e+01    2.336325e+00
  1.249823e+01    2.321322e+00
  1.251411e+01    2.343889e+00
  1.252998e+01    2.366995e+00
  1.254586e+01    2.343933e+00
  1.256174e+01    2.398369e+00
  1.257761e+01    2.363602e+00
  1.259349e+01    2.351577e+00
  1.260936e+01    2.359689e+00
  1.262524e+01    2.380781e+00
  1.264111e+01    2.402487e+00
  1.265699e+01    2.481457e+00
  1.267286e+01    2.467046e+00
  1.268874e+01    2.437074e+00
  1.270462e+01    2.488807e+00
  1.272049e+01    2.551034e+00
  1.273637e+01    2.544291e+00
  1.275224e+01    2.505661e+00
  1.276812e+01    2.494457e+00
  1.278399e+01    2.588127e+00
  1.279987e+01    2.684707e+00
  1.281574e+01    2.718219e+00
  1.283162e+01    2.740199e+00
  1.284750e+01    2.817846e+00
  1.286337e+01    2.908549e+00
  1.287925e+01    2.991283e+00
  1.289512e+01    3.121488e+00
  1.291100e+01    3.287257e+00
  1.292687e+01    3.442601e+00
  1.294275e+01    3.745672e+00
  1.295862e+01    3.989492e+00
  1.297450e+01    4.368770e+00
  1.299038e+01    4.875628e+00
  1.300625e+01    5.476411e+00
  1.302213e+01    6.189722e+00
  1.303800e+01    7.024440e+00
  1.305388e+01    8.159597e+00
  1.306975e+01    9.481527e+00
  1.308563e+01    1.068436e+01
  1.310150e+01    1.184621e+01
  1.311738e+01    1.296684e+01
  1.313326e+01    1.401618e+01
  1.314913e+01    1.491687e+01
  1.316501e+01    1.567640e+01
  1.318088e+01    1.586268e+01
  1.319676e+01    1.535349e+01
  1.321263e+01    1.409150e+01
  1.322851e+01    1.237455e+01
  1.324438e+01    1.044244e+01
  1.326026e+01    8.916795e+00
  1.327614e+01    7.528443e+00
  1.329201e+01    6.348563e+00
  1.330789e+01    5.614145e+00
  1.332376e+01    5.050418e+00
  1.333964e+01    4.505685e+00
  1.335551e+01    4.061589e+00
  1.337139e+01    3.728985e+00
  1.338727e+01    3.552844e+00
  1.340314e+01    3.280173e+00
  1.341902e+01    3.158103e+00
  1.343489e+01    3.039005e+00
  1.345077e+01    2.911559e+00
  1.346664e+01    2.753052e+00
  1.348252e+01    2.683482e+00
  1.349839e+01    2.663493e+00
  1.351427e+01    2.519851e+00
  1.353015e+01    2.504407e+00
  1.354602e+01    2.491421e+00
  1.356190e+01    2.476367e+00
  1.357777e+01    2.450509e+00
  1.359365e+01    2.360631e+00
  1.360952e+01    2.320436e+00
  1.362540e+01    2.316539e+00
  1.364127e+01    2.315787e+00
  1.365715e+01    2.297525e+00
  1.367303e+01    2.247009e+00
  1.368890e+01    2.239048e+00
  1.370478e+01    2.246673e+00
  1.372065e+01    2.253331e+00
  1.373653e+01    2.223707e+00
  1.375240e+01    2.209815e+00
  1.376828e+01    2.164791e+00
  1.378415e+01    2.148532e+00
  1.380003e+01    2.158644e+00
  1.381591e+01    2.143429e+00
  1.383178e+01    2.139477e+00
  1.384766e+01    2.092573e+00
  1.386353e+01    2.087122e+00
  1.387941e+01    2.099058e+00
  1.389528e+01    2.101467e+00
  1.391116e+01    2.119573e+00
  1.392703e+01    2.134428e+00
  1.394291e+01    2.136674e+00
  1.395879e+01    2.091445e+00
  1.397466e+01    2.080117e+00
  1.399054e+01    2.056236e+00
  1.400641e+01    2.062976e+00
  1.402229e+01    2.070093e+00
  1.403816e+01    2.041133e+00
  1.405404e+01    2.051584e+00
  1.406991e+01    2.021309e+00
  1.408579e+01    2.005001e+00
  1.410167e+01    2.010736e+00
  1.411754e+01    2.003194e+00
  1.413342e+01    2.012578e+00
  1.414929e+01    1.987056e+00
  1.416517e+01    2.012074e+00
  1.418104e+01    2.034463e+00
  1.419692e+01    2.016512e+00
  1.421279e+01    1.958403e+00
  1.422867e+01    1.982061e+00
  1.424455e+01    2.045529e+00
  1.426042e+01    2.016460e+00
  1.427630e+01    1.966189e+00
  1.429217e+01    1.966870e+00
  1.430805e+01    1.946890e+00
  1.432392e+01    1.964072e+00
  1.433980e+01    1.904345e+00
  1.435568e+01    1.946086e+00
  1.437155e+01    1.976882e+00
  1.438743e+01    1.947174e+00
  1.440330e+01    1.937821e+00
  1.441918e+01    1.997702e+00
  1.443505e+01    2.002683e+00
  1.445093e+01    1.969021e+00
  1.446680e+01    1.915982e+00
  1.448268e+01    1.916450e+00
  1.449856e+01    1.920657e+00
  1.451443e+01    1.903351e+00
  1.453031e+01    1.924384e+00
  1.454618e+01    1.965729e+00
  1.456206e+01    1.934552e+00
  1.457793e+01    1.908462e+00
  1.459381e+01    1.901165e+00
  1.460968e+01    1.918303e+00
  1.462556e+01    1.926825e+00
  1.464144e+01    1.938311e+00
  1.465731e+01    1.921968e+00
  1.467319e+01    1.891275e+00
  1.468906e+01    1.911069e+00
  1.470494e+01    1.935597e+00
  1.472081e+01    1.899954e+00
  1.473669e+01    1.916111e+00
  1.475256e+01    1.930932e+00
  1.476844e+01    1.927392e+00
  1.478432e+01    1.907708e+00
  1.480019e+01    1.923419e+00
  1.481607e+01    1.921017e+00
  1.483194e+01    1.948622e+00
  1.484782e+01    1.953752e+00
  1.486369e+01    1.950221e+00
  1.487957e+01    1.930372e+00
  1.489544e+01    1.990189e+00
  1.491132e+01    2.003483e+00
  1.492720e+01    2.016259e+00
  1.494307e+01    2.032015e+00
  1.495895e+01    2.072814e+00
  1.497482e+01    2.091698e+00
  1.499070e+01    2.078808e+00
  1.500657e+01    2.161196e+00
  1.502245e+01    2.275605e+00
  1.503832e+01    2.329406e+00
  1.505420e+01    2.427081e+00
  1.507008e+01    2.540404e+00
  1.508595e+01    2.672618e+00
  1.510183e+01    2.879056e+00
  1.511770e+01    3.146144e+00
  1.513358e+01    3.471835e+00
  1.514945e+01    3.739497e+00
  1.516533e+01    4.130446e+00
  1.518120e+01    4.493490e+00
  1.519708e+01    4.766659e+00
  1.521296e+01    5.039430e+00
  1.522883e+01    5.265811e+00
  1.524471e+01    5.411115e+00
  1.526058e+01    5.540846e+00
  1.527646e+01    5.507497e+00
  1.529233e+01    5.306505e+00
  1.530821e+01    4.930119e+00
  1.532409e+01    4.395883e+00
  1.533996e+01    3.866924e+00
  1.535584e+01    3.511443e+00
  1.537171e+01    3.162225e+00
  1.538759e+01    2.846802e+00
  1.540346e+01    2.674864e+00
  1.541934e+01    2.485549e+00
  1.543521e+01    2.341527e+00
  1.545109e+01    2.238283e+00
  1.546697e+01    2.165825e+00
  1.548284e+01    2.106987e+00
  1.549872e+01    2.034735e+00
  1.551459e+01    1.963944e+00
  1.553047e+01    1.956638e+00
  1.554634e+01    1.917398e+00
  1.556222e+01    1.912296e+00
  1.557809e+01    1.909356e+00
  1.559397e+01    1.887327e+00
  1.560985e+01    1.844827e+00
  1.562572e+01    1.783229e+00
  1.564160e+01    1.794628e+00
  1.565747e+01    1.775282e+00
  1.567335e+01    1.784610e+00
  1.568922e+01    1.744741e+00
  1.570510e+01    1.738550e+00
  1.572097e+01    1.717104e+00
  1.573685e+01    1.699010e+00
  1.575273e+01    1.684500e+00
  1.576860e+01    1.698200e+00
  1.578448e+01    1.656860e+00
  1.580035e+01    1.665124e+00
  1.581623e+01    1.671481e+00
  1.583210e+01    1.670339e+00
  1.584798e+01    1.650032e+00
  1.586385e+01    1.639265e+00
  1.587973e+01    1.638529e+00
  1.589561e+01    1.631556e+00
  1.591148e+01    1.633779e+00
  1.592736e+01    1.612705e+00
  1.594323e+01    1.641902e+00
  1.595911e+01    1.634696e+00
  1.597498e+01    1.615036e+00
  1.599086e+01    1.614090e+00
  1.600673e+01    1.632002e+00
  1.602261e+01    1.616809e+00
  1.603849e+01    1.617392e+00
  1.605436e+01    1.603438e+00
  1.607024e+01    1.588684e+00
  1.608611e+01    1.614822e+00
  1.610199e+01    1.598910e+00
  1.611786e+01    1.589363e+00
  1.613374e+01    1.605406e+00
  1.614961e+01    1.599675e+00
  1.616549e+01    1.585085e+00
  1.618137e+01    1.580375e+00
  1.619724e+01    1.586187e+00
  1.621312e+01    1.566119e+00
  1.622899e+01    1.550624e+00
  1.624487e+01    1.570418e+00
  1.626074e+01    1.578245e+00
  1.627662e+01    1.557357e+00
  1.629250e+01    1.536131e+00
  1.630837e+01    1.546131e+00
  1.632425e+01    1.541887e+00
  1.634012e+01    1.561155e+00
  1.635600e+01    1.537229e+00
  1.637187e+01    1.545234e+00
  1.638775e+01    1.531558e+00
  1.640362e+01    1.523555e+00
  1.641950e+01    1.513563e+00
  1.643538e+01    1.536048e+00
  1.645125e+01    1.529094e+00
  1.646713e+01    1.538278e+00
  1.648300e+01    1.541242e+00
  1.649888e+01    1.543426e+00
  1.651475e+01    1.503379e+00
  1.653063e+01    1.459349e+00
  1.654650e+01    1.499924e+00
  1.656238e+01    1.528966e+00
  1.657826e+01    1.506863e+00
  1.659413e+01    1.488881e+00
  1.661001e+01    1.519694e+00
  1.662588e+01    1.497449e+00
  1.664176e+01    1.491986e+00
  1.665763e+01    1.498898e+00
  1.667351e+01    1.464082e+00
  1.668938e+01    1.492739e+00
  1.670526e+01    1.460376e+00
  1.672114e+01    1.486131e+00
  1.673701e+01    1.475482e+00
  1.675289e+01    1.462138e+00
  1.676876e+01    1.495950e+00
  1.678464e+01    1.487120e+00
  1.680051e+01    1.454279e+00
  1.681639e+01    1.488334e+00
  1.683226e+01    1.459964e+00
  1.684814e+01    1.492762e+00
  1.686402e+01    1.497054e+00
  1.687989e+01    1.499777e+00
  1.689577e+01    1.506303e+00
  1.691164e+01    1.521253e+00
  1.692752e+01    1.451944e+00
  1.694339e+01    1.420483e+00
  1.695927e+01    1.406129e+00
  1.697514e+01    1.434023e+00
  1.699102e+01    1.451903e+00
  1.700690e+01    1.414535e+00
  1.702277e+01    1.429622e+00
  1.703865e+01    1.452738e+00
  1.705452e+01    1.405348e+00
  1.707040e+01    1.419653e+00
  1.708627e+01    1.419875e+00
  1.710215e+01    1.427721e+00
  1.711802e+01    1.405370e+00
  1.713390e+01    1.438385e+00
  1.714978e+01    1.413529e+00
  1.716565e+01    1.399328e+00
  1.718153e+01    1.425585e+00
  1.719740e+01    1.429212e+00
  1.721328e+01    1.420416e+00
  1.722915e+01    1.439395e+00
  1.724503e+01    1.425923e+00
  1.726091e+01    1.421775e+00
  1.727678e+01    1.373590e+00
  1.729266e+01    1.391199e+00
  1.730853e+01    1.404104e+00
  1.732441e+01    1.378173e+00
  1.734028e+01    1.389507e+00
  1.735616e+01    1.402002e+00
  1.737203e+01    1.400818e+00
  1.738791e+01    1.362041e+00
  1.740379e+01    1.368767e+00
  1.741966e+01    1.387459e+00
  1.743554e+01    1.378484e+00
  1.745141e+01    1.371558e+00
  1.746729e+01    1.379009e+00
  1.748316e+01    1.386806e+00
  1.749904e+01    1.396518e+00
  1.751491e+01    1.366772e+00
  1.753079e+01    1.388901e+00
  1.754667e+01    1.377413e+00
  1.756254e+01    1.343271e+00
  1.757842e+01    1.348921e+00
  1.759429e+01    1.374577e+00
  1.761017e+01    1.351614e+00
  1.762604e+01    1.364373e+00
  1.764192e+01    1.374980e+00
  1.765779e+01    1.339936e+00
  1.767367e+01    1.366133e+00
  1.768955e+01    1.373250e+00
  1.770542e+01    1.352549e+00
  1.772130e+01    1.351644e+00
  1.773717e+01    1.326060e+00
  1.775305e+01    1.344857e+00
  1.776892e+01    1.355259e+00
  1.778480e+01    1.325947e+00
  1.780067e+01    1.331228e+00
  1.781655e+01    1.310859e+00
  1.783243e+01    1.324884e+00
  1.784830e+01    1.342959e+00
  1.786418e+01    1.309041e+00
  1.788005e+01    1.307013e+00
  1.789593e+01    1.295416e+00
  1.791180e+01    1.360038e+00
  1.792768e+01    1.329548e+00
  1.794355e+01    1.338705e+00
  1.795943e+01    1.318223e+00
  1.797531e+01    1.312665e+00
  1.799118e+01    1.307664e+00
  1.800706e+01    1.314926e+00
  1.802293e+01    1.313801e+00
  1.803881e+01    1.270010e+00
  1.805468e+01    1.307252e+00
  1.807056e+01    1.303651e+00
  1.808643e+01    1.296548e+00
  1.810231e+01    1.303437e+00
  1.811819e+01    1.319723e+00
  1.813406e+01    1.318767e+00
  1.814994e+01    1.293399e+00
  1.816581e+01    1.294900e+00
  1.818169e+01    1.283303e+00
  1.819756e+01    1.280559e+00
  1.821344e+01    1.285423e+00
  1.822932e+01    1.285291e+00
  1.824519e+01    1.326260e+00
  1.826107e+01    1.295977e+00
  1.827694e+01    1.276778e+00
  1.829282e+01    1.269932e+00
  1.830869e+01    1.264349e+00
  1.832457e+01    1.266115e+00
  1.834044e+01    1.251539e+00
  1.835632e+01    1.279498e+00
  1.837220e+01    1.283893e+00
  1.838807e+01    1.257885e+00
  1.840395e+01    1.278523e+00
  1.841982e+01    1.273454e+00
  1.843570e+01    1.276147e+00
  1.845157e+01    1.251000e+00
  1.846745e+01    1.252466e+00
  1.848332e+01    1.227961e+00
  1.849920e+01    1.262000e+00
  1.851508e+01    1.268770e+00
  1.853095e+01    1.265139e+00
  1.854683e+01    1.235391e+00
  1.856270e+01    1.245957e+00
  1.857858e+01    1.239322e+00
  1.859445e+01    1.253395e+00
  1.861033e+01    1.252936e+00
  1.862620e+01    1.283453e+00
  1.864208e+01    1.266869e+00
  1.865796e+01    1.241718e+00
  1.867383e+01    1.254344e+00
  1.868971e+01    1.263779e+00
  1.870558e+01    1.233332e+00
  1.872146e+01    1.235091e+00
  1.873733e+01    1.241564e+00
  1.875321e+01    1.258451e+00
  1.876908e+01    1.239160e+00
  1.878496e+01    1.217960e+00
  1.880084e+01    1.223104e+00
  1.881671e+01    1.245044e+00
  1.883259e+01    1.226450e+00
  1.884846e+01    1.201834e+00
  1.886434e+01    1.200956e+00
  1.888021e+01    1.209563e+00
  1.889609e+01    1.226382e+00
  1.891196e+01    1.211205e+00
  1.892784e+01    1.241945e+00
  1.894372e+01    1.201266e+00
  1.895959e+01    1.187629e+00
  1.897547e+01    1.192110e+00
  1.899134e+01    1.189894e+00
  1.900722e+01    1.183312e+00
  1.902309e+01    1.189744e+00
  1.903897e+01    1.198546e+00
  1.905484e+01    1.206029e+00
  1.907072e+01    1.194312e+00
  1.908660e+01    1.194375e+00
  1.910247e+01    1.167781e+00
  1.911835e+01    1.178361e+00
  1.913422e+01    1.160056e+00
  1.915010e+01    1.179499e+00
  1.916597e+01    1.170989e+00
  1.918185e+01    1.190122e+00
  1.919773e+01    1.183592e+00
  1.921360e+01    1.174649e+00
  1.922948e+01    1.197437e+00
  1.924535e+01    1.180271e+00
  1.926123e+01    1.183374e+00
  1.927710e+01    1.217058e+00
  1.929298e+01    1.187847e+00
  1.930885e+01    1.186654e+00
  1.932473e+01    1.195362e+00
  1.934061e+01    1.167221e+00
  1.935648e+01    1.133632e+00
  1.937236e+01    1.133647e+00
  1.938823e+01    1.171636e+00
  1.940411e+01    1.194116e+00
  1.941998e+01    1.187346e+00
  1.943586e+01    1.182447e+00
  1.945173e+01    1.180574e+00
  1.946761e+01    1.189531e+00
  1.948349e+01    1.180291e+00
  1.949936e+01    1.180561e+00
  1.951524e+01    1.167778e+00
  1.953111e+01    1.145464e+00
  1.954699e+01    1.174632e+00
  1.956286e+01    1.160258e+00
  1.957874e+01    1.152086e+00
  1.959461e+01    1.149025e+00
  1.961049e+01    1.167366e+00
  1.962637e+01    1.148855e+00
  1.964224e+01    1.160370e+00
  1.965812e+01    1.161383e+00
  1.967399e+01    1.164165e+00
  1.968987e+01    1.153390e+00
  1.970574e+01    1.141411e+00
  1.972162e+01    1.122296e+00
  1.973749e+01    1.121848e+00
  1.975337e+01    1.121291e+00
  1.976925e+01    1.137183e+00
  1.978512e+01    1.143502e+00
  1.980100e+01    1.140828e+00
  1.981687e+01    1.126461e+00
  1.983275e+01    1.139176e+00
  1.984862e+01    1.131549e+00
  1.986450e+01    1.134818e+00
  1.988037e+01    1.120791e+00
  1.989625e+01    1.115085e+00
  1.991213e+01    1.149760e+00
  1.992800e+01    1.144509e+00
  1.994388e+01    1.118689e+00
  1.995975e+01    1.117238e+00
  1.997563e+01    1.129235e+00
  1.999150e+01    1.118215e+00
  2.000738e+01    1.089149e+00
  2.002325e+01    1.096224e+00
  2.003913e+01    1.128518e+00
  2.005501e+01    1.097913e+00
  2.007088e+01    1.113641e+00
  2.008676e+01    1.122019e+00
  2.010263e+01    1.119021e+00
  2.011851e+01    1.115836e+00
  2.013438e+01    1.110817e+00
  2.015026e+01    1.094523e+00
  2.016614e+01    1.121042e+00
  2.018201e+01    1.119370e+00
  2.019789e+01    1.121375e+00
  2.021376e+01    1.137070e+00
  2.022964e+01    1.098011e+00
  2.024551e+01    1.110392e+00
  2.026139e+01    1.081377e+00
  2.027726e+01    1.096764e+00
  2.029314e+01    1.094369e+00
  2.030902e+01    1.092121e+00
  2.032489e+01    1.084636e+00
  2.034077e+01    1.081284e+00
  2.035664e+01    1.092630e+00
  2.037252e+01    1.101583e+00
  2.038839e+01    1.085494e+00
  2.040427e+01    1.083577e+00
  2.042014e+01    1.077777e+00
  2.043602e+01    1.088194e+00
  2.045190e+01    1.097165e+00
  2.046777e+01    1.090927e+00
  2.048365e+01    1.079226e+00
  2.049952e+01    1.077033e+00
  2.051540e+01    1.073254e+00
  2.053127e+01    1.065520e+00
  2.054715e+01    1.079480e+00
  2.056302e+01    1.079776e+00
  2.057890e+01    1.096697e+00
  2.059478e+01    1.106521e+00
  2.061065e+01    1.063333e+00
  2.062653e+01    1.071719e+00
  2.064240e+01    1.067184e+00
  2.065828e+01    1.055161e+00
  2.067415e+01    1.085058e+00
  2.069003e+01    1.078130e+00
  2.070590e+01    1.055785e+00
  2.072178e+01    1.080183e+00
  2.073766e+01    1.106429e+00
  2.075353e+01    1.086510e+00
  2.076941e+01    1.073305e+00
  2.078528e+01    1.077817e+00
  2.080116e+01    1.072422e+00
  2.081703e+01    1.104620e+00
  2.083291e+01    1.081702e+00
  2.084878e+01    1.068213e+00
  2.086466e+01    1.065337e+00
  2.088054e+01    1.064230e+00
  2.089641e+01    1.100043e+00
  2.091229e+01    1.108006e+00
  2.092816e+01    1.087421e+00
  2.094404e+01    1.103866e+00
  2.095991e+01    1.098261e+00
  2.097579e+01    1.075592e+00
  2.099166e+01    1.071340e+00
  2.100754e+01    1.074746e+00
  2.102342e+01    1.077096e+00
  2.103929e+01    1.060976e+00
  2.105517e+01    1.068751e+00
  2.107104e+01    1.110706e+00
  2.108692e+01    1.105602e+00
  2.110279e+01    1.099038e+00
  2.111867e+01    1.088230e+00
  2.113455e+01    1.071695e+00
  2.115042e+01    1.061428e+00
  2.116630e+01    1.064941e+00
  2.118217e+01    1.103378e+00
  2.119805e+01    1.120954e+00
  2.121392e+01    1.117477e+00
  2.122980e+01    1.122695e+00
  2.124567e+01    1.092792e+00
  2.126155e+01    1.084207e+00
  2.127743e+01    1.108957e+00
  2.129330e+01    1.104898e+00
  2.130918e+01    1.104155e+00
  2.132505e+01    1.102243e+00
  2.134093e+01    1.131945e+00
  2.135680e+01    1.158198e+00
  2.137268e+01    1.148407e+00
  2.138855e+01    1.147071e+00
  2.140443e+01    1.148383e+00
  2.142031e+01    1.165914e+00
  2.143618e+01    1.191123e+00
  2.145206e+01    1.222549e+00
  2.146793e+01    1.230569e+00
  2.148381e+01    1.255046e+00
  2.149968e+01    1.250429e+00
  2.151556e+01    1.317490e+00
  2.153143e+01    1.344256e+00
  2.154731e+01    1.385748e+00
  2.156319e+01    1.412061e+00
  2.157906e+01    1.435930e+00
  2.159494e+01    1.531174e+00
  2.161081e+01    1.614975e+00
  2.162669e+01    1.715824e+00
  2.164256e+01    1.830289e+00
  2.165844e+01    1.953760e+00
  2.167431e+01    2.117145e+00
  2.169019e+01    2.310162e+00
  2.170607e+01    2.569434e+00
  2.172194e+01    2.873294e+00
  2.173782e+01    3.282438e+00
  2.175369e+01    3.746415e+00
  2.176957e+01    4.306704e+00
  2.178544e+01    4.883408e+00
  2.180132e+01    5.505512e+00
  2.181719e+01    6.168442e+00
  2.183307e+01    6.835822e+00
  2.184895e+01    7.459496e+00
  2.186482e+01    8.069279e+00
  2.188070e+01    8.584119e+00
  2.189657e+01    8.845780e+00
  2.191245e+01    8.668880e+00
  2.192832e+01    8.190221e+00
  2.194420e+01    7.436355e+00
  2.196007e+01    6.516069e+00
  2.197595e+01    5.622919e+00
  2.199183e+01    4.808849e+00
  2.200770e+01    4.031909e+00
  2.202358e+01    3.473222e+00
  2.203945e+01    3.024110e+00
  2.205533e+01    2.712598e+00
  2.207120e+01    2.397036e+00
  2.208708e+01    2.173741e+00
  2.210296e+01    1.992394e+00
  2.211883e+01    1.856815e+00
  2.213471e+01    1.745398e+00
  2.215058e+01    1.631059e+00
  2.216646e+01    1.535344e+00
  2.218233e+01    1.460661e+00
  2.219821e+01    1.395873e+00
  2.221408e+01    1.334780e+00
  2.222996e+01    1.302483e+00
  2.224584e+01    1.280939e+00
  2.226171e+01    1.221335e+00
  2.227759e+01    1.204009e+00
  2.229346e+01    1.193046e+00
  2.230934e+01    1.163382e+00
  2.232521e+01    1.131065e+00
  2.234109e+01    1.108702e+00
  2.235696e+01    1.114175e+00
  2.237284e+01    1.100350e+00
  2.238872e+01    1.099024e+00
  2.240459e+01    1.076531e+00
  2.242047e+01    1.065883e+00
  2.243634e+01    1.061819e+00
  2.245222e+01    1.055578e+00
  2.246809e+01    1.038417e+00
  2.248397e+01    1.027815e+00
  2.249984e+01    1.025241e+00
  2.251572e+01    1.010883e+00
  2.253160e+01    1.012518e+00
  2.254747e+01    1.007489e+00
  2.256335e+01    9.916422e-01
  2.257922e+01    9.894013e-01
  2.259510e+01    9.919083e-01
  2.261097e+01    9.887940e-01
  2.262685e+01    9.527814e-01
  2.264272e+01    9.643527e-01
  2.265860e+01    9.666582e-01
  2.267448e+01    9.479259e-01
  2.269035e+01    9.330122e-01
  2.270623e+01    9.550009e-01
  2.272210e+01    9.406583e-01
  2.273798e+01    9.515747e-01
  2.275385e+01    9.559784e-01
  2.276973e+01    9.298463e-01
  2.278560e+01    9.299788e-01
  2.280148e+01    9.538618e-01
  2.281736e+01    9.357471e-01
  2.283323e+01    9.226918e-01
  2.284911e+01    9.165368e-01
  2.286498e+01    9.053358e-01
  2.288086e+01    9.177516e-01
  2.289673e+01    9.114261e-01
  2.291261e+01    9.142407e-01
  2.292848e+01    9.081909e-01
  2.294436e+01    9.266914e-01
  2.296024e+01    9.170554e-01
  2.297611e+01    9.007910e-01
  2.299199e+01    8.888317e-01
  2.300786e+01    8.841001e-01
  2.302374e+01    8.876908e-01
  2.303961e+01    8.869647e-01
  2.305549e+01    8.960295e-01
  2.307137e+01    8.950924e-01
  2.308724e+01    8.830667e-01
  2.310312e+01    8.732984e-01
  2.311899e+01    8.929496e-01
  2.313487e+01    9.097560e-01
  2.315074e+01    8.960655e-01
  2.316662e+01    8.799990e-01
  2.318249e+01    8.648463e-01
  2.319837e+01    8.927903e-01
  2.321425e+01    8.792856e-01
  2.323012e+01    8.752944e-01
  2.324600e+01    8.825761e-01
  2.326187e+01    8.833679e-01
  2.327775e+01    8.595098e-01
  2.329362e+01    8.467215e-01
  2.330950e+01    8.603611e-01
  2.332537e+01    8.618107e-01
  2.334125e+01    8.726864e-01
  2.335713e+01    8.701259e-01
  2.337300e+01    8.548361e-01
  2.338888e+01    8.365607e-01
  2.340475e+01    8.488498e-01
  2.342063e+01    8.535723e-01
  2.343650e+01    8.398536e-01
  2.345238e+01    8.529764e-01
  2.346825e+01    8.641403e-01
  2.348413e+01    8.520337e-01
  2.350001e+01    8.421487e-01
  2.351588e+01    8.519760e-01
  2.353176e+01    8.374201e-01
  2.354763e+01    8.401571e-01
  2.356351e+01    8.514335e-01
  2.357938e+01    8.665636e-01
  2.359526e+01    8.652132e-01
  2.361113e+01    8.415235e-01
  2.362701e+01    8.272211e-01
  2.364289e+01    8.321909e-01
  2.365876e+01    8.311859e-01
  2.367464e+01    8.364940e-01
  2.369051e+01    8.309003e-01
  2.370639e+01    8.163253e-01
  2.372226e+01    8.019940e-01
  2.373814e+01    8.187835e-01
  2.375401e+01    8.027043e-01
  2.376989e+01    8.034423e-01
  2.378577e+01    8.238026e-01
  2.380164e+01    8.299624e-01
  2.381752e+01    7.973061e-01
  2.383339e+01    7.961013e-01
  2.384927e+01    8.071448e-01
  2.386514e+01    7.959802e-01
  2.388102e+01    7.795132e-01
  2.389689e+01    7.868636e-01
  2.391277e+01    7.953453e-01
  2.392865e+01    8.100101e-01
  2.394452e+01    8.050407e-01
  2.396040e+01    8.044249e-01
  2.397627e+01    8.004643e-01
  2.399215e+01    7.933164e-01
  2.400802e+01    7.891779e-01
  2.402390e+01    7.735556e-01
  2.403978e+01    7.518849e-01
  2.405565e+01    7.516122e-01
  2.407153e+01    7.877946e-01
  2.408740e+01    7.884410e-01
  2.410328e+01    7.722861e-01
  2.411915e+01    7.669930e-01
  2.413503e+01    7.799684e-01
  2.415090e+01    8.000426e-01
  2.416678e+01    7.695624e-01
  2.418266e+01    7.689413e-01
  2.419853e+01    7.812656e-01
  2.421441e+01    7.820142e-01
  2.423028e+01    7.869879e-01
  2.424616e+01    7.824805e-01
  2.426203e+01    8.058183e-01
  2.427791e+01    7.996000e-01
  2.429378e+01    7.862058e-01
  2.430966e+01    7.935710e-01
  2.432554e+01    7.717631e-01
  2.434141e+01    7.639844e-01
  2.435729e+01    7.616921e-01
  2.437316e+01    7.983058e-01
  2.438904e+01    8.100845e-01
  2.440491e+01    7.740001e-01
  2.442079e+01    7.732081e-01
  2.443666e+01    7.910068e-01
  2.445254e+01    8.145422e-01
  2.446842e+01    7.918450e-01
  2.448429e+01    7.854150e-01
  2.450017e+01    7.796109e-01
  2.451604e+01    8.036456e-01
  2.453192e+01    7.926715e-01
  2.454779e+01    7.877243e-01
  2.456367e+01    7.769365e-01
  2.457954e+01    7.857429e-01
  2.459542e+01    7.957583e-01
  2.461130e+01    8.183412e-01
  2.462717e+01    8.053271e-01
  2.464305e+01    7.797014e-01
  2.465892e+01    7.989727e-01
  2.467480e+01    7.981683e-01
  2.469067e+01    7.976483e-01
  2.470655e+01    7.777702e-01
  2.472242e+01    7.846034e-01
  2.473830e+01    7.898133e-01
  2.475418e+01    7.921697e-01
  2.477005e+01    7.775497e-01
  2.478593e+01    7.866940e-01
  2.480180e+01    7.849622e-01
  2.481768e+01    7.857763e-01
  2.483355e+01    8.034076e-01
  2.484943e+01    7.961178e-01
  2.486530e+01    7.977804e-01
  2.488118e+01    8.012977e-01
  2.489706e+01    7.987881e-01
  2.491293e+01    7.925390e-01
  2.492881e+01    7.751939e-01
  2.494468e+01    8.039132e-01
  2.496056e+01    7.957548e-01
  2.497643e+01    7.876665e-01
  2.499231e+01    7.872656e-01
  2.500819e+01    8.153148e-01
  2.502406e+01    8.169701e-01
  2.503994e+01    7.959879e-01
  2.505581e+01    7.925693e-01
  2.507169e+01    8.000289e-01
  2.508756e+01    8.102081e-01
  2.510344e+01    8.306999e-01
  2.511931e+01    8.337891e-01
  2.513519e+01    8.182376e-01
  2.515107e+01    7.997195e-01
  2.516694e+01    8.055550e-01
  2.518282e+01    8.129304e-01
  2.519869e+01    8.291512e-01
  2.521457e+01    8.273227e-01
  2.523044e+01    8.250323e-01
  2.524632e+01    8.213214e-01
  2.526219e+01    8.319672e-01
  2.527807e+01    8.508747e-01
  2.529395e+01    8.489301e-01
  2.530982e+01    8.510007e-01
  2.532570e+01    8.517445e-01
  2.534157e+01    8.618958e-01
  2.535745e+01    8.708419e-01
  2.537332e+01    8.621159e-01
  2.538920e+01    8.833199e-01
  2.540507e+01    9.007959e-01
  2.542095e+01    9.181210e-01
  2.543683e+01    9.256151e-01
  2.545270e+01    9.425876e-01
  2.546858e+01    9.528134e-01
  2.548445e+01    9.572859e-01
  2.550033e+01    9.460043e-01
  2.551620e+01    9.960821e-01
  2.553208e+01    9.932448e-01
  2.554795e+01    1.010270e+00
  2.556383e+01    1.046937e+00
  2.557971e+01    1.058812e+00
  2.559558e+01    1.114931e+00
  2.561146e+01    1.129282e+00
  2.562733e+01    1.169123e+00
  2.564321e+01    1.218852e+00
  2.565908e+01    1.266420e+00
  2.567496e+01    1.343432e+00
  2.569083e+01    1.431047e+00
  2.570671e+01    1.513862e+00
  2.572259e+01    1.619528e+00
  2.573846e+01    1.740750e+00
  2.575434e+01    1.896894e+00
  2.577021e+01    2.099792e+00
  2.578609e+01    2.355200e+00
  2.580196e+01    2.678396e+00
  2.581784e+01    3.015458e+00
  2.583371e+01    3.416618e+00
  2.584959e+01    3.918214e+00
  2.586547e+01    4.455117e+00
  2.588134e+01    4.999066e+00
  2.589722e+01    5.654362e+00
  2.591309e+01    6.194275e+00
  2.592897e+01    6.676215e+00
  2.594484e+01    7.034659e+00
  2.596072e+01    7.169704e+00
  2.597660e+01    7.039802e+00
  2.599247e+01    6.635596e+00
  2.600835e+01    6.033113e+00
  2.602422e+01    5.368457e+00
  2.604010e+01    4.645303e+00
  2.605597e+01    3.958676e+00
  2.607185e+01    3.398062e+00
  2.608772e+01    2.953346e+00
  2.610360e+01    2.583123e+00
  2.611948e+01    2.286271e+00
  2.613535e+01    2.045678e+00
  2.615123e+01    1.861916e+00
  2.616710e+01    1.727599e+00
  2.618298e+01    1.605177e+00
  2.619885e+01    1.483301e+00
  2.621473e+01    1.395393e+00
  2.623060e+01    1.313404e+00
  2.624648e+01    1.245432e+00
  2.626236e+01    1.213753e+00
  2.627823e+01    1.136676e+00
  2.629411e+01    1.105584e+00
  2.630998e+01    1.088846e+00
  2.632586e+01    1.050840e+00
  2.634173e+01    1.006830e+00
  2.635761e+01    9.808944e-01
  2.637348e+01    9.800972e-01
  2.638936e+01    9.770136e-01
  2.640524e+01    9.494109e-01
  2.642111e+01    9.456163e-01
  2.643699e+01    9.262839e-01
  2.645286e+01    9.396338e-01
  2.646874e+01    9.328147e-01
  2.648461e+01    9.310434e-01
  2.650049e+01    9.404566e-01
  2.651636e+01    9.202066e-01
  2.653224e+01    9.117470e-01
  2.654812e+01    8.931940e-01
  2.656399e+01    8.992695e-01
  2.657987e+01    8.885890e-01
  2.659574e+01    8.760642e-01
  2.661162e+01    8.825804e-01
  2.662749e+01    8.678657e-01
  2.664337e+01    8.598704e-01
  2.665924e+01    8.789581e-01
  2.667512e+01    8.685261e-01
  2.669100e+01    8.909473e-01
  2.670687e+01    8.890805e-01
  2.672275e+01    8.842326e-01
  2.673862e+01    8.846458e-01
  2.675450e+01    8.733618e-01
  2.677037e+01    8.936879e-01
  2.678625e+01    8.690087e-01
  2.680212e+01    8.741063e-01
  2.681800e+01    8.975140e-01
  2.683388e+01    8.837034e-01
  2.684975e+01    8.998602e-01
  2.686563e+01    8.994096e-01
  2.688150e+01    9.016875e-01
  2.689738e+01    9.177248e-01
  2.691325e+01    9.253470e-01
  2.692913e+01    9.490633e-01
  2.694501e+01    9.585268e-01
  2.696088e+01    9.456583e-01
  2.697676e+01    9.718933e-01
  2.699263e+01    9.925381e-01
  2.700851e+01    1.009940e+00
  2.702438e+01    1.053290e+00
  2.704026e+01    1.098741e+00
  2.705613e+01    1.132945e+00
  2.707201e+01    1.227036e+00
  2.708789e+01    1.296314e+00
  2.710376e+01    1.372082e+00
  2.711964e+01    1.493037e+00
  2.713551e+01    1.601885e+00
  2.715139e+01    1.747012e+00
  2.716726e+01    1.880708e+00
  2.718314e+01    1.967258e+00
  2.719901e+01    2.084094e+00
  2.721489e+01    2.148396e+00
  2.723077e+01    2.114777e+00
  2.724664e+01    2.047802e+00
  2.726252e+01    1.961616e+00
  2.727839e+01    1.832357e+00
  2.729427e+01    1.655873e+00
  2.731014e+01    1.499902e+00
  2.732602e+01    1.373077e+00
  2.734189e+01    1.247346e+00
  2.735777e+01    1.189667e+00
  2.737365e+01    1.129760e+00
  2.738952e+01    1.077735e+00
  2.740540e+01    1.017258e+00
  2.742127e+01    9.908779e-01
  2.743715e+01    9.776886e-01
  2.745302e+01    9.468403e-01
  2.746890e+01    9.281968e-01
  2.748477e+01    9.032879e-01
  2.750065e+01    8.875186e-01
  2.751653e+01    8.862748e-01
  2.753240e+01    9.012687e-01
  2.754828e+01    8.930261e-01
  2.756415e+01    8.583621e-01
  2.758003e+01    8.826107e-01
  2.759590e+01    8.724288e-01
  2.761178e+01    8.582728e-01
  2.762765e+01    8.278133e-01
  2.764353e+01    8.267654e-01
  2.765941e+01    8.229675e-01
  2.767528e+01    8.114049e-01
  2.769116e+01    8.147488e-01
  2.770703e+01    7.930453e-01
  2.772291e+01    7.923402e-01
  2.773878e+01    7.981420e-01
  2.775466e+01    7.743077e-01
  2.777054e+01    7.981302e-01
  2.778641e+01    7.988228e-01
  2.780229e+01    8.188002e-01
  2.781816e+01    8.149989e-01
  2.783404e+01    8.135003e-01
  2.784991e+01    7.863344e-01
  2.786579e+01    7.722336e-01
  2.788166e+01    7.959836e-01
  2.789754e+01    7.763613e-01
  2.791342e+01    7.815329e-01
  2.792929e+01    7.622539e-01
  2.794517e+01    7.745935e-01
  2.796104e+01    7.926983e-01
  2.797692e+01    7.847139e-01
  2.799279e+01    7.987810e-01
  2.800867e+01    7.850538e-01
  2.802454e+01    7.764859e-01
  2.804042e+01    7.636960e-01
  2.805630e+01    7.524192e-01
  2.807217e+01    7.574379e-01
  2.808805e+01    7.712836e-01
  2.810392e+01    7.877356e-01
  2.811980e+01    8.000453e-01
  2.813567e+01    7.758497e-01
  2.815155e+01    7.937304e-01
  2.816742e+01    7.633005e-01
  2.818330e+01    7.487284e-01
  2.819918e+01    7.688643e-01
  2.821505e+01    7.773111e-01
  2.823093e+01    7.745066e-01
  2.824680e+01    7.771948e-01
  2.826268e+01    7.606018e-01
  2.827855e+01    7.658740e-01
  2.829443e+01    7.739103e-01
  2.831030e+01    7.724898e-01
  2.832618e+01    7.668121e-01
  2.834206e+01    7.611694e-01
  2.835793e+01    7.639967e-01
  2.837381e+01    7.793059e-01
  2.838968e+01    7.568129e-01
  2.840556e+01    7.549635e-01
  2.842143e+01    7.392635e-01
  2.843731e+01    7.465344e-01
  2.845318e+01    7.357695e-01
  2.846906e+01    7.490271e-01
  2.848494e+01    7.444910e-01
  2.850081e+01    7.433815e-01
  2.851669e+01    7.506132e-01
  2.853256e+01    7.526544e-01
  2.854844e+01    7.607645e-01
  2.856431e+01    7.419642e-01
  2.858019e+01    7.408885e-01
  2.859606e+01    7.420712e-01
  2.861194e+01    7.418875e-01
  2.862782e+01    7.188403e-01
  2.864369e+01    7.502210e-01
  2.865957e+01    7.513825e-01
  2.867544e+01    7.489801e-01
  2.869132e+01    7.441593e-01
  2.870719e+01    7.257455e-01
  2.872307e+01    7.408918e-01
  2.873895e+01    7.458501e-01
  2.875482e+01    7.440150e-01
  2.877070e+01    7.740714e-01
  2.878657e+01    7.534337e-01
  2.880245e+01    7.313228e-01
  2.881832e+01    7.255240e-01
  2.883420e+01    7.309675e-01
  2.885007e+01    7.315791e-01
  2.886595e+01    7.441614e-01
  2.888183e+01    7.439178e-01
  2.889770e+01    7.359241e-01
  2.891358e+01    7.299761e-01
  2.892945e+01    7.265579e-01
  2.894533e+01    7.458049e-01
  2.896120e+01    7.497798e-01
  2.897708e+01    7.378223e-01
  2.899295e+01    7.459958e-01
  2.900883e+01    7.298544e-01
  2.902471e+01    7.281347e-01
  2.904058e+01    7.110381e-01
  2.905646e+01    7.233152e-01
  2.907233e+01    7.320099e-01
  2.908821e+01    7.347516e-01
  2.910408e+01    7.414277e-01
  2.911996e+01    7.348069e-01
  2.913583e+01    7.378330e-01
  2.915171e+01    7.607548e-01
  2.916759e+01    7.553473e-01
  2.918346e+01    7.265418e-01
  2.919934e+01    7.082091e-01
  2.921521e+01    7.222078e-01
  2.923109e+01    7.258645e-01
  2.924696e+01    7.122508e-01
  2.926284e+01    7.192552e-01
  2.927871e+01    7.411705e-01
  2.929459e+01    7.469690e-01
  2.931047e+01    7.455522e-01
  2.932634e+01    7.420651e-01
  2.934222e+01    7.342025e-01
  2.935809e+01    7.154090e-01
  2.937397e+01    7.276599e-01
  2.938984e+01    7.262160e-01
  2.940572e+01    7.412349e-01
  2.942159e+01    7.216231e-01
  2.943747e+01    7.122657e-01
  2.945335e+01    7.259392e-01
  2.946922e+01    7.289155e-01
  2.948510e+01    7.190471e-01
  2.950097e+01    7.242205e-01
  2.951685e+01    7.198081e-01
  2.953272e+01    7.006921e-01
  2.954860e+01    7.200783e-01
  2.956447e+01    7.243686e-01
  2.958035e+01    7.243518e-01
  2.959623e+01    7.197433e-01
  2.961210e+01    7.386889e-01
  2.962798e+01    7.418271e-01
  2.964385e+01    7.275517e-01
  2.965973e+01    7.278333e-01
  2.967560e+01    7.352729e-01
  2.969148e+01    7.181047e-01
  2.970736e+01    7.171744e-01
  2.972323e+01    7.216159e-01
  2.973911e+01    7.149894e-01
  2.975498e+01    7.144587e-01
  2.977086e+01    7.247989e-01
  2.978673e+01    7.135598e-01
  2.980261e+01    7.140487e-01
  2.981848e+01    7.121447e-01
  2.983436e+01    7.236338e-01
  2.985024e+01    7.197105e-01
  2.986611e+01    7.120021e-01
  2.988199e+01    7.156391e-01
  2.989786e+01    7.085556e-01
  2.991374e+01    7.084877e-01
  2.992961e+01    7.049961e-01
  2.994549e+01    7.037658e-01
  2.996136e+01    7.091452e-01
  2.997724e+01    7.111843e-01
  2.999312e+01    7.072770e-01
  3.000899e+01    7.036901e-01
  3.002487e+01    7.064238e-01
  3.004074e+01    7.150267e-01
  3.005662e+01    7.254611e-01
  3.007249e+01    7.266334e-01
  3.008837e+01    7.204163e-01
  3.010424e+01    7.245710e-01
  3.012012e+01    7.208200e-01
  3.013600e+01    6.942884e-01
  3.015187e+01    6.772534e-01
  3.016775e+01    6.991493e-01
  3.018362e+01    7.111406e-01
  3.019950e+01    7.226542e-01
  3.021537e+01    7.061668e-01
  3.023125e+01    7.040128e-01
  3.024712e+01    7.052987e-01
  3.026300e+01    7.060095e-01
  3.027888e+01    7.016388e-01
  3.029475e+01    7.048863e-01
  3.031063e+01    6.898401e-01
  3.032650e+01    7.106653e-01
  3.034238e+01    7.106262e-01
  3.035825e+01    6.966463e-01
  3.037413e+01    6.841944e-01
  3.039000e+01    7.048826e-01
  3.040588e+01    7.133518e-01
  3.042176e+01    7.200599e-01
  3.043763e+01    7.345167e-01
  3.045351e+01    7.270210e-01
  3.046938e+01    6.954570e-01
  3.048526e+01    6.915740e-01
  3.050113e+01    7.120603e-01
  3.051701e+01    7.189152e-01
  3.053288e+01    7.197659e-01
  3.054876e+01    7.046333e-01
  3.056464e+01    6.893765e-01
  3.058051e+01    6.989213e-01
  3.059639e+01    6.939909e-01
  3.061226e+01    7.067087e-01
  3.062814e+01    7.270942e-01
  3.064401e+01    7.356534e-01
  3.065989e+01    7.143127e-01
  3.067577e+01    7.082678e-01
  3.069164e+01    7.109743e-01
  3.070752e+01    7.080654e-01
  3.072339e+01    7.186872e-01
  3.073927e+01    6.856659e-01
  3.075514e+01    6.875435e-01
  3.077102e+01    6.982515e-01
  3.078689e+01    7.110065e-01
  3.080277e+01    7.144084e-01
  3.081865e+01    6.948413e-01
  3.083452e+01    6.993174e-01
  3.085040e+01    7.074693e-01
  3.086627e+01    7.089099e-01
  3.088215e+01    6.909299e-01
  3.089802e+01    6.963107e-01
  3.091390e+01    7.011733e-01
  3.092977e+01    7.075323e-01
  3.094565e+01    7.170434e-01
  3.096153e+01    7.211633e-01
  3.097740e+01    7.099632e-01
  3.099328e+01    6.901724e-01
  3.100915e+01    7.079671e-01
  3.102503e+01    7.035654e-01
  3.104090e+01    6.907654e-01
  3.105678e+01    7.158683e-01
  3.107265e+01    7.211630e-01
  3.108853e+01    7.284511e-01
  3.110441e+01    7.013784e-01
  3.112028e+01    6.925398e-01
  3.113616e+01    7.095520e-01
  3.115203e+01    7.268992e-01
  3.116791e+01    7.289762e-01
  3.118378e+01    7.261976e-01
  3.119966e+01    7.266209e-01
  3.121553e+01    7.338395e-01
  3.123141e+01    7.098309e-01
  3.124729e+01    7.262025e-01
  3.126316e+01    7.222241e-01
  3.127904e+01    7.260768e-01
  3.129491e+01    7.380168e-01
  3.131079e+01    7.186319e-01
  3.132666e+01    7.175369e-01
  3.134254e+01    7.259119e-01
  3.135841e+01    7.049797e-01
  3.137429e+01    7.237310e-01
  3.139017e+01    7.199554e-01
  3.140604e+01    7.286325e-01
  3.142192e+01    7.372323e-01
  3.143779e+01    7.557158e-01
  3.145367e+01    7.323845e-01
  3.146954e+01    7.571751e-01
  3.148542e+01    7.498888e-01
  3.150129e+01    7.522219e-01
  3.151717e+01    7.752180e-01
  3.153305e+01    7.768177e-01
  3.154892e+01    7.608283e-01
  3.156480e+01    7.698439e-01
  3.158067e+01    7.862620e-01
  3.159655e+01    7.839459e-01
  3.161242e+01    8.010734e-01
  3.162830e+01    8.285261e-01
  3.164418e+01    8.543108e-01
  3.166005e+01    8.748751e-01
  3.167593e+01    9.014638e-01
  3.169180e+01    9.211199e-01
  3.170768e+01    9.675475e-01
  3.172355e+01    1.016199e+00
  3.173943e+01    1.055942e+00
  3.175530e+01    1.101137e+00
  3.177118e+01    1.184834e+00
  3.178706e+01    1.296661e+00
  3.180293e+01    1.421806e+00
  3.181881e+01    1.521953e+00
  3.183468e+01    1.639094e+00
  3.185056e+01    1.784233e+00
  3.186643e+01    1.931366e+00
  3.188231e+01    1.997543e+00
  3.189818e+01    2.065400e+00
  3.191406e+01    2.108722e+00
  3.192994e+01    2.014967e+00
  3.194581e+01    1.957164e+00
  3.196169e+01    1.830056e+00
  3.197756e+01    1.697692e+00
  3.199344e+01    1.539898e+00
  3.200931e+01    1.397982e+00
  3.202519e+01    1.268703e+00
  3.204106e+01    1.169508e+00
  3.205694e+01    1.088295e+00
  3.207282e+01    1.041700e+00
  3.208869e+01    9.661646e-01
  3.210457e+01    9.304359e-01
  3.212044e+01    9.159864e-01
  3.213632e+01    8.619540e-01
  3.215219e+01    8.301690e-01
  3.216807e+01    8.359577e-01
  3.218394e+01    8.130341e-01
  3.219982e+01    8.296497e-01
  3.221570e+01    7.978989e-01
  3.223157e+01    7.864895e-01
  3.224745e+01    7.903768e-01
  3.226332e+01    7.824407e-01
  3.227920e+01    7.652715e-01
  3.229507e+01    7.506750e-01
  3.231095e+01    7.539070e-01
  3.232682e+01    7.425300e-01
  3.234270e+01    7.209892e-01
  3.235858e+01    7.168729e-01
  3.237445e+01    7.143663e-01
  3.239033e+01    7.194707e-01
  3.240620e+01    7.045792e-01
  3.242208e+01    7.379102e-01
  3.243795e+01    7.434506e-01
  3.245383e+01    7.206483e-01
  3.246970e+01    7.114575e-01
  3.248558e+01    7.038864e-01
  3.250146e+01    6.994898e-01
  3.251733e+01    7.266218e-01
  3.253321e+01    6.959552e-01
  3.254908e+01    7.127173e-01
