# == pyFAI calibration ==
# Distance Sample to Detector: 0.3999999939076516 m
# PONI: 9.750e-02, 1.135e-01 m
# Rotations: -0.000175 0.000000 -0.000000 rad
# 
# == Fit2d calibration ==
# Distance Sample-beamCenter: 400.000 mm
# Center: x=1514.000, y=1300.000 pix
# Tilt: 0.010 deg  TiltPlanRot: 0.010 deg
# 
# Detector Detector	 Spline= None	 PixelSize= 7.500e-05, 7.500e-05 m
#    Detector has a mask: False 
#    Detector has a dark current: False 
#    detector has a flat field: False 
# 
# Wavelength: 6.888e-11 m
# Mask applied: user provided
# Dark current applied: False
# Flat field applied: False
# Polarization factor: 0.99
# Normalization factor: 1.0
# --> /home/myspot/data/2024_07_Rosario/Ru-CGO-ex/2024-07-27_002_Ru-CGO-ex_Activtation_ramp_000002_data_000090.dat
#       q_nm^-1             I 
  2.003187e-02    0.000000e+00
  3.590745e-02    0.000000e+00
  5.178302e-02    1.217103e-01
  6.765859e-02    1.415466e-01
  8.353417e-02    1.899742e-02
  9.940974e-02    3.702990e-02
  1.152853e-01    8.994205e-03
  1.311609e-01    4.088670e-02
  1.470365e-01    7.551357e-02
  1.629120e-01    0.000000e+00
  1.787876e-01    4.372874e-02
  1.946632e-01    8.172452e-02
  2.105388e-01    2.510582e-02
  2.264143e-01    3.353669e-02
  2.422899e-01    3.786743e-02
  2.581655e-01    3.354665e-02
  2.740411e-01    2.899043e-02
  2.899166e-01    2.324953e-02
  3.057922e-01    1.359842e-02
  3.216678e-01    1.067435e-02
  3.375433e-01    3.746084e-02
  3.534189e-01    3.503904e-02
  3.692945e-01    3.348384e-02
  3.851701e-01    4.411367e-02
  4.010456e-01    2.745821e-02
  4.169212e-01    5.446473e-02
  4.327968e-01    6.165205e-02
  4.486724e-01    4.416835e-02
  4.645479e-01    3.556432e-02
  4.804235e-01    3.587165e-02
  4.962991e-01    4.762000e-02
  5.121747e-01    5.273971e-02
  5.280502e-01    2.960142e-02
  5.439258e-01    4.550870e-02
  5.598014e-01    6.368944e-02
  5.756770e-01    6.642833e-02
  5.915525e-01    5.221606e-02
  6.074281e-01    5.108455e-02
  6.233037e-01    5.169337e-02
  6.391793e-01    4.129782e-02
  6.550548e-01    6.445317e-02
  6.709304e-01    4.097828e-02
  6.868060e-01    1.306329e-02
  7.026815e-01    3.339180e-02
  7.185571e-01    4.940221e-02
  7.344327e-01    7.184168e-02
  7.503083e-01    6.214862e-02
  7.661838e-01    6.069855e-02
  7.820594e-01    9.557852e-02
  7.979350e-01    1.553171e-01
  8.138106e-01    1.882385e-01
  8.296861e-01    2.394020e-01
  8.455617e-01    2.613666e-01
  8.614373e-01    3.569353e-01
  8.773129e-01    4.184786e-01
  8.931884e-01    4.834615e-01
  9.090640e-01    5.755985e-01
  9.249396e-01    5.583238e-01
  9.408152e-01    6.323995e-01
  9.566907e-01    7.392649e-01
  9.725663e-01    7.940016e-01
  9.884419e-01    9.327052e-01
  1.004317e+00    1.115805e+00
  1.020193e+00    1.139853e+00
  1.036069e+00    1.229035e+00
  1.051944e+00    1.275898e+00
  1.067820e+00    1.273266e+00
  1.083695e+00    1.306943e+00
  1.099571e+00    1.404564e+00
  1.115446e+00    1.363997e+00
  1.131322e+00    1.384956e+00
  1.147198e+00    1.540862e+00
  1.163073e+00    1.500532e+00
  1.178949e+00    1.402115e+00
  1.194824e+00    1.579941e+00
  1.210700e+00    1.944209e+00
  1.226575e+00    2.119703e+00
  1.242451e+00    2.205931e+00
  1.258327e+00    2.400807e+00
  1.274202e+00    2.494071e+00
  1.290078e+00    2.448883e+00
  1.305953e+00    2.491214e+00
  1.321829e+00    2.477288e+00
  1.337705e+00    2.582437e+00
  1.353580e+00    2.680951e+00
  1.369456e+00    2.665893e+00
  1.385331e+00    2.466298e+00
  1.401207e+00    2.554233e+00
  1.417082e+00    2.670051e+00
  1.432958e+00    2.662670e+00
  1.448834e+00    2.686885e+00
  1.464709e+00    2.709466e+00
  1.480585e+00    2.690730e+00
  1.496460e+00    2.679659e+00
  1.512336e+00    2.770953e+00
  1.528211e+00    2.909377e+00
  1.544087e+00    2.995150e+00
  1.559963e+00    2.903293e+00
  1.575838e+00    2.962744e+00
  1.591714e+00    2.976094e+00
  1.607589e+00    2.828169e+00
  1.623465e+00    2.785318e+00
  1.639340e+00    2.815307e+00
  1.655216e+00    2.826937e+00
  1.671092e+00    2.970392e+00
  1.686967e+00    2.966419e+00
  1.702843e+00    2.946687e+00
  1.718718e+00    2.763862e+00
  1.734594e+00    2.681683e+00
  1.750469e+00    2.739030e+00
  1.766345e+00    2.763503e+00
  1.782221e+00    2.714193e+00
  1.798096e+00    2.674454e+00
  1.813972e+00    2.807213e+00
  1.829847e+00    2.800246e+00
  1.845723e+00    2.775663e+00
  1.861598e+00    2.706545e+00
  1.877474e+00    2.611973e+00
  1.893350e+00    2.705795e+00
  1.909225e+00    2.621888e+00
  1.925101e+00    2.610969e+00
  1.940976e+00    2.586516e+00
  1.956852e+00    2.566676e+00
  1.972727e+00    2.673651e+00
  1.988603e+00    2.741405e+00
  2.004479e+00    2.750548e+00
  2.020354e+00    2.641088e+00
  2.036230e+00    2.588857e+00
  2.052105e+00    2.711055e+00
  2.067981e+00    2.688481e+00
  2.083856e+00    2.702323e+00
  2.099732e+00    2.663413e+00
  2.115608e+00    2.726307e+00
  2.131483e+00    2.795168e+00
  2.147359e+00    2.765121e+00
  2.163234e+00    2.753357e+00
  2.179110e+00    2.713425e+00
  2.194985e+00    2.609083e+00
  2.210861e+00    2.742163e+00
  2.226737e+00    2.688769e+00
  2.242612e+00    2.627510e+00
  2.258488e+00    2.702545e+00
  2.274363e+00    2.708698e+00
  2.290239e+00    2.585274e+00
  2.306115e+00    2.590223e+00
  2.321990e+00    2.645077e+00
  2.337866e+00    2.738285e+00
  2.353741e+00    2.728032e+00
  2.369617e+00    2.697683e+00
  2.385492e+00    2.758119e+00
  2.401368e+00    2.773231e+00
  2.417244e+00    2.725441e+00
  2.433119e+00    2.777592e+00
  2.448995e+00    2.795213e+00
  2.464870e+00    2.682257e+00
  2.480746e+00    2.705595e+00
  2.496621e+00    2.744161e+00
  2.512497e+00    2.722605e+00
  2.528373e+00    2.733925e+00
  2.544248e+00    2.888700e+00
  2.560124e+00    2.908045e+00
  2.575999e+00    2.765383e+00
  2.591875e+00    2.802154e+00
  2.607750e+00    2.743764e+00
  2.623626e+00    2.694544e+00
  2.639502e+00    2.734977e+00
  2.655377e+00    2.845683e+00
  2.671253e+00    2.834418e+00
  2.687128e+00    2.767587e+00
  2.703004e+00    2.741180e+00
  2.718879e+00    2.795651e+00
  2.734755e+00    2.801705e+00
  2.750631e+00    2.778576e+00
  2.766506e+00    2.843875e+00
  2.782382e+00    2.784314e+00
  2.798257e+00    2.762449e+00
  2.814133e+00    2.855177e+00
  2.830008e+00    2.876956e+00
  2.845884e+00    2.797459e+00
  2.861760e+00    2.749933e+00
  2.877635e+00    2.863329e+00
  2.893511e+00    2.861231e+00
  2.909386e+00    2.794621e+00
  2.925262e+00    2.835220e+00
  2.941137e+00    2.910412e+00
  2.957013e+00    2.804134e+00
  2.972889e+00    2.827500e+00
  2.988764e+00    2.881347e+00
  3.004640e+00    2.815833e+00
  3.020515e+00    2.830314e+00
  3.036391e+00    2.860506e+00
  3.052266e+00    2.873734e+00
  3.068142e+00    2.819960e+00
  3.084018e+00    2.820733e+00
  3.099893e+00    2.769701e+00
  3.115769e+00    2.865738e+00
  3.131644e+00    2.843715e+00
  3.147520e+00    2.881007e+00
  3.163395e+00    2.902498e+00
  3.179271e+00    2.874447e+00
  3.195147e+00    2.876968e+00
  3.211022e+00    2.839212e+00
  3.226898e+00    2.828439e+00
  3.242773e+00    2.913240e+00
  3.258649e+00    2.857606e+00
  3.274525e+00    2.882982e+00
  3.290400e+00    2.884559e+00
  3.306276e+00    2.894204e+00
  3.322151e+00    2.933039e+00
  3.338027e+00    2.864176e+00
  3.353902e+00    2.884472e+00
  3.369778e+00    2.861692e+00
  3.385654e+00    2.986739e+00
  3.401529e+00    2.861552e+00
  3.417405e+00    2.784657e+00
  3.433280e+00    2.852870e+00
  3.449156e+00    2.907199e+00
  3.465031e+00    2.883923e+00
  3.480907e+00    2.908133e+00
  3.496783e+00    2.871115e+00
  3.512658e+00    2.928012e+00
  3.528534e+00    2.887753e+00
  3.544409e+00    2.902693e+00
  3.560285e+00    2.878786e+00
  3.576160e+00    2.898375e+00
  3.592036e+00    2.857566e+00
  3.607912e+00    2.909483e+00
  3.623787e+00    2.978850e+00
  3.639663e+00    3.011455e+00
  3.655538e+00    2.970604e+00
  3.671414e+00    2.926861e+00
  3.687289e+00    2.916552e+00
  3.703165e+00    2.902617e+00
  3.719041e+00    2.922242e+00
  3.734916e+00    2.994421e+00
  3.750792e+00    2.871855e+00
  3.766667e+00    2.975007e+00
  3.782543e+00    2.918802e+00
  3.798418e+00    2.866936e+00
  3.814294e+00    2.869630e+00
  3.830170e+00    2.934010e+00
  3.846045e+00    2.920355e+00
  3.861921e+00    3.006273e+00
  3.877796e+00    3.008725e+00
  3.893672e+00    3.009636e+00
  3.909547e+00    2.986652e+00
  3.925423e+00    2.963782e+00
  3.941299e+00    2.890350e+00
  3.957174e+00    2.905033e+00
  3.973050e+00    3.060203e+00
  3.988925e+00    2.999472e+00
  4.004801e+00    2.910477e+00
  4.020676e+00    2.943937e+00
  4.036552e+00    2.931995e+00
  4.052428e+00    2.971087e+00
  4.068303e+00    2.933409e+00
  4.084179e+00    2.961213e+00
  4.100054e+00    2.987196e+00
  4.115930e+00    2.960244e+00
  4.131806e+00    2.973490e+00
  4.147681e+00    2.984012e+00
  4.163557e+00    2.986042e+00
  4.179432e+00    2.987645e+00
  4.195308e+00    3.001652e+00
  4.211183e+00    2.958065e+00
  4.227059e+00    2.987531e+00
  4.242935e+00    2.998307e+00
  4.258810e+00    3.003409e+00
  4.274686e+00    2.971786e+00
  4.290561e+00    3.063691e+00
  4.306437e+00    3.057632e+00
  4.322312e+00    3.048314e+00
  4.338188e+00    3.055623e+00
  4.354064e+00    3.093353e+00
  4.369939e+00    3.075152e+00
  4.385815e+00    2.986321e+00
  4.401690e+00    3.030041e+00
  4.417566e+00    3.091696e+00
  4.433441e+00    3.028837e+00
  4.449317e+00    3.036979e+00
  4.465193e+00    3.032506e+00
  4.481068e+00    2.958926e+00
  4.496944e+00    2.969833e+00
  4.512819e+00    2.958713e+00
  4.528695e+00    2.997845e+00
  4.544570e+00    3.010185e+00
  4.560446e+00    3.034572e+00
  4.576322e+00    2.980981e+00
  4.592197e+00    2.993988e+00
  4.608073e+00    3.056577e+00
  4.623948e+00    3.068702e+00
  4.639824e+00    3.066091e+00
  4.655699e+00    3.071483e+00
  4.671575e+00    3.094228e+00
  4.687451e+00    3.014055e+00
  4.703326e+00    3.019104e+00
  4.719202e+00    3.124879e+00
  4.735077e+00    3.099220e+00
  4.750953e+00    3.011603e+00
  4.766828e+00    3.017601e+00
  4.782704e+00    3.012546e+00
  4.798580e+00    3.015257e+00
  4.814455e+00    2.970531e+00
  4.830331e+00    2.996905e+00
  4.846206e+00    2.985970e+00
  4.862082e+00    3.074326e+00
  4.877957e+00    3.085516e+00
  4.893833e+00    3.011812e+00
  4.909709e+00    3.095381e+00
  4.925584e+00    3.082557e+00
  4.941460e+00    3.016760e+00
  4.957335e+00    3.065123e+00
  4.973211e+00    3.092803e+00
  4.989086e+00    3.042390e+00
  5.004962e+00    3.025938e+00
  5.020838e+00    3.003720e+00
  5.036713e+00    2.996914e+00
  5.052589e+00    3.071807e+00
  5.068464e+00    3.069885e+00
  5.084340e+00    2.958831e+00
  5.100216e+00    2.998389e+00
  5.116091e+00    3.047251e+00
  5.131967e+00    3.101236e+00
  5.147842e+00    3.041395e+00
  5.163718e+00    3.035844e+00
  5.179593e+00    3.052486e+00
  5.195469e+00    3.038354e+00
  5.211345e+00    3.022631e+00
  5.227220e+00    3.060967e+00
  5.243096e+00    3.097245e+00
  5.258971e+00    3.120410e+00
  5.274847e+00    3.093698e+00
  5.290722e+00    3.068630e+00
  5.306598e+00    3.085534e+00
  5.322474e+00    3.104049e+00
  5.338349e+00    3.049008e+00
  5.354225e+00    3.099115e+00
  5.370100e+00    3.051800e+00
  5.385976e+00    3.056362e+00
  5.401851e+00    3.045727e+00
  5.417727e+00    3.019693e+00
  5.433603e+00    2.982711e+00
  5.449478e+00    3.026145e+00
  5.465354e+00    3.061768e+00
  5.481229e+00    3.006789e+00
  5.497105e+00    2.963102e+00
  5.512980e+00    2.960963e+00
  5.528856e+00    3.012204e+00
  5.544732e+00    3.093532e+00
  5.560607e+00    3.020629e+00
  5.576483e+00    2.961064e+00
  5.592358e+00    2.944154e+00
  5.608234e+00    3.034121e+00
  5.624109e+00    3.060748e+00
  5.639985e+00    3.031131e+00
  5.655861e+00    3.084371e+00
  5.671736e+00    3.105359e+00
  5.687612e+00    3.007181e+00
  5.703487e+00    3.072267e+00
  5.719363e+00    2.980202e+00
  5.735238e+00    2.956375e+00
  5.751114e+00    3.007071e+00
  5.766990e+00    3.017400e+00
  5.782865e+00    2.997459e+00
  5.798741e+00    2.949092e+00
  5.814616e+00    3.042916e+00
  5.830492e+00    3.017577e+00
  5.846367e+00    3.014383e+00
  5.862243e+00    2.992905e+00
  5.878119e+00    2.998726e+00
  5.893994e+00    2.974196e+00
  5.909870e+00    2.966839e+00
  5.925745e+00    2.983121e+00
  5.941621e+00    3.014012e+00
  5.957497e+00    2.978598e+00
  5.973372e+00    3.021316e+00
  5.989248e+00    2.975101e+00
  6.005123e+00    2.909517e+00
  6.020999e+00    2.869518e+00
  6.036874e+00    2.908052e+00
  6.052750e+00    2.960897e+00
  6.068626e+00    2.894117e+00
  6.084501e+00    2.966550e+00
  6.100377e+00    3.078117e+00
  6.116252e+00    3.100482e+00
  6.132128e+00    3.131683e+00
  6.148003e+00    3.074468e+00
  6.163879e+00    2.941820e+00
  6.179755e+00    2.992315e+00
  6.195630e+00    3.034349e+00
  6.211506e+00    2.926665e+00
  6.227381e+00    2.892369e+00
  6.243257e+00    2.985043e+00
  6.259132e+00    2.984920e+00
  6.275008e+00    2.944302e+00
  6.290884e+00    3.032804e+00
  6.306759e+00    3.074636e+00
  6.322635e+00    2.938233e+00
  6.338510e+00    2.966659e+00
  6.354386e+00    3.051414e+00
  6.370261e+00    2.916485e+00
  6.386137e+00    3.075775e+00
  6.402013e+00    3.058712e+00
  6.417888e+00    2.992286e+00
  6.433764e+00    3.035111e+00
  6.449639e+00    2.982702e+00
  6.465515e+00    2.955487e+00
  6.481390e+00    2.902787e+00
  6.497266e+00    2.869021e+00
  6.513142e+00    2.918541e+00
  6.529017e+00    3.007223e+00
  6.544893e+00    3.032131e+00
  6.560768e+00    3.013812e+00
  6.576644e+00    2.943345e+00
  6.592519e+00    2.970026e+00
  6.608395e+00    3.012839e+00
  6.624271e+00    3.003310e+00
  6.640146e+00    3.073297e+00
  6.656022e+00    3.015626e+00
  6.671897e+00    2.996565e+00
  6.687773e+00    2.946815e+00
  6.703648e+00    2.986838e+00
  6.719524e+00    2.995302e+00
  6.735400e+00    2.998093e+00
  6.751275e+00    3.044576e+00
  6.767151e+00    2.934271e+00
  6.783026e+00    2.944744e+00
  6.798902e+00    2.993699e+00
  6.814777e+00    3.004961e+00
  6.830653e+00    2.990334e+00
  6.846529e+00    2.992609e+00
  6.862404e+00    2.890887e+00
  6.878280e+00    2.890712e+00
  6.894155e+00    2.989241e+00
  6.910031e+00    2.984165e+00
  6.925907e+00    3.031061e+00
  6.941782e+00    2.941224e+00
  6.957658e+00    2.937598e+00
  6.973533e+00    2.948548e+00
  6.989409e+00    2.954805e+00
  7.005284e+00    2.936686e+00
  7.021160e+00    2.949337e+00
  7.037036e+00    2.977222e+00
  7.052911e+00    2.926723e+00
  7.068787e+00    2.988796e+00
  7.084662e+00    3.008575e+00
  7.100538e+00    2.978750e+00
  7.116413e+00    2.933596e+00
  7.132289e+00    2.953012e+00
  7.148165e+00    2.982352e+00
  7.164040e+00    2.927970e+00
  7.179916e+00    2.912854e+00
  7.195791e+00    2.972814e+00
  7.211667e+00    2.943477e+00
  7.227542e+00    2.891696e+00
  7.243418e+00    2.835037e+00
  7.259294e+00    2.930879e+00
  7.275169e+00    2.964291e+00
  7.291045e+00    2.913277e+00
  7.306920e+00    2.884762e+00
  7.322796e+00    2.836693e+00
  7.338671e+00    2.849971e+00
  7.354547e+00    2.934575e+00
  7.370423e+00    2.909093e+00
  7.386298e+00    2.918271e+00
  7.402174e+00    2.913366e+00
  7.418049e+00    2.917952e+00
  7.433925e+00    2.906033e+00
  7.449800e+00    2.914659e+00
  7.465676e+00    2.960659e+00
  7.481552e+00    2.898043e+00
  7.497427e+00    2.883887e+00
  7.513303e+00    2.932315e+00
  7.529178e+00    2.948674e+00
  7.545054e+00    2.942927e+00
  7.560929e+00    2.918813e+00
  7.576805e+00    2.912241e+00
  7.592681e+00    2.922003e+00
  7.608556e+00    2.924455e+00
  7.624432e+00    2.886364e+00
  7.640307e+00    2.884072e+00
  7.656183e+00    2.883537e+00
  7.672058e+00    2.902976e+00
  7.687934e+00    2.869004e+00
  7.703810e+00    2.865190e+00
  7.719685e+00    2.895203e+00
  7.735561e+00    2.915539e+00
  7.751436e+00    2.914734e+00
  7.767312e+00    2.930228e+00
  7.783187e+00    2.890560e+00
  7.799063e+00    2.861339e+00
  7.814939e+00    2.887037e+00
  7.830814e+00    2.925736e+00
  7.846690e+00    2.908930e+00
  7.862565e+00    2.946573e+00
  7.878441e+00    2.855695e+00
  7.894317e+00    2.839702e+00
  7.910192e+00    2.857505e+00
  7.926068e+00    2.867218e+00
  7.941943e+00    2.876940e+00
  7.957819e+00    2.837981e+00
  7.973694e+00    2.853005e+00
  7.989570e+00    2.870547e+00
  8.005446e+00    2.830981e+00
  8.021321e+00    2.866405e+00
  8.037197e+00    2.898109e+00
  8.053072e+00    2.953703e+00
  8.068948e+00    2.870103e+00
  8.084823e+00    2.851732e+00
  8.100699e+00    2.841073e+00
  8.116575e+00    2.860096e+00
  8.132450e+00    2.942287e+00
  8.148326e+00    2.937717e+00
  8.164201e+00    2.915020e+00
  8.180077e+00    2.876104e+00
  8.195952e+00    2.802532e+00
  8.211828e+00    2.824558e+00
  8.227704e+00    2.880516e+00
  8.243579e+00    2.928630e+00
  8.259455e+00    2.985781e+00
  8.275330e+00    2.895786e+00
  8.291206e+00    2.893682e+00
  8.307081e+00    2.896792e+00
  8.322957e+00    2.920114e+00
  8.338833e+00    2.856725e+00
  8.354708e+00    2.815233e+00
  8.370584e+00    2.836678e+00
  8.386459e+00    2.843536e+00
  8.402335e+00    2.853569e+00
  8.418210e+00    2.856827e+00
  8.434086e+00    2.872491e+00
  8.449962e+00    2.857303e+00
  8.465837e+00    2.861934e+00
  8.481713e+00    2.833457e+00
  8.497588e+00    2.776690e+00
  8.513464e+00    2.759588e+00
  8.529339e+00    2.749413e+00
  8.545215e+00    2.783564e+00
  8.561091e+00    2.792816e+00
  8.576966e+00    2.820673e+00
  8.592842e+00    2.819756e+00
  8.608717e+00    2.888595e+00
  8.624593e+00    2.822859e+00
  8.640468e+00    2.819844e+00
  8.656344e+00    2.855962e+00
  8.672220e+00    2.794137e+00
  8.688095e+00    2.816175e+00
  8.703971e+00    2.838819e+00
  8.719846e+00    2.859839e+00
  8.735722e+00    2.848905e+00
  8.751598e+00    2.857378e+00
  8.767473e+00    2.849950e+00
  8.783349e+00    2.794263e+00
  8.799224e+00    2.789449e+00
  8.815100e+00    2.840574e+00
  8.830975e+00    2.807202e+00
  8.846851e+00    2.813020e+00
  8.862727e+00    2.770701e+00
  8.878602e+00    2.805130e+00
  8.894478e+00    2.823139e+00
  8.910353e+00    2.767544e+00
  8.926229e+00    2.755048e+00
  8.942104e+00    2.767542e+00
  8.957980e+00    2.810243e+00
  8.973856e+00    2.787010e+00
  8.989731e+00    2.785626e+00
  9.005607e+00    2.774960e+00
  9.021482e+00    2.721501e+00
  9.037358e+00    2.760235e+00
  9.053233e+00    2.773508e+00
  9.069109e+00    2.749076e+00
  9.084985e+00    2.753665e+00
  9.100860e+00    2.760320e+00
  9.116736e+00    2.769914e+00
  9.132611e+00    2.812360e+00
  9.148487e+00    2.762886e+00
  9.164362e+00    2.718907e+00
  9.180238e+00    2.728295e+00
  9.196114e+00    2.750755e+00
  9.211989e+00    2.721543e+00
  9.227865e+00    2.717074e+00
  9.243740e+00    2.693357e+00
  9.259616e+00    2.658554e+00
  9.275491e+00    2.715968e+00
  9.291367e+00    2.768692e+00
  9.307243e+00    2.721875e+00
  9.323118e+00    2.749299e+00
  9.338994e+00    2.726027e+00
  9.354869e+00    2.712611e+00
  9.370745e+00    2.739467e+00
  9.386620e+00    2.702488e+00
  9.402496e+00    2.738704e+00
  9.418372e+00    2.715995e+00
  9.434247e+00    2.715534e+00
  9.450123e+00    2.702549e+00
  9.465998e+00    2.685909e+00
  9.481874e+00    2.735306e+00
  9.497749e+00    2.711514e+00
  9.513625e+00    2.672154e+00
  9.529501e+00    2.734159e+00
  9.545376e+00    2.769643e+00
  9.561252e+00    2.701991e+00
  9.577127e+00    2.701440e+00
  9.593003e+00    2.763559e+00
  9.608878e+00    2.664900e+00
  9.624754e+00    2.646554e+00
  9.640630e+00    2.715388e+00
  9.656505e+00    2.746332e+00
  9.672381e+00    2.666906e+00
  9.688256e+00    2.669189e+00
  9.704132e+00    2.666220e+00
  9.720008e+00    2.675639e+00
  9.735883e+00    2.683619e+00
  9.751759e+00    2.657596e+00
  9.767634e+00    2.637443e+00
  9.783510e+00    2.673308e+00
  9.799385e+00    2.686440e+00
  9.815261e+00    2.682755e+00
  9.831137e+00    2.670245e+00
  9.847012e+00    2.663152e+00
  9.862888e+00    2.682514e+00
  9.878763e+00    2.644317e+00
  9.894639e+00    2.623953e+00
  9.910514e+00    2.661915e+00
  9.926390e+00    2.699244e+00
  9.942266e+00    2.658507e+00
  9.958141e+00    2.662685e+00
  9.974017e+00    2.696016e+00
  9.989892e+00    2.679561e+00
  1.000577e+01    2.620012e+00
  1.002164e+01    2.629450e+00
  1.003752e+01    2.675286e+00
  1.005339e+01    2.677143e+00
  1.006927e+01    2.606977e+00
  1.008515e+01    2.604567e+00
  1.010102e+01    2.611248e+00
  1.011690e+01    2.611373e+00
  1.013277e+01    2.623104e+00
  1.014865e+01    2.589502e+00
  1.016452e+01    2.568282e+00
  1.018040e+01    2.609987e+00
  1.019627e+01    2.619092e+00
  1.021215e+01    2.598803e+00
  1.022803e+01    2.601416e+00
  1.024390e+01    2.572522e+00
  1.025978e+01    2.568698e+00
  1.027565e+01    2.577009e+00
  1.029153e+01    2.573741e+00
  1.030740e+01    2.561601e+00
  1.032328e+01    2.609976e+00
  1.033915e+01    2.570163e+00
  1.035503e+01    2.581440e+00
  1.037091e+01    2.587297e+00
  1.038678e+01    2.533431e+00
  1.040266e+01    2.528063e+00
  1.041853e+01    2.538670e+00
  1.043441e+01    2.555398e+00
  1.045028e+01    2.562814e+00
  1.046616e+01    2.553878e+00
  1.048204e+01    2.547324e+00
  1.049791e+01    2.567575e+00
  1.051379e+01    2.633420e+00
  1.052966e+01    2.600959e+00
  1.054554e+01    2.578965e+00
  1.056141e+01    2.557542e+00
  1.057729e+01    2.549971e+00
  1.059316e+01    2.508090e+00
  1.060904e+01    2.534189e+00
  1.062492e+01    2.545077e+00
  1.064079e+01    2.499187e+00
  1.065667e+01    2.463973e+00
  1.067254e+01    2.528392e+00
  1.068842e+01    2.602320e+00
  1.070429e+01    2.556314e+00
  1.072017e+01    2.541314e+00
  1.073604e+01    2.526746e+00
  1.075192e+01    2.515170e+00
  1.076780e+01    2.497240e+00
  1.078367e+01    2.508362e+00
  1.079955e+01    2.499653e+00
  1.081542e+01    2.473647e+00
  1.083130e+01    2.476030e+00
  1.084717e+01    2.492377e+00
  1.086305e+01    2.453455e+00
  1.087892e+01    2.424625e+00
  1.089480e+01    2.440646e+00
  1.091068e+01    2.504366e+00
  1.092655e+01    2.473913e+00
  1.094243e+01    2.480345e+00
  1.095830e+01    2.461203e+00
  1.097418e+01    2.458943e+00
  1.099005e+01    2.482532e+00
  1.100593e+01    2.451122e+00
  1.102180e+01    2.416213e+00
  1.103768e+01    2.428932e+00
  1.105356e+01    2.421227e+00
  1.106943e+01    2.432481e+00
  1.108531e+01    2.482827e+00
  1.110118e+01    2.481433e+00
  1.111706e+01    2.413301e+00
  1.113293e+01    2.421578e+00
  1.114881e+01    2.412251e+00
  1.116468e+01    2.462777e+00
  1.118056e+01    2.461294e+00
  1.119644e+01    2.383796e+00
  1.121231e+01    2.405945e+00
  1.122819e+01    2.412675e+00
  1.124406e+01    2.415673e+00
  1.125994e+01    2.429434e+00
  1.127581e+01    2.417159e+00
  1.129169e+01    2.387817e+00
  1.130756e+01    2.378083e+00
  1.132344e+01    2.419439e+00
  1.133932e+01    2.409139e+00
  1.135519e+01    2.455086e+00
  1.137107e+01    2.423871e+00
  1.138694e+01    2.333647e+00
  1.140282e+01    2.425462e+00
  1.141869e+01    2.373177e+00
  1.143457e+01    2.350323e+00
  1.145045e+01    2.347315e+00
  1.146632e+01    2.345253e+00
  1.148220e+01    2.373729e+00
  1.149807e+01    2.420876e+00
  1.151395e+01    2.406619e+00
  1.152982e+01    2.315849e+00
  1.154570e+01    2.331220e+00
  1.156157e+01    2.357348e+00
  1.157745e+01    2.354327e+00
  1.159333e+01    2.348356e+00
  1.160920e+01    2.333721e+00
  1.162508e+01    2.375113e+00
  1.164095e+01    2.373166e+00
  1.165683e+01    2.363601e+00
  1.167270e+01    2.347647e+00
  1.168858e+01    2.338573e+00
  1.170445e+01    2.308347e+00
  1.172033e+01    2.335847e+00
  1.173621e+01    2.307142e+00
  1.175208e+01    2.288415e+00
  1.176796e+01    2.297745e+00
  1.178383e+01    2.331631e+00
  1.179971e+01    2.331138e+00
  1.181558e+01    2.303641e+00
  1.183146e+01    2.317852e+00
  1.184733e+01    2.315868e+00
  1.186321e+01    2.296862e+00
  1.187909e+01    2.312496e+00
  1.189496e+01    2.335972e+00
  1.191084e+01    2.334413e+00
  1.192671e+01    2.330152e+00
  1.194259e+01    2.307156e+00
  1.195846e+01    2.297601e+00
  1.197434e+01    2.315948e+00
  1.199021e+01    2.297567e+00
  1.200609e+01    2.301953e+00
  1.202197e+01    2.313434e+00
  1.203784e+01    2.261751e+00
  1.205372e+01    2.303246e+00
  1.206959e+01    2.294960e+00
  1.208547e+01    2.282259e+00
  1.210134e+01    2.268337e+00
  1.211722e+01    2.301895e+00
  1.213309e+01    2.337079e+00
  1.214897e+01    2.324332e+00
  1.216485e+01    2.270994e+00
  1.218072e+01    2.297169e+00
  1.219660e+01    2.299956e+00
  1.221247e+01    2.254324e+00
  1.222835e+01    2.283846e+00
  1.224422e+01    2.298663e+00
  1.226010e+01    2.288319e+00
  1.227597e+01    2.305121e+00
  1.229185e+01    2.287412e+00
  1.230773e+01    2.268465e+00
  1.232360e+01    2.259400e+00
  1.233948e+01    2.321809e+00
  1.235535e+01    2.338270e+00
  1.237123e+01    2.320903e+00
  1.238710e+01    2.268954e+00
  1.240298e+01    2.294822e+00
  1.241886e+01    2.285748e+00
  1.243473e+01    2.319408e+00
  1.245061e+01    2.320582e+00
  1.246648e+01    2.276289e+00
  1.248236e+01    2.327722e+00
  1.249823e+01    2.345688e+00
  1.251411e+01    2.330354e+00
  1.252998e+01    2.324987e+00
  1.254586e+01    2.334074e+00
  1.256174e+01    2.341592e+00
  1.257761e+01    2.341577e+00
  1.259349e+01    2.327015e+00
  1.260936e+01    2.333646e+00
  1.262524e+01    2.351037e+00
  1.264111e+01    2.348363e+00
  1.265699e+01    2.372008e+00
  1.267286e+01    2.425520e+00
  1.268874e+01    2.478520e+00
  1.270462e+01    2.444937e+00
  1.272049e+01    2.444289e+00
  1.273637e+01    2.466328e+00
  1.275224e+01    2.489764e+00
  1.276812e+01    2.538187e+00
  1.278399e+01    2.582979e+00
  1.279987e+01    2.588367e+00
  1.281574e+01    2.674680e+00
  1.283162e+01    2.740212e+00
  1.284750e+01    2.844057e+00
  1.286337e+01    2.887518e+00
  1.287925e+01    2.997554e+00
  1.289512e+01    3.141310e+00
  1.291100e+01    3.284905e+00
  1.292687e+01    3.439652e+00
  1.294275e+01    3.643471e+00
  1.295862e+01    3.886255e+00
  1.297450e+01    4.230625e+00
  1.299038e+01    4.703064e+00
  1.300625e+01    5.298605e+00
  1.302213e+01    5.953450e+00
  1.303800e+01    6.932526e+00
  1.305388e+01    8.094714e+00
  1.306975e+01    9.370811e+00
  1.308563e+01    1.074480e+01
  1.310150e+01    1.208743e+01
  1.311738e+01    1.342573e+01
  1.313326e+01    1.476169e+01
  1.314913e+01    1.596744e+01
  1.316501e+01    1.721836e+01
  1.318088e+01    1.787641e+01
  1.319676e+01    1.792454e+01
  1.321263e+01    1.709064e+01
  1.322851e+01    1.541327e+01
  1.324438e+01    1.323359e+01
  1.326026e+01    1.115071e+01
  1.327614e+01    9.480463e+00
  1.329201e+01    7.970255e+00
  1.330789e+01    6.802093e+00
  1.332376e+01    5.970249e+00
  1.333964e+01    5.269511e+00
  1.335551e+01    4.747879e+00
  1.337139e+01    4.281902e+00
  1.338727e+01    3.918475e+00
  1.340314e+01    3.610452e+00
  1.341902e+01    3.323344e+00
  1.343489e+01    3.201672e+00
  1.345077e+01    3.079003e+00
  1.346664e+01    2.974951e+00
  1.348252e+01    2.814773e+00
  1.349839e+01    2.739053e+00
  1.351427e+01    2.632629e+00
  1.353015e+01    2.599894e+00
  1.354602e+01    2.546987e+00
  1.356190e+01    2.471407e+00
  1.357777e+01    2.459751e+00
  1.359365e+01    2.434243e+00
  1.360952e+01    2.409955e+00
  1.362540e+01    2.356318e+00
  1.364127e+01    2.312376e+00
  1.365715e+01    2.320038e+00
  1.367303e+01    2.270787e+00
  1.368890e+01    2.259480e+00
  1.370478e+01    2.231779e+00
  1.372065e+01    2.171136e+00
  1.373653e+01    2.167736e+00
  1.375240e+01    2.166563e+00
  1.376828e+01    2.128725e+00
  1.378415e+01    2.122363e+00
  1.380003e+01    2.103982e+00
  1.381591e+01    2.150870e+00
  1.383178e+01    2.168045e+00
  1.384766e+01    2.121367e+00
  1.386353e+01    2.117793e+00
  1.387941e+01    2.098960e+00
  1.389528e+01    2.051669e+00
  1.391116e+01    2.048521e+00
  1.392703e+01    2.039112e+00
  1.394291e+01    2.077763e+00
  1.395879e+01    2.083817e+00
  1.397466e+01    2.045168e+00
  1.399054e+01    2.061008e+00
  1.400641e+01    2.054150e+00
  1.402229e+01    2.058385e+00
  1.403816e+01    2.043636e+00
  1.405404e+01    1.999494e+00
  1.406991e+01    1.983798e+00
  1.408579e+01    2.024153e+00
  1.410167e+01    2.040499e+00
  1.411754e+01    2.006157e+00
  1.413342e+01    1.957714e+00
  1.414929e+01    2.041524e+00
  1.416517e+01    1.996427e+00
  1.418104e+01    1.984521e+00
  1.419692e+01    1.973776e+00
  1.421279e+01    1.966250e+00
  1.422867e+01    1.913195e+00
  1.424455e+01    1.975984e+00
  1.426042e+01    1.984354e+00
  1.427630e+01    1.916452e+00
  1.429217e+01    1.937129e+00
  1.430805e+01    1.955381e+00
  1.432392e+01    1.956819e+00
  1.433980e+01    1.924674e+00
  1.435568e+01    1.914933e+00
  1.437155e+01    1.916806e+00
  1.438743e+01    1.878090e+00
  1.440330e+01    1.892753e+00
  1.441918e+01    1.906239e+00
  1.443505e+01    1.905969e+00
  1.445093e+01    1.848192e+00
  1.446680e+01    1.896192e+00
  1.448268e+01    1.903322e+00
  1.449856e+01    1.899185e+00
  1.451443e+01    1.891699e+00
  1.453031e+01    1.912880e+00
  1.454618e+01    1.918955e+00
  1.456206e+01    1.913041e+00
  1.457793e+01    1.918833e+00
  1.459381e+01    1.882892e+00
  1.460968e+01    1.892336e+00
  1.462556e+01    1.885796e+00
  1.464144e+01    1.897022e+00
  1.465731e+01    1.897140e+00
  1.467319e+01    1.905973e+00
  1.468906e+01    1.876232e+00
  1.470494e+01    1.881388e+00
  1.472081e+01    1.889099e+00
  1.473669e+01    1.874512e+00
  1.475256e+01    1.870705e+00
  1.476844e+01    1.898803e+00
  1.478432e+01    1.887469e+00
  1.480019e+01    1.858185e+00
  1.481607e+01    1.869018e+00
  1.483194e+01    1.906912e+00
  1.484782e+01    1.907359e+00
  1.486369e+01    1.919714e+00
  1.487957e+01    1.912385e+00
  1.489544e+01    1.960804e+00
  1.491132e+01    1.977059e+00
  1.492720e+01    1.989689e+00
  1.494307e+01    1.996070e+00
  1.495895e+01    2.020779e+00
  1.497482e+01    2.033462e+00
  1.499070e+01    2.097090e+00
  1.500657e+01    2.132288e+00
  1.502245e+01    2.153534e+00
  1.503832e+01    2.252863e+00
  1.505420e+01    2.348545e+00
  1.507008e+01    2.449920e+00
  1.508595e+01    2.600886e+00
  1.510183e+01    2.805712e+00
  1.511770e+01    3.023294e+00
  1.513358e+01    3.359161e+00
  1.514945e+01    3.628848e+00
  1.516533e+01    4.049032e+00
  1.518120e+01    4.457867e+00
  1.519708e+01    4.875572e+00
  1.521296e+01    5.204672e+00
  1.522883e+01    5.543231e+00
  1.524471e+01    5.815052e+00
  1.526058e+01    6.039051e+00
  1.527646e+01    6.127584e+00
  1.529233e+01    5.988047e+00
  1.530821e+01    5.763990e+00
  1.532409e+01    5.360175e+00
  1.533996e+01    4.825214e+00
  1.535584e+01    4.264256e+00
  1.537171e+01    3.743105e+00
  1.538759e+01    3.325117e+00
  1.540346e+01    2.992648e+00
  1.541934e+01    2.735203e+00
  1.543521e+01    2.554173e+00
  1.545109e+01    2.360167e+00
  1.546697e+01    2.236021e+00
  1.548284e+01    2.137972e+00
  1.549872e+01    2.049971e+00
  1.551459e+01    2.008810e+00
  1.553047e+01    1.984619e+00
  1.554634e+01    1.966446e+00
  1.556222e+01    1.931469e+00
  1.557809e+01    1.888841e+00
  1.559397e+01    1.868944e+00
  1.560985e+01    1.837389e+00
  1.562572e+01    1.832089e+00
  1.564160e+01    1.814068e+00
  1.565747e+01    1.797518e+00
  1.567335e+01    1.752837e+00
  1.568922e+01    1.778906e+00
  1.570510e+01    1.756043e+00
  1.572097e+01    1.729304e+00
  1.573685e+01    1.693341e+00
  1.575273e+01    1.670247e+00
  1.576860e+01    1.669136e+00
  1.578448e+01    1.667145e+00
  1.580035e+01    1.621523e+00
  1.581623e+01    1.662338e+00
  1.583210e+01    1.665716e+00
  1.584798e+01    1.645935e+00
  1.586385e+01    1.634894e+00
  1.587973e+01    1.645114e+00
  1.589561e+01    1.653352e+00
  1.591148e+01    1.627826e+00
  1.592736e+01    1.609336e+00
  1.594323e+01    1.593420e+00
  1.595911e+01    1.606481e+00
  1.597498e+01    1.594359e+00
  1.599086e+01    1.617842e+00
  1.600673e+01    1.594593e+00
  1.602261e+01    1.567773e+00
  1.603849e+01    1.560290e+00
  1.605436e+01    1.571219e+00
  1.607024e+01    1.573866e+00
  1.608611e+01    1.588766e+00
  1.610199e+01    1.578439e+00
  1.611786e+01    1.561071e+00
  1.613374e+01    1.533319e+00
  1.614961e+01    1.568311e+00
  1.616549e+01    1.577778e+00
  1.618137e+01    1.585984e+00
  1.619724e+01    1.523360e+00
  1.621312e+01    1.535742e+00
  1.622899e+01    1.520294e+00
  1.624487e+01    1.532509e+00
  1.626074e+01    1.524732e+00
  1.627662e+01    1.538838e+00
  1.629250e+01    1.534416e+00
  1.630837e+01    1.505051e+00
  1.632425e+01    1.528858e+00
  1.634012e+01    1.512871e+00
  1.635600e+01    1.503315e+00
  1.637187e+01    1.550955e+00
  1.638775e+01    1.545533e+00
  1.640362e+01    1.500387e+00
  1.641950e+01    1.487917e+00
  1.643538e+01    1.510825e+00
  1.645125e+01    1.507591e+00
  1.646713e+01    1.498146e+00
  1.648300e+01    1.479314e+00
  1.649888e+01    1.508532e+00
  1.651475e+01    1.514518e+00
  1.653063e+01    1.511035e+00
  1.654650e+01    1.512212e+00
  1.656238e+01    1.492919e+00
  1.657826e+01    1.471819e+00
  1.659413e+01    1.460974e+00
  1.661001e+01    1.465008e+00
  1.662588e+01    1.456018e+00
  1.664176e+01    1.470764e+00
  1.665763e+01    1.468289e+00
  1.667351e+01    1.455688e+00
  1.668938e+01    1.451946e+00
  1.670526e+01    1.466416e+00
  1.672114e+01    1.464359e+00
  1.673701e+01    1.475880e+00
  1.675289e+01    1.443399e+00
  1.676876e+01    1.421107e+00
  1.678464e+01    1.416803e+00
  1.680051e+01    1.436163e+00
  1.681639e+01    1.422524e+00
  1.683226e+01    1.420614e+00
  1.684814e+01    1.427125e+00
  1.686402e+01    1.435663e+00
  1.687989e+01    1.460040e+00
  1.689577e+01    1.447383e+00
  1.691164e+01    1.434309e+00
  1.692752e+01    1.435228e+00
  1.694339e+01    1.438288e+00
  1.695927e+01    1.427582e+00
  1.697514e+01    1.420454e+00
  1.699102e+01    1.419405e+00
  1.700690e+01    1.417591e+00
  1.702277e+01    1.423262e+00
  1.703865e+01    1.413732e+00
  1.705452e+01    1.400939e+00
  1.707040e+01    1.383453e+00
  1.708627e+01    1.396291e+00
  1.710215e+01    1.409055e+00
  1.711802e+01    1.402547e+00
  1.713390e+01    1.412654e+00
  1.714978e+01    1.389568e+00
  1.716565e+01    1.362176e+00
  1.718153e+01    1.380423e+00
  1.719740e+01    1.379722e+00
  1.721328e+01    1.380711e+00
  1.722915e+01    1.397739e+00
  1.724503e+01    1.387394e+00
  1.726091e+01    1.353158e+00
  1.727678e+01    1.386048e+00
  1.729266e+01    1.401425e+00
  1.730853e+01    1.340874e+00
  1.732441e+01    1.380897e+00
  1.734028e+01    1.403057e+00
  1.735616e+01    1.373415e+00
  1.737203e+01    1.356312e+00
  1.738791e+01    1.335134e+00
  1.740379e+01    1.354715e+00
  1.741966e+01    1.377004e+00
  1.743554e+01    1.380695e+00
  1.745141e+01    1.374673e+00
  1.746729e+01    1.374546e+00
  1.748316e+01    1.378040e+00
  1.749904e+01    1.365908e+00
  1.751491e+01    1.362036e+00
  1.753079e+01    1.331825e+00
  1.754667e+01    1.343059e+00
  1.756254e+01    1.337059e+00
  1.757842e+01    1.354657e+00
  1.759429e+01    1.333015e+00
  1.761017e+01    1.343926e+00
  1.762604e+01    1.308570e+00
  1.764192e+01    1.328201e+00
  1.765779e+01    1.352787e+00
  1.767367e+01    1.338551e+00
  1.768955e+01    1.309870e+00
  1.770542e+01    1.327538e+00
  1.772130e+01    1.375726e+00
  1.773717e+01    1.336065e+00
  1.775305e+01    1.312322e+00
  1.776892e+01    1.322638e+00
  1.778480e+01    1.327386e+00
  1.780067e+01    1.330930e+00
  1.781655e+01    1.300790e+00
  1.783243e+01    1.294844e+00
  1.784830e+01    1.277894e+00
  1.786418e+01    1.281956e+00
  1.788005e+01    1.291362e+00
  1.789593e+01    1.311586e+00
  1.791180e+01    1.291978e+00
  1.792768e+01    1.311510e+00
  1.794355e+01    1.280029e+00
  1.795943e+01    1.277303e+00
  1.797531e+01    1.279850e+00
  1.799118e+01    1.284274e+00
  1.800706e+01    1.282075e+00
  1.802293e+01    1.270841e+00
  1.803881e+01    1.287355e+00
  1.805468e+01    1.303082e+00
  1.807056e+01    1.249481e+00
  1.808643e+01    1.253145e+00
  1.810231e+01    1.262858e+00
  1.811819e+01    1.253119e+00
  1.813406e+01    1.284821e+00
  1.814994e+01    1.299007e+00
  1.816581e+01    1.293405e+00
  1.818169e+01    1.255084e+00
  1.819756e+01    1.236609e+00
  1.821344e+01    1.271677e+00
  1.822932e+01    1.269783e+00
  1.824519e+01    1.262688e+00
  1.826107e+01    1.264845e+00
  1.827694e+01    1.244868e+00
  1.829282e+01    1.260863e+00
  1.830869e+01    1.276848e+00
  1.832457e+01    1.252803e+00
  1.834044e+01    1.271123e+00
  1.835632e+01    1.260730e+00
  1.837220e+01    1.274357e+00
  1.838807e+01    1.251654e+00
  1.840395e+01    1.245198e+00
  1.841982e+01    1.195328e+00
  1.843570e+01    1.216874e+00
  1.845157e+01    1.240375e+00
  1.846745e+01    1.233838e+00
  1.848332e+01    1.227328e+00
  1.849920e+01    1.231829e+00
  1.851508e+01    1.236093e+00
  1.853095e+01    1.202983e+00
  1.854683e+01    1.215675e+00
  1.856270e+01    1.245497e+00
  1.857858e+01    1.224922e+00
  1.859445e+01    1.224248e+00
  1.861033e+01    1.210167e+00
  1.862620e+01    1.202667e+00
  1.864208e+01    1.195419e+00
  1.865796e+01    1.178413e+00
  1.867383e+01    1.209576e+00
  1.868971e+01    1.206671e+00
  1.870558e+01    1.214302e+00
  1.872146e+01    1.208442e+00
  1.873733e+01    1.214011e+00
  1.875321e+01    1.198651e+00
  1.876908e+01    1.202122e+00
  1.878496e+01    1.204782e+00
  1.880084e+01    1.209088e+00
  1.881671e+01    1.212910e+00
  1.883259e+01    1.232449e+00
  1.884846e+01    1.198907e+00
  1.886434e+01    1.176674e+00
  1.888021e+01    1.181468e+00
  1.889609e+01    1.192038e+00
  1.891196e+01    1.194995e+00
  1.892784e+01    1.235003e+00
  1.894372e+01    1.215491e+00
  1.895959e+01    1.186855e+00
  1.897547e+01    1.186642e+00
  1.899134e+01    1.181322e+00
  1.900722e+01    1.184489e+00
  1.902309e+01    1.186168e+00
  1.903897e+01    1.188239e+00
  1.905484e+01    1.183157e+00
  1.907072e+01    1.182123e+00
  1.908660e+01    1.146606e+00
  1.910247e+01    1.137051e+00
  1.911835e+01    1.155873e+00
  1.913422e+01    1.178088e+00
  1.915010e+01    1.171508e+00
  1.916597e+01    1.185075e+00
  1.918185e+01    1.156143e+00
  1.919773e+01    1.185711e+00
  1.921360e+01    1.163679e+00
  1.922948e+01    1.161485e+00
  1.924535e+01    1.192825e+00
  1.926123e+01    1.179989e+00
  1.927710e+01    1.163520e+00
  1.929298e+01    1.159631e+00
  1.930885e+01    1.132425e+00
  1.932473e+01    1.148270e+00
  1.934061e+01    1.178079e+00
  1.935648e+01    1.203922e+00
  1.937236e+01    1.184191e+00
  1.938823e+01    1.169275e+00
  1.940411e+01    1.158587e+00
  1.941998e+01    1.152951e+00
  1.943586e+01    1.160455e+00
  1.945173e+01    1.174076e+00
  1.946761e+01    1.147266e+00
  1.948349e+01    1.142214e+00
  1.949936e+01    1.161341e+00
  1.951524e+01    1.141070e+00
  1.953111e+01    1.122759e+00
  1.954699e+01    1.129619e+00
  1.956286e+01    1.134520e+00
  1.957874e+01    1.140359e+00
  1.959461e+01    1.154797e+00
  1.961049e+01    1.149170e+00
  1.962637e+01    1.148707e+00
  1.964224e+01    1.139780e+00
  1.965812e+01    1.146708e+00
  1.967399e+01    1.126074e+00
  1.968987e+01    1.127379e+00
  1.970574e+01    1.120426e+00
  1.972162e+01    1.118730e+00
  1.973749e+01    1.109562e+00
  1.975337e+01    1.119838e+00
  1.976925e+01    1.145121e+00
  1.978512e+01    1.133069e+00
  1.980100e+01    1.130423e+00
  1.981687e+01    1.108692e+00
  1.983275e+01    1.120332e+00
  1.984862e+01    1.108859e+00
  1.986450e+01    1.107159e+00
  1.988037e+01    1.101940e+00
  1.989625e+01    1.080316e+00
  1.991213e+01    1.079136e+00
  1.992800e+01    1.115595e+00
  1.994388e+01    1.119907e+00
  1.995975e+01    1.126170e+00
  1.997563e+01    1.103387e+00
  1.999150e+01    1.101487e+00
  2.000738e+01    1.113661e+00
  2.002325e+01    1.111156e+00
  2.003913e+01    1.102423e+00
  2.005501e+01    1.102576e+00
  2.007088e+01    1.089236e+00
  2.008676e+01    1.100105e+00
  2.010263e+01    1.094328e+00
  2.011851e+01    1.078103e+00
  2.013438e+01    1.083902e+00
  2.015026e+01    1.095781e+00
  2.016614e+01    1.102281e+00
  2.018201e+01    1.094504e+00
  2.019789e+01    1.098693e+00
  2.021376e+01    1.098414e+00
  2.022964e+01    1.097291e+00
  2.024551e+01    1.092966e+00
  2.026139e+01    1.088814e+00
  2.027726e+01    1.076043e+00
  2.029314e+01    1.105268e+00
  2.030902e+01    1.102940e+00
  2.032489e+01    1.082479e+00
  2.034077e+01    1.089481e+00
  2.035664e+01    1.102050e+00
  2.037252e+01    1.084100e+00
  2.038839e+01    1.092653e+00
  2.040427e+01    1.086482e+00
  2.042014e+01    1.096302e+00
  2.043602e+01    1.070773e+00
  2.045190e+01    1.048565e+00
  2.046777e+01    1.059883e+00
  2.048365e+01    1.080421e+00
  2.049952e+01    1.078638e+00
  2.051540e+01    1.064636e+00
  2.053127e+01    1.072396e+00
  2.054715e+01    1.062968e+00
  2.056302e+01    1.087897e+00
  2.057890e+01    1.074777e+00
  2.059478e+01    1.086043e+00
  2.061065e+01    1.099982e+00
  2.062653e+01    1.065113e+00
  2.064240e+01    1.037700e+00
  2.065828e+01    1.073752e+00
  2.067415e+01    1.079092e+00
  2.069003e+01    1.049758e+00
  2.070590e+01    1.048560e+00
  2.072178e+01    1.056948e+00
  2.073766e+01    1.055704e+00
  2.075353e+01    1.066133e+00
  2.076941e+01    1.058758e+00
  2.078528e+01    1.052682e+00
  2.080116e+01    1.082608e+00
  2.081703e+01    1.076753e+00
  2.083291e+01    1.056156e+00
  2.084878e+01    1.061155e+00
  2.086466e+01    1.071471e+00
  2.088054e+01    1.061859e+00
  2.089641e+01    1.069862e+00
  2.091229e+01    1.076663e+00
  2.092816e+01    1.070515e+00
  2.094404e+01    1.053580e+00
  2.095991e+01    1.065019e+00
  2.097579e+01    1.088400e+00
  2.099166e+01    1.092543e+00
  2.100754e+01    1.056213e+00
  2.102342e+01    1.049014e+00
  2.103929e+01    1.067770e+00
  2.105517e+01    1.073951e+00
  2.107104e+01    1.088519e+00
  2.108692e+01    1.081040e+00
  2.110279e+01    1.077425e+00
  2.111867e+01    1.059101e+00
  2.113455e+01    1.106359e+00
  2.115042e+01    1.090812e+00
  2.116630e+01    1.081455e+00
  2.118217e+01    1.057387e+00
  2.119805e+01    1.073849e+00
  2.121392e+01    1.072275e+00
  2.122980e+01    1.074208e+00
  2.124567e+01    1.090134e+00
  2.126155e+01    1.089236e+00
  2.127743e+01    1.092211e+00
  2.129330e+01    1.117705e+00
  2.130918e+01    1.110000e+00
  2.132505e+01    1.142010e+00
  2.134093e+01    1.131293e+00
  2.135680e+01    1.123151e+00
  2.137268e+01    1.122528e+00
  2.138855e+01    1.138517e+00
  2.140443e+01    1.148829e+00
  2.142031e+01    1.172140e+00
  2.143618e+01    1.167479e+00
  2.145206e+01    1.194530e+00
  2.146793e+01    1.228849e+00
  2.148381e+01    1.237918e+00
  2.149968e+01    1.265606e+00
  2.151556e+01    1.304715e+00
  2.153143e+01    1.359509e+00
  2.154731e+01    1.363744e+00
  2.156319e+01    1.378477e+00
  2.157906e+01    1.426069e+00
  2.159494e+01    1.496208e+00
  2.161081e+01    1.563281e+00
  2.162669e+01    1.634704e+00
  2.164256e+01    1.749081e+00
  2.165844e+01    1.882244e+00
  2.167431e+01    2.015240e+00
  2.169019e+01    2.177457e+00
  2.170607e+01    2.427491e+00
  2.172194e+01    2.687374e+00
  2.173782e+01    3.040427e+00
  2.175369e+01    3.464752e+00
  2.176957e+01    3.952099e+00
  2.178544e+01    4.599438e+00
  2.180132e+01    5.265741e+00
  2.181719e+01    5.906247e+00
  2.183307e+01    6.683374e+00
  2.184895e+01    7.493501e+00
  2.186482e+01    8.245108e+00
  2.188070e+01    8.999145e+00
  2.189657e+01    9.550605e+00
  2.191245e+01    9.869584e+00
  2.192832e+01    9.801037e+00
  2.194420e+01    9.269440e+00
  2.196007e+01    8.442270e+00
  2.197595e+01    7.417420e+00
  2.199183e+01    6.388369e+00
  2.200770e+01    5.424176e+00
  2.202358e+01    4.579821e+00
  2.203945e+01    3.894207e+00
  2.205533e+01    3.333647e+00
  2.207120e+01    2.911239e+00
  2.208708e+01    2.585096e+00
  2.210296e+01    2.338391e+00
  2.211883e+01    2.084682e+00
  2.213471e+01    1.959540e+00
  2.215058e+01    1.827053e+00
  2.216646e+01    1.722939e+00
  2.218233e+01    1.630060e+00
  2.219821e+01    1.551426e+00
  2.221408e+01    1.455395e+00
  2.222996e+01    1.402771e+00
  2.224584e+01    1.342167e+00
  2.226171e+01    1.299060e+00
  2.227759e+01    1.251829e+00
  2.229346e+01    1.239178e+00
  2.230934e+01    1.229693e+00
  2.232521e+01    1.192676e+00
  2.234109e+01    1.190826e+00
  2.235696e+01    1.152709e+00
  2.237284e+01    1.144292e+00
  2.238872e+01    1.124504e+00
  2.240459e+01    1.109376e+00
  2.242047e+01    1.069969e+00
  2.243634e+01    1.054473e+00
  2.245222e+01    1.062459e+00
  2.246809e+01    1.050139e+00
  2.248397e+01    1.028150e+00
  2.249984e+01    1.006630e+00
  2.251572e+01    9.971654e-01
  2.253160e+01    1.026900e+00
  2.254747e+01    1.006243e+00
  2.256335e+01    1.001207e+00
  2.257922e+01    9.842634e-01
  2.259510e+01    9.740136e-01
  2.261097e+01    9.756354e-01
  2.262685e+01    9.706063e-01
  2.264272e+01    9.707336e-01
  2.265860e+01    9.692635e-01
  2.267448e+01    9.624994e-01
  2.269035e+01    9.398404e-01
  2.270623e+01    9.363428e-01
  2.272210e+01    9.623045e-01
  2.273798e+01    9.458005e-01
  2.275385e+01    9.611463e-01
  2.276973e+01    9.543487e-01
  2.278560e+01    9.499837e-01
  2.280148e+01    9.250820e-01
  2.281736e+01    9.483898e-01
  2.283323e+01    9.199902e-01
  2.284911e+01    9.134024e-01
  2.286498e+01    9.066700e-01
  2.288086e+01    9.021848e-01
  2.289673e+01    8.980690e-01
  2.291261e+01    9.061745e-01
  2.292848e+01    9.149314e-01
  2.294436e+01    8.998987e-01
  2.296024e+01    8.875611e-01
  2.297611e+01    9.111778e-01
  2.299199e+01    9.136278e-01
  2.300786e+01    8.844823e-01
  2.302374e+01    9.004469e-01
  2.303961e+01    8.946409e-01
  2.305549e+01    8.912856e-01
  2.307137e+01    8.870484e-01
  2.308724e+01    8.897927e-01
  2.310312e+01    8.906797e-01
  2.311899e+01    8.821228e-01
  2.313487e+01    8.827456e-01
  2.315074e+01    8.751000e-01
  2.316662e+01    8.659477e-01
  2.318249e+01    8.645414e-01
  2.319837e+01    8.635806e-01
  2.321425e+01    8.604360e-01
  2.323012e+01    8.671854e-01
  2.324600e+01    8.485551e-01
  2.326187e+01    8.508040e-01
  2.327775e+01    8.690884e-01
  2.329362e+01    8.792826e-01
  2.330950e+01    8.701674e-01
  2.332537e+01    8.527023e-01
  2.334125e+01    8.452307e-01
  2.335713e+01    8.500057e-01
  2.337300e+01    8.508205e-01
  2.338888e+01    8.480024e-01
  2.340475e+01    8.461936e-01
  2.342063e+01    8.603388e-01
  2.343650e+01    8.448219e-01
  2.345238e+01    8.343582e-01
  2.346825e+01    8.443003e-01
  2.348413e+01    8.642527e-01
  2.350001e+01    8.528082e-01
  2.351588e+01    8.514100e-01
  2.353176e+01    8.504826e-01
  2.354763e+01    8.352895e-01
  2.356351e+01    8.274152e-01
  2.357938e+01    8.203056e-01
  2.359526e+01    8.243548e-01
  2.361113e+01    8.350006e-01
  2.362701e+01    8.344606e-01
  2.364289e+01    8.217385e-01
  2.365876e+01    8.224226e-01
  2.367464e+01    8.195601e-01
  2.369051e+01    8.322121e-01
  2.370639e+01    8.248972e-01
  2.372226e+01    8.148890e-01
  2.373814e+01    8.169129e-01
  2.375401e+01    8.106430e-01
  2.376989e+01    7.987155e-01
  2.378577e+01    8.127992e-01
  2.380164e+01    8.130063e-01
  2.381752e+01    8.172111e-01
  2.383339e+01    7.949538e-01
  2.384927e+01    7.927105e-01
  2.386514e+01    7.897921e-01
  2.388102e+01    7.723228e-01
  2.389689e+01    7.863069e-01
  2.391277e+01    7.693148e-01
  2.392865e+01    7.807029e-01
  2.394452e+01    7.841864e-01
  2.396040e+01    7.967476e-01
  2.397627e+01    7.865419e-01
  2.399215e+01    7.752717e-01
  2.400802e+01    7.890239e-01
  2.402390e+01    7.709107e-01
  2.403978e+01    7.693417e-01
  2.405565e+01    8.066714e-01
  2.407153e+01    7.842333e-01
  2.408740e+01    7.743956e-01
  2.410328e+01    7.633963e-01
  2.411915e+01    7.455615e-01
  2.413503e+01    7.547415e-01
  2.415090e+01    7.694795e-01
  2.416678e+01    7.672554e-01
  2.418266e+01    7.734884e-01
  2.419853e+01    7.864659e-01
  2.421441e+01    7.642059e-01
  2.423028e+01    7.656290e-01
  2.424616e+01    7.923558e-01
  2.426203e+01    7.901519e-01
  2.427791e+01    7.813378e-01
  2.429378e+01    7.808753e-01
  2.430966e+01    7.846477e-01
  2.432554e+01    7.938805e-01
  2.434141e+01    7.901330e-01
  2.435729e+01    7.748598e-01
  2.437316e+01    7.597824e-01
  2.438904e+01    7.786897e-01
  2.440491e+01    7.773273e-01
  2.442079e+01    7.843563e-01
  2.443666e+01    7.888955e-01
  2.445254e+01    7.933843e-01
  2.446842e+01    7.920355e-01
  2.448429e+01    7.807085e-01
  2.450017e+01    7.801646e-01
  2.451604e+01    7.770543e-01
  2.453192e+01    7.677969e-01
  2.454779e+01    7.795293e-01
  2.456367e+01    7.997628e-01
  2.457954e+01    7.819653e-01
  2.459542e+01    7.740736e-01
  2.461130e+01    7.826407e-01
  2.462717e+01    7.857926e-01
  2.464305e+01    7.936758e-01
  2.465892e+01    8.049186e-01
  2.467480e+01    7.837769e-01
  2.469067e+01    8.002608e-01
  2.470655e+01    7.902367e-01
  2.472242e+01    7.702295e-01
  2.473830e+01    7.849197e-01
  2.475418e+01    7.861073e-01
  2.477005e+01    7.698089e-01
  2.478593e+01    7.670344e-01
  2.480180e+01    7.825375e-01
  2.481768e+01    7.792763e-01
  2.483355e+01    7.822320e-01
  2.484943e+01    7.922652e-01
  2.486530e+01    7.902980e-01
  2.488118e+01    7.833683e-01
  2.489706e+01    7.787709e-01
  2.491293e+01    7.899824e-01
  2.492881e+01    7.945132e-01
  2.494468e+01    7.974551e-01
  2.496056e+01    7.674729e-01
  2.497643e+01    7.717925e-01
  2.499231e+01    7.911231e-01
  2.500819e+01    8.084629e-01
  2.502406e+01    8.022047e-01
  2.503994e+01    7.948498e-01
  2.505581e+01    7.929038e-01
  2.507169e+01    7.898183e-01
  2.508756e+01    7.883011e-01
  2.510344e+01    7.898586e-01
  2.511931e+01    8.010539e-01
  2.513519e+01    8.100166e-01
  2.515107e+01    7.981763e-01
  2.516694e+01    8.091762e-01
  2.518282e+01    8.249727e-01
  2.519869e+01    8.365789e-01
  2.521457e+01    8.441206e-01
  2.523044e+01    8.450960e-01
  2.524632e+01    8.391507e-01
  2.526219e+01    8.447382e-01
  2.527807e+01    8.481573e-01
  2.529395e+01    8.428000e-01
  2.530982e+01    8.587403e-01
  2.532570e+01    8.736505e-01
  2.534157e+01    8.756575e-01
  2.535745e+01    8.905440e-01
  2.537332e+01    8.726673e-01
  2.538920e+01    8.756617e-01
  2.540507e+01    8.871264e-01
  2.542095e+01    8.836759e-01
  2.543683e+01    9.148488e-01
  2.545270e+01    9.230452e-01
  2.546858e+01    9.370308e-01
  2.548445e+01    9.363692e-01
  2.550033e+01    9.555467e-01
  2.551620e+01    9.755278e-01
  2.553208e+01    9.965050e-01
  2.554795e+01    1.010338e+00
  2.556383e+01    1.040870e+00
  2.557971e+01    1.078579e+00
  2.559558e+01    1.093343e+00
  2.561146e+01    1.114243e+00
  2.562733e+01    1.141555e+00
  2.564321e+01    1.164510e+00
  2.565908e+01    1.238587e+00
  2.567496e+01    1.296267e+00
  2.569083e+01    1.372576e+00
  2.570671e+01    1.456900e+00
  2.572259e+01    1.506418e+00
  2.573846e+01    1.620341e+00
  2.575434e+01    1.781175e+00
  2.577021e+01    1.930796e+00
  2.578609e+01    2.143652e+00
  2.580196e+01    2.404000e+00
  2.581784e+01    2.730248e+00
  2.583371e+01    3.088067e+00
  2.584959e+01    3.570839e+00
  2.586547e+01    4.046446e+00
  2.588134e+01    4.632830e+00
  2.589722e+01    5.339295e+00
  2.591309e+01    6.016898e+00
  2.592897e+01    6.711928e+00
  2.594484e+01    7.347538e+00
  2.596072e+01    7.843398e+00
  2.597660e+01    8.148828e+00
  2.599247e+01    8.160836e+00
  2.600835e+01    7.893526e+00
  2.602422e+01    7.211926e+00
  2.604010e+01    6.423078e+00
  2.605597e+01    5.603940e+00
  2.607185e+01    4.751053e+00
  2.608772e+01    4.084536e+00
  2.610360e+01    3.503722e+00
  2.611948e+01    3.038334e+00
  2.613535e+01    2.665937e+00
  2.615123e+01    2.351294e+00
  2.616710e+01    2.105686e+00
  2.618298e+01    1.904837e+00
  2.619885e+01    1.762873e+00
  2.621473e+01    1.640701e+00
  2.623060e+01    1.536575e+00
  2.624648e+01    1.428794e+00
  2.626236e+01    1.347257e+00
  2.627823e+01    1.289112e+00
  2.629411e+01    1.243149e+00
  2.630998e+01    1.187563e+00
  2.632586e+01    1.118755e+00
  2.634173e+01    1.111255e+00
  2.635761e+01    1.095332e+00
  2.637348e+01    1.060148e+00
  2.638936e+01    1.027783e+00
  2.640524e+01    1.012824e+00
  2.642111e+01    9.815597e-01
  2.643699e+01    9.837862e-01
  2.645286e+01    9.695840e-01
  2.646874e+01    9.618114e-01
  2.648461e+01    9.537890e-01
  2.650049e+01    9.470176e-01
  2.651636e+01    9.415003e-01
  2.653224e+01    9.245798e-01
  2.654812e+01    9.436424e-01
  2.656399e+01    9.162664e-01
  2.657987e+01    9.346378e-01
  2.659574e+01    9.246150e-01
  2.661162e+01    8.989897e-01
  2.662749e+01    9.067265e-01
  2.664337e+01    9.080908e-01
  2.665924e+01    8.975479e-01
  2.667512e+01    8.836787e-01
  2.669100e+01    9.003364e-01
  2.670687e+01    8.958049e-01
  2.672275e+01    9.117329e-01
  2.673862e+01    8.975560e-01
  2.675450e+01    9.071646e-01
  2.677037e+01    9.137327e-01
  2.678625e+01    9.020115e-01
  2.680212e+01    9.106002e-01
  2.681800e+01    8.785496e-01
  2.683388e+01    8.756672e-01
  2.684975e+01    8.816302e-01
  2.686563e+01    9.127532e-01
  2.688150e+01    8.950356e-01
  2.689738e+01    9.031625e-01
  2.691325e+01    9.224282e-01
  2.692913e+01    9.258281e-01
  2.694501e+01    9.413957e-01
  2.696088e+01    9.618205e-01
  2.697676e+01    9.659283e-01
  2.699263e+01    9.793756e-01
  2.700851e+01    1.021822e+00
  2.702438e+01    1.035069e+00
  2.704026e+01    1.049827e+00
  2.705613e+01    1.108752e+00
  2.707201e+01    1.165809e+00
  2.708789e+01    1.223932e+00
  2.710376e+01    1.321080e+00
  2.711964e+01    1.418096e+00
  2.713551e+01    1.519569e+00
  2.715139e+01    1.676564e+00
  2.716726e+01    1.798745e+00
  2.718314e+01    1.978342e+00
  2.719901e+01    2.142961e+00
  2.721489e+01    2.276501e+00
  2.723077e+01    2.362181e+00
  2.724664e+01    2.395361e+00
  2.726252e+01    2.327192e+00
  2.727839e+01    2.222041e+00
  2.729427e+01    2.025130e+00
  2.731014e+01    1.909211e+00
  2.732602e+01    1.736400e+00
  2.734189e+01    1.592394e+00
  2.735777e+01    1.468487e+00
  2.737365e+01    1.333651e+00
  2.738952e+01    1.248251e+00
  2.740540e+01    1.196505e+00
  2.742127e+01    1.145743e+00
  2.743715e+01    1.062683e+00
  2.745302e+01    1.020961e+00
  2.746890e+01    1.009037e+00
  2.748477e+01    9.759110e-01
  2.750065e+01    9.542604e-01
  2.751653e+01    9.234390e-01
  2.753240e+01    9.146292e-01
  2.754828e+01    9.298836e-01
  2.756415e+01    9.038720e-01
  2.758003e+01    8.596436e-01
  2.759590e+01    8.646361e-01
  2.761178e+01    8.783267e-01
  2.762765e+01    8.534072e-01
  2.764353e+01    8.454299e-01
  2.765941e+01    8.652071e-01
  2.767528e+01    8.364188e-01
  2.769116e+01    8.266091e-01
  2.770703e+01    8.424556e-01
  2.772291e+01    8.266073e-01
  2.773878e+01    8.145179e-01
  2.775466e+01    8.074524e-01
  2.777054e+01    8.124077e-01
  2.778641e+01    8.372186e-01
  2.780229e+01    8.160507e-01
  2.781816e+01    8.218025e-01
  2.783404e+01    7.965309e-01
  2.784991e+01    7.956871e-01
  2.786579e+01    8.208562e-01
  2.788166e+01    8.038357e-01
  2.789754e+01    8.137418e-01
  2.791342e+01    7.818943e-01
  2.792929e+01    7.712325e-01
  2.794517e+01    7.692239e-01
  2.796104e+01    7.748917e-01
  2.797692e+01    7.905231e-01
  2.799279e+01    7.663145e-01
  2.800867e+01    7.766631e-01
  2.802454e+01    7.877300e-01
  2.804042e+01    8.127860e-01
  2.805630e+01    7.875879e-01
  2.807217e+01    7.702672e-01
  2.808805e+01    7.739934e-01
  2.810392e+01    7.846147e-01
  2.811980e+01    7.797986e-01
  2.813567e+01    7.995389e-01
  2.815155e+01    7.731677e-01
  2.816742e+01    7.763913e-01
  2.818330e+01    7.682312e-01
  2.819918e+01    7.703027e-01
  2.821505e+01    7.792124e-01
  2.823093e+01    7.882723e-01
  2.824680e+01    7.701736e-01
  2.826268e+01    7.677936e-01
  2.827855e+01    7.544908e-01
  2.829443e+01    7.527407e-01
  2.831030e+01    7.771152e-01
  2.832618e+01    7.643998e-01
  2.834206e+01    7.659909e-01
  2.835793e+01    7.692062e-01
  2.837381e+01    7.573128e-01
  2.838968e+01    7.615737e-01
  2.840556e+01    7.688074e-01
  2.842143e+01    7.585415e-01
  2.843731e+01    7.640209e-01
  2.845318e+01    7.702107e-01
  2.846906e+01    7.610195e-01
  2.848494e+01    7.900767e-01
  2.850081e+01    7.679582e-01
  2.851669e+01    7.603607e-01
  2.853256e+01    7.488753e-01
  2.854844e+01    7.501925e-01
  2.856431e+01    7.307844e-01
  2.858019e+01    7.306963e-01
  2.859606e+01    7.279776e-01
  2.861194e+01    7.501042e-01
  2.862782e+01    7.824383e-01
  2.864369e+01    7.471237e-01
  2.865957e+01    7.429968e-01
  2.867544e+01    7.445433e-01
  2.869132e+01    7.703037e-01
  2.870719e+01    7.730070e-01
  2.872307e+01    7.616736e-01
  2.873895e+01    7.488395e-01
  2.875482e+01    7.583603e-01
  2.877070e+01    7.501876e-01
  2.878657e+01    7.314652e-01
  2.880245e+01    7.373634e-01
  2.881832e+01    7.351699e-01
  2.883420e+01    7.403763e-01
  2.885007e+01    7.446298e-01
  2.886595e+01    7.436388e-01
  2.888183e+01    7.464877e-01
  2.889770e+01    7.332942e-01
  2.891358e+01    7.420179e-01
  2.892945e+01    7.388616e-01
  2.894533e+01    7.259130e-01
  2.896120e+01    7.386342e-01
  2.897708e+01    7.569284e-01
  2.899295e+01    7.252153e-01
  2.900883e+01    7.295711e-01
  2.902471e+01    7.402910e-01
  2.904058e+01    7.288787e-01
  2.905646e+01    7.299633e-01
  2.907233e+01    7.366297e-01
  2.908821e+01    7.362145e-01
  2.910408e+01    7.240577e-01
  2.911996e+01    7.342387e-01
  2.913583e+01    7.371299e-01
  2.915171e+01    7.258972e-01
  2.916759e+01    7.258431e-01
  2.918346e+01    7.452016e-01
  2.919934e+01    7.323089e-01
  2.921521e+01    7.233067e-01
  2.923109e+01    7.382410e-01
  2.924696e+01    7.174118e-01
  2.926284e+01    7.277767e-01
  2.927871e+01    7.487063e-01
  2.929459e+01    7.350557e-01
  2.931047e+01    7.081089e-01
  2.932634e+01    6.963915e-01
  2.934222e+01    7.172695e-01
  2.935809e+01    7.110315e-01
  2.937397e+01    7.118093e-01
  2.938984e+01    7.310778e-01
  2.940572e+01    7.353317e-01
  2.942159e+01    7.385470e-01
  2.943747e+01    7.160169e-01
  2.945335e+01    7.230827e-01
  2.946922e+01    7.446046e-01
  2.948510e+01    7.321611e-01
  2.950097e+01    7.180623e-01
  2.951685e+01    7.090776e-01
  2.953272e+01    7.322391e-01
  2.954860e+01    7.218696e-01
  2.956447e+01    7.413086e-01
  2.958035e+01    7.208082e-01
  2.959623e+01    7.383652e-01
  2.961210e+01    7.499746e-01
  2.962798e+01    7.165361e-01
  2.964385e+01    7.053305e-01
  2.965973e+01    7.252020e-01
  2.967560e+01    7.270511e-01
  2.969148e+01    7.100369e-01
  2.970736e+01    7.148204e-01
  2.972323e+01    7.123077e-01
  2.973911e+01    7.193443e-01
  2.975498e+01    7.379153e-01
  2.977086e+01    7.169986e-01
  2.978673e+01    7.119564e-01
  2.980261e+01    7.084205e-01
  2.981848e+01    7.223220e-01
  2.983436e+01    6.843147e-01
  2.985024e+01    6.977741e-01
  2.986611e+01    7.091053e-01
  2.988199e+01    7.155956e-01
  2.989786e+01    7.190425e-01
  2.991374e+01    7.114168e-01
  2.992961e+01    7.209290e-01
  2.994549e+01    7.346320e-01
  2.996136e+01    7.275181e-01
  2.997724e+01    7.211152e-01
  2.999312e+01    7.319944e-01
  3.000899e+01    7.349592e-01
  3.002487e+01    7.132090e-01
  3.004074e+01    7.159578e-01
  3.005662e+01    7.262202e-01
  3.007249e+01    7.330137e-01
  3.008837e+01    7.284077e-01
  3.010424e+01    7.192734e-01
  3.012012e+01    7.256833e-01
  3.013600e+01    7.258977e-01
  3.015187e+01    7.110556e-01
  3.016775e+01    7.091495e-01
  3.018362e+01    7.088356e-01
  3.019950e+01    7.035583e-01
  3.021537e+01    6.745181e-01
  3.023125e+01    7.149953e-01
  3.024712e+01    7.126741e-01
  3.026300e+01    7.198946e-01
  3.027888e+01    6.982059e-01
  3.029475e+01    6.958215e-01
  3.031063e+01    6.868638e-01
  3.032650e+01    6.878967e-01
  3.034238e+01    6.855538e-01
  3.035825e+01    7.052347e-01
  3.037413e+01    7.073154e-01
  3.039000e+01    6.858184e-01
  3.040588e+01    6.776279e-01
  3.042176e+01    7.000049e-01
  3.043763e+01    7.054979e-01
  3.045351e+01    7.037467e-01
  3.046938e+01    7.090036e-01
  3.048526e+01    7.133251e-01
  3.050113e+01    7.036582e-01
  3.051701e+01    7.070748e-01
  3.053288e+01    7.182358e-01
  3.054876e+01    7.076058e-01
  3.056464e+01    7.149768e-01
  3.058051e+01    7.185604e-01
  3.059639e+01    7.048395e-01
  3.061226e+01    7.043088e-01
  3.062814e+01    6.983451e-01
  3.064401e+01    7.075419e-01
  3.065989e+01    7.032890e-01
  3.067577e+01    6.930551e-01
  3.069164e+01    7.216738e-01
  3.070752e+01    7.166589e-01
  3.072339e+01    6.957245e-01
  3.073927e+01    7.157689e-01
  3.075514e+01    7.542149e-01
  3.077102e+01    7.119449e-01
  3.078689e+01    7.116185e-01
  3.080277e+01    7.217618e-01
  3.081865e+01    7.098192e-01
  3.083452e+01    7.036449e-01
  3.085040e+01    7.119631e-01
  3.086627e+01    6.972756e-01
  3.088215e+01    7.020290e-01
  3.089802e+01    7.053029e-01
  3.091390e+01    7.296122e-01
  3.092977e+01    7.266195e-01
  3.094565e+01    7.201108e-01
  3.096153e+01    7.189890e-01
  3.097740e+01    7.235917e-01
  3.099328e+01    7.263241e-01
  3.100915e+01    7.160886e-01
  3.102503e+01    6.980202e-01
  3.104090e+01    6.908792e-01
  3.105678e+01    7.052243e-01
  3.107265e+01    7.288139e-01
  3.108853e+01    7.263882e-01
  3.110441e+01    7.140884e-01
  3.112028e+01    7.124041e-01
  3.113616e+01    7.330736e-01
  3.115203e+01    7.298540e-01
  3.116791e+01    7.294915e-01
  3.118378e+01    7.310736e-01
  3.119966e+01    7.235231e-01
  3.121553e+01    7.129275e-01
  3.123141e+01    7.228079e-01
  3.124729e+01    7.320822e-01
  3.126316e+01    7.302581e-01
  3.127904e+01    7.348375e-01
  3.129491e+01    7.323047e-01
  3.131079e+01    7.316994e-01
  3.132666e+01    7.050115e-01
  3.134254e+01    7.234670e-01
  3.135841e+01    7.157207e-01
  3.137429e+01    7.399195e-01
  3.139017e+01    7.514774e-01
  3.140604e+01    7.502375e-01
  3.142192e+01    7.384220e-01
  3.143779e+01    7.386874e-01
  3.145367e+01    7.413705e-01
  3.146954e+01    7.774122e-01
  3.148542e+01    7.389795e-01
  3.150129e+01    7.500594e-01
  3.151717e+01    7.496976e-01
  3.153305e+01    7.499350e-01
  3.154892e+01    7.756697e-01
  3.156480e+01    7.862372e-01
  3.158067e+01    7.879418e-01
  3.159655e+01    7.995902e-01
  3.161242e+01    8.041423e-01
  3.162830e+01    8.232969e-01
  3.164418e+01    8.399775e-01
  3.166005e+01    8.695295e-01
  3.167593e+01    8.873160e-01
  3.169180e+01    9.274911e-01
  3.170768e+01    9.539430e-01
  3.172355e+01    9.663026e-01
  3.173943e+01    1.012574e+00
  3.175530e+01    1.056453e+00
  3.177118e+01    1.115618e+00
  3.178706e+01    1.177570e+00
  3.180293e+01    1.287261e+00
  3.181881e+01    1.411485e+00
  3.183468e+01    1.520921e+00
  3.185056e+01    1.683501e+00
  3.186643e+01    1.851930e+00
  3.188231e+01    2.010890e+00
  3.189818e+01    2.140207e+00
  3.191406e+01    2.297602e+00
  3.192994e+01    2.374091e+00
  3.194581e+01    2.372257e+00
  3.196169e+01    2.291616e+00
  3.197756e+01    2.146906e+00
  3.199344e+01    1.989184e+00
  3.200931e+01    1.811660e+00
  3.202519e+01    1.592534e+00
  3.204106e+01    1.489185e+00
  3.205694e+01    1.378745e+00
  3.207282e+01    1.261684e+00
  3.208869e+01    1.146040e+00
  3.210457e+01    1.103255e+00
  3.212044e+01    1.038667e+00
  3.213632e+01    9.886432e-01
  3.215219e+01    9.203292e-01
  3.216807e+01    8.897641e-01
  3.218394e+01    8.826109e-01
  3.219982e+01    8.591964e-01
  3.221570e+01    8.397807e-01
  3.223157e+01    8.299580e-01
  3.224745e+01    8.018994e-01
  3.226332e+01    7.687162e-01
  3.227920e+01    7.684757e-01
  3.229507e+01    7.637821e-01
  3.231095e+01    7.620392e-01
  3.232682e+01    7.646425e-01
  3.234270e+01    7.525595e-01
  3.235858e+01    7.423005e-01
  3.237445e+01    7.542786e-01
  3.239033e+01    7.455818e-01
  3.240620e+01    7.442670e-01
  3.242208e+01    7.336438e-01
  3.243795e+01    7.287497e-01
  3.245383e+01    7.282691e-01
  3.246970e+01    7.373900e-01
  3.248558e+01    7.340539e-01
  3.250146e+01    7.179443e-01
  3.251733e+01    7.056667e-01
  3.253321e+01    7.047431e-01
  3.254908e+01    6.997581e-01
