# == pyFAI calibration ==
# Distance Sample to Detector: 0.3999999939076516 m
# PONI: 9.750e-02, 1.135e-01 m
# Rotations: -0.000175 0.000000 -0.000000 rad
# 
# == Fit2d calibration ==
# Distance Sample-beamCenter: 400.000 mm
# Center: x=1514.000, y=1300.000 pix
# Tilt: 0.010 deg  TiltPlanRot: 0.010 deg
# 
# Detector Detector	 Spline= None	 PixelSize= 7.500e-05, 7.500e-05 m
#    Detector has a mask: False 
#    Detector has a dark current: False 
#    detector has a flat field: False 
# 
# Wavelength: 6.888e-11 m
# Mask applied: user provided
# Dark current applied: False
# Flat field applied: False
# Polarization factor: 0.99
# Normalization factor: 1.0
# --> /home/myspot/data/2024_07_Rosario/Ru-CGO-ex/2024-07-27_002_Ru-CGO-ex_Activtation_ramp_000002_data_000129.dat
#       q_nm^-1             I 
  2.003187e-02    1.424646e-01
  3.590745e-02    1.058710e-01
  5.178302e-02    1.184101e-01
  6.765859e-02    6.608901e-03
  8.353417e-02    2.268616e-02
  9.940974e-02    9.034663e-02
  1.152853e-01    1.985332e-01
  1.311609e-01    1.739546e-01
  1.470365e-01    8.463340e-02
  1.629120e-01    2.582922e-02
  1.787876e-01    4.834687e-02
  1.946632e-01    6.303855e-02
  2.105388e-01    4.665522e-02
  2.264143e-01    4.030038e-02
  2.422899e-01    8.157353e-03
  2.581655e-01    1.529344e-02
  2.740411e-01    3.697116e-02
  2.899166e-01    6.278265e-02
  3.057922e-01    2.132488e-02
  3.216678e-01    2.707266e-02
  3.375433e-01    7.596146e-02
  3.534189e-01    4.835153e-02
  3.692945e-01    2.846278e-02
  3.851701e-01    4.248967e-02
  4.010456e-01    3.669731e-02
  4.169212e-01    1.679732e-02
  4.327968e-01    1.521523e-02
  4.486724e-01    1.055117e-02
  4.645479e-01    3.575258e-02
  4.804235e-01    4.074172e-02
  4.962991e-01    4.141136e-02
  5.121747e-01    2.502486e-02
  5.280502e-01    9.302517e-03
  5.439258e-01    2.105124e-02
  5.598014e-01    3.379768e-02
  5.756770e-01    4.794065e-02
  5.915525e-01    6.337460e-02
  6.074281e-01    3.623955e-02
  6.233037e-01    2.743960e-02
  6.391793e-01    4.359618e-02
  6.550548e-01    3.371907e-02
  6.709304e-01    2.343986e-02
  6.868060e-01    4.002064e-02
  7.026815e-01    3.371359e-02
  7.185571e-01    2.016162e-02
  7.344327e-01    1.846959e-02
  7.503083e-01    3.354464e-02
  7.661838e-01    6.675529e-02
  7.820594e-01    1.148781e-01
  7.979350e-01    1.306422e-01
  8.138106e-01    1.691849e-01
  8.296861e-01    2.236778e-01
  8.455617e-01    2.434987e-01
  8.614373e-01    3.078992e-01
  8.773129e-01    4.003000e-01
  8.931884e-01    4.758319e-01
  9.090640e-01    6.409338e-01
  9.249396e-01    7.103029e-01
  9.408152e-01    7.391236e-01
  9.566907e-01    7.721395e-01
  9.725663e-01    8.878189e-01
  9.884419e-01    9.769601e-01
  1.004317e+00    1.036353e+00
  1.020193e+00    1.167787e+00
  1.036069e+00    1.195468e+00
  1.051944e+00    1.210551e+00
  1.067820e+00    1.225928e+00
  1.083695e+00    1.395405e+00
  1.099571e+00    1.356345e+00
  1.115446e+00    1.427390e+00
  1.131322e+00    1.350042e+00
  1.147198e+00    1.325286e+00
  1.163073e+00    1.514648e+00
  1.178949e+00    1.604890e+00
  1.194824e+00    1.648259e+00
  1.210700e+00    1.864570e+00
  1.226575e+00    2.087587e+00
  1.242451e+00    2.280892e+00
  1.258327e+00    2.435513e+00
  1.274202e+00    2.509694e+00
  1.290078e+00    2.480099e+00
  1.305953e+00    2.449467e+00
  1.321829e+00    2.328221e+00
  1.337705e+00    2.426594e+00
  1.353580e+00    2.556100e+00
  1.369456e+00    2.476799e+00
  1.385331e+00    2.525703e+00
  1.401207e+00    2.589836e+00
  1.417082e+00    2.644634e+00
  1.432958e+00    2.708527e+00
  1.448834e+00    2.690761e+00
  1.464709e+00    2.806290e+00
  1.480585e+00    2.850802e+00
  1.496460e+00    2.850841e+00
  1.512336e+00    2.856683e+00
  1.528211e+00    2.951999e+00
  1.544087e+00    2.949583e+00
  1.559963e+00    2.914320e+00
  1.575838e+00    2.809178e+00
  1.591714e+00    2.759470e+00
  1.607589e+00    2.785785e+00
  1.623465e+00    2.790992e+00
  1.639340e+00    2.821536e+00
  1.655216e+00    2.819752e+00
  1.671092e+00    2.783181e+00
  1.686967e+00    2.781342e+00
  1.702843e+00    2.913060e+00
  1.718718e+00    2.766421e+00
  1.734594e+00    2.776710e+00
  1.750469e+00    2.905686e+00
  1.766345e+00    2.913724e+00
  1.782221e+00    2.925797e+00
  1.798096e+00    2.714666e+00
  1.813972e+00    2.748136e+00
  1.829847e+00    2.796025e+00
  1.845723e+00    2.746543e+00
  1.861598e+00    2.755673e+00
  1.877474e+00    2.719837e+00
  1.893350e+00    2.762872e+00
  1.909225e+00    2.744146e+00
  1.925101e+00    2.765618e+00
  1.940976e+00    2.561874e+00
  1.956852e+00    2.693182e+00
  1.972727e+00    2.659997e+00
  1.988603e+00    2.582617e+00
  2.004479e+00    2.693833e+00
  2.020354e+00    2.758467e+00
  2.036230e+00    2.819695e+00
  2.052105e+00    2.881712e+00
  2.067981e+00    2.721610e+00
  2.083856e+00    2.619202e+00
  2.099732e+00    2.723896e+00
  2.115608e+00    2.709184e+00
  2.131483e+00    2.618526e+00
  2.147359e+00    2.631788e+00
  2.163234e+00    2.689627e+00
  2.179110e+00    2.761595e+00
  2.194985e+00    2.726956e+00
  2.210861e+00    2.611567e+00
  2.226737e+00    2.540943e+00
  2.242612e+00    2.630836e+00
  2.258488e+00    2.711179e+00
  2.274363e+00    2.741194e+00
  2.290239e+00    2.654614e+00
  2.306115e+00    2.689961e+00
  2.321990e+00    2.762018e+00
  2.337866e+00    2.861801e+00
  2.353741e+00    2.764458e+00
  2.369617e+00    2.713615e+00
  2.385492e+00    2.718677e+00
  2.401368e+00    2.801505e+00
  2.417244e+00    2.834041e+00
  2.433119e+00    2.724261e+00
  2.448995e+00    2.795770e+00
  2.464870e+00    2.783314e+00
  2.480746e+00    2.747126e+00
  2.496621e+00    2.701924e+00
  2.512497e+00    2.778830e+00
  2.528373e+00    2.633538e+00
  2.544248e+00    2.692482e+00
  2.560124e+00    2.823390e+00
  2.575999e+00    2.777256e+00
  2.591875e+00    2.885545e+00
  2.607750e+00    2.793319e+00
  2.623626e+00    2.730357e+00
  2.639502e+00    2.785169e+00
  2.655377e+00    2.858224e+00
  2.671253e+00    2.820994e+00
  2.687128e+00    2.765745e+00
  2.703004e+00    2.807786e+00
  2.718879e+00    2.881763e+00
  2.734755e+00    2.812036e+00
  2.750631e+00    2.786494e+00
  2.766506e+00    2.831753e+00
  2.782382e+00    2.910492e+00
  2.798257e+00    2.784906e+00
  2.814133e+00    2.903313e+00
  2.830008e+00    2.884093e+00
  2.845884e+00    2.819870e+00
  2.861760e+00    2.758214e+00
  2.877635e+00    2.800263e+00
  2.893511e+00    2.845761e+00
  2.909386e+00    2.929782e+00
  2.925262e+00    2.831167e+00
  2.941137e+00    2.819376e+00
  2.957013e+00    2.770580e+00
  2.972889e+00    2.794054e+00
  2.988764e+00    2.841276e+00
  3.004640e+00    2.815028e+00
  3.020515e+00    2.872877e+00
  3.036391e+00    2.838515e+00
  3.052266e+00    2.958361e+00
  3.068142e+00    2.862943e+00
  3.084018e+00    2.845052e+00
  3.099893e+00    2.921409e+00
  3.115769e+00    2.923464e+00
  3.131644e+00    2.887266e+00
  3.147520e+00    2.864054e+00
  3.163395e+00    2.938846e+00
  3.179271e+00    2.868433e+00
  3.195147e+00    2.870813e+00
  3.211022e+00    2.854491e+00
  3.226898e+00    2.843011e+00
  3.242773e+00    2.841924e+00
  3.258649e+00    2.975756e+00
  3.274525e+00    2.928978e+00
  3.290400e+00    2.952284e+00
  3.306276e+00    2.886522e+00
  3.322151e+00    2.922230e+00
  3.338027e+00    2.959784e+00
  3.353902e+00    2.981253e+00
  3.369778e+00    2.833576e+00
  3.385654e+00    2.913981e+00
  3.401529e+00    2.920057e+00
  3.417405e+00    2.873550e+00
  3.433280e+00    2.843056e+00
  3.449156e+00    2.899676e+00
  3.465031e+00    2.889231e+00
  3.480907e+00    2.847420e+00
  3.496783e+00    2.911104e+00
  3.512658e+00    2.917444e+00
  3.528534e+00    2.895821e+00
  3.544409e+00    2.889827e+00
  3.560285e+00    2.957396e+00
  3.576160e+00    2.920650e+00
  3.592036e+00    2.862273e+00
  3.607912e+00    2.914946e+00
  3.623787e+00    2.871063e+00
  3.639663e+00    2.871841e+00
  3.655538e+00    2.904685e+00
  3.671414e+00    2.947605e+00
  3.687289e+00    2.921498e+00
  3.703165e+00    2.951542e+00
  3.719041e+00    2.889580e+00
  3.734916e+00    2.954746e+00
  3.750792e+00    3.011442e+00
  3.766667e+00    3.004384e+00
  3.782543e+00    2.990610e+00
  3.798418e+00    2.928743e+00
  3.814294e+00    2.982914e+00
  3.830170e+00    3.060435e+00
  3.846045e+00    2.976358e+00
  3.861921e+00    2.941764e+00
  3.877796e+00    2.982352e+00
  3.893672e+00    2.921290e+00
  3.909547e+00    2.941241e+00
  3.925423e+00    2.975489e+00
  3.941299e+00    3.047885e+00
  3.957174e+00    2.970889e+00
  3.973050e+00    2.993060e+00
  3.988925e+00    3.018365e+00
  4.004801e+00    2.966301e+00
  4.020676e+00    2.987255e+00
  4.036552e+00    3.011599e+00
  4.052428e+00    2.978381e+00
  4.068303e+00    2.968712e+00
  4.084179e+00    2.945659e+00
  4.100054e+00    3.025473e+00
  4.115930e+00    3.032550e+00
  4.131806e+00    3.001714e+00
  4.147681e+00    2.996160e+00
  4.163557e+00    2.967109e+00
  4.179432e+00    3.013502e+00
  4.195308e+00    2.986352e+00
  4.211183e+00    2.973609e+00
  4.227059e+00    3.060693e+00
  4.242935e+00    3.041278e+00
  4.258810e+00    2.944155e+00
  4.274686e+00    2.964716e+00
  4.290561e+00    3.029428e+00
  4.306437e+00    2.985331e+00
  4.322312e+00    2.976050e+00
  4.338188e+00    3.022723e+00
  4.354064e+00    3.072359e+00
  4.369939e+00    3.027240e+00
  4.385815e+00    2.958216e+00
  4.401690e+00    2.919983e+00
  4.417566e+00    3.002664e+00
  4.433441e+00    3.058722e+00
  4.449317e+00    3.064235e+00
  4.465193e+00    3.027798e+00
  4.481068e+00    2.991236e+00
  4.496944e+00    2.993766e+00
  4.512819e+00    3.056477e+00
  4.528695e+00    3.026536e+00
  4.544570e+00    2.989836e+00
  4.560446e+00    3.039841e+00
  4.576322e+00    3.022961e+00
  4.592197e+00    3.086579e+00
  4.608073e+00    3.113190e+00
  4.623948e+00    3.045650e+00
  4.639824e+00    3.111593e+00
  4.655699e+00    3.035990e+00
  4.671575e+00    2.980035e+00
  4.687451e+00    3.004621e+00
  4.703326e+00    3.111378e+00
  4.719202e+00    3.047587e+00
  4.735077e+00    3.219471e+00
  4.750953e+00    3.201792e+00
  4.766828e+00    3.023304e+00
  4.782704e+00    3.031041e+00
  4.798580e+00    3.093731e+00
  4.814455e+00    3.135426e+00
  4.830331e+00    3.108186e+00
  4.846206e+00    3.058203e+00
  4.862082e+00    3.044973e+00
  4.877957e+00    3.126308e+00
  4.893833e+00    3.047574e+00
  4.909709e+00    3.059160e+00
  4.925584e+00    3.081810e+00
  4.941460e+00    3.042656e+00
  4.957335e+00    2.973552e+00
  4.973211e+00    3.074235e+00
  4.989086e+00    3.137393e+00
  5.004962e+00    3.098375e+00
  5.020838e+00    3.033053e+00
  5.036713e+00    3.120465e+00
  5.052589e+00    3.167289e+00
  5.068464e+00    3.092330e+00
  5.084340e+00    3.082753e+00
  5.100216e+00    3.095973e+00
  5.116091e+00    3.129939e+00
  5.131967e+00    3.206354e+00
  5.147842e+00    3.178272e+00
  5.163718e+00    3.105332e+00
  5.179593e+00    3.060958e+00
  5.195469e+00    3.062500e+00
  5.211345e+00    3.021346e+00
  5.227220e+00    3.006068e+00
  5.243096e+00    3.152851e+00
  5.258971e+00    3.120758e+00
  5.274847e+00    3.069574e+00
  5.290722e+00    3.059840e+00
  5.306598e+00    3.062109e+00
  5.322474e+00    3.084708e+00
  5.338349e+00    3.135799e+00
  5.354225e+00    3.127270e+00
  5.370100e+00    3.112957e+00
  5.385976e+00    3.081696e+00
  5.401851e+00    3.107988e+00
  5.417727e+00    3.076155e+00
  5.433603e+00    3.070570e+00
  5.449478e+00    3.026620e+00
  5.465354e+00    3.078275e+00
  5.481229e+00    3.019437e+00
  5.497105e+00    2.973668e+00
  5.512980e+00    3.028178e+00
  5.528856e+00    3.035465e+00
  5.544732e+00    3.068528e+00
  5.560607e+00    3.066194e+00
  5.576483e+00    2.981837e+00
  5.592358e+00    3.029469e+00
  5.608234e+00    3.005504e+00
  5.624109e+00    3.086711e+00
  5.639985e+00    3.051132e+00
  5.655861e+00    3.028751e+00
  5.671736e+00    3.103887e+00
  5.687612e+00    3.135051e+00
  5.703487e+00    2.965060e+00
  5.719363e+00    2.986711e+00
  5.735238e+00    3.062246e+00
  5.751114e+00    3.116411e+00
  5.766990e+00    3.049016e+00
  5.782865e+00    3.060608e+00
  5.798741e+00    3.023457e+00
  5.814616e+00    2.987684e+00
  5.830492e+00    2.955882e+00
  5.846367e+00    2.979916e+00
  5.862243e+00    2.980075e+00
  5.878119e+00    3.010550e+00
  5.893994e+00    3.078900e+00
  5.909870e+00    3.019327e+00
  5.925745e+00    3.037167e+00
  5.941621e+00    2.976065e+00
  5.957497e+00    2.912178e+00
  5.973372e+00    2.872456e+00
  5.989248e+00    2.932163e+00
  6.005123e+00    2.924223e+00
  6.020999e+00    2.857085e+00
  6.036874e+00    2.924088e+00
  6.052750e+00    2.977791e+00
  6.068626e+00    2.956821e+00
  6.084501e+00    2.957142e+00
  6.100377e+00    3.047893e+00
  6.116252e+00    3.028660e+00
  6.132128e+00    3.087429e+00
  6.148003e+00    3.031746e+00
  6.163879e+00    3.050569e+00
  6.179755e+00    3.049608e+00
  6.195630e+00    3.111298e+00
  6.211506e+00    3.087517e+00
  6.227381e+00    3.055077e+00
  6.243257e+00    3.005641e+00
  6.259132e+00    3.035367e+00
  6.275008e+00    3.032916e+00
  6.290884e+00    2.954687e+00
  6.306759e+00    3.038141e+00
  6.322635e+00    3.055772e+00
  6.338510e+00    3.028220e+00
  6.354386e+00    2.937408e+00
  6.370261e+00    3.000898e+00
  6.386137e+00    3.111840e+00
  6.402013e+00    3.039621e+00
  6.417888e+00    2.979202e+00
  6.433764e+00    2.974756e+00
  6.449639e+00    3.018209e+00
  6.465515e+00    2.995802e+00
  6.481390e+00    2.974506e+00
  6.497266e+00    3.000098e+00
  6.513142e+00    2.959667e+00
  6.529017e+00    3.084972e+00
  6.544893e+00    3.045545e+00
  6.560768e+00    3.069502e+00
  6.576644e+00    3.027448e+00
  6.592519e+00    2.953344e+00
  6.608395e+00    3.012232e+00
  6.624271e+00    3.016470e+00
  6.640146e+00    2.916785e+00
  6.656022e+00    2.957240e+00
  6.671897e+00    2.993098e+00
  6.687773e+00    2.989709e+00
  6.703648e+00    2.983608e+00
  6.719524e+00    2.967078e+00
  6.735400e+00    2.930343e+00
  6.751275e+00    2.965820e+00
  6.767151e+00    3.019527e+00
  6.783026e+00    2.945420e+00
  6.798902e+00    3.004619e+00
  6.814777e+00    3.015700e+00
  6.830653e+00    2.974154e+00
  6.846529e+00    2.908492e+00
  6.862404e+00    2.963939e+00
  6.878280e+00    2.981611e+00
  6.894155e+00    3.033075e+00
  6.910031e+00    3.013700e+00
  6.925907e+00    2.956452e+00
  6.941782e+00    3.004454e+00
  6.957658e+00    3.002528e+00
  6.973533e+00    2.950320e+00
  6.989409e+00    2.995843e+00
  7.005284e+00    3.027856e+00
  7.021160e+00    2.972059e+00
  7.037036e+00    2.915903e+00
  7.052911e+00    2.958791e+00
  7.068787e+00    2.935005e+00
  7.084662e+00    2.940077e+00
  7.100538e+00    2.918954e+00
  7.116413e+00    2.900925e+00
  7.132289e+00    2.944095e+00
  7.148165e+00    2.955369e+00
  7.164040e+00    2.936645e+00
  7.179916e+00    2.970858e+00
  7.195791e+00    2.976697e+00
  7.211667e+00    2.954160e+00
  7.227542e+00    2.988557e+00
  7.243418e+00    2.969241e+00
  7.259294e+00    2.966761e+00
  7.275169e+00    3.055653e+00
  7.291045e+00    3.009149e+00
  7.306920e+00    2.948388e+00
  7.322796e+00    2.977010e+00
  7.338671e+00    3.011534e+00
  7.354547e+00    3.009655e+00
  7.370423e+00    2.945069e+00
  7.386298e+00    2.848526e+00
  7.402174e+00    2.962491e+00
  7.418049e+00    3.034921e+00
  7.433925e+00    3.001078e+00
  7.449800e+00    2.913205e+00
  7.465676e+00    2.944944e+00
  7.481552e+00    2.944881e+00
  7.497427e+00    2.925343e+00
  7.513303e+00    2.996573e+00
  7.529178e+00    3.022179e+00
  7.545054e+00    3.028477e+00
  7.560929e+00    2.950835e+00
  7.576805e+00    2.941408e+00
  7.592681e+00    2.906539e+00
  7.608556e+00    3.047053e+00
  7.624432e+00    2.993585e+00
  7.640307e+00    2.923129e+00
  7.656183e+00    2.899730e+00
  7.672058e+00    2.911884e+00
  7.687934e+00    2.878736e+00
  7.703810e+00    2.942920e+00
  7.719685e+00    2.920888e+00
  7.735561e+00    2.857143e+00
  7.751436e+00    2.925537e+00
  7.767312e+00    2.920162e+00
  7.783187e+00    2.899049e+00
  7.799063e+00    2.925555e+00
  7.814939e+00    2.924975e+00
  7.830814e+00    2.872781e+00
  7.846690e+00    2.934396e+00
  7.862565e+00    2.987601e+00
  7.878441e+00    2.914483e+00
  7.894317e+00    2.887362e+00
  7.910192e+00    2.940028e+00
  7.926068e+00    2.881721e+00
  7.941943e+00    2.841062e+00
  7.957819e+00    2.860102e+00
  7.973694e+00    2.855463e+00
  7.989570e+00    2.845337e+00
  8.005446e+00    2.827310e+00
  8.021321e+00    2.834830e+00
  8.037197e+00    2.900198e+00
  8.053072e+00    2.967251e+00
  8.068948e+00    2.941713e+00
  8.084823e+00    2.941969e+00
  8.100699e+00    3.020139e+00
  8.116575e+00    2.972528e+00
  8.132450e+00    2.894944e+00
  8.148326e+00    2.865488e+00
  8.164201e+00    2.867598e+00
  8.180077e+00    3.000410e+00
  8.195952e+00    3.006017e+00
  8.211828e+00    2.937375e+00
  8.227704e+00    2.929139e+00
  8.243579e+00    2.899376e+00
  8.259455e+00    2.875313e+00
  8.275330e+00    2.903370e+00
  8.291206e+00    2.882642e+00
  8.307081e+00    2.871623e+00
  8.322957e+00    2.830277e+00
  8.338833e+00    2.798989e+00
  8.354708e+00    2.797317e+00
  8.370584e+00    2.862216e+00
  8.386459e+00    2.893810e+00
  8.402335e+00    2.859659e+00
  8.418210e+00    2.911844e+00
  8.434086e+00    2.885039e+00
  8.449962e+00    2.906789e+00
  8.465837e+00    2.893373e+00
  8.481713e+00    2.867442e+00
  8.497588e+00    2.889074e+00
  8.513464e+00    2.866890e+00
  8.529339e+00    2.913846e+00
  8.545215e+00    2.859178e+00
  8.561091e+00    2.881375e+00
  8.576966e+00    2.862459e+00
  8.592842e+00    2.806277e+00
  8.608717e+00    2.837536e+00
  8.624593e+00    2.899645e+00
  8.640468e+00    2.885145e+00
  8.656344e+00    2.829626e+00
  8.672220e+00    2.809514e+00
  8.688095e+00    2.881195e+00
  8.703971e+00    2.895761e+00
  8.719846e+00    2.854863e+00
  8.735722e+00    2.807449e+00
  8.751598e+00    2.799450e+00
  8.767473e+00    2.848854e+00
  8.783349e+00    2.872278e+00
  8.799224e+00    2.856406e+00
  8.815100e+00    2.821512e+00
  8.830975e+00    2.844491e+00
  8.846851e+00    2.845175e+00
  8.862727e+00    2.805063e+00
  8.878602e+00    2.749911e+00
  8.894478e+00    2.781476e+00
  8.910353e+00    2.793415e+00
  8.926229e+00    2.762497e+00
  8.942104e+00    2.795764e+00
  8.957980e+00    2.848634e+00
  8.973856e+00    2.876342e+00
  8.989731e+00    2.817679e+00
  9.005607e+00    2.724192e+00
  9.021482e+00    2.765671e+00
  9.037358e+00    2.789905e+00
  9.053233e+00    2.800492e+00
  9.069109e+00    2.810219e+00
  9.084985e+00    2.789641e+00
  9.100860e+00    2.809625e+00
  9.116736e+00    2.796378e+00
  9.132611e+00    2.763767e+00
  9.148487e+00    2.790971e+00
  9.164362e+00    2.764100e+00
  9.180238e+00    2.695208e+00
  9.196114e+00    2.745017e+00
  9.211989e+00    2.754812e+00
  9.227865e+00    2.755542e+00
  9.243740e+00    2.768868e+00
  9.259616e+00    2.752489e+00
  9.275491e+00    2.716709e+00
  9.291367e+00    2.706874e+00
  9.307243e+00    2.716783e+00
  9.323118e+00    2.762166e+00
  9.338994e+00    2.777539e+00
  9.354869e+00    2.764720e+00
  9.370745e+00    2.768406e+00
  9.386620e+00    2.758198e+00
  9.402496e+00    2.770080e+00
  9.418372e+00    2.732964e+00
  9.434247e+00    2.774387e+00
  9.450123e+00    2.683471e+00
  9.465998e+00    2.659551e+00
  9.481874e+00    2.702835e+00
  9.497749e+00    2.724800e+00
  9.513625e+00    2.748647e+00
  9.529501e+00    2.760131e+00
  9.545376e+00    2.733318e+00
  9.561252e+00    2.731430e+00
  9.577127e+00    2.741520e+00
  9.593003e+00    2.687948e+00
  9.608878e+00    2.725905e+00
  9.624754e+00    2.691700e+00
  9.640630e+00    2.658573e+00
  9.656505e+00    2.705413e+00
  9.672381e+00    2.721389e+00
  9.688256e+00    2.673643e+00
  9.704132e+00    2.712143e+00
  9.720008e+00    2.720211e+00
  9.735883e+00    2.710808e+00
  9.751759e+00    2.691383e+00
  9.767634e+00    2.724788e+00
  9.783510e+00    2.710997e+00
  9.799385e+00    2.653959e+00
  9.815261e+00    2.653491e+00
  9.831137e+00    2.639105e+00
  9.847012e+00    2.670582e+00
  9.862888e+00    2.681013e+00
  9.878763e+00    2.663362e+00
  9.894639e+00    2.662962e+00
  9.910514e+00    2.647332e+00
  9.926390e+00    2.646305e+00
  9.942266e+00    2.680535e+00
  9.958141e+00    2.639300e+00
  9.974017e+00    2.628294e+00
  9.989892e+00    2.696701e+00
  1.000577e+01    2.687199e+00
  1.002164e+01    2.641720e+00
  1.003752e+01    2.653339e+00
  1.005339e+01    2.637331e+00
  1.006927e+01    2.608911e+00
  1.008515e+01    2.591170e+00
  1.010102e+01    2.645492e+00
  1.011690e+01    2.614307e+00
  1.013277e+01    2.605256e+00
  1.014865e+01    2.621940e+00
  1.016452e+01    2.611583e+00
  1.018040e+01    2.584299e+00
  1.019627e+01    2.638149e+00
  1.021215e+01    2.666816e+00
  1.022803e+01    2.637683e+00
  1.024390e+01    2.636390e+00
  1.025978e+01    2.597302e+00
  1.027565e+01    2.639635e+00
  1.029153e+01    2.623043e+00
  1.030740e+01    2.621340e+00
  1.032328e+01    2.693636e+00
  1.033915e+01    2.615862e+00
  1.035503e+01    2.541357e+00
  1.037091e+01    2.594093e+00
  1.038678e+01    2.595738e+00
  1.040266e+01    2.588841e+00
  1.041853e+01    2.630740e+00
  1.043441e+01    2.663270e+00
  1.045028e+01    2.614699e+00
  1.046616e+01    2.624999e+00
  1.048204e+01    2.576754e+00
  1.049791e+01    2.594147e+00
  1.051379e+01    2.604353e+00
  1.052966e+01    2.581439e+00
  1.054554e+01    2.562859e+00
  1.056141e+01    2.550826e+00
  1.057729e+01    2.603413e+00
  1.059316e+01    2.614295e+00
  1.060904e+01    2.567188e+00
  1.062492e+01    2.541663e+00
  1.064079e+01    2.556869e+00
  1.065667e+01    2.564708e+00
  1.067254e+01    2.558688e+00
  1.068842e+01    2.553827e+00
  1.070429e+01    2.535701e+00
  1.072017e+01    2.518500e+00
  1.073604e+01    2.555900e+00
  1.075192e+01    2.550744e+00
  1.076780e+01    2.462826e+00
  1.078367e+01    2.479414e+00
  1.079955e+01    2.543798e+00
  1.081542e+01    2.580930e+00
  1.083130e+01    2.520207e+00
  1.084717e+01    2.531627e+00
  1.086305e+01    2.559753e+00
  1.087892e+01    2.530599e+00
  1.089480e+01    2.499311e+00
  1.091068e+01    2.429346e+00
  1.092655e+01    2.528063e+00
  1.094243e+01    2.511666e+00
  1.095830e+01    2.477628e+00
  1.097418e+01    2.534811e+00
  1.099005e+01    2.483785e+00
  1.100593e+01    2.500944e+00
  1.102180e+01    2.493036e+00
  1.103768e+01    2.475748e+00
  1.105356e+01    2.484260e+00
  1.106943e+01    2.498289e+00
  1.108531e+01    2.503944e+00
  1.110118e+01    2.432629e+00
  1.111706e+01    2.465961e+00
  1.113293e+01    2.481692e+00
  1.114881e+01    2.457312e+00
  1.116468e+01    2.460858e+00
  1.118056e+01    2.461894e+00
  1.119644e+01    2.436307e+00
  1.121231e+01    2.426056e+00
  1.122819e+01    2.456159e+00
  1.124406e+01    2.429538e+00
  1.125994e+01    2.383393e+00
  1.127581e+01    2.380416e+00
  1.129169e+01    2.385490e+00
  1.130756e+01    2.382917e+00
  1.132344e+01    2.393666e+00
  1.133932e+01    2.417442e+00
  1.135519e+01    2.391037e+00
  1.137107e+01    2.352836e+00
  1.138694e+01    2.370129e+00
  1.140282e+01    2.442842e+00
  1.141869e+01    2.406676e+00
  1.143457e+01    2.425621e+00
  1.145045e+01    2.457695e+00
  1.146632e+01    2.405317e+00
  1.148220e+01    2.389192e+00
  1.149807e+01    2.375240e+00
  1.151395e+01    2.395116e+00
  1.152982e+01    2.406653e+00
  1.154570e+01    2.386485e+00
  1.156157e+01    2.329251e+00
  1.157745e+01    2.375454e+00
  1.159333e+01    2.378581e+00
  1.160920e+01    2.360532e+00
  1.162508e+01    2.361743e+00
  1.164095e+01    2.385026e+00
  1.165683e+01    2.332716e+00
  1.167270e+01    2.340367e+00
  1.168858e+01    2.367930e+00
  1.170445e+01    2.332159e+00
  1.172033e+01    2.359746e+00
  1.173621e+01    2.362618e+00
  1.175208e+01    2.363470e+00
  1.176796e+01    2.385745e+00
  1.178383e+01    2.402115e+00
  1.179971e+01    2.327875e+00
  1.181558e+01    2.321409e+00
  1.183146e+01    2.370825e+00
  1.184733e+01    2.337585e+00
  1.186321e+01    2.330233e+00
  1.187909e+01    2.305871e+00
  1.189496e+01    2.301880e+00
  1.191084e+01    2.317224e+00
  1.192671e+01    2.306963e+00
  1.194259e+01    2.324203e+00
  1.195846e+01    2.311244e+00
  1.197434e+01    2.332117e+00
  1.199021e+01    2.336071e+00
  1.200609e+01    2.293523e+00
  1.202197e+01    2.293920e+00
  1.203784e+01    2.318716e+00
  1.205372e+01    2.363668e+00
  1.206959e+01    2.325105e+00
  1.208547e+01    2.293025e+00
  1.210134e+01    2.284402e+00
  1.211722e+01    2.271101e+00
  1.213309e+01    2.252386e+00
  1.214897e+01    2.290943e+00
  1.216485e+01    2.284887e+00
  1.218072e+01    2.250043e+00
  1.219660e+01    2.288795e+00
  1.221247e+01    2.308099e+00
  1.222835e+01    2.322474e+00
  1.224422e+01    2.297456e+00
  1.226010e+01    2.291571e+00
  1.227597e+01    2.286987e+00
  1.229185e+01    2.277134e+00
  1.230773e+01    2.287814e+00
  1.232360e+01    2.313787e+00
  1.233948e+01    2.301774e+00
  1.235535e+01    2.283236e+00
  1.237123e+01    2.340961e+00
  1.238710e+01    2.332092e+00
  1.240298e+01    2.299467e+00
  1.241886e+01    2.303138e+00
  1.243473e+01    2.337766e+00
  1.245061e+01    2.361180e+00
  1.246648e+01    2.310383e+00
  1.248236e+01    2.327621e+00
  1.249823e+01    2.339472e+00
  1.251411e+01    2.350768e+00
  1.252998e+01    2.311740e+00
  1.254586e+01    2.316149e+00
  1.256174e+01    2.325890e+00
  1.257761e+01    2.355577e+00
  1.259349e+01    2.397489e+00
  1.260936e+01    2.384697e+00
  1.262524e+01    2.398577e+00
  1.264111e+01    2.358924e+00
  1.265699e+01    2.358630e+00
  1.267286e+01    2.380162e+00
  1.268874e+01    2.429332e+00
  1.270462e+01    2.455309e+00
  1.272049e+01    2.474890e+00
  1.273637e+01    2.511733e+00
  1.275224e+01    2.547226e+00
  1.276812e+01    2.543640e+00
  1.278399e+01    2.555797e+00
  1.279987e+01    2.627622e+00
  1.281574e+01    2.668344e+00
  1.283162e+01    2.756872e+00
  1.284750e+01    2.820513e+00
  1.286337e+01    2.899911e+00
  1.287925e+01    3.041493e+00
  1.289512e+01    3.146650e+00
  1.291100e+01    3.287365e+00
  1.292687e+01    3.486769e+00
  1.294275e+01    3.719451e+00
  1.295862e+01    4.016369e+00
  1.297450e+01    4.392661e+00
  1.299038e+01    4.863916e+00
  1.300625e+01    5.394270e+00
  1.302213e+01    6.179156e+00
  1.303800e+01    7.168324e+00
  1.305388e+01    8.267859e+00
  1.306975e+01    9.612783e+00
  1.308563e+01    1.096890e+01
  1.310150e+01    1.221495e+01
  1.311738e+01    1.340293e+01
  1.313326e+01    1.458146e+01
  1.314913e+01    1.574143e+01
  1.316501e+01    1.663467e+01
  1.318088e+01    1.704096e+01
  1.319676e+01    1.679288e+01
  1.321263e+01    1.564848e+01
  1.322851e+01    1.371319e+01
  1.324438e+01    1.169948e+01
  1.326026e+01    9.802272e+00
  1.327614e+01    8.231285e+00
  1.329201e+01    7.089994e+00
  1.330789e+01    6.214330e+00
  1.332376e+01    5.408599e+00
  1.333964e+01    4.770900e+00
  1.335551e+01    4.310768e+00
  1.337139e+01    3.965290e+00
  1.338727e+01    3.695249e+00
  1.340314e+01    3.426147e+00
  1.341902e+01    3.277728e+00
  1.343489e+01    3.060514e+00
  1.345077e+01    2.927457e+00
  1.346664e+01    2.840563e+00
  1.348252e+01    2.761846e+00
  1.349839e+01    2.683142e+00
  1.351427e+01    2.588953e+00
  1.353015e+01    2.561721e+00
  1.354602e+01    2.472244e+00
  1.356190e+01    2.424752e+00
  1.357777e+01    2.402558e+00
  1.359365e+01    2.343325e+00
  1.360952e+01    2.339469e+00
  1.362540e+01    2.363758e+00
  1.364127e+01    2.341874e+00
  1.365715e+01    2.333752e+00
  1.367303e+01    2.294347e+00
  1.368890e+01    2.231939e+00
  1.370478e+01    2.183737e+00
  1.372065e+01    2.224943e+00
  1.373653e+01    2.225611e+00
  1.375240e+01    2.186627e+00
  1.376828e+01    2.173818e+00
  1.378415e+01    2.127764e+00
  1.380003e+01    2.110309e+00
  1.381591e+01    2.107664e+00
  1.383178e+01    2.104551e+00
  1.384766e+01    2.129933e+00
  1.386353e+01    2.135219e+00
  1.387941e+01    2.110188e+00
  1.389528e+01    2.086451e+00
  1.391116e+01    2.095436e+00
  1.392703e+01    2.094875e+00
  1.394291e+01    2.037995e+00
  1.395879e+01    2.014285e+00
  1.397466e+01    2.069512e+00
  1.399054e+01    1.999445e+00
  1.400641e+01    2.014204e+00
  1.402229e+01    2.054975e+00
  1.403816e+01    2.057847e+00
  1.405404e+01    2.031425e+00
  1.406991e+01    2.019966e+00
  1.408579e+01    2.043113e+00
  1.410167e+01    1.976403e+00
  1.411754e+01    1.996439e+00
  1.413342e+01    2.010761e+00
  1.414929e+01    1.988880e+00
  1.416517e+01    1.994411e+00
  1.418104e+01    1.976061e+00
  1.419692e+01    1.948793e+00
  1.421279e+01    1.996087e+00
  1.422867e+01    1.984775e+00
  1.424455e+01    1.942950e+00
  1.426042e+01    1.951292e+00
  1.427630e+01    1.917714e+00
  1.429217e+01    1.938678e+00
  1.430805e+01    1.952194e+00
  1.432392e+01    1.947165e+00
  1.433980e+01    1.942077e+00
  1.435568e+01    1.942668e+00
  1.437155e+01    1.925386e+00
  1.438743e+01    1.919009e+00
  1.440330e+01    1.935220e+00
  1.441918e+01    1.920209e+00
  1.443505e+01    1.929362e+00
  1.445093e+01    1.918603e+00
  1.446680e+01    1.910481e+00
  1.448268e+01    1.900945e+00
  1.449856e+01    1.889147e+00
  1.451443e+01    1.918853e+00
  1.453031e+01    1.892060e+00
  1.454618e+01    1.903228e+00
  1.456206e+01    1.922933e+00
  1.457793e+01    1.920293e+00
  1.459381e+01    1.911471e+00
  1.460968e+01    1.889146e+00
  1.462556e+01    1.889787e+00
  1.464144e+01    1.888605e+00
  1.465731e+01    1.909763e+00
  1.467319e+01    1.883857e+00
  1.468906e+01    1.833023e+00
  1.470494e+01    1.905188e+00
  1.472081e+01    1.910613e+00
  1.473669e+01    1.897496e+00
  1.475256e+01    1.926391e+00
  1.476844e+01    1.947547e+00
  1.478432e+01    1.888640e+00
  1.480019e+01    1.926569e+00
  1.481607e+01    1.909078e+00
  1.483194e+01    1.928934e+00
  1.484782e+01    1.942975e+00
  1.486369e+01    1.957481e+00
  1.487957e+01    1.947248e+00
  1.489544e+01    1.938148e+00
  1.491132e+01    1.946906e+00
  1.492720e+01    1.961250e+00
  1.494307e+01    2.001143e+00
  1.495895e+01    2.032426e+00
  1.497482e+01    2.040542e+00
  1.499070e+01    2.079734e+00
  1.500657e+01    2.140401e+00
  1.502245e+01    2.224848e+00
  1.503832e+01    2.285011e+00
  1.505420e+01    2.368755e+00
  1.507008e+01    2.527499e+00
  1.508595e+01    2.679207e+00
  1.510183e+01    2.881086e+00
  1.511770e+01    3.120547e+00
  1.513358e+01    3.435120e+00
  1.514945e+01    3.779558e+00
  1.516533e+01    4.142268e+00
  1.518120e+01    4.489053e+00
  1.519708e+01    4.853337e+00
  1.521296e+01    5.217702e+00
  1.522883e+01    5.479100e+00
  1.524471e+01    5.682582e+00
  1.526058e+01    5.892816e+00
  1.527646e+01    5.875957e+00
  1.529233e+01    5.664464e+00
  1.530821e+01    5.317825e+00
  1.532409e+01    4.780785e+00
  1.533996e+01    4.277811e+00
  1.535584e+01    3.779276e+00
  1.537171e+01    3.387683e+00
  1.538759e+01    3.048446e+00
  1.540346e+01    2.777728e+00
  1.541934e+01    2.573927e+00
  1.543521e+01    2.404672e+00
  1.545109e+01    2.319430e+00
  1.546697e+01    2.167727e+00
  1.548284e+01    2.116906e+00
  1.549872e+01    2.057315e+00
  1.551459e+01    1.977375e+00
  1.553047e+01    1.963262e+00
  1.554634e+01    1.925589e+00
  1.556222e+01    1.907927e+00
  1.557809e+01    1.840090e+00
  1.559397e+01    1.832975e+00
  1.560985e+01    1.785011e+00
  1.562572e+01    1.791085e+00
  1.564160e+01    1.781682e+00
  1.565747e+01    1.774020e+00
  1.567335e+01    1.754005e+00
  1.568922e+01    1.704615e+00
  1.570510e+01    1.717790e+00
  1.572097e+01    1.734407e+00
  1.573685e+01    1.698861e+00
  1.575273e+01    1.676035e+00
  1.576860e+01    1.671129e+00
  1.578448e+01    1.670488e+00
  1.580035e+01    1.643454e+00
  1.581623e+01    1.631833e+00
  1.583210e+01    1.612712e+00
  1.584798e+01    1.642548e+00
  1.586385e+01    1.653821e+00
  1.587973e+01    1.596448e+00
  1.589561e+01    1.597435e+00
  1.591148e+01    1.633950e+00
  1.592736e+01    1.587573e+00
  1.594323e+01    1.602754e+00
  1.595911e+01    1.608638e+00
  1.597498e+01    1.623247e+00
  1.599086e+01    1.602883e+00
  1.600673e+01    1.575246e+00
  1.602261e+01    1.583215e+00
  1.603849e+01    1.571466e+00
  1.605436e+01    1.563092e+00
  1.607024e+01    1.569270e+00
  1.608611e+01    1.564194e+00
  1.610199e+01    1.539605e+00
  1.611786e+01    1.549811e+00
  1.613374e+01    1.558537e+00
  1.614961e+01    1.546175e+00
  1.616549e+01    1.542478e+00
  1.618137e+01    1.559322e+00
  1.619724e+01    1.560282e+00
  1.621312e+01    1.559873e+00
  1.622899e+01    1.565042e+00
  1.624487e+01    1.559884e+00
  1.626074e+01    1.584726e+00
  1.627662e+01    1.583184e+00
  1.629250e+01    1.526903e+00
  1.630837e+01    1.548092e+00
  1.632425e+01    1.547801e+00
  1.634012e+01    1.530287e+00
  1.635600e+01    1.521510e+00
  1.637187e+01    1.524958e+00
  1.638775e+01    1.529394e+00
  1.640362e+01    1.544244e+00
  1.641950e+01    1.518972e+00
  1.643538e+01    1.507372e+00
  1.645125e+01    1.505508e+00
  1.646713e+01    1.494491e+00
  1.648300e+01    1.525713e+00
  1.649888e+01    1.499156e+00
  1.651475e+01    1.522282e+00
  1.653063e+01    1.522222e+00
  1.654650e+01    1.494417e+00
  1.656238e+01    1.496258e+00
  1.657826e+01    1.516348e+00
  1.659413e+01    1.494474e+00
  1.661001e+01    1.493512e+00
  1.662588e+01    1.490502e+00
  1.664176e+01    1.479043e+00
  1.665763e+01    1.448357e+00
  1.667351e+01    1.470062e+00
  1.668938e+01    1.468453e+00
  1.670526e+01    1.456760e+00
  1.672114e+01    1.453840e+00
  1.673701e+01    1.471678e+00
  1.675289e+01    1.491765e+00
  1.676876e+01    1.455844e+00
  1.678464e+01    1.437224e+00
  1.680051e+01    1.425027e+00
  1.681639e+01    1.455624e+00
  1.683226e+01    1.471465e+00
  1.684814e+01    1.448150e+00
  1.686402e+01    1.453044e+00
  1.687989e+01    1.450652e+00
  1.689577e+01    1.451582e+00
  1.691164e+01    1.420083e+00
  1.692752e+01    1.421383e+00
  1.694339e+01    1.414328e+00
  1.695927e+01    1.420927e+00
  1.697514e+01    1.423981e+00
  1.699102e+01    1.426287e+00
  1.700690e+01    1.438119e+00
  1.702277e+01    1.417528e+00
  1.703865e+01    1.403767e+00
  1.705452e+01    1.426532e+00
  1.707040e+01    1.415427e+00
  1.708627e+01    1.411965e+00
  1.710215e+01    1.384561e+00
  1.711802e+01    1.379699e+00
  1.713390e+01    1.407151e+00
  1.714978e+01    1.411820e+00
  1.716565e+01    1.401239e+00
  1.718153e+01    1.398463e+00
  1.719740e+01    1.408496e+00
  1.721328e+01    1.399233e+00
  1.722915e+01    1.409074e+00
  1.724503e+01    1.398035e+00
  1.726091e+01    1.381571e+00
  1.727678e+01    1.409449e+00
  1.729266e+01    1.396271e+00
  1.730853e+01    1.402806e+00
  1.732441e+01    1.369450e+00
  1.734028e+01    1.386960e+00
  1.735616e+01    1.390720e+00
  1.737203e+01    1.363790e+00
  1.738791e+01    1.353768e+00
  1.740379e+01    1.371701e+00
  1.741966e+01    1.383993e+00
  1.743554e+01    1.368936e+00
  1.745141e+01    1.352851e+00
  1.746729e+01    1.380146e+00
  1.748316e+01    1.348276e+00
  1.749904e+01    1.351976e+00
  1.751491e+01    1.338829e+00
  1.753079e+01    1.334235e+00
  1.754667e+01    1.386322e+00
  1.756254e+01    1.353251e+00
  1.757842e+01    1.336622e+00
  1.759429e+01    1.336462e+00
  1.761017e+01    1.338676e+00
  1.762604e+01    1.360238e+00
  1.764192e+01    1.339626e+00
  1.765779e+01    1.320220e+00
  1.767367e+01    1.325967e+00
  1.768955e+01    1.318049e+00
  1.770542e+01    1.319530e+00
  1.772130e+01    1.367805e+00
  1.773717e+01    1.334409e+00
  1.775305e+01    1.316762e+00
  1.776892e+01    1.327025e+00
  1.778480e+01    1.312919e+00
  1.780067e+01    1.314626e+00
  1.781655e+01    1.317582e+00
  1.783243e+01    1.312276e+00
  1.784830e+01    1.312765e+00
  1.786418e+01    1.306261e+00
  1.788005e+01    1.297930e+00
  1.789593e+01    1.298276e+00
  1.791180e+01    1.307545e+00
  1.792768e+01    1.310351e+00
  1.794355e+01    1.300689e+00
  1.795943e+01    1.312712e+00
  1.797531e+01    1.298332e+00
  1.799118e+01    1.296045e+00
  1.800706e+01    1.323926e+00
  1.802293e+01    1.295290e+00
  1.803881e+01    1.296000e+00
  1.805468e+01    1.280204e+00
  1.807056e+01    1.255833e+00
  1.808643e+01    1.280383e+00
  1.810231e+01    1.294384e+00
  1.811819e+01    1.335391e+00
  1.813406e+01    1.313483e+00
  1.814994e+01    1.295719e+00
  1.816581e+01    1.286897e+00
  1.818169e+01    1.291965e+00
  1.819756e+01    1.290506e+00
  1.821344e+01    1.283446e+00
  1.822932e+01    1.282705e+00
  1.824519e+01    1.307687e+00
  1.826107e+01    1.302155e+00
  1.827694e+01    1.250999e+00
  1.829282e+01    1.248479e+00
  1.830869e+01    1.253716e+00
  1.832457e+01    1.272770e+00
  1.834044e+01    1.249365e+00
  1.835632e+01    1.237355e+00
  1.837220e+01    1.263329e+00
  1.838807e+01    1.255418e+00
  1.840395e+01    1.229973e+00
  1.841982e+01    1.270243e+00
  1.843570e+01    1.244708e+00
  1.845157e+01    1.256163e+00
  1.846745e+01    1.243556e+00
  1.848332e+01    1.259282e+00
  1.849920e+01    1.249123e+00
  1.851508e+01    1.241154e+00
  1.853095e+01    1.240218e+00
  1.854683e+01    1.238571e+00
  1.856270e+01    1.226079e+00
  1.857858e+01    1.214761e+00
  1.859445e+01    1.227643e+00
  1.861033e+01    1.224822e+00
  1.862620e+01    1.204027e+00
  1.864208e+01    1.227555e+00
  1.865796e+01    1.231332e+00
  1.867383e+01    1.212681e+00
  1.868971e+01    1.198135e+00
  1.870558e+01    1.223739e+00
  1.872146e+01    1.220737e+00
  1.873733e+01    1.233083e+00
  1.875321e+01    1.239114e+00
  1.876908e+01    1.238242e+00
  1.878496e+01    1.219644e+00
  1.880084e+01    1.210494e+00
  1.881671e+01    1.212760e+00
  1.883259e+01    1.209181e+00
  1.884846e+01    1.222297e+00
  1.886434e+01    1.224057e+00
  1.888021e+01    1.213602e+00
  1.889609e+01    1.216169e+00
  1.891196e+01    1.208456e+00
  1.892784e+01    1.202805e+00
  1.894372e+01    1.200947e+00
  1.895959e+01    1.210386e+00
  1.897547e+01    1.194364e+00
  1.899134e+01    1.204554e+00
  1.900722e+01    1.196614e+00
  1.902309e+01    1.169939e+00
  1.903897e+01    1.194466e+00
  1.905484e+01    1.178983e+00
  1.907072e+01    1.184343e+00
  1.908660e+01    1.197134e+00
  1.910247e+01    1.166518e+00
  1.911835e+01    1.183180e+00
  1.913422e+01    1.178092e+00
  1.915010e+01    1.198934e+00
  1.916597e+01    1.203684e+00
  1.918185e+01    1.176385e+00
  1.919773e+01    1.174031e+00
  1.921360e+01    1.171147e+00
  1.922948e+01    1.173128e+00
  1.924535e+01    1.154651e+00
  1.926123e+01    1.163867e+00
  1.927710e+01    1.151984e+00
  1.929298e+01    1.175994e+00
  1.930885e+01    1.183169e+00
  1.932473e+01    1.178568e+00
  1.934061e+01    1.161109e+00
  1.935648e+01    1.161884e+00
  1.937236e+01    1.185651e+00
  1.938823e+01    1.156016e+00
  1.940411e+01    1.158792e+00
  1.941998e+01    1.163184e+00
  1.943586e+01    1.154199e+00
  1.945173e+01    1.151925e+00
  1.946761e+01    1.156756e+00
  1.948349e+01    1.172184e+00
  1.949936e+01    1.167696e+00
  1.951524e+01    1.157569e+00
  1.953111e+01    1.150031e+00
  1.954699e+01    1.157586e+00
  1.956286e+01    1.145680e+00
  1.957874e+01    1.160208e+00
  1.959461e+01    1.133232e+00
  1.961049e+01    1.139018e+00
  1.962637e+01    1.148949e+00
  1.964224e+01    1.102664e+00
  1.965812e+01    1.107829e+00
  1.967399e+01    1.138991e+00
  1.968987e+01    1.150555e+00
  1.970574e+01    1.143449e+00
  1.972162e+01    1.138904e+00
  1.973749e+01    1.139707e+00
  1.975337e+01    1.141551e+00
  1.976925e+01    1.135425e+00
  1.978512e+01    1.144782e+00
  1.980100e+01    1.126626e+00
  1.981687e+01    1.146104e+00
  1.983275e+01    1.126049e+00
  1.984862e+01    1.116454e+00
  1.986450e+01    1.106439e+00
  1.988037e+01    1.105684e+00
  1.989625e+01    1.099647e+00
  1.991213e+01    1.121431e+00
  1.992800e+01    1.113528e+00
  1.994388e+01    1.090763e+00
  1.995975e+01    1.078147e+00
  1.997563e+01    1.094099e+00
  1.999150e+01    1.115122e+00
  2.000738e+01    1.118806e+00
  2.002325e+01    1.129233e+00
  2.003913e+01    1.120053e+00
  2.005501e+01    1.118217e+00
  2.007088e+01    1.106350e+00
  2.008676e+01    1.082954e+00
  2.010263e+01    1.099370e+00
  2.011851e+01    1.106797e+00
  2.013438e+01    1.102912e+00
  2.015026e+01    1.083081e+00
  2.016614e+01    1.091546e+00
  2.018201e+01    1.097530e+00
  2.019789e+01    1.085038e+00
  2.021376e+01    1.109577e+00
  2.022964e+01    1.109500e+00
  2.024551e+01    1.091154e+00
  2.026139e+01    1.106966e+00
  2.027726e+01    1.098662e+00
  2.029314e+01    1.118286e+00
  2.030902e+01    1.118405e+00
  2.032489e+01    1.112787e+00
  2.034077e+01    1.073618e+00
  2.035664e+01    1.069790e+00
  2.037252e+01    1.081277e+00
  2.038839e+01    1.077089e+00
  2.040427e+01    1.071382e+00
  2.042014e+01    1.079736e+00
  2.043602e+01    1.087056e+00
  2.045190e+01    1.074070e+00
  2.046777e+01    1.079191e+00
  2.048365e+01    1.084977e+00
  2.049952e+01    1.088468e+00
  2.051540e+01    1.049578e+00
  2.053127e+01    1.053880e+00
  2.054715e+01    1.053262e+00
  2.056302e+01    1.063498e+00
  2.057890e+01    1.071375e+00
  2.059478e+01    1.078894e+00
  2.061065e+01    1.069182e+00
  2.062653e+01    1.068745e+00
  2.064240e+01    1.074778e+00
  2.065828e+01    1.071416e+00
  2.067415e+01    1.065088e+00
  2.069003e+01    1.069556e+00
  2.070590e+01    1.051581e+00
  2.072178e+01    1.041170e+00
  2.073766e+01    1.059569e+00
  2.075353e+01    1.060474e+00
  2.076941e+01    1.075268e+00
  2.078528e+01    1.060051e+00
  2.080116e+01    1.054289e+00
  2.081703e+01    1.061453e+00
  2.083291e+01    1.081435e+00
  2.084878e+01    1.075133e+00
  2.086466e+01    1.078547e+00
  2.088054e+01    1.048044e+00
  2.089641e+01    1.048308e+00
  2.091229e+01    1.069991e+00
  2.092816e+01    1.088762e+00
  2.094404e+01    1.081619e+00
  2.095991e+01    1.098049e+00
  2.097579e+01    1.098885e+00
  2.099166e+01    1.084918e+00
  2.100754e+01    1.073129e+00
  2.102342e+01    1.065912e+00
  2.103929e+01    1.086526e+00
  2.105517e+01    1.068357e+00
  2.107104e+01    1.074985e+00
  2.108692e+01    1.087970e+00
  2.110279e+01    1.087202e+00
  2.111867e+01    1.082172e+00
  2.113455e+01    1.091490e+00
  2.115042e+01    1.088270e+00
  2.116630e+01    1.086529e+00
  2.118217e+01    1.108178e+00
  2.119805e+01    1.094319e+00
  2.121392e+01    1.108477e+00
  2.122980e+01    1.110757e+00
  2.124567e+01    1.110776e+00
  2.126155e+01    1.109242e+00
  2.127743e+01    1.093640e+00
  2.129330e+01    1.119631e+00
  2.130918e+01    1.132223e+00
  2.132505e+01    1.136526e+00
  2.134093e+01    1.153526e+00
  2.135680e+01    1.170793e+00
  2.137268e+01    1.152357e+00
  2.138855e+01    1.148238e+00
  2.140443e+01    1.167896e+00
  2.142031e+01    1.182072e+00
  2.143618e+01    1.208394e+00
  2.145206e+01    1.209788e+00
  2.146793e+01    1.223561e+00
  2.148381e+01    1.257792e+00
  2.149968e+01    1.287123e+00
  2.151556e+01    1.281254e+00
  2.153143e+01    1.311107e+00
  2.154731e+01    1.346736e+00
  2.156319e+01    1.374251e+00
  2.157906e+01    1.451864e+00
  2.159494e+01    1.515988e+00
  2.161081e+01    1.595532e+00
  2.162669e+01    1.696050e+00
  2.164256e+01    1.825055e+00
  2.165844e+01    1.947883e+00
  2.167431e+01    2.127549e+00
  2.169019e+01    2.315666e+00
  2.170607e+01    2.537426e+00
  2.172194e+01    2.856597e+00
  2.173782e+01    3.280123e+00
  2.175369e+01    3.750706e+00
  2.176957e+01    4.275487e+00
  2.178544e+01    4.890946e+00
  2.180132e+01    5.499660e+00
  2.181719e+01    6.265401e+00
  2.183307e+01    6.987689e+00
  2.184895e+01    7.705924e+00
  2.186482e+01    8.461496e+00
  2.188070e+01    8.971989e+00
  2.189657e+01    9.375889e+00
  2.191245e+01    9.328542e+00
  2.192832e+01    8.980773e+00
  2.194420e+01    8.265082e+00
  2.196007e+01    7.291175e+00
  2.197595e+01    6.270333e+00
  2.199183e+01    5.321088e+00
  2.200770e+01    4.525163e+00
  2.202358e+01    3.841141e+00
  2.203945e+01    3.317352e+00
  2.205533e+01    2.913109e+00
  2.207120e+01    2.581894e+00
  2.208708e+01    2.339396e+00
  2.210296e+01    2.143896e+00
  2.211883e+01    1.959839e+00
  2.213471e+01    1.813820e+00
  2.215058e+01    1.686503e+00
  2.216646e+01    1.572292e+00
  2.218233e+01    1.478863e+00
  2.219821e+01    1.445288e+00
  2.221408e+01    1.406193e+00
  2.222996e+01    1.364492e+00
  2.224584e+01    1.288374e+00
  2.226171e+01    1.239349e+00
  2.227759e+01    1.223065e+00
  2.229346e+01    1.223889e+00
  2.230934e+01    1.176298e+00
  2.232521e+01    1.147622e+00
  2.234109e+01    1.123152e+00
  2.235696e+01    1.119606e+00
  2.237284e+01    1.108273e+00
  2.238872e+01    1.087985e+00
  2.240459e+01    1.072915e+00
  2.242047e+01    1.079056e+00
  2.243634e+01    1.061209e+00
  2.245222e+01    1.065642e+00
  2.246809e+01    1.024783e+00
  2.248397e+01    1.029399e+00
  2.249984e+01    1.026615e+00
  2.251572e+01    9.867689e-01
  2.253160e+01    1.003754e+00
  2.254747e+01    1.021923e+00
  2.256335e+01    1.007934e+00
  2.257922e+01    9.980223e-01
  2.259510e+01    9.914030e-01
  2.261097e+01    9.716129e-01
  2.262685e+01    9.664982e-01
  2.264272e+01    9.557982e-01
  2.265860e+01    9.525413e-01
  2.267448e+01    9.571890e-01
  2.269035e+01    9.630424e-01
  2.270623e+01    9.569693e-01
  2.272210e+01    9.524452e-01
  2.273798e+01    9.586214e-01
  2.275385e+01    9.307339e-01
  2.276973e+01    9.181611e-01
  2.278560e+01    9.296511e-01
  2.280148e+01    9.150618e-01
  2.281736e+01    9.278967e-01
  2.283323e+01    9.375869e-01
  2.284911e+01    9.213826e-01
  2.286498e+01    9.162650e-01
  2.288086e+01    9.136459e-01
  2.289673e+01    9.025417e-01
  2.291261e+01    8.995339e-01
  2.292848e+01    8.888549e-01
  2.294436e+01    8.965141e-01
  2.296024e+01    8.988125e-01
  2.297611e+01    8.956437e-01
  2.299199e+01    8.830250e-01
  2.300786e+01    8.916785e-01
  2.302374e+01    8.982770e-01
  2.303961e+01    8.940895e-01
  2.305549e+01    8.714051e-01
  2.307137e+01    8.693290e-01
  2.308724e+01    8.666956e-01
  2.310312e+01    8.894190e-01
  2.311899e+01    8.780454e-01
  2.313487e+01    8.849792e-01
  2.315074e+01    8.728120e-01
  2.316662e+01    9.013042e-01
  2.318249e+01    8.870705e-01
  2.319837e+01    8.678645e-01
  2.321425e+01    8.691681e-01
  2.323012e+01    8.803124e-01
  2.324600e+01    8.716303e-01
  2.326187e+01    8.616259e-01
  2.327775e+01    8.537689e-01
  2.329362e+01    8.458216e-01
  2.330950e+01    8.434575e-01
  2.332537e+01    8.447967e-01
  2.334125e+01    8.454120e-01
  2.335713e+01    8.478037e-01
  2.337300e+01    8.398636e-01
  2.338888e+01    8.619202e-01
  2.340475e+01    8.779930e-01
  2.342063e+01    8.535923e-01
  2.343650e+01    8.603539e-01
  2.345238e+01    8.527659e-01
  2.346825e+01    8.437057e-01
  2.348413e+01    8.241246e-01
  2.350001e+01    8.539593e-01
  2.351588e+01    8.480953e-01
  2.353176e+01    8.296139e-01
  2.354763e+01    8.372416e-01
  2.356351e+01    8.294006e-01
  2.357938e+01    8.294048e-01
  2.359526e+01    8.387600e-01
  2.361113e+01    8.482513e-01
  2.362701e+01    8.457961e-01
  2.364289e+01    8.540707e-01
  2.365876e+01    8.408734e-01
  2.367464e+01    8.373505e-01
  2.369051e+01    8.265610e-01
  2.370639e+01    8.192769e-01
  2.372226e+01    8.205185e-01
  2.373814e+01    8.381148e-01
  2.375401e+01    8.166432e-01
  2.376989e+01    8.185270e-01
  2.378577e+01    8.301451e-01
  2.380164e+01    8.216902e-01
  2.381752e+01    8.140451e-01
  2.383339e+01    8.070140e-01
  2.384927e+01    7.945008e-01
  2.386514e+01    7.828736e-01
  2.388102e+01    7.777600e-01
  2.389689e+01    7.718130e-01
  2.391277e+01    7.717416e-01
  2.392865e+01    7.847610e-01
  2.394452e+01    7.837729e-01
  2.396040e+01    7.773072e-01
  2.397627e+01    7.768520e-01
  2.399215e+01    8.002838e-01
  2.400802e+01    7.851881e-01
  2.402390e+01    7.898456e-01
  2.403978e+01    7.784169e-01
  2.405565e+01    7.707694e-01
  2.407153e+01    7.693069e-01
  2.408740e+01    7.809717e-01
  2.410328e+01    7.829531e-01
  2.411915e+01    7.514755e-01
  2.413503e+01    7.773492e-01
  2.415090e+01    7.817212e-01
  2.416678e+01    7.822992e-01
  2.418266e+01    7.798224e-01
  2.419853e+01    7.606478e-01
  2.421441e+01    7.787561e-01
  2.423028e+01    7.663817e-01
  2.424616e+01    7.709974e-01
  2.426203e+01    7.666852e-01
  2.427791e+01    7.699234e-01
  2.429378e+01    7.813947e-01
  2.430966e+01    7.959489e-01
  2.432554e+01    7.949827e-01
  2.434141e+01    8.059606e-01
  2.435729e+01    7.825019e-01
  2.437316e+01    7.917688e-01
  2.438904e+01    7.816370e-01
  2.440491e+01    7.663049e-01
  2.442079e+01    7.800602e-01
  2.443666e+01    7.740916e-01
  2.445254e+01    8.068570e-01
  2.446842e+01    8.037219e-01
  2.448429e+01    7.969480e-01
  2.450017e+01    8.028174e-01
  2.451604e+01    7.910602e-01
  2.453192e+01    7.667438e-01
  2.454779e+01    7.718235e-01
  2.456367e+01    7.946532e-01
  2.457954e+01    7.949507e-01
  2.459542e+01    8.013694e-01
  2.461130e+01    7.799764e-01
  2.462717e+01    7.834449e-01
  2.464305e+01    7.854962e-01
  2.465892e+01    7.878206e-01
  2.467480e+01    8.007420e-01
  2.469067e+01    7.885455e-01
  2.470655e+01    7.940770e-01
  2.472242e+01    7.951596e-01
  2.473830e+01    7.629926e-01
  2.475418e+01    7.758946e-01
  2.477005e+01    7.804080e-01
  2.478593e+01    7.919551e-01
  2.480180e+01    7.649112e-01
  2.481768e+01    7.996495e-01
  2.483355e+01    8.029685e-01
  2.484943e+01    7.940505e-01
  2.486530e+01    8.179380e-01
  2.488118e+01    8.232556e-01
  2.489706e+01    7.929662e-01
  2.491293e+01    8.008118e-01
  2.492881e+01    8.018493e-01
  2.494468e+01    8.017282e-01
  2.496056e+01    8.000823e-01
  2.497643e+01    7.894637e-01
  2.499231e+01    8.031942e-01
  2.500819e+01    8.009923e-01
  2.502406e+01    7.943114e-01
  2.503994e+01    8.017250e-01
  2.505581e+01    7.966432e-01
  2.507169e+01    7.851205e-01
  2.508756e+01    8.045158e-01
  2.510344e+01    8.038276e-01
  2.511931e+01    8.039876e-01
  2.513519e+01    8.044589e-01
  2.515107e+01    8.182160e-01
  2.516694e+01    8.352200e-01
  2.518282e+01    8.224527e-01
  2.519869e+01    8.418020e-01
  2.521457e+01    8.407928e-01
  2.523044e+01    8.296493e-01
  2.524632e+01    8.337077e-01
  2.526219e+01    8.463382e-01
  2.527807e+01    8.688947e-01
  2.529395e+01    8.527627e-01
  2.530982e+01    8.933825e-01
  2.532570e+01    8.766003e-01
  2.534157e+01    8.876913e-01
  2.535745e+01    8.811783e-01
  2.537332e+01    8.699028e-01
  2.538920e+01    8.872273e-01
  2.540507e+01    8.836784e-01
  2.542095e+01    9.024133e-01
  2.543683e+01    9.313343e-01
  2.545270e+01    9.512299e-01
  2.546858e+01    9.543960e-01
  2.548445e+01    9.699374e-01
  2.550033e+01    1.004110e+00
  2.551620e+01    9.849663e-01
  2.553208e+01    1.013303e+00
  2.554795e+01    1.010464e+00
  2.556383e+01    1.049006e+00
  2.557971e+01    1.062272e+00
  2.559558e+01    1.105001e+00
  2.561146e+01    1.139416e+00
  2.562733e+01    1.175617e+00
  2.564321e+01    1.205550e+00
  2.565908e+01    1.255801e+00
  2.567496e+01    1.308536e+00
  2.569083e+01    1.404905e+00
  2.570671e+01    1.517590e+00
  2.572259e+01    1.616476e+00
  2.573846e+01    1.720162e+00
  2.575434e+01    1.870436e+00
  2.577021e+01    2.086615e+00
  2.578609e+01    2.331583e+00
  2.580196e+01    2.609190e+00
  2.581784e+01    2.996678e+00
  2.583371e+01    3.442197e+00
  2.584959e+01    3.916883e+00
  2.586547e+01    4.484492e+00
  2.588134e+01    5.076077e+00
  2.589722e+01    5.730365e+00
  2.591309e+01    6.371154e+00
  2.592897e+01    6.938845e+00
  2.594484e+01    7.387757e+00
  2.596072e+01    7.703373e+00
  2.597660e+01    7.694287e+00
  2.599247e+01    7.370845e+00
  2.600835e+01    6.821734e+00
  2.602422e+01    6.139037e+00
  2.604010e+01    5.321872e+00
  2.605597e+01    4.520946e+00
  2.607185e+01    3.882997e+00
  2.608772e+01    3.318772e+00
  2.610360e+01    2.914918e+00
  2.611948e+01    2.540136e+00
  2.613535e+01    2.272535e+00
  2.615123e+01    2.041359e+00
  2.616710e+01    1.897757e+00
  2.618298e+01    1.701694e+00
  2.619885e+01    1.572496e+00
  2.621473e+01    1.467261e+00
  2.623060e+01    1.370291e+00
  2.624648e+01    1.337819e+00
  2.626236e+01    1.294931e+00
  2.627823e+01    1.209624e+00
  2.629411e+01    1.151861e+00
  2.630998e+01    1.129497e+00
  2.632586e+01    1.093207e+00
  2.634173e+01    1.060946e+00
  2.635761e+01    1.046710e+00
  2.637348e+01    1.027676e+00
  2.638936e+01    9.976447e-01
  2.640524e+01    9.807655e-01
  2.642111e+01    9.705212e-01
  2.643699e+01    9.516528e-01
  2.645286e+01    9.598944e-01
  2.646874e+01    9.288234e-01
  2.648461e+01    9.337589e-01
  2.650049e+01    9.449084e-01
  2.651636e+01    9.284450e-01
  2.653224e+01    9.024385e-01
  2.654812e+01    9.015923e-01
  2.656399e+01    9.083287e-01
  2.657987e+01    9.008519e-01
  2.659574e+01    8.968151e-01
  2.661162e+01    8.946124e-01
  2.662749e+01    8.836949e-01
  2.664337e+01    8.969905e-01
  2.665924e+01    8.901166e-01
  2.667512e+01    8.933481e-01
  2.669100e+01    8.919374e-01
  2.670687e+01    8.879777e-01
  2.672275e+01    8.726115e-01
  2.673862e+01    8.599973e-01
  2.675450e+01    8.831964e-01
  2.677037e+01    8.671263e-01
  2.678625e+01    8.816947e-01
  2.680212e+01    8.946717e-01
  2.681800e+01    8.906453e-01
  2.683388e+01    9.046764e-01
  2.684975e+01    8.989571e-01
  2.686563e+01    9.079513e-01
  2.688150e+01    9.156155e-01
  2.689738e+01    9.059044e-01
  2.691325e+01    9.160951e-01
  2.692913e+01    9.262842e-01
  2.694501e+01    9.224969e-01
  2.696088e+01    9.657577e-01
  2.697676e+01    9.797042e-01
  2.699263e+01    9.916160e-01
  2.700851e+01    1.016775e+00
  2.702438e+01    1.076126e+00
  2.704026e+01    1.112568e+00
  2.705613e+01    1.164927e+00
  2.707201e+01    1.222954e+00
  2.708789e+01    1.311197e+00
  2.710376e+01    1.395612e+00
  2.711964e+01    1.477010e+00
  2.713551e+01    1.618051e+00
  2.715139e+01    1.776250e+00
  2.716726e+01    1.944914e+00
  2.718314e+01    2.089090e+00
  2.719901e+01    2.186937e+00
  2.721489e+01    2.215137e+00
  2.723077e+01    2.264122e+00
  2.724664e+01    2.231271e+00
  2.726252e+01    2.138347e+00
  2.727839e+01    2.003111e+00
  2.729427e+01    1.833112e+00
  2.731014e+01    1.667215e+00
  2.732602e+01    1.538154e+00
  2.734189e+01    1.419581e+00
  2.735777e+01    1.288231e+00
  2.737365e+01    1.231719e+00
  2.738952e+01    1.134017e+00
  2.740540e+01    1.105499e+00
  2.742127e+01    1.054906e+00
  2.743715e+01    1.033404e+00
  2.745302e+01    1.000752e+00
  2.746890e+01    9.649819e-01
  2.748477e+01    9.179386e-01
  2.750065e+01    9.268199e-01
  2.751653e+01    9.107107e-01
  2.753240e+01    9.003632e-01
  2.754828e+01    8.805568e-01
  2.756415e+01    8.822894e-01
  2.758003e+01    8.639997e-01
  2.759590e+01    8.592524e-01
  2.761178e+01    8.541387e-01
  2.762765e+01    8.288741e-01
  2.764353e+01    8.302702e-01
  2.765941e+01    8.174469e-01
  2.767528e+01    8.145981e-01
  2.769116e+01    8.011866e-01
  2.770703e+01    8.120871e-01
  2.772291e+01    8.071934e-01
  2.773878e+01    8.026704e-01
  2.775466e+01    7.897511e-01
  2.777054e+01    8.016047e-01
  2.778641e+01    8.051071e-01
  2.780229e+01    8.153126e-01
  2.781816e+01    7.964538e-01
  2.783404e+01    8.034974e-01
  2.784991e+01    7.949234e-01
  2.786579e+01    8.148231e-01
  2.788166e+01    8.021281e-01
  2.789754e+01    7.898854e-01
  2.791342e+01    8.027033e-01
  2.792929e+01    8.242965e-01
  2.794517e+01    7.888560e-01
  2.796104e+01    7.870187e-01
  2.797692e+01    7.807972e-01
  2.799279e+01    7.810050e-01
  2.800867e+01    7.691469e-01
  2.802454e+01    7.619279e-01
  2.804042e+01    7.760158e-01
  2.805630e+01    7.858504e-01
  2.807217e+01    7.894789e-01
  2.808805e+01    7.796202e-01
  2.810392e+01    7.823722e-01
  2.811980e+01    7.745717e-01
  2.813567e+01    7.778188e-01
  2.815155e+01    7.851938e-01
  2.816742e+01    7.646932e-01
  2.818330e+01    7.657083e-01
  2.819918e+01    7.700893e-01
  2.821505e+01    7.431255e-01
  2.823093e+01    7.577494e-01
  2.824680e+01    7.569887e-01
  2.826268e+01    7.624921e-01
  2.827855e+01    7.730206e-01
  2.829443e+01    7.863718e-01
  2.831030e+01    7.675484e-01
  2.832618e+01    7.700122e-01
  2.834206e+01    7.765247e-01
  2.835793e+01    7.810135e-01
  2.837381e+01    7.741412e-01
  2.838968e+01    7.597000e-01
  2.840556e+01    7.614498e-01
  2.842143e+01    7.443909e-01
  2.843731e+01    7.452563e-01
  2.845318e+01    7.541659e-01
  2.846906e+01    7.530940e-01
  2.848494e+01    7.629493e-01
  2.850081e+01    7.571965e-01
  2.851669e+01    7.458789e-01
  2.853256e+01    7.284914e-01
  2.854844e+01    7.550283e-01
  2.856431e+01    7.414655e-01
  2.858019e+01    7.305719e-01
  2.859606e+01    7.432820e-01
  2.861194e+01    7.501216e-01
  2.862782e+01    7.612233e-01
  2.864369e+01    7.526221e-01
  2.865957e+01    7.391571e-01
  2.867544e+01    7.487476e-01
  2.869132e+01    7.401305e-01
  2.870719e+01    7.414604e-01
  2.872307e+01    7.347074e-01
  2.873895e+01    7.582303e-01
  2.875482e+01    7.418592e-01
  2.877070e+01    7.507366e-01
  2.878657e+01    7.521371e-01
  2.880245e+01    7.532751e-01
  2.881832e+01    7.449707e-01
  2.883420e+01    7.363319e-01
  2.885007e+01    7.473858e-01
  2.886595e+01    7.341719e-01
  2.888183e+01    7.241060e-01
  2.889770e+01    7.339307e-01
  2.891358e+01    7.365790e-01
  2.892945e+01    7.505205e-01
  2.894533e+01    7.370724e-01
  2.896120e+01    7.205236e-01
  2.897708e+01    7.303985e-01
  2.899295e+01    7.234941e-01
  2.900883e+01    7.360438e-01
  2.902471e+01    7.363328e-01
  2.904058e+01    7.303153e-01
  2.905646e+01    7.243193e-01
  2.907233e+01    7.441528e-01
  2.908821e+01    7.430773e-01
  2.910408e+01    7.175034e-01
  2.911996e+01    7.386386e-01
  2.913583e+01    7.380850e-01
  2.915171e+01    7.361944e-01
  2.916759e+01    7.167391e-01
  2.918346e+01    7.297657e-01
  2.919934e+01    7.309767e-01
  2.921521e+01    7.387099e-01
  2.923109e+01    7.379207e-01
  2.924696e+01    7.408293e-01
  2.926284e+01    7.265547e-01
  2.927871e+01    7.259555e-01
  2.929459e+01    7.211342e-01
  2.931047e+01    7.207684e-01
  2.932634e+01    7.183592e-01
  2.934222e+01    7.123318e-01
  2.935809e+01    7.328004e-01
  2.937397e+01    7.323915e-01
  2.938984e+01    7.313614e-01
  2.940572e+01    7.304671e-01
  2.942159e+01    7.240270e-01
  2.943747e+01    7.229871e-01
  2.945335e+01    7.282272e-01
  2.946922e+01    7.296345e-01
  2.948510e+01    7.339897e-01
  2.950097e+01    7.148085e-01
  2.951685e+01    7.147999e-01
  2.953272e+01    7.071073e-01
  2.954860e+01    7.198091e-01
  2.956447e+01    7.300633e-01
  2.958035e+01    7.318953e-01
  2.959623e+01    7.206010e-01
  2.961210e+01    7.199336e-01
  2.962798e+01    7.233536e-01
  2.964385e+01    7.150120e-01
  2.965973e+01    7.175511e-01
  2.967560e+01    7.429331e-01
  2.969148e+01    7.190620e-01
  2.970736e+01    7.155169e-01
  2.972323e+01    7.130651e-01
  2.973911e+01    7.059668e-01
  2.975498e+01    7.091603e-01
  2.977086e+01    7.067011e-01
  2.978673e+01    7.268861e-01
  2.980261e+01    7.142044e-01
  2.981848e+01    7.248366e-01
  2.983436e+01    7.104493e-01
  2.985024e+01    7.060632e-01
  2.986611e+01    7.120573e-01
  2.988199e+01    7.401181e-01
  2.989786e+01    7.440276e-01
  2.991374e+01    7.281039e-01
  2.992961e+01    7.225500e-01
  2.994549e+01    7.280245e-01
  2.996136e+01    7.318166e-01
  2.997724e+01    7.131408e-01
  2.999312e+01    7.388014e-01
  3.000899e+01    7.315937e-01
  3.002487e+01    7.325188e-01
  3.004074e+01    7.137038e-01
  3.005662e+01    7.414042e-01
  3.007249e+01    7.378050e-01
  3.008837e+01    7.210199e-01
  3.010424e+01    7.232929e-01
  3.012012e+01    7.015112e-01
  3.013600e+01    7.262312e-01
  3.015187e+01    7.355596e-01
  3.016775e+01    7.230452e-01
  3.018362e+01    7.117686e-01
  3.019950e+01    7.236598e-01
  3.021537e+01    7.133356e-01
  3.023125e+01    7.166795e-01
  3.024712e+01    7.224915e-01
  3.026300e+01    7.245216e-01
  3.027888e+01    6.990029e-01
  3.029475e+01    6.806686e-01
  3.031063e+01    7.117090e-01
  3.032650e+01    7.125344e-01
  3.034238e+01    6.852967e-01
  3.035825e+01    7.399942e-01
  3.037413e+01    7.156621e-01
  3.039000e+01    7.157812e-01
  3.040588e+01    7.271816e-01
  3.042176e+01    7.065853e-01
  3.043763e+01    7.140992e-01
  3.045351e+01    6.966594e-01
  3.046938e+01    7.035544e-01
  3.048526e+01    7.058514e-01
  3.050113e+01    6.998003e-01
  3.051701e+01    6.920801e-01
  3.053288e+01    7.205021e-01
  3.054876e+01    7.216899e-01
  3.056464e+01    7.198093e-01
  3.058051e+01    7.125843e-01
  3.059639e+01    7.215727e-01
  3.061226e+01    7.108577e-01
  3.062814e+01    7.094699e-01
  3.064401e+01    7.136525e-01
  3.065989e+01    7.142690e-01
  3.067577e+01    7.275659e-01
  3.069164e+01    7.158616e-01
  3.070752e+01    6.982927e-01
  3.072339e+01    6.819096e-01
  3.073927e+01    6.972717e-01
  3.075514e+01    7.015252e-01
  3.077102e+01    7.043333e-01
  3.078689e+01    7.091556e-01
  3.080277e+01    7.101074e-01
  3.081865e+01    6.919481e-01
  3.083452e+01    7.029096e-01
  3.085040e+01    7.056006e-01
  3.086627e+01    6.940221e-01
  3.088215e+01    7.086418e-01
  3.089802e+01    7.001130e-01
  3.091390e+01    7.018448e-01
  3.092977e+01    7.120321e-01
  3.094565e+01    7.231804e-01
  3.096153e+01    7.071018e-01
  3.097740e+01    7.308311e-01
  3.099328e+01    7.306555e-01
  3.100915e+01    7.190525e-01
  3.102503e+01    7.215362e-01
  3.104090e+01    7.280687e-01
  3.105678e+01    7.073566e-01
  3.107265e+01    7.129229e-01
  3.108853e+01    7.251222e-01
  3.110441e+01    7.196391e-01
  3.112028e+01    7.168762e-01
  3.113616e+01    7.330320e-01
  3.115203e+01    7.268610e-01
  3.116791e+01    7.140144e-01
  3.118378e+01    7.102433e-01
  3.119966e+01    7.103978e-01
  3.121553e+01    7.369190e-01
  3.123141e+01    7.247890e-01
  3.124729e+01    7.240935e-01
  3.126316e+01    7.269590e-01
  3.127904e+01    7.156336e-01
  3.129491e+01    7.252342e-01
  3.131079e+01    7.316774e-01
  3.132666e+01    7.132462e-01
  3.134254e+01    7.342472e-01
  3.135841e+01    7.305419e-01
  3.137429e+01    7.261105e-01
  3.139017e+01    7.309077e-01
  3.140604e+01    7.441850e-01
  3.142192e+01    7.336934e-01
  3.143779e+01    7.435914e-01
  3.145367e+01    7.675778e-01
  3.146954e+01    7.638547e-01
  3.148542e+01    7.849260e-01
  3.150129e+01    7.505122e-01
  3.151717e+01    7.565073e-01
  3.153305e+01    7.628914e-01
  3.154892e+01    7.625862e-01
  3.156480e+01    7.868227e-01
  3.158067e+01    8.180338e-01
  3.159655e+01    8.220737e-01
  3.161242e+01    8.186527e-01
  3.162830e+01    8.224794e-01
  3.164418e+01    8.393876e-01
  3.166005e+01    8.616217e-01
  3.167593e+01    8.958067e-01
  3.169180e+01    9.248516e-01
  3.170768e+01    9.772629e-01
  3.172355e+01    9.927890e-01
  3.173943e+01    1.055804e+00
  3.175530e+01    1.124749e+00
  3.177118e+01    1.223006e+00
  3.178706e+01    1.289729e+00
  3.180293e+01    1.381055e+00
  3.181881e+01    1.501632e+00
  3.183468e+01    1.663190e+00
  3.185056e+01    1.829789e+00
  3.186643e+01    1.990447e+00
  3.188231e+01    2.100491e+00
  3.189818e+01    2.218529e+00
  3.191406e+01    2.285037e+00
  3.192994e+01    2.250359e+00
  3.194581e+01    2.161622e+00
  3.196169e+01    2.019634e+00
  3.197756e+01    1.886674e+00
  3.199344e+01    1.705824e+00
  3.200931e+01    1.524538e+00
  3.202519e+01    1.364308e+00
  3.204106e+01    1.254362e+00
  3.205694e+01    1.191352e+00
  3.207282e+01    1.098190e+00
  3.208869e+01    1.046849e+00
  3.210457e+01    9.885521e-01
  3.212044e+01    9.565544e-01
  3.213632e+01    9.126956e-01
  3.215219e+01    8.740612e-01
  3.216807e+01    8.454877e-01
  3.218394e+01    8.403561e-01
  3.219982e+01    8.226537e-01
  3.221570e+01    8.198407e-01
  3.223157e+01    8.103412e-01
  3.224745e+01    8.098932e-01
  3.226332e+01    7.996603e-01
  3.227920e+01    7.801398e-01
  3.229507e+01    7.507041e-01
  3.231095e+01    7.535176e-01
  3.232682e+01    7.406594e-01
  3.234270e+01    7.417026e-01
  3.235858e+01    7.512250e-01
  3.237445e+01    7.508646e-01
  3.239033e+01    7.211432e-01
  3.240620e+01    7.272452e-01
  3.242208e+01    7.292063e-01
  3.243795e+01    7.235224e-01
  3.245383e+01    7.279977e-01
  3.246970e+01    7.293683e-01
  3.248558e+01    7.181427e-01
  3.250146e+01    7.279363e-01
  3.251733e+01    7.085621e-01
  3.253321e+01    7.203014e-01
  3.254908e+01    7.117408e-01
