# == pyFAI calibration ==
# Distance Sample to Detector: 0.3999999939076516 m
# PONI: 9.750e-02, 1.135e-01 m
# Rotations: -0.000175 0.000000 -0.000000 rad
# 
# == Fit2d calibration ==
# Distance Sample-beamCenter: 400.000 mm
# Center: x=1514.000, y=1300.000 pix
# Tilt: 0.010 deg  TiltPlanRot: 0.010 deg
# 
# Detector Detector	 Spline= None	 PixelSize= 7.500e-05, 7.500e-05 m
#    Detector has a mask: False 
#    Detector has a dark current: False 
#    detector has a flat field: False 
# 
# Wavelength: 6.888e-11 m
# Mask applied: user provided
# Dark current applied: False
# Flat field applied: False
# Polarization factor: 0.99
# Normalization factor: 1.0
# --> /home/myspot/data/2024_07_Rosario/Ru-CGO-ex/2024-07-27_002_Ru-CGO-ex_Activtation_ramp_000002_data_000038.dat
#       q_nm^-1             I 
  2.003187e-02    0.000000e+00
  3.590745e-02    0.000000e+00
  5.178302e-02    4.781393e-02
  6.765859e-02    1.561025e-01
  8.353417e-02    1.450709e-01
  9.940974e-02    2.141992e-02
  1.152853e-01    6.261969e-03
  1.311609e-01    3.343473e-02
  1.470365e-01    4.088449e-02
  1.629120e-01    1.388812e-01
  1.787876e-01    6.570202e-02
  1.946632e-01    5.125008e-02
  2.105388e-01    2.106920e-02
  2.264143e-01    1.215597e-02
  2.422899e-01    7.012007e-03
  2.581655e-01    6.161967e-02
  2.740411e-01    4.732898e-02
  2.899166e-01    3.652653e-02
  3.057922e-01    2.945030e-02
  3.216678e-01    3.103655e-02
  3.375433e-01    6.555617e-02
  3.534189e-01    3.888025e-02
  3.692945e-01    2.981707e-02
  3.851701e-01    2.360818e-02
  4.010456e-01    2.404370e-02
  4.169212e-01    7.801415e-02
  4.327968e-01    5.496494e-02
  4.486724e-01    1.825580e-02
  4.645479e-01    3.053164e-02
  4.804235e-01    3.401989e-02
  4.962991e-01    3.422076e-02
  5.121747e-01    3.842330e-02
  5.280502e-01    2.659019e-02
  5.439258e-01    1.504935e-02
  5.598014e-01    3.631703e-02
  5.756770e-01    2.854185e-02
  5.915525e-01    3.447567e-02
  6.074281e-01    2.866214e-02
  6.233037e-01    2.135113e-02
  6.391793e-01    1.624845e-02
  6.550548e-01    3.098799e-02
  6.709304e-01    6.141654e-02
  6.868060e-01    7.329872e-02
  7.026815e-01    5.640295e-02
  7.185571e-01    3.985865e-02
  7.344327e-01    3.817670e-02
  7.503083e-01    5.736966e-02
  7.661838e-01    5.504419e-02
  7.820594e-01    1.045245e-01
  7.979350e-01    1.355047e-01
  8.138106e-01    1.733835e-01
  8.296861e-01    2.640222e-01
  8.455617e-01    3.643419e-01
  8.614373e-01    3.774481e-01
  8.773129e-01    4.458513e-01
  8.931884e-01    5.321245e-01
  9.090640e-01    5.883795e-01
  9.249396e-01    6.311864e-01
  9.408152e-01    7.123567e-01
  9.566907e-01    7.895134e-01
  9.725663e-01    8.602719e-01
  9.884419e-01    9.548478e-01
  1.004317e+00    1.017425e+00
  1.020193e+00    1.132133e+00
  1.036069e+00    1.163562e+00
  1.051944e+00    1.228531e+00
  1.067820e+00    1.268199e+00
  1.083695e+00    1.278730e+00
  1.099571e+00    1.395233e+00
  1.115446e+00    1.355972e+00
  1.131322e+00    1.449964e+00
  1.147198e+00    1.524462e+00
  1.163073e+00    1.402704e+00
  1.178949e+00    1.527064e+00
  1.194824e+00    1.605324e+00
  1.210700e+00    1.813737e+00
  1.226575e+00    2.081776e+00
  1.242451e+00    2.205801e+00
  1.258327e+00    2.318798e+00
  1.274202e+00    2.485184e+00
  1.290078e+00    2.456052e+00
  1.305953e+00    2.417201e+00
  1.321829e+00    2.553483e+00
  1.337705e+00    2.568403e+00
  1.353580e+00    2.499599e+00
  1.369456e+00    2.607257e+00
  1.385331e+00    2.744832e+00
  1.401207e+00    2.653020e+00
  1.417082e+00    2.778761e+00
  1.432958e+00    2.728503e+00
  1.448834e+00    2.803819e+00
  1.464709e+00    2.974758e+00
  1.480585e+00    3.112823e+00
  1.496460e+00    3.074441e+00
  1.512336e+00    2.873523e+00
  1.528211e+00    2.972903e+00
  1.544087e+00    3.090369e+00
  1.559963e+00    3.035773e+00
  1.575838e+00    3.019848e+00
  1.591714e+00    2.929792e+00
  1.607589e+00    2.901994e+00
  1.623465e+00    2.993191e+00
  1.639340e+00    3.057746e+00
  1.655216e+00    2.902117e+00
  1.671092e+00    2.903227e+00
  1.686967e+00    2.882278e+00
  1.702843e+00    2.925213e+00
  1.718718e+00    3.030200e+00
  1.734594e+00    3.023065e+00
  1.750469e+00    2.905425e+00
  1.766345e+00    2.850706e+00
  1.782221e+00    2.890055e+00
  1.798096e+00    2.789502e+00
  1.813972e+00    2.804850e+00
  1.829847e+00    2.774901e+00
  1.845723e+00    2.790040e+00
  1.861598e+00    2.855032e+00
  1.877474e+00    2.895791e+00
  1.893350e+00    2.873682e+00
  1.909225e+00    2.785915e+00
  1.925101e+00    2.774499e+00
  1.940976e+00    2.740937e+00
  1.956852e+00    2.771974e+00
  1.972727e+00    2.842923e+00
  1.988603e+00    2.910463e+00
  2.004479e+00    2.827134e+00
  2.020354e+00    2.829669e+00
  2.036230e+00    2.860213e+00
  2.052105e+00    2.873418e+00
  2.067981e+00    2.840635e+00
  2.083856e+00    2.812403e+00
  2.099732e+00    2.707295e+00
  2.115608e+00    2.649190e+00
  2.131483e+00    2.736102e+00
  2.147359e+00    2.924127e+00
  2.163234e+00    2.859281e+00
  2.179110e+00    2.799031e+00
  2.194985e+00    2.807839e+00
  2.210861e+00    2.834582e+00
  2.226737e+00    2.864490e+00
  2.242612e+00    2.905816e+00
  2.258488e+00    2.834880e+00
  2.274363e+00    2.759495e+00
  2.290239e+00    2.796726e+00
  2.306115e+00    2.806336e+00
  2.321990e+00    2.833647e+00
  2.337866e+00    2.779684e+00
  2.353741e+00    2.812133e+00
  2.369617e+00    2.771642e+00
  2.385492e+00    2.770381e+00
  2.401368e+00    2.838979e+00
  2.417244e+00    2.768555e+00
  2.433119e+00    2.740687e+00
  2.448995e+00    2.823663e+00
  2.464870e+00    2.762852e+00
  2.480746e+00    2.874317e+00
  2.496621e+00    2.884629e+00
  2.512497e+00    2.823660e+00
  2.528373e+00    2.798045e+00
  2.544248e+00    2.886544e+00
  2.560124e+00    2.813987e+00
  2.575999e+00    2.747679e+00
  2.591875e+00    2.836016e+00
  2.607750e+00    2.866339e+00
  2.623626e+00    2.810108e+00
  2.639502e+00    2.868022e+00
  2.655377e+00    2.854572e+00
  2.671253e+00    2.890614e+00
  2.687128e+00    2.879083e+00
  2.703004e+00    2.845174e+00
  2.718879e+00    2.759700e+00
  2.734755e+00    2.857082e+00
  2.750631e+00    2.894619e+00
  2.766506e+00    2.926192e+00
  2.782382e+00    2.860783e+00
  2.798257e+00    2.816980e+00
  2.814133e+00    2.755082e+00
  2.830008e+00    2.769959e+00
  2.845884e+00    2.789846e+00
  2.861760e+00    2.832587e+00
  2.877635e+00    2.865930e+00
  2.893511e+00    2.852864e+00
  2.909386e+00    2.935638e+00
  2.925262e+00    2.857329e+00
  2.941137e+00    2.822021e+00
  2.957013e+00    2.948634e+00
  2.972889e+00    2.842726e+00
  2.988764e+00    2.940828e+00
  3.004640e+00    2.908295e+00
  3.020515e+00    2.873791e+00
  3.036391e+00    2.963521e+00
  3.052266e+00    2.882114e+00
  3.068142e+00    2.848646e+00
  3.084018e+00    2.827588e+00
  3.099893e+00    2.864937e+00
  3.115769e+00    2.926978e+00
  3.131644e+00    2.922774e+00
  3.147520e+00    2.961160e+00
  3.163395e+00    2.975760e+00
  3.179271e+00    2.960148e+00
  3.195147e+00    2.890695e+00
  3.211022e+00    2.840142e+00
  3.226898e+00    2.932233e+00
  3.242773e+00    2.968863e+00
  3.258649e+00    2.968378e+00
  3.274525e+00    2.911568e+00
  3.290400e+00    2.943849e+00
  3.306276e+00    2.958894e+00
  3.322151e+00    2.939104e+00
  3.338027e+00    2.962577e+00
  3.353902e+00    2.911383e+00
  3.369778e+00    2.999474e+00
  3.385654e+00    2.955653e+00
  3.401529e+00    3.033391e+00
  3.417405e+00    2.967206e+00
  3.433280e+00    2.960995e+00
  3.449156e+00    2.878461e+00
  3.465031e+00    2.933100e+00
  3.480907e+00    2.957351e+00
  3.496783e+00    2.975592e+00
  3.512658e+00    3.018660e+00
  3.528534e+00    3.026624e+00
  3.544409e+00    2.963372e+00
  3.560285e+00    3.055314e+00
  3.576160e+00    3.043480e+00
  3.592036e+00    2.982160e+00
  3.607912e+00    2.986490e+00
  3.623787e+00    2.974870e+00
  3.639663e+00    2.975992e+00
  3.655538e+00    3.122397e+00
  3.671414e+00    3.040210e+00
  3.687289e+00    2.950695e+00
  3.703165e+00    2.899201e+00
  3.719041e+00    2.970704e+00
  3.734916e+00    2.973060e+00
  3.750792e+00    2.963417e+00
  3.766667e+00    2.932544e+00
  3.782543e+00    2.970826e+00
  3.798418e+00    2.984138e+00
  3.814294e+00    2.937902e+00
  3.830170e+00    2.906659e+00
  3.846045e+00    2.946286e+00
  3.861921e+00    3.003320e+00
  3.877796e+00    3.056444e+00
  3.893672e+00    3.036836e+00
  3.909547e+00    3.090023e+00
  3.925423e+00    3.047417e+00
  3.941299e+00    3.043914e+00
  3.957174e+00    3.064336e+00
  3.973050e+00    2.998519e+00
  3.988925e+00    2.927748e+00
  4.004801e+00    2.974728e+00
  4.020676e+00    3.079799e+00
  4.036552e+00    3.045894e+00
  4.052428e+00    3.057341e+00
  4.068303e+00    3.036135e+00
  4.084179e+00    3.062416e+00
  4.100054e+00    3.140531e+00
  4.115930e+00    3.011151e+00
  4.131806e+00    3.014901e+00
  4.147681e+00    3.082225e+00
  4.163557e+00    3.102274e+00
  4.179432e+00    3.090479e+00
  4.195308e+00    3.092771e+00
  4.211183e+00    3.120499e+00
  4.227059e+00    3.118463e+00
  4.242935e+00    3.182233e+00
  4.258810e+00    3.142482e+00
  4.274686e+00    3.113625e+00
  4.290561e+00    3.079607e+00
  4.306437e+00    3.141173e+00
  4.322312e+00    3.147683e+00
  4.338188e+00    3.011848e+00
  4.354064e+00    2.981594e+00
  4.369939e+00    3.032830e+00
  4.385815e+00    3.094142e+00
  4.401690e+00    3.076474e+00
  4.417566e+00    3.033782e+00
  4.433441e+00    3.065186e+00
  4.449317e+00    3.121239e+00
  4.465193e+00    3.108086e+00
  4.481068e+00    3.125478e+00
  4.496944e+00    3.192605e+00
  4.512819e+00    3.095524e+00
  4.528695e+00    3.047696e+00
  4.544570e+00    3.118856e+00
  4.560446e+00    3.101161e+00
  4.576322e+00    2.995710e+00
  4.592197e+00    3.092881e+00
  4.608073e+00    3.073462e+00
  4.623948e+00    3.064155e+00
  4.639824e+00    3.087964e+00
  4.655699e+00    3.066265e+00
  4.671575e+00    3.088477e+00
  4.687451e+00    3.101831e+00
  4.703326e+00    3.071957e+00
  4.719202e+00    3.053159e+00
  4.735077e+00    3.273588e+00
  4.750953e+00    3.272307e+00
  4.766828e+00    3.100092e+00
  4.782704e+00    3.119018e+00
  4.798580e+00    3.071558e+00
  4.814455e+00    3.067810e+00
  4.830331e+00    3.214704e+00
  4.846206e+00    3.177176e+00
  4.862082e+00    3.091477e+00
  4.877957e+00    3.102017e+00
  4.893833e+00    3.142216e+00
  4.909709e+00    3.130734e+00
  4.925584e+00    3.098794e+00
  4.941460e+00    3.133046e+00
  4.957335e+00    3.126673e+00
  4.973211e+00    3.143731e+00
  4.989086e+00    3.189665e+00
  5.004962e+00    3.101559e+00
  5.020838e+00    3.062262e+00
  5.036713e+00    3.134058e+00
  5.052589e+00    3.164284e+00
  5.068464e+00    3.137138e+00
  5.084340e+00    3.160767e+00
  5.100216e+00    3.144102e+00
  5.116091e+00    3.156914e+00
  5.131967e+00    3.149230e+00
  5.147842e+00    3.126739e+00
  5.163718e+00    3.090076e+00
  5.179593e+00    3.187875e+00
  5.195469e+00    3.213013e+00
  5.211345e+00    3.174725e+00
  5.227220e+00    3.128088e+00
  5.243096e+00    3.142046e+00
  5.258971e+00    3.072082e+00
  5.274847e+00    3.122017e+00
  5.290722e+00    3.149852e+00
  5.306598e+00    3.137578e+00
  5.322474e+00    3.169093e+00
  5.338349e+00    3.094474e+00
  5.354225e+00    3.095613e+00
  5.370100e+00    3.122432e+00
  5.385976e+00    3.158099e+00
  5.401851e+00    3.083380e+00
  5.417727e+00    3.100384e+00
  5.433603e+00    3.099169e+00
  5.449478e+00    3.129061e+00
  5.465354e+00    3.127215e+00
  5.481229e+00    3.082101e+00
  5.497105e+00    3.099188e+00
  5.512980e+00    3.138501e+00
  5.528856e+00    3.098894e+00
  5.544732e+00    3.084615e+00
  5.560607e+00    3.172040e+00
  5.576483e+00    3.227196e+00
  5.592358e+00    3.061984e+00
  5.608234e+00    3.059399e+00
  5.624109e+00    3.113574e+00
  5.639985e+00    3.111866e+00
  5.655861e+00    3.111273e+00
  5.671736e+00    3.073052e+00
  5.687612e+00    3.071769e+00
  5.703487e+00    3.109219e+00
  5.719363e+00    3.047221e+00
  5.735238e+00    3.051084e+00
  5.751114e+00    3.077490e+00
  5.766990e+00    3.091512e+00
  5.782865e+00    3.025406e+00
  5.798741e+00    3.084280e+00
  5.814616e+00    3.124880e+00
  5.830492e+00    3.103619e+00
  5.846367e+00    3.082372e+00
  5.862243e+00    3.122754e+00
  5.878119e+00    3.016649e+00
  5.893994e+00    3.012615e+00
  5.909870e+00    3.050396e+00
  5.925745e+00    3.002666e+00
  5.941621e+00    2.957753e+00
  5.957497e+00    3.052540e+00
  5.973372e+00    3.068234e+00
  5.989248e+00    3.034047e+00
  6.005123e+00    2.951646e+00
  6.020999e+00    2.939215e+00
  6.036874e+00    3.009100e+00
  6.052750e+00    2.987406e+00
  6.068626e+00    3.010310e+00
  6.084501e+00    3.084441e+00
  6.100377e+00    3.095433e+00
  6.116252e+00    3.048022e+00
  6.132128e+00    3.097802e+00
  6.148003e+00    3.046409e+00
  6.163879e+00    3.054855e+00
  6.179755e+00    3.044950e+00
  6.195630e+00    3.072912e+00
  6.211506e+00    3.102747e+00
  6.227381e+00    3.076152e+00
  6.243257e+00    3.088491e+00
  6.259132e+00    3.024072e+00
  6.275008e+00    3.086118e+00
  6.290884e+00    3.042483e+00
  6.306759e+00    3.100410e+00
  6.322635e+00    3.035651e+00
  6.338510e+00    3.031116e+00
  6.354386e+00    2.981556e+00
  6.370261e+00    3.084300e+00
  6.386137e+00    3.101144e+00
  6.402013e+00    3.056257e+00
  6.417888e+00    2.999159e+00
  6.433764e+00    3.035149e+00
  6.449639e+00    3.093148e+00
  6.465515e+00    3.079102e+00
  6.481390e+00    3.060185e+00
  6.497266e+00    3.034628e+00
  6.513142e+00    3.055386e+00
  6.529017e+00    3.049730e+00
  6.544893e+00    3.025765e+00
  6.560768e+00    3.035563e+00
  6.576644e+00    3.099874e+00
  6.592519e+00    3.071520e+00
  6.608395e+00    3.089074e+00
  6.624271e+00    3.058548e+00
  6.640146e+00    3.032078e+00
  6.656022e+00    2.998638e+00
  6.671897e+00    3.019516e+00
  6.687773e+00    3.051538e+00
  6.703648e+00    2.984058e+00
  6.719524e+00    2.949060e+00
  6.735400e+00    3.003531e+00
  6.751275e+00    2.989522e+00
  6.767151e+00    3.041684e+00
  6.783026e+00    3.071034e+00
  6.798902e+00    3.032811e+00
  6.814777e+00    3.033920e+00
  6.830653e+00    3.046232e+00
  6.846529e+00    3.076424e+00
  6.862404e+00    3.047548e+00
  6.878280e+00    2.987795e+00
  6.894155e+00    2.990007e+00
  6.910031e+00    3.019272e+00
  6.925907e+00    3.049047e+00
  6.941782e+00    3.029445e+00
  6.957658e+00    3.056230e+00
  6.973533e+00    3.033860e+00
  6.989409e+00    2.983228e+00
  7.005284e+00    3.052669e+00
  7.021160e+00    3.089601e+00
  7.037036e+00    3.102226e+00
  7.052911e+00    3.052087e+00
  7.068787e+00    3.078818e+00
  7.084662e+00    3.064788e+00
  7.100538e+00    2.970645e+00
  7.116413e+00    3.062018e+00
  7.132289e+00    3.027187e+00
  7.148165e+00    3.027505e+00
  7.164040e+00    3.080757e+00
  7.179916e+00    3.119965e+00
  7.195791e+00    3.022780e+00
  7.211667e+00    3.009753e+00
  7.227542e+00    3.025761e+00
  7.243418e+00    3.026957e+00
  7.259294e+00    3.037699e+00
  7.275169e+00    2.977479e+00
  7.291045e+00    3.008868e+00
  7.306920e+00    3.005512e+00
  7.322796e+00    3.007189e+00
  7.338671e+00    2.991928e+00
  7.354547e+00    3.009598e+00
  7.370423e+00    2.996521e+00
  7.386298e+00    3.000024e+00
  7.402174e+00    3.013456e+00
  7.418049e+00    3.003848e+00
  7.433925e+00    2.975175e+00
  7.449800e+00    2.944298e+00
  7.465676e+00    2.928763e+00
  7.481552e+00    2.970974e+00
  7.497427e+00    2.995183e+00
  7.513303e+00    3.022245e+00
  7.529178e+00    3.051955e+00
  7.545054e+00    3.022871e+00
  7.560929e+00    2.985529e+00
  7.576805e+00    2.967396e+00
  7.592681e+00    3.085440e+00
  7.608556e+00    2.983500e+00
  7.624432e+00    2.909232e+00
  7.640307e+00    2.933651e+00
  7.656183e+00    2.963857e+00
  7.672058e+00    2.973014e+00
  7.687934e+00    2.980642e+00
  7.703810e+00    2.966833e+00
  7.719685e+00    2.946428e+00
  7.735561e+00    2.968889e+00
  7.751436e+00    2.915815e+00
  7.767312e+00    2.944150e+00
  7.783187e+00    2.950714e+00
  7.799063e+00    2.992475e+00
  7.814939e+00    2.999359e+00
  7.830814e+00    2.941004e+00
  7.846690e+00    2.916181e+00
  7.862565e+00    2.962769e+00
  7.878441e+00    2.957961e+00
  7.894317e+00    2.908867e+00
  7.910192e+00    2.914677e+00
  7.926068e+00    2.917115e+00
  7.941943e+00    2.948850e+00
  7.957819e+00    2.947960e+00
  7.973694e+00    2.939220e+00
  7.989570e+00    2.906386e+00
  8.005446e+00    2.989653e+00
  8.021321e+00    2.944419e+00
  8.037197e+00    2.904838e+00
  8.053072e+00    2.982260e+00
  8.068948e+00    2.931637e+00
  8.084823e+00    2.932979e+00
  8.100699e+00    2.970819e+00
  8.116575e+00    2.969609e+00
  8.132450e+00    2.985517e+00
  8.148326e+00    2.991880e+00
  8.164201e+00    3.036211e+00
  8.180077e+00    2.961949e+00
  8.195952e+00    2.961285e+00
  8.211828e+00    2.987317e+00
  8.227704e+00    2.946556e+00
  8.243579e+00    2.990262e+00
  8.259455e+00    2.968731e+00
  8.275330e+00    2.959832e+00
  8.291206e+00    2.973444e+00
  8.307081e+00    2.973561e+00
  8.322957e+00    2.974751e+00
  8.338833e+00    2.943301e+00
  8.354708e+00    2.942006e+00
  8.370584e+00    2.913554e+00
  8.386459e+00    2.925486e+00
  8.402335e+00    2.948514e+00
  8.418210e+00    2.922086e+00
  8.434086e+00    2.872702e+00
  8.449962e+00    2.930816e+00
  8.465837e+00    2.907793e+00
  8.481713e+00    2.892082e+00
  8.497588e+00    2.926708e+00
  8.513464e+00    2.881042e+00
  8.529339e+00    2.885444e+00
  8.545215e+00    2.860309e+00
  8.561091e+00    2.877961e+00
  8.576966e+00    2.857250e+00
  8.592842e+00    2.920492e+00
  8.608717e+00    2.904148e+00
  8.624593e+00    2.911057e+00
  8.640468e+00    2.877064e+00
  8.656344e+00    2.892834e+00
  8.672220e+00    2.891784e+00
  8.688095e+00    2.907082e+00
  8.703971e+00    2.889570e+00
  8.719846e+00    2.832443e+00
  8.735722e+00    2.863484e+00
  8.751598e+00    2.895216e+00
  8.767473e+00    2.941105e+00
  8.783349e+00    2.894100e+00
  8.799224e+00    2.838994e+00
  8.815100e+00    2.835115e+00
  8.830975e+00    2.840473e+00
  8.846851e+00    2.857553e+00
  8.862727e+00    2.887751e+00
  8.878602e+00    2.854729e+00
  8.894478e+00    2.889130e+00
  8.910353e+00    2.864676e+00
  8.926229e+00    2.783551e+00
  8.942104e+00    2.853244e+00
  8.957980e+00    2.843227e+00
  8.973856e+00    2.810281e+00
  8.989731e+00    2.881548e+00
  9.005607e+00    2.784158e+00
  9.021482e+00    2.763635e+00
  9.037358e+00    2.831708e+00
  9.053233e+00    2.841645e+00
  9.069109e+00    2.835367e+00
  9.084985e+00    2.873925e+00
  9.100860e+00    2.812660e+00
  9.116736e+00    2.829523e+00
  9.132611e+00    2.812321e+00
  9.148487e+00    2.800044e+00
  9.164362e+00    2.764889e+00
  9.180238e+00    2.721138e+00
  9.196114e+00    2.755686e+00
  9.211989e+00    2.828968e+00
  9.227865e+00    2.791948e+00
  9.243740e+00    2.760833e+00
  9.259616e+00    2.758781e+00
  9.275491e+00    2.793450e+00
  9.291367e+00    2.804303e+00
  9.307243e+00    2.758452e+00
  9.323118e+00    2.769881e+00
  9.338994e+00    2.777399e+00
  9.354869e+00    2.783624e+00
  9.370745e+00    2.776626e+00
  9.386620e+00    2.736645e+00
  9.402496e+00    2.751634e+00
  9.418372e+00    2.748099e+00
  9.434247e+00    2.698862e+00
  9.450123e+00    2.760503e+00
  9.465998e+00    2.780097e+00
  9.481874e+00    2.792115e+00
  9.497749e+00    2.815075e+00
  9.513625e+00    2.818167e+00
  9.529501e+00    2.747659e+00
  9.545376e+00    2.737317e+00
  9.561252e+00    2.795901e+00
  9.577127e+00    2.778727e+00
  9.593003e+00    2.801991e+00
  9.608878e+00    2.854729e+00
  9.624754e+00    2.786202e+00
  9.640630e+00    2.779947e+00
  9.656505e+00    2.737909e+00
  9.672381e+00    2.752846e+00
  9.688256e+00    2.731194e+00
  9.704132e+00    2.742785e+00
  9.720008e+00    2.742465e+00
  9.735883e+00    2.740976e+00
  9.751759e+00    2.710525e+00
  9.767634e+00    2.703841e+00
  9.783510e+00    2.688078e+00
  9.799385e+00    2.731485e+00
  9.815261e+00    2.758137e+00
  9.831137e+00    2.751534e+00
  9.847012e+00    2.755303e+00
  9.862888e+00    2.765239e+00
  9.878763e+00    2.742306e+00
  9.894639e+00    2.758196e+00
  9.910514e+00    2.696110e+00
  9.926390e+00    2.689714e+00
  9.942266e+00    2.700191e+00
  9.958141e+00    2.674201e+00
  9.974017e+00    2.696682e+00
  9.989892e+00    2.688410e+00
  1.000577e+01    2.632500e+00
  1.002164e+01    2.719132e+00
  1.003752e+01    2.697862e+00
  1.005339e+01    2.660323e+00
  1.006927e+01    2.676640e+00
  1.008515e+01    2.678819e+00
  1.010102e+01    2.652382e+00
  1.011690e+01    2.675487e+00
  1.013277e+01    2.619899e+00
  1.014865e+01    2.663265e+00
  1.016452e+01    2.667922e+00
  1.018040e+01    2.626829e+00
  1.019627e+01    2.676532e+00
  1.021215e+01    2.675805e+00
  1.022803e+01    2.694589e+00
  1.024390e+01    2.634814e+00
  1.025978e+01    2.662820e+00
  1.027565e+01    2.626275e+00
  1.029153e+01    2.605060e+00
  1.030740e+01    2.590107e+00
  1.032328e+01    2.593614e+00
  1.033915e+01    2.630053e+00
  1.035503e+01    2.643034e+00
  1.037091e+01    2.627932e+00
  1.038678e+01    2.603885e+00
  1.040266e+01    2.595326e+00
  1.041853e+01    2.625250e+00
  1.043441e+01    2.634540e+00
  1.045028e+01    2.689904e+00
  1.046616e+01    2.661013e+00
  1.048204e+01    2.622113e+00
  1.049791e+01    2.626826e+00
  1.051379e+01    2.614223e+00
  1.052966e+01    2.579476e+00
  1.054554e+01    2.576910e+00
  1.056141e+01    2.557909e+00
  1.057729e+01    2.609078e+00
  1.059316e+01    2.586730e+00
  1.060904e+01    2.611926e+00
  1.062492e+01    2.598704e+00
  1.064079e+01    2.639125e+00
  1.065667e+01    2.619209e+00
  1.067254e+01    2.571295e+00
  1.068842e+01    2.546582e+00
  1.070429e+01    2.565497e+00
  1.072017e+01    2.595251e+00
  1.073604e+01    2.597966e+00
  1.075192e+01    2.548440e+00
  1.076780e+01    2.536206e+00
  1.078367e+01    2.519109e+00
  1.079955e+01    2.512668e+00
  1.081542e+01    2.564848e+00
  1.083130e+01    2.517611e+00
  1.084717e+01    2.522103e+00
  1.086305e+01    2.501030e+00
  1.087892e+01    2.512379e+00
  1.089480e+01    2.519529e+00
  1.091068e+01    2.513746e+00
  1.092655e+01    2.523750e+00
  1.094243e+01    2.511388e+00
  1.095830e+01    2.498398e+00
  1.097418e+01    2.549479e+00
  1.099005e+01    2.526496e+00
  1.100593e+01    2.512167e+00
  1.102180e+01    2.521880e+00
  1.103768e+01    2.517382e+00
  1.105356e+01    2.510158e+00
  1.106943e+01    2.551786e+00
  1.108531e+01    2.551039e+00
  1.110118e+01    2.486666e+00
  1.111706e+01    2.483011e+00
  1.113293e+01    2.491310e+00
  1.114881e+01    2.493983e+00
  1.116468e+01    2.460732e+00
  1.118056e+01    2.446427e+00
  1.119644e+01    2.480353e+00
  1.121231e+01    2.463690e+00
  1.122819e+01    2.428413e+00
  1.124406e+01    2.456378e+00
  1.125994e+01    2.497145e+00
  1.127581e+01    2.520154e+00
  1.129169e+01    2.487957e+00
  1.130756e+01    2.480529e+00
  1.132344e+01    2.442391e+00
  1.133932e+01    2.470577e+00
  1.135519e+01    2.478667e+00
  1.137107e+01    2.452066e+00
  1.138694e+01    2.467049e+00
  1.140282e+01    2.446264e+00
  1.141869e+01    2.423326e+00
  1.143457e+01    2.468106e+00
  1.145045e+01    2.426889e+00
  1.146632e+01    2.430918e+00
  1.148220e+01    2.438354e+00
  1.149807e+01    2.425025e+00
  1.151395e+01    2.454626e+00
  1.152982e+01    2.416105e+00
  1.154570e+01    2.401224e+00
  1.156157e+01    2.425720e+00
  1.157745e+01    2.423012e+00
  1.159333e+01    2.396833e+00
  1.160920e+01    2.396325e+00
  1.162508e+01    2.384442e+00
  1.164095e+01    2.354035e+00
  1.165683e+01    2.357935e+00
  1.167270e+01    2.382684e+00
  1.168858e+01    2.396768e+00
  1.170445e+01    2.403668e+00
  1.172033e+01    2.449450e+00
  1.173621e+01    2.410861e+00
  1.175208e+01    2.407550e+00
  1.176796e+01    2.369564e+00
  1.178383e+01    2.333688e+00
  1.179971e+01    2.348457e+00
  1.181558e+01    2.382052e+00
  1.183146e+01    2.385590e+00
  1.184733e+01    2.385242e+00
  1.186321e+01    2.360805e+00
  1.187909e+01    2.338843e+00
  1.189496e+01    2.311080e+00
  1.191084e+01    2.387940e+00
  1.192671e+01    2.403284e+00
  1.194259e+01    2.352523e+00
  1.195846e+01    2.339353e+00
  1.197434e+01    2.320965e+00
  1.199021e+01    2.344660e+00
  1.200609e+01    2.344044e+00
  1.202197e+01    2.383034e+00
  1.203784e+01    2.332425e+00
  1.205372e+01    2.360596e+00
  1.206959e+01    2.370544e+00
  1.208547e+01    2.359123e+00
  1.210134e+01    2.328403e+00
  1.211722e+01    2.372093e+00
  1.213309e+01    2.356082e+00
  1.214897e+01    2.336056e+00
  1.216485e+01    2.364427e+00
  1.218072e+01    2.399074e+00
  1.219660e+01    2.379323e+00
  1.221247e+01    2.334303e+00
  1.222835e+01    2.328339e+00
  1.224422e+01    2.348216e+00
  1.226010e+01    2.376132e+00
  1.227597e+01    2.359529e+00
  1.229185e+01    2.319593e+00
  1.230773e+01    2.411557e+00
  1.232360e+01    2.383294e+00
  1.233948e+01    2.352617e+00
  1.235535e+01    2.350374e+00
  1.237123e+01    2.398538e+00
  1.238710e+01    2.345816e+00
  1.240298e+01    2.345897e+00
  1.241886e+01    2.339152e+00
  1.243473e+01    2.340020e+00
  1.245061e+01    2.398427e+00
  1.246648e+01    2.403022e+00
  1.248236e+01    2.373287e+00
  1.249823e+01    2.381580e+00
  1.251411e+01    2.404685e+00
  1.252998e+01    2.395662e+00
  1.254586e+01    2.391201e+00
  1.256174e+01    2.386134e+00
  1.257761e+01    2.369304e+00
  1.259349e+01    2.385074e+00
  1.260936e+01    2.430783e+00
  1.262524e+01    2.436543e+00
  1.264111e+01    2.496827e+00
  1.265699e+01    2.490449e+00
  1.267286e+01    2.429440e+00
  1.268874e+01    2.495802e+00
  1.270462e+01    2.509054e+00
  1.272049e+01    2.538500e+00
  1.273637e+01    2.579848e+00
  1.275224e+01    2.563327e+00
  1.276812e+01    2.627491e+00
  1.278399e+01    2.654475e+00
  1.279987e+01    2.660215e+00
  1.281574e+01    2.753500e+00
  1.283162e+01    2.785328e+00
  1.284750e+01    2.868920e+00
  1.286337e+01    2.943281e+00
  1.287925e+01    3.080738e+00
  1.289512e+01    3.164572e+00
  1.291100e+01    3.270378e+00
  1.292687e+01    3.479655e+00
  1.294275e+01    3.660580e+00
  1.295862e+01    3.995833e+00
  1.297450e+01    4.377053e+00
  1.299038e+01    4.748554e+00
  1.300625e+01    5.267489e+00
  1.302213e+01    5.934960e+00
  1.303800e+01    6.728785e+00
  1.305388e+01    7.837072e+00
  1.306975e+01    9.063506e+00
  1.308563e+01    1.056199e+01
  1.310150e+01    1.216531e+01
  1.311738e+01    1.363225e+01
  1.313326e+01    1.498884e+01
  1.314913e+01    1.651245e+01
  1.316501e+01    1.797038e+01
  1.318088e+01    1.907338e+01
  1.319676e+01    1.952041e+01
  1.321263e+01    1.907828e+01
  1.322851e+01    1.776212e+01
  1.324438e+01    1.569265e+01
  1.326026e+01    1.331350e+01
  1.327614e+01    1.110118e+01
  1.329201e+01    9.296617e+00
  1.330789e+01    7.788823e+00
  1.332376e+01    6.784618e+00
  1.333964e+01    6.027343e+00
  1.335551e+01    5.362629e+00
  1.337139e+01    4.710583e+00
  1.338727e+01    4.304531e+00
  1.340314e+01    3.992653e+00
  1.341902e+01    3.705538e+00
  1.343489e+01    3.500014e+00
  1.345077e+01    3.279664e+00
  1.346664e+01    3.077459e+00
  1.348252e+01    2.999388e+00
  1.349839e+01    2.907045e+00
  1.351427e+01    2.845883e+00
  1.353015e+01    2.719093e+00
  1.354602e+01    2.669411e+00
  1.356190e+01    2.635640e+00
  1.357777e+01    2.580015e+00
  1.359365e+01    2.526688e+00
  1.360952e+01    2.496033e+00
  1.362540e+01    2.437613e+00
  1.364127e+01    2.383938e+00
  1.365715e+01    2.338376e+00
  1.367303e+01    2.342452e+00
  1.368890e+01    2.316483e+00
  1.370478e+01    2.292734e+00
  1.372065e+01    2.287886e+00
  1.373653e+01    2.255761e+00
  1.375240e+01    2.267897e+00
  1.376828e+01    2.245120e+00
  1.378415e+01    2.230555e+00
  1.380003e+01    2.217695e+00
  1.381591e+01    2.167690e+00
  1.383178e+01    2.152496e+00
  1.384766e+01    2.183361e+00
  1.386353e+01    2.168778e+00
  1.387941e+01    2.156727e+00
  1.389528e+01    2.114722e+00
  1.391116e+01    2.086764e+00
  1.392703e+01    2.129586e+00
  1.394291e+01    2.114260e+00
  1.395879e+01    2.123298e+00
  1.397466e+01    2.104930e+00
  1.399054e+01    2.062266e+00
  1.400641e+01    2.048693e+00
  1.402229e+01    2.064502e+00
  1.403816e+01    2.095383e+00
  1.405404e+01    2.033724e+00
  1.406991e+01    2.024233e+00
  1.408579e+01    2.047019e+00
  1.410167e+01    2.029201e+00
  1.411754e+01    1.960463e+00
  1.413342e+01    1.992539e+00
  1.414929e+01    2.054644e+00
  1.416517e+01    2.021723e+00
  1.418104e+01    2.016611e+00
  1.419692e+01    2.031229e+00
  1.421279e+01    2.024271e+00
  1.422867e+01    1.999668e+00
  1.424455e+01    1.951668e+00
  1.426042e+01    1.967746e+00
  1.427630e+01    2.006127e+00
  1.429217e+01    2.006512e+00
  1.430805e+01    1.988298e+00
  1.432392e+01    1.996071e+00
  1.433980e+01    1.967919e+00
  1.435568e+01    1.993351e+00
  1.437155e+01    1.998751e+00
  1.438743e+01    2.003525e+00
  1.440330e+01    1.946437e+00
  1.441918e+01    1.962915e+00
  1.443505e+01    1.962247e+00
  1.445093e+01    1.976220e+00
  1.446680e+01    1.975698e+00
  1.448268e+01    1.941178e+00
  1.449856e+01    1.924401e+00
  1.451443e+01    1.947644e+00
  1.453031e+01    1.929865e+00
  1.454618e+01    1.912492e+00
  1.456206e+01    1.907906e+00
  1.457793e+01    1.942458e+00
  1.459381e+01    1.934551e+00
  1.460968e+01    1.950759e+00
  1.462556e+01    1.952142e+00
  1.464144e+01    1.945703e+00
  1.465731e+01    1.924650e+00
  1.467319e+01    1.921406e+00
  1.468906e+01    1.944391e+00
  1.470494e+01    1.962163e+00
  1.472081e+01    1.925322e+00
  1.473669e+01    1.942883e+00
  1.475256e+01    1.965401e+00
  1.476844e+01    1.947732e+00
  1.478432e+01    1.952411e+00
  1.480019e+01    1.914060e+00
  1.481607e+01    1.939727e+00
  1.483194e+01    1.962316e+00
  1.484782e+01    1.948341e+00
  1.486369e+01    1.990285e+00
  1.487957e+01    1.935089e+00
  1.489544e+01    1.943625e+00
  1.491132e+01    1.980448e+00
  1.492720e+01    1.981294e+00
  1.494307e+01    1.992487e+00
  1.495895e+01    2.027527e+00
  1.497482e+01    2.070912e+00
  1.499070e+01    2.077326e+00
  1.500657e+01    2.179949e+00
  1.502245e+01    2.244604e+00
  1.503832e+01    2.255080e+00
  1.505420e+01    2.361387e+00
  1.507008e+01    2.498520e+00
  1.508595e+01    2.624313e+00
  1.510183e+01    2.803473e+00
  1.511770e+01    3.050817e+00
  1.513358e+01    3.318543e+00
  1.514945e+01    3.675138e+00
  1.516533e+01    4.028802e+00
  1.518120e+01    4.366365e+00
  1.519708e+01    4.823095e+00
  1.521296e+01    5.315229e+00
  1.522883e+01    5.754748e+00
  1.524471e+01    6.010832e+00
  1.526058e+01    6.279557e+00
  1.527646e+01    6.449673e+00
  1.529233e+01    6.544744e+00
  1.530821e+01    6.366720e+00
  1.532409e+01    6.008042e+00
  1.533996e+01    5.480051e+00
  1.535584e+01    4.858358e+00
  1.537171e+01    4.238341e+00
  1.538759e+01    3.752311e+00
  1.540346e+01    3.399450e+00
  1.541934e+01    3.091300e+00
  1.543521e+01    2.847265e+00
  1.545109e+01    2.639335e+00
  1.546697e+01    2.475260e+00
  1.548284e+01    2.345010e+00
  1.549872e+01    2.246768e+00
  1.551459e+01    2.175719e+00
  1.553047e+01    2.113893e+00
  1.554634e+01    2.048084e+00
  1.556222e+01    2.021015e+00
  1.557809e+01    1.980795e+00
  1.559397e+01    1.932403e+00
  1.560985e+01    1.887830e+00
  1.562572e+01    1.916096e+00
  1.564160e+01    1.876450e+00
  1.565747e+01    1.838174e+00
  1.567335e+01    1.780328e+00
  1.568922e+01    1.767060e+00
  1.570510e+01    1.792581e+00
  1.572097e+01    1.765626e+00
  1.573685e+01    1.743885e+00
  1.575273e+01    1.751168e+00
  1.576860e+01    1.776844e+00
  1.578448e+01    1.736575e+00
  1.580035e+01    1.767463e+00
  1.581623e+01    1.713474e+00
  1.583210e+01    1.694131e+00
  1.584798e+01    1.686584e+00
  1.586385e+01    1.674010e+00
  1.587973e+01    1.643666e+00
  1.589561e+01    1.668929e+00
  1.591148e+01    1.657550e+00
  1.592736e+01    1.623917e+00
  1.594323e+01    1.664149e+00
  1.595911e+01    1.646542e+00
  1.597498e+01    1.616041e+00
  1.599086e+01    1.637538e+00
  1.600673e+01    1.638764e+00
  1.602261e+01    1.660496e+00
  1.603849e+01    1.626521e+00
  1.605436e+01    1.608407e+00
  1.607024e+01    1.636399e+00
  1.608611e+01    1.639496e+00
  1.610199e+01    1.611943e+00
  1.611786e+01    1.612370e+00
  1.613374e+01    1.623531e+00
  1.614961e+01    1.594310e+00
  1.616549e+01    1.606531e+00
  1.618137e+01    1.589905e+00
  1.619724e+01    1.605913e+00
  1.621312e+01    1.587144e+00
  1.622899e+01    1.589697e+00
  1.624487e+01    1.570839e+00
  1.626074e+01    1.584238e+00
  1.627662e+01    1.583789e+00
  1.629250e+01    1.574498e+00
  1.630837e+01    1.561302e+00
  1.632425e+01    1.569802e+00
  1.634012e+01    1.570881e+00
  1.635600e+01    1.551777e+00
  1.637187e+01    1.524965e+00
  1.638775e+01    1.516890e+00
  1.640362e+01    1.531038e+00
  1.641950e+01    1.509145e+00
  1.643538e+01    1.554593e+00
  1.645125e+01    1.530405e+00
  1.646713e+01    1.538146e+00
  1.648300e+01    1.546216e+00
  1.649888e+01    1.518826e+00
  1.651475e+01    1.520709e+00
  1.653063e+01    1.523468e+00
  1.654650e+01    1.485096e+00
  1.656238e+01    1.504733e+00
  1.657826e+01    1.489841e+00
  1.659413e+01    1.502271e+00
  1.661001e+01    1.500150e+00
  1.662588e+01    1.508741e+00
  1.664176e+01    1.523590e+00
  1.665763e+01    1.489143e+00
  1.667351e+01    1.491588e+00
  1.668938e+01    1.485865e+00
  1.670526e+01    1.487681e+00
  1.672114e+01    1.475079e+00
  1.673701e+01    1.474023e+00
  1.675289e+01    1.460947e+00
  1.676876e+01    1.489061e+00
  1.678464e+01    1.489808e+00
  1.680051e+01    1.484915e+00
  1.681639e+01    1.470298e+00
  1.683226e+01    1.461562e+00
  1.684814e+01    1.467726e+00
  1.686402e+01    1.491156e+00
  1.687989e+01    1.474287e+00
  1.689577e+01    1.462420e+00
  1.691164e+01    1.442999e+00
  1.692752e+01    1.437119e+00
  1.694339e+01    1.483071e+00
  1.695927e+01    1.487272e+00
  1.697514e+01    1.464364e+00
  1.699102e+01    1.469989e+00
  1.700690e+01    1.452796e+00
  1.702277e+01    1.464332e+00
  1.703865e+01    1.469549e+00
  1.705452e+01    1.447696e+00
  1.707040e+01    1.453318e+00
  1.708627e+01    1.441004e+00
  1.710215e+01    1.457669e+00
  1.711802e+01    1.450662e+00
  1.713390e+01    1.428377e+00
  1.714978e+01    1.418653e+00
  1.716565e+01    1.413411e+00
  1.718153e+01    1.406780e+00
  1.719740e+01    1.403363e+00
  1.721328e+01    1.433668e+00
  1.722915e+01    1.437652e+00
  1.724503e+01    1.423453e+00
  1.726091e+01    1.408667e+00
  1.727678e+01    1.401508e+00
  1.729266e+01    1.436477e+00
  1.730853e+01    1.415106e+00
  1.732441e+01    1.401656e+00
  1.734028e+01    1.403918e+00
  1.735616e+01    1.404000e+00
  1.737203e+01    1.409156e+00
  1.738791e+01    1.387692e+00
  1.740379e+01    1.385640e+00
  1.741966e+01    1.402530e+00
  1.743554e+01    1.391764e+00
  1.745141e+01    1.392950e+00
  1.746729e+01    1.405089e+00
  1.748316e+01    1.408016e+00
  1.749904e+01    1.395367e+00
  1.751491e+01    1.374978e+00
  1.753079e+01    1.362556e+00
  1.754667e+01    1.329316e+00
  1.756254e+01    1.352227e+00
  1.757842e+01    1.387871e+00
  1.759429e+01    1.380153e+00
  1.761017e+01    1.357187e+00
  1.762604e+01    1.355313e+00
  1.764192e+01    1.364511e+00
  1.765779e+01    1.358254e+00
  1.767367e+01    1.367700e+00
  1.768955e+01    1.372109e+00
  1.770542e+01    1.369289e+00
  1.772130e+01    1.365075e+00
  1.773717e+01    1.334058e+00
  1.775305e+01    1.311459e+00
  1.776892e+01    1.349827e+00
  1.778480e+01    1.364246e+00
  1.780067e+01    1.340001e+00
  1.781655e+01    1.328671e+00
  1.783243e+01    1.346534e+00
  1.784830e+01    1.345764e+00
  1.786418e+01    1.328135e+00
  1.788005e+01    1.334912e+00
  1.789593e+01    1.339803e+00
  1.791180e+01    1.323063e+00
  1.792768e+01    1.304032e+00
  1.794355e+01    1.309447e+00
  1.795943e+01    1.345655e+00
  1.797531e+01    1.352777e+00
  1.799118e+01    1.332341e+00
  1.800706e+01    1.327361e+00
  1.802293e+01    1.330688e+00
  1.803881e+01    1.304011e+00
  1.805468e+01    1.306180e+00
  1.807056e+01    1.283923e+00
  1.808643e+01    1.282061e+00
  1.810231e+01    1.314211e+00
  1.811819e+01    1.302505e+00
  1.813406e+01    1.284968e+00
  1.814994e+01    1.307283e+00
  1.816581e+01    1.290006e+00
  1.818169e+01    1.279505e+00
  1.819756e+01    1.287643e+00
  1.821344e+01    1.277131e+00
  1.822932e+01    1.293833e+00
  1.824519e+01    1.293867e+00
  1.826107e+01    1.280782e+00
  1.827694e+01    1.279106e+00
  1.829282e+01    1.292168e+00
  1.830869e+01    1.272526e+00
  1.832457e+01    1.272575e+00
  1.834044e+01    1.265906e+00
  1.835632e+01    1.277092e+00
  1.837220e+01    1.266159e+00
  1.838807e+01    1.264875e+00
  1.840395e+01    1.270313e+00
  1.841982e+01    1.277890e+00
  1.843570e+01    1.272158e+00
  1.845157e+01    1.269572e+00
  1.846745e+01    1.263870e+00
  1.848332e+01    1.275787e+00
  1.849920e+01    1.255667e+00
  1.851508e+01    1.232092e+00
  1.853095e+01    1.281027e+00
  1.854683e+01    1.296581e+00
  1.856270e+01    1.279210e+00
  1.857858e+01    1.261326e+00
  1.859445e+01    1.274814e+00
  1.861033e+01    1.234598e+00
  1.862620e+01    1.233348e+00
  1.864208e+01    1.262361e+00
  1.865796e+01    1.229283e+00
  1.867383e+01    1.228020e+00
  1.868971e+01    1.271812e+00
  1.870558e+01    1.265694e+00
  1.872146e+01    1.256582e+00
  1.873733e+01    1.239567e+00
  1.875321e+01    1.237570e+00
  1.876908e+01    1.236265e+00
  1.878496e+01    1.222545e+00
  1.880084e+01    1.237823e+00
  1.881671e+01    1.214383e+00
  1.883259e+01    1.196403e+00
  1.884846e+01    1.229185e+00
  1.886434e+01    1.243758e+00
  1.888021e+01    1.236780e+00
  1.889609e+01    1.243295e+00
  1.891196e+01    1.232226e+00
  1.892784e+01    1.213121e+00
  1.894372e+01    1.205772e+00
  1.895959e+01    1.228566e+00
  1.897547e+01    1.215084e+00
  1.899134e+01    1.224304e+00
  1.900722e+01    1.213663e+00
  1.902309e+01    1.180530e+00
  1.903897e+01    1.213246e+00
  1.905484e+01    1.226074e+00
  1.907072e+01    1.222161e+00
  1.908660e+01    1.196629e+00
  1.910247e+01    1.205315e+00
  1.911835e+01    1.216393e+00
  1.913422e+01    1.203890e+00
  1.915010e+01    1.201755e+00
  1.916597e+01    1.192311e+00
  1.918185e+01    1.187711e+00
  1.919773e+01    1.195403e+00
  1.921360e+01    1.209602e+00
  1.922948e+01    1.207773e+00
  1.924535e+01    1.193482e+00
  1.926123e+01    1.209948e+00
  1.927710e+01    1.196844e+00
  1.929298e+01    1.167368e+00
  1.930885e+01    1.168276e+00
  1.932473e+01    1.171797e+00
  1.934061e+01    1.197285e+00
  1.935648e+01    1.211776e+00
  1.937236e+01    1.185071e+00
  1.938823e+01    1.185227e+00
  1.940411e+01    1.189950e+00
  1.941998e+01    1.196170e+00
  1.943586e+01    1.176882e+00
  1.945173e+01    1.176145e+00
  1.946761e+01    1.189589e+00
  1.948349e+01    1.194719e+00
  1.949936e+01    1.185294e+00
  1.951524e+01    1.162248e+00
  1.953111e+01    1.178362e+00
  1.954699e+01    1.182988e+00
  1.956286e+01    1.194340e+00
  1.957874e+01    1.171736e+00
  1.959461e+01    1.183914e+00
  1.961049e+01    1.174349e+00
  1.962637e+01    1.166805e+00
  1.964224e+01    1.178930e+00
  1.965812e+01    1.138554e+00
  1.967399e+01    1.118266e+00
  1.968987e+01    1.155344e+00
  1.970574e+01    1.175201e+00
  1.972162e+01    1.165956e+00
  1.973749e+01    1.146471e+00
  1.975337e+01    1.144731e+00
  1.976925e+01    1.157056e+00
  1.978512e+01    1.165140e+00
  1.980100e+01    1.172695e+00
  1.981687e+01    1.157665e+00
  1.983275e+01    1.163948e+00
  1.984862e+01    1.145491e+00
  1.986450e+01    1.162089e+00
  1.988037e+01    1.166296e+00
  1.989625e+01    1.130844e+00
  1.991213e+01    1.162327e+00
  1.992800e+01    1.144199e+00
  1.994388e+01    1.144748e+00
  1.995975e+01    1.148481e+00
  1.997563e+01    1.138834e+00
  1.999150e+01    1.135704e+00
  2.000738e+01    1.128832e+00
  2.002325e+01    1.128753e+00
  2.003913e+01    1.156104e+00
  2.005501e+01    1.143262e+00
  2.007088e+01    1.149960e+00
  2.008676e+01    1.137770e+00
  2.010263e+01    1.111882e+00
  2.011851e+01    1.110001e+00
  2.013438e+01    1.100432e+00
  2.015026e+01    1.126275e+00
  2.016614e+01    1.111926e+00
  2.018201e+01    1.121783e+00
  2.019789e+01    1.128093e+00
  2.021376e+01    1.123152e+00
  2.022964e+01    1.099411e+00
  2.024551e+01    1.110370e+00
  2.026139e+01    1.130991e+00
  2.027726e+01    1.108067e+00
  2.029314e+01    1.117807e+00
  2.030902e+01    1.105556e+00
  2.032489e+01    1.103818e+00
  2.034077e+01    1.098464e+00
  2.035664e+01    1.100128e+00
  2.037252e+01    1.114102e+00
  2.038839e+01    1.114645e+00
  2.040427e+01    1.109715e+00
  2.042014e+01    1.088998e+00
  2.043602e+01    1.095146e+00
  2.045190e+01    1.112006e+00
  2.046777e+01    1.102581e+00
  2.048365e+01    1.109372e+00
  2.049952e+01    1.111514e+00
  2.051540e+01    1.134529e+00
  2.053127e+01    1.108618e+00
  2.054715e+01    1.093425e+00
  2.056302e+01    1.078894e+00
  2.057890e+01    1.101958e+00
  2.059478e+01    1.100243e+00
  2.061065e+01    1.092984e+00
  2.062653e+01    1.102197e+00
  2.064240e+01    1.106052e+00
  2.065828e+01    1.088657e+00
  2.067415e+01    1.088750e+00
  2.069003e+01    1.093464e+00
  2.070590e+01    1.104639e+00
  2.072178e+01    1.100779e+00
  2.073766e+01    1.093271e+00
  2.075353e+01    1.104988e+00
  2.076941e+01    1.120099e+00
  2.078528e+01    1.098026e+00
  2.080116e+01    1.077974e+00
  2.081703e+01    1.071898e+00
  2.083291e+01    1.092710e+00
  2.084878e+01    1.090274e+00
  2.086466e+01    1.101863e+00
  2.088054e+01    1.099607e+00
  2.089641e+01    1.097608e+00
  2.091229e+01    1.092949e+00
  2.092816e+01    1.092246e+00
  2.094404e+01    1.087400e+00
  2.095991e+01    1.091173e+00
  2.097579e+01    1.106670e+00
  2.099166e+01    1.095537e+00
  2.100754e+01    1.104928e+00
  2.102342e+01    1.121204e+00
  2.103929e+01    1.092440e+00
  2.105517e+01    1.091369e+00
  2.107104e+01    1.097495e+00
  2.108692e+01    1.104111e+00
  2.110279e+01    1.081302e+00
  2.111867e+01    1.087145e+00
  2.113455e+01    1.111297e+00
  2.115042e+01    1.101883e+00
  2.116630e+01    1.084874e+00
  2.118217e+01    1.104645e+00
  2.119805e+01    1.129752e+00
  2.121392e+01    1.133833e+00
  2.122980e+01    1.107421e+00
  2.124567e+01    1.122267e+00
  2.126155e+01    1.133109e+00
  2.127743e+01    1.142432e+00
  2.129330e+01    1.137457e+00
  2.130918e+01    1.132183e+00
  2.132505e+01    1.145539e+00
  2.134093e+01    1.142890e+00
  2.135680e+01    1.154937e+00
  2.137268e+01    1.164582e+00
  2.138855e+01    1.159295e+00
  2.140443e+01    1.154651e+00
  2.142031e+01    1.181332e+00
  2.143618e+01    1.213635e+00
  2.145206e+01    1.238687e+00
  2.146793e+01    1.247360e+00
  2.148381e+01    1.274932e+00
  2.149968e+01    1.301068e+00
  2.151556e+01    1.308440e+00
  2.153143e+01    1.322280e+00
  2.154731e+01    1.386278e+00
  2.156319e+01    1.405993e+00
  2.157906e+01    1.442169e+00
  2.159494e+01    1.522407e+00
  2.161081e+01    1.555137e+00
  2.162669e+01    1.618331e+00
  2.164256e+01    1.721138e+00
  2.165844e+01    1.855944e+00
  2.167431e+01    1.986968e+00
  2.169019e+01    2.138172e+00
  2.170607e+01    2.368505e+00
  2.172194e+01    2.581749e+00
  2.173782e+01    2.907804e+00
  2.175369e+01    3.282055e+00
  2.176957e+01    3.744490e+00
  2.178544e+01    4.276638e+00
  2.180132e+01    4.945055e+00
  2.181719e+01    5.683131e+00
  2.183307e+01    6.507351e+00
  2.184895e+01    7.379148e+00
  2.186482e+01    8.189318e+00
  2.188070e+01    9.062482e+00
  2.189657e+01    9.839399e+00
  2.191245e+01    1.053259e+01
  2.192832e+01    1.082705e+01
  2.194420e+01    1.066801e+01
  2.196007e+01    1.006592e+01
  2.197595e+01    9.158659e+00
  2.199183e+01    8.001758e+00
  2.200770e+01    6.783264e+00
  2.202358e+01    5.750669e+00
  2.203945e+01    4.842505e+00
  2.205533e+01    4.138559e+00
  2.207120e+01    3.536802e+00
  2.208708e+01    3.084452e+00
  2.210296e+01    2.770046e+00
  2.211883e+01    2.494317e+00
  2.213471e+01    2.250627e+00
  2.215058e+01    2.060560e+00
  2.216646e+01    1.909541e+00
  2.218233e+01    1.794269e+00
  2.219821e+01    1.675487e+00
  2.221408e+01    1.607631e+00
  2.222996e+01    1.534037e+00
  2.224584e+01    1.447386e+00
  2.226171e+01    1.385407e+00
  2.227759e+01    1.368670e+00
  2.229346e+01    1.310809e+00
  2.230934e+01    1.273049e+00
  2.232521e+01    1.267852e+00
  2.234109e+01    1.231869e+00
  2.235696e+01    1.198445e+00
  2.237284e+01    1.172213e+00
  2.238872e+01    1.167767e+00
  2.240459e+01    1.155453e+00
  2.242047e+01    1.146866e+00
  2.243634e+01    1.107189e+00
  2.245222e+01    1.079948e+00
  2.246809e+01    1.092914e+00
  2.248397e+01    1.087068e+00
  2.249984e+01    1.075284e+00
  2.251572e+01    1.048338e+00
  2.253160e+01    1.042674e+00
  2.254747e+01    1.049958e+00
  2.256335e+01    1.042329e+00
  2.257922e+01    1.039485e+00
  2.259510e+01    1.038615e+00
  2.261097e+01    1.039738e+00
  2.262685e+01    1.021616e+00
  2.264272e+01    9.928362e-01
  2.265860e+01    9.925898e-01
  2.267448e+01    1.003985e+00
  2.269035e+01    9.713950e-01
  2.270623e+01    9.479115e-01
  2.272210e+01    9.566678e-01
  2.273798e+01    9.658727e-01
  2.275385e+01    9.723763e-01
  2.276973e+01    9.443008e-01
  2.278560e+01    9.368554e-01
  2.280148e+01    9.582472e-01
  2.281736e+01    9.576475e-01
  2.283323e+01    9.520123e-01
  2.284911e+01    9.518364e-01
  2.286498e+01    9.627739e-01
  2.288086e+01    9.626917e-01
  2.289673e+01    9.363698e-01
  2.291261e+01    9.344978e-01
  2.292848e+01    9.109653e-01
  2.294436e+01    9.193249e-01
  2.296024e+01    9.335111e-01
  2.297611e+01    9.113240e-01
  2.299199e+01    8.982669e-01
  2.300786e+01    9.277095e-01
  2.302374e+01    9.208008e-01
  2.303961e+01    9.063208e-01
  2.305549e+01    9.101598e-01
  2.307137e+01    9.052618e-01
  2.308724e+01    9.320560e-01
  2.310312e+01    9.010373e-01
  2.311899e+01    8.943180e-01
  2.313487e+01    9.000117e-01
  2.315074e+01    9.003807e-01
  2.316662e+01    8.860418e-01
  2.318249e+01    8.908015e-01
  2.319837e+01    9.026573e-01
  2.321425e+01    9.000553e-01
  2.323012e+01    9.035079e-01
  2.324600e+01    8.879229e-01
  2.326187e+01    8.930415e-01
  2.327775e+01    9.065022e-01
  2.329362e+01    8.764528e-01
  2.330950e+01    8.792686e-01
  2.332537e+01    8.582630e-01
  2.334125e+01    8.681037e-01
  2.335713e+01    8.948707e-01
  2.337300e+01    8.667549e-01
  2.338888e+01    8.597079e-01
  2.340475e+01    8.779960e-01
  2.342063e+01    8.626883e-01
  2.343650e+01    8.597606e-01
  2.345238e+01    8.808221e-01
  2.346825e+01    8.742268e-01
  2.348413e+01    8.628065e-01
  2.350001e+01    8.676513e-01
  2.351588e+01    8.616534e-01
  2.353176e+01    8.483282e-01
  2.354763e+01    8.515123e-01
  2.356351e+01    8.565573e-01
  2.357938e+01    8.593920e-01
  2.359526e+01    8.589310e-01
  2.361113e+01    8.564262e-01
  2.362701e+01    8.385050e-01
  2.364289e+01    8.489959e-01
  2.365876e+01    8.500516e-01
  2.367464e+01    8.644184e-01
  2.369051e+01    8.485131e-01
  2.370639e+01    8.487732e-01
  2.372226e+01    8.325113e-01
  2.373814e+01    8.329313e-01
  2.375401e+01    8.315778e-01
  2.376989e+01    8.393189e-01
  2.378577e+01    8.411439e-01
  2.380164e+01    8.088687e-01
  2.381752e+01    8.229697e-01
  2.383339e+01    8.176849e-01
  2.384927e+01    8.151798e-01
  2.386514e+01    8.226301e-01
  2.388102e+01    8.286758e-01
  2.389689e+01    8.216408e-01
  2.391277e+01    8.138980e-01
  2.392865e+01    7.964610e-01
  2.394452e+01    8.076430e-01
  2.396040e+01    8.160238e-01
  2.397627e+01    7.960085e-01
  2.399215e+01    8.195254e-01
  2.400802e+01    8.118677e-01
  2.402390e+01    8.181182e-01
  2.403978e+01    7.913073e-01
  2.405565e+01    7.938867e-01
  2.407153e+01    8.142024e-01
  2.408740e+01    8.154508e-01
  2.410328e+01    8.104503e-01
  2.411915e+01    8.119472e-01
  2.413503e+01    8.005673e-01
  2.415090e+01    7.983888e-01
  2.416678e+01    7.918715e-01
  2.418266e+01    7.943008e-01
  2.419853e+01    7.861962e-01
  2.421441e+01    7.698188e-01
  2.423028e+01    8.088840e-01
  2.424616e+01    8.169305e-01
  2.426203e+01    8.044506e-01
  2.427791e+01    8.101599e-01
  2.429378e+01    7.974482e-01
  2.430966e+01    8.014354e-01
  2.432554e+01    7.871916e-01
  2.434141e+01    7.932796e-01
  2.435729e+01    8.084070e-01
  2.437316e+01    8.140568e-01
  2.438904e+01    8.121061e-01
  2.440491e+01    8.173025e-01
  2.442079e+01    8.146414e-01
  2.443666e+01    8.009946e-01
  2.445254e+01    8.157072e-01
  2.446842e+01    8.047486e-01
  2.448429e+01    7.904598e-01
  2.450017e+01    8.115423e-01
  2.451604e+01    8.032429e-01
  2.453192e+01    8.172392e-01
  2.454779e+01    8.021936e-01
  2.456367e+01    8.065127e-01
  2.457954e+01    7.957917e-01
  2.459542e+01    7.917731e-01
  2.461130e+01    7.928310e-01
  2.462717e+01    7.971740e-01
  2.464305e+01    8.059316e-01
  2.465892e+01    7.927578e-01
  2.467480e+01    7.870803e-01
  2.469067e+01    8.166221e-01
  2.470655e+01    8.109152e-01
  2.472242e+01    8.014434e-01
  2.473830e+01    8.197104e-01
  2.475418e+01    8.190426e-01
  2.477005e+01    8.143433e-01
  2.478593e+01    8.135878e-01
  2.480180e+01    8.041046e-01
  2.481768e+01    7.973549e-01
  2.483355e+01    7.914215e-01
  2.484943e+01    7.916073e-01
  2.486530e+01    8.037379e-01
  2.488118e+01    7.991722e-01
  2.489706e+01    8.113132e-01
  2.491293e+01    8.253955e-01
  2.492881e+01    8.147321e-01
  2.494468e+01    8.170041e-01
  2.496056e+01    8.161333e-01
  2.497643e+01    8.029597e-01
  2.499231e+01    8.014550e-01
  2.500819e+01    8.018301e-01
  2.502406e+01    8.256308e-01
  2.503994e+01    8.171968e-01
  2.505581e+01    8.018366e-01
  2.507169e+01    8.116917e-01
  2.508756e+01    8.163027e-01
  2.510344e+01    8.270882e-01
  2.511931e+01    8.281792e-01
  2.513519e+01    8.345692e-01
  2.515107e+01    8.413234e-01
  2.516694e+01    8.665286e-01
  2.518282e+01    8.693398e-01
  2.519869e+01    8.555390e-01
  2.521457e+01    8.507697e-01
  2.523044e+01    8.536981e-01
  2.524632e+01    8.871223e-01
  2.526219e+01    8.864784e-01
  2.527807e+01    8.709316e-01
  2.529395e+01    8.673244e-01
  2.530982e+01    8.609819e-01
  2.532570e+01    8.834621e-01
  2.534157e+01    8.912868e-01
  2.535745e+01    8.961224e-01
  2.537332e+01    8.948907e-01
  2.538920e+01    9.121961e-01
  2.540507e+01    9.088722e-01
  2.542095e+01    9.076282e-01
  2.543683e+01    9.273786e-01
  2.545270e+01    9.283493e-01
  2.546858e+01    9.709513e-01
  2.548445e+01    9.790434e-01
  2.550033e+01    9.676928e-01
  2.551620e+01    9.928315e-01
  2.553208e+01    1.013282e+00
  2.554795e+01    1.010046e+00
  2.556383e+01    1.028435e+00
  2.557971e+01    1.040684e+00
  2.559558e+01    1.081411e+00
  2.561146e+01    1.126668e+00
  2.562733e+01    1.133402e+00
  2.564321e+01    1.177603e+00
  2.565908e+01    1.235936e+00
  2.567496e+01    1.273944e+00
  2.569083e+01    1.327080e+00
  2.570671e+01    1.400667e+00
  2.572259e+01    1.492282e+00
  2.573846e+01    1.594392e+00
  2.575434e+01    1.701533e+00
  2.577021e+01    1.847439e+00
  2.578609e+01    2.038919e+00
  2.580196e+01    2.278436e+00
  2.581784e+01    2.505223e+00
  2.583371e+01    2.840233e+00
  2.584959e+01    3.236979e+00
  2.586547e+01    3.759790e+00
  2.588134e+01    4.299536e+00
  2.589722e+01    4.977859e+00
  2.591309e+01    5.748841e+00
  2.592897e+01    6.465669e+00
  2.594484e+01    7.231411e+00
  2.596072e+01    7.971000e+00
  2.597660e+01    8.579915e+00
  2.599247e+01    8.868644e+00
  2.600835e+01    8.993739e+00
  2.602422e+01    8.570771e+00
  2.604010e+01    8.035013e+00
  2.605597e+01    7.195121e+00
  2.607185e+01    6.213330e+00
  2.608772e+01    5.284220e+00
  2.610360e+01    4.482968e+00
  2.611948e+01    3.853914e+00
  2.613535e+01    3.388609e+00
  2.615123e+01    2.931279e+00
  2.616710e+01    2.584222e+00
  2.618298e+01    2.303447e+00
  2.619885e+01    2.060552e+00
  2.621473e+01    1.874499e+00
  2.623060e+01    1.762112e+00
  2.624648e+01    1.649458e+00
  2.626236e+01    1.536363e+00
  2.627823e+01    1.453592e+00
  2.629411e+01    1.369000e+00
  2.630998e+01    1.287945e+00
  2.632586e+01    1.257321e+00
  2.634173e+01    1.194106e+00
  2.635761e+01    1.161477e+00
  2.637348e+01    1.121225e+00
  2.638936e+01    1.098290e+00
  2.640524e+01    1.077507e+00
  2.642111e+01    1.049771e+00
  2.643699e+01    1.023534e+00
  2.645286e+01    1.019508e+00
  2.646874e+01    1.023233e+00
  2.648461e+01    1.004283e+00
  2.650049e+01    9.893465e-01
  2.651636e+01    9.888355e-01
  2.653224e+01    9.615069e-01
  2.654812e+01    9.501675e-01
  2.656399e+01    9.533513e-01
  2.657987e+01    9.630787e-01
  2.659574e+01    9.478197e-01
  2.661162e+01    9.569291e-01
  2.662749e+01    9.352276e-01
  2.664337e+01    9.454466e-01
  2.665924e+01    9.295748e-01
  2.667512e+01    9.162806e-01
  2.669100e+01    9.261634e-01
  2.670687e+01    9.568532e-01
  2.672275e+01    9.320896e-01
  2.673862e+01    9.427248e-01
  2.675450e+01    9.305109e-01
  2.677037e+01    9.065620e-01
  2.678625e+01    9.092208e-01
  2.680212e+01    9.108302e-01
  2.681800e+01    9.399085e-01
  2.683388e+01    9.360296e-01
  2.684975e+01    9.187617e-01
  2.686563e+01    9.042598e-01
  2.688150e+01    9.211409e-01
  2.689738e+01    9.168811e-01
  2.691325e+01    9.359442e-01
  2.692913e+01    9.676403e-01
  2.694501e+01    9.592773e-01
  2.696088e+01    9.738830e-01
  2.697676e+01    9.730698e-01
  2.699263e+01    9.909776e-01
  2.700851e+01    1.016176e+00
  2.702438e+01    1.047868e+00
  2.704026e+01    1.077499e+00
  2.705613e+01    1.108681e+00
  2.707201e+01    1.182189e+00
  2.708789e+01    1.252259e+00
  2.710376e+01    1.273873e+00
  2.711964e+01    1.347812e+00
  2.713551e+01    1.469503e+00
  2.715139e+01    1.569249e+00
  2.716726e+01    1.749262e+00
  2.718314e+01    1.917336e+00
  2.719901e+01    2.072570e+00
  2.721489e+01    2.287999e+00
  2.723077e+01    2.441878e+00
  2.724664e+01    2.505875e+00
  2.726252e+01    2.569650e+00
  2.727839e+01    2.514482e+00
  2.729427e+01    2.410305e+00
  2.731014e+01    2.261221e+00
  2.732602e+01    2.094496e+00
  2.734189e+01    1.871267e+00
  2.735777e+01    1.703023e+00
  2.737365e+01    1.543131e+00
  2.738952e+01    1.402172e+00
  2.740540e+01    1.335869e+00
  2.742127e+01    1.253476e+00
  2.743715e+01    1.197938e+00
  2.745302e+01    1.119749e+00
  2.746890e+01    1.089906e+00
  2.748477e+01    1.054953e+00
  2.750065e+01    1.026334e+00
  2.751653e+01    9.958270e-01
  2.753240e+01    9.818720e-01
  2.754828e+01    9.696011e-01
  2.756415e+01    9.475842e-01
  2.758003e+01    9.060018e-01
  2.759590e+01    8.844228e-01
  2.761178e+01    9.010215e-01
  2.762765e+01    8.810660e-01
  2.764353e+01    8.657479e-01
  2.765941e+01    8.727379e-01
  2.767528e+01    8.487017e-01
  2.769116e+01    8.387010e-01
  2.770703e+01    8.336717e-01
  2.772291e+01    8.456382e-01
  2.773878e+01    8.406245e-01
  2.775466e+01    8.482276e-01
  2.777054e+01    8.535903e-01
  2.778641e+01    8.496288e-01
  2.780229e+01    8.126358e-01
  2.781816e+01    8.545478e-01
  2.783404e+01    8.466070e-01
  2.784991e+01    8.387030e-01
  2.786579e+01    8.466070e-01
  2.788166e+01    8.289932e-01
  2.789754e+01    8.045503e-01
  2.791342e+01    8.078054e-01
  2.792929e+01    8.049420e-01
  2.794517e+01    8.116748e-01
  2.796104e+01    8.278086e-01
  2.797692e+01    8.218479e-01
  2.799279e+01    8.091604e-01
  2.800867e+01    7.974081e-01
  2.802454e+01    7.906919e-01
  2.804042e+01    8.112701e-01
  2.805630e+01    8.065203e-01
  2.807217e+01    8.140664e-01
  2.808805e+01    7.996289e-01
  2.810392e+01    8.041533e-01
  2.811980e+01    7.968455e-01
  2.813567e+01    7.872099e-01
  2.815155e+01    8.072603e-01
  2.816742e+01    8.203921e-01
  2.818330e+01    8.035651e-01
  2.819918e+01    7.852596e-01
  2.821505e+01    8.050302e-01
  2.823093e+01    8.167786e-01
  2.824680e+01    7.917135e-01
  2.826268e+01    8.127608e-01
  2.827855e+01    7.891122e-01
  2.829443e+01    7.687148e-01
  2.831030e+01    8.088886e-01
  2.832618e+01    8.096558e-01
  2.834206e+01    7.864565e-01
  2.835793e+01    7.915391e-01
  2.837381e+01    7.887058e-01
  2.838968e+01    7.839474e-01
  2.840556e+01    7.609711e-01
  2.842143e+01    7.561188e-01
  2.843731e+01    7.780290e-01
  2.845318e+01    8.035004e-01
  2.846906e+01    7.885593e-01
  2.848494e+01    7.905782e-01
  2.850081e+01    7.751918e-01
  2.851669e+01    7.765149e-01
  2.853256e+01    7.581745e-01
  2.854844e+01    7.589618e-01
  2.856431e+01    7.715710e-01
  2.858019e+01    7.761350e-01
  2.859606e+01    7.697120e-01
  2.861194e+01    7.919228e-01
  2.862782e+01    7.952353e-01
  2.864369e+01    7.790838e-01
  2.865957e+01    7.655854e-01
  2.867544e+01    7.923369e-01
  2.869132e+01    7.638159e-01
  2.870719e+01    7.814427e-01
  2.872307e+01    7.863234e-01
  2.873895e+01    7.805220e-01
  2.875482e+01    7.603678e-01
  2.877070e+01    7.682731e-01
  2.878657e+01    7.626384e-01
  2.880245e+01    7.684683e-01
  2.881832e+01    7.866387e-01
  2.883420e+01    7.645986e-01
  2.885007e+01    7.797822e-01
  2.886595e+01    7.682218e-01
  2.888183e+01    7.504802e-01
  2.889770e+01    7.553588e-01
  2.891358e+01    7.550540e-01
  2.892945e+01    7.860969e-01
  2.894533e+01    7.583855e-01
  2.896120e+01    7.587823e-01
  2.897708e+01    7.460850e-01
  2.899295e+01    7.553467e-01
  2.900883e+01    7.516559e-01
  2.902471e+01    7.589425e-01
  2.904058e+01    7.398453e-01
  2.905646e+01    7.629632e-01
  2.907233e+01    7.511827e-01
  2.908821e+01    7.441137e-01
  2.910408e+01    7.557151e-01
  2.911996e+01    7.577642e-01
  2.913583e+01    7.382447e-01
  2.915171e+01    7.357339e-01
  2.916759e+01    7.434118e-01
  2.918346e+01    7.524089e-01
  2.919934e+01    7.530989e-01
  2.921521e+01    7.607579e-01
  2.923109e+01    7.446472e-01
  2.924696e+01    7.431875e-01
  2.926284e+01    7.428844e-01
  2.927871e+01    7.313920e-01
  2.929459e+01    7.458446e-01
  2.931047e+01    7.561817e-01
  2.932634e+01    7.495039e-01
  2.934222e+01    7.515184e-01
  2.935809e+01    7.450399e-01
  2.937397e+01    7.512655e-01
  2.938984e+01    7.490117e-01
  2.940572e+01    7.242204e-01
  2.942159e+01    7.191036e-01
  2.943747e+01    7.239105e-01
  2.945335e+01    7.348925e-01
  2.946922e+01    7.321212e-01
  2.948510e+01    7.483374e-01
  2.950097e+01    7.464103e-01
  2.951685e+01    7.681386e-01
  2.953272e+01    7.553394e-01
  2.954860e+01    7.469474e-01
  2.956447e+01    7.282407e-01
  2.958035e+01    7.348807e-01
  2.959623e+01    7.460465e-01
  2.961210e+01    7.321707e-01
  2.962798e+01    7.433712e-01
  2.964385e+01    7.406377e-01
  2.965973e+01    7.318289e-01
  2.967560e+01    7.245862e-01
  2.969148e+01    7.208180e-01
  2.970736e+01    7.245538e-01
  2.972323e+01    7.378551e-01
  2.973911e+01    7.149247e-01
  2.975498e+01    7.333911e-01
  2.977086e+01    7.157416e-01
  2.978673e+01    7.216277e-01
  2.980261e+01    7.623188e-01
  2.981848e+01    7.386800e-01
  2.983436e+01    7.231348e-01
  2.985024e+01    7.447202e-01
  2.986611e+01    7.308774e-01
  2.988199e+01    7.262033e-01
  2.989786e+01    7.310452e-01
  2.991374e+01    7.456526e-01
  2.992961e+01    7.338659e-01
  2.994549e+01    7.310742e-01
  2.996136e+01    7.449010e-01
  2.997724e+01    7.282100e-01
  2.999312e+01    7.368823e-01
  3.000899e+01    7.351090e-01
  3.002487e+01    7.456890e-01
  3.004074e+01    7.522857e-01
  3.005662e+01    7.430876e-01
  3.007249e+01    7.337672e-01
  3.008837e+01    7.390035e-01
  3.010424e+01    7.343120e-01
  3.012012e+01    7.338214e-01
  3.013600e+01    7.273905e-01
  3.015187e+01    7.227135e-01
  3.016775e+01    7.284586e-01
  3.018362e+01    7.174194e-01
  3.019950e+01    7.187027e-01
  3.021537e+01    7.342713e-01
  3.023125e+01    7.311394e-01
  3.024712e+01    7.180117e-01
  3.026300e+01    7.197502e-01
  3.027888e+01    7.361386e-01
  3.029475e+01    7.243406e-01
  3.031063e+01    7.379770e-01
  3.032650e+01    7.319206e-01
  3.034238e+01    7.277122e-01
  3.035825e+01    7.374818e-01
  3.037413e+01    7.381232e-01
  3.039000e+01    7.276477e-01
  3.040588e+01    7.236565e-01
  3.042176e+01    7.281190e-01
  3.043763e+01    7.192877e-01
  3.045351e+01    7.135101e-01
  3.046938e+01    7.126637e-01
  3.048526e+01    7.223579e-01
  3.050113e+01    7.272146e-01
  3.051701e+01    7.174684e-01
  3.053288e+01    7.298095e-01
  3.054876e+01    7.289819e-01
  3.056464e+01    7.178034e-01
  3.058051e+01    7.435548e-01
  3.059639e+01    7.155228e-01
  3.061226e+01    7.198222e-01
  3.062814e+01    7.065494e-01
  3.064401e+01    7.433499e-01
  3.065989e+01    7.405484e-01
  3.067577e+01    7.234483e-01
  3.069164e+01    7.209686e-01
  3.070752e+01    7.242048e-01
  3.072339e+01    7.175089e-01
  3.073927e+01    7.374710e-01
  3.075514e+01    7.301444e-01
  3.077102e+01    6.991003e-01
  3.078689e+01    7.179928e-01
  3.080277e+01    7.251672e-01
  3.081865e+01    7.223660e-01
  3.083452e+01    7.115670e-01
  3.085040e+01    6.931229e-01
  3.086627e+01    7.205312e-01
  3.088215e+01    7.106526e-01
  3.089802e+01    7.244389e-01
  3.091390e+01    7.246689e-01
  3.092977e+01    7.195957e-01
  3.094565e+01    7.227165e-01
  3.096153e+01    7.279436e-01
  3.097740e+01    7.165396e-01
  3.099328e+01    7.319113e-01
  3.100915e+01    7.235381e-01
  3.102503e+01    7.334831e-01
  3.104090e+01    7.282445e-01
  3.105678e+01    7.137325e-01
  3.107265e+01    7.481313e-01
  3.108853e+01    7.523559e-01
  3.110441e+01    7.452083e-01
  3.112028e+01    7.504507e-01
  3.113616e+01    7.520970e-01
  3.115203e+01    7.414155e-01
  3.116791e+01    7.456460e-01
  3.118378e+01    7.237591e-01
  3.119966e+01    7.180378e-01
  3.121553e+01    7.206908e-01
  3.123141e+01    7.187800e-01
  3.124729e+01    7.313960e-01
  3.126316e+01    7.269074e-01
  3.127904e+01    7.569817e-01
  3.129491e+01    7.519336e-01
  3.131079e+01    7.352674e-01
  3.132666e+01    7.561012e-01
  3.134254e+01    7.720695e-01
  3.135841e+01    7.574355e-01
  3.137429e+01    7.650140e-01
  3.139017e+01    7.500116e-01
  3.140604e+01    7.451890e-01
  3.142192e+01    7.369320e-01
  3.143779e+01    7.717376e-01
  3.145367e+01    7.748281e-01
  3.146954e+01    7.725856e-01
  3.148542e+01    7.851237e-01
  3.150129e+01    7.791997e-01
  3.151717e+01    7.523423e-01
  3.153305e+01    7.691876e-01
  3.154892e+01    7.902781e-01
  3.156480e+01    7.925610e-01
  3.158067e+01    8.061417e-01
  3.159655e+01    7.909520e-01
  3.161242e+01    8.082113e-01
  3.162830e+01    8.177587e-01
  3.164418e+01    8.441470e-01
  3.166005e+01    8.456320e-01
  3.167593e+01    9.025428e-01
  3.169180e+01    9.023587e-01
  3.170768e+01    9.156222e-01
  3.172355e+01    9.388917e-01
  3.173943e+01    1.013804e+00
  3.175530e+01    1.026850e+00
  3.177118e+01    1.074479e+00
  3.178706e+01    1.145415e+00
  3.180293e+01    1.229238e+00
  3.181881e+01    1.310645e+00
  3.183468e+01    1.429433e+00
  3.185056e+01    1.580965e+00
  3.186643e+01    1.754838e+00
  3.188231e+01    1.922817e+00
  3.189818e+01    2.113113e+00
  3.191406e+01    2.282622e+00
  3.192994e+01    2.440987e+00
  3.194581e+01    2.524873e+00
  3.196169e+01    2.564022e+00
  3.197756e+01    2.549886e+00
  3.199344e+01    2.430827e+00
  3.200931e+01    2.240712e+00
  3.202519e+01    2.014941e+00
  3.204106e+01    1.813509e+00
  3.205694e+01    1.654595e+00
  3.207282e+01    1.489960e+00
  3.208869e+01    1.331938e+00
  3.210457e+01    1.245134e+00
  3.212044e+01    1.182113e+00
  3.213632e+01    1.100350e+00
  3.215219e+01    1.031073e+00
  3.216807e+01    9.734476e-01
  3.218394e+01    9.552732e-01
  3.219982e+01    9.178823e-01
  3.221570e+01    9.126020e-01
  3.223157e+01    8.602057e-01
  3.224745e+01    8.350917e-01
  3.226332e+01    8.370401e-01
  3.227920e+01    8.465112e-01
  3.229507e+01    8.107448e-01
  3.231095e+01    8.067252e-01
  3.232682e+01    8.179016e-01
  3.234270e+01    7.937654e-01
  3.235858e+01    7.818632e-01
  3.237445e+01    7.891999e-01
  3.239033e+01    7.681248e-01
  3.240620e+01    7.477189e-01
  3.242208e+01    7.302572e-01
  3.243795e+01    7.583561e-01
  3.245383e+01    7.659236e-01
  3.246970e+01    7.664072e-01
  3.248558e+01    7.489487e-01
  3.250146e+01    7.275411e-01
  3.251733e+01    7.721550e-01
  3.253321e+01    7.659825e-01
  3.254908e+01    7.235419e-01
