# == pyFAI calibration ==
# Distance Sample to Detector: 0.3999999939076516 m
# PONI: 9.750e-02, 1.135e-01 m
# Rotations: -0.000175 0.000000 -0.000000 rad
# 
# == Fit2d calibration ==
# Distance Sample-beamCenter: 400.000 mm
# Center: x=1514.000, y=1300.000 pix
# Tilt: 0.010 deg  TiltPlanRot: 0.010 deg
# 
# Detector Detector	 Spline= None	 PixelSize= 7.500e-05, 7.500e-05 m
#    Detector has a mask: False 
#    Detector has a dark current: False 
#    detector has a flat field: False 
# 
# Wavelength: 6.888e-11 m
# Mask applied: user provided
# Dark current applied: False
# Flat field applied: False
# Polarization factor: 0.99
# Normalization factor: 1.0
# --> /home/myspot/data/2024_07_Rosario/Ru-CGO-ex/2024-07-27_002_Ru-CGO-ex_Activtation_ramp_000002_data_000111.dat
#       q_nm^-1             I 
  2.003187e-02    0.000000e+00
  3.590745e-02    0.000000e+00
  5.178302e-02    8.011036e-02
  6.765859e-02    2.147835e-01
  8.353417e-02    9.418921e-02
  9.940974e-02    9.954628e-02
  1.152853e-01    9.778095e-02
  1.311609e-01    1.379412e-02
  1.470365e-01    2.548623e-02
  1.629120e-01    1.229017e-02
  1.787876e-01    4.210676e-02
  1.946632e-01    2.332401e-02
  2.105388e-01    1.823419e-02
  2.264143e-01    1.427157e-02
  2.422899e-01    4.232822e-02
  2.581655e-01    1.858744e-02
  2.740411e-01    6.803758e-03
  2.899166e-01    3.521574e-02
  3.057922e-01    4.690227e-02
  3.216678e-01    3.940331e-02
  3.375433e-01    2.330164e-02
  3.534189e-01    1.083992e-02
  3.692945e-01    1.716918e-02
  3.851701e-01    2.439705e-02
  4.010456e-01    2.201673e-02
  4.169212e-01    1.625858e-02
  4.327968e-01    2.441330e-02
  4.486724e-01    2.238005e-02
  4.645479e-01    4.593311e-02
  4.804235e-01    5.420493e-02
  4.962991e-01    3.883335e-02
  5.121747e-01    3.833991e-02
  5.280502e-01    2.321971e-02
  5.439258e-01    1.421630e-02
  5.598014e-01    1.692269e-02
  5.756770e-01    2.499792e-02
  5.915525e-01    4.386824e-02
  6.074281e-01    7.352092e-02
  6.233037e-01    3.292309e-02
  6.391793e-01    2.008149e-02
  6.550548e-01    4.278287e-02
  6.709304e-01    3.609697e-02
  6.868060e-01    3.597925e-02
  7.026815e-01    4.482152e-02
  7.185571e-01    3.938100e-02
  7.344327e-01    5.505214e-02
  7.503083e-01    4.088461e-02
  7.661838e-01    6.885912e-02
  7.820594e-01    1.260649e-01
  7.979350e-01    1.438286e-01
  8.138106e-01    2.663672e-01
  8.296861e-01    2.592089e-01
  8.455617e-01    2.779524e-01
  8.614373e-01    3.615393e-01
  8.773129e-01    4.397602e-01
  8.931884e-01    4.918410e-01
  9.090640e-01    5.746085e-01
  9.249396e-01    6.181853e-01
  9.408152e-01    7.027857e-01
  9.566907e-01    7.075771e-01
  9.725663e-01    7.367170e-01
  9.884419e-01    8.672122e-01
  1.004317e+00    9.121770e-01
  1.020193e+00    1.118607e+00
  1.036069e+00    1.174225e+00
  1.051944e+00    1.238333e+00
  1.067820e+00    1.324341e+00
  1.083695e+00    1.309287e+00
  1.099571e+00    1.378214e+00
  1.115446e+00    1.372680e+00
  1.131322e+00    1.402378e+00
  1.147198e+00    1.457234e+00
  1.163073e+00    1.419709e+00
  1.178949e+00    1.443955e+00
  1.194824e+00    1.637190e+00
  1.210700e+00    1.761694e+00
  1.226575e+00    1.933455e+00
  1.242451e+00    2.149786e+00
  1.258327e+00    2.200970e+00
  1.274202e+00    2.382274e+00
  1.290078e+00    2.457899e+00
  1.305953e+00    2.334961e+00
  1.321829e+00    2.522952e+00
  1.337705e+00    2.613772e+00
  1.353580e+00    2.470740e+00
  1.369456e+00    2.469611e+00
  1.385331e+00    2.632013e+00
  1.401207e+00    2.688010e+00
  1.417082e+00    2.585005e+00
  1.432958e+00    2.603549e+00
  1.448834e+00    2.703567e+00
  1.464709e+00    2.723939e+00
  1.480585e+00    2.746165e+00
  1.496460e+00    2.783890e+00
  1.512336e+00    2.959831e+00
  1.528211e+00    3.001066e+00
  1.544087e+00    3.011348e+00
  1.559963e+00    2.888890e+00
  1.575838e+00    2.783591e+00
  1.591714e+00    2.894078e+00
  1.607589e+00    2.899395e+00
  1.623465e+00    2.976329e+00
  1.639340e+00    2.840061e+00
  1.655216e+00    2.766792e+00
  1.671092e+00    2.842705e+00
  1.686967e+00    2.842619e+00
  1.702843e+00    2.850561e+00
  1.718718e+00    2.813974e+00
  1.734594e+00    2.740954e+00
  1.750469e+00    2.821901e+00
  1.766345e+00    2.792034e+00
  1.782221e+00    2.761891e+00
  1.798096e+00    2.804861e+00
  1.813972e+00    2.689265e+00
  1.829847e+00    2.653682e+00
  1.845723e+00    2.667369e+00
  1.861598e+00    2.646509e+00
  1.877474e+00    2.645255e+00
  1.893350e+00    2.725581e+00
  1.909225e+00    2.763031e+00
  1.925101e+00    2.719956e+00
  1.940976e+00    2.675719e+00
  1.956852e+00    2.696332e+00
  1.972727e+00    2.696641e+00
  1.988603e+00    2.649898e+00
  2.004479e+00    2.639434e+00
  2.020354e+00    2.613256e+00
  2.036230e+00    2.667829e+00
  2.052105e+00    2.592702e+00
  2.067981e+00    2.588114e+00
  2.083856e+00    2.616531e+00
  2.099732e+00    2.720206e+00
  2.115608e+00    2.687775e+00
  2.131483e+00    2.713145e+00
  2.147359e+00    2.663122e+00
  2.163234e+00    2.652973e+00
  2.179110e+00    2.676876e+00
  2.194985e+00    2.722572e+00
  2.210861e+00    2.750585e+00
  2.226737e+00    2.676388e+00
  2.242612e+00    2.530550e+00
  2.258488e+00    2.574269e+00
  2.274363e+00    2.648670e+00
  2.290239e+00    2.731290e+00
  2.306115e+00    2.773658e+00
  2.321990e+00    2.667414e+00
  2.337866e+00    2.684591e+00
  2.353741e+00    2.712819e+00
  2.369617e+00    2.736682e+00
  2.385492e+00    2.750787e+00
  2.401368e+00    2.741504e+00
  2.417244e+00    2.784433e+00
  2.433119e+00    2.707955e+00
  2.448995e+00    2.712838e+00
  2.464870e+00    2.752218e+00
  2.480746e+00    2.723568e+00
  2.496621e+00    2.685393e+00
  2.512497e+00    2.759188e+00
  2.528373e+00    2.721963e+00
  2.544248e+00    2.687768e+00
  2.560124e+00    2.704233e+00
  2.575999e+00    2.784671e+00
  2.591875e+00    2.802722e+00
  2.607750e+00    2.752670e+00
  2.623626e+00    2.801812e+00
  2.639502e+00    2.777263e+00
  2.655377e+00    2.824040e+00
  2.671253e+00    2.822876e+00
  2.687128e+00    2.755969e+00
  2.703004e+00    2.702200e+00
  2.718879e+00    2.720132e+00
  2.734755e+00    2.684697e+00
  2.750631e+00    2.719158e+00
  2.766506e+00    2.698508e+00
  2.782382e+00    2.693165e+00
  2.798257e+00    2.798865e+00
  2.814133e+00    2.740327e+00
  2.830008e+00    2.747227e+00
  2.845884e+00    2.799668e+00
  2.861760e+00    2.813727e+00
  2.877635e+00    2.853997e+00
  2.893511e+00    2.887214e+00
  2.909386e+00    2.798039e+00
  2.925262e+00    2.810155e+00
  2.941137e+00    2.844041e+00
  2.957013e+00    2.846919e+00
  2.972889e+00    2.834425e+00
  2.988764e+00    2.814078e+00
  3.004640e+00    2.867167e+00
  3.020515e+00    2.773806e+00
  3.036391e+00    2.734284e+00
  3.052266e+00    2.755141e+00
  3.068142e+00    2.814750e+00
  3.084018e+00    2.863752e+00
  3.099893e+00    2.812572e+00
  3.115769e+00    2.817550e+00
  3.131644e+00    2.839865e+00
  3.147520e+00    2.889786e+00
  3.163395e+00    2.919105e+00
  3.179271e+00    2.837867e+00
  3.195147e+00    2.750651e+00
  3.211022e+00    2.732102e+00
  3.226898e+00    2.881593e+00
  3.242773e+00    2.908205e+00
  3.258649e+00    2.817497e+00
  3.274525e+00    2.806573e+00
  3.290400e+00    2.866099e+00
  3.306276e+00    2.750535e+00
  3.322151e+00    2.805140e+00
  3.338027e+00    2.836401e+00
  3.353902e+00    2.883927e+00
  3.369778e+00    2.885440e+00
  3.385654e+00    2.851139e+00
  3.401529e+00    2.902282e+00
  3.417405e+00    2.955293e+00
  3.433280e+00    2.921423e+00
  3.449156e+00    2.916984e+00
  3.465031e+00    2.945012e+00
  3.480907e+00    2.872768e+00
  3.496783e+00    2.797385e+00
  3.512658e+00    2.872720e+00
  3.528534e+00    2.930442e+00
  3.544409e+00    2.945587e+00
  3.560285e+00    2.846745e+00
  3.576160e+00    2.844777e+00
  3.592036e+00    2.896811e+00
  3.607912e+00    2.929900e+00
  3.623787e+00    2.893182e+00
  3.639663e+00    2.895762e+00
  3.655538e+00    2.943533e+00
  3.671414e+00    2.913999e+00
  3.687289e+00    2.969470e+00
  3.703165e+00    3.012836e+00
  3.719041e+00    2.967496e+00
  3.734916e+00    3.022247e+00
  3.750792e+00    2.922327e+00
  3.766667e+00    3.016631e+00
  3.782543e+00    2.974505e+00
  3.798418e+00    2.927134e+00
  3.814294e+00    2.895207e+00
  3.830170e+00    2.900736e+00
  3.846045e+00    2.942075e+00
  3.861921e+00    2.907784e+00
  3.877796e+00    2.910162e+00
  3.893672e+00    2.915885e+00
  3.909547e+00    2.914525e+00
  3.925423e+00    3.059578e+00
  3.941299e+00    3.020211e+00
  3.957174e+00    2.970479e+00
  3.973050e+00    2.957941e+00
  3.988925e+00    2.923736e+00
  4.004801e+00    2.898458e+00
  4.020676e+00    2.946841e+00
  4.036552e+00    2.941426e+00
  4.052428e+00    2.938815e+00
  4.068303e+00    2.922220e+00
  4.084179e+00    2.965333e+00
  4.100054e+00    2.946966e+00
  4.115930e+00    2.866275e+00
  4.131806e+00    2.951269e+00
  4.147681e+00    2.957410e+00
  4.163557e+00    3.014451e+00
  4.179432e+00    3.021426e+00
  4.195308e+00    3.025496e+00
  4.211183e+00    3.028475e+00
  4.227059e+00    3.013105e+00
  4.242935e+00    2.956855e+00
  4.258810e+00    2.987980e+00
  4.274686e+00    2.996790e+00
  4.290561e+00    2.983254e+00
  4.306437e+00    2.960428e+00
  4.322312e+00    3.007778e+00
  4.338188e+00    3.044274e+00
  4.354064e+00    2.968281e+00
  4.369939e+00    3.056015e+00
  4.385815e+00    3.016890e+00
  4.401690e+00    3.027202e+00
  4.417566e+00    2.948569e+00
  4.433441e+00    2.997292e+00
  4.449317e+00    3.055452e+00
  4.465193e+00    3.004737e+00
  4.481068e+00    2.978215e+00
  4.496944e+00    2.951813e+00
  4.512819e+00    3.009033e+00
  4.528695e+00    3.005727e+00
  4.544570e+00    2.963214e+00
  4.560446e+00    3.035925e+00
  4.576322e+00    2.989875e+00
  4.592197e+00    2.941464e+00
  4.608073e+00    3.016090e+00
  4.623948e+00    3.053668e+00
  4.639824e+00    3.032302e+00
  4.655699e+00    3.047865e+00
  4.671575e+00    3.032899e+00
  4.687451e+00    3.003847e+00
  4.703326e+00    3.052889e+00
  4.719202e+00    3.091790e+00
  4.735077e+00    3.253970e+00
  4.750953e+00    3.216756e+00
  4.766828e+00    3.084798e+00
  4.782704e+00    3.052082e+00
  4.798580e+00    3.107965e+00
  4.814455e+00    3.131385e+00
  4.830331e+00    3.089139e+00
  4.846206e+00    3.043760e+00
  4.862082e+00    3.004756e+00
  4.877957e+00    3.117503e+00
  4.893833e+00    3.151709e+00
  4.909709e+00    3.087465e+00
  4.925584e+00    3.064734e+00
  4.941460e+00    3.111651e+00
  4.957335e+00    3.086771e+00
  4.973211e+00    3.115904e+00
  4.989086e+00    3.143226e+00
  5.004962e+00    3.119101e+00
  5.020838e+00    3.044423e+00
  5.036713e+00    3.079693e+00
  5.052589e+00    3.030675e+00
  5.068464e+00    3.029804e+00
  5.084340e+00    3.034802e+00
  5.100216e+00    3.067957e+00
  5.116091e+00    3.101111e+00
  5.131967e+00    3.053993e+00
  5.147842e+00    3.039005e+00
  5.163718e+00    3.058239e+00
  5.179593e+00    3.015607e+00
  5.195469e+00    3.029745e+00
  5.211345e+00    3.072229e+00
  5.227220e+00    3.077181e+00
  5.243096e+00    3.104570e+00
  5.258971e+00    3.068669e+00
  5.274847e+00    3.132728e+00
  5.290722e+00    3.107036e+00
  5.306598e+00    3.084541e+00
  5.322474e+00    3.110644e+00
  5.338349e+00    3.028996e+00
  5.354225e+00    2.962314e+00
  5.370100e+00    2.984754e+00
  5.385976e+00    3.108675e+00
  5.401851e+00    3.090007e+00
  5.417727e+00    3.087043e+00
  5.433603e+00    3.062745e+00
  5.449478e+00    3.062416e+00
  5.465354e+00    2.994598e+00
  5.481229e+00    2.992654e+00
  5.497105e+00    2.945016e+00
  5.512980e+00    2.987811e+00
  5.528856e+00    3.123825e+00
  5.544732e+00    3.083376e+00
  5.560607e+00    3.050065e+00
  5.576483e+00    3.066127e+00
  5.592358e+00    2.997711e+00
  5.608234e+00    3.044959e+00
  5.624109e+00    3.033125e+00
  5.639985e+00    3.056566e+00
  5.655861e+00    3.043418e+00
  5.671736e+00    3.048874e+00
  5.687612e+00    2.980384e+00
  5.703487e+00    2.899891e+00
  5.719363e+00    2.980234e+00
  5.735238e+00    2.993502e+00
  5.751114e+00    2.954478e+00
  5.766990e+00    2.994333e+00
  5.782865e+00    3.085236e+00
  5.798741e+00    3.081543e+00
  5.814616e+00    2.972732e+00
  5.830492e+00    3.003192e+00
  5.846367e+00    2.975071e+00
  5.862243e+00    2.953970e+00
  5.878119e+00    3.007286e+00
  5.893994e+00    2.990653e+00
  5.909870e+00    2.924855e+00
  5.925745e+00    2.933711e+00
  5.941621e+00    2.991269e+00
  5.957497e+00    3.048071e+00
  5.973372e+00    2.974450e+00
  5.989248e+00    2.982652e+00
  6.005123e+00    2.969967e+00
  6.020999e+00    2.878277e+00
  6.036874e+00    2.945343e+00
  6.052750e+00    2.970961e+00
  6.068626e+00    2.949040e+00
  6.084501e+00    2.978683e+00
  6.100377e+00    2.994390e+00
  6.116252e+00    3.079175e+00
  6.132128e+00    3.023352e+00
  6.148003e+00    3.105122e+00
  6.163879e+00    3.112363e+00
  6.179755e+00    3.019639e+00
  6.195630e+00    3.031132e+00
  6.211506e+00    3.089245e+00
  6.227381e+00    3.022353e+00
  6.243257e+00    2.984587e+00
  6.259132e+00    2.957507e+00
  6.275008e+00    2.877404e+00
  6.290884e+00    2.980461e+00
  6.306759e+00    2.924794e+00
  6.322635e+00    2.880441e+00
  6.338510e+00    3.020335e+00
  6.354386e+00    3.048443e+00
  6.370261e+00    3.038444e+00
  6.386137e+00    2.978387e+00
  6.402013e+00    3.052238e+00
  6.417888e+00    3.038614e+00
  6.433764e+00    3.011242e+00
  6.449639e+00    3.010990e+00
  6.465515e+00    2.968754e+00
  6.481390e+00    2.956863e+00
  6.497266e+00    2.919437e+00
  6.513142e+00    3.017290e+00
  6.529017e+00    2.990521e+00
  6.544893e+00    2.925946e+00
  6.560768e+00    2.966586e+00
  6.576644e+00    3.035173e+00
  6.592519e+00    2.999519e+00
  6.608395e+00    2.959722e+00
  6.624271e+00    2.956432e+00
  6.640146e+00    2.961334e+00
  6.656022e+00    2.971811e+00
  6.671897e+00    3.008901e+00
  6.687773e+00    3.026711e+00
  6.703648e+00    2.991738e+00
  6.719524e+00    2.945904e+00
  6.735400e+00    2.987280e+00
  6.751275e+00    3.022656e+00
  6.767151e+00    2.992851e+00
  6.783026e+00    2.976395e+00
  6.798902e+00    2.981445e+00
  6.814777e+00    2.962774e+00
  6.830653e+00    2.919575e+00
  6.846529e+00    2.957715e+00
  6.862404e+00    2.952324e+00
  6.878280e+00    2.914873e+00
  6.894155e+00    2.931438e+00
  6.910031e+00    2.906041e+00
  6.925907e+00    2.870351e+00
  6.941782e+00    2.926496e+00
  6.957658e+00    2.969049e+00
  6.973533e+00    2.958111e+00
  6.989409e+00    2.961369e+00
  7.005284e+00    2.929336e+00
  7.021160e+00    2.962140e+00
  7.037036e+00    2.909279e+00
  7.052911e+00    2.957110e+00
  7.068787e+00    2.999121e+00
  7.084662e+00    2.970357e+00
  7.100538e+00    2.968116e+00
  7.116413e+00    2.927356e+00
  7.132289e+00    2.929226e+00
  7.148165e+00    2.983266e+00
  7.164040e+00    2.978960e+00
  7.179916e+00    2.936708e+00
  7.195791e+00    2.989054e+00
  7.211667e+00    2.915420e+00
  7.227542e+00    2.903139e+00
  7.243418e+00    2.945707e+00
  7.259294e+00    2.940920e+00
  7.275169e+00    2.924548e+00
  7.291045e+00    2.967397e+00
  7.306920e+00    2.938323e+00
  7.322796e+00    2.952607e+00
  7.338671e+00    2.898875e+00
  7.354547e+00    2.923882e+00
  7.370423e+00    2.944921e+00
  7.386298e+00    2.968493e+00
  7.402174e+00    2.985744e+00
  7.418049e+00    2.934117e+00
  7.433925e+00    2.914604e+00
  7.449800e+00    2.953390e+00
  7.465676e+00    2.933603e+00
  7.481552e+00    2.949220e+00
  7.497427e+00    2.899590e+00
  7.513303e+00    2.924020e+00
  7.529178e+00    2.954120e+00
  7.545054e+00    2.909960e+00
  7.560929e+00    2.924849e+00
  7.576805e+00    2.894206e+00
  7.592681e+00    2.898058e+00
  7.608556e+00    2.896207e+00
  7.624432e+00    2.895352e+00
  7.640307e+00    2.892830e+00
  7.656183e+00    2.915470e+00
  7.672058e+00    2.918548e+00
  7.687934e+00    2.894523e+00
  7.703810e+00    2.890472e+00
  7.719685e+00    2.886613e+00
  7.735561e+00    2.945240e+00
  7.751436e+00    2.865339e+00
  7.767312e+00    2.911762e+00
  7.783187e+00    2.914149e+00
  7.799063e+00    2.914119e+00
  7.814939e+00    2.839787e+00
  7.830814e+00    2.883356e+00
  7.846690e+00    2.879740e+00
  7.862565e+00    2.903794e+00
  7.878441e+00    2.900758e+00
  7.894317e+00    2.870959e+00
  7.910192e+00    2.926881e+00
  7.926068e+00    2.911785e+00
  7.941943e+00    2.882768e+00
  7.957819e+00    2.870623e+00
  7.973694e+00    2.848064e+00
  7.989570e+00    2.806700e+00
  8.005446e+00    2.908071e+00
  8.021321e+00    2.910499e+00
  8.037197e+00    2.913141e+00
  8.053072e+00    2.874257e+00
  8.068948e+00    2.829906e+00
  8.084823e+00    2.827877e+00
  8.100699e+00    2.891974e+00
  8.116575e+00    2.931667e+00
  8.132450e+00    2.903677e+00
  8.148326e+00    3.004789e+00
  8.164201e+00    2.960995e+00
  8.180077e+00    2.911066e+00
  8.195952e+00    2.939929e+00
  8.211828e+00    2.893281e+00
  8.227704e+00    2.902159e+00
  8.243579e+00    2.884655e+00
  8.259455e+00    2.882750e+00
  8.275330e+00    2.895264e+00
  8.291206e+00    2.885995e+00
  8.307081e+00    2.854590e+00
  8.322957e+00    2.850278e+00
  8.338833e+00    2.819748e+00
  8.354708e+00    2.816016e+00
  8.370584e+00    2.805076e+00
  8.386459e+00    2.835238e+00
  8.402335e+00    2.885062e+00
  8.418210e+00    2.860715e+00
  8.434086e+00    2.848818e+00
  8.449962e+00    2.822927e+00
  8.465837e+00    2.812937e+00
  8.481713e+00    2.871278e+00
  8.497588e+00    2.881809e+00
  8.513464e+00    2.835876e+00
  8.529339e+00    2.775491e+00
  8.545215e+00    2.793114e+00
  8.561091e+00    2.807566e+00
  8.576966e+00    2.819420e+00
  8.592842e+00    2.829061e+00
  8.608717e+00    2.817055e+00
  8.624593e+00    2.792541e+00
  8.640468e+00    2.772405e+00
  8.656344e+00    2.774207e+00
  8.672220e+00    2.854420e+00
  8.688095e+00    2.808752e+00
  8.703971e+00    2.798191e+00
  8.719846e+00    2.760827e+00
  8.735722e+00    2.777819e+00
  8.751598e+00    2.829086e+00
  8.767473e+00    2.841852e+00
  8.783349e+00    2.766966e+00
  8.799224e+00    2.783274e+00
  8.815100e+00    2.816115e+00
  8.830975e+00    2.775160e+00
  8.846851e+00    2.800241e+00
  8.862727e+00    2.766046e+00
  8.878602e+00    2.741554e+00
  8.894478e+00    2.772606e+00
  8.910353e+00    2.807718e+00
  8.926229e+00    2.793751e+00
  8.942104e+00    2.740599e+00
  8.957980e+00    2.733275e+00
  8.973856e+00    2.769986e+00
  8.989731e+00    2.806449e+00
  9.005607e+00    2.717685e+00
  9.021482e+00    2.774298e+00
  9.037358e+00    2.763203e+00
  9.053233e+00    2.776328e+00
  9.069109e+00    2.802333e+00
  9.084985e+00    2.767795e+00
  9.100860e+00    2.753738e+00
  9.116736e+00    2.765874e+00
  9.132611e+00    2.771955e+00
  9.148487e+00    2.701953e+00
  9.164362e+00    2.709168e+00
  9.180238e+00    2.727676e+00
  9.196114e+00    2.733118e+00
  9.211989e+00    2.749613e+00
  9.227865e+00    2.692506e+00
  9.243740e+00    2.799615e+00
  9.259616e+00    2.811165e+00
  9.275491e+00    2.765648e+00
  9.291367e+00    2.771993e+00
  9.307243e+00    2.746436e+00
  9.323118e+00    2.709249e+00
  9.338994e+00    2.716936e+00
  9.354869e+00    2.746099e+00
  9.370745e+00    2.693590e+00
  9.386620e+00    2.770496e+00
  9.402496e+00    2.750241e+00
  9.418372e+00    2.721143e+00
  9.434247e+00    2.728431e+00
  9.450123e+00    2.717494e+00
  9.465998e+00    2.699074e+00
  9.481874e+00    2.730275e+00
  9.497749e+00    2.740622e+00
  9.513625e+00    2.734791e+00
  9.529501e+00    2.760429e+00
  9.545376e+00    2.703459e+00
  9.561252e+00    2.699148e+00
  9.577127e+00    2.714402e+00
  9.593003e+00    2.724602e+00
  9.608878e+00    2.677674e+00
  9.624754e+00    2.676283e+00
  9.640630e+00    2.695475e+00
  9.656505e+00    2.638688e+00
  9.672381e+00    2.634985e+00
  9.688256e+00    2.688523e+00
  9.704132e+00    2.681231e+00
  9.720008e+00    2.683653e+00
  9.735883e+00    2.618480e+00
  9.751759e+00    2.607102e+00
  9.767634e+00    2.639747e+00
  9.783510e+00    2.670894e+00
  9.799385e+00    2.676423e+00
  9.815261e+00    2.675233e+00
  9.831137e+00    2.641566e+00
  9.847012e+00    2.606570e+00
  9.862888e+00    2.556084e+00
  9.878763e+00    2.653092e+00
  9.894639e+00    2.651035e+00
  9.910514e+00    2.650341e+00
  9.926390e+00    2.689642e+00
  9.942266e+00    2.716159e+00
  9.958141e+00    2.709371e+00
  9.974017e+00    2.638244e+00
  9.989892e+00    2.587652e+00
  1.000577e+01    2.625940e+00
  1.002164e+01    2.616424e+00
  1.003752e+01    2.646061e+00
  1.005339e+01    2.648849e+00
  1.006927e+01    2.597112e+00
  1.008515e+01    2.641321e+00
  1.010102e+01    2.624783e+00
  1.011690e+01    2.613037e+00
  1.013277e+01    2.609459e+00
  1.014865e+01    2.596816e+00
  1.016452e+01    2.604214e+00
  1.018040e+01    2.573463e+00
  1.019627e+01    2.583900e+00
  1.021215e+01    2.619168e+00
  1.022803e+01    2.644317e+00
  1.024390e+01    2.604681e+00
  1.025978e+01    2.590253e+00
  1.027565e+01    2.539398e+00
  1.029153e+01    2.581877e+00
  1.030740e+01    2.557040e+00
  1.032328e+01    2.556845e+00
  1.033915e+01    2.500540e+00
  1.035503e+01    2.526416e+00
  1.037091e+01    2.576714e+00
  1.038678e+01    2.588366e+00
  1.040266e+01    2.579194e+00
  1.041853e+01    2.551131e+00
  1.043441e+01    2.579037e+00
  1.045028e+01    2.563441e+00
  1.046616e+01    2.573325e+00
  1.048204e+01    2.545952e+00
  1.049791e+01    2.551406e+00
  1.051379e+01    2.579603e+00
  1.052966e+01    2.495789e+00
  1.054554e+01    2.540115e+00
  1.056141e+01    2.555966e+00
  1.057729e+01    2.520809e+00
  1.059316e+01    2.539137e+00
  1.060904e+01    2.559247e+00
  1.062492e+01    2.532075e+00
  1.064079e+01    2.516632e+00
  1.065667e+01    2.501929e+00
  1.067254e+01    2.502814e+00
  1.068842e+01    2.489054e+00
  1.070429e+01    2.510432e+00
  1.072017e+01    2.536201e+00
  1.073604e+01    2.508205e+00
  1.075192e+01    2.505798e+00
  1.076780e+01    2.500267e+00
  1.078367e+01    2.484732e+00
  1.079955e+01    2.469849e+00
  1.081542e+01    2.498487e+00
  1.083130e+01    2.527819e+00
  1.084717e+01    2.531570e+00
  1.086305e+01    2.464228e+00
  1.087892e+01    2.498004e+00
  1.089480e+01    2.507772e+00
  1.091068e+01    2.477852e+00
  1.092655e+01    2.511314e+00
  1.094243e+01    2.483630e+00
  1.095830e+01    2.416021e+00
  1.097418e+01    2.416224e+00
  1.099005e+01    2.524283e+00
  1.100593e+01    2.450411e+00
  1.102180e+01    2.417391e+00
  1.103768e+01    2.443535e+00
  1.105356e+01    2.444799e+00
  1.106943e+01    2.439801e+00
  1.108531e+01    2.424206e+00
  1.110118e+01    2.440460e+00
  1.111706e+01    2.432629e+00
  1.113293e+01    2.436822e+00
  1.114881e+01    2.439118e+00
  1.116468e+01    2.378598e+00
  1.118056e+01    2.406604e+00
  1.119644e+01    2.482942e+00
  1.121231e+01    2.416239e+00
  1.122819e+01    2.425714e+00
  1.124406e+01    2.459645e+00
  1.125994e+01    2.400223e+00
  1.127581e+01    2.426278e+00
  1.129169e+01    2.424919e+00
  1.130756e+01    2.419176e+00
  1.132344e+01    2.404469e+00
  1.133932e+01    2.368948e+00
  1.135519e+01    2.388968e+00
  1.137107e+01    2.368011e+00
  1.138694e+01    2.360439e+00
  1.140282e+01    2.344017e+00
  1.141869e+01    2.403222e+00
  1.143457e+01    2.375980e+00
  1.145045e+01    2.367872e+00
  1.146632e+01    2.349562e+00
  1.148220e+01    2.358195e+00
  1.149807e+01    2.400632e+00
  1.151395e+01    2.363990e+00
  1.152982e+01    2.381660e+00
  1.154570e+01    2.409822e+00
  1.156157e+01    2.411687e+00
  1.157745e+01    2.400538e+00
  1.159333e+01    2.390583e+00
  1.160920e+01    2.390056e+00
  1.162508e+01    2.363013e+00
  1.164095e+01    2.348478e+00
  1.165683e+01    2.316844e+00
  1.167270e+01    2.290960e+00
  1.168858e+01    2.302882e+00
  1.170445e+01    2.329071e+00
  1.172033e+01    2.363491e+00
  1.173621e+01    2.329574e+00
  1.175208e+01    2.312094e+00
  1.176796e+01    2.314662e+00
  1.178383e+01    2.325201e+00
  1.179971e+01    2.338956e+00
  1.181558e+01    2.310458e+00
  1.183146e+01    2.290860e+00
  1.184733e+01    2.317278e+00
  1.186321e+01    2.334399e+00
  1.187909e+01    2.357177e+00
  1.189496e+01    2.336420e+00
  1.191084e+01    2.312117e+00
  1.192671e+01    2.317989e+00
  1.194259e+01    2.312835e+00
  1.195846e+01    2.313801e+00
  1.197434e+01    2.335669e+00
  1.199021e+01    2.343347e+00
  1.200609e+01    2.341215e+00
  1.202197e+01    2.317680e+00
  1.203784e+01    2.295357e+00
  1.205372e+01    2.295328e+00
  1.206959e+01    2.314523e+00
  1.208547e+01    2.275895e+00
  1.210134e+01    2.232380e+00
  1.211722e+01    2.251773e+00
  1.213309e+01    2.255747e+00
  1.214897e+01    2.291535e+00
  1.216485e+01    2.312281e+00
  1.218072e+01    2.295536e+00
  1.219660e+01    2.282667e+00
  1.221247e+01    2.292929e+00
  1.222835e+01    2.270189e+00
  1.224422e+01    2.253964e+00
  1.226010e+01    2.277078e+00
  1.227597e+01    2.295562e+00
  1.229185e+01    2.260468e+00
  1.230773e+01    2.294410e+00
  1.232360e+01    2.304175e+00
  1.233948e+01    2.288401e+00
  1.235535e+01    2.320603e+00
  1.237123e+01    2.292439e+00
  1.238710e+01    2.331758e+00
  1.240298e+01    2.325755e+00
  1.241886e+01    2.321177e+00
  1.243473e+01    2.251056e+00
  1.245061e+01    2.293648e+00
  1.246648e+01    2.282871e+00
  1.248236e+01    2.320182e+00
  1.249823e+01    2.311249e+00
  1.251411e+01    2.281154e+00
  1.252998e+01    2.317695e+00
  1.254586e+01    2.354359e+00
  1.256174e+01    2.372327e+00
  1.257761e+01    2.352227e+00
  1.259349e+01    2.348066e+00
  1.260936e+01    2.383630e+00
  1.262524e+01    2.353439e+00
  1.264111e+01    2.372356e+00
  1.265699e+01    2.338223e+00
  1.267286e+01    2.348813e+00
  1.268874e+01    2.423537e+00
  1.270462e+01    2.459220e+00
  1.272049e+01    2.429987e+00
  1.273637e+01    2.444962e+00
  1.275224e+01    2.478257e+00
  1.276812e+01    2.553705e+00
  1.278399e+01    2.533808e+00
  1.279987e+01    2.633601e+00
  1.281574e+01    2.687400e+00
  1.283162e+01    2.772045e+00
  1.284750e+01    2.826568e+00
  1.286337e+01    2.890501e+00
  1.287925e+01    2.952302e+00
  1.289512e+01    3.079645e+00
  1.291100e+01    3.218294e+00
  1.292687e+01    3.396169e+00
  1.294275e+01    3.652290e+00
  1.295862e+01    3.904922e+00
  1.297450e+01    4.308016e+00
  1.299038e+01    4.702476e+00
  1.300625e+01    5.243206e+00
  1.302213e+01    5.968349e+00
  1.303800e+01    6.923254e+00
  1.305388e+01    8.127748e+00
  1.306975e+01    9.326204e+00
  1.308563e+01    1.071876e+01
  1.310150e+01    1.201033e+01
  1.311738e+01    1.331943e+01
  1.313326e+01    1.442177e+01
  1.314913e+01    1.568153e+01
  1.316501e+01    1.689388e+01
  1.318088e+01    1.759561e+01
  1.319676e+01    1.742459e+01
  1.321263e+01    1.637908e+01
  1.322851e+01    1.462854e+01
  1.324438e+01    1.251898e+01
  1.326026e+01    1.060701e+01
  1.327614e+01    8.898458e+00
  1.329201e+01    7.481110e+00
  1.330789e+01    6.465501e+00
  1.332376e+01    5.662278e+00
  1.333964e+01    5.015600e+00
  1.335551e+01    4.463192e+00
  1.337139e+01    4.111319e+00
  1.338727e+01    3.786435e+00
  1.340314e+01    3.519864e+00
  1.341902e+01    3.295635e+00
  1.343489e+01    3.116389e+00
  1.345077e+01    2.998339e+00
  1.346664e+01    2.917826e+00
  1.348252e+01    2.795683e+00
  1.349839e+01    2.717379e+00
  1.351427e+01    2.648719e+00
  1.353015e+01    2.531540e+00
  1.354602e+01    2.499550e+00
  1.356190e+01    2.507860e+00
  1.357777e+01    2.455018e+00
  1.359365e+01    2.405232e+00
  1.360952e+01    2.395986e+00
  1.362540e+01    2.315598e+00
  1.364127e+01    2.283359e+00
  1.365715e+01    2.283572e+00
  1.367303e+01    2.282164e+00
  1.368890e+01    2.226142e+00
  1.370478e+01    2.203561e+00
  1.372065e+01    2.153135e+00
  1.373653e+01    2.158230e+00
  1.375240e+01    2.153489e+00
  1.376828e+01    2.150584e+00
  1.378415e+01    2.161211e+00
  1.380003e+01    2.166977e+00
  1.381591e+01    2.131706e+00
  1.383178e+01    2.104361e+00
  1.384766e+01    2.086364e+00
  1.386353e+01    2.079400e+00
  1.387941e+01    2.086351e+00
  1.389528e+01    2.062878e+00
  1.391116e+01    2.075165e+00
  1.392703e+01    2.029533e+00
  1.394291e+01    2.029561e+00
  1.395879e+01    2.055635e+00
  1.397466e+01    1.999787e+00
  1.399054e+01    2.000891e+00
  1.400641e+01    2.006414e+00
  1.402229e+01    2.031034e+00
  1.403816e+01    2.011584e+00
  1.405404e+01    1.995988e+00
  1.406991e+01    2.010993e+00
  1.408579e+01    1.969721e+00
  1.410167e+01    2.008760e+00
  1.411754e+01    1.978879e+00
  1.413342e+01    1.945029e+00
  1.414929e+01    1.980451e+00
  1.416517e+01    2.008176e+00
  1.418104e+01    1.970874e+00
  1.419692e+01    1.956812e+00
  1.421279e+01    1.951033e+00
  1.422867e+01    1.914529e+00
  1.424455e+01    1.966937e+00
  1.426042e+01    1.974597e+00
  1.427630e+01    1.948674e+00
  1.429217e+01    1.912426e+00
  1.430805e+01    1.959475e+00
  1.432392e+01    1.950454e+00
  1.433980e+01    1.923464e+00
  1.435568e+01    1.932949e+00
  1.437155e+01    1.940500e+00
  1.438743e+01    1.927054e+00
  1.440330e+01    1.912883e+00
  1.441918e+01    1.901863e+00
  1.443505e+01    1.876258e+00
  1.445093e+01    1.914427e+00
  1.446680e+01    1.908448e+00
  1.448268e+01    1.895167e+00
  1.449856e+01    1.900789e+00
  1.451443e+01    1.936426e+00
  1.453031e+01    1.918985e+00
  1.454618e+01    1.874728e+00
  1.456206e+01    1.893170e+00
  1.457793e+01    1.903048e+00
  1.459381e+01    1.876706e+00
  1.460968e+01    1.881786e+00
  1.462556e+01    1.887359e+00
  1.464144e+01    1.925728e+00
  1.465731e+01    1.893989e+00
  1.467319e+01    1.867651e+00
  1.468906e+01    1.890933e+00
  1.470494e+01    1.908552e+00
  1.472081e+01    1.912040e+00
  1.473669e+01    1.922557e+00
  1.475256e+01    1.927953e+00
  1.476844e+01    1.895575e+00
  1.478432e+01    1.867609e+00
  1.480019e+01    1.889575e+00
  1.481607e+01    1.887526e+00
  1.483194e+01    1.868157e+00
  1.484782e+01    1.864754e+00
  1.486369e+01    1.928628e+00
  1.487957e+01    1.905263e+00
  1.489544e+01    1.903896e+00
  1.491132e+01    1.900637e+00
  1.492720e+01    1.916975e+00
  1.494307e+01    1.976538e+00
  1.495895e+01    1.975082e+00
  1.497482e+01    2.005657e+00
  1.499070e+01    2.050635e+00
  1.500657e+01    2.125310e+00
  1.502245e+01    2.170913e+00
  1.503832e+01    2.246041e+00
  1.505420e+01    2.348012e+00
  1.507008e+01    2.443509e+00
  1.508595e+01    2.612441e+00
  1.510183e+01    2.851545e+00
  1.511770e+01    3.067568e+00
  1.513358e+01    3.363631e+00
  1.514945e+01    3.701214e+00
  1.516533e+01    4.056808e+00
  1.518120e+01    4.454201e+00
  1.519708e+01    4.842615e+00
  1.521296e+01    5.174055e+00
  1.522883e+01    5.451129e+00
  1.524471e+01    5.764274e+00
  1.526058e+01    5.953838e+00
  1.527646e+01    5.948072e+00
  1.529233e+01    5.819885e+00
  1.530821e+01    5.621312e+00
  1.532409e+01    5.150277e+00
  1.533996e+01    4.555682e+00
  1.535584e+01    4.001726e+00
  1.537171e+01    3.534010e+00
  1.538759e+01    3.190680e+00
  1.540346e+01    2.908208e+00
  1.541934e+01    2.667720e+00
  1.543521e+01    2.500989e+00
  1.545109e+01    2.383294e+00
  1.546697e+01    2.222100e+00
  1.548284e+01    2.154214e+00
  1.549872e+01    2.051732e+00
  1.551459e+01    2.004458e+00
  1.553047e+01    1.988657e+00
  1.554634e+01    1.938366e+00
  1.556222e+01    1.859851e+00
  1.557809e+01    1.898586e+00
  1.559397e+01    1.806966e+00
  1.560985e+01    1.783183e+00
  1.562572e+01    1.779248e+00
  1.564160e+01    1.776285e+00
  1.565747e+01    1.752862e+00
  1.567335e+01    1.730864e+00
  1.568922e+01    1.744426e+00
  1.570510e+01    1.737352e+00
  1.572097e+01    1.715049e+00
  1.573685e+01    1.718881e+00
  1.575273e+01    1.694141e+00
  1.576860e+01    1.663668e+00
  1.578448e+01    1.642138e+00
  1.580035e+01    1.667192e+00
  1.581623e+01    1.635763e+00
  1.583210e+01    1.614223e+00
  1.584798e+01    1.624791e+00
  1.586385e+01    1.642560e+00
  1.587973e+01    1.603103e+00
  1.589561e+01    1.621080e+00
  1.591148e+01    1.598500e+00
  1.592736e+01    1.603145e+00
  1.594323e+01    1.594659e+00
  1.595911e+01    1.616125e+00
  1.597498e+01    1.603163e+00
  1.599086e+01    1.599920e+00
  1.600673e+01    1.606849e+00
  1.602261e+01    1.600862e+00
  1.603849e+01    1.601282e+00
  1.605436e+01    1.570521e+00
  1.607024e+01    1.534260e+00
  1.608611e+01    1.565800e+00
  1.610199e+01    1.549156e+00
  1.611786e+01    1.554117e+00
  1.613374e+01    1.557651e+00
  1.614961e+01    1.551853e+00
  1.616549e+01    1.552297e+00
  1.618137e+01    1.521328e+00
  1.619724e+01    1.541339e+00
  1.621312e+01    1.552967e+00
  1.622899e+01    1.545551e+00
  1.624487e+01    1.522096e+00
  1.626074e+01    1.505502e+00
  1.627662e+01    1.517355e+00
  1.629250e+01    1.533326e+00
  1.630837e+01    1.506298e+00
  1.632425e+01    1.512264e+00
  1.634012e+01    1.520802e+00
  1.635600e+01    1.540873e+00
  1.637187e+01    1.518624e+00
  1.638775e+01    1.508694e+00
  1.640362e+01    1.505265e+00
  1.641950e+01    1.472509e+00
  1.643538e+01    1.489932e+00
  1.645125e+01    1.513144e+00
  1.646713e+01    1.527799e+00
  1.648300e+01    1.496329e+00
  1.649888e+01    1.515106e+00
  1.651475e+01    1.475957e+00
  1.653063e+01    1.481477e+00
  1.654650e+01    1.507491e+00
  1.656238e+01    1.496135e+00
  1.657826e+01    1.481800e+00
  1.659413e+01    1.467974e+00
  1.661001e+01    1.469937e+00
  1.662588e+01    1.459194e+00
  1.664176e+01    1.499833e+00
  1.665763e+01    1.465796e+00
  1.667351e+01    1.445887e+00
  1.668938e+01    1.456082e+00
  1.670526e+01    1.482468e+00
  1.672114e+01    1.453201e+00
  1.673701e+01    1.447312e+00
  1.675289e+01    1.441036e+00
  1.676876e+01    1.458650e+00
  1.678464e+01    1.483784e+00
  1.680051e+01    1.445971e+00
  1.681639e+01    1.428223e+00
  1.683226e+01    1.458388e+00
  1.684814e+01    1.436426e+00
  1.686402e+01    1.431714e+00
  1.687989e+01    1.434672e+00
  1.689577e+01    1.406698e+00
  1.691164e+01    1.432515e+00
  1.692752e+01    1.415378e+00
  1.694339e+01    1.438128e+00
  1.695927e+01    1.427744e+00
  1.697514e+01    1.445625e+00
  1.699102e+01    1.440989e+00
  1.700690e+01    1.398574e+00
  1.702277e+01    1.449120e+00
  1.703865e+01    1.435252e+00
  1.705452e+01    1.366434e+00
  1.707040e+01    1.376653e+00
  1.708627e+01    1.409268e+00
  1.710215e+01    1.402679e+00
  1.711802e+01    1.399998e+00
  1.713390e+01    1.401716e+00
  1.714978e+01    1.413621e+00
  1.716565e+01    1.420239e+00
  1.718153e+01    1.407047e+00
  1.719740e+01    1.391259e+00
  1.721328e+01    1.369184e+00
  1.722915e+01    1.398433e+00
  1.724503e+01    1.363797e+00
  1.726091e+01    1.345412e+00
  1.727678e+01    1.368272e+00
  1.729266e+01    1.357843e+00
  1.730853e+01    1.378673e+00
  1.732441e+01    1.385947e+00
  1.734028e+01    1.355315e+00
  1.735616e+01    1.315965e+00
  1.737203e+01    1.333641e+00
  1.738791e+01    1.337345e+00
  1.740379e+01    1.334565e+00
  1.741966e+01    1.355314e+00
  1.743554e+01    1.364682e+00
  1.745141e+01    1.353116e+00
  1.746729e+01    1.333080e+00
  1.748316e+01    1.303431e+00
  1.749904e+01    1.346531e+00
  1.751491e+01    1.373722e+00
  1.753079e+01    1.323497e+00
  1.754667e+01    1.323738e+00
  1.756254e+01    1.334920e+00
  1.757842e+01    1.361858e+00
  1.759429e+01    1.346111e+00
  1.761017e+01    1.363013e+00
  1.762604e+01    1.345157e+00
  1.764192e+01    1.347750e+00
  1.765779e+01    1.315317e+00
  1.767367e+01    1.328859e+00
  1.768955e+01    1.324139e+00
  1.770542e+01    1.325308e+00
  1.772130e+01    1.324401e+00
  1.773717e+01    1.313475e+00
  1.775305e+01    1.300321e+00
  1.776892e+01    1.275892e+00
  1.778480e+01    1.301565e+00
  1.780067e+01    1.293124e+00
  1.781655e+01    1.284851e+00
  1.783243e+01    1.288764e+00
  1.784830e+01    1.316303e+00
  1.786418e+01    1.314328e+00
  1.788005e+01    1.293661e+00
  1.789593e+01    1.282922e+00
  1.791180e+01    1.287555e+00
  1.792768e+01    1.302306e+00
  1.794355e+01    1.321023e+00
  1.795943e+01    1.325288e+00
  1.797531e+01    1.295250e+00
  1.799118e+01    1.281943e+00
  1.800706e+01    1.272997e+00
  1.802293e+01    1.268988e+00
  1.803881e+01    1.275070e+00
  1.805468e+01    1.285401e+00
  1.807056e+01    1.304440e+00
  1.808643e+01    1.296146e+00
  1.810231e+01    1.275536e+00
  1.811819e+01    1.265306e+00
  1.813406e+01    1.263799e+00
  1.814994e+01    1.277601e+00
  1.816581e+01    1.266201e+00
  1.818169e+01    1.284282e+00
  1.819756e+01    1.278707e+00
  1.821344e+01    1.254891e+00
  1.822932e+01    1.280187e+00
  1.824519e+01    1.255996e+00
  1.826107e+01    1.261597e+00
  1.827694e+01    1.269225e+00
  1.829282e+01    1.275175e+00
  1.830869e+01    1.260779e+00
  1.832457e+01    1.278535e+00
  1.834044e+01    1.242942e+00
  1.835632e+01    1.233989e+00
  1.837220e+01    1.236406e+00
  1.838807e+01    1.238640e+00
  1.840395e+01    1.217969e+00
  1.841982e+01    1.231452e+00
  1.843570e+01    1.219912e+00
  1.845157e+01    1.197587e+00
  1.846745e+01    1.251085e+00
  1.848332e+01    1.252887e+00
  1.849920e+01    1.259764e+00
  1.851508e+01    1.224064e+00
  1.853095e+01    1.211937e+00
  1.854683e+01    1.213929e+00
  1.856270e+01    1.227434e+00
  1.857858e+01    1.234065e+00
  1.859445e+01    1.214902e+00
  1.861033e+01    1.228968e+00
  1.862620e+01    1.219317e+00
  1.864208e+01    1.226700e+00
  1.865796e+01    1.203034e+00
  1.867383e+01    1.195503e+00
  1.868971e+01    1.207184e+00
  1.870558e+01    1.197186e+00
  1.872146e+01    1.194122e+00
  1.873733e+01    1.198585e+00
  1.875321e+01    1.192990e+00
  1.876908e+01    1.212244e+00
  1.878496e+01    1.198323e+00
  1.880084e+01    1.186202e+00
  1.881671e+01    1.201124e+00
  1.883259e+01    1.221005e+00
  1.884846e+01    1.186979e+00
  1.886434e+01    1.174811e+00
  1.888021e+01    1.193186e+00
  1.889609e+01    1.193850e+00
  1.891196e+01    1.178647e+00
  1.892784e+01    1.177032e+00
  1.894372e+01    1.174558e+00
  1.895959e+01    1.172323e+00
  1.897547e+01    1.183214e+00
  1.899134e+01    1.199495e+00
  1.900722e+01    1.183279e+00
  1.902309e+01    1.166727e+00
  1.903897e+01    1.177534e+00
  1.905484e+01    1.166563e+00
  1.907072e+01    1.177574e+00
  1.908660e+01    1.206325e+00
  1.910247e+01    1.229005e+00
  1.911835e+01    1.204098e+00
  1.913422e+01    1.161108e+00
  1.915010e+01    1.145622e+00
  1.916597e+01    1.161821e+00
  1.918185e+01    1.177011e+00
  1.919773e+01    1.196319e+00
  1.921360e+01    1.168021e+00
  1.922948e+01    1.172685e+00
  1.924535e+01    1.174855e+00
  1.926123e+01    1.171771e+00
  1.927710e+01    1.147218e+00
  1.929298e+01    1.145409e+00
  1.930885e+01    1.151561e+00
  1.932473e+01    1.150262e+00
  1.934061e+01    1.145737e+00
  1.935648e+01    1.159682e+00
  1.937236e+01    1.170393e+00
  1.938823e+01    1.173334e+00
  1.940411e+01    1.154031e+00
  1.941998e+01    1.130960e+00
  1.943586e+01    1.143335e+00
  1.945173e+01    1.118805e+00
  1.946761e+01    1.137150e+00
  1.948349e+01    1.156450e+00
  1.949936e+01    1.148995e+00
  1.951524e+01    1.159848e+00
  1.953111e+01    1.155090e+00
  1.954699e+01    1.168768e+00
  1.956286e+01    1.150541e+00
  1.957874e+01    1.147022e+00
  1.959461e+01    1.140660e+00
  1.961049e+01    1.170698e+00
  1.962637e+01    1.157393e+00
  1.964224e+01    1.123861e+00
  1.965812e+01    1.126235e+00
  1.967399e+01    1.126811e+00
  1.968987e+01    1.126211e+00
  1.970574e+01    1.131254e+00
  1.972162e+01    1.125611e+00
  1.973749e+01    1.113726e+00
  1.975337e+01    1.110730e+00
  1.976925e+01    1.115022e+00
  1.978512e+01    1.150533e+00
  1.980100e+01    1.147971e+00
  1.981687e+01    1.132468e+00
  1.983275e+01    1.127817e+00
  1.984862e+01    1.121055e+00
  1.986450e+01    1.111148e+00
  1.988037e+01    1.124687e+00
  1.989625e+01    1.103789e+00
  1.991213e+01    1.106501e+00
  1.992800e+01    1.112415e+00
  1.994388e+01    1.103728e+00
  1.995975e+01    1.113605e+00
  1.997563e+01    1.108576e+00
  1.999150e+01    1.092034e+00
  2.000738e+01    1.112957e+00
  2.002325e+01    1.134488e+00
  2.003913e+01    1.111086e+00
  2.005501e+01    1.115100e+00
  2.007088e+01    1.108356e+00
  2.008676e+01    1.122782e+00
  2.010263e+01    1.112270e+00
  2.011851e+01    1.103374e+00
  2.013438e+01    1.087944e+00
  2.015026e+01    1.088945e+00
  2.016614e+01    1.094306e+00
  2.018201e+01    1.113066e+00
  2.019789e+01    1.092174e+00
  2.021376e+01    1.076600e+00
  2.022964e+01    1.082713e+00
  2.024551e+01    1.119508e+00
  2.026139e+01    1.093219e+00
  2.027726e+01    1.071511e+00
  2.029314e+01    1.073314e+00
  2.030902e+01    1.077451e+00
  2.032489e+01    1.093074e+00
  2.034077e+01    1.079810e+00
  2.035664e+01    1.085462e+00
  2.037252e+01    1.110142e+00
  2.038839e+01    1.090665e+00
  2.040427e+01    1.097607e+00
  2.042014e+01    1.069702e+00
  2.043602e+01    1.088790e+00
  2.045190e+01    1.074249e+00
  2.046777e+01    1.072730e+00
  2.048365e+01    1.071996e+00
  2.049952e+01    1.094719e+00
  2.051540e+01    1.099540e+00
  2.053127e+01    1.080918e+00
  2.054715e+01    1.060503e+00
  2.056302e+01    1.068964e+00
  2.057890e+01    1.064111e+00
  2.059478e+01    1.064559e+00
  2.061065e+01    1.065648e+00
  2.062653e+01    1.061852e+00
  2.064240e+01    1.060445e+00
  2.065828e+01    1.068692e+00
  2.067415e+01    1.050642e+00
  2.069003e+01    1.053675e+00
  2.070590e+01    1.066116e+00
  2.072178e+01    1.071522e+00
  2.073766e+01    1.074078e+00
  2.075353e+01    1.054098e+00
  2.076941e+01    1.075541e+00
  2.078528e+01    1.083498e+00
  2.080116e+01    1.061537e+00
  2.081703e+01    1.063726e+00
  2.083291e+01    1.055543e+00
  2.084878e+01    1.052156e+00
  2.086466e+01    1.068246e+00
  2.088054e+01    1.086273e+00
  2.089641e+01    1.055706e+00
  2.091229e+01    1.065680e+00
  2.092816e+01    1.074819e+00
  2.094404e+01    1.068703e+00
  2.095991e+01    1.085694e+00
  2.097579e+01    1.065781e+00
  2.099166e+01    1.061934e+00
  2.100754e+01    1.072133e+00
  2.102342e+01    1.065763e+00
  2.103929e+01    1.031642e+00
  2.105517e+01    1.051117e+00
  2.107104e+01    1.055279e+00
  2.108692e+01    1.066495e+00
  2.110279e+01    1.080088e+00
  2.111867e+01    1.063479e+00
  2.113455e+01    1.065884e+00
  2.115042e+01    1.078804e+00
  2.116630e+01    1.084910e+00
  2.118217e+01    1.064191e+00
  2.119805e+01    1.087069e+00
  2.121392e+01    1.084588e+00
  2.122980e+01    1.099424e+00
  2.124567e+01    1.086411e+00
  2.126155e+01    1.065039e+00
  2.127743e+01    1.092258e+00
  2.129330e+01    1.116680e+00
  2.130918e+01    1.122370e+00
  2.132505e+01    1.138297e+00
  2.134093e+01    1.125960e+00
  2.135680e+01    1.137554e+00
  2.137268e+01    1.146611e+00
  2.138855e+01    1.144009e+00
  2.140443e+01    1.158627e+00
  2.142031e+01    1.191815e+00
  2.143618e+01    1.183883e+00
  2.145206e+01    1.212100e+00
  2.146793e+01    1.239812e+00
  2.148381e+01    1.239686e+00
  2.149968e+01    1.250655e+00
  2.151556e+01    1.279007e+00
  2.153143e+01    1.307691e+00
  2.154731e+01    1.351994e+00
  2.156319e+01    1.385897e+00
  2.157906e+01    1.406327e+00
  2.159494e+01    1.481949e+00
  2.161081e+01    1.548673e+00
  2.162669e+01    1.645619e+00
  2.164256e+01    1.756536e+00
  2.165844e+01    1.899075e+00
  2.167431e+01    2.042682e+00
  2.169019e+01    2.187769e+00
  2.170607e+01    2.423159e+00
  2.172194e+01    2.746779e+00
  2.173782e+01    3.105611e+00
  2.175369e+01    3.534038e+00
  2.176957e+01    4.030774e+00
  2.178544e+01    4.625465e+00
  2.180132e+01    5.322177e+00
  2.181719e+01    6.000320e+00
  2.183307e+01    6.709544e+00
  2.184895e+01    7.484647e+00
  2.186482e+01    8.232401e+00
  2.188070e+01    8.878962e+00
  2.189657e+01    9.386729e+00
  2.191245e+01    9.605709e+00
  2.192832e+01    9.462854e+00
  2.194420e+01    8.847781e+00
  2.196007e+01    7.923480e+00
  2.197595e+01    6.904778e+00
  2.199183e+01    5.966200e+00
  2.200770e+01    5.005126e+00
  2.202358e+01    4.177435e+00
  2.203945e+01    3.615456e+00
  2.205533e+01    3.191121e+00
  2.207120e+01    2.783617e+00
  2.208708e+01    2.484710e+00
  2.210296e+01    2.234871e+00
  2.211883e+01    2.078443e+00
  2.213471e+01    1.892062e+00
  2.215058e+01    1.741984e+00
  2.216646e+01    1.640724e+00
  2.218233e+01    1.577627e+00
  2.219821e+01    1.502409e+00
  2.221408e+01    1.435081e+00
  2.222996e+01    1.388685e+00
  2.224584e+01    1.320723e+00
  2.226171e+01    1.281610e+00
  2.227759e+01    1.245732e+00
  2.229346e+01    1.192677e+00
  2.230934e+01    1.168731e+00
  2.232521e+01    1.156071e+00
  2.234109e+01    1.148606e+00
  2.235696e+01    1.124769e+00
  2.237284e+01    1.140462e+00
  2.238872e+01    1.109260e+00
  2.240459e+01    1.096334e+00
  2.242047e+01    1.075063e+00
  2.243634e+01    1.045320e+00
  2.245222e+01    1.037743e+00
  2.246809e+01    1.038339e+00
  2.248397e+01    1.027601e+00
  2.249984e+01    1.023669e+00
  2.251572e+01    1.025336e+00
  2.253160e+01    1.015295e+00
  2.254747e+01    1.008923e+00
  2.256335e+01    9.878033e-01
  2.257922e+01    9.895914e-01
  2.259510e+01    9.895574e-01
  2.261097e+01    9.833787e-01
  2.262685e+01    9.636744e-01
  2.264272e+01    9.486055e-01
  2.265860e+01    9.735571e-01
  2.267448e+01    9.520164e-01
  2.269035e+01    9.544560e-01
  2.270623e+01    9.284860e-01
  2.272210e+01    9.327379e-01
  2.273798e+01    9.489650e-01
  2.275385e+01    9.477942e-01
  2.276973e+01    9.260776e-01
  2.278560e+01    9.188722e-01
  2.280148e+01    9.188048e-01
  2.281736e+01    9.076706e-01
  2.283323e+01    9.329854e-01
  2.284911e+01    9.332066e-01
  2.286498e+01    9.114180e-01
  2.288086e+01    9.241236e-01
  2.289673e+01    8.972563e-01
  2.291261e+01    9.160985e-01
  2.292848e+01    9.129559e-01
  2.294436e+01    8.993100e-01
  2.296024e+01    8.931420e-01
  2.297611e+01    9.046509e-01
  2.299199e+01    8.970054e-01
  2.300786e+01    8.798357e-01
  2.302374e+01    8.701971e-01
  2.303961e+01    8.829989e-01
  2.305549e+01    8.662753e-01
  2.307137e+01    8.770734e-01
  2.308724e+01    9.028524e-01
  2.310312e+01    8.849927e-01
  2.311899e+01    8.946598e-01
  2.313487e+01    8.751598e-01
  2.315074e+01    8.644227e-01
  2.316662e+01    8.753915e-01
  2.318249e+01    8.801352e-01
  2.319837e+01    8.576877e-01
  2.321425e+01    8.631613e-01
  2.323012e+01    8.871002e-01
  2.324600e+01    8.664744e-01
  2.326187e+01    8.633035e-01
  2.327775e+01    8.373516e-01
  2.329362e+01    8.592469e-01
  2.330950e+01    8.514430e-01
  2.332537e+01    8.409434e-01
  2.334125e+01    8.503053e-01
  2.335713e+01    8.508652e-01
  2.337300e+01    8.268530e-01
  2.338888e+01    8.462253e-01
  2.340475e+01    8.442830e-01
  2.342063e+01    8.468698e-01
  2.343650e+01    8.459094e-01
  2.345238e+01    8.444645e-01
  2.346825e+01    8.346786e-01
  2.348413e+01    8.258852e-01
  2.350001e+01    8.304492e-01
  2.351588e+01    8.319402e-01
  2.353176e+01    8.095230e-01
  2.354763e+01    8.257533e-01
  2.356351e+01    8.326198e-01
  2.357938e+01    8.367255e-01
  2.359526e+01    8.386387e-01
  2.361113e+01    8.464851e-01
  2.362701e+01    8.256909e-01
  2.364289e+01    8.283678e-01
  2.365876e+01    8.206128e-01
  2.367464e+01    8.161415e-01
  2.369051e+01    8.100312e-01
  2.370639e+01    8.062438e-01
  2.372226e+01    8.078564e-01
  2.373814e+01    8.104378e-01
  2.375401e+01    8.066940e-01
  2.376989e+01    8.054644e-01
  2.378577e+01    7.955375e-01
  2.380164e+01    7.986203e-01
  2.381752e+01    8.124288e-01
  2.383339e+01    8.004449e-01
  2.384927e+01    7.908360e-01
  2.386514e+01    7.785523e-01
  2.388102e+01    7.891363e-01
  2.389689e+01    8.005878e-01
  2.391277e+01    7.823189e-01
  2.392865e+01    7.704017e-01
  2.394452e+01    7.739885e-01
  2.396040e+01    7.765207e-01
  2.397627e+01    7.785131e-01
  2.399215e+01    7.768241e-01
  2.400802e+01    7.815507e-01
  2.402390e+01    7.874261e-01
  2.403978e+01    7.925926e-01
  2.405565e+01    7.881713e-01
  2.407153e+01    7.774425e-01
  2.408740e+01    7.587649e-01
  2.410328e+01    7.498495e-01
  2.411915e+01    7.693453e-01
  2.413503e+01    7.592250e-01
  2.415090e+01    7.525351e-01
  2.416678e+01    7.689045e-01
  2.418266e+01    7.815046e-01
  2.419853e+01    7.809799e-01
  2.421441e+01    7.664071e-01
  2.423028e+01    7.701975e-01
  2.424616e+01    7.561257e-01
  2.426203e+01    7.633670e-01
  2.427791e+01    7.790921e-01
  2.429378e+01    7.758827e-01
  2.430966e+01    7.830165e-01
  2.432554e+01    7.854198e-01
  2.434141e+01    7.734329e-01
  2.435729e+01    7.769509e-01
  2.437316e+01    7.629642e-01
  2.438904e+01    7.613504e-01
  2.440491e+01    7.778795e-01
  2.442079e+01    7.756716e-01
  2.443666e+01    7.708664e-01
  2.445254e+01    7.639238e-01
  2.446842e+01    7.669146e-01
  2.448429e+01    7.731101e-01
  2.450017e+01    7.735046e-01
  2.451604e+01    7.725658e-01
  2.453192e+01    7.863163e-01
  2.454779e+01    7.756165e-01
  2.456367e+01    7.893872e-01
  2.457954e+01    7.771195e-01
  2.459542e+01    7.767148e-01
  2.461130e+01    7.774323e-01
  2.462717e+01    7.710828e-01
  2.464305e+01    7.741962e-01
  2.465892e+01    7.907938e-01
  2.467480e+01    7.861584e-01
  2.469067e+01    7.576881e-01
  2.470655e+01    7.649590e-01
  2.472242e+01    7.642860e-01
  2.473830e+01    7.602628e-01
  2.475418e+01    7.681643e-01
  2.477005e+01    7.686720e-01
  2.478593e+01    7.601968e-01
  2.480180e+01    7.883762e-01
  2.481768e+01    7.827432e-01
  2.483355e+01    7.785049e-01
  2.484943e+01    7.931599e-01
  2.486530e+01    7.903835e-01
  2.488118e+01    7.768081e-01
  2.489706e+01    7.840913e-01
  2.491293e+01    8.059502e-01
  2.492881e+01    8.021361e-01
  2.494468e+01    7.836015e-01
  2.496056e+01    7.925319e-01
  2.497643e+01    7.746977e-01
  2.499231e+01    7.815605e-01
  2.500819e+01    7.982761e-01
  2.502406e+01    8.083344e-01
  2.503994e+01    7.945027e-01
  2.505581e+01    8.140002e-01
  2.507169e+01    7.960336e-01
  2.508756e+01    7.808444e-01
  2.510344e+01    7.951805e-01
  2.511931e+01    8.159027e-01
  2.513519e+01    8.031372e-01
  2.515107e+01    7.995152e-01
  2.516694e+01    8.118610e-01
  2.518282e+01    8.069596e-01
  2.519869e+01    8.209250e-01
  2.521457e+01    8.181630e-01
  2.523044e+01    8.143301e-01
  2.524632e+01    8.321397e-01
  2.526219e+01    8.367370e-01
  2.527807e+01    8.446075e-01
  2.529395e+01    8.560255e-01
  2.530982e+01    8.743233e-01
  2.532570e+01    8.706478e-01
  2.534157e+01    8.555273e-01
  2.535745e+01    8.608822e-01
  2.537332e+01    8.596273e-01
  2.538920e+01    8.651226e-01
  2.540507e+01    9.012212e-01
  2.542095e+01    8.954059e-01
  2.543683e+01    9.032420e-01
  2.545270e+01    9.109889e-01
  2.546858e+01    9.224112e-01
  2.548445e+01    9.279834e-01
  2.550033e+01    9.650174e-01
  2.551620e+01    9.815662e-01
  2.553208e+01    1.010844e+00
  2.554795e+01    1.030706e+00
  2.556383e+01    1.038189e+00
  2.557971e+01    1.072797e+00
  2.559558e+01    1.087849e+00
  2.561146e+01    1.125585e+00
  2.562733e+01    1.187094e+00
  2.564321e+01    1.217329e+00
  2.565908e+01    1.214403e+00
  2.567496e+01    1.275420e+00
  2.569083e+01    1.373710e+00
  2.570671e+01    1.416515e+00
  2.572259e+01    1.542846e+00
  2.573846e+01    1.683219e+00
  2.575434e+01    1.825694e+00
  2.577021e+01    1.976291e+00
  2.578609e+01    2.211833e+00
  2.580196e+01    2.478162e+00
  2.581784e+01    2.759086e+00
  2.583371e+01    3.143797e+00
  2.584959e+01    3.597322e+00
  2.586547e+01    4.192673e+00
  2.588134e+01    4.816065e+00
  2.589722e+01    5.450799e+00
  2.591309e+01    6.104385e+00
  2.592897e+01    6.724982e+00
  2.594484e+01    7.290350e+00
  2.596072e+01    7.648787e+00
  2.597660e+01    7.915686e+00
  2.599247e+01    7.920990e+00
  2.600835e+01    7.374721e+00
  2.602422e+01    6.758599e+00
  2.604010e+01    5.956641e+00
  2.605597e+01    5.122091e+00
  2.607185e+01    4.414979e+00
  2.608772e+01    3.762280e+00
  2.610360e+01    3.221988e+00
  2.611948e+01    2.811361e+00
  2.613535e+01    2.502483e+00
  2.615123e+01    2.208364e+00
  2.616710e+01    1.997908e+00
  2.618298e+01    1.830762e+00
  2.619885e+01    1.672678e+00
  2.621473e+01    1.558037e+00
  2.623060e+01    1.471852e+00
  2.624648e+01    1.388561e+00
  2.626236e+01    1.315772e+00
  2.627823e+01    1.259449e+00
  2.629411e+01    1.181967e+00
  2.630998e+01    1.148836e+00
  2.632586e+01    1.103811e+00
  2.634173e+01    1.057783e+00
  2.635761e+01    1.031610e+00
  2.637348e+01    1.037834e+00
  2.638936e+01    1.033797e+00
  2.640524e+01    1.008098e+00
  2.642111e+01    9.868941e-01
  2.643699e+01    9.535682e-01
  2.645286e+01    9.614464e-01
  2.646874e+01    9.644081e-01
  2.648461e+01    9.319326e-01
  2.650049e+01    9.141020e-01
  2.651636e+01    9.374369e-01
  2.653224e+01    9.036754e-01
  2.654812e+01    9.169965e-01
  2.656399e+01    9.191087e-01
  2.657987e+01    9.021052e-01
  2.659574e+01    9.266356e-01
  2.661162e+01    8.989179e-01
  2.662749e+01    9.024010e-01
  2.664337e+01    9.031486e-01
  2.665924e+01    9.023389e-01
  2.667512e+01    8.819283e-01
  2.669100e+01    8.964891e-01
  2.670687e+01    9.060158e-01
  2.672275e+01    8.955175e-01
  2.673862e+01    8.762757e-01
  2.675450e+01    8.596733e-01
  2.677037e+01    8.807735e-01
  2.678625e+01    8.697616e-01
  2.680212e+01    8.961310e-01
  2.681800e+01    8.772982e-01
  2.683388e+01    8.774827e-01
  2.684975e+01    8.776913e-01
  2.686563e+01    9.014328e-01
  2.688150e+01    8.963498e-01
  2.689738e+01    9.105529e-01
  2.691325e+01    9.236284e-01
  2.692913e+01    9.231589e-01
  2.694501e+01    9.228927e-01
  2.696088e+01    9.563760e-01
  2.697676e+01    9.936991e-01
  2.699263e+01    1.006063e+00
  2.700851e+01    1.011205e+00
  2.702438e+01    1.016735e+00
  2.704026e+01    1.064806e+00
  2.705613e+01    1.120235e+00
  2.707201e+01    1.167257e+00
  2.708789e+01    1.243141e+00
  2.710376e+01    1.326731e+00
  2.711964e+01    1.438066e+00
  2.713551e+01    1.569114e+00
  2.715139e+01    1.723899e+00
  2.716726e+01    1.865477e+00
  2.718314e+01    2.002574e+00
  2.719901e+01    2.150483e+00
  2.721489e+01    2.269956e+00
  2.723077e+01    2.334780e+00
  2.724664e+01    2.323238e+00
  2.726252e+01    2.232355e+00
  2.727839e+01    2.140275e+00
  2.729427e+01    2.000828e+00
  2.731014e+01    1.813241e+00
  2.732602e+01    1.647772e+00
  2.734189e+01    1.522361e+00
  2.735777e+01    1.395319e+00
  2.737365e+01    1.273034e+00
  2.738952e+01    1.193021e+00
  2.740540e+01    1.134484e+00
  2.742127e+01    1.094070e+00
  2.743715e+01    1.011813e+00
  2.745302e+01    9.938851e-01
  2.746890e+01    9.740137e-01
  2.748477e+01    9.476960e-01
  2.750065e+01    9.111666e-01
  2.751653e+01    8.924118e-01
  2.753240e+01    8.988183e-01
  2.754828e+01    8.828642e-01
  2.756415e+01    8.756449e-01
  2.758003e+01    8.702224e-01
  2.759590e+01    8.449731e-01
  2.761178e+01    8.526562e-01
  2.762765e+01    8.560513e-01
  2.764353e+01    8.380295e-01
  2.765941e+01    8.282170e-01
  2.767528e+01    8.268911e-01
  2.769116e+01    8.297327e-01
  2.770703e+01    8.079348e-01
  2.772291e+01    8.041833e-01
  2.773878e+01    8.220455e-01
  2.775466e+01    8.106996e-01
  2.777054e+01    8.091167e-01
  2.778641e+01    8.023940e-01
  2.780229e+01    8.047038e-01
  2.781816e+01    8.040529e-01
  2.783404e+01    8.273247e-01
  2.784991e+01    8.221770e-01
  2.786579e+01    8.054281e-01
  2.788166e+01    7.931812e-01
  2.789754e+01    7.823070e-01
  2.791342e+01    7.954324e-01
  2.792929e+01    7.843866e-01
  2.794517e+01    7.918594e-01
  2.796104e+01    7.838473e-01
  2.797692e+01    7.920122e-01
  2.799279e+01    7.927945e-01
  2.800867e+01    7.681104e-01
  2.802454e+01    7.687274e-01
  2.804042e+01    7.788198e-01
  2.805630e+01    7.986356e-01
  2.807217e+01    7.755551e-01
  2.808805e+01    7.702349e-01
  2.810392e+01    7.694161e-01
  2.811980e+01    7.634802e-01
  2.813567e+01    7.786663e-01
  2.815155e+01    7.603279e-01
  2.816742e+01    7.620811e-01
  2.818330e+01    7.723716e-01
  2.819918e+01    7.783329e-01
  2.821505e+01    7.594369e-01
  2.823093e+01    7.500828e-01
  2.824680e+01    7.635463e-01
  2.826268e+01    7.906544e-01
  2.827855e+01    7.786721e-01
  2.829443e+01    7.755467e-01
  2.831030e+01    7.808483e-01
  2.832618e+01    7.656373e-01
  2.834206e+01    7.526346e-01
  2.835793e+01    7.643303e-01
  2.837381e+01    7.585146e-01
  2.838968e+01    7.694096e-01
  2.840556e+01    7.673143e-01
  2.842143e+01    7.532318e-01
  2.843731e+01    7.560204e-01
  2.845318e+01    7.347010e-01
  2.846906e+01    7.672076e-01
  2.848494e+01    7.650342e-01
  2.850081e+01    7.669460e-01
  2.851669e+01    7.584345e-01
  2.853256e+01    7.235473e-01
  2.854844e+01    7.442887e-01
  2.856431e+01    7.643318e-01
  2.858019e+01    7.675301e-01
  2.859606e+01    7.389844e-01
  2.861194e+01    7.172652e-01
  2.862782e+01    7.407144e-01
  2.864369e+01    7.476311e-01
  2.865957e+01    7.531824e-01
  2.867544e+01    7.234781e-01
  2.869132e+01    7.247454e-01
  2.870719e+01    7.378901e-01
  2.872307e+01    7.451718e-01
  2.873895e+01    7.477442e-01
  2.875482e+01    7.541922e-01
  2.877070e+01    7.449921e-01
  2.878657e+01    7.508974e-01
  2.880245e+01    7.437342e-01
  2.881832e+01    7.244578e-01
  2.883420e+01    7.308488e-01
  2.885007e+01    7.406079e-01
  2.886595e+01    7.225472e-01
  2.888183e+01    7.287700e-01
  2.889770e+01    7.269295e-01
  2.891358e+01    7.274314e-01
  2.892945e+01    7.210428e-01
  2.894533e+01    7.049718e-01
  2.896120e+01    7.235911e-01
  2.897708e+01    7.479008e-01
  2.899295e+01    7.401529e-01
  2.900883e+01    7.302203e-01
  2.902471e+01    7.207077e-01
  2.904058e+01    7.285417e-01
  2.905646e+01    7.268287e-01
  2.907233e+01    7.321690e-01
  2.908821e+01    7.306232e-01
  2.910408e+01    7.355949e-01
  2.911996e+01    7.421851e-01
  2.913583e+01    7.371253e-01
  2.915171e+01    7.350349e-01
  2.916759e+01    7.499805e-01
  2.918346e+01    7.286224e-01
  2.919934e+01    7.198871e-01
  2.921521e+01    7.249959e-01
  2.923109e+01    7.257484e-01
  2.924696e+01    7.149252e-01
  2.926284e+01    7.271765e-01
  2.927871e+01    7.230925e-01
  2.929459e+01    7.195767e-01
  2.931047e+01    7.175971e-01
  2.932634e+01    7.082084e-01
  2.934222e+01    7.062582e-01
  2.935809e+01    7.134833e-01
  2.937397e+01    7.094032e-01
  2.938984e+01    7.193778e-01
  2.940572e+01    7.198795e-01
  2.942159e+01    7.326424e-01
  2.943747e+01    7.276531e-01
  2.945335e+01    7.181835e-01
  2.946922e+01    7.107111e-01
  2.948510e+01    7.199593e-01
  2.950097e+01    7.457823e-01
  2.951685e+01    7.111328e-01
  2.953272e+01    7.246386e-01
  2.954860e+01    7.307948e-01
  2.956447e+01    7.151083e-01
  2.958035e+01    7.222723e-01
  2.959623e+01    7.143039e-01
  2.961210e+01    7.219208e-01
  2.962798e+01    7.245922e-01
  2.964385e+01    6.986496e-01
  2.965973e+01    7.098060e-01
  2.967560e+01    7.262528e-01
  2.969148e+01    7.113206e-01
  2.970736e+01    7.029644e-01
  2.972323e+01    7.018993e-01
  2.973911e+01    7.014987e-01
  2.975498e+01    6.995498e-01
  2.977086e+01    7.040415e-01
  2.978673e+01    7.179596e-01
  2.980261e+01    7.028271e-01
  2.981848e+01    7.189216e-01
  2.983436e+01    7.194618e-01
  2.985024e+01    7.222005e-01
  2.986611e+01    7.147127e-01
  2.988199e+01    7.162014e-01
  2.989786e+01    7.019632e-01
  2.991374e+01    7.042874e-01
  2.992961e+01    7.141957e-01
  2.994549e+01    7.177716e-01
  2.996136e+01    7.258505e-01
  2.997724e+01    7.228605e-01
  2.999312e+01    7.391027e-01
  3.000899e+01    7.197402e-01
  3.002487e+01    7.128782e-01
  3.004074e+01    7.206340e-01
  3.005662e+01    7.302693e-01
  3.007249e+01    7.445632e-01
  3.008837e+01    7.273626e-01
  3.010424e+01    7.275643e-01
  3.012012e+01    7.308015e-01
  3.013600e+01    7.019050e-01
  3.015187e+01    7.253811e-01
  3.016775e+01    7.175669e-01
  3.018362e+01    7.101812e-01
  3.019950e+01    6.975942e-01
  3.021537e+01    7.034490e-01
  3.023125e+01    7.181262e-01
  3.024712e+01    7.196329e-01
  3.026300e+01    7.118260e-01
  3.027888e+01    7.093517e-01
  3.029475e+01    7.044947e-01
  3.031063e+01    7.067028e-01
  3.032650e+01    7.057065e-01
  3.034238e+01    6.910344e-01
  3.035825e+01    7.082201e-01
  3.037413e+01    7.084440e-01
  3.039000e+01    7.020895e-01
  3.040588e+01    6.977903e-01
  3.042176e+01    6.995088e-01
  3.043763e+01    6.951663e-01
  3.045351e+01    7.025035e-01
  3.046938e+01    7.007145e-01
  3.048526e+01    7.004806e-01
  3.050113e+01    7.221707e-01
  3.051701e+01    7.035196e-01
  3.053288e+01    6.934438e-01
  3.054876e+01    6.813133e-01
  3.056464e+01    7.063618e-01
  3.058051e+01    7.181771e-01
  3.059639e+01    7.047580e-01
  3.061226e+01    7.002409e-01
  3.062814e+01    6.934657e-01
  3.064401e+01    6.941756e-01
  3.065989e+01    6.965179e-01
  3.067577e+01    6.759564e-01
  3.069164e+01    7.053545e-01
  3.070752e+01    7.164595e-01
  3.072339e+01    7.204818e-01
  3.073927e+01    7.285231e-01
  3.075514e+01    7.260806e-01
  3.077102e+01    7.041199e-01
  3.078689e+01    7.042511e-01
  3.080277e+01    6.873072e-01
  3.081865e+01    6.881218e-01
  3.083452e+01    7.149798e-01
  3.085040e+01    6.900204e-01
  3.086627e+01    7.045724e-01
  3.088215e+01    7.002257e-01
  3.089802e+01    7.191470e-01
  3.091390e+01    7.265491e-01
  3.092977e+01    7.061948e-01
  3.094565e+01    7.171510e-01
  3.096153e+01    6.938978e-01
  3.097740e+01    6.899087e-01
  3.099328e+01    6.968163e-01
  3.100915e+01    6.848684e-01
  3.102503e+01    7.048479e-01
  3.104090e+01    6.980674e-01
  3.105678e+01    7.152410e-01
  3.107265e+01    7.199162e-01
  3.108853e+01    7.105861e-01
  3.110441e+01    7.287380e-01
  3.112028e+01    7.054825e-01
  3.113616e+01    7.187867e-01
  3.115203e+01    7.199425e-01
  3.116791e+01    7.204949e-01
  3.118378e+01    7.028531e-01
  3.119966e+01    7.019830e-01
  3.121553e+01    7.184924e-01
  3.123141e+01    7.203586e-01
  3.124729e+01    7.192950e-01
  3.126316e+01    7.120793e-01
  3.127904e+01    7.188358e-01
  3.129491e+01    7.327441e-01
  3.131079e+01    7.334829e-01
  3.132666e+01    7.213815e-01
  3.134254e+01    7.283751e-01
  3.135841e+01    7.191375e-01
  3.137429e+01    7.359471e-01
  3.139017e+01    7.465782e-01
  3.140604e+01    7.446927e-01
  3.142192e+01    7.456865e-01
  3.143779e+01    7.367849e-01
  3.145367e+01    7.377300e-01
  3.146954e+01    7.472451e-01
  3.148542e+01    7.666988e-01
  3.150129e+01    7.583516e-01
  3.151717e+01    7.648506e-01
  3.153305e+01    7.666993e-01
  3.154892e+01    7.741833e-01
  3.156480e+01    7.759941e-01
  3.158067e+01    7.845730e-01
  3.159655e+01    7.964115e-01
  3.161242e+01    8.067227e-01
  3.162830e+01    8.073910e-01
  3.164418e+01    8.078819e-01
  3.166005e+01    8.535826e-01
  3.167593e+01    8.885037e-01
  3.169180e+01    9.056604e-01
  3.170768e+01    9.550290e-01
  3.172355e+01    9.775243e-01
  3.173943e+01    9.999536e-01
  3.175530e+01    1.061162e+00
  3.177118e+01    1.118769e+00
  3.178706e+01    1.215853e+00
  3.180293e+01    1.301859e+00
  3.181881e+01    1.412943e+00
  3.183468e+01    1.562464e+00
  3.185056e+01    1.705889e+00
  3.186643e+01    1.879638e+00
  3.188231e+01    2.027628e+00
  3.189818e+01    2.192999e+00
  3.191406e+01    2.269638e+00
  3.192994e+01    2.293278e+00
  3.194581e+01    2.277955e+00
  3.196169e+01    2.150575e+00
  3.197756e+01    2.061043e+00
  3.199344e+01    1.909555e+00
  3.200931e+01    1.695995e+00
  3.202519e+01    1.535980e+00
  3.204106e+01    1.387933e+00
  3.205694e+01    1.303955e+00
  3.207282e+01    1.178033e+00
  3.208869e+01    1.095438e+00
  3.210457e+01    1.043600e+00
  3.212044e+01    9.771425e-01
  3.213632e+01    9.346004e-01
  3.215219e+01    9.044112e-01
  3.216807e+01    8.725322e-01
  3.218394e+01    8.683605e-01
  3.219982e+01    8.381804e-01
  3.221570e+01    8.288047e-01
  3.223157e+01    8.017432e-01
  3.224745e+01    8.082994e-01
  3.226332e+01    7.986996e-01
  3.227920e+01    7.619904e-01
  3.229507e+01    7.512949e-01
  3.231095e+01    7.685722e-01
  3.232682e+01    7.407776e-01
  3.234270e+01    7.418336e-01
  3.235858e+01    7.400660e-01
  3.237445e+01    7.321262e-01
  3.239033e+01    7.264048e-01
  3.240620e+01    7.413691e-01
  3.242208e+01    7.522429e-01
  3.243795e+01    7.305647e-01
  3.245383e+01    7.258160e-01
  3.246970e+01    7.008365e-01
  3.248558e+01    6.915566e-01
  3.250146e+01    7.195270e-01
  3.251733e+01    7.141731e-01
  3.253321e+01    7.174949e-01
  3.254908e+01    6.944703e-01
