# == pyFAI calibration ==
# Distance Sample to Detector: 0.3999999939076516 m
# PONI: 9.750e-02, 1.135e-01 m
# Rotations: -0.000175 0.000000 -0.000000 rad
# 
# == Fit2d calibration ==
# Distance Sample-beamCenter: 400.000 mm
# Center: x=1514.000, y=1300.000 pix
# Tilt: 0.010 deg  TiltPlanRot: 0.010 deg
# 
# Detector Detector	 Spline= None	 PixelSize= 7.500e-05, 7.500e-05 m
#    Detector has a mask: False 
#    Detector has a dark current: False 
#    detector has a flat field: False 
# 
# Wavelength: 6.888e-11 m
# Mask applied: user provided
# Dark current applied: False
# Flat field applied: False
# Polarization factor: 0.99
# Normalization factor: 1.0
# --> /home/myspot/data/2024_07_Rosario/Ru-CGO-ex/2024-07-27_002_Ru-CGO-ex_Activtation_ramp_000002_data_000181.dat
#       q_nm^-1             I 
  2.003187e-02    0.000000e+00
  3.590745e-02    0.000000e+00
  5.178302e-02    0.000000e+00
  6.765859e-02    0.000000e+00
  8.353417e-02    5.903240e-02
  9.940974e-02    9.471673e-02
  1.152853e-01    7.148739e-02
  1.311609e-01    5.665584e-02
  1.470365e-01    9.635152e-02
  1.629120e-01    4.739059e-03
  1.787876e-01    3.289542e-02
  1.946632e-01    2.815383e-02
  2.105388e-01    0.000000e+00
  2.264143e-01    7.596447e-03
  2.422899e-01    2.979182e-02
  2.581655e-01    4.688186e-02
  2.740411e-01    5.077140e-02
  2.899166e-01    2.107008e-02
  3.057922e-01    2.319742e-02
  3.216678e-01    4.854443e-02
  3.375433e-01    5.038471e-02
  3.534189e-01    5.399890e-02
  3.692945e-01    5.184374e-02
  3.851701e-01    5.504517e-03
  4.010456e-01    2.485662e-02
  4.169212e-01    3.072453e-02
  4.327968e-01    1.115865e-02
  4.486724e-01    7.301937e-03
  4.645479e-01    2.400850e-02
  4.804235e-01    3.870791e-02
  4.962991e-01    3.715085e-02
  5.121747e-01    2.445326e-02
  5.280502e-01    2.521288e-02
  5.439258e-01    4.346547e-02
  5.598014e-01    4.064637e-02
  5.756770e-01    4.066489e-02
  5.915525e-01    4.604626e-02
  6.074281e-01    2.862393e-02
  6.233037e-01    2.495273e-02
  6.391793e-01    4.301310e-02
  6.550548e-01    4.200739e-02
  6.709304e-01    4.851574e-02
  6.868060e-01    2.370948e-02
  7.026815e-01    3.285374e-02
  7.185571e-01    2.790745e-02
  7.344327e-01    2.930609e-02
  7.503083e-01    6.044830e-02
  7.661838e-01    7.894143e-02
  7.820594e-01    1.062800e-01
  7.979350e-01    1.034992e-01
  8.138106e-01    1.504570e-01
  8.296861e-01    2.736922e-01
  8.455617e-01    3.321261e-01
  8.614373e-01    3.532137e-01
  8.773129e-01    4.461663e-01
  8.931884e-01    4.680131e-01
  9.090640e-01    5.578690e-01
  9.249396e-01    6.363185e-01
  9.408152e-01    7.225853e-01
  9.566907e-01    8.086630e-01
  9.725663e-01    9.059836e-01
  9.884419e-01    9.694675e-01
  1.004317e+00    9.129262e-01
  1.020193e+00    1.014695e+00
  1.036069e+00    1.077600e+00
  1.051944e+00    1.201313e+00
  1.067820e+00    1.324270e+00
  1.083695e+00    1.270880e+00
  1.099571e+00    1.380303e+00
  1.115446e+00    1.467660e+00
  1.131322e+00    1.557451e+00
  1.147198e+00    1.497792e+00
  1.163073e+00    1.471607e+00
  1.178949e+00    1.598852e+00
  1.194824e+00    1.723765e+00
  1.210700e+00    1.907420e+00
  1.226575e+00    2.017780e+00
  1.242451e+00    2.108493e+00
  1.258327e+00    2.250910e+00
  1.274202e+00    2.223423e+00
  1.290078e+00    2.394274e+00
  1.305953e+00    2.466974e+00
  1.321829e+00    2.445622e+00
  1.337705e+00    2.416828e+00
  1.353580e+00    2.504327e+00
  1.369456e+00    2.676804e+00
  1.385331e+00    2.627123e+00
  1.401207e+00    2.532147e+00
  1.417082e+00    2.618437e+00
  1.432958e+00    2.574923e+00
  1.448834e+00    2.725596e+00
  1.464709e+00    2.766285e+00
  1.480585e+00    2.724232e+00
  1.496460e+00    2.629015e+00
  1.512336e+00    2.574528e+00
  1.528211e+00    2.782615e+00
  1.544087e+00    2.926141e+00
  1.559963e+00    2.979299e+00
  1.575838e+00    2.824221e+00
  1.591714e+00    2.797343e+00
  1.607589e+00    2.916926e+00
  1.623465e+00    2.802704e+00
  1.639340e+00    2.717813e+00
  1.655216e+00    2.821784e+00
  1.671092e+00    2.818960e+00
  1.686967e+00    2.736207e+00
  1.702843e+00    2.796585e+00
  1.718718e+00    2.825299e+00
  1.734594e+00    2.840695e+00
  1.750469e+00    2.826897e+00
  1.766345e+00    2.812457e+00
  1.782221e+00    2.703764e+00
  1.798096e+00    2.610698e+00
  1.813972e+00    2.671345e+00
  1.829847e+00    2.678296e+00
  1.845723e+00    2.634944e+00
  1.861598e+00    2.734473e+00
  1.877474e+00    2.753940e+00
  1.893350e+00    2.731175e+00
  1.909225e+00    2.681401e+00
  1.925101e+00    2.637673e+00
  1.940976e+00    2.739325e+00
  1.956852e+00    2.723832e+00
  1.972727e+00    2.661338e+00
  1.988603e+00    2.728950e+00
  2.004479e+00    2.699806e+00
  2.020354e+00    2.768992e+00
  2.036230e+00    2.715407e+00
  2.052105e+00    2.741999e+00
  2.067981e+00    2.750725e+00
  2.083856e+00    2.750787e+00
  2.099732e+00    2.717853e+00
  2.115608e+00    2.674155e+00
  2.131483e+00    2.710203e+00
  2.147359e+00    2.706089e+00
  2.163234e+00    2.711660e+00
  2.179110e+00    2.717756e+00
  2.194985e+00    2.800001e+00
  2.210861e+00    2.751143e+00
  2.226737e+00    2.716548e+00
  2.242612e+00    2.832592e+00
  2.258488e+00    2.861055e+00
  2.274363e+00    2.844598e+00
  2.290239e+00    2.813959e+00
  2.306115e+00    2.697509e+00
  2.321990e+00    2.797690e+00
  2.337866e+00    2.767122e+00
  2.353741e+00    2.749708e+00
  2.369617e+00    2.764177e+00
  2.385492e+00    2.791910e+00
  2.401368e+00    2.868588e+00
  2.417244e+00    2.775331e+00
  2.433119e+00    2.825683e+00
  2.448995e+00    2.844673e+00
  2.464870e+00    2.706248e+00
  2.480746e+00    2.719634e+00
  2.496621e+00    2.697244e+00
  2.512497e+00    2.791467e+00
  2.528373e+00    2.750436e+00
  2.544248e+00    2.731076e+00
  2.560124e+00    2.644590e+00
  2.575999e+00    2.796060e+00
  2.591875e+00    2.846813e+00
  2.607750e+00    2.874586e+00
  2.623626e+00    2.821989e+00
  2.639502e+00    2.870550e+00
  2.655377e+00    2.705014e+00
  2.671253e+00    2.767532e+00
  2.687128e+00    2.813517e+00
  2.703004e+00    2.836501e+00
  2.718879e+00    2.819899e+00
  2.734755e+00    2.748976e+00
  2.750631e+00    2.741895e+00
  2.766506e+00    2.677348e+00
  2.782382e+00    2.707587e+00
  2.798257e+00    2.757755e+00
  2.814133e+00    2.879553e+00
  2.830008e+00    2.860069e+00
  2.845884e+00    2.771530e+00
  2.861760e+00    2.745162e+00
  2.877635e+00    2.955349e+00
  2.893511e+00    2.950062e+00
  2.909386e+00    2.848724e+00
  2.925262e+00    2.862666e+00
  2.941137e+00    2.872976e+00
  2.957013e+00    2.913488e+00
  2.972889e+00    2.841104e+00
  2.988764e+00    2.752748e+00
  3.004640e+00    2.896897e+00
  3.020515e+00    2.936785e+00
  3.036391e+00    2.874656e+00
  3.052266e+00    2.868841e+00
  3.068142e+00    2.886757e+00
  3.084018e+00    2.761383e+00
  3.099893e+00    2.776689e+00
  3.115769e+00    2.921651e+00
  3.131644e+00    2.907925e+00
  3.147520e+00    2.892975e+00
  3.163395e+00    2.919365e+00
  3.179271e+00    2.905995e+00
  3.195147e+00    2.876148e+00
  3.211022e+00    2.907420e+00
  3.226898e+00    2.906628e+00
  3.242773e+00    2.892074e+00
  3.258649e+00    2.968465e+00
  3.274525e+00    3.022460e+00
  3.290400e+00    3.030921e+00
  3.306276e+00    2.976132e+00
  3.322151e+00    2.953199e+00
  3.338027e+00    3.025774e+00
  3.353902e+00    2.977878e+00
  3.369778e+00    3.013178e+00
  3.385654e+00    2.917305e+00
  3.401529e+00    2.885219e+00
  3.417405e+00    2.916535e+00
  3.433280e+00    2.950785e+00
  3.449156e+00    3.012565e+00
  3.465031e+00    2.931081e+00
  3.480907e+00    2.959410e+00
  3.496783e+00    2.945104e+00
  3.512658e+00    2.913136e+00
  3.528534e+00    2.937624e+00
  3.544409e+00    2.973494e+00
  3.560285e+00    2.944594e+00
  3.576160e+00    3.021090e+00
  3.592036e+00    3.014981e+00
  3.607912e+00    2.984957e+00
  3.623787e+00    2.911770e+00
  3.639663e+00    3.050720e+00
  3.655538e+00    3.056462e+00
  3.671414e+00    3.018057e+00
  3.687289e+00    2.971377e+00
  3.703165e+00    2.997239e+00
  3.719041e+00    3.058288e+00
  3.734916e+00    3.149884e+00
  3.750792e+00    3.103151e+00
  3.766667e+00    3.081739e+00
  3.782543e+00    2.991168e+00
  3.798418e+00    3.008914e+00
  3.814294e+00    2.993486e+00
  3.830170e+00    3.044317e+00
  3.846045e+00    2.971730e+00
  3.861921e+00    3.030002e+00
  3.877796e+00    2.987893e+00
  3.893672e+00    2.983346e+00
  3.909547e+00    3.035454e+00
  3.925423e+00    3.021054e+00
  3.941299e+00    2.982599e+00
  3.957174e+00    2.985142e+00
  3.973050e+00    2.879974e+00
  3.988925e+00    2.900281e+00
  4.004801e+00    2.958900e+00
  4.020676e+00    3.028581e+00
  4.036552e+00    3.036481e+00
  4.052428e+00    3.035881e+00
  4.068303e+00    3.146983e+00
  4.084179e+00    3.119106e+00
  4.100054e+00    3.040687e+00
  4.115930e+00    2.958524e+00
  4.131806e+00    2.994631e+00
  4.147681e+00    3.104583e+00
  4.163557e+00    3.062194e+00
  4.179432e+00    3.050786e+00
  4.195308e+00    3.015323e+00
  4.211183e+00    3.066205e+00
  4.227059e+00    3.066800e+00
  4.242935e+00    3.110365e+00
  4.258810e+00    2.989657e+00
  4.274686e+00    3.062478e+00
  4.290561e+00    3.161149e+00
  4.306437e+00    3.171697e+00
  4.322312e+00    3.028937e+00
  4.338188e+00    3.053419e+00
  4.354064e+00    3.073083e+00
  4.369939e+00    3.108270e+00
  4.385815e+00    3.077958e+00
  4.401690e+00    3.010192e+00
  4.417566e+00    3.016804e+00
  4.433441e+00    3.033198e+00
  4.449317e+00    3.152129e+00
  4.465193e+00    3.133438e+00
  4.481068e+00    3.029458e+00
  4.496944e+00    3.152569e+00
  4.512819e+00    3.114396e+00
  4.528695e+00    3.118030e+00
  4.544570e+00    3.065854e+00
  4.560446e+00    3.067049e+00
  4.576322e+00    3.150148e+00
  4.592197e+00    3.135794e+00
  4.608073e+00    3.095798e+00
  4.623948e+00    3.117223e+00
  4.639824e+00    3.138801e+00
  4.655699e+00    3.178354e+00
  4.671575e+00    3.171196e+00
  4.687451e+00    3.166940e+00
  4.703326e+00    3.120374e+00
  4.719202e+00    3.100698e+00
  4.735077e+00    3.212393e+00
  4.750953e+00    3.148880e+00
  4.766828e+00    3.107347e+00
  4.782704e+00    3.119042e+00
  4.798580e+00    3.055803e+00
  4.814455e+00    3.076530e+00
  4.830331e+00    3.098305e+00
  4.846206e+00    3.130448e+00
  4.862082e+00    3.069139e+00
  4.877957e+00    3.090900e+00
  4.893833e+00    3.156342e+00
  4.909709e+00    3.145538e+00
  4.925584e+00    3.202883e+00
  4.941460e+00    3.198098e+00
  4.957335e+00    3.168435e+00
  4.973211e+00    3.189216e+00
  4.989086e+00    3.183264e+00
  5.004962e+00    3.205036e+00
  5.020838e+00    3.193664e+00
  5.036713e+00    3.105988e+00
  5.052589e+00    3.142577e+00
  5.068464e+00    3.181123e+00
  5.084340e+00    3.153756e+00
  5.100216e+00    3.118933e+00
  5.116091e+00    3.166000e+00
  5.131967e+00    3.105400e+00
  5.147842e+00    3.136609e+00
  5.163718e+00    3.158006e+00
  5.179593e+00    3.173936e+00
  5.195469e+00    3.110920e+00
  5.211345e+00    3.077101e+00
  5.227220e+00    3.049816e+00
  5.243096e+00    3.153449e+00
  5.258971e+00    3.222153e+00
  5.274847e+00    3.242521e+00
  5.290722e+00    3.153632e+00
  5.306598e+00    3.187288e+00
  5.322474e+00    3.156502e+00
  5.338349e+00    3.131277e+00
  5.354225e+00    3.158455e+00
  5.370100e+00    3.114919e+00
  5.385976e+00    3.105072e+00
  5.401851e+00    3.118543e+00
  5.417727e+00    3.072452e+00
  5.433603e+00    3.072105e+00
  5.449478e+00    3.082101e+00
  5.465354e+00    3.140505e+00
  5.481229e+00    3.127789e+00
  5.497105e+00    3.112455e+00
  5.512980e+00    3.068190e+00
  5.528856e+00    3.044903e+00
  5.544732e+00    3.105047e+00
  5.560607e+00    3.085943e+00
  5.576483e+00    3.015488e+00
  5.592358e+00    2.985723e+00
  5.608234e+00    3.050640e+00
  5.624109e+00    3.091307e+00
  5.639985e+00    3.079242e+00
  5.655861e+00    3.080667e+00
  5.671736e+00    3.140470e+00
  5.687612e+00    3.160152e+00
  5.703487e+00    3.134263e+00
  5.719363e+00    3.027979e+00
  5.735238e+00    3.036006e+00
  5.751114e+00    3.064588e+00
  5.766990e+00    3.134375e+00
  5.782865e+00    3.116792e+00
  5.798741e+00    3.081719e+00
  5.814616e+00    3.028875e+00
  5.830492e+00    3.003737e+00
  5.846367e+00    3.059458e+00
  5.862243e+00    3.064391e+00
  5.878119e+00    3.010931e+00
  5.893994e+00    3.024370e+00
  5.909870e+00    3.032453e+00
  5.925745e+00    2.982982e+00
  5.941621e+00    3.009779e+00
  5.957497e+00    3.028870e+00
  5.973372e+00    3.028709e+00
  5.989248e+00    3.062596e+00
  6.005123e+00    3.022527e+00
  6.020999e+00    2.969765e+00
  6.036874e+00    3.116884e+00
  6.052750e+00    3.080909e+00
  6.068626e+00    3.043394e+00
  6.084501e+00    3.041484e+00
  6.100377e+00    3.073100e+00
  6.116252e+00    3.019271e+00
  6.132128e+00    2.998277e+00
  6.148003e+00    3.061900e+00
  6.163879e+00    3.068758e+00
  6.179755e+00    3.081321e+00
  6.195630e+00    3.091454e+00
  6.211506e+00    3.056196e+00
  6.227381e+00    3.107160e+00
  6.243257e+00    3.115481e+00
  6.259132e+00    3.049654e+00
  6.275008e+00    3.041797e+00
  6.290884e+00    3.048155e+00
  6.306759e+00    3.090311e+00
  6.322635e+00    2.992735e+00
  6.338510e+00    2.977026e+00
  6.354386e+00    3.057482e+00
  6.370261e+00    3.123417e+00
  6.386137e+00    3.086175e+00
  6.402013e+00    2.990556e+00
  6.417888e+00    3.056510e+00
  6.433764e+00    3.049417e+00
  6.449639e+00    3.066660e+00
  6.465515e+00    3.051585e+00
  6.481390e+00    3.008916e+00
  6.497266e+00    3.048519e+00
  6.513142e+00    3.012724e+00
  6.529017e+00    3.031898e+00
  6.544893e+00    3.024916e+00
  6.560768e+00    3.010069e+00
  6.576644e+00    2.994322e+00
  6.592519e+00    3.014067e+00
  6.608395e+00    3.031033e+00
  6.624271e+00    3.121155e+00
  6.640146e+00    3.103807e+00
  6.656022e+00    3.016338e+00
  6.671897e+00    3.120003e+00
  6.687773e+00    3.100043e+00
  6.703648e+00    3.050056e+00
  6.719524e+00    3.016165e+00
  6.735400e+00    3.069123e+00
  6.751275e+00    3.026469e+00
  6.767151e+00    3.074440e+00
  6.783026e+00    3.008844e+00
  6.798902e+00    3.005729e+00
  6.814777e+00    3.010544e+00
  6.830653e+00    3.056561e+00
  6.846529e+00    3.026234e+00
  6.862404e+00    3.004855e+00
  6.878280e+00    2.964329e+00
  6.894155e+00    3.052858e+00
  6.910031e+00    3.058811e+00
  6.925907e+00    3.076903e+00
  6.941782e+00    3.100672e+00
  6.957658e+00    3.061165e+00
  6.973533e+00    3.045688e+00
  6.989409e+00    3.034907e+00
  7.005284e+00    3.069620e+00
  7.021160e+00    3.029058e+00
  7.037036e+00    3.006002e+00
  7.052911e+00    3.031660e+00
  7.068787e+00    3.039165e+00
  7.084662e+00    3.029898e+00
  7.100538e+00    3.001915e+00
  7.116413e+00    3.046029e+00
  7.132289e+00    3.014383e+00
  7.148165e+00    3.021894e+00
  7.164040e+00    3.028711e+00
  7.179916e+00    2.955526e+00
  7.195791e+00    3.004595e+00
  7.211667e+00    3.031820e+00
  7.227542e+00    3.032838e+00
  7.243418e+00    3.045783e+00
  7.259294e+00    3.044207e+00
  7.275169e+00    2.917468e+00
  7.291045e+00    2.934247e+00
  7.306920e+00    2.987885e+00
  7.322796e+00    3.018693e+00
  7.338671e+00    2.950957e+00
  7.354547e+00    2.959505e+00
  7.370423e+00    3.023375e+00
  7.386298e+00    3.031033e+00
  7.402174e+00    3.016975e+00
  7.418049e+00    3.034769e+00
  7.433925e+00    3.028421e+00
  7.449800e+00    2.988517e+00
  7.465676e+00    2.952319e+00
  7.481552e+00    2.985357e+00
  7.497427e+00    3.049106e+00
  7.513303e+00    3.032166e+00
  7.529178e+00    3.003056e+00
  7.545054e+00    2.969678e+00
  7.560929e+00    2.932760e+00
  7.576805e+00    2.958660e+00
  7.592681e+00    2.918348e+00
  7.608556e+00    2.933090e+00
  7.624432e+00    3.039079e+00
  7.640307e+00    3.045755e+00
  7.656183e+00    3.045047e+00
  7.672058e+00    2.983025e+00
  7.687934e+00    2.944525e+00
  7.703810e+00    2.956117e+00
  7.719685e+00    2.935655e+00
  7.735561e+00    2.907477e+00
  7.751436e+00    2.915281e+00
  7.767312e+00    3.000123e+00
  7.783187e+00    2.926338e+00
  7.799063e+00    2.928943e+00
  7.814939e+00    2.955821e+00
  7.830814e+00    2.974887e+00
  7.846690e+00    2.957431e+00
  7.862565e+00    2.909800e+00
  7.878441e+00    2.947732e+00
  7.894317e+00    2.901379e+00
  7.910192e+00    2.951759e+00
  7.926068e+00    2.954313e+00
  7.941943e+00    3.001588e+00
  7.957819e+00    2.865700e+00
  7.973694e+00    2.930088e+00
  7.989570e+00    2.938455e+00
  8.005446e+00    2.932368e+00
  8.021321e+00    2.920573e+00
  8.037197e+00    2.990518e+00
  8.053072e+00    3.004932e+00
  8.068948e+00    2.966183e+00
  8.084823e+00    2.948008e+00
  8.100699e+00    2.978994e+00
  8.116575e+00    3.020636e+00
  8.132450e+00    3.005233e+00
  8.148326e+00    2.992069e+00
  8.164201e+00    3.041736e+00
  8.180077e+00    2.957156e+00
  8.195952e+00    2.918189e+00
  8.211828e+00    2.974689e+00
  8.227704e+00    2.994524e+00
  8.243579e+00    3.014646e+00
  8.259455e+00    2.902900e+00
  8.275330e+00    2.960650e+00
  8.291206e+00    3.073486e+00
  8.307081e+00    2.986631e+00
  8.322957e+00    2.888844e+00
  8.338833e+00    2.898700e+00
  8.354708e+00    2.924152e+00
  8.370584e+00    2.930211e+00
  8.386459e+00    2.926298e+00
  8.402335e+00    2.897647e+00
  8.418210e+00    2.909179e+00
  8.434086e+00    2.880034e+00
  8.449962e+00    2.923011e+00
  8.465837e+00    2.941399e+00
  8.481713e+00    2.920892e+00
  8.497588e+00    2.900468e+00
  8.513464e+00    2.957413e+00
  8.529339e+00    2.904629e+00
  8.545215e+00    2.892576e+00
  8.561091e+00    2.880468e+00
  8.576966e+00    2.877381e+00
  8.592842e+00    2.855055e+00
  8.608717e+00    2.925230e+00
  8.624593e+00    2.908701e+00
  8.640468e+00    2.845224e+00
  8.656344e+00    2.872260e+00
  8.672220e+00    2.897499e+00
  8.688095e+00    2.887046e+00
  8.703971e+00    2.899649e+00
  8.719846e+00    2.876470e+00
  8.735722e+00    2.861507e+00
  8.751598e+00    2.863470e+00
  8.767473e+00    2.898920e+00
  8.783349e+00    2.883213e+00
  8.799224e+00    2.897460e+00
  8.815100e+00    2.875462e+00
  8.830975e+00    2.854905e+00
  8.846851e+00    2.859044e+00
  8.862727e+00    2.821581e+00
  8.878602e+00    2.855547e+00
  8.894478e+00    2.869463e+00
  8.910353e+00    2.889542e+00
  8.926229e+00    2.908337e+00
  8.942104e+00    2.887366e+00
  8.957980e+00    2.850955e+00
  8.973856e+00    2.864685e+00
  8.989731e+00    2.841647e+00
  9.005607e+00    2.842744e+00
  9.021482e+00    2.846521e+00
  9.037358e+00    2.820856e+00
  9.053233e+00    2.818373e+00
  9.069109e+00    2.858053e+00
  9.084985e+00    2.849991e+00
  9.100860e+00    2.851555e+00
  9.116736e+00    2.814670e+00
  9.132611e+00    2.795604e+00
  9.148487e+00    2.786835e+00
  9.164362e+00    2.779316e+00
  9.180238e+00    2.798441e+00
  9.196114e+00    2.788683e+00
  9.211989e+00    2.796862e+00
  9.227865e+00    2.752623e+00
  9.243740e+00    2.775626e+00
  9.259616e+00    2.812059e+00
  9.275491e+00    2.806756e+00
  9.291367e+00    2.737596e+00
  9.307243e+00    2.695025e+00
  9.323118e+00    2.746006e+00
  9.338994e+00    2.765543e+00
  9.354869e+00    2.757933e+00
  9.370745e+00    2.805031e+00
  9.386620e+00    2.821008e+00
  9.402496e+00    2.805402e+00
  9.418372e+00    2.812735e+00
  9.434247e+00    2.775898e+00
  9.450123e+00    2.733571e+00
  9.465998e+00    2.764436e+00
  9.481874e+00    2.778215e+00
  9.497749e+00    2.711394e+00
  9.513625e+00    2.772887e+00
  9.529501e+00    2.821693e+00
  9.545376e+00    2.805363e+00
  9.561252e+00    2.758319e+00
  9.577127e+00    2.850371e+00
  9.593003e+00    2.781511e+00
  9.608878e+00    2.734785e+00
  9.624754e+00    2.762948e+00
  9.640630e+00    2.777553e+00
  9.656505e+00    2.787077e+00
  9.672381e+00    2.725732e+00
  9.688256e+00    2.754879e+00
  9.704132e+00    2.806841e+00
  9.720008e+00    2.824520e+00
  9.735883e+00    2.729926e+00
  9.751759e+00    2.705704e+00
  9.767634e+00    2.674484e+00
  9.783510e+00    2.721303e+00
  9.799385e+00    2.774169e+00
  9.815261e+00    2.734124e+00
  9.831137e+00    2.708520e+00
  9.847012e+00    2.747910e+00
  9.862888e+00    2.699327e+00
  9.878763e+00    2.675770e+00
  9.894639e+00    2.704399e+00
  9.910514e+00    2.692337e+00
  9.926390e+00    2.724951e+00
  9.942266e+00    2.700103e+00
  9.958141e+00    2.659446e+00
  9.974017e+00    2.688630e+00
  9.989892e+00    2.676546e+00
  1.000577e+01    2.642700e+00
  1.002164e+01    2.617414e+00
  1.003752e+01    2.646713e+00
  1.005339e+01    2.666677e+00
  1.006927e+01    2.641666e+00
  1.008515e+01    2.661380e+00
  1.010102e+01    2.666745e+00
  1.011690e+01    2.649571e+00
  1.013277e+01    2.633866e+00
  1.014865e+01    2.633441e+00
  1.016452e+01    2.651760e+00
  1.018040e+01    2.665880e+00
  1.019627e+01    2.655253e+00
  1.021215e+01    2.606848e+00
  1.022803e+01    2.635997e+00
  1.024390e+01    2.617213e+00
  1.025978e+01    2.646905e+00
  1.027565e+01    2.626991e+00
  1.029153e+01    2.611219e+00
  1.030740e+01    2.627717e+00
  1.032328e+01    2.690339e+00
  1.033915e+01    2.641791e+00
  1.035503e+01    2.616436e+00
  1.037091e+01    2.607019e+00
  1.038678e+01    2.622425e+00
  1.040266e+01    2.602026e+00
  1.041853e+01    2.579964e+00
  1.043441e+01    2.619226e+00
  1.045028e+01    2.619170e+00
  1.046616e+01    2.580927e+00
  1.048204e+01    2.624059e+00
  1.049791e+01    2.594012e+00
  1.051379e+01    2.589525e+00
  1.052966e+01    2.583953e+00
  1.054554e+01    2.584826e+00
  1.056141e+01    2.619591e+00
  1.057729e+01    2.609864e+00
  1.059316e+01    2.579021e+00
  1.060904e+01    2.559559e+00
  1.062492e+01    2.535076e+00
  1.064079e+01    2.531522e+00
  1.065667e+01    2.538606e+00
  1.067254e+01    2.586411e+00
  1.068842e+01    2.572479e+00
  1.070429e+01    2.591121e+00
  1.072017e+01    2.570610e+00
  1.073604e+01    2.566254e+00
  1.075192e+01    2.549281e+00
  1.076780e+01    2.583981e+00
  1.078367e+01    2.581220e+00
  1.079955e+01    2.555839e+00
  1.081542e+01    2.572392e+00
  1.083130e+01    2.580273e+00
  1.084717e+01    2.508873e+00
  1.086305e+01    2.531743e+00
  1.087892e+01    2.520080e+00
  1.089480e+01    2.517621e+00
  1.091068e+01    2.522775e+00
  1.092655e+01    2.518631e+00
  1.094243e+01    2.480175e+00
  1.095830e+01    2.500839e+00
  1.097418e+01    2.525810e+00
  1.099005e+01    2.525139e+00
  1.100593e+01    2.511277e+00
  1.102180e+01    2.511365e+00
  1.103768e+01    2.486272e+00
  1.105356e+01    2.488749e+00
  1.106943e+01    2.516622e+00
  1.108531e+01    2.479575e+00
  1.110118e+01    2.455567e+00
  1.111706e+01    2.440753e+00
  1.113293e+01    2.426681e+00
  1.114881e+01    2.477976e+00
  1.116468e+01    2.435548e+00
  1.118056e+01    2.444157e+00
  1.119644e+01    2.473748e+00
  1.121231e+01    2.486239e+00
  1.122819e+01    2.525622e+00
  1.124406e+01    2.490991e+00
  1.125994e+01    2.449847e+00
  1.127581e+01    2.482681e+00
  1.129169e+01    2.473905e+00
  1.130756e+01    2.469620e+00
  1.132344e+01    2.414427e+00
  1.133932e+01    2.421388e+00
  1.135519e+01    2.477638e+00
  1.137107e+01    2.455121e+00
  1.138694e+01    2.416349e+00
  1.140282e+01    2.478692e+00
  1.141869e+01    2.458169e+00
  1.143457e+01    2.386099e+00
  1.145045e+01    2.437505e+00
  1.146632e+01    2.429386e+00
  1.148220e+01    2.403162e+00
  1.149807e+01    2.399303e+00
  1.151395e+01    2.410971e+00
  1.152982e+01    2.414169e+00
  1.154570e+01    2.379639e+00
  1.156157e+01    2.350066e+00
  1.157745e+01    2.372716e+00
  1.159333e+01    2.377152e+00
  1.160920e+01    2.365181e+00
  1.162508e+01    2.351907e+00
  1.164095e+01    2.346551e+00
  1.165683e+01    2.385045e+00
  1.167270e+01    2.377890e+00
  1.168858e+01    2.388252e+00
  1.170445e+01    2.350905e+00
  1.172033e+01    2.390188e+00
  1.173621e+01    2.395823e+00
  1.175208e+01    2.385637e+00
  1.176796e+01    2.337175e+00
  1.178383e+01    2.319576e+00
  1.179971e+01    2.382296e+00
  1.181558e+01    2.407253e+00
  1.183146e+01    2.362600e+00
  1.184733e+01    2.336850e+00
  1.186321e+01    2.353688e+00
  1.187909e+01    2.374063e+00
  1.189496e+01    2.403840e+00
  1.191084e+01    2.369431e+00
  1.192671e+01    2.370313e+00
  1.194259e+01    2.372808e+00
  1.195846e+01    2.316475e+00
  1.197434e+01    2.325364e+00
  1.199021e+01    2.327802e+00
  1.200609e+01    2.366129e+00
  1.202197e+01    2.365113e+00
  1.203784e+01    2.361567e+00
  1.205372e+01    2.370278e+00
  1.206959e+01    2.342577e+00
  1.208547e+01    2.328417e+00
  1.210134e+01    2.314868e+00
  1.211722e+01    2.349581e+00
  1.213309e+01    2.355817e+00
  1.214897e+01    2.314456e+00
  1.216485e+01    2.294839e+00
  1.218072e+01    2.310377e+00
  1.219660e+01    2.339025e+00
  1.221247e+01    2.353623e+00
  1.222835e+01    2.297415e+00
  1.224422e+01    2.328886e+00
  1.226010e+01    2.367417e+00
  1.227597e+01    2.358011e+00
  1.229185e+01    2.376305e+00
  1.230773e+01    2.345196e+00
  1.232360e+01    2.339269e+00
  1.233948e+01    2.326898e+00
  1.235535e+01    2.317941e+00
  1.237123e+01    2.325707e+00
  1.238710e+01    2.340551e+00
  1.240298e+01    2.336499e+00
  1.241886e+01    2.344351e+00
  1.243473e+01    2.363819e+00
  1.245061e+01    2.357863e+00
  1.246648e+01    2.330692e+00
  1.248236e+01    2.342146e+00
  1.249823e+01    2.297659e+00
  1.251411e+01    2.354393e+00
  1.252998e+01    2.381390e+00
  1.254586e+01    2.392332e+00
  1.256174e+01    2.415437e+00
  1.257761e+01    2.428412e+00
  1.259349e+01    2.402413e+00
  1.260936e+01    2.354151e+00
  1.262524e+01    2.380112e+00
  1.264111e+01    2.405455e+00
  1.265699e+01    2.429849e+00
  1.267286e+01    2.417355e+00
  1.268874e+01    2.450798e+00
  1.270462e+01    2.432694e+00
  1.272049e+01    2.462481e+00
  1.273637e+01    2.522353e+00
  1.275224e+01    2.529134e+00
  1.276812e+01    2.541412e+00
  1.278399e+01    2.591011e+00
  1.279987e+01    2.653659e+00
  1.281574e+01    2.701644e+00
  1.283162e+01    2.747609e+00
  1.284750e+01    2.832291e+00
  1.286337e+01    2.902838e+00
  1.287925e+01    2.985119e+00
  1.289512e+01    3.103218e+00
  1.291100e+01    3.278032e+00
  1.292687e+01    3.453521e+00
  1.294275e+01    3.657203e+00
  1.295862e+01    3.933171e+00
  1.297450e+01    4.379949e+00
  1.299038e+01    4.798464e+00
  1.300625e+01    5.336403e+00
  1.302213e+01    6.094677e+00
  1.303800e+01    7.081316e+00
  1.305388e+01    8.220068e+00
  1.306975e+01    9.462144e+00
  1.308563e+01    1.073210e+01
  1.310150e+01    1.185623e+01
  1.311738e+01    1.295704e+01
  1.313326e+01    1.405960e+01
  1.314913e+01    1.498800e+01
  1.316501e+01    1.562181e+01
  1.318088e+01    1.589299e+01
  1.319676e+01    1.538816e+01
  1.321263e+01    1.417134e+01
  1.322851e+01    1.241217e+01
  1.324438e+01    1.055755e+01
  1.326026e+01    8.983331e+00
  1.327614e+01    7.522395e+00
  1.329201e+01    6.409185e+00
  1.330789e+01    5.653074e+00
  1.332376e+01    4.962476e+00
  1.333964e+01    4.471431e+00
  1.335551e+01    4.111503e+00
  1.337139e+01    3.769264e+00
  1.338727e+01    3.482955e+00
  1.340314e+01    3.307754e+00
  1.341902e+01    3.165192e+00
  1.343489e+01    3.023177e+00
  1.345077e+01    2.912301e+00
  1.346664e+01    2.791158e+00
  1.348252e+01    2.666694e+00
  1.349839e+01    2.629861e+00
  1.351427e+01    2.571308e+00
  1.353015e+01    2.494287e+00
  1.354602e+01    2.439251e+00
  1.356190e+01    2.444919e+00
  1.357777e+01    2.439428e+00
  1.359365e+01    2.379844e+00
  1.360952e+01    2.347251e+00
  1.362540e+01    2.366055e+00
  1.364127e+01    2.341717e+00
  1.365715e+01    2.266856e+00
  1.367303e+01    2.223148e+00
  1.368890e+01    2.228937e+00
  1.370478e+01    2.203905e+00
  1.372065e+01    2.209293e+00
  1.373653e+01    2.201235e+00
  1.375240e+01    2.186576e+00
  1.376828e+01    2.188679e+00
  1.378415e+01    2.183512e+00
  1.380003e+01    2.155459e+00
  1.381591e+01    2.104179e+00
  1.383178e+01    2.135736e+00
  1.384766e+01    2.153656e+00
  1.386353e+01    2.078676e+00
  1.387941e+01    2.121711e+00
  1.389528e+01    2.123186e+00
  1.391116e+01    2.073275e+00
  1.392703e+01    2.123219e+00
  1.394291e+01    2.100143e+00
  1.395879e+01    2.073659e+00
  1.397466e+01    2.049836e+00
  1.399054e+01    2.052191e+00
  1.400641e+01    2.055556e+00
  1.402229e+01    2.043700e+00
  1.403816e+01    2.009738e+00
  1.405404e+01    2.031387e+00
  1.406991e+01    2.038813e+00
  1.408579e+01    2.070320e+00
  1.410167e+01    2.093017e+00
  1.411754e+01    2.057249e+00
  1.413342e+01    2.031912e+00
  1.414929e+01    1.988655e+00
  1.416517e+01    1.977031e+00
  1.418104e+01    1.984041e+00
  1.419692e+01    1.987936e+00
  1.421279e+01    1.997944e+00
  1.422867e+01    1.975375e+00
  1.424455e+01    1.960245e+00
  1.426042e+01    1.975450e+00
  1.427630e+01    1.990452e+00
  1.429217e+01    1.969187e+00
  1.430805e+01    1.949381e+00
  1.432392e+01    1.997426e+00
  1.433980e+01    1.946060e+00
  1.435568e+01    1.958019e+00
  1.437155e+01    1.971413e+00
  1.438743e+01    1.980923e+00
  1.440330e+01    1.950366e+00
  1.441918e+01    1.925257e+00
  1.443505e+01    1.921606e+00
  1.445093e+01    1.887228e+00
  1.446680e+01    1.903688e+00
  1.448268e+01    1.942386e+00
  1.449856e+01    1.939358e+00
  1.451443e+01    1.938576e+00
  1.453031e+01    1.941078e+00
  1.454618e+01    1.959669e+00
  1.456206e+01    1.930380e+00
  1.457793e+01    1.924482e+00
  1.459381e+01    1.919697e+00
  1.460968e+01    1.890948e+00
  1.462556e+01    1.877111e+00
  1.464144e+01    1.891978e+00
  1.465731e+01    1.947931e+00
  1.467319e+01    1.900905e+00
  1.468906e+01    1.913146e+00
  1.470494e+01    1.930077e+00
  1.472081e+01    1.897554e+00
  1.473669e+01    1.935706e+00
  1.475256e+01    1.909886e+00
  1.476844e+01    1.893356e+00
  1.478432e+01    1.877971e+00
  1.480019e+01    1.894778e+00
  1.481607e+01    1.896532e+00
  1.483194e+01    1.900480e+00
  1.484782e+01    1.939162e+00
  1.486369e+01    1.909867e+00
  1.487957e+01    1.946777e+00
  1.489544e+01    1.977039e+00
  1.491132e+01    1.932539e+00
  1.492720e+01    1.976140e+00
  1.494307e+01    1.986600e+00
  1.495895e+01    2.010865e+00
  1.497482e+01    2.057370e+00
  1.499070e+01    2.120949e+00
  1.500657e+01    2.194453e+00
  1.502245e+01    2.217056e+00
  1.503832e+01    2.280158e+00
  1.505420e+01    2.363475e+00
  1.507008e+01    2.485811e+00
  1.508595e+01    2.649190e+00
  1.510183e+01    2.845140e+00
  1.511770e+01    3.121713e+00
  1.513358e+01    3.435199e+00
  1.514945e+01    3.803018e+00
  1.516533e+01    4.099429e+00
  1.518120e+01    4.426682e+00
  1.519708e+01    4.763317e+00
  1.521296e+01    5.022224e+00
  1.522883e+01    5.276330e+00
  1.524471e+01    5.439538e+00
  1.526058e+01    5.529263e+00
  1.527646e+01    5.434444e+00
  1.529233e+01    5.218668e+00
  1.530821e+01    4.961685e+00
  1.532409e+01    4.533823e+00
  1.533996e+01    4.001146e+00
  1.535584e+01    3.536116e+00
  1.537171e+01    3.139753e+00
  1.538759e+01    2.852945e+00
  1.540346e+01    2.650908e+00
  1.541934e+01    2.492671e+00
  1.543521e+01    2.347410e+00
  1.545109e+01    2.249684e+00
  1.546697e+01    2.185090e+00
  1.548284e+01    2.130429e+00
  1.549872e+01    2.045857e+00
  1.551459e+01    1.991078e+00
  1.553047e+01    1.978641e+00
  1.554634e+01    1.942238e+00
  1.556222e+01    1.880026e+00
  1.557809e+01    1.860315e+00
  1.559397e+01    1.851333e+00
  1.560985e+01    1.798344e+00
  1.562572e+01    1.788527e+00
  1.564160e+01    1.769732e+00
  1.565747e+01    1.758712e+00
  1.567335e+01    1.723444e+00
  1.568922e+01    1.719584e+00
  1.570510e+01    1.716389e+00
  1.572097e+01    1.736231e+00
  1.573685e+01    1.749667e+00
  1.575273e+01    1.700113e+00
  1.576860e+01    1.681666e+00
  1.578448e+01    1.707766e+00
  1.580035e+01    1.686951e+00
  1.581623e+01    1.676071e+00
  1.583210e+01    1.700331e+00
  1.584798e+01    1.681114e+00
  1.586385e+01    1.708451e+00
  1.587973e+01    1.676552e+00
  1.589561e+01    1.657155e+00
  1.591148e+01    1.648340e+00
  1.592736e+01    1.675339e+00
  1.594323e+01    1.639770e+00
  1.595911e+01    1.667660e+00
  1.597498e+01    1.622757e+00
  1.599086e+01    1.598226e+00
  1.600673e+01    1.622905e+00
  1.602261e+01    1.603953e+00
  1.603849e+01    1.615569e+00
  1.605436e+01    1.627045e+00
  1.607024e+01    1.616568e+00
  1.608611e+01    1.623059e+00
  1.610199e+01    1.603538e+00
  1.611786e+01    1.609282e+00
  1.613374e+01    1.620252e+00
  1.614961e+01    1.606408e+00
  1.616549e+01    1.575651e+00
  1.618137e+01    1.548970e+00
  1.619724e+01    1.577463e+00
  1.621312e+01    1.567878e+00
  1.622899e+01    1.574144e+00
  1.624487e+01    1.531636e+00
  1.626074e+01    1.545139e+00
  1.627662e+01    1.597296e+00
  1.629250e+01    1.542253e+00
  1.630837e+01    1.533406e+00
  1.632425e+01    1.546151e+00
  1.634012e+01    1.567181e+00
  1.635600e+01    1.555733e+00
  1.637187e+01    1.561496e+00
  1.638775e+01    1.561865e+00
  1.640362e+01    1.554654e+00
  1.641950e+01    1.530269e+00
  1.643538e+01    1.536858e+00
  1.645125e+01    1.472584e+00
  1.646713e+01    1.477462e+00
  1.648300e+01    1.502369e+00
  1.649888e+01    1.521628e+00
  1.651475e+01    1.503446e+00
  1.653063e+01    1.511869e+00
  1.654650e+01    1.507017e+00
  1.656238e+01    1.518524e+00
  1.657826e+01    1.529812e+00
  1.659413e+01    1.507289e+00
  1.661001e+01    1.489056e+00
  1.662588e+01    1.500657e+00
  1.664176e+01    1.502092e+00
  1.665763e+01    1.497503e+00
  1.667351e+01    1.523654e+00
  1.668938e+01    1.502414e+00
  1.670526e+01    1.486466e+00
  1.672114e+01    1.498764e+00
  1.673701e+01    1.481710e+00
  1.675289e+01    1.489756e+00
  1.676876e+01    1.489630e+00
  1.678464e+01    1.467682e+00
  1.680051e+01    1.455697e+00
  1.681639e+01    1.479320e+00
  1.683226e+01    1.504036e+00
  1.684814e+01    1.485195e+00
  1.686402e+01    1.476876e+00
  1.687989e+01    1.450390e+00
  1.689577e+01    1.445520e+00
  1.691164e+01    1.459690e+00
  1.692752e+01    1.480559e+00
  1.694339e+01    1.427066e+00
  1.695927e+01    1.437458e+00
  1.697514e+01    1.430219e+00
  1.699102e+01    1.416334e+00
  1.700690e+01    1.438719e+00
  1.702277e+01    1.468245e+00
  1.703865e+01    1.454541e+00
  1.705452e+01    1.444363e+00
  1.707040e+01    1.473069e+00
  1.708627e+01    1.453242e+00
  1.710215e+01    1.442590e+00
  1.711802e+01    1.429665e+00
  1.713390e+01    1.455175e+00
  1.714978e+01    1.417388e+00
  1.716565e+01    1.427300e+00
  1.718153e+01    1.411994e+00
  1.719740e+01    1.412550e+00
  1.721328e+01    1.402540e+00
  1.722915e+01    1.422971e+00
  1.724503e+01    1.425932e+00
  1.726091e+01    1.394599e+00
  1.727678e+01    1.403629e+00
  1.729266e+01    1.397489e+00
  1.730853e+01    1.399189e+00
  1.732441e+01    1.369709e+00
  1.734028e+01    1.380279e+00
  1.735616e+01    1.383137e+00
  1.737203e+01    1.349226e+00
  1.738791e+01    1.372922e+00
  1.740379e+01    1.414666e+00
  1.741966e+01    1.392904e+00
  1.743554e+01    1.352461e+00
  1.745141e+01    1.374206e+00
  1.746729e+01    1.388337e+00
  1.748316e+01    1.370942e+00
  1.749904e+01    1.389453e+00
  1.751491e+01    1.417612e+00
  1.753079e+01    1.377683e+00
  1.754667e+01    1.345045e+00
  1.756254e+01    1.380257e+00
  1.757842e+01    1.368393e+00
  1.759429e+01    1.336553e+00
  1.761017e+01    1.344537e+00
  1.762604e+01    1.372297e+00
  1.764192e+01    1.376345e+00
  1.765779e+01    1.351779e+00
  1.767367e+01    1.361749e+00
  1.768955e+01    1.363796e+00
  1.770542e+01    1.328180e+00
  1.772130e+01    1.324921e+00
  1.773717e+01    1.316021e+00
  1.775305e+01    1.323273e+00
  1.776892e+01    1.364256e+00
  1.778480e+01    1.357729e+00
  1.780067e+01    1.344798e+00
  1.781655e+01    1.339696e+00
  1.783243e+01    1.314638e+00
  1.784830e+01    1.319906e+00
  1.786418e+01    1.315323e+00
  1.788005e+01    1.353973e+00
  1.789593e+01    1.335125e+00
  1.791180e+01    1.356301e+00
  1.792768e+01    1.339087e+00
  1.794355e+01    1.318777e+00
  1.795943e+01    1.307869e+00
  1.797531e+01    1.317844e+00
  1.799118e+01    1.309277e+00
  1.800706e+01    1.289593e+00
  1.802293e+01    1.304916e+00
  1.803881e+01    1.293417e+00
  1.805468e+01    1.261010e+00
  1.807056e+01    1.278222e+00
  1.808643e+01    1.291353e+00
  1.810231e+01    1.298970e+00
  1.811819e+01    1.300525e+00
  1.813406e+01    1.299602e+00
  1.814994e+01    1.286701e+00
  1.816581e+01    1.300631e+00
  1.818169e+01    1.305083e+00
  1.819756e+01    1.303335e+00
  1.821344e+01    1.304104e+00
  1.822932e+01    1.275771e+00
  1.824519e+01    1.303705e+00
  1.826107e+01    1.305655e+00
  1.827694e+01    1.289551e+00
  1.829282e+01    1.284446e+00
  1.830869e+01    1.279171e+00
  1.832457e+01    1.278646e+00
  1.834044e+01    1.278444e+00
  1.835632e+01    1.287472e+00
  1.837220e+01    1.284777e+00
  1.838807e+01    1.264788e+00
  1.840395e+01    1.257346e+00
  1.841982e+01    1.241552e+00
  1.843570e+01    1.251735e+00
  1.845157e+01    1.284846e+00
  1.846745e+01    1.237217e+00
  1.848332e+01    1.227051e+00
  1.849920e+01    1.239443e+00
  1.851508e+01    1.246569e+00
  1.853095e+01    1.263888e+00
  1.854683e+01    1.267667e+00
  1.856270e+01    1.279168e+00
  1.857858e+01    1.247119e+00
  1.859445e+01    1.243099e+00
  1.861033e+01    1.246901e+00
  1.862620e+01    1.233499e+00
  1.864208e+01    1.248370e+00
  1.865796e+01    1.230385e+00
  1.867383e+01    1.218198e+00
  1.868971e+01    1.242099e+00
  1.870558e+01    1.232942e+00
  1.872146e+01    1.240294e+00
  1.873733e+01    1.252256e+00
  1.875321e+01    1.198058e+00
  1.876908e+01    1.200011e+00
  1.878496e+01    1.251366e+00
  1.880084e+01    1.235977e+00
  1.881671e+01    1.209630e+00
  1.883259e+01    1.216976e+00
  1.884846e+01    1.214649e+00
  1.886434e+01    1.223597e+00
  1.888021e+01    1.204024e+00
  1.889609e+01    1.207845e+00
  1.891196e+01    1.231974e+00
  1.892784e+01    1.218456e+00
  1.894372e+01    1.221169e+00
  1.895959e+01    1.224364e+00
  1.897547e+01    1.188465e+00
  1.899134e+01    1.202494e+00
  1.900722e+01    1.211802e+00
  1.902309e+01    1.205003e+00
  1.903897e+01    1.202130e+00
  1.905484e+01    1.204759e+00
  1.907072e+01    1.196903e+00
  1.908660e+01    1.197517e+00
  1.910247e+01    1.206440e+00
  1.911835e+01    1.221408e+00
  1.913422e+01    1.216223e+00
  1.915010e+01    1.206213e+00
  1.916597e+01    1.185998e+00
  1.918185e+01    1.179768e+00
  1.919773e+01    1.211760e+00
  1.921360e+01    1.217150e+00
  1.922948e+01    1.224663e+00
  1.924535e+01    1.173067e+00
  1.926123e+01    1.174468e+00
  1.927710e+01    1.178659e+00
  1.929298e+01    1.155640e+00
  1.930885e+01    1.166859e+00
  1.932473e+01    1.192441e+00
  1.934061e+01    1.170210e+00
  1.935648e+01    1.181895e+00
  1.937236e+01    1.164934e+00
  1.938823e+01    1.167860e+00
  1.940411e+01    1.178900e+00
  1.941998e+01    1.182792e+00
  1.943586e+01    1.146715e+00
  1.945173e+01    1.158484e+00
  1.946761e+01    1.180037e+00
  1.948349e+01    1.159091e+00
  1.949936e+01    1.174288e+00
  1.951524e+01    1.165472e+00
  1.953111e+01    1.180170e+00
  1.954699e+01    1.165526e+00
  1.956286e+01    1.149110e+00
  1.957874e+01    1.162475e+00
  1.959461e+01    1.154317e+00
  1.961049e+01    1.156392e+00
  1.962637e+01    1.170177e+00
  1.964224e+01    1.161724e+00
  1.965812e+01    1.147616e+00
  1.967399e+01    1.130625e+00
  1.968987e+01    1.160475e+00
  1.970574e+01    1.171687e+00
  1.972162e+01    1.154263e+00
  1.973749e+01    1.158018e+00
  1.975337e+01    1.121143e+00
  1.976925e+01    1.123082e+00
  1.978512e+01    1.136714e+00
  1.980100e+01    1.143222e+00
  1.981687e+01    1.158117e+00
  1.983275e+01    1.137220e+00
  1.984862e+01    1.114753e+00
  1.986450e+01    1.125035e+00
  1.988037e+01    1.135559e+00
  1.989625e+01    1.121084e+00
  1.991213e+01    1.117347e+00
  1.992800e+01    1.112383e+00
  1.994388e+01    1.109022e+00
  1.995975e+01    1.125374e+00
  1.997563e+01    1.130938e+00
  1.999150e+01    1.113953e+00
  2.000738e+01    1.120621e+00
  2.002325e+01    1.107036e+00
  2.003913e+01    1.104581e+00
  2.005501e+01    1.113078e+00
  2.007088e+01    1.124433e+00
  2.008676e+01    1.130985e+00
  2.010263e+01    1.103897e+00
  2.011851e+01    1.089005e+00
  2.013438e+01    1.103523e+00
  2.015026e+01    1.103120e+00
  2.016614e+01    1.087260e+00
  2.018201e+01    1.113901e+00
  2.019789e+01    1.098677e+00
  2.021376e+01    1.104231e+00
  2.022964e+01    1.100999e+00
  2.024551e+01    1.106363e+00
  2.026139e+01    1.073237e+00
  2.027726e+01    1.092996e+00
  2.029314e+01    1.110534e+00
  2.030902e+01    1.094203e+00
  2.032489e+01    1.087929e+00
  2.034077e+01    1.104950e+00
  2.035664e+01    1.100196e+00
  2.037252e+01    1.099629e+00
  2.038839e+01    1.100668e+00
  2.040427e+01    1.075083e+00
  2.042014e+01    1.090685e+00
  2.043602e+01    1.103487e+00
  2.045190e+01    1.101869e+00
  2.046777e+01    1.103758e+00
  2.048365e+01    1.107604e+00
  2.049952e+01    1.115860e+00
  2.051540e+01    1.105218e+00
  2.053127e+01    1.093015e+00
  2.054715e+01    1.079183e+00
  2.056302e+01    1.067900e+00
  2.057890e+01    1.067107e+00
  2.059478e+01    1.077275e+00
  2.061065e+01    1.078835e+00
  2.062653e+01    1.053417e+00
  2.064240e+01    1.081398e+00
  2.065828e+01    1.069367e+00
  2.067415e+01    1.075033e+00
  2.069003e+01    1.069409e+00
  2.070590e+01    1.081409e+00
  2.072178e+01    1.081201e+00
  2.073766e+01    1.079952e+00
  2.075353e+01    1.084958e+00
  2.076941e+01    1.081030e+00
  2.078528e+01    1.070548e+00
  2.080116e+01    1.088014e+00
  2.081703e+01    1.092599e+00
  2.083291e+01    1.101010e+00
  2.084878e+01    1.078491e+00
  2.086466e+01    1.064002e+00
  2.088054e+01    1.049265e+00
  2.089641e+01    1.064854e+00
  2.091229e+01    1.083991e+00
  2.092816e+01    1.099824e+00
  2.094404e+01    1.096512e+00
  2.095991e+01    1.074466e+00
  2.097579e+01    1.061418e+00
  2.099166e+01    1.049051e+00
  2.100754e+01    1.055846e+00
  2.102342e+01    1.093413e+00
  2.103929e+01    1.091743e+00
  2.105517e+01    1.047149e+00
  2.107104e+01    1.063403e+00
  2.108692e+01    1.078071e+00
  2.110279e+01    1.064270e+00
  2.111867e+01    1.079610e+00
  2.113455e+01    1.097684e+00
  2.115042e+01    1.073866e+00
  2.116630e+01    1.082221e+00
  2.118217e+01    1.096552e+00
  2.119805e+01    1.089752e+00
  2.121392e+01    1.096052e+00
  2.122980e+01    1.110274e+00
  2.124567e+01    1.115223e+00
  2.126155e+01    1.108966e+00
  2.127743e+01    1.121818e+00
  2.129330e+01    1.125417e+00
  2.130918e+01    1.129657e+00
  2.132505e+01    1.140951e+00
  2.134093e+01    1.135392e+00
  2.135680e+01    1.124704e+00
  2.137268e+01    1.159791e+00
  2.138855e+01    1.136774e+00
  2.140443e+01    1.156168e+00
  2.142031e+01    1.164916e+00
  2.143618e+01    1.185833e+00
  2.145206e+01    1.206721e+00
  2.146793e+01    1.212593e+00
  2.148381e+01    1.228329e+00
  2.149968e+01    1.290363e+00
  2.151556e+01    1.310934e+00
  2.153143e+01    1.319309e+00
  2.154731e+01    1.385416e+00
  2.156319e+01    1.427088e+00
  2.157906e+01    1.478278e+00
  2.159494e+01    1.516600e+00
  2.161081e+01    1.582885e+00
  2.162669e+01    1.708945e+00
  2.164256e+01    1.803040e+00
  2.165844e+01    1.946536e+00
  2.167431e+01    2.107720e+00
  2.169019e+01    2.331510e+00
  2.170607e+01    2.608819e+00
  2.172194e+01    2.910760e+00
  2.173782e+01    3.304094e+00
  2.175369e+01    3.758834e+00
  2.176957e+01    4.288946e+00
  2.178544e+01    4.828808e+00
  2.180132e+01    5.476863e+00
  2.181719e+01    6.133519e+00
  2.183307e+01    6.854953e+00
  2.184895e+01    7.480276e+00
  2.186482e+01    8.098569e+00
  2.188070e+01    8.565977e+00
  2.189657e+01    8.725287e+00
  2.191245e+01    8.646449e+00
  2.192832e+01    8.245914e+00
  2.194420e+01    7.533605e+00
  2.196007e+01    6.512199e+00
  2.197595e+01    5.536272e+00
  2.199183e+01    4.716555e+00
  2.200770e+01    4.025898e+00
  2.202358e+01    3.482419e+00
  2.203945e+01    3.008506e+00
  2.205533e+01    2.650580e+00
  2.207120e+01    2.399549e+00
  2.208708e+01    2.184458e+00
  2.210296e+01    1.961991e+00
  2.211883e+01    1.850720e+00
  2.213471e+01    1.720106e+00
  2.215058e+01    1.612269e+00
  2.216646e+01    1.515365e+00
  2.218233e+01    1.446065e+00
  2.219821e+01    1.441800e+00
  2.221408e+01    1.349732e+00
  2.222996e+01    1.315616e+00
  2.224584e+01    1.296004e+00
  2.226171e+01    1.282546e+00
  2.227759e+01    1.214757e+00
  2.229346e+01    1.161896e+00
  2.230934e+01    1.157805e+00
  2.232521e+01    1.156827e+00
  2.234109e+01    1.130724e+00
  2.235696e+01    1.125078e+00
  2.237284e+01    1.072883e+00
  2.238872e+01    1.077027e+00
  2.240459e+01    1.074961e+00
  2.242047e+01    1.054173e+00
  2.243634e+01    1.037161e+00
  2.245222e+01    1.034174e+00
  2.246809e+01    1.037735e+00
  2.248397e+01    1.008021e+00
  2.249984e+01    1.004040e+00
  2.251572e+01    1.018662e+00
  2.253160e+01    9.845397e-01
  2.254747e+01    9.970473e-01
  2.256335e+01    9.952077e-01
  2.257922e+01    9.985774e-01
  2.259510e+01    9.953898e-01
  2.261097e+01    9.704043e-01
  2.262685e+01    9.727200e-01
  2.264272e+01    9.587005e-01
  2.265860e+01    9.709681e-01
  2.267448e+01    9.341620e-01
  2.269035e+01    9.310526e-01
  2.270623e+01    9.455890e-01
  2.272210e+01    9.548491e-01
  2.273798e+01    9.389609e-01
  2.275385e+01    9.304770e-01
  2.276973e+01    9.357436e-01
  2.278560e+01    9.517189e-01
  2.280148e+01    9.431297e-01
  2.281736e+01    9.349673e-01
  2.283323e+01    9.217514e-01
  2.284911e+01    9.253386e-01
  2.286498e+01    9.145404e-01
  2.288086e+01    9.109393e-01
  2.289673e+01    9.242389e-01
  2.291261e+01    9.298630e-01
  2.292848e+01    9.107081e-01
  2.294436e+01    8.909927e-01
  2.296024e+01    9.210228e-01
  2.297611e+01    9.168513e-01
  2.299199e+01    8.937582e-01
  2.300786e+01    8.771586e-01
  2.302374e+01    8.852763e-01
  2.303961e+01    9.126599e-01
  2.305549e+01    8.912884e-01
  2.307137e+01    8.934191e-01
  2.308724e+01    8.588268e-01
  2.310312e+01    8.735548e-01
  2.311899e+01    8.852105e-01
  2.313487e+01    8.733756e-01
  2.315074e+01    8.784895e-01
  2.316662e+01    8.468556e-01
  2.318249e+01    8.576797e-01
  2.319837e+01    8.778830e-01
  2.321425e+01    8.868171e-01
  2.323012e+01    8.907987e-01
  2.324600e+01    8.875826e-01
  2.326187e+01    8.535296e-01
  2.327775e+01    8.553255e-01
  2.329362e+01    8.612469e-01
  2.330950e+01    8.718266e-01
  2.332537e+01    8.681371e-01
  2.334125e+01    8.591797e-01
  2.335713e+01    8.782495e-01
  2.337300e+01    8.542402e-01
  2.338888e+01    8.588731e-01
  2.340475e+01    8.618223e-01
  2.342063e+01    8.619083e-01
  2.343650e+01    8.504316e-01
  2.345238e+01    8.475508e-01
  2.346825e+01    8.582177e-01
  2.348413e+01    8.503645e-01
  2.350001e+01    8.227174e-01
  2.351588e+01    8.346107e-01
  2.353176e+01    8.625582e-01
  2.354763e+01    8.357635e-01
  2.356351e+01    8.355798e-01
  2.357938e+01    8.353058e-01
  2.359526e+01    8.426159e-01
  2.361113e+01    8.414684e-01
  2.362701e+01    8.447151e-01
  2.364289e+01    8.351012e-01
  2.365876e+01    8.318248e-01
  2.367464e+01    8.457481e-01
  2.369051e+01    8.377766e-01
  2.370639e+01    8.362285e-01
  2.372226e+01    8.250536e-01
  2.373814e+01    8.245961e-01
  2.375401e+01    8.250613e-01
  2.376989e+01    8.004206e-01
  2.378577e+01    8.146412e-01
  2.380164e+01    8.188378e-01
  2.381752e+01    8.113489e-01
  2.383339e+01    8.069293e-01
  2.384927e+01    8.161986e-01
  2.386514e+01    8.145877e-01
  2.388102e+01    8.221630e-01
  2.389689e+01    8.211405e-01
  2.391277e+01    8.006569e-01
  2.392865e+01    7.929482e-01
  2.394452e+01    8.146325e-01
  2.396040e+01    8.095950e-01
  2.397627e+01    8.050438e-01
  2.399215e+01    7.976387e-01
  2.400802e+01    7.913740e-01
  2.402390e+01    8.004337e-01
  2.403978e+01    8.103326e-01
  2.405565e+01    7.904009e-01
  2.407153e+01    7.855504e-01
  2.408740e+01    7.863387e-01
  2.410328e+01    7.680468e-01
  2.411915e+01    7.954590e-01
  2.413503e+01    8.094353e-01
  2.415090e+01    7.721475e-01
  2.416678e+01    7.648388e-01
  2.418266e+01    7.932070e-01
  2.419853e+01    7.676984e-01
  2.421441e+01    7.850132e-01
  2.423028e+01    7.856735e-01
  2.424616e+01    7.913494e-01
  2.426203e+01    7.967756e-01
  2.427791e+01    7.882823e-01
  2.429378e+01    7.832749e-01
  2.430966e+01    7.907217e-01
  2.432554e+01    7.881970e-01
  2.434141e+01    7.869943e-01
  2.435729e+01    7.924560e-01
  2.437316e+01    7.990988e-01
  2.438904e+01    7.890742e-01
  2.440491e+01    7.947739e-01
  2.442079e+01    7.613931e-01
  2.443666e+01    7.982047e-01
  2.445254e+01    8.005683e-01
  2.446842e+01    8.059784e-01
  2.448429e+01    7.852928e-01
  2.450017e+01    7.726572e-01
  2.451604e+01    7.941056e-01
  2.453192e+01    7.965735e-01
  2.454779e+01    7.883503e-01
  2.456367e+01    7.875860e-01
  2.457954e+01    7.956186e-01
  2.459542e+01    8.013285e-01
  2.461130e+01    8.108863e-01
  2.462717e+01    7.840025e-01
  2.464305e+01    7.782378e-01
  2.465892e+01    7.966870e-01
  2.467480e+01    8.041619e-01
  2.469067e+01    7.943383e-01
  2.470655e+01    7.729823e-01
  2.472242e+01    7.730316e-01
  2.473830e+01    7.897487e-01
  2.475418e+01    8.022711e-01
  2.477005e+01    7.835510e-01
  2.478593e+01    7.766163e-01
  2.480180e+01    7.972310e-01
  2.481768e+01    7.738577e-01
  2.483355e+01    7.971818e-01
  2.484943e+01    7.989672e-01
  2.486530e+01    7.863592e-01
  2.488118e+01    7.744078e-01
  2.489706e+01    7.893433e-01
  2.491293e+01    7.893452e-01
  2.492881e+01    7.935689e-01
  2.494468e+01    7.865766e-01
  2.496056e+01    7.815859e-01
  2.497643e+01    7.970488e-01
  2.499231e+01    8.047177e-01
  2.500819e+01    8.043136e-01
  2.502406e+01    8.034738e-01
  2.503994e+01    7.662171e-01
  2.505581e+01    7.825440e-01
  2.507169e+01    8.004817e-01
  2.508756e+01    7.969322e-01
  2.510344e+01    7.963514e-01
  2.511931e+01    8.128227e-01
  2.513519e+01    8.041952e-01
  2.515107e+01    7.932851e-01
  2.516694e+01    8.274784e-01
  2.518282e+01    8.110036e-01
  2.519869e+01    8.449200e-01
  2.521457e+01    8.512451e-01
  2.523044e+01    8.321111e-01
  2.524632e+01    8.221229e-01
  2.526219e+01    8.309393e-01
  2.527807e+01    8.431517e-01
  2.529395e+01    8.607279e-01
  2.530982e+01    8.700600e-01
  2.532570e+01    8.598241e-01
  2.534157e+01    8.584062e-01
  2.535745e+01    8.839896e-01
  2.537332e+01    8.675145e-01
  2.538920e+01    8.797261e-01
  2.540507e+01    8.942553e-01
  2.542095e+01    8.982503e-01
  2.543683e+01    9.207839e-01
  2.545270e+01    9.400619e-01
  2.546858e+01    9.424096e-01
  2.548445e+01    9.466995e-01
  2.550033e+01    9.667979e-01
  2.551620e+01    9.756095e-01
  2.553208e+01    1.011984e+00
  2.554795e+01    1.037759e+00
  2.556383e+01    1.063990e+00
  2.557971e+01    1.062288e+00
  2.559558e+01    1.081245e+00
  2.561146e+01    1.116255e+00
  2.562733e+01    1.161954e+00
  2.564321e+01    1.205204e+00
  2.565908e+01    1.269220e+00
  2.567496e+01    1.325680e+00
  2.569083e+01    1.377837e+00
  2.570671e+01    1.486443e+00
  2.572259e+01    1.566099e+00
  2.573846e+01    1.740392e+00
  2.575434e+01    1.881988e+00
  2.577021e+01    2.075091e+00
  2.578609e+01    2.336526e+00
  2.580196e+01    2.646390e+00
  2.581784e+01    3.000532e+00
  2.583371e+01    3.436082e+00
  2.584959e+01    3.926661e+00
  2.586547e+01    4.458328e+00
  2.588134e+01    4.982996e+00
  2.589722e+01    5.593552e+00
  2.591309e+01    6.154354e+00
  2.592897e+01    6.647492e+00
  2.594484e+01    6.960503e+00
  2.596072e+01    7.088272e+00
  2.597660e+01    6.974507e+00
  2.599247e+01    6.602131e+00
  2.600835e+01    6.068785e+00
  2.602422e+01    5.378433e+00
  2.604010e+01    4.663768e+00
  2.605597e+01    4.048291e+00
  2.607185e+01    3.455633e+00
  2.608772e+01    2.999415e+00
  2.610360e+01    2.583494e+00
  2.611948e+01    2.256242e+00
  2.613535e+01    2.057077e+00
  2.615123e+01    1.864569e+00
  2.616710e+01    1.703345e+00
  2.618298e+01    1.559246e+00
  2.619885e+01    1.452144e+00
  2.621473e+01    1.361656e+00
  2.623060e+01    1.305150e+00
  2.624648e+01    1.226228e+00
  2.626236e+01    1.178772e+00
  2.627823e+01    1.153164e+00
  2.629411e+01    1.139250e+00
  2.630998e+01    1.083952e+00
  2.632586e+01    1.052669e+00
  2.634173e+01    1.027634e+00
  2.635761e+01    1.002032e+00
  2.637348e+01    9.765605e-01
  2.638936e+01    9.874676e-01
  2.640524e+01    9.668166e-01
  2.642111e+01    9.360835e-01
  2.643699e+01    9.193847e-01
  2.645286e+01    9.387819e-01
  2.646874e+01    9.209573e-01
  2.648461e+01    9.347743e-01
  2.650049e+01    9.271311e-01
  2.651636e+01    8.975056e-01
  2.653224e+01    9.055920e-01
  2.654812e+01    9.190140e-01
  2.656399e+01    9.076130e-01
  2.657987e+01    8.851464e-01
  2.659574e+01    8.835537e-01
  2.661162e+01    8.723963e-01
  2.662749e+01    8.708551e-01
  2.664337e+01    8.892213e-01
  2.665924e+01    8.880176e-01
  2.667512e+01    8.771726e-01
  2.669100e+01    8.942650e-01
  2.670687e+01    8.784272e-01
  2.672275e+01    8.827464e-01
  2.673862e+01    8.853431e-01
  2.675450e+01    9.056066e-01
  2.677037e+01    9.009104e-01
  2.678625e+01    8.960211e-01
  2.680212e+01    8.688252e-01
  2.681800e+01    8.630266e-01
  2.683388e+01    8.708510e-01
  2.684975e+01    8.724543e-01
  2.686563e+01    8.939928e-01
  2.688150e+01    9.214543e-01
  2.689738e+01    9.169848e-01
  2.691325e+01    9.041355e-01
  2.692913e+01    9.213393e-01
  2.694501e+01    9.388942e-01
  2.696088e+01    9.571549e-01
  2.697676e+01    9.539919e-01
  2.699263e+01    9.814622e-01
  2.700851e+01    1.012495e+00
  2.702438e+01    1.053447e+00
  2.704026e+01    1.097884e+00
  2.705613e+01    1.155407e+00
  2.707201e+01    1.213786e+00
  2.708789e+01    1.282376e+00
  2.710376e+01    1.401618e+00
  2.711964e+01    1.517197e+00
  2.713551e+01    1.631997e+00
  2.715139e+01    1.753983e+00
  2.716726e+01    1.890265e+00
  2.718314e+01    2.025120e+00
  2.719901e+01    2.078083e+00
  2.721489e+01    2.147853e+00
  2.723077e+01    2.146598e+00
  2.724664e+01    2.084145e+00
  2.726252e+01    1.966850e+00
  2.727839e+01    1.824744e+00
  2.729427e+01    1.679104e+00
  2.731014e+01    1.527612e+00
  2.732602e+01    1.375661e+00
  2.734189e+01    1.282832e+00
  2.735777e+01    1.199263e+00
  2.737365e+01    1.124799e+00
  2.738952e+01    1.082220e+00
  2.740540e+01    1.052012e+00
  2.742127e+01    1.034552e+00
  2.743715e+01    9.882995e-01
  2.745302e+01    9.443883e-01
  2.746890e+01    9.260827e-01
  2.748477e+01    9.311848e-01
  2.750065e+01    9.112805e-01
  2.751653e+01    8.877650e-01
  2.753240e+01    8.711717e-01
  2.754828e+01    8.619493e-01
  2.756415e+01    8.654502e-01
  2.758003e+01    8.454235e-01
  2.759590e+01    8.529654e-01
  2.761178e+01    8.269141e-01
  2.762765e+01    8.297573e-01
  2.764353e+01    8.338335e-01
  2.765941e+01    8.289406e-01
  2.767528e+01    8.213511e-01
  2.769116e+01    8.206391e-01
  2.770703e+01    8.196796e-01
  2.772291e+01    8.379870e-01
  2.773878e+01    7.998108e-01
  2.775466e+01    8.045359e-01
  2.777054e+01    8.149329e-01
  2.778641e+01    8.120141e-01
  2.780229e+01    7.882474e-01
  2.781816e+01    7.902199e-01
  2.783404e+01    7.960938e-01
  2.784991e+01    7.812390e-01
  2.786579e+01    7.889138e-01
  2.788166e+01    7.862345e-01
  2.789754e+01    8.020957e-01
  2.791342e+01    7.878051e-01
  2.792929e+01    8.091755e-01
  2.794517e+01    7.998977e-01
  2.796104e+01    7.823151e-01
  2.797692e+01    7.903199e-01
  2.799279e+01    7.788843e-01
  2.800867e+01    7.754479e-01
  2.802454e+01    7.759724e-01
  2.804042e+01    7.792747e-01
  2.805630e+01    7.685177e-01
  2.807217e+01    7.755697e-01
  2.808805e+01    7.716528e-01
  2.810392e+01    7.491127e-01
  2.811980e+01    7.402200e-01
  2.813567e+01    7.539523e-01
  2.815155e+01    7.544164e-01
  2.816742e+01    7.490860e-01
  2.818330e+01    7.716835e-01
  2.819918e+01    7.420447e-01
  2.821505e+01    7.444910e-01
  2.823093e+01    7.656336e-01
  2.824680e+01    7.709049e-01
  2.826268e+01    7.783195e-01
  2.827855e+01    7.656861e-01
  2.829443e+01    7.723408e-01
  2.831030e+01    7.671176e-01
  2.832618e+01    7.466044e-01
  2.834206e+01    7.457930e-01
  2.835793e+01    7.713447e-01
  2.837381e+01    7.474380e-01
  2.838968e+01    7.543035e-01
  2.840556e+01    7.692150e-01
  2.842143e+01    7.671776e-01
  2.843731e+01    7.519261e-01
  2.845318e+01    7.501763e-01
  2.846906e+01    7.551588e-01
  2.848494e+01    7.571675e-01
  2.850081e+01    7.592794e-01
  2.851669e+01    7.448438e-01
  2.853256e+01    7.304887e-01
  2.854844e+01    7.354714e-01
  2.856431e+01    7.437213e-01
  2.858019e+01    7.489737e-01
  2.859606e+01    7.589017e-01
  2.861194e+01    7.529514e-01
  2.862782e+01    7.462487e-01
  2.864369e+01    7.246882e-01
  2.865957e+01    7.331411e-01
  2.867544e+01    7.144017e-01
  2.869132e+01    7.512873e-01
  2.870719e+01    7.449986e-01
  2.872307e+01    7.411860e-01
  2.873895e+01    7.441632e-01
  2.875482e+01    7.493731e-01
  2.877070e+01    7.504756e-01
  2.878657e+01    7.396152e-01
  2.880245e+01    7.409518e-01
  2.881832e+01    7.419778e-01
  2.883420e+01    7.379494e-01
  2.885007e+01    7.270556e-01
  2.886595e+01    7.389510e-01
  2.888183e+01    7.655330e-01
  2.889770e+01    7.351977e-01
  2.891358e+01    7.421629e-01
  2.892945e+01    7.245068e-01
  2.894533e+01    7.292275e-01
  2.896120e+01    7.734183e-01
  2.897708e+01    7.293910e-01
  2.899295e+01    7.138672e-01
  2.900883e+01    7.363012e-01
  2.902471e+01    7.247623e-01
  2.904058e+01    7.307535e-01
  2.905646e+01    7.283299e-01
  2.907233e+01    7.210141e-01
  2.908821e+01    7.081096e-01
  2.910408e+01    7.298010e-01
  2.911996e+01    7.282670e-01
  2.913583e+01    7.240120e-01
  2.915171e+01    7.341679e-01
  2.916759e+01    7.356678e-01
  2.918346e+01    7.217701e-01
  2.919934e+01    7.166004e-01
  2.921521e+01    7.229850e-01
  2.923109e+01    7.223643e-01
  2.924696e+01    7.236449e-01
  2.926284e+01    7.255946e-01
  2.927871e+01    7.271310e-01
  2.929459e+01    7.223812e-01
  2.931047e+01    7.386637e-01
  2.932634e+01    7.261713e-01
  2.934222e+01    7.308156e-01
  2.935809e+01    7.234560e-01
  2.937397e+01    7.147264e-01
  2.938984e+01    7.034132e-01
  2.940572e+01    7.148941e-01
  2.942159e+01    7.278062e-01
  2.943747e+01    7.067646e-01
  2.945335e+01    7.210323e-01
  2.946922e+01    7.191635e-01
  2.948510e+01    7.041889e-01
  2.950097e+01    7.252195e-01
  2.951685e+01    7.312323e-01
  2.953272e+01    7.312421e-01
  2.954860e+01    7.347410e-01
  2.956447e+01    7.296769e-01
  2.958035e+01    7.409164e-01
  2.959623e+01    7.283885e-01
  2.961210e+01    6.984350e-01
  2.962798e+01    6.935047e-01
  2.964385e+01    7.282908e-01
  2.965973e+01    7.232451e-01
  2.967560e+01    7.339130e-01
  2.969148e+01    7.359409e-01
  2.970736e+01    7.207198e-01
  2.972323e+01    7.273457e-01
  2.973911e+01    7.423081e-01
  2.975498e+01    7.207922e-01
  2.977086e+01    7.106391e-01
  2.978673e+01    7.345554e-01
  2.980261e+01    7.331611e-01
  2.981848e+01    7.171351e-01
  2.983436e+01    7.158360e-01
  2.985024e+01    7.269586e-01
  2.986611e+01    7.216657e-01
  2.988199e+01    7.291637e-01
  2.989786e+01    7.191531e-01
  2.991374e+01    7.184122e-01
  2.992961e+01    7.229981e-01
  2.994549e+01    7.265409e-01
  2.996136e+01    7.258494e-01
  2.997724e+01    7.144814e-01
  2.999312e+01    7.235193e-01
  3.000899e+01    7.159154e-01
  3.002487e+01    7.220663e-01
  3.004074e+01    7.183957e-01
  3.005662e+01    7.324904e-01
  3.007249e+01    7.158340e-01
  3.008837e+01    7.092934e-01
  3.010424e+01    6.953521e-01
  3.012012e+01    7.279073e-01
  3.013600e+01    7.260425e-01
  3.015187e+01    7.055317e-01
  3.016775e+01    6.915408e-01
  3.018362e+01    7.045734e-01
  3.019950e+01    7.272622e-01
  3.021537e+01    6.980556e-01
  3.023125e+01    7.042378e-01
  3.024712e+01    7.132171e-01
  3.026300e+01    7.227937e-01
  3.027888e+01    7.066396e-01
  3.029475e+01    7.166010e-01
  3.031063e+01    7.227378e-01
  3.032650e+01    7.153760e-01
  3.034238e+01    6.930215e-01
  3.035825e+01    6.901997e-01
  3.037413e+01    7.133530e-01
  3.039000e+01    6.956393e-01
  3.040588e+01    6.921347e-01
  3.042176e+01    7.078848e-01
  3.043763e+01    6.801507e-01
  3.045351e+01    6.861538e-01
  3.046938e+01    7.256512e-01
  3.048526e+01    7.070336e-01
  3.050113e+01    7.049753e-01
  3.051701e+01    7.084181e-01
  3.053288e+01    7.104238e-01
  3.054876e+01    6.906573e-01
  3.056464e+01    6.970376e-01
  3.058051e+01    7.203485e-01
  3.059639e+01    7.097741e-01
  3.061226e+01    7.146407e-01
  3.062814e+01    7.156354e-01
  3.064401e+01    7.085422e-01
  3.065989e+01    7.129971e-01
  3.067577e+01    7.143633e-01
  3.069164e+01    7.149870e-01
  3.070752e+01    7.048053e-01
  3.072339e+01    7.135782e-01
  3.073927e+01    7.054355e-01
  3.075514e+01    7.162536e-01
  3.077102e+01    7.221245e-01
  3.078689e+01    7.073452e-01
  3.080277e+01    7.122259e-01
  3.081865e+01    7.223355e-01
  3.083452e+01    7.122978e-01
  3.085040e+01    7.245564e-01
  3.086627e+01    7.052330e-01
  3.088215e+01    6.965633e-01
  3.089802e+01    6.924901e-01
  3.091390e+01    6.992252e-01
  3.092977e+01    7.182344e-01
  3.094565e+01    7.154033e-01
  3.096153e+01    7.068293e-01
  3.097740e+01    7.230132e-01
  3.099328e+01    7.048615e-01
  3.100915e+01    6.962751e-01
  3.102503e+01    7.110523e-01
  3.104090e+01    7.290265e-01
  3.105678e+01    7.140400e-01
  3.107265e+01    7.125686e-01
  3.108853e+01    7.214820e-01
  3.110441e+01    7.204734e-01
  3.112028e+01    7.195688e-01
  3.113616e+01    7.191058e-01
  3.115203e+01    7.229766e-01
  3.116791e+01    6.900651e-01
  3.118378e+01    7.031435e-01
  3.119966e+01    7.245909e-01
  3.121553e+01    7.188718e-01
  3.123141e+01    7.169456e-01
  3.124729e+01    7.306676e-01
  3.126316e+01    7.408627e-01
  3.127904e+01    7.282591e-01
  3.129491e+01    7.281799e-01
  3.131079e+01    7.160626e-01
  3.132666e+01    6.878574e-01
  3.134254e+01    7.253551e-01
  3.135841e+01    7.327565e-01
  3.137429e+01    7.333373e-01
  3.139017e+01    7.424816e-01
  3.140604e+01    7.489544e-01
  3.142192e+01    7.548847e-01
  3.143779e+01    7.390872e-01
  3.145367e+01    7.328104e-01
  3.146954e+01    7.513555e-01
  3.148542e+01    7.411299e-01
  3.150129e+01    7.572572e-01
  3.151717e+01    7.610035e-01
  3.153305e+01    7.644168e-01
  3.154892e+01    7.638348e-01
  3.156480e+01    7.720223e-01
  3.158067e+01    7.813281e-01
  3.159655e+01    8.071659e-01
  3.161242e+01    8.326297e-01
  3.162830e+01    8.603039e-01
  3.164418e+01    8.555667e-01
  3.166005e+01    8.617252e-01
  3.167593e+01    9.049298e-01
  3.169180e+01    9.278066e-01
  3.170768e+01    9.627342e-01
  3.172355e+01    9.867421e-01
  3.173943e+01    1.033412e+00
  3.175530e+01    1.124413e+00
  3.177118e+01    1.217655e+00
  3.178706e+01    1.324831e+00
  3.180293e+01    1.386771e+00
  3.181881e+01    1.504558e+00
  3.183468e+01    1.668100e+00
  3.185056e+01    1.779922e+00
  3.186643e+01    1.944604e+00
  3.188231e+01    2.033772e+00
  3.189818e+01    2.115618e+00
  3.191406e+01    2.149371e+00
  3.192994e+01    2.076151e+00
  3.194581e+01    1.977939e+00
  3.196169e+01    1.829468e+00
  3.197756e+01    1.678073e+00
  3.199344e+01    1.514583e+00
  3.200931e+01    1.376281e+00
  3.202519e+01    1.284543e+00
  3.204106e+01    1.182358e+00
  3.205694e+01    1.116422e+00
  3.207282e+01    1.035787e+00
  3.208869e+01    9.681074e-01
  3.210457e+01    9.296135e-01
  3.212044e+01    9.146495e-01
  3.213632e+01    8.739676e-01
  3.215219e+01    8.448331e-01
  3.216807e+01    8.245200e-01
  3.218394e+01    8.150645e-01
  3.219982e+01    8.016818e-01
  3.221570e+01    7.960954e-01
  3.223157e+01    7.898868e-01
  3.224745e+01    7.742047e-01
  3.226332e+01    7.569463e-01
  3.227920e+01    7.479966e-01
  3.229507e+01    7.511609e-01
  3.231095e+01    7.467830e-01
  3.232682e+01    7.322601e-01
  3.234270e+01    7.416817e-01
  3.235858e+01    7.410692e-01
  3.237445e+01    7.384923e-01
  3.239033e+01    7.317141e-01
  3.240620e+01    6.958225e-01
  3.242208e+01    6.939597e-01
  3.243795e+01    7.308524e-01
  3.245383e+01    7.303097e-01
  3.246970e+01    7.169560e-01
  3.248558e+01    7.464068e-01
  3.250146e+01    7.236624e-01
  3.251733e+01    6.967477e-01
  3.253321e+01    6.986708e-01
  3.254908e+01    7.031366e-01
