# == pyFAI calibration ==
# Distance Sample to Detector: 0.3999999939076516 m
# PONI: 9.750e-02, 1.135e-01 m
# Rotations: -0.000175 0.000000 -0.000000 rad
# 
# == Fit2d calibration ==
# Distance Sample-beamCenter: 400.000 mm
# Center: x=1514.000, y=1300.000 pix
# Tilt: 0.010 deg  TiltPlanRot: 0.010 deg
# 
# Detector Detector	 Spline= None	 PixelSize= 7.500e-05, 7.500e-05 m
#    Detector has a mask: False 
#    Detector has a dark current: False 
#    detector has a flat field: False 
# 
# Wavelength: 6.888e-11 m
# Mask applied: user provided
# Dark current applied: False
# Flat field applied: False
# Polarization factor: 0.99
# Normalization factor: 1.0
# --> /home/myspot/data/2024_07_Rosario/Ru-CGO-ex/2024-07-27_002_Ru-CGO-ex_Activtation_ramp_000002_data_000076.dat
#       q_nm^-1             I 
  2.003187e-02    7.712624e-02
  3.590745e-02    9.849990e-02
  5.178302e-02    6.857958e-02
  6.765859e-02    6.899931e-02
  8.353417e-02    1.772976e-01
  9.940974e-02    1.831586e-01
  1.152853e-01    1.011188e-01
  1.311609e-01    7.621704e-02
  1.470365e-01    1.610428e-02
  1.629120e-01    3.494308e-04
  1.787876e-01    7.026000e-02
  1.946632e-01    7.235507e-02
  2.105388e-01    5.254465e-02
  2.264143e-01    2.632408e-02
  2.422899e-01    1.105189e-02
  2.581655e-01    3.065478e-02
  2.740411e-01    3.383880e-02
  2.899166e-01    1.849434e-02
  3.057922e-01    3.090031e-02
  3.216678e-01    2.781310e-02
  3.375433e-01    4.586985e-02
  3.534189e-01    1.951802e-02
  3.692945e-01    4.336828e-02
  3.851701e-01    3.122022e-02
  4.010456e-01    2.162118e-02
  4.169212e-01    3.435450e-02
  4.327968e-01    4.569160e-02
  4.486724e-01    1.439756e-02
  4.645479e-01    3.805071e-02
  4.804235e-01    3.412907e-02
  4.962991e-01    2.268511e-02
  5.121747e-01    1.816129e-02
  5.280502e-01    1.919110e-02
  5.439258e-01    1.575538e-02
  5.598014e-01    4.247131e-02
  5.756770e-01    6.305470e-02
  5.915525e-01    3.135397e-02
  6.074281e-01    2.375830e-02
  6.233037e-01    4.622353e-02
  6.391793e-01    4.436373e-02
  6.550548e-01    6.495120e-02
  6.709304e-01    4.841211e-02
  6.868060e-01    4.732665e-02
  7.026815e-01    4.331940e-02
  7.185571e-01    5.906126e-02
  7.344327e-01    5.689602e-02
  7.503083e-01    7.447303e-02
  7.661838e-01    7.056953e-02
  7.820594e-01    1.005209e-01
  7.979350e-01    1.463759e-01
  8.138106e-01    2.266657e-01
  8.296861e-01    2.697936e-01
  8.455617e-01    2.415007e-01
  8.614373e-01    3.390353e-01
  8.773129e-01    3.817712e-01
  8.931884e-01    4.920060e-01
  9.090640e-01    6.065422e-01
  9.249396e-01    6.901761e-01
  9.408152e-01    6.902112e-01
  9.566907e-01    7.852405e-01
  9.725663e-01    9.265115e-01
  9.884419e-01    9.428958e-01
  1.004317e+00    9.507546e-01
  1.020193e+00    1.086642e+00
  1.036069e+00    1.125556e+00
  1.051944e+00    1.204561e+00
  1.067820e+00    1.308925e+00
  1.083695e+00    1.234659e+00
  1.099571e+00    1.294446e+00
  1.115446e+00    1.366610e+00
  1.131322e+00    1.472543e+00
  1.147198e+00    1.457511e+00
  1.163073e+00    1.544701e+00
  1.178949e+00    1.599104e+00
  1.194824e+00    1.681415e+00
  1.210700e+00    1.817477e+00
  1.226575e+00    2.083579e+00
  1.242451e+00    2.264899e+00
  1.258327e+00    2.420070e+00
  1.274202e+00    2.568664e+00
  1.290078e+00    2.443624e+00
  1.305953e+00    2.488868e+00
  1.321829e+00    2.612113e+00
  1.337705e+00    2.648584e+00
  1.353580e+00    2.639770e+00
  1.369456e+00    2.666383e+00
  1.385331e+00    2.807935e+00
  1.401207e+00    2.726621e+00
  1.417082e+00    2.702600e+00
  1.432958e+00    2.738946e+00
  1.448834e+00    2.791810e+00
  1.464709e+00    2.794153e+00
  1.480585e+00    2.858370e+00
  1.496460e+00    2.856076e+00
  1.512336e+00    2.698344e+00
  1.528211e+00    2.822474e+00
  1.544087e+00    2.962629e+00
  1.559963e+00    2.995821e+00
  1.575838e+00    2.909131e+00
  1.591714e+00    2.920273e+00
  1.607589e+00    2.849018e+00
  1.623465e+00    2.885745e+00
  1.639340e+00    2.936677e+00
  1.655216e+00    2.860282e+00
  1.671092e+00    2.766262e+00
  1.686967e+00    2.816894e+00
  1.702843e+00    2.938108e+00
  1.718718e+00    2.903969e+00
  1.734594e+00    2.826990e+00
  1.750469e+00    2.811969e+00
  1.766345e+00    2.866455e+00
  1.782221e+00    2.868719e+00
  1.798096e+00    2.717480e+00
  1.813972e+00    2.687826e+00
  1.829847e+00    2.794988e+00
  1.845723e+00    2.789675e+00
  1.861598e+00    2.828795e+00
  1.877474e+00    2.853678e+00
  1.893350e+00    2.729827e+00
  1.909225e+00    2.707997e+00
  1.925101e+00    2.687393e+00
  1.940976e+00    2.775743e+00
  1.956852e+00    2.837362e+00
  1.972727e+00    2.757872e+00
  1.988603e+00    2.706852e+00
  2.004479e+00    2.688726e+00
  2.020354e+00    2.771351e+00
  2.036230e+00    2.709575e+00
  2.052105e+00    2.641622e+00
  2.067981e+00    2.711153e+00
  2.083856e+00    2.742801e+00
  2.099732e+00    2.759385e+00
  2.115608e+00    2.766926e+00
  2.131483e+00    2.797478e+00
  2.147359e+00    2.798150e+00
  2.163234e+00    2.804869e+00
  2.179110e+00    2.724630e+00
  2.194985e+00    2.687677e+00
  2.210861e+00    2.743747e+00
  2.226737e+00    2.693478e+00
  2.242612e+00    2.688492e+00
  2.258488e+00    2.704953e+00
  2.274363e+00    2.772703e+00
  2.290239e+00    2.711221e+00
  2.306115e+00    2.721929e+00
  2.321990e+00    2.694292e+00
  2.337866e+00    2.645943e+00
  2.353741e+00    2.728221e+00
  2.369617e+00    2.779928e+00
  2.385492e+00    2.848205e+00
  2.401368e+00    2.777244e+00
  2.417244e+00    2.774125e+00
  2.433119e+00    2.888214e+00
  2.448995e+00    2.839002e+00
  2.464870e+00    2.785775e+00
  2.480746e+00    2.775000e+00
  2.496621e+00    2.791197e+00
  2.512497e+00    2.877484e+00
  2.528373e+00    2.732510e+00
  2.544248e+00    2.626963e+00
  2.560124e+00    2.619802e+00
  2.575999e+00    2.669474e+00
  2.591875e+00    2.633011e+00
  2.607750e+00    2.756944e+00
  2.623626e+00    2.825750e+00
  2.639502e+00    2.851264e+00
  2.655377e+00    2.808186e+00
  2.671253e+00    2.834092e+00
  2.687128e+00    2.865967e+00
  2.703004e+00    2.881446e+00
  2.718879e+00    2.907214e+00
  2.734755e+00    2.780638e+00
  2.750631e+00    2.694584e+00
  2.766506e+00    2.840864e+00
  2.782382e+00    2.928695e+00
  2.798257e+00    2.785558e+00
  2.814133e+00    2.820196e+00
  2.830008e+00    2.878386e+00
  2.845884e+00    2.853524e+00
  2.861760e+00    2.898314e+00
  2.877635e+00    2.875032e+00
  2.893511e+00    2.923472e+00
  2.909386e+00    2.840859e+00
  2.925262e+00    2.854113e+00
  2.941137e+00    2.887616e+00
  2.957013e+00    2.858562e+00
  2.972889e+00    2.847435e+00
  2.988764e+00    2.832838e+00
  3.004640e+00    2.785085e+00
  3.020515e+00    2.922739e+00
  3.036391e+00    2.974055e+00
  3.052266e+00    2.936957e+00
  3.068142e+00    2.892559e+00
  3.084018e+00    2.833281e+00
  3.099893e+00    2.874247e+00
  3.115769e+00    2.910924e+00
  3.131644e+00    2.973902e+00
  3.147520e+00    2.987838e+00
  3.163395e+00    2.930443e+00
  3.179271e+00    2.850915e+00
  3.195147e+00    2.900038e+00
  3.211022e+00    2.835103e+00
  3.226898e+00    2.771164e+00
  3.242773e+00    2.927590e+00
  3.258649e+00    2.941196e+00
  3.274525e+00    2.967871e+00
  3.290400e+00    2.864561e+00
  3.306276e+00    2.838042e+00
  3.322151e+00    2.877473e+00
  3.338027e+00    2.931773e+00
  3.353902e+00    3.085337e+00
  3.369778e+00    2.972706e+00
  3.385654e+00    3.003512e+00
  3.401529e+00    2.985207e+00
  3.417405e+00    2.876061e+00
  3.433280e+00    2.893386e+00
  3.449156e+00    2.901420e+00
  3.465031e+00    2.928180e+00
  3.480907e+00    2.980774e+00
  3.496783e+00    2.983135e+00
  3.512658e+00    2.898935e+00
  3.528534e+00    2.898395e+00
  3.544409e+00    2.946136e+00
  3.560285e+00    2.928924e+00
  3.576160e+00    2.913234e+00
  3.592036e+00    2.946838e+00
  3.607912e+00    2.915805e+00
  3.623787e+00    2.909713e+00
  3.639663e+00    3.047663e+00
  3.655538e+00    2.961995e+00
  3.671414e+00    2.911529e+00
  3.687289e+00    2.879165e+00
  3.703165e+00    2.973032e+00
  3.719041e+00    3.069333e+00
  3.734916e+00    3.084214e+00
  3.750792e+00    2.999987e+00
  3.766667e+00    2.971112e+00
  3.782543e+00    3.006809e+00
  3.798418e+00    2.991192e+00
  3.814294e+00    2.919383e+00
  3.830170e+00    2.938885e+00
  3.846045e+00    2.954460e+00
  3.861921e+00    3.018255e+00
  3.877796e+00    3.031613e+00
  3.893672e+00    3.002438e+00
  3.909547e+00    3.029414e+00
  3.925423e+00    2.949719e+00
  3.941299e+00    2.992934e+00
  3.957174e+00    2.976264e+00
  3.973050e+00    2.978769e+00
  3.988925e+00    3.012399e+00
  4.004801e+00    3.116702e+00
  4.020676e+00    3.112536e+00
  4.036552e+00    3.100826e+00
  4.052428e+00    3.028806e+00
  4.068303e+00    3.071097e+00
  4.084179e+00    3.030374e+00
  4.100054e+00    3.004094e+00
  4.115930e+00    2.978933e+00
  4.131806e+00    3.042096e+00
  4.147681e+00    2.985928e+00
  4.163557e+00    2.925551e+00
  4.179432e+00    2.962207e+00
  4.195308e+00    2.935781e+00
  4.211183e+00    2.952179e+00
  4.227059e+00    3.027334e+00
  4.242935e+00    3.006250e+00
  4.258810e+00    3.099164e+00
  4.274686e+00    3.121818e+00
  4.290561e+00    3.015293e+00
  4.306437e+00    2.946499e+00
  4.322312e+00    3.017896e+00
  4.338188e+00    3.013845e+00
  4.354064e+00    3.025964e+00
  4.369939e+00    2.992136e+00
  4.385815e+00    3.063271e+00
  4.401690e+00    3.044461e+00
  4.417566e+00    2.984629e+00
  4.433441e+00    3.024144e+00
  4.449317e+00    3.097001e+00
  4.465193e+00    3.083975e+00
  4.481068e+00    3.112141e+00
  4.496944e+00    3.124828e+00
  4.512819e+00    3.080856e+00
  4.528695e+00    3.128809e+00
  4.544570e+00    3.115252e+00
  4.560446e+00    3.010968e+00
  4.576322e+00    2.957414e+00
  4.592197e+00    3.034266e+00
  4.608073e+00    3.133682e+00
  4.623948e+00    3.144257e+00
  4.639824e+00    3.070025e+00
  4.655699e+00    3.050487e+00
  4.671575e+00    3.009489e+00
  4.687451e+00    3.054369e+00
  4.703326e+00    3.075023e+00
  4.719202e+00    3.050302e+00
  4.735077e+00    3.334285e+00
  4.750953e+00    3.275458e+00
  4.766828e+00    3.144898e+00
  4.782704e+00    3.070628e+00
  4.798580e+00    3.067966e+00
  4.814455e+00    3.061087e+00
  4.830331e+00    3.079889e+00
  4.846206e+00    3.091419e+00
  4.862082e+00    3.134646e+00
  4.877957e+00    3.155108e+00
  4.893833e+00    3.057586e+00
  4.909709e+00    3.092102e+00
  4.925584e+00    3.072343e+00
  4.941460e+00    3.100741e+00
  4.957335e+00    3.108233e+00
  4.973211e+00    3.099961e+00
  4.989086e+00    3.130033e+00
  5.004962e+00    3.133066e+00
  5.020838e+00    3.160747e+00
  5.036713e+00    3.150515e+00
  5.052589e+00    3.138734e+00
  5.068464e+00    3.112199e+00
  5.084340e+00    3.189483e+00
  5.100216e+00    3.191138e+00
  5.116091e+00    3.107057e+00
  5.131967e+00    3.029224e+00
  5.147842e+00    3.083923e+00
  5.163718e+00    3.141089e+00
  5.179593e+00    3.039044e+00
  5.195469e+00    3.037215e+00
  5.211345e+00    3.103484e+00
  5.227220e+00    3.154595e+00
  5.243096e+00    3.138233e+00
  5.258971e+00    3.144609e+00
  5.274847e+00    3.164100e+00
  5.290722e+00    3.105639e+00
  5.306598e+00    3.166446e+00
  5.322474e+00    3.192212e+00
  5.338349e+00    3.120409e+00
  5.354225e+00    3.123448e+00
  5.370100e+00    3.087919e+00
  5.385976e+00    3.086818e+00
  5.401851e+00    3.150821e+00
  5.417727e+00    3.115893e+00
  5.433603e+00    3.130263e+00
  5.449478e+00    3.132053e+00
  5.465354e+00    3.125601e+00
  5.481229e+00    3.052378e+00
  5.497105e+00    3.074119e+00
  5.512980e+00    3.062191e+00
  5.528856e+00    3.082919e+00
  5.544732e+00    3.036097e+00
  5.560607e+00    3.056009e+00
  5.576483e+00    3.011410e+00
  5.592358e+00    2.976840e+00
  5.608234e+00    2.992783e+00
  5.624109e+00    3.026753e+00
  5.639985e+00    3.084298e+00
  5.655861e+00    3.023220e+00
  5.671736e+00    2.950334e+00
  5.687612e+00    3.005968e+00
  5.703487e+00    3.062570e+00
  5.719363e+00    3.102005e+00
  5.735238e+00    2.929289e+00
  5.751114e+00    2.879412e+00
  5.766990e+00    2.993235e+00
  5.782865e+00    3.035871e+00
  5.798741e+00    3.115326e+00
  5.814616e+00    3.047002e+00
  5.830492e+00    3.021516e+00
  5.846367e+00    3.093104e+00
  5.862243e+00    3.050671e+00
  5.878119e+00    2.968632e+00
  5.893994e+00    3.060476e+00
  5.909870e+00    2.992472e+00
  5.925745e+00    2.946125e+00
  5.941621e+00    2.970397e+00
  5.957497e+00    2.967467e+00
  5.973372e+00    2.898661e+00
  5.989248e+00    2.933324e+00
  6.005123e+00    3.045213e+00
  6.020999e+00    3.062855e+00
  6.036874e+00    2.986006e+00
  6.052750e+00    2.959738e+00
  6.068626e+00    2.998602e+00
  6.084501e+00    3.092914e+00
  6.100377e+00    3.152711e+00
  6.116252e+00    3.119582e+00
  6.132128e+00    3.083477e+00
  6.148003e+00    3.079583e+00
  6.163879e+00    3.046499e+00
  6.179755e+00    3.099292e+00
  6.195630e+00    3.054889e+00
  6.211506e+00    2.998896e+00
  6.227381e+00    3.012315e+00
  6.243257e+00    3.053914e+00
  6.259132e+00    2.979921e+00
  6.275008e+00    3.064879e+00
  6.290884e+00    3.114814e+00
  6.306759e+00    3.034239e+00
  6.322635e+00    2.969423e+00
  6.338510e+00    3.028967e+00
  6.354386e+00    3.041265e+00
  6.370261e+00    2.997825e+00
  6.386137e+00    3.056235e+00
  6.402013e+00    2.984186e+00
  6.417888e+00    2.987936e+00
  6.433764e+00    3.016972e+00
  6.449639e+00    2.994932e+00
  6.465515e+00    3.070956e+00
  6.481390e+00    2.997001e+00
  6.497266e+00    2.981744e+00
  6.513142e+00    3.000605e+00
  6.529017e+00    3.039152e+00
  6.544893e+00    3.065358e+00
  6.560768e+00    3.061398e+00
  6.576644e+00    2.996375e+00
  6.592519e+00    3.017769e+00
  6.608395e+00    3.039662e+00
  6.624271e+00    3.021693e+00
  6.640146e+00    3.008647e+00
  6.656022e+00    3.088741e+00
  6.671897e+00    3.094669e+00
  6.687773e+00    3.054894e+00
  6.703648e+00    3.089606e+00
  6.719524e+00    3.067628e+00
  6.735400e+00    3.053654e+00
  6.751275e+00    2.987329e+00
  6.767151e+00    2.960536e+00
  6.783026e+00    2.966522e+00
  6.798902e+00    2.996808e+00
  6.814777e+00    3.039026e+00
  6.830653e+00    3.009089e+00
  6.846529e+00    3.039569e+00
  6.862404e+00    3.017974e+00
  6.878280e+00    3.060750e+00
  6.894155e+00    3.077987e+00
  6.910031e+00    3.093030e+00
  6.925907e+00    3.064815e+00
  6.941782e+00    3.017829e+00
  6.957658e+00    3.013952e+00
  6.973533e+00    3.069500e+00
  6.989409e+00    2.984587e+00
  7.005284e+00    2.987220e+00
  7.021160e+00    3.055516e+00
  7.037036e+00    3.007314e+00
  7.052911e+00    3.011955e+00
  7.068787e+00    3.038249e+00
  7.084662e+00    2.980857e+00
  7.100538e+00    2.970518e+00
  7.116413e+00    3.036200e+00
  7.132289e+00    3.023401e+00
  7.148165e+00    3.007551e+00
  7.164040e+00    3.029556e+00
  7.179916e+00    2.993034e+00
  7.195791e+00    3.034345e+00
  7.211667e+00    3.038661e+00
  7.227542e+00    2.944831e+00
  7.243418e+00    2.995519e+00
  7.259294e+00    2.970059e+00
  7.275169e+00    2.975346e+00
  7.291045e+00    3.018553e+00
  7.306920e+00    2.934995e+00
  7.322796e+00    2.916379e+00
  7.338671e+00    3.003919e+00
  7.354547e+00    3.044125e+00
  7.370423e+00    2.974150e+00
  7.386298e+00    2.966756e+00
  7.402174e+00    2.976412e+00
  7.418049e+00    3.010834e+00
  7.433925e+00    2.993405e+00
  7.449800e+00    2.930888e+00
  7.465676e+00    2.973839e+00
  7.481552e+00    3.025723e+00
  7.497427e+00    2.969157e+00
  7.513303e+00    3.012113e+00
  7.529178e+00    3.021203e+00
  7.545054e+00    2.994815e+00
  7.560929e+00    2.880696e+00
  7.576805e+00    2.879481e+00
  7.592681e+00    2.910652e+00
  7.608556e+00    2.926541e+00
  7.624432e+00    2.945340e+00
  7.640307e+00    2.947890e+00
  7.656183e+00    2.963094e+00
  7.672058e+00    2.907524e+00
  7.687934e+00    2.948138e+00
  7.703810e+00    2.943227e+00
  7.719685e+00    2.928139e+00
  7.735561e+00    2.972627e+00
  7.751436e+00    2.930721e+00
  7.767312e+00    2.893434e+00
  7.783187e+00    2.933498e+00
  7.799063e+00    2.947640e+00
  7.814939e+00    2.898299e+00
  7.830814e+00    2.938613e+00
  7.846690e+00    2.906960e+00
  7.862565e+00    2.906500e+00
  7.878441e+00    2.868362e+00
  7.894317e+00    2.888809e+00
  7.910192e+00    2.855276e+00
  7.926068e+00    2.889621e+00
  7.941943e+00    2.938022e+00
  7.957819e+00    3.006254e+00
  7.973694e+00    2.913072e+00
  7.989570e+00    2.924940e+00
  8.005446e+00    2.905946e+00
  8.021321e+00    2.870725e+00
  8.037197e+00    2.918198e+00
  8.053072e+00    2.907572e+00
  8.068948e+00    2.915346e+00
  8.084823e+00    2.924462e+00
  8.100699e+00    2.939653e+00
  8.116575e+00    2.943126e+00
  8.132450e+00    2.938844e+00
  8.148326e+00    2.928764e+00
  8.164201e+00    2.923452e+00
  8.180077e+00    2.922909e+00
  8.195952e+00    2.904680e+00
  8.211828e+00    2.929539e+00
  8.227704e+00    2.964902e+00
  8.243579e+00    2.981285e+00
  8.259455e+00    2.925837e+00
  8.275330e+00    2.878801e+00
  8.291206e+00    2.924480e+00
  8.307081e+00    2.953534e+00
  8.322957e+00    2.912182e+00
  8.338833e+00    2.855598e+00
  8.354708e+00    2.805905e+00
  8.370584e+00    2.855247e+00
  8.386459e+00    2.871853e+00
  8.402335e+00    2.888421e+00
  8.418210e+00    2.823511e+00
  8.434086e+00    2.814193e+00
  8.449962e+00    2.851630e+00
  8.465837e+00    2.854139e+00
  8.481713e+00    2.827393e+00
  8.497588e+00    2.828142e+00
  8.513464e+00    2.793173e+00
  8.529339e+00    2.805928e+00
  8.545215e+00    2.853611e+00
  8.561091e+00    2.906083e+00
  8.576966e+00    2.834093e+00
  8.592842e+00    2.802795e+00
  8.608717e+00    2.854779e+00
  8.624593e+00    2.891691e+00
  8.640468e+00    2.894346e+00
  8.656344e+00    2.903363e+00
  8.672220e+00    2.859579e+00
  8.688095e+00    2.880728e+00
  8.703971e+00    2.921839e+00
  8.719846e+00    2.886302e+00
  8.735722e+00    2.821375e+00
  8.751598e+00    2.822978e+00
  8.767473e+00    2.823388e+00
  8.783349e+00    2.823422e+00
  8.799224e+00    2.818752e+00
  8.815100e+00    2.813639e+00
  8.830975e+00    2.846145e+00
  8.846851e+00    2.858184e+00
  8.862727e+00    2.811055e+00
  8.878602e+00    2.811359e+00
  8.894478e+00    2.840078e+00
  8.910353e+00    2.837980e+00
  8.926229e+00    2.804307e+00
  8.942104e+00    2.776613e+00
  8.957980e+00    2.808373e+00
  8.973856e+00    2.819090e+00
  8.989731e+00    2.805707e+00
  9.005607e+00    2.807058e+00
  9.021482e+00    2.876816e+00
  9.037358e+00    2.834835e+00
  9.053233e+00    2.781205e+00
  9.069109e+00    2.812856e+00
  9.084985e+00    2.829701e+00
  9.100860e+00    2.819904e+00
  9.116736e+00    2.816596e+00
  9.132611e+00    2.872227e+00
  9.148487e+00    2.847684e+00
  9.164362e+00    2.746913e+00
  9.180238e+00    2.814655e+00
  9.196114e+00    2.824013e+00
  9.211989e+00    2.765808e+00
  9.227865e+00    2.792476e+00
  9.243740e+00    2.769469e+00
  9.259616e+00    2.726755e+00
  9.275491e+00    2.708765e+00
  9.291367e+00    2.750331e+00
  9.307243e+00    2.753736e+00
  9.323118e+00    2.814733e+00
  9.338994e+00    2.749521e+00
  9.354869e+00    2.778996e+00
  9.370745e+00    2.783202e+00
  9.386620e+00    2.745236e+00
  9.402496e+00    2.670810e+00
  9.418372e+00    2.741208e+00
  9.434247e+00    2.754171e+00
  9.450123e+00    2.771746e+00
  9.465998e+00    2.750294e+00
  9.481874e+00    2.690543e+00
  9.497749e+00    2.696014e+00
  9.513625e+00    2.782544e+00
  9.529501e+00    2.746840e+00
  9.545376e+00    2.788358e+00
  9.561252e+00    2.761574e+00
  9.577127e+00    2.756680e+00
  9.593003e+00    2.747924e+00
  9.608878e+00    2.718254e+00
  9.624754e+00    2.731358e+00
  9.640630e+00    2.728864e+00
  9.656505e+00    2.690817e+00
  9.672381e+00    2.690835e+00
  9.688256e+00    2.730947e+00
  9.704132e+00    2.722484e+00
  9.720008e+00    2.740079e+00
  9.735883e+00    2.731228e+00
  9.751759e+00    2.680989e+00
  9.767634e+00    2.666744e+00
  9.783510e+00    2.715350e+00
  9.799385e+00    2.708260e+00
  9.815261e+00    2.671432e+00
  9.831137e+00    2.646241e+00
  9.847012e+00    2.657298e+00
  9.862888e+00    2.642690e+00
  9.878763e+00    2.696177e+00
  9.894639e+00    2.716430e+00
  9.910514e+00    2.668733e+00
  9.926390e+00    2.664956e+00
  9.942266e+00    2.683830e+00
  9.958141e+00    2.705150e+00
  9.974017e+00    2.687092e+00
  9.989892e+00    2.638003e+00
  1.000577e+01    2.665795e+00
  1.002164e+01    2.650690e+00
  1.003752e+01    2.637115e+00
  1.005339e+01    2.660596e+00
  1.006927e+01    2.681003e+00
  1.008515e+01    2.629785e+00
  1.010102e+01    2.651441e+00
  1.011690e+01    2.641857e+00
  1.013277e+01    2.664277e+00
  1.014865e+01    2.658470e+00
  1.016452e+01    2.685872e+00
  1.018040e+01    2.647145e+00
  1.019627e+01    2.660980e+00
  1.021215e+01    2.635819e+00
  1.022803e+01    2.605566e+00
  1.024390e+01    2.618961e+00
  1.025978e+01    2.618339e+00
  1.027565e+01    2.607679e+00
  1.029153e+01    2.601786e+00
  1.030740e+01    2.626140e+00
  1.032328e+01    2.629022e+00
  1.033915e+01    2.674863e+00
  1.035503e+01    2.641720e+00
  1.037091e+01    2.615738e+00
  1.038678e+01    2.634493e+00
  1.040266e+01    2.612104e+00
  1.041853e+01    2.620400e+00
  1.043441e+01    2.618198e+00
  1.045028e+01    2.618476e+00
  1.046616e+01    2.582677e+00
  1.048204e+01    2.546313e+00
  1.049791e+01    2.601080e+00
  1.051379e+01    2.599971e+00
  1.052966e+01    2.569660e+00
  1.054554e+01    2.612198e+00
  1.056141e+01    2.623715e+00
  1.057729e+01    2.553709e+00
  1.059316e+01    2.531626e+00
  1.060904e+01    2.520062e+00
  1.062492e+01    2.561112e+00
  1.064079e+01    2.590245e+00
  1.065667e+01    2.556718e+00
  1.067254e+01    2.576538e+00
  1.068842e+01    2.561623e+00
  1.070429e+01    2.558055e+00
  1.072017e+01    2.477765e+00
  1.073604e+01    2.461329e+00
  1.075192e+01    2.520988e+00
  1.076780e+01    2.502605e+00
  1.078367e+01    2.560198e+00
  1.079955e+01    2.532433e+00
  1.081542e+01    2.508209e+00
  1.083130e+01    2.536417e+00
  1.084717e+01    2.543962e+00
  1.086305e+01    2.500244e+00
  1.087892e+01    2.501541e+00
  1.089480e+01    2.530538e+00
  1.091068e+01    2.466756e+00
  1.092655e+01    2.474197e+00
  1.094243e+01    2.549011e+00
  1.095830e+01    2.522537e+00
  1.097418e+01    2.465158e+00
  1.099005e+01    2.459590e+00
  1.100593e+01    2.448023e+00
  1.102180e+01    2.499212e+00
  1.103768e+01    2.498166e+00
  1.105356e+01    2.495780e+00
  1.106943e+01    2.438494e+00
  1.108531e+01    2.454834e+00
  1.110118e+01    2.430294e+00
  1.111706e+01    2.446448e+00
  1.113293e+01    2.431744e+00
  1.114881e+01    2.475064e+00
  1.116468e+01    2.517114e+00
  1.118056e+01    2.495909e+00
  1.119644e+01    2.492923e+00
  1.121231e+01    2.509491e+00
  1.122819e+01    2.483406e+00
  1.124406e+01    2.483779e+00
  1.125994e+01    2.412918e+00
  1.127581e+01    2.412160e+00
  1.129169e+01    2.414854e+00
  1.130756e+01    2.384857e+00
  1.132344e+01    2.422754e+00
  1.133932e+01    2.444995e+00
  1.135519e+01    2.431299e+00
  1.137107e+01    2.378795e+00
  1.138694e+01    2.417602e+00
  1.140282e+01    2.452683e+00
  1.141869e+01    2.408819e+00
  1.143457e+01    2.435508e+00
  1.145045e+01    2.400349e+00
  1.146632e+01    2.376999e+00
  1.148220e+01    2.411301e+00
  1.149807e+01    2.425514e+00
  1.151395e+01    2.402695e+00
  1.152982e+01    2.394171e+00
  1.154570e+01    2.398427e+00
  1.156157e+01    2.354488e+00
  1.157745e+01    2.342761e+00
  1.159333e+01    2.394531e+00
  1.160920e+01    2.408034e+00
  1.162508e+01    2.398860e+00
  1.164095e+01    2.394429e+00
  1.165683e+01    2.394852e+00
  1.167270e+01    2.376046e+00
  1.168858e+01    2.349106e+00
  1.170445e+01    2.343854e+00
  1.172033e+01    2.374676e+00
  1.173621e+01    2.415072e+00
  1.175208e+01    2.360148e+00
  1.176796e+01    2.346079e+00
  1.178383e+01    2.385112e+00
  1.179971e+01    2.347669e+00
  1.181558e+01    2.316199e+00
  1.183146e+01    2.344781e+00
  1.184733e+01    2.351972e+00
  1.186321e+01    2.308228e+00
  1.187909e+01    2.321638e+00
  1.189496e+01    2.319902e+00
  1.191084e+01    2.302056e+00
  1.192671e+01    2.351719e+00
  1.194259e+01    2.332593e+00
  1.195846e+01    2.295742e+00
  1.197434e+01    2.314990e+00
  1.199021e+01    2.324745e+00
  1.200609e+01    2.309665e+00
  1.202197e+01    2.294618e+00
  1.203784e+01    2.334394e+00
  1.205372e+01    2.339078e+00
  1.206959e+01    2.287286e+00
  1.208547e+01    2.284077e+00
  1.210134e+01    2.324550e+00
  1.211722e+01    2.363992e+00
  1.213309e+01    2.330309e+00
  1.214897e+01    2.330599e+00
  1.216485e+01    2.313910e+00
  1.218072e+01    2.332799e+00
  1.219660e+01    2.303647e+00
  1.221247e+01    2.309871e+00
  1.222835e+01    2.274192e+00
  1.224422e+01    2.310776e+00
  1.226010e+01    2.361166e+00
  1.227597e+01    2.304781e+00
  1.229185e+01    2.326329e+00
  1.230773e+01    2.343786e+00
  1.232360e+01    2.335653e+00
  1.233948e+01    2.282841e+00
  1.235535e+01    2.308067e+00
  1.237123e+01    2.285447e+00
  1.238710e+01    2.279289e+00
  1.240298e+01    2.300308e+00
  1.241886e+01    2.329162e+00
  1.243473e+01    2.324265e+00
  1.245061e+01    2.323265e+00
  1.246648e+01    2.357315e+00
  1.248236e+01    2.358952e+00
  1.249823e+01    2.364659e+00
  1.251411e+01    2.305951e+00
  1.252998e+01    2.344640e+00
  1.254586e+01    2.393977e+00
  1.256174e+01    2.334269e+00
  1.257761e+01    2.352911e+00
  1.259349e+01    2.404813e+00
  1.260936e+01    2.357242e+00
  1.262524e+01    2.413126e+00
  1.264111e+01    2.400657e+00
  1.265699e+01    2.414542e+00
  1.267286e+01    2.459762e+00
  1.268874e+01    2.460171e+00
  1.270462e+01    2.502289e+00
  1.272049e+01    2.464470e+00
  1.273637e+01    2.509293e+00
  1.275224e+01    2.553814e+00
  1.276812e+01    2.530679e+00
  1.278399e+01    2.555275e+00
  1.279987e+01    2.622392e+00
  1.281574e+01    2.718432e+00
  1.283162e+01    2.777988e+00
  1.284750e+01    2.843590e+00
  1.286337e+01    2.959830e+00
  1.287925e+01    3.065630e+00
  1.289512e+01    3.129984e+00
  1.291100e+01    3.256984e+00
  1.292687e+01    3.480522e+00
  1.294275e+01    3.703217e+00
  1.295862e+01    3.986442e+00
  1.297450e+01    4.301869e+00
  1.299038e+01    4.719367e+00
  1.300625e+01    5.293313e+00
  1.302213e+01    5.985097e+00
  1.303800e+01    6.924871e+00
  1.305388e+01    8.027886e+00
  1.306975e+01    9.279879e+00
  1.308563e+01    1.074261e+01
  1.310150e+01    1.215665e+01
  1.311738e+01    1.356289e+01
  1.313326e+01    1.488373e+01
  1.314913e+01    1.618677e+01
  1.316501e+01    1.755436e+01
  1.318088e+01    1.840351e+01
  1.319676e+01    1.853756e+01
  1.321263e+01    1.770644e+01
  1.322851e+01    1.609192e+01
  1.324438e+01    1.393746e+01
  1.326026e+01    1.184203e+01
  1.327614e+01    9.792984e+00
  1.329201e+01    8.242302e+00
  1.330789e+01    7.083927e+00
  1.332376e+01    6.194696e+00
  1.333964e+01    5.451936e+00
  1.335551e+01    4.834144e+00
  1.337139e+01    4.348224e+00
  1.338727e+01    3.987804e+00
  1.340314e+01    3.698118e+00
  1.341902e+01    3.492522e+00
  1.343489e+01    3.302149e+00
  1.345077e+01    3.134256e+00
  1.346664e+01    2.993498e+00
  1.348252e+01    2.844743e+00
  1.349839e+01    2.806124e+00
  1.351427e+01    2.742597e+00
  1.353015e+01    2.665058e+00
  1.354602e+01    2.587437e+00
  1.356190e+01    2.502921e+00
  1.357777e+01    2.499721e+00
  1.359365e+01    2.447320e+00
  1.360952e+01    2.418411e+00
  1.362540e+01    2.390572e+00
  1.364127e+01    2.359021e+00
  1.365715e+01    2.323388e+00
  1.367303e+01    2.269991e+00
  1.368890e+01    2.251773e+00
  1.370478e+01    2.237227e+00
  1.372065e+01    2.251018e+00
  1.373653e+01    2.224505e+00
  1.375240e+01    2.219074e+00
  1.376828e+01    2.209625e+00
  1.378415e+01    2.156848e+00
  1.380003e+01    2.167492e+00
  1.381591e+01    2.170919e+00
  1.383178e+01    2.139771e+00
  1.384766e+01    2.133335e+00
  1.386353e+01    2.155981e+00
  1.387941e+01    2.158385e+00
  1.389528e+01    2.142737e+00
  1.391116e+01    2.086221e+00
  1.392703e+01    2.083415e+00
  1.394291e+01    2.099610e+00
  1.395879e+01    2.084332e+00
  1.397466e+01    2.025990e+00
  1.399054e+01    2.079402e+00
  1.400641e+01    2.069638e+00
  1.402229e+01    2.004095e+00
  1.403816e+01    2.007224e+00
  1.405404e+01    2.028121e+00
  1.406991e+01    2.017132e+00
  1.408579e+01    2.017173e+00
  1.410167e+01    2.029651e+00
  1.411754e+01    2.066729e+00
  1.413342e+01    1.999516e+00
  1.414929e+01    1.969073e+00
  1.416517e+01    1.987208e+00
  1.418104e+01    1.975270e+00
  1.419692e+01    2.000033e+00
  1.421279e+01    2.009992e+00
  1.422867e+01    1.966080e+00
  1.424455e+01    1.953472e+00
  1.426042e+01    1.925017e+00
  1.427630e+01    1.942313e+00
  1.429217e+01    1.982371e+00
  1.430805e+01    1.949511e+00
  1.432392e+01    1.938594e+00
  1.433980e+01    1.962378e+00
  1.435568e+01    1.960253e+00
  1.437155e+01    1.942800e+00
  1.438743e+01    1.968484e+00
  1.440330e+01    1.923593e+00
  1.441918e+01    1.896125e+00
  1.443505e+01    1.942588e+00
  1.445093e+01    1.916576e+00
  1.446680e+01    1.915957e+00
  1.448268e+01    1.911796e+00
  1.449856e+01    1.909425e+00
  1.451443e+01    1.884272e+00
  1.453031e+01    1.911090e+00
  1.454618e+01    1.912760e+00
  1.456206e+01    1.921858e+00
  1.457793e+01    1.917545e+00
  1.459381e+01    1.912196e+00
  1.460968e+01    1.907150e+00
  1.462556e+01    1.905962e+00
  1.464144e+01    1.915315e+00
  1.465731e+01    1.940209e+00
  1.467319e+01    1.896005e+00
  1.468906e+01    1.911890e+00
  1.470494e+01    1.935746e+00
  1.472081e+01    1.880273e+00
  1.473669e+01    1.892184e+00
  1.475256e+01    1.927265e+00
  1.476844e+01    1.920449e+00
  1.478432e+01    1.924490e+00
  1.480019e+01    1.902754e+00
  1.481607e+01    1.905227e+00
  1.483194e+01    1.927509e+00
  1.484782e+01    1.954723e+00
  1.486369e+01    1.965892e+00
  1.487957e+01    1.946163e+00
  1.489544e+01    1.907797e+00
  1.491132e+01    1.903224e+00
  1.492720e+01    1.949262e+00
  1.494307e+01    2.009235e+00
  1.495895e+01    2.008268e+00
  1.497482e+01    2.072128e+00
  1.499070e+01    2.075173e+00
  1.500657e+01    2.134547e+00
  1.502245e+01    2.234193e+00
  1.503832e+01    2.310756e+00
  1.505420e+01    2.396894e+00
  1.507008e+01    2.488343e+00
  1.508595e+01    2.666479e+00
  1.510183e+01    2.807981e+00
  1.511770e+01    3.061566e+00
  1.513358e+01    3.318553e+00
  1.514945e+01    3.615155e+00
  1.516533e+01    4.041316e+00
  1.518120e+01    4.497241e+00
  1.519708e+01    4.854577e+00
  1.521296e+01    5.235433e+00
  1.522883e+01    5.590028e+00
  1.524471e+01    5.889992e+00
  1.526058e+01    6.073195e+00
  1.527646e+01    6.202306e+00
  1.529233e+01    6.203961e+00
  1.530821e+01    6.032256e+00
  1.532409e+01    5.506845e+00
  1.533996e+01    4.875717e+00
  1.535584e+01    4.337430e+00
  1.537171e+01    3.862909e+00
  1.538759e+01    3.418166e+00
  1.540346e+01    3.092666e+00
  1.541934e+01    2.854383e+00
  1.543521e+01    2.637269e+00
  1.545109e+01    2.499653e+00
  1.546697e+01    2.366632e+00
  1.548284e+01    2.223874e+00
  1.549872e+01    2.116633e+00
  1.551459e+01    2.079482e+00
  1.553047e+01    2.036310e+00
  1.554634e+01    2.016168e+00
  1.556222e+01    1.960654e+00
  1.557809e+01    1.905196e+00
  1.559397e+01    1.899927e+00
  1.560985e+01    1.900197e+00
  1.562572e+01    1.837239e+00
  1.564160e+01    1.794016e+00
  1.565747e+01    1.775150e+00
  1.567335e+01    1.817749e+00
  1.568922e+01    1.799250e+00
  1.570510e+01    1.734889e+00
  1.572097e+01    1.713511e+00
  1.573685e+01    1.696204e+00
  1.575273e+01    1.722325e+00
  1.576860e+01    1.708148e+00
  1.578448e+01    1.699166e+00
  1.580035e+01    1.694695e+00
  1.581623e+01    1.694098e+00
  1.583210e+01    1.664083e+00
  1.584798e+01    1.650077e+00
  1.586385e+01    1.651986e+00
  1.587973e+01    1.646563e+00
  1.589561e+01    1.646974e+00
  1.591148e+01    1.651786e+00
  1.592736e+01    1.625583e+00
  1.594323e+01    1.632397e+00
  1.595911e+01    1.639608e+00
  1.597498e+01    1.592501e+00
  1.599086e+01    1.603679e+00
  1.600673e+01    1.584244e+00
  1.602261e+01    1.564635e+00
  1.603849e+01    1.599380e+00
  1.605436e+01    1.604104e+00
  1.607024e+01    1.580786e+00
  1.608611e+01    1.617000e+00
  1.610199e+01    1.613104e+00
  1.611786e+01    1.617660e+00
  1.613374e+01    1.612416e+00
  1.614961e+01    1.576085e+00
  1.616549e+01    1.575561e+00
  1.618137e+01    1.567403e+00
  1.619724e+01    1.563694e+00
  1.621312e+01    1.583865e+00
  1.622899e+01    1.579548e+00
  1.624487e+01    1.562599e+00
  1.626074e+01    1.531612e+00
  1.627662e+01    1.534809e+00
  1.629250e+01    1.543969e+00
  1.630837e+01    1.565799e+00
  1.632425e+01    1.557287e+00
  1.634012e+01    1.559625e+00
  1.635600e+01    1.560037e+00
  1.637187e+01    1.553138e+00
  1.638775e+01    1.524998e+00
  1.640362e+01    1.529961e+00
  1.641950e+01    1.527479e+00
  1.643538e+01    1.529887e+00
  1.645125e+01    1.532355e+00
  1.646713e+01    1.515628e+00
  1.648300e+01    1.486450e+00
  1.649888e+01    1.470687e+00
  1.651475e+01    1.537337e+00
  1.653063e+01    1.531836e+00
  1.654650e+01    1.524172e+00
  1.656238e+01    1.509852e+00
  1.657826e+01    1.519735e+00
  1.659413e+01    1.509318e+00
  1.661001e+01    1.512647e+00
  1.662588e+01    1.512500e+00
  1.664176e+01    1.507410e+00
  1.665763e+01    1.515509e+00
  1.667351e+01    1.474586e+00
  1.668938e+01    1.473470e+00
  1.670526e+01    1.471303e+00
  1.672114e+01    1.486764e+00
  1.673701e+01    1.473499e+00
  1.675289e+01    1.481305e+00
  1.676876e+01    1.478066e+00
  1.678464e+01    1.480343e+00
  1.680051e+01    1.462547e+00
  1.681639e+01    1.471125e+00
  1.683226e+01    1.491114e+00
  1.684814e+01    1.472785e+00
  1.686402e+01    1.452218e+00
  1.687989e+01    1.459874e+00
  1.689577e+01    1.435418e+00
  1.691164e+01    1.425089e+00
  1.692752e+01    1.454737e+00
  1.694339e+01    1.478872e+00
  1.695927e+01    1.454865e+00
  1.697514e+01    1.428130e+00
  1.699102e+01    1.452518e+00
  1.700690e+01    1.449913e+00
  1.702277e+01    1.439984e+00
  1.703865e+01    1.460953e+00
  1.705452e+01    1.408626e+00
  1.707040e+01    1.393778e+00
  1.708627e+01    1.407835e+00
  1.710215e+01    1.426094e+00
  1.711802e+01    1.414046e+00
  1.713390e+01    1.428341e+00
  1.714978e+01    1.395758e+00
  1.716565e+01    1.422274e+00
  1.718153e+01    1.412417e+00
  1.719740e+01    1.409693e+00
  1.721328e+01    1.404613e+00
  1.722915e+01    1.399549e+00
  1.724503e+01    1.395603e+00
  1.726091e+01    1.419701e+00
  1.727678e+01    1.412549e+00
  1.729266e+01    1.412158e+00
  1.730853e+01    1.399130e+00
  1.732441e+01    1.403440e+00
  1.734028e+01    1.376015e+00
  1.735616e+01    1.371322e+00
  1.737203e+01    1.361336e+00
  1.738791e+01    1.374612e+00
  1.740379e+01    1.400048e+00
  1.741966e+01    1.328571e+00
  1.743554e+01    1.354879e+00
  1.745141e+01    1.365468e+00
  1.746729e+01    1.366247e+00
  1.748316e+01    1.338761e+00
  1.749904e+01    1.362253e+00
  1.751491e+01    1.343538e+00
  1.753079e+01    1.333434e+00
  1.754667e+01    1.370863e+00
  1.756254e+01    1.347265e+00
  1.757842e+01    1.349177e+00
  1.759429e+01    1.346382e+00
  1.761017e+01    1.345336e+00
  1.762604e+01    1.336582e+00
  1.764192e+01    1.340360e+00
  1.765779e+01    1.360688e+00
  1.767367e+01    1.370897e+00
  1.768955e+01    1.368148e+00
  1.770542e+01    1.359418e+00
  1.772130e+01    1.320066e+00
  1.773717e+01    1.297573e+00
  1.775305e+01    1.324569e+00
  1.776892e+01    1.301336e+00
  1.778480e+01    1.309834e+00
  1.780067e+01    1.324583e+00
  1.781655e+01    1.331821e+00
  1.783243e+01    1.330843e+00
  1.784830e+01    1.308901e+00
  1.786418e+01    1.309922e+00
  1.788005e+01    1.307766e+00
  1.789593e+01    1.333128e+00
  1.791180e+01    1.326645e+00
  1.792768e+01    1.320099e+00
  1.794355e+01    1.304490e+00
  1.795943e+01    1.294473e+00
  1.797531e+01    1.311774e+00
  1.799118e+01    1.320132e+00
  1.800706e+01    1.301770e+00
  1.802293e+01    1.278364e+00
  1.803881e+01    1.303998e+00
  1.805468e+01    1.313426e+00
  1.807056e+01    1.279860e+00
  1.808643e+01    1.307383e+00
  1.810231e+01    1.306358e+00
  1.811819e+01    1.297187e+00
  1.813406e+01    1.293947e+00
  1.814994e+01    1.288460e+00
  1.816581e+01    1.260317e+00
  1.818169e+01    1.282632e+00
  1.819756e+01    1.298849e+00
  1.821344e+01    1.267325e+00
  1.822932e+01    1.288842e+00
  1.824519e+01    1.305120e+00
  1.826107e+01    1.278337e+00
  1.827694e+01    1.251498e+00
  1.829282e+01    1.277749e+00
  1.830869e+01    1.253690e+00
  1.832457e+01    1.269785e+00
  1.834044e+01    1.247421e+00
  1.835632e+01    1.247044e+00
  1.837220e+01    1.252023e+00
  1.838807e+01    1.256936e+00
  1.840395e+01    1.251995e+00
  1.841982e+01    1.251375e+00
  1.843570e+01    1.270116e+00
  1.845157e+01    1.288387e+00
  1.846745e+01    1.265808e+00
  1.848332e+01    1.231360e+00
  1.849920e+01    1.252919e+00
  1.851508e+01    1.237888e+00
  1.853095e+01    1.241611e+00
  1.854683e+01    1.247301e+00
  1.856270e+01    1.253362e+00
  1.857858e+01    1.240128e+00
  1.859445e+01    1.215750e+00
  1.861033e+01    1.217121e+00
  1.862620e+01    1.212438e+00
  1.864208e+01    1.224543e+00
  1.865796e+01    1.223132e+00
  1.867383e+01    1.244834e+00
  1.868971e+01    1.229227e+00
  1.870558e+01    1.221546e+00
  1.872146e+01    1.220272e+00
  1.873733e+01    1.227174e+00
  1.875321e+01    1.219458e+00
  1.876908e+01    1.207324e+00
  1.878496e+01    1.216069e+00
  1.880084e+01    1.215819e+00
  1.881671e+01    1.205212e+00
  1.883259e+01    1.212714e+00
  1.884846e+01    1.223757e+00
  1.886434e+01    1.236545e+00
  1.888021e+01    1.241181e+00
  1.889609e+01    1.237794e+00
  1.891196e+01    1.235916e+00
  1.892784e+01    1.196922e+00
  1.894372e+01    1.190578e+00
  1.895959e+01    1.200133e+00
  1.897547e+01    1.229507e+00
  1.899134e+01    1.204594e+00
  1.900722e+01    1.201515e+00
  1.902309e+01    1.209288e+00
  1.903897e+01    1.188744e+00
  1.905484e+01    1.204012e+00
  1.907072e+01    1.183407e+00
  1.908660e+01    1.194922e+00
  1.910247e+01    1.207170e+00
  1.911835e+01    1.203746e+00
  1.913422e+01    1.181385e+00
  1.915010e+01    1.166324e+00
  1.916597e+01    1.188563e+00
  1.918185e+01    1.222152e+00
  1.919773e+01    1.203558e+00
  1.921360e+01    1.207206e+00
  1.922948e+01    1.201721e+00
  1.924535e+01    1.188421e+00
  1.926123e+01    1.178205e+00
  1.927710e+01    1.196659e+00
  1.929298e+01    1.173506e+00
  1.930885e+01    1.178693e+00
  1.932473e+01    1.170084e+00
  1.934061e+01    1.167828e+00
  1.935648e+01    1.186294e+00
  1.937236e+01    1.175914e+00
  1.938823e+01    1.175874e+00
  1.940411e+01    1.182906e+00
  1.941998e+01    1.174515e+00
  1.943586e+01    1.169802e+00
  1.945173e+01    1.162112e+00
  1.946761e+01    1.173181e+00
  1.948349e+01    1.163562e+00
  1.949936e+01    1.124648e+00
  1.951524e+01    1.143278e+00
  1.953111e+01    1.171709e+00
  1.954699e+01    1.129149e+00
  1.956286e+01    1.146663e+00
  1.957874e+01    1.147561e+00
  1.959461e+01    1.165574e+00
  1.961049e+01    1.157847e+00
  1.962637e+01    1.143695e+00
  1.964224e+01    1.138474e+00
  1.965812e+01    1.144767e+00
  1.967399e+01    1.163858e+00
  1.968987e+01    1.144528e+00
  1.970574e+01    1.142804e+00
  1.972162e+01    1.143011e+00
  1.973749e+01    1.155992e+00
  1.975337e+01    1.146898e+00
  1.976925e+01    1.143410e+00
  1.978512e+01    1.125260e+00
  1.980100e+01    1.117488e+00
  1.981687e+01    1.117769e+00
  1.983275e+01    1.112911e+00
  1.984862e+01    1.153550e+00
  1.986450e+01    1.136389e+00
  1.988037e+01    1.159902e+00
  1.989625e+01    1.129904e+00
  1.991213e+01    1.115287e+00
  1.992800e+01    1.123863e+00
  1.994388e+01    1.127199e+00
  1.995975e+01    1.106610e+00
  1.997563e+01    1.121932e+00
  1.999150e+01    1.083839e+00
  2.000738e+01    1.104568e+00
  2.002325e+01    1.111070e+00
  2.003913e+01    1.094149e+00
  2.005501e+01    1.098734e+00
  2.007088e+01    1.085300e+00
  2.008676e+01    1.084465e+00
  2.010263e+01    1.104853e+00
  2.011851e+01    1.113064e+00
  2.013438e+01    1.107420e+00
  2.015026e+01    1.117853e+00
  2.016614e+01    1.101582e+00
  2.018201e+01    1.092037e+00
  2.019789e+01    1.089616e+00
  2.021376e+01    1.095017e+00
  2.022964e+01    1.105642e+00
  2.024551e+01    1.092095e+00
  2.026139e+01    1.068958e+00
  2.027726e+01    1.120636e+00
  2.029314e+01    1.100661e+00
  2.030902e+01    1.079480e+00
  2.032489e+01    1.082404e+00
  2.034077e+01    1.095567e+00
  2.035664e+01    1.113408e+00
  2.037252e+01    1.110608e+00
  2.038839e+01    1.088785e+00
  2.040427e+01    1.091744e+00
  2.042014e+01    1.096822e+00
  2.043602e+01    1.095368e+00
  2.045190e+01    1.084049e+00
  2.046777e+01    1.081666e+00
  2.048365e+01    1.079382e+00
  2.049952e+01    1.071250e+00
  2.051540e+01    1.076849e+00
  2.053127e+01    1.095928e+00
  2.054715e+01    1.077989e+00
  2.056302e+01    1.080377e+00
  2.057890e+01    1.089322e+00
  2.059478e+01    1.066477e+00
  2.061065e+01    1.068559e+00
  2.062653e+01    1.074703e+00
  2.064240e+01    1.071888e+00
  2.065828e+01    1.093466e+00
  2.067415e+01    1.070210e+00
  2.069003e+01    1.085351e+00
  2.070590e+01    1.102485e+00
  2.072178e+01    1.073929e+00
  2.073766e+01    1.080346e+00
  2.075353e+01    1.099108e+00
  2.076941e+01    1.085113e+00
  2.078528e+01    1.125571e+00
  2.080116e+01    1.104408e+00
  2.081703e+01    1.060097e+00
  2.083291e+01    1.075995e+00
  2.084878e+01    1.084524e+00
  2.086466e+01    1.092801e+00
  2.088054e+01    1.122077e+00
  2.089641e+01    1.086832e+00
  2.091229e+01    1.055100e+00
  2.092816e+01    1.088655e+00
  2.094404e+01    1.104080e+00
  2.095991e+01    1.087172e+00
  2.097579e+01    1.063216e+00
  2.099166e+01    1.058790e+00
  2.100754e+01    1.066427e+00
  2.102342e+01    1.080456e+00
  2.103929e+01    1.082607e+00
  2.105517e+01    1.079122e+00
  2.107104e+01    1.070911e+00
  2.108692e+01    1.074980e+00
  2.110279e+01    1.088158e+00
  2.111867e+01    1.067214e+00
  2.113455e+01    1.053168e+00
  2.115042e+01    1.066981e+00
  2.116630e+01    1.096307e+00
  2.118217e+01    1.129246e+00
  2.119805e+01    1.088977e+00
  2.121392e+01    1.086191e+00
  2.122980e+01    1.112230e+00
  2.124567e+01    1.121055e+00
  2.126155e+01    1.115738e+00
  2.127743e+01    1.111292e+00
  2.129330e+01    1.105441e+00
  2.130918e+01    1.121437e+00
  2.132505e+01    1.158759e+00
  2.134093e+01    1.147131e+00
  2.135680e+01    1.129248e+00
  2.137268e+01    1.163847e+00
  2.138855e+01    1.153847e+00
  2.140443e+01    1.173620e+00
  2.142031e+01    1.194393e+00
  2.143618e+01    1.226072e+00
  2.145206e+01    1.205871e+00
  2.146793e+01    1.214624e+00
  2.148381e+01    1.250915e+00
  2.149968e+01    1.269293e+00
  2.151556e+01    1.320552e+00
  2.153143e+01    1.347120e+00
  2.154731e+01    1.371159e+00
  2.156319e+01    1.394922e+00
  2.157906e+01    1.454444e+00
  2.159494e+01    1.526916e+00
  2.161081e+01    1.585666e+00
  2.162669e+01    1.615785e+00
  2.164256e+01    1.724713e+00
  2.165844e+01    1.856506e+00
  2.167431e+01    2.034321e+00
  2.169019e+01    2.201154e+00
  2.170607e+01    2.422013e+00
  2.172194e+01    2.680977e+00
  2.173782e+01    3.041900e+00
  2.175369e+01    3.451385e+00
  2.176957e+01    3.914977e+00
  2.178544e+01    4.528990e+00
  2.180132e+01    5.193136e+00
  2.181719e+01    5.872415e+00
  2.183307e+01    6.665645e+00
  2.184895e+01    7.490404e+00
  2.186482e+01    8.256643e+00
  2.188070e+01    9.088090e+00
  2.189657e+01    9.812165e+00
  2.191245e+01    1.024850e+01
  2.192832e+01    1.021420e+01
  2.194420e+01    9.767277e+00
  2.196007e+01    8.885056e+00
  2.197595e+01    7.897194e+00
  2.199183e+01    6.719736e+00
  2.200770e+01    5.744708e+00
  2.202358e+01    4.841403e+00
  2.203945e+01    4.113241e+00
  2.205533e+01    3.560884e+00
  2.207120e+01    3.119582e+00
  2.208708e+01    2.754711e+00
  2.210296e+01    2.455670e+00
  2.211883e+01    2.246398e+00
  2.213471e+01    2.033283e+00
  2.215058e+01    1.860852e+00
  2.216646e+01    1.762137e+00
  2.218233e+01    1.669503e+00
  2.219821e+01    1.586295e+00
  2.221408e+01    1.520848e+00
  2.222996e+01    1.448264e+00
  2.224584e+01    1.397471e+00
  2.226171e+01    1.332045e+00
  2.227759e+01    1.298278e+00
  2.229346e+01    1.256060e+00
  2.230934e+01    1.211652e+00
  2.232521e+01    1.201148e+00
  2.234109e+01    1.168672e+00
  2.235696e+01    1.150158e+00
  2.237284e+01    1.136487e+00
  2.238872e+01    1.106305e+00
  2.240459e+01    1.091393e+00
  2.242047e+01    1.099373e+00
  2.243634e+01    1.088820e+00
  2.245222e+01    1.073974e+00
  2.246809e+01    1.062381e+00
  2.248397e+01    1.039336e+00
  2.249984e+01    1.043771e+00
  2.251572e+01    1.031775e+00
  2.253160e+01    1.021949e+00
  2.254747e+01    1.026394e+00
  2.256335e+01    1.007940e+00
  2.257922e+01    1.012210e+00
  2.259510e+01    1.022466e+00
  2.261097e+01    1.001432e+00
  2.262685e+01    9.733749e-01
  2.264272e+01    9.781754e-01
  2.265860e+01    9.790298e-01
  2.267448e+01    9.674881e-01
  2.269035e+01    9.790579e-01
  2.270623e+01    9.753717e-01
  2.272210e+01    9.565746e-01
  2.273798e+01    9.301707e-01
  2.275385e+01    9.432476e-01
  2.276973e+01    9.382349e-01
  2.278560e+01    9.578769e-01
  2.280148e+01    9.641576e-01
  2.281736e+01    9.374925e-01
  2.283323e+01    9.141589e-01
  2.284911e+01    9.276149e-01
  2.286498e+01    9.283805e-01
  2.288086e+01    9.232470e-01
  2.289673e+01    9.169708e-01
  2.291261e+01    9.177285e-01
  2.292848e+01    9.236421e-01
  2.294436e+01    9.115914e-01
  2.296024e+01    9.028011e-01
  2.297611e+01    8.903444e-01
  2.299199e+01    8.783646e-01
  2.300786e+01    9.027700e-01
  2.302374e+01    8.898441e-01
  2.303961e+01    8.953664e-01
  2.305549e+01    9.170300e-01
  2.307137e+01    8.780031e-01
  2.308724e+01    8.907262e-01
  2.310312e+01    8.950630e-01
  2.311899e+01    8.888264e-01
  2.313487e+01    9.054077e-01
  2.315074e+01    8.812029e-01
  2.316662e+01    8.880187e-01
  2.318249e+01    8.817658e-01
  2.319837e+01    8.540688e-01
  2.321425e+01    8.671965e-01
  2.323012e+01    8.608875e-01
  2.324600e+01    8.669314e-01
  2.326187e+01    8.571045e-01
  2.327775e+01    8.662152e-01
  2.329362e+01    8.575513e-01
  2.330950e+01    8.752018e-01
  2.332537e+01    8.656203e-01
  2.334125e+01    8.513377e-01
  2.335713e+01    8.721026e-01
  2.337300e+01    8.670315e-01
  2.338888e+01    8.701710e-01
  2.340475e+01    8.639576e-01
  2.342063e+01    8.710738e-01
  2.343650e+01    8.585142e-01
  2.345238e+01    8.357441e-01
  2.346825e+01    8.404034e-01
  2.348413e+01    8.379805e-01
  2.350001e+01    8.305864e-01
  2.351588e+01    8.462780e-01
  2.353176e+01    8.627267e-01
  2.354763e+01    8.600956e-01
  2.356351e+01    8.316564e-01
  2.357938e+01    8.407968e-01
  2.359526e+01    8.533964e-01
  2.361113e+01    8.456853e-01
  2.362701e+01    8.510153e-01
  2.364289e+01    8.347971e-01
  2.365876e+01    8.223224e-01
  2.367464e+01    8.376619e-01
  2.369051e+01    8.127427e-01
  2.370639e+01    8.072595e-01
  2.372226e+01    8.148521e-01
  2.373814e+01    8.212954e-01
  2.375401e+01    8.230786e-01
  2.376989e+01    8.194078e-01
  2.378577e+01    8.141225e-01
  2.380164e+01    8.085747e-01
  2.381752e+01    8.194799e-01
  2.383339e+01    8.187490e-01
  2.384927e+01    8.040105e-01
  2.386514e+01    8.134025e-01
  2.388102e+01    8.057390e-01
  2.389689e+01    7.795786e-01
  2.391277e+01    7.775387e-01
  2.392865e+01    7.753610e-01
  2.394452e+01    7.840902e-01
  2.396040e+01    7.911426e-01
  2.397627e+01    8.105325e-01
  2.399215e+01    7.787737e-01
  2.400802e+01    7.908313e-01
  2.402390e+01    7.924078e-01
  2.403978e+01    7.980426e-01
  2.405565e+01    7.786825e-01
  2.407153e+01    7.746372e-01
  2.408740e+01    7.900773e-01
  2.410328e+01    7.970794e-01
  2.411915e+01    7.916217e-01
  2.413503e+01    7.871322e-01
  2.415090e+01    7.877352e-01
  2.416678e+01    7.755995e-01
  2.418266e+01    7.688607e-01
  2.419853e+01    7.787606e-01
  2.421441e+01    7.879452e-01
  2.423028e+01    7.908095e-01
  2.424616e+01    7.995580e-01
  2.426203e+01    7.850136e-01
  2.427791e+01    7.854676e-01
  2.429378e+01    7.738854e-01
  2.430966e+01    7.819816e-01
  2.432554e+01    7.951793e-01
  2.434141e+01    7.886919e-01
  2.435729e+01    7.947698e-01
  2.437316e+01    7.868916e-01
  2.438904e+01    7.860442e-01
  2.440491e+01    7.912325e-01
  2.442079e+01    8.018814e-01
  2.443666e+01    8.145091e-01
  2.445254e+01    7.957742e-01
  2.446842e+01    7.949661e-01
  2.448429e+01    8.036603e-01
  2.450017e+01    7.882161e-01
  2.451604e+01    7.848551e-01
  2.453192e+01    7.979872e-01
  2.454779e+01    8.039857e-01
  2.456367e+01    8.077072e-01
  2.457954e+01    8.027078e-01
  2.459542e+01    7.876104e-01
  2.461130e+01    7.943372e-01
  2.462717e+01    7.981696e-01
  2.464305e+01    8.048318e-01
  2.465892e+01    8.029504e-01
  2.467480e+01    7.914194e-01
  2.469067e+01    7.883474e-01
  2.470655e+01    8.016174e-01
  2.472242e+01    8.023552e-01
  2.473830e+01    8.117899e-01
  2.475418e+01    8.032402e-01
  2.477005e+01    8.097631e-01
  2.478593e+01    8.074355e-01
  2.480180e+01    8.007096e-01
  2.481768e+01    7.853627e-01
  2.483355e+01    8.053293e-01
  2.484943e+01    8.084292e-01
  2.486530e+01    7.868857e-01
  2.488118e+01    8.040180e-01
  2.489706e+01    7.835951e-01
  2.491293e+01    7.969653e-01
  2.492881e+01    8.051649e-01
  2.494468e+01    7.886422e-01
  2.496056e+01    7.805813e-01
  2.497643e+01    8.096939e-01
  2.499231e+01    8.318492e-01
  2.500819e+01    8.048839e-01
  2.502406e+01    8.014498e-01
  2.503994e+01    8.095190e-01
  2.505581e+01    7.982152e-01
  2.507169e+01    8.296543e-01
  2.508756e+01    8.305224e-01
  2.510344e+01    8.131233e-01
  2.511931e+01    8.189833e-01
  2.513519e+01    8.163435e-01
  2.515107e+01    8.274795e-01
  2.516694e+01    8.157045e-01
  2.518282e+01    8.192611e-01
  2.519869e+01    8.103158e-01
  2.521457e+01    8.249288e-01
  2.523044e+01    8.066139e-01
  2.524632e+01    8.225983e-01
  2.526219e+01    8.433558e-01
  2.527807e+01    8.522823e-01
  2.529395e+01    8.628759e-01
  2.530982e+01    8.582994e-01
  2.532570e+01    8.760724e-01
  2.534157e+01    8.920857e-01
  2.535745e+01    8.972294e-01
  2.537332e+01    8.777130e-01
  2.538920e+01    9.040980e-01
  2.540507e+01    9.102592e-01
  2.542095e+01    9.188381e-01
  2.543683e+01    9.175378e-01
  2.545270e+01    9.292850e-01
  2.546858e+01    9.535308e-01
  2.548445e+01    9.490110e-01
  2.550033e+01    9.611911e-01
  2.551620e+01    9.980350e-01
  2.553208e+01    1.010327e+00
  2.554795e+01    1.024403e+00
  2.556383e+01    1.054506e+00
  2.557971e+01    1.077822e+00
  2.559558e+01    1.084877e+00
  2.561146e+01    1.096860e+00
  2.562733e+01    1.143404e+00
  2.564321e+01    1.167971e+00
  2.565908e+01    1.224006e+00
  2.567496e+01    1.267049e+00
  2.569083e+01    1.343407e+00
  2.570671e+01    1.442315e+00
  2.572259e+01    1.559200e+00
  2.573846e+01    1.626325e+00
  2.575434e+01    1.753808e+00
  2.577021e+01    1.965373e+00
  2.578609e+01    2.166312e+00
  2.580196e+01    2.415680e+00
  2.581784e+01    2.708749e+00
  2.583371e+01    3.034554e+00
  2.584959e+01    3.484914e+00
  2.586547e+01    4.024371e+00
  2.588134e+01    4.638122e+00
  2.589722e+01    5.235100e+00
  2.591309e+01    5.958369e+00
  2.592897e+01    6.699652e+00
  2.594484e+01    7.364707e+00
  2.596072e+01    8.006985e+00
  2.597660e+01    8.357346e+00
  2.599247e+01    8.368531e+00
  2.600835e+01    8.163835e+00
  2.602422e+01    7.616685e+00
  2.604010e+01    6.875596e+00
  2.605597e+01    5.997034e+00
  2.607185e+01    5.166918e+00
  2.608772e+01    4.408229e+00
  2.610360e+01    3.794552e+00
  2.611948e+01    3.257080e+00
  2.613535e+01    2.852360e+00
  2.615123e+01    2.515099e+00
  2.616710e+01    2.236167e+00
  2.618298e+01    2.031331e+00
  2.619885e+01    1.860444e+00
  2.621473e+01    1.710947e+00
  2.623060e+01    1.590398e+00
  2.624648e+01    1.496808e+00
  2.626236e+01    1.395491e+00
  2.627823e+01    1.352109e+00
  2.629411e+01    1.284417e+00
  2.630998e+01    1.231944e+00
  2.632586e+01    1.165691e+00
  2.634173e+01    1.135426e+00
  2.635761e+01    1.127624e+00
  2.637348e+01    1.071684e+00
  2.638936e+01    1.043498e+00
  2.640524e+01    1.043587e+00
  2.642111e+01    1.024588e+00
  2.643699e+01    9.833427e-01
  2.645286e+01    9.845863e-01
  2.646874e+01    9.819380e-01
  2.648461e+01    9.770419e-01
  2.650049e+01    9.865896e-01
  2.651636e+01    9.658243e-01
  2.653224e+01    9.601347e-01
  2.654812e+01    9.326893e-01
  2.656399e+01    9.216032e-01
  2.657987e+01    9.205010e-01
  2.659574e+01    9.149256e-01
  2.661162e+01    9.093627e-01
  2.662749e+01    9.132704e-01
  2.664337e+01    9.033267e-01
  2.665924e+01    9.027219e-01
  2.667512e+01    8.968619e-01
  2.669100e+01    8.863372e-01
  2.670687e+01    8.934816e-01
  2.672275e+01    8.901876e-01
  2.673862e+01    8.950126e-01
  2.675450e+01    9.133118e-01
  2.677037e+01    9.049453e-01
  2.678625e+01    9.177797e-01
  2.680212e+01    9.048228e-01
  2.681800e+01    8.947527e-01
  2.683388e+01    9.217158e-01
  2.684975e+01    9.077258e-01
  2.686563e+01    9.071460e-01
  2.688150e+01    9.069123e-01
  2.689738e+01    9.356794e-01
  2.691325e+01    9.358582e-01
  2.692913e+01    9.385213e-01
  2.694501e+01    9.302683e-01
  2.696088e+01    9.602607e-01
  2.697676e+01    9.701715e-01
  2.699263e+01    9.929039e-01
  2.700851e+01    1.028677e+00
  2.702438e+01    1.056631e+00
  2.704026e+01    1.067702e+00
  2.705613e+01    1.092220e+00
  2.707201e+01    1.174683e+00
  2.708789e+01    1.235333e+00
  2.710376e+01    1.303766e+00
  2.711964e+01    1.402147e+00
  2.713551e+01    1.523855e+00
  2.715139e+01    1.665169e+00
  2.716726e+01    1.825138e+00
  2.718314e+01    2.011388e+00
  2.719901e+01    2.127566e+00
  2.721489e+01    2.313886e+00
  2.723077e+01    2.433431e+00
  2.724664e+01    2.461305e+00
  2.726252e+01    2.429492e+00
  2.727839e+01    2.302490e+00
  2.729427e+01    2.178352e+00
  2.731014e+01    2.003956e+00
  2.732602e+01    1.821479e+00
  2.734189e+01    1.644804e+00
  2.735777e+01    1.507576e+00
  2.737365e+01    1.377584e+00
  2.738952e+01    1.279428e+00
  2.740540e+01    1.175931e+00
  2.742127e+01    1.127122e+00
  2.743715e+01    1.095052e+00
  2.745302e+01    1.020458e+00
  2.746890e+01    1.014321e+00
  2.748477e+01    1.000463e+00
  2.750065e+01    9.636581e-01
  2.751653e+01    9.212709e-01
  2.753240e+01    9.261127e-01
  2.754828e+01    9.311168e-01
  2.756415e+01    9.094372e-01
  2.758003e+01    8.948212e-01
  2.759590e+01    8.673534e-01
  2.761178e+01    8.768049e-01
  2.762765e+01    8.786122e-01
  2.764353e+01    8.506401e-01
  2.765941e+01    8.506305e-01
  2.767528e+01    8.576722e-01
  2.769116e+01    8.541592e-01
  2.770703e+01    8.487669e-01
  2.772291e+01    8.319045e-01
  2.773878e+01    8.294091e-01
  2.775466e+01    8.232668e-01
  2.777054e+01    8.191378e-01
  2.778641e+01    8.384069e-01
  2.780229e+01    8.325751e-01
  2.781816e+01    8.142275e-01
  2.783404e+01    8.150852e-01
  2.784991e+01    8.131374e-01
  2.786579e+01    8.239932e-01
  2.788166e+01    8.212442e-01
  2.789754e+01    8.032411e-01
  2.791342e+01    7.979473e-01
  2.792929e+01    7.784832e-01
  2.794517e+01    7.979737e-01
  2.796104e+01    8.203381e-01
  2.797692e+01    7.904165e-01
  2.799279e+01    7.943321e-01
  2.800867e+01    8.000210e-01
  2.802454e+01    7.889050e-01
  2.804042e+01    7.841710e-01
  2.805630e+01    7.777895e-01
  2.807217e+01    7.907819e-01
  2.808805e+01    7.802590e-01
  2.810392e+01    7.665439e-01
  2.811980e+01    7.815749e-01
  2.813567e+01    7.836691e-01
  2.815155e+01    7.895733e-01
  2.816742e+01    7.802001e-01
  2.818330e+01    7.717517e-01
  2.819918e+01    7.944367e-01
  2.821505e+01    7.782197e-01
  2.823093e+01    7.734209e-01
  2.824680e+01    7.857025e-01
  2.826268e+01    7.842555e-01
  2.827855e+01    7.901836e-01
  2.829443e+01    7.661393e-01
  2.831030e+01    7.694989e-01
  2.832618e+01    7.783311e-01
  2.834206e+01    7.625718e-01
  2.835793e+01    7.611828e-01
  2.837381e+01    7.739051e-01
  2.838968e+01    7.661389e-01
  2.840556e+01    7.742190e-01
  2.842143e+01    7.686882e-01
  2.843731e+01    7.684390e-01
  2.845318e+01    7.566249e-01
  2.846906e+01    7.726482e-01
  2.848494e+01    7.518946e-01
  2.850081e+01    7.622269e-01
  2.851669e+01    7.464676e-01
  2.853256e+01    7.543210e-01
  2.854844e+01    7.496591e-01
  2.856431e+01    7.626280e-01
  2.858019e+01    7.622495e-01
  2.859606e+01    7.513947e-01
  2.861194e+01    7.601630e-01
  2.862782e+01    7.551236e-01
  2.864369e+01    7.524638e-01
  2.865957e+01    7.545000e-01
  2.867544e+01    7.470888e-01
  2.869132e+01    7.679844e-01
  2.870719e+01    7.798139e-01
  2.872307e+01    7.556444e-01
  2.873895e+01    7.396216e-01
  2.875482e+01    7.423732e-01
  2.877070e+01    7.517195e-01
  2.878657e+01    7.562248e-01
  2.880245e+01    7.620471e-01
  2.881832e+01    7.458563e-01
  2.883420e+01    7.577398e-01
  2.885007e+01    7.412844e-01
  2.886595e+01    7.279246e-01
  2.888183e+01    7.365112e-01
  2.889770e+01    7.462090e-01
  2.891358e+01    7.526045e-01
  2.892945e+01    7.480447e-01
  2.894533e+01    7.527708e-01
  2.896120e+01    7.473153e-01
  2.897708e+01    7.445046e-01
  2.899295e+01    7.432958e-01
  2.900883e+01    7.500487e-01
  2.902471e+01    7.385967e-01
  2.904058e+01    7.415978e-01
  2.905646e+01    7.520065e-01
  2.907233e+01    7.560810e-01
  2.908821e+01    7.478448e-01
  2.910408e+01    7.478049e-01
  2.911996e+01    7.482834e-01
  2.913583e+01    7.440027e-01
  2.915171e+01    7.363983e-01
  2.916759e+01    7.288859e-01
  2.918346e+01    7.291935e-01
  2.919934e+01    7.305465e-01
  2.921521e+01    7.249978e-01
  2.923109e+01    7.515672e-01
  2.924696e+01    7.393776e-01
  2.926284e+01    7.494651e-01
  2.927871e+01    7.576876e-01
  2.929459e+01    7.503709e-01
  2.931047e+01    7.416449e-01
  2.932634e+01    7.385818e-01
  2.934222e+01    7.390299e-01
  2.935809e+01    7.421432e-01
  2.937397e+01    7.510125e-01
  2.938984e+01    7.687867e-01
  2.940572e+01    7.388182e-01
  2.942159e+01    7.146264e-01
  2.943747e+01    7.301393e-01
  2.945335e+01    7.311873e-01
  2.946922e+01    7.039997e-01
  2.948510e+01    7.107643e-01
  2.950097e+01    7.186916e-01
  2.951685e+01    7.347166e-01
  2.953272e+01    7.358441e-01
  2.954860e+01    7.309045e-01
  2.956447e+01    7.247189e-01
  2.958035e+01    7.377591e-01
  2.959623e+01    7.280641e-01
  2.961210e+01    7.502418e-01
  2.962798e+01    7.306799e-01
  2.964385e+01    7.111268e-01
  2.965973e+01    7.029593e-01
  2.967560e+01    7.156863e-01
  2.969148e+01    7.243293e-01
  2.970736e+01    7.174411e-01
  2.972323e+01    7.397079e-01
  2.973911e+01    7.098876e-01
  2.975498e+01    7.004991e-01
  2.977086e+01    7.020667e-01
  2.978673e+01    7.081290e-01
  2.980261e+01    7.328113e-01
  2.981848e+01    7.369868e-01
  2.983436e+01    7.184501e-01
  2.985024e+01    7.287360e-01
  2.986611e+01    7.219853e-01
  2.988199e+01    7.000905e-01
  2.989786e+01    7.107437e-01
  2.991374e+01    7.326940e-01
  2.992961e+01    7.350261e-01
  2.994549e+01    7.176102e-01
  2.996136e+01    7.360071e-01
  2.997724e+01    7.265488e-01
  2.999312e+01    7.532735e-01
  3.000899e+01    7.352017e-01
  3.002487e+01    7.324749e-01
  3.004074e+01    7.387719e-01
  3.005662e+01    7.606466e-01
  3.007249e+01    7.586757e-01
  3.008837e+01    7.503155e-01
  3.010424e+01    7.286212e-01
  3.012012e+01    7.076356e-01
  3.013600e+01    7.309520e-01
  3.015187e+01    7.216665e-01
  3.016775e+01    7.064247e-01
  3.018362e+01    7.136554e-01
  3.019950e+01    7.134745e-01
  3.021537e+01    7.048928e-01
  3.023125e+01    7.113377e-01
  3.024712e+01    7.030709e-01
  3.026300e+01    7.157385e-01
  3.027888e+01    7.238195e-01
  3.029475e+01    7.413000e-01
  3.031063e+01    7.261884e-01
  3.032650e+01    7.054031e-01
  3.034238e+01    7.060388e-01
  3.035825e+01    7.150175e-01
  3.037413e+01    7.197791e-01
  3.039000e+01    7.268189e-01
  3.040588e+01    7.397431e-01
  3.042176e+01    7.180354e-01
  3.043763e+01    7.006197e-01
  3.045351e+01    7.077282e-01
  3.046938e+01    7.065300e-01
  3.048526e+01    7.040671e-01
  3.050113e+01    6.835284e-01
  3.051701e+01    7.056761e-01
  3.053288e+01    7.177114e-01
  3.054876e+01    7.198391e-01
  3.056464e+01    7.037203e-01
  3.058051e+01    7.044939e-01
  3.059639e+01    7.225224e-01
  3.061226e+01    7.293843e-01
  3.062814e+01    7.063559e-01
  3.064401e+01    7.117094e-01
  3.065989e+01    7.187932e-01
  3.067577e+01    7.220773e-01
  3.069164e+01    7.098287e-01
  3.070752e+01    7.141075e-01
  3.072339e+01    7.128515e-01
  3.073927e+01    7.072442e-01
  3.075514e+01    7.169425e-01
  3.077102e+01    6.966237e-01
  3.078689e+01    6.877652e-01
  3.080277e+01    6.911324e-01
  3.081865e+01    7.097883e-01
  3.083452e+01    7.011788e-01
  3.085040e+01    7.167600e-01
  3.086627e+01    7.018439e-01
  3.088215e+01    7.241407e-01
  3.089802e+01    7.136434e-01
  3.091390e+01    7.114419e-01
  3.092977e+01    7.253465e-01
  3.094565e+01    7.340342e-01
  3.096153e+01    7.417722e-01
  3.097740e+01    7.111317e-01
  3.099328e+01    6.885055e-01
  3.100915e+01    7.053351e-01
  3.102503e+01    7.066693e-01
  3.104090e+01    7.122698e-01
  3.105678e+01    7.280881e-01
  3.107265e+01    7.330260e-01
  3.108853e+01    7.115538e-01
  3.110441e+01    7.113642e-01
  3.112028e+01    7.228621e-01
  3.113616e+01    7.080489e-01
  3.115203e+01    7.291307e-01
  3.116791e+01    7.459130e-01
  3.118378e+01    7.381626e-01
  3.119966e+01    7.401215e-01
  3.121553e+01    7.450984e-01
  3.123141e+01    7.305888e-01
  3.124729e+01    7.397825e-01
  3.126316e+01    7.431073e-01
  3.127904e+01    7.452929e-01
  3.129491e+01    7.288887e-01
  3.131079e+01    7.553424e-01
  3.132666e+01    7.490135e-01
  3.134254e+01    7.624227e-01
  3.135841e+01    7.390020e-01
  3.137429e+01    7.265729e-01
  3.139017e+01    7.241039e-01
  3.140604e+01    7.511449e-01
  3.142192e+01    7.593718e-01
  3.143779e+01    7.599962e-01
  3.145367e+01    7.471846e-01
  3.146954e+01    7.562511e-01
  3.148542e+01    7.743204e-01
  3.150129e+01    7.725037e-01
  3.151717e+01    7.636285e-01
  3.153305e+01    7.646882e-01
  3.154892e+01    7.678539e-01
  3.156480e+01    7.941115e-01
  3.158067e+01    8.014927e-01
  3.159655e+01    8.177320e-01
  3.161242e+01    8.083500e-01
  3.162830e+01    8.232844e-01
  3.164418e+01    8.386937e-01
  3.166005e+01    8.617385e-01
  3.167593e+01    8.894997e-01
  3.169180e+01    8.930056e-01
  3.170768e+01    9.277418e-01
  3.172355e+01    9.718118e-01
  3.173943e+01    1.009019e+00
  3.175530e+01    1.031225e+00
  3.177118e+01    1.070390e+00
  3.178706e+01    1.159163e+00
  3.180293e+01    1.264788e+00
  3.181881e+01    1.391839e+00
  3.183468e+01    1.510916e+00
  3.185056e+01    1.668255e+00
  3.186643e+01    1.803084e+00
  3.188231e+01    1.995252e+00
  3.189818e+01    2.157886e+00
  3.191406e+01    2.288306e+00
  3.192994e+01    2.393996e+00
  3.194581e+01    2.435738e+00
  3.196169e+01    2.379019e+00
  3.197756e+01    2.271450e+00
  3.199344e+01    2.110674e+00
  3.200931e+01    1.921483e+00
  3.202519e+01    1.711661e+00
  3.204106e+01    1.560966e+00
  3.205694e+01    1.446845e+00
  3.207282e+01    1.306233e+00
  3.208869e+01    1.193775e+00
  3.210457e+01    1.114182e+00
  3.212044e+01    1.043815e+00
  3.213632e+01    9.897223e-01
  3.215219e+01    9.562813e-01
  3.216807e+01    9.186826e-01
  3.218394e+01    9.071932e-01
  3.219982e+01    8.801404e-01
  3.221570e+01    8.687773e-01
  3.223157e+01    8.451406e-01
  3.224745e+01    8.275937e-01
  3.226332e+01    8.256575e-01
  3.227920e+01    7.996089e-01
  3.229507e+01    7.775025e-01
  3.231095e+01    7.720897e-01
  3.232682e+01    7.655613e-01
  3.234270e+01    7.696700e-01
  3.235858e+01    7.617321e-01
  3.237445e+01    7.656286e-01
  3.239033e+01    7.657451e-01
  3.240620e+01    7.447495e-01
  3.242208e+01    7.593469e-01
  3.243795e+01    7.295641e-01
  3.245383e+01    7.387696e-01
  3.246970e+01    7.238939e-01
  3.248558e+01    7.146432e-01
  3.250146e+01    7.388064e-01
  3.251733e+01    7.360598e-01
  3.253321e+01    7.353150e-01
  3.254908e+01    7.134153e-01
