# == pyFAI calibration ==
# Distance Sample to Detector: 0.3999999939076516 m
# PONI: 9.750e-02, 1.135e-01 m
# Rotations: -0.000175 0.000000 -0.000000 rad
# 
# == Fit2d calibration ==
# Distance Sample-beamCenter: 400.000 mm
# Center: x=1514.000, y=1300.000 pix
# Tilt: 0.010 deg  TiltPlanRot: 0.010 deg
# 
# Detector Detector	 Spline= None	 PixelSize= 7.500e-05, 7.500e-05 m
#    Detector has a mask: False 
#    Detector has a dark current: False 
#    detector has a flat field: False 
# 
# Wavelength: 6.888e-11 m
# Mask applied: user provided
# Dark current applied: False
# Flat field applied: False
# Polarization factor: 0.99
# Normalization factor: 1.0
# --> /home/myspot/data/2024_07_Rosario/Ru-CGO-ex/2024-07-27_002_Ru-CGO-ex_Activtation_ramp_000002_data_000073.dat
#       q_nm^-1             I 
  2.003187e-02    7.712624e-02
  3.590745e-02    9.850512e-02
  5.178302e-02    6.857615e-02
  6.765859e-02    4.632625e-02
  8.353417e-02    9.537756e-02
  9.940974e-02    1.310315e-02
  1.152853e-01    6.485469e-02
  1.311609e-01    4.974267e-02
  1.470365e-01    3.177304e-02
  1.629120e-01    8.408983e-02
  1.787876e-01    2.462335e-02
  1.946632e-01    3.390285e-02
  2.105388e-01    1.477954e-02
  2.264143e-01    3.433109e-02
  2.422899e-01    6.598472e-03
  2.581655e-01    0.000000e+00
  2.740411e-01    2.131787e-02
  2.899166e-01    1.954276e-02
  3.057922e-01    2.436997e-02
  3.216678e-01    4.238513e-02
  3.375433e-01    3.485648e-02
  3.534189e-01    4.696668e-02
  3.692945e-01    3.609097e-02
  3.851701e-01    2.127413e-02
  4.010456e-01    2.352712e-02
  4.169212e-01    1.269113e-03
  4.327968e-01    2.101428e-03
  4.486724e-01    1.610701e-02
  4.645479e-01    2.133592e-02
  4.804235e-01    2.483504e-02
  4.962991e-01    3.829954e-02
  5.121747e-01    6.387189e-02
  5.280502e-01    4.514454e-02
  5.439258e-01    4.920698e-02
  5.598014e-01    5.032653e-02
  5.756770e-01    4.634756e-02
  5.915525e-01    5.259830e-02
  6.074281e-01    5.064516e-02
  6.233037e-01    5.811125e-02
  6.391793e-01    4.003875e-02
  6.550548e-01    3.687261e-02
  6.709304e-01    2.421827e-02
  6.868060e-01    2.147657e-02
  7.026815e-01    1.945934e-02
  7.185571e-01    1.695357e-02
  7.344327e-01    2.480649e-02
  7.503083e-01    3.259287e-02
  7.661838e-01    2.551343e-02
  7.820594e-01    8.111046e-02
  7.979350e-01    1.531399e-01
  8.138106e-01    2.053830e-01
  8.296861e-01    2.653189e-01
  8.455617e-01    3.249369e-01
  8.614373e-01    4.092477e-01
  8.773129e-01    4.124031e-01
  8.931884e-01    4.794635e-01
  9.090640e-01    5.671011e-01
  9.249396e-01    6.278537e-01
  9.408152e-01    6.878505e-01
  9.566907e-01    7.298015e-01
  9.725663e-01    8.717114e-01
  9.884419e-01    8.958270e-01
  1.004317e+00    1.002622e+00
  1.020193e+00    1.082542e+00
  1.036069e+00    1.164049e+00
  1.051944e+00    1.174796e+00
  1.067820e+00    1.270317e+00
  1.083695e+00    1.232154e+00
  1.099571e+00    1.305713e+00
  1.115446e+00    1.439508e+00
  1.131322e+00    1.420127e+00
  1.147198e+00    1.451662e+00
  1.163073e+00    1.448922e+00
  1.178949e+00    1.488115e+00
  1.194824e+00    1.592276e+00
  1.210700e+00    1.746607e+00
  1.226575e+00    2.069286e+00
  1.242451e+00    2.246440e+00
  1.258327e+00    2.317006e+00
  1.274202e+00    2.480680e+00
  1.290078e+00    2.534143e+00
  1.305953e+00    2.636126e+00
  1.321829e+00    2.591701e+00
  1.337705e+00    2.609592e+00
  1.353580e+00    2.580642e+00
  1.369456e+00    2.602091e+00
  1.385331e+00    2.639247e+00
  1.401207e+00    2.659061e+00
  1.417082e+00    2.747848e+00
  1.432958e+00    2.710281e+00
  1.448834e+00    2.752332e+00
  1.464709e+00    2.724345e+00
  1.480585e+00    2.975957e+00
  1.496460e+00    3.006680e+00
  1.512336e+00    2.935952e+00
  1.528211e+00    2.976637e+00
  1.544087e+00    2.846894e+00
  1.559963e+00    2.847062e+00
  1.575838e+00    3.029783e+00
  1.591714e+00    3.096126e+00
  1.607589e+00    2.966398e+00
  1.623465e+00    2.982217e+00
  1.639340e+00    3.058575e+00
  1.655216e+00    2.959460e+00
  1.671092e+00    3.002909e+00
  1.686967e+00    2.919262e+00
  1.702843e+00    2.752872e+00
  1.718718e+00    2.797020e+00
  1.734594e+00    2.730301e+00
  1.750469e+00    2.810634e+00
  1.766345e+00    2.832049e+00
  1.782221e+00    2.806150e+00
  1.798096e+00    2.835310e+00
  1.813972e+00    2.831461e+00
  1.829847e+00    2.732565e+00
  1.845723e+00    2.750839e+00
  1.861598e+00    2.907370e+00
  1.877474e+00    2.932373e+00
  1.893350e+00    2.706700e+00
  1.909225e+00    2.732125e+00
  1.925101e+00    2.764916e+00
  1.940976e+00    2.800014e+00
  1.956852e+00    2.722398e+00
  1.972727e+00    2.667106e+00
  1.988603e+00    2.776612e+00
  2.004479e+00    2.818645e+00
  2.020354e+00    2.860824e+00
  2.036230e+00    2.817477e+00
  2.052105e+00    2.773579e+00
  2.067981e+00    2.724691e+00
  2.083856e+00    2.780080e+00
  2.099732e+00    2.689278e+00
  2.115608e+00    2.683538e+00
  2.131483e+00    2.700737e+00
  2.147359e+00    2.701768e+00
  2.163234e+00    2.781499e+00
  2.179110e+00    2.710828e+00
  2.194985e+00    2.756070e+00
  2.210861e+00    2.891577e+00
  2.226737e+00    2.806221e+00
  2.242612e+00    2.691120e+00
  2.258488e+00    2.699857e+00
  2.274363e+00    2.794650e+00
  2.290239e+00    2.805644e+00
  2.306115e+00    2.716167e+00
  2.321990e+00    2.689621e+00
  2.337866e+00    2.748593e+00
  2.353741e+00    2.776547e+00
  2.369617e+00    2.853872e+00
  2.385492e+00    2.780607e+00
  2.401368e+00    2.750837e+00
  2.417244e+00    2.862290e+00
  2.433119e+00    2.874578e+00
  2.448995e+00    2.743631e+00
  2.464870e+00    2.783950e+00
  2.480746e+00    2.830380e+00
  2.496621e+00    2.805972e+00
  2.512497e+00    2.844173e+00
  2.528373e+00    2.820763e+00
  2.544248e+00    2.810597e+00
  2.560124e+00    2.834682e+00
  2.575999e+00    2.806583e+00
  2.591875e+00    2.827576e+00
  2.607750e+00    2.843144e+00
  2.623626e+00    2.837509e+00
  2.639502e+00    2.812287e+00
  2.655377e+00    2.671929e+00
  2.671253e+00    2.742825e+00
  2.687128e+00    2.803227e+00
  2.703004e+00    2.824895e+00
  2.718879e+00    2.800976e+00
  2.734755e+00    2.837246e+00
  2.750631e+00    2.809438e+00
  2.766506e+00    2.856757e+00
  2.782382e+00    2.834476e+00
  2.798257e+00    2.905867e+00
  2.814133e+00    2.919781e+00
  2.830008e+00    2.848559e+00
  2.845884e+00    2.855323e+00
  2.861760e+00    2.798762e+00
  2.877635e+00    2.866067e+00
  2.893511e+00    3.010334e+00
  2.909386e+00    3.023646e+00
  2.925262e+00    2.949088e+00
  2.941137e+00    2.857085e+00
  2.957013e+00    2.854717e+00
  2.972889e+00    2.848456e+00
  2.988764e+00    2.886827e+00
  3.004640e+00    2.928312e+00
  3.020515e+00    2.892060e+00
  3.036391e+00    2.830129e+00
  3.052266e+00    2.845958e+00
  3.068142e+00    2.826870e+00
  3.084018e+00    2.925347e+00
  3.099893e+00    2.957501e+00
  3.115769e+00    2.959125e+00
  3.131644e+00    2.913993e+00
  3.147520e+00    2.940195e+00
  3.163395e+00    3.018610e+00
  3.179271e+00    2.936571e+00
  3.195147e+00    2.854568e+00
  3.211022e+00    2.808416e+00
  3.226898e+00    2.935789e+00
  3.242773e+00    2.963472e+00
  3.258649e+00    2.839194e+00
  3.274525e+00    2.881446e+00
  3.290400e+00    2.856076e+00
  3.306276e+00    2.872550e+00
  3.322151e+00    2.895259e+00
  3.338027e+00    2.871775e+00
  3.353902e+00    2.830295e+00
  3.369778e+00    2.871590e+00
  3.385654e+00    2.907895e+00
  3.401529e+00    2.931550e+00
  3.417405e+00    2.952960e+00
  3.433280e+00    2.896097e+00
  3.449156e+00    2.881076e+00
  3.465031e+00    3.013490e+00
  3.480907e+00    2.952081e+00
  3.496783e+00    2.977092e+00
  3.512658e+00    3.013883e+00
  3.528534e+00    2.862707e+00
  3.544409e+00    2.847979e+00
  3.560285e+00    2.897078e+00
  3.576160e+00    2.921527e+00
  3.592036e+00    2.928460e+00
  3.607912e+00    3.023876e+00
  3.623787e+00    2.921749e+00
  3.639663e+00    2.961296e+00
  3.655538e+00    3.006958e+00
  3.671414e+00    2.965804e+00
  3.687289e+00    2.943957e+00
  3.703165e+00    2.922643e+00
  3.719041e+00    3.029418e+00
  3.734916e+00    3.060111e+00
  3.750792e+00    3.041374e+00
  3.766667e+00    3.040500e+00
  3.782543e+00    3.014582e+00
  3.798418e+00    2.968122e+00
  3.814294e+00    2.968836e+00
  3.830170e+00    2.993066e+00
  3.846045e+00    2.995094e+00
  3.861921e+00    2.991422e+00
  3.877796e+00    3.007888e+00
  3.893672e+00    3.031318e+00
  3.909547e+00    2.909780e+00
  3.925423e+00    2.978983e+00
  3.941299e+00    3.068152e+00
  3.957174e+00    2.973099e+00
  3.973050e+00    3.010049e+00
  3.988925e+00    3.088129e+00
  4.004801e+00    3.069301e+00
  4.020676e+00    3.054834e+00
  4.036552e+00    3.093322e+00
  4.052428e+00    3.047469e+00
  4.068303e+00    3.035450e+00
  4.084179e+00    2.986346e+00
  4.100054e+00    2.948304e+00
  4.115930e+00    2.964597e+00
  4.131806e+00    2.955917e+00
  4.147681e+00    3.080399e+00
  4.163557e+00    2.982939e+00
  4.179432e+00    2.940356e+00
  4.195308e+00    2.987700e+00
  4.211183e+00    2.914228e+00
  4.227059e+00    2.946837e+00
  4.242935e+00    3.014827e+00
  4.258810e+00    3.070993e+00
  4.274686e+00    3.088780e+00
  4.290561e+00    3.109890e+00
  4.306437e+00    3.039445e+00
  4.322312e+00    2.998750e+00
  4.338188e+00    3.000414e+00
  4.354064e+00    3.022789e+00
  4.369939e+00    3.046504e+00
  4.385815e+00    3.060487e+00
  4.401690e+00    3.116048e+00
  4.417566e+00    3.101672e+00
  4.433441e+00    3.055154e+00
  4.449317e+00    3.050181e+00
  4.465193e+00    3.016023e+00
  4.481068e+00    3.108962e+00
  4.496944e+00    3.112332e+00
  4.512819e+00    3.114386e+00
  4.528695e+00    3.123669e+00
  4.544570e+00    3.098083e+00
  4.560446e+00    3.064536e+00
  4.576322e+00    3.020514e+00
  4.592197e+00    3.009154e+00
  4.608073e+00    3.088673e+00
  4.623948e+00    3.117954e+00
  4.639824e+00    3.059990e+00
  4.655699e+00    3.082266e+00
  4.671575e+00    3.135696e+00
  4.687451e+00    3.144597e+00
  4.703326e+00    3.109561e+00
  4.719202e+00    3.084671e+00
  4.735077e+00    3.098277e+00
  4.750953e+00    3.068680e+00
  4.766828e+00    3.087855e+00
  4.782704e+00    3.097841e+00
  4.798580e+00    3.067021e+00
  4.814455e+00    3.070843e+00
  4.830331e+00    3.038443e+00
  4.846206e+00    3.040951e+00
  4.862082e+00    3.118651e+00
  4.877957e+00    3.026275e+00
  4.893833e+00    3.079485e+00
  4.909709e+00    3.106867e+00
  4.925584e+00    3.041140e+00
  4.941460e+00    3.106962e+00
  4.957335e+00    3.164637e+00
  4.973211e+00    3.157971e+00
  4.989086e+00    3.066299e+00
  5.004962e+00    3.007445e+00
  5.020838e+00    3.112243e+00
  5.036713e+00    3.157553e+00
  5.052589e+00    3.179444e+00
  5.068464e+00    3.123753e+00
  5.084340e+00    3.090263e+00
  5.100216e+00    3.123115e+00
  5.116091e+00    3.137693e+00
  5.131967e+00    3.087185e+00
  5.147842e+00    3.147251e+00
  5.163718e+00    3.139553e+00
  5.179593e+00    3.136198e+00
  5.195469e+00    3.130698e+00
  5.211345e+00    3.157623e+00
  5.227220e+00    3.111516e+00
  5.243096e+00    3.154263e+00
  5.258971e+00    3.130876e+00
  5.274847e+00    3.120382e+00
  5.290722e+00    3.114497e+00
  5.306598e+00    3.083176e+00
  5.322474e+00    3.071287e+00
  5.338349e+00    3.062371e+00
  5.354225e+00    3.085781e+00
  5.370100e+00    3.148177e+00
  5.385976e+00    3.110398e+00
  5.401851e+00    3.071166e+00
  5.417727e+00    3.018419e+00
  5.433603e+00    3.109820e+00
  5.449478e+00    3.052275e+00
  5.465354e+00    3.097717e+00
  5.481229e+00    3.132787e+00
  5.497105e+00    3.114929e+00
  5.512980e+00    3.050638e+00
  5.528856e+00    2.990547e+00
  5.544732e+00    3.085222e+00
  5.560607e+00    3.090057e+00
  5.576483e+00    3.062198e+00
  5.592358e+00    3.015075e+00
  5.608234e+00    3.033545e+00
  5.624109e+00    3.076414e+00
  5.639985e+00    3.057383e+00
  5.655861e+00    3.112539e+00
  5.671736e+00    3.107163e+00
  5.687612e+00    3.067286e+00
  5.703487e+00    3.006009e+00
  5.719363e+00    3.027571e+00
  5.735238e+00    3.064574e+00
  5.751114e+00    3.048510e+00
  5.766990e+00    3.013602e+00
  5.782865e+00    2.982329e+00
  5.798741e+00    3.010437e+00
  5.814616e+00    3.084667e+00
  5.830492e+00    3.137487e+00
  5.846367e+00    3.053906e+00
  5.862243e+00    3.075505e+00
  5.878119e+00    3.059992e+00
  5.893994e+00    3.013428e+00
  5.909870e+00    2.986849e+00
  5.925745e+00    3.087394e+00
  5.941621e+00    3.078338e+00
  5.957497e+00    2.986483e+00
  5.973372e+00    2.884634e+00
  5.989248e+00    2.964950e+00
  6.005123e+00    2.967198e+00
  6.020999e+00    2.953156e+00
  6.036874e+00    3.055758e+00
  6.052750e+00    3.045682e+00
  6.068626e+00    3.035287e+00
  6.084501e+00    3.005077e+00
  6.100377e+00    3.034567e+00
  6.116252e+00    3.115046e+00
  6.132128e+00    3.106819e+00
  6.148003e+00    3.129144e+00
  6.163879e+00    3.086707e+00
  6.179755e+00    3.013756e+00
  6.195630e+00    2.994254e+00
  6.211506e+00    2.983691e+00
  6.227381e+00    3.024866e+00
  6.243257e+00    3.053015e+00
  6.259132e+00    3.048439e+00
  6.275008e+00    3.090418e+00
  6.290884e+00    3.077557e+00
  6.306759e+00    3.007132e+00
  6.322635e+00    3.037165e+00
  6.338510e+00    2.986425e+00
  6.354386e+00    3.018211e+00
  6.370261e+00    3.038181e+00
  6.386137e+00    2.977599e+00
  6.402013e+00    3.032486e+00
  6.417888e+00    3.031609e+00
  6.433764e+00    2.933859e+00
  6.449639e+00    3.004564e+00
  6.465515e+00    3.035336e+00
  6.481390e+00    3.019879e+00
  6.497266e+00    2.995432e+00
  6.513142e+00    2.998369e+00
  6.529017e+00    2.998988e+00
  6.544893e+00    3.072703e+00
  6.560768e+00    3.040491e+00
  6.576644e+00    3.020895e+00
  6.592519e+00    3.028598e+00
  6.608395e+00    3.068987e+00
  6.624271e+00    3.031370e+00
  6.640146e+00    3.079140e+00
  6.656022e+00    3.037753e+00
  6.671897e+00    3.020164e+00
  6.687773e+00    3.105328e+00
  6.703648e+00    3.043343e+00
  6.719524e+00    3.060639e+00
  6.735400e+00    3.130540e+00
  6.751275e+00    2.994113e+00
  6.767151e+00    3.003988e+00
  6.783026e+00    2.950172e+00
  6.798902e+00    2.971950e+00
  6.814777e+00    3.055139e+00
  6.830653e+00    3.012511e+00
  6.846529e+00    3.037908e+00
  6.862404e+00    3.033203e+00
  6.878280e+00    3.008408e+00
  6.894155e+00    3.023512e+00
  6.910031e+00    3.055054e+00
  6.925907e+00    3.048260e+00
  6.941782e+00    3.054249e+00
  6.957658e+00    2.978601e+00
  6.973533e+00    3.004836e+00
  6.989409e+00    3.035506e+00
  7.005284e+00    3.034771e+00
  7.021160e+00    2.949407e+00
  7.037036e+00    2.975902e+00
  7.052911e+00    2.998212e+00
  7.068787e+00    2.970217e+00
  7.084662e+00    3.012321e+00
  7.100538e+00    2.966517e+00
  7.116413e+00    2.949509e+00
  7.132289e+00    2.986480e+00
  7.148165e+00    2.989571e+00
  7.164040e+00    2.934226e+00
  7.179916e+00    2.954746e+00
  7.195791e+00    2.968518e+00
  7.211667e+00    2.959324e+00
  7.227542e+00    2.994388e+00
  7.243418e+00    3.016787e+00
  7.259294e+00    3.043045e+00
  7.275169e+00    3.044096e+00
  7.291045e+00    2.952608e+00
  7.306920e+00    2.954520e+00
  7.322796e+00    2.978019e+00
  7.338671e+00    2.979519e+00
  7.354547e+00    3.003492e+00
  7.370423e+00    2.965425e+00
  7.386298e+00    3.033970e+00
  7.402174e+00    2.925124e+00
  7.418049e+00    2.979032e+00
  7.433925e+00    2.990378e+00
  7.449800e+00    2.961988e+00
  7.465676e+00    3.016876e+00
  7.481552e+00    3.001098e+00
  7.497427e+00    2.962534e+00
  7.513303e+00    2.947865e+00
  7.529178e+00    2.980826e+00
  7.545054e+00    2.986132e+00
  7.560929e+00    3.051974e+00
  7.576805e+00    3.058602e+00
  7.592681e+00    3.037408e+00
  7.608556e+00    2.986252e+00
  7.624432e+00    2.975963e+00
  7.640307e+00    2.956404e+00
  7.656183e+00    2.936037e+00
  7.672058e+00    2.915080e+00
  7.687934e+00    2.923973e+00
  7.703810e+00    2.914818e+00
  7.719685e+00    2.938616e+00
  7.735561e+00    3.044145e+00
  7.751436e+00    2.945922e+00
  7.767312e+00    2.899756e+00
  7.783187e+00    2.916507e+00
  7.799063e+00    2.946731e+00
  7.814939e+00    2.934822e+00
  7.830814e+00    2.885385e+00
  7.846690e+00    2.897442e+00
  7.862565e+00    2.962379e+00
  7.878441e+00    2.891767e+00
  7.894317e+00    2.853979e+00
  7.910192e+00    2.922854e+00
  7.926068e+00    2.885777e+00
  7.941943e+00    2.871118e+00
  7.957819e+00    2.940856e+00
  7.973694e+00    2.864221e+00
  7.989570e+00    2.870114e+00
  8.005446e+00    2.910736e+00
  8.021321e+00    2.881725e+00
  8.037197e+00    2.966457e+00
  8.053072e+00    2.941218e+00
  8.068948e+00    2.906075e+00
  8.084823e+00    2.906565e+00
  8.100699e+00    2.990642e+00
  8.116575e+00    3.028706e+00
  8.132450e+00    2.984732e+00
  8.148326e+00    2.960846e+00
  8.164201e+00    2.874560e+00
  8.180077e+00    2.890898e+00
  8.195952e+00    2.907269e+00
  8.211828e+00    2.934164e+00
  8.227704e+00    2.914122e+00
  8.243579e+00    3.004097e+00
  8.259455e+00    2.977203e+00
  8.275330e+00    2.863410e+00
  8.291206e+00    2.906582e+00
  8.307081e+00    2.962854e+00
  8.322957e+00    2.919220e+00
  8.338833e+00    2.879704e+00
  8.354708e+00    2.892807e+00
  8.370584e+00    2.897715e+00
  8.386459e+00    2.914423e+00
  8.402335e+00    2.931602e+00
  8.418210e+00    2.882440e+00
  8.434086e+00    2.853125e+00
  8.449962e+00    2.899553e+00
  8.465837e+00    2.921616e+00
  8.481713e+00    2.870159e+00
  8.497588e+00    2.878342e+00
  8.513464e+00    2.861241e+00
  8.529339e+00    2.842514e+00
  8.545215e+00    2.824187e+00
  8.561091e+00    2.855078e+00
  8.576966e+00    2.849821e+00
  8.592842e+00    2.898284e+00
  8.608717e+00    2.877631e+00
  8.624593e+00    2.791222e+00
  8.640468e+00    2.849524e+00
  8.656344e+00    2.888283e+00
  8.672220e+00    2.849419e+00
  8.688095e+00    2.845184e+00
  8.703971e+00    2.840781e+00
  8.719846e+00    2.885930e+00
  8.735722e+00    2.910048e+00
  8.751598e+00    2.885011e+00
  8.767473e+00    2.854811e+00
  8.783349e+00    2.808660e+00
  8.799224e+00    2.820443e+00
  8.815100e+00    2.844102e+00
  8.830975e+00    2.820828e+00
  8.846851e+00    2.878274e+00
  8.862727e+00    2.838759e+00
  8.878602e+00    2.823584e+00
  8.894478e+00    2.795452e+00
  8.910353e+00    2.851720e+00
  8.926229e+00    2.832139e+00
  8.942104e+00    2.796868e+00
  8.957980e+00    2.781219e+00
  8.973856e+00    2.794512e+00
  8.989731e+00    2.781507e+00
  9.005607e+00    2.802591e+00
  9.021482e+00    2.795170e+00
  9.037358e+00    2.851311e+00
  9.053233e+00    2.844937e+00
  9.069109e+00    2.777676e+00
  9.084985e+00    2.812880e+00
  9.100860e+00    2.838899e+00
  9.116736e+00    2.888957e+00
  9.132611e+00    2.787274e+00
  9.148487e+00    2.763248e+00
  9.164362e+00    2.750176e+00
  9.180238e+00    2.772816e+00
  9.196114e+00    2.785927e+00
  9.211989e+00    2.808255e+00
  9.227865e+00    2.831566e+00
  9.243740e+00    2.786637e+00
  9.259616e+00    2.749693e+00
  9.275491e+00    2.741269e+00
  9.291367e+00    2.723233e+00
  9.307243e+00    2.729007e+00
  9.323118e+00    2.826156e+00
  9.338994e+00    2.875858e+00
  9.354869e+00    2.792657e+00
  9.370745e+00    2.820079e+00
  9.386620e+00    2.840721e+00
  9.402496e+00    2.803233e+00
  9.418372e+00    2.736678e+00
  9.434247e+00    2.745719e+00
  9.450123e+00    2.778479e+00
  9.465998e+00    2.768425e+00
  9.481874e+00    2.807810e+00
  9.497749e+00    2.763448e+00
  9.513625e+00    2.738790e+00
  9.529501e+00    2.749018e+00
  9.545376e+00    2.725056e+00
  9.561252e+00    2.721751e+00
  9.577127e+00    2.805376e+00
  9.593003e+00    2.787632e+00
  9.608878e+00    2.755492e+00
  9.624754e+00    2.711487e+00
  9.640630e+00    2.748393e+00
  9.656505e+00    2.703729e+00
  9.672381e+00    2.759024e+00
  9.688256e+00    2.729552e+00
  9.704132e+00    2.726962e+00
  9.720008e+00    2.730434e+00
  9.735883e+00    2.698968e+00
  9.751759e+00    2.729235e+00
  9.767634e+00    2.727042e+00
  9.783510e+00    2.670977e+00
  9.799385e+00    2.689852e+00
  9.815261e+00    2.711200e+00
  9.831137e+00    2.712128e+00
  9.847012e+00    2.702521e+00
  9.862888e+00    2.664967e+00
  9.878763e+00    2.683236e+00
  9.894639e+00    2.664016e+00
  9.910514e+00    2.664899e+00
  9.926390e+00    2.715835e+00
  9.942266e+00    2.756627e+00
  9.958141e+00    2.747907e+00
  9.974017e+00    2.709402e+00
  9.989892e+00    2.603749e+00
  1.000577e+01    2.627731e+00
  1.002164e+01    2.614110e+00
  1.003752e+01    2.592467e+00
  1.005339e+01    2.623162e+00
  1.006927e+01    2.618884e+00
  1.008515e+01    2.612657e+00
  1.010102e+01    2.657399e+00
  1.011690e+01    2.624108e+00
  1.013277e+01    2.671233e+00
  1.014865e+01    2.713623e+00
  1.016452e+01    2.690002e+00
  1.018040e+01    2.677738e+00
  1.019627e+01    2.634787e+00
  1.021215e+01    2.639117e+00
  1.022803e+01    2.661275e+00
  1.024390e+01    2.649372e+00
  1.025978e+01    2.638232e+00
  1.027565e+01    2.655391e+00
  1.029153e+01    2.607840e+00
  1.030740e+01    2.607643e+00
  1.032328e+01    2.641445e+00
  1.033915e+01    2.639061e+00
  1.035503e+01    2.629351e+00
  1.037091e+01    2.642604e+00
  1.038678e+01    2.658482e+00
  1.040266e+01    2.641336e+00
  1.041853e+01    2.588263e+00
  1.043441e+01    2.613577e+00
  1.045028e+01    2.654815e+00
  1.046616e+01    2.643555e+00
  1.048204e+01    2.591197e+00
  1.049791e+01    2.567726e+00
  1.051379e+01    2.545501e+00
  1.052966e+01    2.569684e+00
  1.054554e+01    2.595530e+00
  1.056141e+01    2.591585e+00
  1.057729e+01    2.585434e+00
  1.059316e+01    2.612309e+00
  1.060904e+01    2.611532e+00
  1.062492e+01    2.587550e+00
  1.064079e+01    2.516963e+00
  1.065667e+01    2.579437e+00
  1.067254e+01    2.542411e+00
  1.068842e+01    2.518305e+00
  1.070429e+01    2.546785e+00
  1.072017e+01    2.552275e+00
  1.073604e+01    2.527964e+00
  1.075192e+01    2.537164e+00
  1.076780e+01    2.536914e+00
  1.078367e+01    2.528731e+00
  1.079955e+01    2.518753e+00
  1.081542e+01    2.464134e+00
  1.083130e+01    2.494846e+00
  1.084717e+01    2.572394e+00
  1.086305e+01    2.547089e+00
  1.087892e+01    2.567558e+00
  1.089480e+01    2.545829e+00
  1.091068e+01    2.526304e+00
  1.092655e+01    2.506382e+00
  1.094243e+01    2.561776e+00
  1.095830e+01    2.497190e+00
  1.097418e+01    2.464493e+00
  1.099005e+01    2.500031e+00
  1.100593e+01    2.497601e+00
  1.102180e+01    2.467981e+00
  1.103768e+01    2.481499e+00
  1.105356e+01    2.494652e+00
  1.106943e+01    2.471932e+00
  1.108531e+01    2.518824e+00
  1.110118e+01    2.518006e+00
  1.111706e+01    2.474209e+00
  1.113293e+01    2.463211e+00
  1.114881e+01    2.530644e+00
  1.116468e+01    2.505671e+00
  1.118056e+01    2.500773e+00
  1.119644e+01    2.450221e+00
  1.121231e+01    2.468979e+00
  1.122819e+01    2.486068e+00
  1.124406e+01    2.444426e+00
  1.125994e+01    2.422684e+00
  1.127581e+01    2.411937e+00
  1.129169e+01    2.448084e+00
  1.130756e+01    2.418324e+00
  1.132344e+01    2.359251e+00
  1.133932e+01    2.462550e+00
  1.135519e+01    2.501211e+00
  1.137107e+01    2.469991e+00
  1.138694e+01    2.458719e+00
  1.140282e+01    2.451051e+00
  1.141869e+01    2.456850e+00
  1.143457e+01    2.410552e+00
  1.145045e+01    2.379244e+00
  1.146632e+01    2.366366e+00
  1.148220e+01    2.428531e+00
  1.149807e+01    2.367873e+00
  1.151395e+01    2.378129e+00
  1.152982e+01    2.401765e+00
  1.154570e+01    2.397261e+00
  1.156157e+01    2.372180e+00
  1.157745e+01    2.376003e+00
  1.159333e+01    2.397796e+00
  1.160920e+01    2.409251e+00
  1.162508e+01    2.408689e+00
  1.164095e+01    2.411003e+00
  1.165683e+01    2.390724e+00
  1.167270e+01    2.368446e+00
  1.168858e+01    2.334965e+00
  1.170445e+01    2.339894e+00
  1.172033e+01    2.351041e+00
  1.173621e+01    2.369855e+00
  1.175208e+01    2.402571e+00
  1.176796e+01    2.345101e+00
  1.178383e+01    2.346278e+00
  1.179971e+01    2.306188e+00
  1.181558e+01    2.310306e+00
  1.183146e+01    2.323698e+00
  1.184733e+01    2.352560e+00
  1.186321e+01    2.309884e+00
  1.187909e+01    2.324699e+00
  1.189496e+01    2.316847e+00
  1.191084e+01    2.364945e+00
  1.192671e+01    2.344646e+00
  1.194259e+01    2.332764e+00
  1.195846e+01    2.307066e+00
  1.197434e+01    2.336399e+00
  1.199021e+01    2.359389e+00
  1.200609e+01    2.338585e+00
  1.202197e+01    2.308326e+00
  1.203784e+01    2.363093e+00
  1.205372e+01    2.367391e+00
  1.206959e+01    2.311440e+00
  1.208547e+01    2.282362e+00
  1.210134e+01    2.339298e+00
  1.211722e+01    2.353909e+00
  1.213309e+01    2.375168e+00
  1.214897e+01    2.369093e+00
  1.216485e+01    2.331744e+00
  1.218072e+01    2.284895e+00
  1.219660e+01    2.313727e+00
  1.221247e+01    2.315106e+00
  1.222835e+01    2.319314e+00
  1.224422e+01    2.360793e+00
  1.226010e+01    2.341354e+00
  1.227597e+01    2.315720e+00
  1.229185e+01    2.330164e+00
  1.230773e+01    2.318598e+00
  1.232360e+01    2.331267e+00
  1.233948e+01    2.314617e+00
  1.235535e+01    2.290472e+00
  1.237123e+01    2.331728e+00
  1.238710e+01    2.350372e+00
  1.240298e+01    2.340489e+00
  1.241886e+01    2.362585e+00
  1.243473e+01    2.328316e+00
  1.245061e+01    2.350004e+00
  1.246648e+01    2.385333e+00
  1.248236e+01    2.407808e+00
  1.249823e+01    2.314538e+00
  1.251411e+01    2.324874e+00
  1.252998e+01    2.418350e+00
  1.254586e+01    2.372066e+00
  1.256174e+01    2.347920e+00
  1.257761e+01    2.380943e+00
  1.259349e+01    2.402572e+00
  1.260936e+01    2.379766e+00
  1.262524e+01    2.413279e+00
  1.264111e+01    2.413264e+00
  1.265699e+01    2.411787e+00
  1.267286e+01    2.473066e+00
  1.268874e+01    2.462836e+00
  1.270462e+01    2.484412e+00
  1.272049e+01    2.493252e+00
  1.273637e+01    2.503980e+00
  1.275224e+01    2.564709e+00
  1.276812e+01    2.567244e+00
  1.278399e+01    2.620930e+00
  1.279987e+01    2.625858e+00
  1.281574e+01    2.678430e+00
  1.283162e+01    2.831121e+00
  1.284750e+01    2.878130e+00
  1.286337e+01    2.923544e+00
  1.287925e+01    3.013487e+00
  1.289512e+01    3.178486e+00
  1.291100e+01    3.325376e+00
  1.292687e+01    3.475792e+00
  1.294275e+01    3.681334e+00
  1.295862e+01    3.942297e+00
  1.297450e+01    4.303712e+00
  1.299038e+01    4.737726e+00
  1.300625e+01    5.274788e+00
  1.302213e+01    5.980543e+00
  1.303800e+01    6.880706e+00
  1.305388e+01    8.008912e+00
  1.306975e+01    9.342519e+00
  1.308563e+01    1.082082e+01
  1.310150e+01    1.227599e+01
  1.311738e+01    1.365838e+01
  1.313326e+01    1.503632e+01
  1.314913e+01    1.625875e+01
  1.316501e+01    1.751708e+01
  1.318088e+01    1.843563e+01
  1.319676e+01    1.857045e+01
  1.321263e+01    1.776669e+01
  1.322851e+01    1.613200e+01
  1.324438e+01    1.398513e+01
  1.326026e+01    1.186639e+01
  1.327614e+01    9.965577e+00
  1.329201e+01    8.391784e+00
  1.330789e+01    7.159638e+00
  1.332376e+01    6.194053e+00
  1.333964e+01    5.453955e+00
  1.335551e+01    4.855289e+00
  1.337139e+01    4.381455e+00
  1.338727e+01    4.034255e+00
  1.340314e+01    3.733071e+00
  1.341902e+01    3.472391e+00
  1.343489e+01    3.260075e+00
  1.345077e+01    3.153468e+00
  1.346664e+01    3.040538e+00
  1.348252e+01    2.884270e+00
  1.349839e+01    2.819452e+00
  1.351427e+01    2.723666e+00
  1.353015e+01    2.603243e+00
  1.354602e+01    2.580433e+00
  1.356190e+01    2.535308e+00
  1.357777e+01    2.485948e+00
  1.359365e+01    2.477624e+00
  1.360952e+01    2.400926e+00
  1.362540e+01    2.364239e+00
  1.364127e+01    2.361533e+00
  1.365715e+01    2.354858e+00
  1.367303e+01    2.297246e+00
  1.368890e+01    2.295946e+00
  1.370478e+01    2.250075e+00
  1.372065e+01    2.257950e+00
  1.373653e+01    2.273267e+00
  1.375240e+01    2.238767e+00
  1.376828e+01    2.207762e+00
  1.378415e+01    2.215091e+00
  1.380003e+01    2.167656e+00
  1.381591e+01    2.164271e+00
  1.383178e+01    2.165973e+00
  1.384766e+01    2.131493e+00
  1.386353e+01    2.117724e+00
  1.387941e+01    2.112654e+00
  1.389528e+01    2.089868e+00
  1.391116e+01    2.080846e+00
  1.392703e+01    2.128336e+00
  1.394291e+01    2.093726e+00
  1.395879e+01    2.116274e+00
  1.397466e+01    2.105898e+00
  1.399054e+01    2.063915e+00
  1.400641e+01    2.062317e+00
  1.402229e+01    2.045486e+00
  1.403816e+01    2.060199e+00
  1.405404e+01    2.051462e+00
  1.406991e+01    2.033865e+00
  1.408579e+01    2.016478e+00
  1.410167e+01    2.034930e+00
  1.411754e+01    2.028281e+00
  1.413342e+01    1.996583e+00
  1.414929e+01    1.994289e+00
  1.416517e+01    2.011443e+00
  1.418104e+01    2.031016e+00
  1.419692e+01    2.028625e+00
  1.421279e+01    2.031133e+00
  1.422867e+01    1.985642e+00
  1.424455e+01    1.975372e+00
  1.426042e+01    1.951080e+00
  1.427630e+01    1.951709e+00
  1.429217e+01    1.966004e+00
  1.430805e+01    1.954901e+00
  1.432392e+01    1.933010e+00
  1.433980e+01    1.934169e+00
  1.435568e+01    1.945803e+00
  1.437155e+01    1.956658e+00
  1.438743e+01    1.982213e+00
  1.440330e+01    1.974294e+00
  1.441918e+01    1.934844e+00
  1.443505e+01    1.926764e+00
  1.445093e+01    1.944814e+00
  1.446680e+01    1.920433e+00
  1.448268e+01    1.956651e+00
  1.449856e+01    1.945339e+00
  1.451443e+01    1.894113e+00
  1.453031e+01    1.910684e+00
  1.454618e+01    1.909801e+00
  1.456206e+01    1.913091e+00
  1.457793e+01    1.908780e+00
  1.459381e+01    1.885123e+00
  1.460968e+01    1.918356e+00
  1.462556e+01    1.926137e+00
  1.464144e+01    1.940004e+00
  1.465731e+01    1.935340e+00
  1.467319e+01    1.893252e+00
  1.468906e+01    1.900267e+00
  1.470494e+01    1.902663e+00
  1.472081e+01    1.888933e+00
  1.473669e+01    1.918163e+00
  1.475256e+01    1.910787e+00
  1.476844e+01    1.910098e+00
  1.478432e+01    1.916364e+00
  1.480019e+01    1.913592e+00
  1.481607e+01    1.952099e+00
  1.483194e+01    1.933795e+00
  1.484782e+01    1.941343e+00
  1.486369e+01    1.913040e+00
  1.487957e+01    1.931864e+00
  1.489544e+01    1.950294e+00
  1.491132e+01    1.960402e+00
  1.492720e+01    2.003855e+00
  1.494307e+01    2.012083e+00
  1.495895e+01    2.013983e+00
  1.497482e+01    2.062732e+00
  1.499070e+01    2.155864e+00
  1.500657e+01    2.191348e+00
  1.502245e+01    2.220476e+00
  1.503832e+01    2.277901e+00
  1.505420e+01    2.378510e+00
  1.507008e+01    2.508752e+00
  1.508595e+01    2.634966e+00
  1.510183e+01    2.812975e+00
  1.511770e+01    3.033398e+00
  1.513358e+01    3.326006e+00
  1.514945e+01    3.664671e+00
  1.516533e+01    4.107862e+00
  1.518120e+01    4.513762e+00
  1.519708e+01    4.912808e+00
  1.521296e+01    5.317544e+00
  1.522883e+01    5.644732e+00
  1.524471e+01    5.901684e+00
  1.526058e+01    6.151258e+00
  1.527646e+01    6.215515e+00
  1.529233e+01    6.157176e+00
  1.530821e+01    5.928674e+00
  1.532409e+01    5.529603e+00
  1.533996e+01    5.030628e+00
  1.535584e+01    4.475188e+00
  1.537171e+01    3.877949e+00
  1.538759e+01    3.408061e+00
  1.540346e+01    3.123885e+00
  1.541934e+01    2.852757e+00
  1.543521e+01    2.616031e+00
  1.545109e+01    2.458727e+00
  1.546697e+01    2.359600e+00
  1.548284e+01    2.239997e+00
  1.549872e+01    2.125674e+00
  1.551459e+01    2.054868e+00
  1.553047e+01    2.024797e+00
  1.554634e+01    1.986364e+00
  1.556222e+01    1.963480e+00
  1.557809e+01    1.970378e+00
  1.559397e+01    1.890872e+00
  1.560985e+01    1.843591e+00
  1.562572e+01    1.843562e+00
  1.564160e+01    1.808654e+00
  1.565747e+01    1.814360e+00
  1.567335e+01    1.793072e+00
  1.568922e+01    1.810157e+00
  1.570510e+01    1.755652e+00
  1.572097e+01    1.738062e+00
  1.573685e+01    1.740995e+00
  1.575273e+01    1.714456e+00
  1.576860e+01    1.709505e+00
  1.578448e+01    1.700184e+00
  1.580035e+01    1.677480e+00
  1.581623e+01    1.669556e+00
  1.583210e+01    1.656393e+00
  1.584798e+01    1.684619e+00
  1.586385e+01    1.701609e+00
  1.587973e+01    1.657015e+00
  1.589561e+01    1.629964e+00
  1.591148e+01    1.660899e+00
  1.592736e+01    1.638148e+00
  1.594323e+01    1.681984e+00
  1.595911e+01    1.650804e+00
  1.597498e+01    1.616990e+00
  1.599086e+01    1.629054e+00
  1.600673e+01    1.631739e+00
  1.602261e+01    1.611849e+00
  1.603849e+01    1.589663e+00
  1.605436e+01    1.604664e+00
  1.607024e+01    1.608157e+00
  1.608611e+01    1.576545e+00
  1.610199e+01    1.566728e+00
  1.611786e+01    1.578999e+00
  1.613374e+01    1.588528e+00
  1.614961e+01    1.590860e+00
  1.616549e+01    1.577314e+00
  1.618137e+01    1.595254e+00
  1.619724e+01    1.592187e+00
  1.621312e+01    1.560586e+00
  1.622899e+01    1.535878e+00
  1.624487e+01    1.542597e+00
  1.626074e+01    1.557874e+00
  1.627662e+01    1.567645e+00
  1.629250e+01    1.564362e+00
  1.630837e+01    1.521632e+00
  1.632425e+01    1.538782e+00
  1.634012e+01    1.534206e+00
  1.635600e+01    1.549926e+00
  1.637187e+01    1.519589e+00
  1.638775e+01    1.518326e+00
  1.640362e+01    1.544518e+00
  1.641950e+01    1.548782e+00
  1.643538e+01    1.493940e+00
  1.645125e+01    1.501541e+00
  1.646713e+01    1.527928e+00
  1.648300e+01    1.550430e+00
  1.649888e+01    1.537809e+00
  1.651475e+01    1.537652e+00
  1.653063e+01    1.559602e+00
  1.654650e+01    1.547272e+00
  1.656238e+01    1.544105e+00
  1.657826e+01    1.499361e+00
  1.659413e+01    1.485952e+00
  1.661001e+01    1.487065e+00
  1.662588e+01    1.466629e+00
  1.664176e+01    1.488179e+00
  1.665763e+01    1.509374e+00
  1.667351e+01    1.496616e+00
  1.668938e+01    1.497188e+00
  1.670526e+01    1.450323e+00
  1.672114e+01    1.438556e+00
  1.673701e+01    1.483336e+00
  1.675289e+01    1.502679e+00
  1.676876e+01    1.466255e+00
  1.678464e+01    1.462653e+00
  1.680051e+01    1.489647e+00
  1.681639e+01    1.491201e+00
  1.683226e+01    1.469940e+00
  1.684814e+01    1.468105e+00
  1.686402e+01    1.473209e+00
  1.687989e+01    1.459609e+00
  1.689577e+01    1.473860e+00
  1.691164e+01    1.460016e+00
  1.692752e+01    1.430350e+00
  1.694339e+01    1.450865e+00
  1.695927e+01    1.447654e+00
  1.697514e+01    1.439695e+00
  1.699102e+01    1.460486e+00
  1.700690e+01    1.461227e+00
  1.702277e+01    1.472546e+00
  1.703865e+01    1.444566e+00
  1.705452e+01    1.443363e+00
  1.707040e+01    1.441005e+00
  1.708627e+01    1.427580e+00
  1.710215e+01    1.403365e+00
  1.711802e+01    1.419239e+00
  1.713390e+01    1.418991e+00
  1.714978e+01    1.403405e+00
  1.716565e+01    1.399874e+00
  1.718153e+01    1.434816e+00
  1.719740e+01    1.395187e+00
  1.721328e+01    1.396526e+00
  1.722915e+01    1.405087e+00
  1.724503e+01    1.427649e+00
  1.726091e+01    1.429959e+00
  1.727678e+01    1.420318e+00
  1.729266e+01    1.412075e+00
  1.730853e+01    1.388201e+00
  1.732441e+01    1.395694e+00
  1.734028e+01    1.417930e+00
  1.735616e+01    1.414983e+00
  1.737203e+01    1.413291e+00
  1.738791e+01    1.403937e+00
  1.740379e+01    1.381785e+00
  1.741966e+01    1.381298e+00
  1.743554e+01    1.389890e+00
  1.745141e+01    1.398482e+00
  1.746729e+01    1.375994e+00
  1.748316e+01    1.374959e+00
  1.749904e+01    1.378444e+00
  1.751491e+01    1.395410e+00
  1.753079e+01    1.378311e+00
  1.754667e+01    1.377659e+00
  1.756254e+01    1.381284e+00
  1.757842e+01    1.368954e+00
  1.759429e+01    1.353903e+00
  1.761017e+01    1.336304e+00
  1.762604e+01    1.339726e+00
  1.764192e+01    1.350290e+00
  1.765779e+01    1.356048e+00
  1.767367e+01    1.373282e+00
  1.768955e+01    1.343193e+00
  1.770542e+01    1.360424e+00
  1.772130e+01    1.345387e+00
  1.773717e+01    1.331184e+00
  1.775305e+01    1.318357e+00
  1.776892e+01    1.320280e+00
  1.778480e+01    1.313032e+00
  1.780067e+01    1.311912e+00
  1.781655e+01    1.324714e+00
  1.783243e+01    1.310576e+00
  1.784830e+01    1.313735e+00
  1.786418e+01    1.336873e+00
  1.788005e+01    1.320662e+00
  1.789593e+01    1.316841e+00
  1.791180e+01    1.353125e+00
  1.792768e+01    1.318219e+00
  1.794355e+01    1.321462e+00
  1.795943e+01    1.297865e+00
  1.797531e+01    1.314283e+00
  1.799118e+01    1.320102e+00
  1.800706e+01    1.300058e+00
  1.802293e+01    1.313045e+00
  1.803881e+01    1.296379e+00
  1.805468e+01    1.292248e+00
  1.807056e+01    1.283264e+00
  1.808643e+01    1.291003e+00
  1.810231e+01    1.292835e+00
  1.811819e+01    1.307629e+00
  1.813406e+01    1.303551e+00
  1.814994e+01    1.282030e+00
  1.816581e+01    1.301049e+00
  1.818169e+01    1.290387e+00
  1.819756e+01    1.265382e+00
  1.821344e+01    1.269339e+00
  1.822932e+01    1.266493e+00
  1.824519e+01    1.264046e+00
  1.826107e+01    1.274466e+00
  1.827694e+01    1.279265e+00
  1.829282e+01    1.265858e+00
  1.830869e+01    1.281631e+00
  1.832457e+01    1.265408e+00
  1.834044e+01    1.249511e+00
  1.835632e+01    1.262047e+00
  1.837220e+01    1.245714e+00
  1.838807e+01    1.261976e+00
  1.840395e+01    1.282059e+00
  1.841982e+01    1.275351e+00
  1.843570e+01    1.284102e+00
  1.845157e+01    1.274967e+00
  1.846745e+01    1.278644e+00
  1.848332e+01    1.265147e+00
  1.849920e+01    1.237594e+00
  1.851508e+01    1.225541e+00
  1.853095e+01    1.246241e+00
  1.854683e+01    1.262956e+00
  1.856270e+01    1.271561e+00
  1.857858e+01    1.240030e+00
  1.859445e+01    1.245687e+00
  1.861033e+01    1.254866e+00
  1.862620e+01    1.253013e+00
  1.864208e+01    1.251096e+00
  1.865796e+01    1.254339e+00
  1.867383e+01    1.236568e+00
  1.868971e+01    1.232175e+00
  1.870558e+01    1.254428e+00
  1.872146e+01    1.229308e+00
  1.873733e+01    1.219178e+00
  1.875321e+01    1.222837e+00
  1.876908e+01    1.238251e+00
  1.878496e+01    1.240067e+00
  1.880084e+01    1.236434e+00
  1.881671e+01    1.228716e+00
  1.883259e+01    1.210777e+00
  1.884846e+01    1.221717e+00
  1.886434e+01    1.210251e+00
  1.888021e+01    1.197558e+00
  1.889609e+01    1.180321e+00
  1.891196e+01    1.199737e+00
  1.892784e+01    1.199729e+00
  1.894372e+01    1.209652e+00
  1.895959e+01    1.226163e+00
  1.897547e+01    1.212583e+00
  1.899134e+01    1.183685e+00
  1.900722e+01    1.203420e+00
  1.902309e+01    1.197531e+00
  1.903897e+01    1.195051e+00
  1.905484e+01    1.188824e+00
  1.907072e+01    1.191608e+00
  1.908660e+01    1.211995e+00
  1.910247e+01    1.194357e+00
  1.911835e+01    1.184388e+00
  1.913422e+01    1.188688e+00
  1.915010e+01    1.204342e+00
  1.916597e+01    1.212234e+00
  1.918185e+01    1.180912e+00
  1.919773e+01    1.174176e+00
  1.921360e+01    1.194234e+00
  1.922948e+01    1.201735e+00
  1.924535e+01    1.186145e+00
  1.926123e+01    1.189712e+00
  1.927710e+01    1.174828e+00
  1.929298e+01    1.193559e+00
  1.930885e+01    1.199652e+00
  1.932473e+01    1.191358e+00
  1.934061e+01    1.162134e+00
  1.935648e+01    1.171080e+00
  1.937236e+01    1.194538e+00
  1.938823e+01    1.182383e+00
  1.940411e+01    1.150588e+00
  1.941998e+01    1.171257e+00
  1.943586e+01    1.184625e+00
  1.945173e+01    1.189159e+00
  1.946761e+01    1.214148e+00
  1.948349e+01    1.198169e+00
  1.949936e+01    1.147478e+00
  1.951524e+01    1.174538e+00
  1.953111e+01    1.171423e+00
  1.954699e+01    1.164439e+00
  1.956286e+01    1.160774e+00
  1.957874e+01    1.182580e+00
  1.959461e+01    1.176274e+00
  1.961049e+01    1.153787e+00
  1.962637e+01    1.146404e+00
  1.964224e+01    1.152504e+00
  1.965812e+01    1.174698e+00
  1.967399e+01    1.136878e+00
  1.968987e+01    1.126886e+00
  1.970574e+01    1.134130e+00
  1.972162e+01    1.152196e+00
  1.973749e+01    1.146448e+00
  1.975337e+01    1.138696e+00
  1.976925e+01    1.152448e+00
  1.978512e+01    1.140403e+00
  1.980100e+01    1.121987e+00
  1.981687e+01    1.118914e+00
  1.983275e+01    1.144488e+00
  1.984862e+01    1.147512e+00
  1.986450e+01    1.146017e+00
  1.988037e+01    1.137028e+00
  1.989625e+01    1.135753e+00
  1.991213e+01    1.156281e+00
  1.992800e+01    1.122970e+00
  1.994388e+01    1.118343e+00
  1.995975e+01    1.125415e+00
  1.997563e+01    1.133172e+00
  1.999150e+01    1.126164e+00
  2.000738e+01    1.111737e+00
  2.002325e+01    1.125388e+00
  2.003913e+01    1.098104e+00
  2.005501e+01    1.084859e+00
  2.007088e+01    1.116501e+00
  2.008676e+01    1.138453e+00
  2.010263e+01    1.138560e+00
  2.011851e+01    1.114154e+00
  2.013438e+01    1.103609e+00
  2.015026e+01    1.114831e+00
  2.016614e+01    1.131011e+00
  2.018201e+01    1.095242e+00
  2.019789e+01    1.096019e+00
  2.021376e+01    1.086000e+00
  2.022964e+01    1.078742e+00
  2.024551e+01    1.082609e+00
  2.026139e+01    1.083398e+00
  2.027726e+01    1.126253e+00
  2.029314e+01    1.128476e+00
  2.030902e+01    1.093525e+00
  2.032489e+01    1.073609e+00
  2.034077e+01    1.104464e+00
  2.035664e+01    1.122703e+00
  2.037252e+01    1.132957e+00
  2.038839e+01    1.107376e+00
  2.040427e+01    1.088428e+00
  2.042014e+01    1.108812e+00
  2.043602e+01    1.092937e+00
  2.045190e+01    1.084098e+00
  2.046777e+01    1.093921e+00
  2.048365e+01    1.126179e+00
  2.049952e+01    1.108256e+00
  2.051540e+01    1.107116e+00
  2.053127e+01    1.081472e+00
  2.054715e+01    1.081046e+00
  2.056302e+01    1.093266e+00
  2.057890e+01    1.077230e+00
  2.059478e+01    1.080649e+00
  2.061065e+01    1.088277e+00
  2.062653e+01    1.084596e+00
  2.064240e+01    1.085380e+00
  2.065828e+01    1.065451e+00
  2.067415e+01    1.068008e+00
  2.069003e+01    1.086218e+00
  2.070590e+01    1.097646e+00
  2.072178e+01    1.095758e+00
  2.073766e+01    1.081126e+00
  2.075353e+01    1.077072e+00
  2.076941e+01    1.086302e+00
  2.078528e+01    1.108045e+00
  2.080116e+01    1.111423e+00
  2.081703e+01    1.113345e+00
  2.083291e+01    1.111111e+00
  2.084878e+01    1.130643e+00
  2.086466e+01    1.103289e+00
  2.088054e+01    1.107746e+00
  2.089641e+01    1.099226e+00
  2.091229e+01    1.071567e+00
  2.092816e+01    1.054581e+00
  2.094404e+01    1.070235e+00
  2.095991e+01    1.082708e+00
  2.097579e+01    1.063611e+00
  2.099166e+01    1.056994e+00
  2.100754e+01    1.091227e+00
  2.102342e+01    1.103522e+00
  2.103929e+01    1.103702e+00
  2.105517e+01    1.099894e+00
  2.107104e+01    1.080382e+00
  2.108692e+01    1.090115e+00
  2.110279e+01    1.094744e+00
  2.111867e+01    1.102923e+00
  2.113455e+01    1.096125e+00
  2.115042e+01    1.100093e+00
  2.116630e+01    1.109230e+00
  2.118217e+01    1.116811e+00
  2.119805e+01    1.096165e+00
  2.121392e+01    1.101445e+00
  2.122980e+01    1.096874e+00
  2.124567e+01    1.091756e+00
  2.126155e+01    1.115062e+00
  2.127743e+01    1.124913e+00
  2.129330e+01    1.144539e+00
  2.130918e+01    1.136433e+00
  2.132505e+01    1.142439e+00
  2.134093e+01    1.129953e+00
  2.135680e+01    1.140290e+00
  2.137268e+01    1.153533e+00
  2.138855e+01    1.174684e+00
  2.140443e+01    1.174825e+00
  2.142031e+01    1.164426e+00
  2.143618e+01    1.178784e+00
  2.145206e+01    1.184420e+00
  2.146793e+01    1.248356e+00
  2.148381e+01    1.284145e+00
  2.149968e+01    1.287528e+00
  2.151556e+01    1.295362e+00
  2.153143e+01    1.352963e+00
  2.154731e+01    1.360343e+00
  2.156319e+01    1.397572e+00
  2.157906e+01    1.442616e+00
  2.159494e+01    1.493067e+00
  2.161081e+01    1.568887e+00
  2.162669e+01    1.625509e+00
  2.164256e+01    1.754921e+00
  2.165844e+01    1.883375e+00
  2.167431e+01    2.022052e+00
  2.169019e+01    2.212627e+00
  2.170607e+01    2.442273e+00
  2.172194e+01    2.731841e+00
  2.173782e+01    3.028660e+00
  2.175369e+01    3.414145e+00
  2.176957e+01    3.949609e+00
  2.178544e+01    4.543906e+00
  2.180132e+01    5.208411e+00
  2.181719e+01    5.930322e+00
  2.183307e+01    6.719588e+00
  2.184895e+01    7.616182e+00
  2.186482e+01    8.429321e+00
  2.188070e+01    9.199097e+00
  2.189657e+01    9.807923e+00
  2.191245e+01    1.019451e+01
  2.192832e+01    1.023855e+01
  2.194420e+01    9.817989e+00
  2.196007e+01    8.953046e+00
  2.197595e+01    7.862746e+00
  2.199183e+01    6.689517e+00
  2.200770e+01    5.693044e+00
  2.202358e+01    4.824274e+00
  2.203945e+01    4.095103e+00
  2.205533e+01    3.535823e+00
  2.207120e+01    3.130123e+00
  2.208708e+01    2.765218e+00
  2.210296e+01    2.478516e+00
  2.211883e+01    2.235552e+00
  2.213471e+01    2.066418e+00
  2.215058e+01    1.901911e+00
  2.216646e+01    1.771465e+00
  2.218233e+01    1.650285e+00
  2.219821e+01    1.572393e+00
  2.221408e+01    1.513000e+00
  2.222996e+01    1.422816e+00
  2.224584e+01    1.352954e+00
  2.226171e+01    1.345310e+00
  2.227759e+01    1.327615e+00
  2.229346e+01    1.282598e+00
  2.230934e+01    1.229733e+00
  2.232521e+01    1.202467e+00
  2.234109e+01    1.188530e+00
  2.235696e+01    1.172733e+00
  2.237284e+01    1.176166e+00
  2.238872e+01    1.149450e+00
  2.240459e+01    1.121805e+00
  2.242047e+01    1.106566e+00
  2.243634e+01    1.070692e+00
  2.245222e+01    1.072083e+00
  2.246809e+01    1.051612e+00
  2.248397e+01    1.060059e+00
  2.249984e+01    1.047049e+00
  2.251572e+01    1.030163e+00
  2.253160e+01    1.027773e+00
  2.254747e+01    1.021572e+00
  2.256335e+01    1.009498e+00
  2.257922e+01    9.908851e-01
  2.259510e+01    1.017639e+00
  2.261097e+01    9.992893e-01
  2.262685e+01    9.821491e-01
  2.264272e+01    9.899831e-01
  2.265860e+01    9.690479e-01
  2.267448e+01    9.604092e-01
  2.269035e+01    9.947289e-01
  2.270623e+01    9.972692e-01
  2.272210e+01    9.671227e-01
  2.273798e+01    9.560989e-01
  2.275385e+01    9.650891e-01
  2.276973e+01    9.585975e-01
  2.278560e+01    9.412093e-01
  2.280148e+01    9.384988e-01
  2.281736e+01    9.425810e-01
  2.283323e+01    9.405393e-01
  2.284911e+01    9.177259e-01
  2.286498e+01    9.135834e-01
  2.288086e+01    9.357922e-01
  2.289673e+01    9.411653e-01
  2.291261e+01    9.184132e-01
  2.292848e+01    9.286655e-01
  2.294436e+01    9.114261e-01
  2.296024e+01    9.039806e-01
  2.297611e+01    9.102809e-01
  2.299199e+01    9.138246e-01
  2.300786e+01    9.099990e-01
  2.302374e+01    9.176626e-01
  2.303961e+01    9.093056e-01
  2.305549e+01    9.160293e-01
  2.307137e+01    8.968323e-01
  2.308724e+01    9.063193e-01
  2.310312e+01    8.923017e-01
  2.311899e+01    8.972135e-01
  2.313487e+01    8.910665e-01
  2.315074e+01    8.892367e-01
  2.316662e+01    8.941961e-01
  2.318249e+01    8.801991e-01
  2.319837e+01    8.857166e-01
  2.321425e+01    8.736024e-01
  2.323012e+01    8.774676e-01
  2.324600e+01    8.795414e-01
  2.326187e+01    8.807834e-01
  2.327775e+01    8.918014e-01
  2.329362e+01    8.894360e-01
  2.330950e+01    8.813649e-01
  2.332537e+01    8.590387e-01
  2.334125e+01    8.467031e-01
  2.335713e+01    8.376708e-01
  2.337300e+01    8.618639e-01
  2.338888e+01    8.516991e-01
  2.340475e+01    8.571127e-01
  2.342063e+01    8.626761e-01
  2.343650e+01    8.511597e-01
  2.345238e+01    8.621348e-01
  2.346825e+01    8.507469e-01
  2.348413e+01    8.621560e-01
  2.350001e+01    8.599686e-01
  2.351588e+01    8.440735e-01
  2.353176e+01    8.403516e-01
  2.354763e+01    8.461839e-01
  2.356351e+01    8.347805e-01
  2.357938e+01    8.276488e-01
  2.359526e+01    8.373076e-01
  2.361113e+01    8.453723e-01
  2.362701e+01    8.596885e-01
  2.364289e+01    8.323488e-01
  2.365876e+01    8.329302e-01
  2.367464e+01    8.362230e-01
  2.369051e+01    8.225479e-01
  2.370639e+01    8.392721e-01
  2.372226e+01    8.379921e-01
  2.373814e+01    8.281469e-01
  2.375401e+01    8.237565e-01
  2.376989e+01    8.198761e-01
  2.378577e+01    8.029216e-01
  2.380164e+01    8.195611e-01
  2.381752e+01    8.334865e-01
  2.383339e+01    8.283590e-01
  2.384927e+01    8.235905e-01
  2.386514e+01    8.162549e-01
  2.388102e+01    8.403851e-01
  2.389689e+01    7.998186e-01
  2.391277e+01    7.893898e-01
  2.392865e+01    8.089911e-01
  2.394452e+01    8.170558e-01
  2.396040e+01    8.073255e-01
  2.397627e+01    8.102421e-01
  2.399215e+01    8.060325e-01
  2.400802e+01    7.961602e-01
  2.402390e+01    8.036527e-01
  2.403978e+01    7.893554e-01
  2.405565e+01    7.807530e-01
  2.407153e+01    7.824603e-01
  2.408740e+01    7.941421e-01
  2.410328e+01    7.700805e-01
  2.411915e+01    7.727904e-01
  2.413503e+01    7.870378e-01
  2.415090e+01    7.715029e-01
  2.416678e+01    7.738935e-01
  2.418266e+01    7.796643e-01
  2.419853e+01    7.770878e-01
  2.421441e+01    7.778142e-01
  2.423028e+01    8.046799e-01
  2.424616e+01    7.966866e-01
  2.426203e+01    8.060708e-01
  2.427791e+01    7.896708e-01
  2.429378e+01    7.764411e-01
  2.430966e+01    7.890650e-01
  2.432554e+01    7.894012e-01
  2.434141e+01    7.967541e-01
  2.435729e+01    7.856124e-01
  2.437316e+01    7.866919e-01
  2.438904e+01    8.040612e-01
  2.440491e+01    8.050922e-01
  2.442079e+01    7.995273e-01
  2.443666e+01    7.805936e-01
  2.445254e+01    7.767243e-01
  2.446842e+01    7.930555e-01
  2.448429e+01    8.009971e-01
  2.450017e+01    7.963467e-01
  2.451604e+01    7.870450e-01
  2.453192e+01    8.014791e-01
  2.454779e+01    7.853242e-01
  2.456367e+01    7.841777e-01
  2.457954e+01    8.025328e-01
  2.459542e+01    8.002650e-01
  2.461130e+01    7.783503e-01
  2.462717e+01    7.909672e-01
  2.464305e+01    7.966335e-01
  2.465892e+01    8.023742e-01
  2.467480e+01    7.996771e-01
  2.469067e+01    7.867687e-01
  2.470655e+01    7.825071e-01
  2.472242e+01    8.034902e-01
  2.473830e+01    8.132771e-01
  2.475418e+01    7.908044e-01
  2.477005e+01    7.803369e-01
  2.478593e+01    7.905351e-01
  2.480180e+01    8.052381e-01
  2.481768e+01    7.967072e-01
  2.483355e+01    7.866931e-01
  2.484943e+01    8.091095e-01
  2.486530e+01    7.935145e-01
  2.488118e+01    7.954801e-01
  2.489706e+01    7.892029e-01
  2.491293e+01    8.116210e-01
  2.492881e+01    8.138198e-01
  2.494468e+01    7.967042e-01
  2.496056e+01    8.116083e-01
  2.497643e+01    8.073592e-01
  2.499231e+01    7.953674e-01
  2.500819e+01    8.104278e-01
  2.502406e+01    8.246580e-01
  2.503994e+01    8.240905e-01
  2.505581e+01    8.119676e-01
  2.507169e+01    8.078102e-01
  2.508756e+01    8.315663e-01
  2.510344e+01    8.329240e-01
  2.511931e+01    8.338822e-01
  2.513519e+01    8.227319e-01
  2.515107e+01    8.364620e-01
  2.516694e+01    8.287140e-01
  2.518282e+01    8.212026e-01
  2.519869e+01    8.533583e-01
  2.521457e+01    8.490169e-01
  2.523044e+01    8.717238e-01
  2.524632e+01    8.643494e-01
  2.526219e+01    8.673677e-01
  2.527807e+01    8.677019e-01
  2.529395e+01    8.699638e-01
  2.530982e+01    8.811113e-01
  2.532570e+01    8.724385e-01
  2.534157e+01    8.878791e-01
  2.535745e+01    8.963800e-01
  2.537332e+01    9.022116e-01
  2.538920e+01    8.903095e-01
  2.540507e+01    8.860556e-01
  2.542095e+01    9.090621e-01
  2.543683e+01    9.136052e-01
  2.545270e+01    9.171702e-01
  2.546858e+01    9.279966e-01
  2.548445e+01    9.555382e-01
  2.550033e+01    9.580759e-01
  2.551620e+01    9.845375e-01
  2.553208e+01    1.020991e+00
  2.554795e+01    1.026025e+00
  2.556383e+01    1.037751e+00
  2.557971e+01    1.058636e+00
  2.559558e+01    1.105210e+00
  2.561146e+01    1.101786e+00
  2.562733e+01    1.164559e+00
  2.564321e+01    1.179550e+00
  2.565908e+01    1.228456e+00
  2.567496e+01    1.285286e+00
  2.569083e+01    1.359326e+00
  2.570671e+01    1.436948e+00
  2.572259e+01    1.531951e+00
  2.573846e+01    1.654123e+00
  2.575434e+01    1.799464e+00
  2.577021e+01    1.949194e+00
  2.578609e+01    2.133169e+00
  2.580196e+01    2.366108e+00
  2.581784e+01    2.663945e+00
  2.583371e+01    3.070073e+00
  2.584959e+01    3.533622e+00
  2.586547e+01    4.009226e+00
  2.588134e+01    4.629258e+00
  2.589722e+01    5.287068e+00
  2.591309e+01    6.000513e+00
  2.592897e+01    6.708602e+00
  2.594484e+01    7.500598e+00
  2.596072e+01    8.073447e+00
  2.597660e+01    8.439270e+00
  2.599247e+01    8.543065e+00
  2.600835e+01    8.286142e+00
  2.602422e+01    7.729991e+00
  2.604010e+01    6.939467e+00
  2.605597e+01    6.055050e+00
  2.607185e+01    5.143220e+00
  2.608772e+01    4.359260e+00
  2.610360e+01    3.775034e+00
  2.611948e+01    3.228511e+00
  2.613535e+01    2.825866e+00
  2.615123e+01    2.520856e+00
  2.616710e+01    2.245245e+00
  2.618298e+01    2.045292e+00
  2.619885e+01    1.860972e+00
  2.621473e+01    1.710354e+00
  2.623060e+01    1.588660e+00
  2.624648e+01    1.505692e+00
  2.626236e+01    1.425524e+00
  2.627823e+01    1.350260e+00
  2.629411e+01    1.281505e+00
  2.630998e+01    1.219406e+00
  2.632586e+01    1.185994e+00
  2.634173e+01    1.154327e+00
  2.635761e+01    1.103686e+00
  2.637348e+01    1.100729e+00
  2.638936e+01    1.049944e+00
  2.640524e+01    1.047468e+00
  2.642111e+01    1.027834e+00
  2.643699e+01    1.018909e+00
  2.645286e+01    1.005986e+00
  2.646874e+01    9.905303e-01
  2.648461e+01    9.723683e-01
  2.650049e+01    9.522945e-01
  2.651636e+01    9.487892e-01
  2.653224e+01    9.390541e-01
  2.654812e+01    9.257113e-01
  2.656399e+01    9.307041e-01
  2.657987e+01    9.243050e-01
  2.659574e+01    9.291820e-01
  2.661162e+01    9.118922e-01
  2.662749e+01    9.265658e-01
  2.664337e+01    9.246182e-01
  2.665924e+01    9.327897e-01
  2.667512e+01    9.176629e-01
  2.669100e+01    9.045898e-01
  2.670687e+01    9.240457e-01
  2.672275e+01    9.230943e-01
  2.673862e+01    9.066966e-01
  2.675450e+01    9.093210e-01
  2.677037e+01    9.182273e-01
  2.678625e+01    9.239057e-01
  2.680212e+01    8.949343e-01
  2.681800e+01    9.028612e-01
  2.683388e+01    9.140279e-01
  2.684975e+01    8.923135e-01
  2.686563e+01    9.084095e-01
  2.688150e+01    9.316715e-01
  2.689738e+01    9.364359e-01
  2.691325e+01    9.379479e-01
  2.692913e+01    9.519814e-01
  2.694501e+01    9.564577e-01
  2.696088e+01    9.574969e-01
  2.697676e+01    9.779946e-01
  2.699263e+01    9.970416e-01
  2.700851e+01    1.006721e+00
  2.702438e+01    1.037063e+00
  2.704026e+01    1.092443e+00
  2.705613e+01    1.113112e+00
  2.707201e+01    1.168254e+00
  2.708789e+01    1.234603e+00
  2.710376e+01    1.350545e+00
  2.711964e+01    1.454361e+00
  2.713551e+01    1.583986e+00
  2.715139e+01    1.671598e+00
  2.716726e+01    1.834924e+00
  2.718314e+01    2.015623e+00
  2.719901e+01    2.139484e+00
  2.721489e+01    2.269721e+00
  2.723077e+01    2.385936e+00
  2.724664e+01    2.434602e+00
  2.726252e+01    2.433912e+00
  2.727839e+01    2.346396e+00
  2.729427e+01    2.178035e+00
  2.731014e+01    2.006913e+00
  2.732602e+01    1.852339e+00
  2.734189e+01    1.699338e+00
  2.735777e+01    1.535588e+00
  2.737365e+01    1.424237e+00
  2.738952e+01    1.320514e+00
  2.740540e+01    1.212485e+00
  2.742127e+01    1.167260e+00
  2.743715e+01    1.118043e+00
  2.745302e+01    1.061941e+00
  2.746890e+01    1.020627e+00
  2.748477e+01    9.825134e-01
  2.750065e+01    9.604972e-01
  2.751653e+01    9.621339e-01
  2.753240e+01    9.514201e-01
  2.754828e+01    9.359614e-01
  2.756415e+01    9.038289e-01
  2.758003e+01    8.953993e-01
  2.759590e+01    8.810422e-01
  2.761178e+01    8.956098e-01
  2.762765e+01    8.806752e-01
  2.764353e+01    8.715075e-01
  2.765941e+01    8.758598e-01
  2.767528e+01    8.528917e-01
  2.769116e+01    8.224419e-01
  2.770703e+01    8.439109e-01
  2.772291e+01    8.464723e-01
  2.773878e+01    8.422728e-01
  2.775466e+01    8.193179e-01
  2.777054e+01    8.287940e-01
  2.778641e+01    8.357089e-01
  2.780229e+01    8.323072e-01
  2.781816e+01    8.308309e-01
  2.783404e+01    8.174909e-01
  2.784991e+01    8.104724e-01
  2.786579e+01    8.077587e-01
  2.788166e+01    8.023098e-01
  2.789754e+01    7.972640e-01
  2.791342e+01    8.048704e-01
  2.792929e+01    8.225574e-01
  2.794517e+01    8.051109e-01
  2.796104e+01    8.091069e-01
  2.797692e+01    8.067015e-01
  2.799279e+01    8.257273e-01
  2.800867e+01    7.995102e-01
  2.802454e+01    8.075691e-01
  2.804042e+01    7.970388e-01
  2.805630e+01    7.797937e-01
  2.807217e+01    7.957193e-01
  2.808805e+01    7.913724e-01
  2.810392e+01    7.723665e-01
  2.811980e+01    7.958618e-01
  2.813567e+01    7.938957e-01
  2.815155e+01    7.773344e-01
  2.816742e+01    7.688572e-01
  2.818330e+01    8.042994e-01
  2.819918e+01    8.070164e-01
  2.821505e+01    7.939793e-01
  2.823093e+01    7.881855e-01
  2.824680e+01    7.621279e-01
  2.826268e+01    7.635251e-01
  2.827855e+01    7.748194e-01
  2.829443e+01    7.934493e-01
  2.831030e+01    8.061690e-01
  2.832618e+01    7.870784e-01
  2.834206e+01    7.769386e-01
  2.835793e+01    7.809811e-01
  2.837381e+01    7.666137e-01
  2.838968e+01    7.725924e-01
  2.840556e+01    7.633700e-01
  2.842143e+01    7.621189e-01
  2.843731e+01    7.649503e-01
  2.845318e+01    7.666516e-01
  2.846906e+01    7.721990e-01
  2.848494e+01    7.669916e-01
  2.850081e+01    7.564002e-01
  2.851669e+01    7.534907e-01
  2.853256e+01    7.682832e-01
  2.854844e+01    7.513252e-01
  2.856431e+01    7.385781e-01
  2.858019e+01    7.473506e-01
  2.859606e+01    7.538260e-01
  2.861194e+01    7.509806e-01
  2.862782e+01    7.758602e-01
  2.864369e+01    7.684620e-01
  2.865957e+01    7.696790e-01
  2.867544e+01    7.630982e-01
  2.869132e+01    7.708234e-01
  2.870719e+01    7.776940e-01
  2.872307e+01    7.588959e-01
  2.873895e+01    7.434102e-01
  2.875482e+01    7.677324e-01
  2.877070e+01    7.570910e-01
  2.878657e+01    7.598957e-01
  2.880245e+01    7.302490e-01
  2.881832e+01    7.374899e-01
  2.883420e+01    7.486520e-01
  2.885007e+01    7.484819e-01
  2.886595e+01    7.557411e-01
  2.888183e+01    7.672800e-01
  2.889770e+01    7.502140e-01
  2.891358e+01    7.583364e-01
  2.892945e+01    7.313511e-01
  2.894533e+01    7.321339e-01
  2.896120e+01    7.395281e-01
  2.897708e+01    7.483222e-01
  2.899295e+01    7.492291e-01
  2.900883e+01    7.374187e-01
  2.902471e+01    7.439915e-01
  2.904058e+01    7.541306e-01
  2.905646e+01    7.557675e-01
  2.907233e+01    7.632459e-01
  2.908821e+01    7.479339e-01
  2.910408e+01    7.486694e-01
  2.911996e+01    7.490397e-01
  2.913583e+01    7.605442e-01
  2.915171e+01    7.566473e-01
  2.916759e+01    7.537144e-01
  2.918346e+01    7.367801e-01
  2.919934e+01    7.226576e-01
  2.921521e+01    7.299708e-01
  2.923109e+01    7.325233e-01
  2.924696e+01    7.269093e-01
  2.926284e+01    7.676111e-01
  2.927871e+01    7.616245e-01
  2.929459e+01    7.491241e-01
  2.931047e+01    7.395567e-01
  2.932634e+01    7.213853e-01
  2.934222e+01    7.461821e-01
  2.935809e+01    7.414517e-01
  2.937397e+01    7.392743e-01
  2.938984e+01    7.344665e-01
  2.940572e+01    7.308006e-01
  2.942159e+01    7.413545e-01
  2.943747e+01    7.326830e-01
  2.945335e+01    7.339132e-01
  2.946922e+01    7.149571e-01
  2.948510e+01    7.164272e-01
  2.950097e+01    7.282636e-01
  2.951685e+01    7.382675e-01
  2.953272e+01    7.238717e-01
  2.954860e+01    7.099826e-01
  2.956447e+01    7.330036e-01
  2.958035e+01    7.233921e-01
  2.959623e+01    7.187939e-01
  2.961210e+01    7.128873e-01
  2.962798e+01    7.124557e-01
  2.964385e+01    7.095143e-01
  2.965973e+01    7.269270e-01
  2.967560e+01    7.197313e-01
  2.969148e+01    7.128762e-01
  2.970736e+01    7.354345e-01
  2.972323e+01    7.139822e-01
  2.973911e+01    7.088462e-01
  2.975498e+01    7.373166e-01
  2.977086e+01    7.313330e-01
  2.978673e+01    7.385883e-01
  2.980261e+01    7.327375e-01
  2.981848e+01    7.234491e-01
  2.983436e+01    7.435213e-01
  2.985024e+01    7.465021e-01
  2.986611e+01    7.270799e-01
  2.988199e+01    7.364675e-01
  2.989786e+01    7.256373e-01
  2.991374e+01    7.086344e-01
  2.992961e+01    7.130787e-01
  2.994549e+01    7.318482e-01
  2.996136e+01    7.193113e-01
  2.997724e+01    7.166484e-01
  2.999312e+01    7.263644e-01
  3.000899e+01    7.391717e-01
  3.002487e+01    7.392588e-01
  3.004074e+01    7.465764e-01
  3.005662e+01    7.632657e-01
  3.007249e+01    7.418524e-01
  3.008837e+01    7.573021e-01
  3.010424e+01    7.420842e-01
  3.012012e+01    7.429294e-01
  3.013600e+01    7.338238e-01
  3.015187e+01    7.168235e-01
  3.016775e+01    7.190152e-01
  3.018362e+01    7.241431e-01
  3.019950e+01    7.182527e-01
  3.021537e+01    6.985403e-01
  3.023125e+01    7.060438e-01
  3.024712e+01    7.105615e-01
  3.026300e+01    7.109519e-01
  3.027888e+01    7.004166e-01
  3.029475e+01    7.190335e-01
  3.031063e+01    6.909963e-01
  3.032650e+01    7.069156e-01
  3.034238e+01    7.052265e-01
  3.035825e+01    7.157204e-01
  3.037413e+01    7.214635e-01
  3.039000e+01    7.173577e-01
  3.040588e+01    7.127650e-01
  3.042176e+01    7.038266e-01
  3.043763e+01    7.077641e-01
  3.045351e+01    6.933414e-01
  3.046938e+01    7.082662e-01
  3.048526e+01    7.324412e-01
  3.050113e+01    7.194716e-01
  3.051701e+01    6.985935e-01
  3.053288e+01    7.278868e-01
  3.054876e+01    7.314021e-01
  3.056464e+01    7.077581e-01
  3.058051e+01    6.980090e-01
  3.059639e+01    7.031084e-01
  3.061226e+01    7.072266e-01
  3.062814e+01    7.178035e-01
  3.064401e+01    7.158336e-01
  3.065989e+01    7.156316e-01
  3.067577e+01    7.133150e-01
  3.069164e+01    7.157873e-01
  3.070752e+01    7.009440e-01
  3.072339e+01    7.040617e-01
  3.073927e+01    7.165090e-01
  3.075514e+01    7.057576e-01
  3.077102e+01    7.094955e-01
  3.078689e+01    7.104971e-01
  3.080277e+01    7.113412e-01
  3.081865e+01    7.099002e-01
  3.083452e+01    7.066258e-01
  3.085040e+01    7.148359e-01
  3.086627e+01    6.985745e-01
  3.088215e+01    7.124709e-01
  3.089802e+01    7.337351e-01
  3.091390e+01    7.340543e-01
  3.092977e+01    7.203987e-01
  3.094565e+01    7.203727e-01
  3.096153e+01    7.189133e-01
  3.097740e+01    7.343365e-01
  3.099328e+01    7.554525e-01
  3.100915e+01    7.458061e-01
  3.102503e+01    7.064617e-01
  3.104090e+01    7.173871e-01
  3.105678e+01    7.110260e-01
  3.107265e+01    7.427636e-01
  3.108853e+01    7.330741e-01
  3.110441e+01    7.213968e-01
  3.112028e+01    7.349718e-01
  3.113616e+01    6.975097e-01
  3.115203e+01    7.214473e-01
  3.116791e+01    7.354791e-01
  3.118378e+01    7.244117e-01
  3.119966e+01    7.124794e-01
  3.121553e+01    7.241644e-01
  3.123141e+01    7.455298e-01
  3.124729e+01    7.351136e-01
  3.126316e+01    7.295393e-01
  3.127904e+01    7.205837e-01
  3.129491e+01    7.540094e-01
  3.131079e+01    7.311888e-01
  3.132666e+01    7.216941e-01
  3.134254e+01    7.291712e-01
  3.135841e+01    7.117640e-01
  3.137429e+01    7.412413e-01
  3.139017e+01    7.533283e-01
  3.140604e+01    7.548252e-01
  3.142192e+01    7.714829e-01
  3.143779e+01    7.745014e-01
  3.145367e+01    7.578173e-01
  3.146954e+01    7.659926e-01
  3.148542e+01    7.441244e-01
  3.150129e+01    7.554852e-01
  3.151717e+01    7.609462e-01
  3.153305e+01    7.887581e-01
  3.154892e+01    7.994885e-01
  3.156480e+01    8.011627e-01
  3.158067e+01    8.065924e-01
  3.159655e+01    7.869677e-01
  3.161242e+01    8.096440e-01
  3.162830e+01    8.243360e-01
  3.164418e+01    8.340275e-01
  3.166005e+01    8.574288e-01
  3.167593e+01    8.904818e-01
  3.169180e+01    8.884996e-01
  3.170768e+01    9.183258e-01
  3.172355e+01    9.644315e-01
  3.173943e+01    1.003137e+00
  3.175530e+01    1.071521e+00
  3.177118e+01    1.114490e+00
  3.178706e+01    1.163509e+00
  3.180293e+01    1.254869e+00
  3.181881e+01    1.380288e+00
  3.183468e+01    1.515503e+00
  3.185056e+01    1.658854e+00
  3.186643e+01    1.866928e+00
  3.188231e+01    2.025202e+00
  3.189818e+01    2.197551e+00
  3.191406e+01    2.322714e+00
  3.192994e+01    2.445139e+00
  3.194581e+01    2.443118e+00
  3.196169e+01    2.362693e+00
  3.197756e+01    2.225259e+00
  3.199344e+01    2.127719e+00
  3.200931e+01    1.963882e+00
  3.202519e+01    1.737867e+00
  3.204106e+01    1.583342e+00
  3.205694e+01    1.445345e+00
  3.207282e+01    1.314347e+00
  3.208869e+01    1.177216e+00
  3.210457e+01    1.094742e+00
  3.212044e+01    1.065451e+00
  3.213632e+01    9.837767e-01
  3.215219e+01    9.441021e-01
  3.216807e+01    9.440265e-01
  3.218394e+01    9.125422e-01
  3.219982e+01    8.592941e-01
  3.221570e+01    8.518194e-01
  3.223157e+01    8.167695e-01
  3.224745e+01    8.380618e-01
  3.226332e+01    8.267182e-01
  3.227920e+01    8.122021e-01
  3.229507e+01    8.050321e-01
  3.231095e+01    7.990543e-01
  3.232682e+01    7.802019e-01
  3.234270e+01    7.650979e-01
  3.235858e+01    7.776092e-01
  3.237445e+01    7.746232e-01
  3.239033e+01    7.581639e-01
  3.240620e+01    7.328580e-01
  3.242208e+01    7.367541e-01
  3.243795e+01    7.421491e-01
  3.245383e+01    7.144284e-01
  3.246970e+01    7.229752e-01
  3.248558e+01    7.490447e-01
  3.250146e+01    7.449362e-01
  3.251733e+01    7.260784e-01
  3.253321e+01    7.122581e-01
  3.254908e+01    7.419237e-01
