# == pyFAI calibration ==
# Distance Sample to Detector: 0.3999999939076516 m
# PONI: 9.750e-02, 1.135e-01 m
# Rotations: -0.000175 0.000000 -0.000000 rad
# 
# == Fit2d calibration ==
# Distance Sample-beamCenter: 400.000 mm
# Center: x=1514.000, y=1300.000 pix
# Tilt: 0.010 deg  TiltPlanRot: 0.010 deg
# 
# Detector Detector	 Spline= None	 PixelSize= 7.500e-05, 7.500e-05 m
#    Detector has a mask: False 
#    Detector has a dark current: False 
#    detector has a flat field: False 
# 
# Wavelength: 6.888e-11 m
# Mask applied: user provided
# Dark current applied: False
# Flat field applied: False
# Polarization factor: 0.99
# Normalization factor: 1.0
# --> /home/myspot/data/2024_07_Rosario/Ru-CGO-ex/2024-07-27_002_Ru-CGO-ex_Activtation_ramp_000002_data_000130.dat
#       q_nm^-1             I 
  2.003187e-02    0.000000e+00
  3.590745e-02    0.000000e+00
  5.178302e-02    0.000000e+00
  6.765859e-02    4.685424e-02
  8.353417e-02    9.270435e-02
  9.940974e-02    9.442102e-02
  1.152853e-01    8.244902e-02
  1.311609e-01    5.039473e-02
  1.470365e-01    5.984161e-02
  1.629120e-01    4.856960e-02
  1.787876e-01    6.858924e-02
  1.946632e-01    6.377298e-02
  2.105388e-01    1.907337e-02
  2.264143e-01    1.213010e-02
  2.422899e-01    3.839773e-02
  2.581655e-01    3.058169e-02
  2.740411e-01    2.403923e-02
  2.899166e-01    4.134157e-02
  3.057922e-01    3.321360e-02
  3.216678e-01    3.070709e-02
  3.375433e-01    5.082503e-02
  3.534189e-01    4.132739e-02
  3.692945e-01    3.303592e-02
  3.851701e-01    6.495412e-02
  4.010456e-01    3.849253e-02
  4.169212e-01    2.274826e-02
  4.327968e-01    4.234445e-02
  4.486724e-01    3.095151e-02
  4.645479e-01    2.786201e-02
  4.804235e-01    1.909696e-02
  4.962991e-01    2.934034e-02
  5.121747e-01    2.182753e-02
  5.280502e-01    5.340462e-02
  5.439258e-01    5.212202e-02
  5.598014e-01    6.537060e-03
  5.756770e-01    2.331090e-02
  5.915525e-01    2.740261e-02
  6.074281e-01    5.403743e-02
  6.233037e-01    4.124546e-02
  6.391793e-01    4.119879e-02
  6.550548e-01    3.766419e-02
  6.709304e-01    3.271498e-02
  6.868060e-01    2.205343e-02
  7.026815e-01    1.938887e-02
  7.185571e-01    1.842698e-02
  7.344327e-01    2.713422e-02
  7.503083e-01    3.919793e-02
  7.661838e-01    4.637128e-02
  7.820594e-01    6.723905e-02
  7.979350e-01    1.124821e-01
  8.138106e-01    1.846647e-01
  8.296861e-01    2.544938e-01
  8.455617e-01    3.972713e-01
  8.614373e-01    4.004317e-01
  8.773129e-01    4.486764e-01
  8.931884e-01    4.927252e-01
  9.090640e-01    5.649285e-01
  9.249396e-01    5.838236e-01
  9.408152e-01    6.451306e-01
  9.566907e-01    7.634934e-01
  9.725663e-01    8.958418e-01
  9.884419e-01    8.358710e-01
  1.004317e+00    1.006041e+00
  1.020193e+00    1.227454e+00
  1.036069e+00    1.205830e+00
  1.051944e+00    1.199905e+00
  1.067820e+00    1.205652e+00
  1.083695e+00    1.278083e+00
  1.099571e+00    1.343042e+00
  1.115446e+00    1.477082e+00
  1.131322e+00    1.455432e+00
  1.147198e+00    1.419001e+00
  1.163073e+00    1.584951e+00
  1.178949e+00    1.442703e+00
  1.194824e+00    1.487230e+00
  1.210700e+00    1.764110e+00
  1.226575e+00    2.038151e+00
  1.242451e+00    2.195642e+00
  1.258327e+00    2.352009e+00
  1.274202e+00    2.308616e+00
  1.290078e+00    2.450383e+00
  1.305953e+00    2.442291e+00
  1.321829e+00    2.424701e+00
  1.337705e+00    2.452738e+00
  1.353580e+00    2.455511e+00
  1.369456e+00    2.600031e+00
  1.385331e+00    2.629640e+00
  1.401207e+00    2.588589e+00
  1.417082e+00    2.460151e+00
  1.432958e+00    2.399905e+00
  1.448834e+00    2.653573e+00
  1.464709e+00    2.691550e+00
  1.480585e+00    2.534599e+00
  1.496460e+00    2.762456e+00
  1.512336e+00    2.774152e+00
  1.528211e+00    2.991242e+00
  1.544087e+00    2.986839e+00
  1.559963e+00    2.808511e+00
  1.575838e+00    2.792119e+00
  1.591714e+00    2.907829e+00
  1.607589e+00    2.986030e+00
  1.623465e+00    2.868654e+00
  1.639340e+00    2.798604e+00
  1.655216e+00    2.731832e+00
  1.671092e+00    2.787427e+00
  1.686967e+00    2.744705e+00
  1.702843e+00    2.857737e+00
  1.718718e+00    2.752317e+00
  1.734594e+00    2.912314e+00
  1.750469e+00    2.849286e+00
  1.766345e+00    2.725628e+00
  1.782221e+00    2.696497e+00
  1.798096e+00    2.698425e+00
  1.813972e+00    2.783402e+00
  1.829847e+00    2.733007e+00
  1.845723e+00    2.716023e+00
  1.861598e+00    2.739759e+00
  1.877474e+00    2.664684e+00
  1.893350e+00    2.720781e+00
  1.909225e+00    2.653224e+00
  1.925101e+00    2.642986e+00
  1.940976e+00    2.707026e+00
  1.956852e+00    2.677582e+00
  1.972727e+00    2.690815e+00
  1.988603e+00    2.701943e+00
  2.004479e+00    2.851134e+00
  2.020354e+00    2.830553e+00
  2.036230e+00    2.781162e+00
  2.052105e+00    2.631290e+00
  2.067981e+00    2.614220e+00
  2.083856e+00    2.742641e+00
  2.099732e+00    2.822935e+00
  2.115608e+00    2.680724e+00
  2.131483e+00    2.607882e+00
  2.147359e+00    2.680157e+00
  2.163234e+00    2.766337e+00
  2.179110e+00    2.736388e+00
  2.194985e+00    2.644278e+00
  2.210861e+00    2.634433e+00
  2.226737e+00    2.627399e+00
  2.242612e+00    2.755823e+00
  2.258488e+00    2.712556e+00
  2.274363e+00    2.710282e+00
  2.290239e+00    2.737421e+00
  2.306115e+00    2.695928e+00
  2.321990e+00    2.630795e+00
  2.337866e+00    2.648464e+00
  2.353741e+00    2.789421e+00
  2.369617e+00    2.737810e+00
  2.385492e+00    2.715933e+00
  2.401368e+00    2.740816e+00
  2.417244e+00    2.724932e+00
  2.433119e+00    2.751312e+00
  2.448995e+00    2.788251e+00
  2.464870e+00    2.729403e+00
  2.480746e+00    2.693883e+00
  2.496621e+00    2.772985e+00
  2.512497e+00    2.710820e+00
  2.528373e+00    2.678522e+00
  2.544248e+00    2.734317e+00
  2.560124e+00    2.749589e+00
  2.575999e+00    2.821266e+00
  2.591875e+00    2.800621e+00
  2.607750e+00    2.763071e+00
  2.623626e+00    2.730741e+00
  2.639502e+00    2.750522e+00
  2.655377e+00    2.785007e+00
  2.671253e+00    2.799090e+00
  2.687128e+00    2.823415e+00
  2.703004e+00    2.829375e+00
  2.718879e+00    2.816068e+00
  2.734755e+00    2.828252e+00
  2.750631e+00    2.820674e+00
  2.766506e+00    2.707625e+00
  2.782382e+00    2.842136e+00
  2.798257e+00    2.815495e+00
  2.814133e+00    2.795059e+00
  2.830008e+00    2.793537e+00
  2.845884e+00    2.850094e+00
  2.861760e+00    2.816482e+00
  2.877635e+00    2.941007e+00
  2.893511e+00    2.764166e+00
  2.909386e+00    2.738925e+00
  2.925262e+00    2.864180e+00
  2.941137e+00    2.898849e+00
  2.957013e+00    2.855260e+00
  2.972889e+00    2.891085e+00
  2.988764e+00    2.840966e+00
  3.004640e+00    2.836456e+00
  3.020515e+00    2.851740e+00
  3.036391e+00    2.797313e+00
  3.052266e+00    2.848299e+00
  3.068142e+00    2.938779e+00
  3.084018e+00    2.870548e+00
  3.099893e+00    2.897823e+00
  3.115769e+00    2.860647e+00
  3.131644e+00    2.866792e+00
  3.147520e+00    2.861480e+00
  3.163395e+00    2.813539e+00
  3.179271e+00    2.900106e+00
  3.195147e+00    2.872245e+00
  3.211022e+00    2.825791e+00
  3.226898e+00    2.927956e+00
  3.242773e+00    2.931619e+00
  3.258649e+00    2.816281e+00
  3.274525e+00    2.792216e+00
  3.290400e+00    2.852334e+00
  3.306276e+00    2.907409e+00
  3.322151e+00    2.885730e+00
  3.338027e+00    2.823145e+00
  3.353902e+00    2.894857e+00
  3.369778e+00    2.879721e+00
  3.385654e+00    2.961479e+00
  3.401529e+00    2.926986e+00
  3.417405e+00    2.880807e+00
  3.433280e+00    2.920369e+00
  3.449156e+00    2.853624e+00
  3.465031e+00    2.983430e+00
  3.480907e+00    2.944610e+00
  3.496783e+00    2.866142e+00
  3.512658e+00    2.905716e+00
  3.528534e+00    2.980119e+00
  3.544409e+00    3.045124e+00
  3.560285e+00    3.030749e+00
  3.576160e+00    2.985023e+00
  3.592036e+00    2.940535e+00
  3.607912e+00    2.968143e+00
  3.623787e+00    2.917407e+00
  3.639663e+00    2.941158e+00
  3.655538e+00    3.001554e+00
  3.671414e+00    2.969003e+00
  3.687289e+00    2.930282e+00
  3.703165e+00    2.866876e+00
  3.719041e+00    2.998356e+00
  3.734916e+00    3.020262e+00
  3.750792e+00    2.977169e+00
  3.766667e+00    3.047978e+00
  3.782543e+00    2.960819e+00
  3.798418e+00    3.048613e+00
  3.814294e+00    2.981791e+00
  3.830170e+00    2.980235e+00
  3.846045e+00    2.961521e+00
  3.861921e+00    2.979371e+00
  3.877796e+00    2.943025e+00
  3.893672e+00    2.899421e+00
  3.909547e+00    2.894958e+00
  3.925423e+00    2.972733e+00
  3.941299e+00    2.985357e+00
  3.957174e+00    2.974031e+00
  3.973050e+00    2.914209e+00
  3.988925e+00    2.899037e+00
  4.004801e+00    3.033755e+00
  4.020676e+00    2.971255e+00
  4.036552e+00    2.990265e+00
  4.052428e+00    3.021708e+00
  4.068303e+00    3.073851e+00
  4.084179e+00    3.021080e+00
  4.100054e+00    3.015515e+00
  4.115930e+00    2.964039e+00
  4.131806e+00    3.042275e+00
  4.147681e+00    3.039107e+00
  4.163557e+00    2.963100e+00
  4.179432e+00    2.930111e+00
  4.195308e+00    2.962569e+00
  4.211183e+00    3.016606e+00
  4.227059e+00    3.119300e+00
  4.242935e+00    3.049105e+00
  4.258810e+00    3.079901e+00
  4.274686e+00    3.020918e+00
  4.290561e+00    3.060193e+00
  4.306437e+00    3.048644e+00
  4.322312e+00    3.000533e+00
  4.338188e+00    3.021079e+00
  4.354064e+00    3.046114e+00
  4.369939e+00    3.030090e+00
  4.385815e+00    2.992691e+00
  4.401690e+00    3.070189e+00
  4.417566e+00    3.069075e+00
  4.433441e+00    3.005844e+00
  4.449317e+00    3.008407e+00
  4.465193e+00    3.081394e+00
  4.481068e+00    3.143296e+00
  4.496944e+00    3.111540e+00
  4.512819e+00    3.145835e+00
  4.528695e+00    3.087223e+00
  4.544570e+00    3.050009e+00
  4.560446e+00    3.030877e+00
  4.576322e+00    3.078294e+00
  4.592197e+00    3.023404e+00
  4.608073e+00    3.035174e+00
  4.623948e+00    3.025910e+00
  4.639824e+00    3.003843e+00
  4.655699e+00    3.006392e+00
  4.671575e+00    2.990829e+00
  4.687451e+00    3.066198e+00
  4.703326e+00    3.075580e+00
  4.719202e+00    3.015058e+00
  4.735077e+00    2.999416e+00
  4.750953e+00    3.025031e+00
  4.766828e+00    3.022098e+00
  4.782704e+00    3.022992e+00
  4.798580e+00    3.115310e+00
  4.814455e+00    3.056707e+00
  4.830331e+00    3.080935e+00
  4.846206e+00    3.136940e+00
  4.862082e+00    3.192272e+00
  4.877957e+00    3.138054e+00
  4.893833e+00    3.072298e+00
  4.909709e+00    3.086709e+00
  4.925584e+00    3.094446e+00
  4.941460e+00    3.073112e+00
  4.957335e+00    3.107624e+00
  4.973211e+00    3.043617e+00
  4.989086e+00    3.075942e+00
  5.004962e+00    3.151604e+00
  5.020838e+00    3.128700e+00
  5.036713e+00    3.120304e+00
  5.052589e+00    3.185720e+00
  5.068464e+00    3.139255e+00
  5.084340e+00    3.104344e+00
  5.100216e+00    3.058347e+00
  5.116091e+00    2.989995e+00
  5.131967e+00    3.080901e+00
  5.147842e+00    3.060204e+00
  5.163718e+00    3.007098e+00
  5.179593e+00    3.097818e+00
  5.195469e+00    3.070086e+00
  5.211345e+00    3.123151e+00
  5.227220e+00    3.144991e+00
  5.243096e+00    3.089221e+00
  5.258971e+00    3.158338e+00
  5.274847e+00    3.097208e+00
  5.290722e+00    3.109093e+00
  5.306598e+00    3.122663e+00
  5.322474e+00    3.050503e+00
  5.338349e+00    3.085980e+00
  5.354225e+00    3.120226e+00
  5.370100e+00    3.122906e+00
  5.385976e+00    3.101998e+00
  5.401851e+00    3.050995e+00
  5.417727e+00    3.002586e+00
  5.433603e+00    3.036561e+00
  5.449478e+00    3.088902e+00
  5.465354e+00    3.148601e+00
  5.481229e+00    3.070431e+00
  5.497105e+00    3.055796e+00
  5.512980e+00    3.122600e+00
  5.528856e+00    3.083415e+00
  5.544732e+00    3.025587e+00
  5.560607e+00    3.034279e+00
  5.576483e+00    3.035828e+00
  5.592358e+00    3.088349e+00
  5.608234e+00    3.135672e+00
  5.624109e+00    3.092734e+00
  5.639985e+00    3.019358e+00
  5.655861e+00    3.021360e+00
  5.671736e+00    3.035300e+00
  5.687612e+00    3.011620e+00
  5.703487e+00    3.085563e+00
  5.719363e+00    3.062522e+00
  5.735238e+00    3.054799e+00
  5.751114e+00    3.047703e+00
  5.766990e+00    3.013198e+00
  5.782865e+00    3.000312e+00
  5.798741e+00    2.962748e+00
  5.814616e+00    3.005731e+00
  5.830492e+00    3.043976e+00
  5.846367e+00    3.059257e+00
  5.862243e+00    3.009094e+00
  5.878119e+00    2.938307e+00
  5.893994e+00    3.002103e+00
  5.909870e+00    3.017109e+00
  5.925745e+00    2.996572e+00
  5.941621e+00    3.031348e+00
  5.957497e+00    3.003651e+00
  5.973372e+00    3.030592e+00
  5.989248e+00    2.979481e+00
  6.005123e+00    2.907706e+00
  6.020999e+00    2.917770e+00
  6.036874e+00    2.986543e+00
  6.052750e+00    2.962204e+00
  6.068626e+00    3.073650e+00
  6.084501e+00    3.062658e+00
  6.100377e+00    2.993512e+00
  6.116252e+00    2.986052e+00
  6.132128e+00    2.986859e+00
  6.148003e+00    3.038555e+00
  6.163879e+00    3.072314e+00
  6.179755e+00    3.051131e+00
  6.195630e+00    3.048652e+00
  6.211506e+00    3.032039e+00
  6.227381e+00    3.065587e+00
  6.243257e+00    3.048613e+00
  6.259132e+00    2.973767e+00
  6.275008e+00    3.032988e+00
  6.290884e+00    2.962795e+00
  6.306759e+00    3.028502e+00
  6.322635e+00    3.075730e+00
  6.338510e+00    3.018777e+00
  6.354386e+00    2.982572e+00
  6.370261e+00    2.951235e+00
  6.386137e+00    2.992989e+00
  6.402013e+00    3.048600e+00
  6.417888e+00    2.997715e+00
  6.433764e+00    3.025828e+00
  6.449639e+00    3.048916e+00
  6.465515e+00    2.955612e+00
  6.481390e+00    2.897524e+00
  6.497266e+00    2.914361e+00
  6.513142e+00    2.985644e+00
  6.529017e+00    2.988339e+00
  6.544893e+00    3.006460e+00
  6.560768e+00    3.102668e+00
  6.576644e+00    3.005499e+00
  6.592519e+00    2.946643e+00
  6.608395e+00    2.979452e+00
  6.624271e+00    3.021436e+00
  6.640146e+00    2.984778e+00
  6.656022e+00    3.012231e+00
  6.671897e+00    2.998046e+00
  6.687773e+00    2.908516e+00
  6.703648e+00    2.908611e+00
  6.719524e+00    2.957047e+00
  6.735400e+00    2.995542e+00
  6.751275e+00    2.968928e+00
  6.767151e+00    3.000992e+00
  6.783026e+00    3.008683e+00
  6.798902e+00    2.975992e+00
  6.814777e+00    2.944492e+00
  6.830653e+00    2.893060e+00
  6.846529e+00    2.930538e+00
  6.862404e+00    2.958354e+00
  6.878280e+00    3.056541e+00
  6.894155e+00    3.023090e+00
  6.910031e+00    3.005193e+00
  6.925907e+00    3.015877e+00
  6.941782e+00    2.958176e+00
  6.957658e+00    2.980176e+00
  6.973533e+00    2.994008e+00
  6.989409e+00    3.043508e+00
  7.005284e+00    3.080369e+00
  7.021160e+00    3.032333e+00
  7.037036e+00    3.016289e+00
  7.052911e+00    2.997006e+00
  7.068787e+00    2.940290e+00
  7.084662e+00    2.976085e+00
  7.100538e+00    2.939564e+00
  7.116413e+00    2.957353e+00
  7.132289e+00    2.953292e+00
  7.148165e+00    2.941727e+00
  7.164040e+00    3.003376e+00
  7.179916e+00    2.992630e+00
  7.195791e+00    2.978579e+00
  7.211667e+00    2.912786e+00
  7.227542e+00    2.902592e+00
  7.243418e+00    2.955162e+00
  7.259294e+00    2.929862e+00
  7.275169e+00    2.941754e+00
  7.291045e+00    2.993076e+00
  7.306920e+00    2.937848e+00
  7.322796e+00    2.926120e+00
  7.338671e+00    2.948598e+00
  7.354547e+00    2.908504e+00
  7.370423e+00    2.929492e+00
  7.386298e+00    2.983456e+00
  7.402174e+00    2.956021e+00
  7.418049e+00    2.947682e+00
  7.433925e+00    3.001777e+00
  7.449800e+00    2.952465e+00
  7.465676e+00    2.947121e+00
  7.481552e+00    2.953423e+00
  7.497427e+00    2.944116e+00
  7.513303e+00    2.914330e+00
  7.529178e+00    2.884233e+00
  7.545054e+00    2.960006e+00
  7.560929e+00    2.965967e+00
  7.576805e+00    2.918531e+00
  7.592681e+00    2.915255e+00
  7.608556e+00    2.908038e+00
  7.624432e+00    2.943986e+00
  7.640307e+00    2.921252e+00
  7.656183e+00    2.985056e+00
  7.672058e+00    2.897901e+00
  7.687934e+00    2.869935e+00
  7.703810e+00    2.887045e+00
  7.719685e+00    2.958226e+00
  7.735561e+00    2.942045e+00
  7.751436e+00    2.919480e+00
  7.767312e+00    2.844441e+00
  7.783187e+00    2.905590e+00
  7.799063e+00    2.983678e+00
  7.814939e+00    2.929044e+00
  7.830814e+00    2.885296e+00
  7.846690e+00    2.940798e+00
  7.862565e+00    2.990698e+00
  7.878441e+00    2.918653e+00
  7.894317e+00    2.929613e+00
  7.910192e+00    2.942999e+00
  7.926068e+00    2.905500e+00
  7.941943e+00    2.967409e+00
  7.957819e+00    2.909659e+00
  7.973694e+00    2.887450e+00
  7.989570e+00    2.906371e+00
  8.005446e+00    2.928885e+00
  8.021321e+00    2.951982e+00
  8.037197e+00    2.885834e+00
  8.053072e+00    2.897317e+00
  8.068948e+00    2.911898e+00
  8.084823e+00    2.931668e+00
  8.100699e+00    2.914299e+00
  8.116575e+00    2.910911e+00
  8.132450e+00    2.947977e+00
  8.148326e+00    2.947518e+00
  8.164201e+00    2.958749e+00
  8.180077e+00    2.888623e+00
  8.195952e+00    2.926568e+00
  8.211828e+00    2.992325e+00
  8.227704e+00    2.999836e+00
  8.243579e+00    2.943688e+00
  8.259455e+00    2.907876e+00
  8.275330e+00    2.884760e+00
  8.291206e+00    2.905046e+00
  8.307081e+00    2.873245e+00
  8.322957e+00    2.884647e+00
  8.338833e+00    2.841577e+00
  8.354708e+00    2.840351e+00
  8.370584e+00    2.868695e+00
  8.386459e+00    2.885297e+00
  8.402335e+00    2.878638e+00
  8.418210e+00    2.844676e+00
  8.434086e+00    2.851301e+00
  8.449962e+00    2.871461e+00
  8.465837e+00    2.869769e+00
  8.481713e+00    2.863470e+00
  8.497588e+00    2.890973e+00
  8.513464e+00    2.877234e+00
  8.529339e+00    2.851478e+00
  8.545215e+00    2.826706e+00
  8.561091e+00    2.792192e+00
  8.576966e+00    2.835360e+00
  8.592842e+00    2.878954e+00
  8.608717e+00    2.869908e+00
  8.624593e+00    2.881404e+00
  8.640468e+00    2.840235e+00
  8.656344e+00    2.860058e+00
  8.672220e+00    2.811167e+00
  8.688095e+00    2.774044e+00
  8.703971e+00    2.824338e+00
  8.719846e+00    2.821674e+00
  8.735722e+00    2.833322e+00
  8.751598e+00    2.844895e+00
  8.767473e+00    2.870012e+00
  8.783349e+00    2.788858e+00
  8.799224e+00    2.794594e+00
  8.815100e+00    2.791019e+00
  8.830975e+00    2.822580e+00
  8.846851e+00    2.793040e+00
  8.862727e+00    2.768134e+00
  8.878602e+00    2.756406e+00
  8.894478e+00    2.777432e+00
  8.910353e+00    2.796757e+00
  8.926229e+00    2.864393e+00
  8.942104e+00    2.845782e+00
  8.957980e+00    2.779988e+00
  8.973856e+00    2.769721e+00
  8.989731e+00    2.801857e+00
  9.005607e+00    2.771188e+00
  9.021482e+00    2.776734e+00
  9.037358e+00    2.782038e+00
  9.053233e+00    2.798819e+00
  9.069109e+00    2.778178e+00
  9.084985e+00    2.769834e+00
  9.100860e+00    2.749125e+00
  9.116736e+00    2.812837e+00
  9.132611e+00    2.822452e+00
  9.148487e+00    2.710698e+00
  9.164362e+00    2.698663e+00
  9.180238e+00    2.760634e+00
  9.196114e+00    2.778461e+00
  9.211989e+00    2.744850e+00
  9.227865e+00    2.800949e+00
  9.243740e+00    2.795496e+00
  9.259616e+00    2.747819e+00
  9.275491e+00    2.723776e+00
  9.291367e+00    2.694056e+00
  9.307243e+00    2.693056e+00
  9.323118e+00    2.695736e+00
  9.338994e+00    2.735004e+00
  9.354869e+00    2.708129e+00
  9.370745e+00    2.749159e+00
  9.386620e+00    2.750870e+00
  9.402496e+00    2.713880e+00
  9.418372e+00    2.751327e+00
  9.434247e+00    2.755198e+00
  9.450123e+00    2.741701e+00
  9.465998e+00    2.729032e+00
  9.481874e+00    2.754274e+00
  9.497749e+00    2.735793e+00
  9.513625e+00    2.763495e+00
  9.529501e+00    2.744632e+00
  9.545376e+00    2.720002e+00
  9.561252e+00    2.690950e+00
  9.577127e+00    2.756198e+00
  9.593003e+00    2.774980e+00
  9.608878e+00    2.752426e+00
  9.624754e+00    2.766927e+00
  9.640630e+00    2.714530e+00
  9.656505e+00    2.671902e+00
  9.672381e+00    2.724321e+00
  9.688256e+00    2.758731e+00
  9.704132e+00    2.739240e+00
  9.720008e+00    2.718881e+00
  9.735883e+00    2.689810e+00
  9.751759e+00    2.712756e+00
  9.767634e+00    2.709699e+00
  9.783510e+00    2.669724e+00
  9.799385e+00    2.643380e+00
  9.815261e+00    2.680262e+00
  9.831137e+00    2.664549e+00
  9.847012e+00    2.700981e+00
  9.862888e+00    2.734015e+00
  9.878763e+00    2.676890e+00
  9.894639e+00    2.696320e+00
  9.910514e+00    2.737171e+00
  9.926390e+00    2.680300e+00
  9.942266e+00    2.633532e+00
  9.958141e+00    2.646218e+00
  9.974017e+00    2.621692e+00
  9.989892e+00    2.601225e+00
  1.000577e+01    2.603263e+00
  1.002164e+01    2.647413e+00
  1.003752e+01    2.646148e+00
  1.005339e+01    2.639438e+00
  1.006927e+01    2.624966e+00
  1.008515e+01    2.618703e+00
  1.010102e+01    2.595396e+00
  1.011690e+01    2.650142e+00
  1.013277e+01    2.668416e+00
  1.014865e+01    2.630911e+00
  1.016452e+01    2.651939e+00
  1.018040e+01    2.593573e+00
  1.019627e+01    2.596274e+00
  1.021215e+01    2.578076e+00
  1.022803e+01    2.591902e+00
  1.024390e+01    2.580936e+00
  1.025978e+01    2.594710e+00
  1.027565e+01    2.597053e+00
  1.029153e+01    2.610717e+00
  1.030740e+01    2.577346e+00
  1.032328e+01    2.638445e+00
  1.033915e+01    2.648538e+00
  1.035503e+01    2.631988e+00
  1.037091e+01    2.622439e+00
  1.038678e+01    2.599179e+00
  1.040266e+01    2.588403e+00
  1.041853e+01    2.581439e+00
  1.043441e+01    2.547985e+00
  1.045028e+01    2.547272e+00
  1.046616e+01    2.542012e+00
  1.048204e+01    2.527748e+00
  1.049791e+01    2.568072e+00
  1.051379e+01    2.567594e+00
  1.052966e+01    2.597122e+00
  1.054554e+01    2.540307e+00
  1.056141e+01    2.527448e+00
  1.057729e+01    2.507398e+00
  1.059316e+01    2.532953e+00
  1.060904e+01    2.503455e+00
  1.062492e+01    2.491626e+00
  1.064079e+01    2.523406e+00
  1.065667e+01    2.565269e+00
  1.067254e+01    2.536537e+00
  1.068842e+01    2.550754e+00
  1.070429e+01    2.520851e+00
  1.072017e+01    2.498544e+00
  1.073604e+01    2.525281e+00
  1.075192e+01    2.551729e+00
  1.076780e+01    2.561015e+00
  1.078367e+01    2.530715e+00
  1.079955e+01    2.482155e+00
  1.081542e+01    2.483690e+00
  1.083130e+01    2.474135e+00
  1.084717e+01    2.484522e+00
  1.086305e+01    2.462052e+00
  1.087892e+01    2.525359e+00
  1.089480e+01    2.576645e+00
  1.091068e+01    2.505503e+00
  1.092655e+01    2.432719e+00
  1.094243e+01    2.470402e+00
  1.095830e+01    2.429619e+00
  1.097418e+01    2.470402e+00
  1.099005e+01    2.469411e+00
  1.100593e+01    2.462150e+00
  1.102180e+01    2.471737e+00
  1.103768e+01    2.476498e+00
  1.105356e+01    2.492880e+00
  1.106943e+01    2.482393e+00
  1.108531e+01    2.465044e+00
  1.110118e+01    2.454931e+00
  1.111706e+01    2.461710e+00
  1.113293e+01    2.456089e+00
  1.114881e+01    2.449594e+00
  1.116468e+01    2.467661e+00
  1.118056e+01    2.469121e+00
  1.119644e+01    2.433644e+00
  1.121231e+01    2.415083e+00
  1.122819e+01    2.415388e+00
  1.124406e+01    2.402567e+00
  1.125994e+01    2.406026e+00
  1.127581e+01    2.405701e+00
  1.129169e+01    2.324513e+00
  1.130756e+01    2.384813e+00
  1.132344e+01    2.421377e+00
  1.133932e+01    2.407467e+00
  1.135519e+01    2.402094e+00
  1.137107e+01    2.380618e+00
  1.138694e+01    2.368917e+00
  1.140282e+01    2.414892e+00
  1.141869e+01    2.375283e+00
  1.143457e+01    2.388283e+00
  1.145045e+01    2.412774e+00
  1.146632e+01    2.376519e+00
  1.148220e+01    2.354732e+00
  1.149807e+01    2.399390e+00
  1.151395e+01    2.391946e+00
  1.152982e+01    2.349182e+00
  1.154570e+01    2.330066e+00
  1.156157e+01    2.391706e+00
  1.157745e+01    2.411605e+00
  1.159333e+01    2.379326e+00
  1.160920e+01    2.361879e+00
  1.162508e+01    2.329283e+00
  1.164095e+01    2.361747e+00
  1.165683e+01    2.337645e+00
  1.167270e+01    2.369565e+00
  1.168858e+01    2.345713e+00
  1.170445e+01    2.320953e+00
  1.172033e+01    2.265190e+00
  1.173621e+01    2.322656e+00
  1.175208e+01    2.360275e+00
  1.176796e+01    2.306194e+00
  1.178383e+01    2.330333e+00
  1.179971e+01    2.307130e+00
  1.181558e+01    2.328310e+00
  1.183146e+01    2.305273e+00
  1.184733e+01    2.287683e+00
  1.186321e+01    2.319691e+00
  1.187909e+01    2.321013e+00
  1.189496e+01    2.327915e+00
  1.191084e+01    2.349500e+00
  1.192671e+01    2.329595e+00
  1.194259e+01    2.325670e+00
  1.195846e+01    2.348105e+00
  1.197434e+01    2.344851e+00
  1.199021e+01    2.322026e+00
  1.200609e+01    2.314015e+00
  1.202197e+01    2.331030e+00
  1.203784e+01    2.314010e+00
  1.205372e+01    2.313073e+00
  1.206959e+01    2.304978e+00
  1.208547e+01    2.281169e+00
  1.210134e+01    2.318429e+00
  1.211722e+01    2.322188e+00
  1.213309e+01    2.305244e+00
  1.214897e+01    2.316448e+00
  1.216485e+01    2.301885e+00
  1.218072e+01    2.302917e+00
  1.219660e+01    2.310217e+00
  1.221247e+01    2.329738e+00
  1.222835e+01    2.308881e+00
  1.224422e+01    2.302856e+00
  1.226010e+01    2.346107e+00
  1.227597e+01    2.319387e+00
  1.229185e+01    2.289657e+00
  1.230773e+01    2.316448e+00
  1.232360e+01    2.311270e+00
  1.233948e+01    2.285150e+00
  1.235535e+01    2.266925e+00
  1.237123e+01    2.287522e+00
  1.238710e+01    2.317539e+00
  1.240298e+01    2.326501e+00
  1.241886e+01    2.307674e+00
  1.243473e+01    2.281338e+00
  1.245061e+01    2.283123e+00
  1.246648e+01    2.308040e+00
  1.248236e+01    2.315242e+00
  1.249823e+01    2.297644e+00
  1.251411e+01    2.320428e+00
  1.252998e+01    2.337367e+00
  1.254586e+01    2.341568e+00
  1.256174e+01    2.354852e+00
  1.257761e+01    2.359018e+00
  1.259349e+01    2.353780e+00
  1.260936e+01    2.368542e+00
  1.262524e+01    2.398543e+00
  1.264111e+01    2.408529e+00
  1.265699e+01    2.417090e+00
  1.267286e+01    2.401807e+00
  1.268874e+01    2.415735e+00
  1.270462e+01    2.457180e+00
  1.272049e+01    2.471005e+00
  1.273637e+01    2.484227e+00
  1.275224e+01    2.501958e+00
  1.276812e+01    2.536464e+00
  1.278399e+01    2.570804e+00
  1.279987e+01    2.601910e+00
  1.281574e+01    2.681691e+00
  1.283162e+01    2.710047e+00
  1.284750e+01    2.812381e+00
  1.286337e+01    2.873193e+00
  1.287925e+01    2.923555e+00
  1.289512e+01    3.093875e+00
  1.291100e+01    3.280259e+00
  1.292687e+01    3.448944e+00
  1.294275e+01    3.669799e+00
  1.295862e+01    3.962293e+00
  1.297450e+01    4.332028e+00
  1.299038e+01    4.776505e+00
  1.300625e+01    5.301010e+00
  1.302213e+01    6.097676e+00
  1.303800e+01    7.063648e+00
  1.305388e+01    8.212395e+00
  1.306975e+01    9.508983e+00
  1.308563e+01    1.080120e+01
  1.310150e+01    1.212278e+01
  1.311738e+01    1.333005e+01
  1.313326e+01    1.448395e+01
  1.314913e+01    1.560168e+01
  1.316501e+01    1.654366e+01
  1.318088e+01    1.710662e+01
  1.319676e+01    1.704885e+01
  1.321263e+01    1.578075e+01
  1.322851e+01    1.410944e+01
  1.324438e+01    1.194486e+01
  1.326026e+01    9.959332e+00
  1.327614e+01    8.505553e+00
  1.329201e+01    7.219980e+00
  1.330789e+01    6.236798e+00
  1.332376e+01    5.466035e+00
  1.333964e+01    4.818264e+00
  1.335551e+01    4.384827e+00
  1.337139e+01    3.964991e+00
  1.338727e+01    3.699849e+00
  1.340314e+01    3.431504e+00
  1.341902e+01    3.225515e+00
  1.343489e+01    3.095520e+00
  1.345077e+01    2.934336e+00
  1.346664e+01    2.846320e+00
  1.348252e+01    2.736411e+00
  1.349839e+01    2.646333e+00
  1.351427e+01    2.602701e+00
  1.353015e+01    2.553576e+00
  1.354602e+01    2.476961e+00
  1.356190e+01    2.473102e+00
  1.357777e+01    2.403309e+00
  1.359365e+01    2.344599e+00
  1.360952e+01    2.372603e+00
  1.362540e+01    2.346513e+00
  1.364127e+01    2.301296e+00
  1.365715e+01    2.287979e+00
  1.367303e+01    2.261516e+00
  1.368890e+01    2.222153e+00
  1.370478e+01    2.241362e+00
  1.372065e+01    2.235823e+00
  1.373653e+01    2.158573e+00
  1.375240e+01    2.143208e+00
  1.376828e+01    2.161016e+00
  1.378415e+01    2.162279e+00
  1.380003e+01    2.127339e+00
  1.381591e+01    2.171473e+00
  1.383178e+01    2.118775e+00
  1.384766e+01    2.089854e+00
  1.386353e+01    2.121525e+00
  1.387941e+01    2.132936e+00
  1.389528e+01    2.084302e+00
  1.391116e+01    2.071790e+00
  1.392703e+01    2.092786e+00
  1.394291e+01    2.064927e+00
  1.395879e+01    2.021799e+00
  1.397466e+01    2.039571e+00
  1.399054e+01    2.046817e+00
  1.400641e+01    2.038585e+00
  1.402229e+01    2.022944e+00
  1.403816e+01    1.997499e+00
  1.405404e+01    1.983184e+00
  1.406991e+01    1.974390e+00
  1.408579e+01    1.989554e+00
  1.410167e+01    2.032361e+00
  1.411754e+01    2.057290e+00
  1.413342e+01    2.030502e+00
  1.414929e+01    1.992986e+00
  1.416517e+01    1.969817e+00
  1.418104e+01    1.938510e+00
  1.419692e+01    1.963522e+00
  1.421279e+01    1.929074e+00
  1.422867e+01    1.949979e+00
  1.424455e+01    1.940178e+00
  1.426042e+01    1.960968e+00
  1.427630e+01    1.942012e+00
  1.429217e+01    1.952362e+00
  1.430805e+01    1.959455e+00
  1.432392e+01    1.938946e+00
  1.433980e+01    1.985450e+00
  1.435568e+01    1.968163e+00
  1.437155e+01    1.939300e+00
  1.438743e+01    1.915011e+00
  1.440330e+01    1.921212e+00
  1.441918e+01    1.904685e+00
  1.443505e+01    1.896230e+00
  1.445093e+01    1.898999e+00
  1.446680e+01    1.910534e+00
  1.448268e+01    1.918799e+00
  1.449856e+01    1.896636e+00
  1.451443e+01    1.870567e+00
  1.453031e+01    1.912830e+00
  1.454618e+01    1.910948e+00
  1.456206e+01    1.929717e+00
  1.457793e+01    1.851078e+00
  1.459381e+01    1.824000e+00
  1.460968e+01    1.870000e+00
  1.462556e+01    1.904709e+00
  1.464144e+01    1.929616e+00
  1.465731e+01    1.934747e+00
  1.467319e+01    1.903868e+00
  1.468906e+01    1.925689e+00
  1.470494e+01    1.930889e+00
  1.472081e+01    1.920118e+00
  1.473669e+01    1.892353e+00
  1.475256e+01    1.910344e+00
  1.476844e+01    1.917752e+00
  1.478432e+01    1.914401e+00
  1.480019e+01    1.904500e+00
  1.481607e+01    1.872442e+00
  1.483194e+01    1.878049e+00
  1.484782e+01    1.934022e+00
  1.486369e+01    1.959116e+00
  1.487957e+01    1.912504e+00
  1.489544e+01    1.900817e+00
  1.491132e+01    1.936510e+00
  1.492720e+01    1.927102e+00
  1.494307e+01    2.005455e+00
  1.495895e+01    1.989333e+00
  1.497482e+01    2.024030e+00
  1.499070e+01    2.120605e+00
  1.500657e+01    2.156005e+00
  1.502245e+01    2.166223e+00
  1.503832e+01    2.260681e+00
  1.505420e+01    2.325863e+00
  1.507008e+01    2.453530e+00
  1.508595e+01    2.635089e+00
  1.510183e+01    2.821819e+00
  1.511770e+01    3.013775e+00
  1.513358e+01    3.372149e+00
  1.514945e+01    3.729344e+00
  1.516533e+01    4.120939e+00
  1.518120e+01    4.508379e+00
  1.519708e+01    4.849358e+00
  1.521296e+01    5.208202e+00
  1.522883e+01    5.455054e+00
  1.524471e+01    5.686504e+00
  1.526058e+01    5.808391e+00
  1.527646e+01    5.833824e+00
  1.529233e+01    5.645066e+00
  1.530821e+01    5.317672e+00
  1.532409e+01    4.942780e+00
  1.533996e+01    4.365268e+00
  1.535584e+01    3.861249e+00
  1.537171e+01    3.400449e+00
  1.538759e+01    3.091557e+00
  1.540346e+01    2.804650e+00
  1.541934e+01    2.600754e+00
  1.543521e+01    2.467404e+00
  1.545109e+01    2.359157e+00
  1.546697e+01    2.233076e+00
  1.548284e+01    2.144887e+00
  1.549872e+01    2.076038e+00
  1.551459e+01    1.991141e+00
  1.553047e+01    1.938491e+00
  1.554634e+01    1.868530e+00
  1.556222e+01    1.856546e+00
  1.557809e+01    1.863109e+00
  1.559397e+01    1.841695e+00
  1.560985e+01    1.831390e+00
  1.562572e+01    1.813335e+00
  1.564160e+01    1.789835e+00
  1.565747e+01    1.765920e+00
  1.567335e+01    1.777944e+00
  1.568922e+01    1.768880e+00
  1.570510e+01    1.743450e+00
  1.572097e+01    1.725874e+00
  1.573685e+01    1.688668e+00
  1.575273e+01    1.686247e+00
  1.576860e+01    1.710000e+00
  1.578448e+01    1.720013e+00
  1.580035e+01    1.716699e+00
  1.581623e+01    1.692531e+00
  1.583210e+01    1.653035e+00
  1.584798e+01    1.651896e+00
  1.586385e+01    1.684169e+00
  1.587973e+01    1.641025e+00
  1.589561e+01    1.635886e+00
  1.591148e+01    1.667904e+00
  1.592736e+01    1.608796e+00
  1.594323e+01    1.597534e+00
  1.595911e+01    1.597388e+00
  1.597498e+01    1.616681e+00
  1.599086e+01    1.624231e+00
  1.600673e+01    1.619917e+00
  1.602261e+01    1.626469e+00
  1.603849e+01    1.609302e+00
  1.605436e+01    1.572490e+00
  1.607024e+01    1.571927e+00
  1.608611e+01    1.569412e+00
  1.610199e+01    1.592493e+00
  1.611786e+01    1.579080e+00
  1.613374e+01    1.553222e+00
  1.614961e+01    1.585484e+00
  1.616549e+01    1.589174e+00
  1.618137e+01    1.557622e+00
  1.619724e+01    1.581478e+00
  1.621312e+01    1.559128e+00
  1.622899e+01    1.568047e+00
  1.624487e+01    1.599914e+00
  1.626074e+01    1.579533e+00
  1.627662e+01    1.538760e+00
  1.629250e+01    1.539258e+00
  1.630837e+01    1.573109e+00
  1.632425e+01    1.535621e+00
  1.634012e+01    1.541947e+00
  1.635600e+01    1.540962e+00
  1.637187e+01    1.516944e+00
  1.638775e+01    1.501621e+00
  1.640362e+01    1.469605e+00
  1.641950e+01    1.485764e+00
  1.643538e+01    1.507044e+00
  1.645125e+01    1.536885e+00
  1.646713e+01    1.527554e+00
  1.648300e+01    1.530385e+00
  1.649888e+01    1.490410e+00
  1.651475e+01    1.497362e+00
  1.653063e+01    1.524466e+00
  1.654650e+01    1.514495e+00
  1.656238e+01    1.499168e+00
  1.657826e+01    1.495962e+00
  1.659413e+01    1.474996e+00
  1.661001e+01    1.478148e+00
  1.662588e+01    1.459136e+00
  1.664176e+01    1.486510e+00
  1.665763e+01    1.466766e+00
  1.667351e+01    1.458471e+00
  1.668938e+01    1.469545e+00
  1.670526e+01    1.465687e+00
  1.672114e+01    1.436980e+00
  1.673701e+01    1.425395e+00
  1.675289e+01    1.480483e+00
  1.676876e+01    1.509686e+00
  1.678464e+01    1.504408e+00
  1.680051e+01    1.484890e+00
  1.681639e+01    1.434428e+00
  1.683226e+01    1.411471e+00
  1.684814e+01    1.463652e+00
  1.686402e+01    1.480243e+00
  1.687989e+01    1.446623e+00
  1.689577e+01    1.447983e+00
  1.691164e+01    1.486678e+00
  1.692752e+01    1.456895e+00
  1.694339e+01    1.464406e+00
  1.695927e+01    1.445510e+00
  1.697514e+01    1.430273e+00
  1.699102e+01    1.422190e+00
  1.700690e+01    1.388086e+00
  1.702277e+01    1.422604e+00
  1.703865e+01    1.458164e+00
  1.705452e+01    1.422684e+00
  1.707040e+01    1.379294e+00
  1.708627e+01    1.384885e+00
  1.710215e+01    1.397071e+00
  1.711802e+01    1.411979e+00
  1.713390e+01    1.407974e+00
  1.714978e+01    1.403288e+00
  1.716565e+01    1.388206e+00
  1.718153e+01    1.376844e+00
  1.719740e+01    1.366145e+00
  1.721328e+01    1.372285e+00
  1.722915e+01    1.386198e+00
  1.724503e+01    1.406524e+00
  1.726091e+01    1.426862e+00
  1.727678e+01    1.370570e+00
  1.729266e+01    1.342679e+00
  1.730853e+01    1.357808e+00
  1.732441e+01    1.357043e+00
  1.734028e+01    1.385118e+00
  1.735616e+01    1.364822e+00
  1.737203e+01    1.383293e+00
  1.738791e+01    1.356700e+00
  1.740379e+01    1.326135e+00
  1.741966e+01    1.355429e+00
  1.743554e+01    1.333275e+00
  1.745141e+01    1.353611e+00
  1.746729e+01    1.355395e+00
  1.748316e+01    1.362755e+00
  1.749904e+01    1.330241e+00
  1.751491e+01    1.345923e+00
  1.753079e+01    1.347361e+00
  1.754667e+01    1.356038e+00
  1.756254e+01    1.359606e+00
  1.757842e+01    1.366457e+00
  1.759429e+01    1.369384e+00
  1.761017e+01    1.360918e+00
  1.762604e+01    1.335539e+00
  1.764192e+01    1.335838e+00
  1.765779e+01    1.328086e+00
  1.767367e+01    1.332381e+00
  1.768955e+01    1.345115e+00
  1.770542e+01    1.336259e+00
  1.772130e+01    1.339591e+00
  1.773717e+01    1.322475e+00
  1.775305e+01    1.315393e+00
  1.776892e+01    1.326485e+00
  1.778480e+01    1.335353e+00
  1.780067e+01    1.349213e+00
  1.781655e+01    1.304123e+00
  1.783243e+01    1.317401e+00
  1.784830e+01    1.286954e+00
  1.786418e+01    1.310475e+00
  1.788005e+01    1.304078e+00
  1.789593e+01    1.301383e+00
  1.791180e+01    1.308045e+00
  1.792768e+01    1.303637e+00
  1.794355e+01    1.272102e+00
  1.795943e+01    1.323353e+00
  1.797531e+01    1.300580e+00
  1.799118e+01    1.281003e+00
  1.800706e+01    1.284881e+00
  1.802293e+01    1.284710e+00
  1.803881e+01    1.301470e+00
  1.805468e+01    1.307718e+00
  1.807056e+01    1.263987e+00
  1.808643e+01    1.288516e+00
  1.810231e+01    1.277325e+00
  1.811819e+01    1.303357e+00
  1.813406e+01    1.283482e+00
  1.814994e+01    1.257284e+00
  1.816581e+01    1.276886e+00
  1.818169e+01    1.275287e+00
  1.819756e+01    1.264635e+00
  1.821344e+01    1.283431e+00
  1.822932e+01    1.285678e+00
  1.824519e+01    1.257024e+00
  1.826107e+01    1.279498e+00
  1.827694e+01    1.289101e+00
  1.829282e+01    1.267854e+00
  1.830869e+01    1.250776e+00
  1.832457e+01    1.261606e+00
  1.834044e+01    1.287464e+00
  1.835632e+01    1.264144e+00
  1.837220e+01    1.257642e+00
  1.838807e+01    1.256193e+00
  1.840395e+01    1.248707e+00
  1.841982e+01    1.226599e+00
  1.843570e+01    1.212409e+00
  1.845157e+01    1.244454e+00
  1.846745e+01    1.242824e+00
  1.848332e+01    1.239798e+00
  1.849920e+01    1.222356e+00
  1.851508e+01    1.225247e+00
  1.853095e+01    1.214500e+00
  1.854683e+01    1.244008e+00
  1.856270e+01    1.234355e+00
  1.857858e+01    1.235035e+00
  1.859445e+01    1.236955e+00
  1.861033e+01    1.212784e+00
  1.862620e+01    1.234812e+00
  1.864208e+01    1.254336e+00
  1.865796e+01    1.223462e+00
  1.867383e+01    1.203620e+00
  1.868971e+01    1.216314e+00
  1.870558e+01    1.212656e+00
  1.872146e+01    1.223899e+00
  1.873733e+01    1.236240e+00
  1.875321e+01    1.221081e+00
  1.876908e+01    1.211546e+00
  1.878496e+01    1.228152e+00
  1.880084e+01    1.217957e+00
  1.881671e+01    1.199914e+00
  1.883259e+01    1.186954e+00
  1.884846e+01    1.229244e+00
  1.886434e+01    1.226048e+00
  1.888021e+01    1.195986e+00
  1.889609e+01    1.197953e+00
  1.891196e+01    1.184307e+00
  1.892784e+01    1.201308e+00
  1.894372e+01    1.179467e+00
  1.895959e+01    1.184088e+00
  1.897547e+01    1.208846e+00
  1.899134e+01    1.205172e+00
  1.900722e+01    1.187283e+00
  1.902309e+01    1.203031e+00
  1.903897e+01    1.202533e+00
  1.905484e+01    1.205558e+00
  1.907072e+01    1.172648e+00
  1.908660e+01    1.152856e+00
  1.910247e+01    1.152463e+00
  1.911835e+01    1.203442e+00
  1.913422e+01    1.191176e+00
  1.915010e+01    1.191968e+00
  1.916597e+01    1.185064e+00
  1.918185e+01    1.193262e+00
  1.919773e+01    1.194203e+00
  1.921360e+01    1.200696e+00
  1.922948e+01    1.200081e+00
  1.924535e+01    1.189424e+00
  1.926123e+01    1.158317e+00
  1.927710e+01    1.147194e+00
  1.929298e+01    1.169799e+00
  1.930885e+01    1.159438e+00
  1.932473e+01    1.175856e+00
  1.934061e+01    1.178941e+00
  1.935648e+01    1.188027e+00
  1.937236e+01    1.197167e+00
  1.938823e+01    1.170976e+00
  1.940411e+01    1.172275e+00
  1.941998e+01    1.162316e+00
  1.943586e+01    1.170034e+00
  1.945173e+01    1.145874e+00
  1.946761e+01    1.150459e+00
  1.948349e+01    1.152302e+00
  1.949936e+01    1.148401e+00
  1.951524e+01    1.166100e+00
  1.953111e+01    1.163252e+00
  1.954699e+01    1.142228e+00
  1.956286e+01    1.158403e+00
  1.957874e+01    1.145681e+00
  1.959461e+01    1.161603e+00
  1.961049e+01    1.138114e+00
  1.962637e+01    1.115962e+00
  1.964224e+01    1.140742e+00
  1.965812e+01    1.121077e+00
  1.967399e+01    1.130845e+00
  1.968987e+01    1.138101e+00
  1.970574e+01    1.127629e+00
  1.972162e+01    1.131500e+00
  1.973749e+01    1.152172e+00
  1.975337e+01    1.150840e+00
  1.976925e+01    1.129935e+00
  1.978512e+01    1.131789e+00
  1.980100e+01    1.125522e+00
  1.981687e+01    1.150438e+00
  1.983275e+01    1.127690e+00
  1.984862e+01    1.124464e+00
  1.986450e+01    1.111029e+00
  1.988037e+01    1.104348e+00
  1.989625e+01    1.109120e+00
  1.991213e+01    1.114536e+00
  1.992800e+01    1.143220e+00
  1.994388e+01    1.128284e+00
  1.995975e+01    1.116110e+00
  1.997563e+01    1.110419e+00
  1.999150e+01    1.107087e+00
  2.000738e+01    1.096244e+00
  2.002325e+01    1.101124e+00
  2.003913e+01    1.116760e+00
  2.005501e+01    1.087424e+00
  2.007088e+01    1.094616e+00
  2.008676e+01    1.131234e+00
  2.010263e+01    1.078666e+00
  2.011851e+01    1.086733e+00
  2.013438e+01    1.079710e+00
  2.015026e+01    1.089946e+00
  2.016614e+01    1.090552e+00
  2.018201e+01    1.089503e+00
  2.019789e+01    1.073967e+00
  2.021376e+01    1.087856e+00
  2.022964e+01    1.097670e+00
  2.024551e+01    1.091978e+00
  2.026139e+01    1.063469e+00
  2.027726e+01    1.073496e+00
  2.029314e+01    1.090302e+00
  2.030902e+01    1.069722e+00
  2.032489e+01    1.062334e+00
  2.034077e+01    1.094630e+00
  2.035664e+01    1.089852e+00
  2.037252e+01    1.095356e+00
  2.038839e+01    1.107423e+00
  2.040427e+01    1.084325e+00
  2.042014e+01    1.078470e+00
  2.043602e+01    1.074228e+00
  2.045190e+01    1.084625e+00
  2.046777e+01    1.081236e+00
  2.048365e+01    1.084606e+00
  2.049952e+01    1.070251e+00
  2.051540e+01    1.078066e+00
  2.053127e+01    1.056404e+00
  2.054715e+01    1.065916e+00
  2.056302e+01    1.084293e+00
  2.057890e+01    1.080907e+00
  2.059478e+01    1.075280e+00
  2.061065e+01    1.098699e+00
  2.062653e+01    1.078590e+00
  2.064240e+01    1.068035e+00
  2.065828e+01    1.067430e+00
  2.067415e+01    1.078246e+00
  2.069003e+01    1.090327e+00
  2.070590e+01    1.070077e+00
  2.072178e+01    1.061910e+00
  2.073766e+01    1.063859e+00
  2.075353e+01    1.078642e+00
  2.076941e+01    1.098662e+00
  2.078528e+01    1.050932e+00
  2.080116e+01    1.086169e+00
  2.081703e+01    1.091017e+00
  2.083291e+01    1.067343e+00
  2.084878e+01    1.067180e+00
  2.086466e+01    1.061267e+00
  2.088054e+01    1.076188e+00
  2.089641e+01    1.066009e+00
  2.091229e+01    1.051162e+00
  2.092816e+01    1.052692e+00
  2.094404e+01    1.033452e+00
  2.095991e+01    1.069757e+00
  2.097579e+01    1.073280e+00
  2.099166e+01    1.083578e+00
  2.100754e+01    1.088001e+00
  2.102342e+01    1.079573e+00
  2.103929e+01    1.073054e+00
  2.105517e+01    1.074094e+00
  2.107104e+01    1.056985e+00
  2.108692e+01    1.061083e+00
  2.110279e+01    1.087738e+00
  2.111867e+01    1.064872e+00
  2.113455e+01    1.067458e+00
  2.115042e+01    1.082073e+00
  2.116630e+01    1.089049e+00
  2.118217e+01    1.104719e+00
  2.119805e+01    1.071745e+00
  2.121392e+01    1.082133e+00
  2.122980e+01    1.080551e+00
  2.124567e+01    1.091627e+00
  2.126155e+01    1.097920e+00
  2.127743e+01    1.129933e+00
  2.129330e+01    1.125608e+00
  2.130918e+01    1.115324e+00
  2.132505e+01    1.122764e+00
  2.134093e+01    1.138660e+00
  2.135680e+01    1.157007e+00
  2.137268e+01    1.143009e+00
  2.138855e+01    1.146725e+00
  2.140443e+01    1.146758e+00
  2.142031e+01    1.162092e+00
  2.143618e+01    1.183634e+00
  2.145206e+01    1.217766e+00
  2.146793e+01    1.232911e+00
  2.148381e+01    1.256544e+00
  2.149968e+01    1.276284e+00
  2.151556e+01    1.304012e+00
  2.153143e+01    1.338989e+00
  2.154731e+01    1.349379e+00
  2.156319e+01    1.416043e+00
  2.157906e+01    1.464348e+00
  2.159494e+01    1.499319e+00
  2.161081e+01    1.599457e+00
  2.162669e+01    1.690471e+00
  2.164256e+01    1.792025e+00
  2.165844e+01    1.911575e+00
  2.167431e+01    2.107720e+00
  2.169019e+01    2.265539e+00
  2.170607e+01    2.515607e+00
  2.172194e+01    2.850153e+00
  2.173782e+01    3.182481e+00
  2.175369e+01    3.630257e+00
  2.176957e+01    4.164342e+00
  2.178544e+01    4.763776e+00
  2.180132e+01    5.466913e+00
  2.181719e+01    6.168889e+00
  2.183307e+01    6.852586e+00
  2.184895e+01    7.539374e+00
  2.186482e+01    8.276436e+00
  2.188070e+01    8.969515e+00
  2.189657e+01    9.285368e+00
  2.191245e+01    9.470239e+00
  2.192832e+01    9.171762e+00
  2.194420e+01    8.405279e+00
  2.196007e+01    7.422169e+00
  2.197595e+01    6.410612e+00
  2.199183e+01    5.481603e+00
  2.200770e+01    4.676465e+00
  2.202358e+01    3.949358e+00
  2.203945e+01    3.415561e+00
  2.205533e+01    2.970181e+00
  2.207120e+01    2.661695e+00
  2.208708e+01    2.375838e+00
  2.210296e+01    2.127106e+00
  2.211883e+01    1.954089e+00
  2.213471e+01    1.823930e+00
  2.215058e+01    1.721376e+00
  2.216646e+01    1.631234e+00
  2.218233e+01    1.552834e+00
  2.219821e+01    1.477400e+00
  2.221408e+01    1.413131e+00
  2.222996e+01    1.372101e+00
  2.224584e+01    1.307672e+00
  2.226171e+01    1.300016e+00
  2.227759e+01    1.248823e+00
  2.229346e+01    1.193602e+00
  2.230934e+01    1.181559e+00
  2.232521e+01    1.157360e+00
  2.234109e+01    1.136650e+00
  2.235696e+01    1.132688e+00
  2.237284e+01    1.106014e+00
  2.238872e+01    1.078072e+00
  2.240459e+01    1.078749e+00
  2.242047e+01    1.052311e+00
  2.243634e+01    1.069515e+00
  2.245222e+01    1.049066e+00
  2.246809e+01    1.027890e+00
  2.248397e+01    1.019835e+00
  2.249984e+01    1.003571e+00
  2.251572e+01    9.862606e-01
  2.253160e+01    9.808905e-01
  2.254747e+01    9.884954e-01
  2.256335e+01    1.001244e+00
  2.257922e+01    9.892457e-01
  2.259510e+01    9.674340e-01
  2.261097e+01    9.382297e-01
  2.262685e+01    9.395733e-01
  2.264272e+01    9.588000e-01
  2.265860e+01    9.385812e-01
  2.267448e+01    9.372213e-01
  2.269035e+01    9.452512e-01
  2.270623e+01    9.518572e-01
  2.272210e+01    9.381633e-01
  2.273798e+01    9.437703e-01
  2.275385e+01    9.297892e-01
  2.276973e+01    9.175605e-01
  2.278560e+01    9.362962e-01
  2.280148e+01    9.316176e-01
  2.281736e+01    9.286878e-01
  2.283323e+01    9.256518e-01
  2.284911e+01    9.286126e-01
  2.286498e+01    9.207893e-01
  2.288086e+01    9.089296e-01
  2.289673e+01    9.181937e-01
  2.291261e+01    9.187490e-01
  2.292848e+01    9.034573e-01
  2.294436e+01    9.016529e-01
  2.296024e+01    9.054418e-01
  2.297611e+01    9.127575e-01
  2.299199e+01    9.190473e-01
  2.300786e+01    9.029363e-01
  2.302374e+01    8.880907e-01
  2.303961e+01    8.882501e-01
  2.305549e+01    8.859208e-01
  2.307137e+01    8.943849e-01
  2.308724e+01    8.804992e-01
  2.310312e+01    8.772995e-01
  2.311899e+01    8.659390e-01
  2.313487e+01    8.905043e-01
  2.315074e+01    8.871881e-01
  2.316662e+01    8.804094e-01
  2.318249e+01    8.679141e-01
  2.319837e+01    8.703859e-01
  2.321425e+01    8.568593e-01
  2.323012e+01    8.629557e-01
  2.324600e+01    8.738108e-01
  2.326187e+01    8.517557e-01
  2.327775e+01    8.465411e-01
  2.329362e+01    8.469487e-01
  2.330950e+01    8.390763e-01
  2.332537e+01    8.524593e-01
  2.334125e+01    8.504326e-01
  2.335713e+01    8.477025e-01
  2.337300e+01    8.463218e-01
  2.338888e+01    8.464810e-01
  2.340475e+01    8.666362e-01
  2.342063e+01    8.506963e-01
  2.343650e+01    8.449916e-01
  2.345238e+01    8.487362e-01
  2.346825e+01    8.411381e-01
  2.348413e+01    8.489292e-01
  2.350001e+01    8.469713e-01
  2.351588e+01    8.421543e-01
  2.353176e+01    8.560809e-01
  2.354763e+01    8.384187e-01
  2.356351e+01    8.333140e-01
  2.357938e+01    8.364043e-01
  2.359526e+01    8.600832e-01
  2.361113e+01    8.576591e-01
  2.362701e+01    8.318156e-01
  2.364289e+01    8.557914e-01
  2.365876e+01    8.375664e-01
  2.367464e+01    8.127064e-01
  2.369051e+01    8.345339e-01
  2.370639e+01    8.067668e-01
  2.372226e+01    8.047904e-01
  2.373814e+01    8.279300e-01
  2.375401e+01    8.026658e-01
  2.376989e+01    8.004799e-01
  2.378577e+01    7.983800e-01
  2.380164e+01    8.015798e-01
  2.381752e+01    7.942713e-01
  2.383339e+01    7.942566e-01
  2.384927e+01    8.085520e-01
  2.386514e+01    8.013901e-01
  2.388102e+01    7.956898e-01
  2.389689e+01    7.827373e-01
  2.391277e+01    7.948477e-01
  2.392865e+01    7.985514e-01
  2.394452e+01    7.914085e-01
  2.396040e+01    7.612957e-01
  2.397627e+01    7.741685e-01
  2.399215e+01    7.779763e-01
  2.400802e+01    7.752971e-01
  2.402390e+01    7.897537e-01
  2.403978e+01    7.950442e-01
  2.405565e+01    7.892850e-01
  2.407153e+01    7.833347e-01
  2.408740e+01    7.779505e-01
  2.410328e+01    7.798424e-01
  2.411915e+01    7.639094e-01
  2.413503e+01    7.618711e-01
  2.415090e+01    7.689307e-01
  2.416678e+01    7.728690e-01
  2.418266e+01    7.627338e-01
  2.419853e+01    7.701699e-01
  2.421441e+01    7.605789e-01
  2.423028e+01    7.647943e-01
  2.424616e+01    7.864386e-01
  2.426203e+01    7.847503e-01
  2.427791e+01    7.884342e-01
  2.429378e+01    7.950379e-01
  2.430966e+01    7.866376e-01
  2.432554e+01    7.791861e-01
  2.434141e+01    7.677973e-01
  2.435729e+01    7.875571e-01
  2.437316e+01    7.835477e-01
  2.438904e+01    7.879837e-01
  2.440491e+01    7.887456e-01
  2.442079e+01    7.711753e-01
  2.443666e+01    7.724067e-01
  2.445254e+01    7.737756e-01
  2.446842e+01    7.694104e-01
  2.448429e+01    7.810126e-01
  2.450017e+01    7.737973e-01
  2.451604e+01    7.826257e-01
  2.453192e+01    7.970877e-01
  2.454779e+01    7.834765e-01
  2.456367e+01    7.892268e-01
  2.457954e+01    7.933490e-01
  2.459542e+01    8.090732e-01
  2.461130e+01    8.011687e-01
  2.462717e+01    7.972323e-01
  2.464305e+01    7.878730e-01
  2.465892e+01    7.854123e-01
  2.467480e+01    7.728073e-01
  2.469067e+01    7.734701e-01
  2.470655e+01    7.979558e-01
  2.472242e+01    8.000389e-01
  2.473830e+01    7.858062e-01
  2.475418e+01    7.866806e-01
  2.477005e+01    7.830923e-01
  2.478593e+01    7.713958e-01
  2.480180e+01    7.912986e-01
  2.481768e+01    7.985499e-01
  2.483355e+01    7.800095e-01
  2.484943e+01    7.884028e-01
  2.486530e+01    7.974443e-01
  2.488118e+01    7.982364e-01
  2.489706e+01    7.822045e-01
  2.491293e+01    7.890744e-01
  2.492881e+01    7.750072e-01
  2.494468e+01    8.149906e-01
  2.496056e+01    8.119334e-01
  2.497643e+01    7.983983e-01
  2.499231e+01    7.935984e-01
  2.500819e+01    7.634847e-01
  2.502406e+01    7.754179e-01
  2.503994e+01    7.885632e-01
  2.505581e+01    8.015016e-01
  2.507169e+01    8.083325e-01
  2.508756e+01    7.972815e-01
  2.510344e+01    8.014545e-01
  2.511931e+01    8.052331e-01
  2.513519e+01    8.119484e-01
  2.515107e+01    8.082368e-01
  2.516694e+01    8.176070e-01
  2.518282e+01    8.219138e-01
  2.519869e+01    8.227773e-01
  2.521457e+01    8.108826e-01
  2.523044e+01    8.066356e-01
  2.524632e+01    8.272935e-01
  2.526219e+01    8.663365e-01
  2.527807e+01    8.624169e-01
  2.529395e+01    8.645540e-01
  2.530982e+01    8.712602e-01
  2.532570e+01    8.589294e-01
  2.534157e+01    8.731387e-01
  2.535745e+01    8.789533e-01
  2.537332e+01    8.750693e-01
  2.538920e+01    9.014599e-01
  2.540507e+01    8.927817e-01
  2.542095e+01    9.042940e-01
  2.543683e+01    9.167836e-01
  2.545270e+01    9.321719e-01
  2.546858e+01    9.229980e-01
  2.548445e+01    9.325564e-01
  2.550033e+01    9.542105e-01
  2.551620e+01    9.839368e-01
  2.553208e+01    1.000995e+00
  2.554795e+01    1.021313e+00
  2.556383e+01    1.053686e+00
  2.557971e+01    1.067420e+00
  2.559558e+01    1.091780e+00
  2.561146e+01    1.113830e+00
  2.562733e+01    1.156423e+00
  2.564321e+01    1.206117e+00
  2.565908e+01    1.246449e+00
  2.567496e+01    1.292570e+00
  2.569083e+01    1.377821e+00
  2.570671e+01    1.480102e+00
  2.572259e+01    1.572190e+00
  2.573846e+01    1.701182e+00
  2.575434e+01    1.878602e+00
  2.577021e+01    2.038915e+00
  2.578609e+01    2.246274e+00
  2.580196e+01    2.556570e+00
  2.581784e+01    2.881657e+00
  2.583371e+01    3.289778e+00
  2.584959e+01    3.753631e+00
  2.586547e+01    4.321091e+00
  2.588134e+01    4.925712e+00
  2.589722e+01    5.551501e+00
  2.591309e+01    6.254750e+00
  2.592897e+01    6.902517e+00
  2.594484e+01    7.356567e+00
  2.596072e+01    7.659512e+00
  2.597660e+01    7.764310e+00
  2.599247e+01    7.472445e+00
  2.600835e+01    6.932228e+00
  2.602422e+01    6.281785e+00
  2.604010e+01    5.483528e+00
  2.605597e+01    4.719126e+00
  2.607185e+01    4.042016e+00
  2.608772e+01    3.461972e+00
  2.610360e+01    2.954396e+00
  2.611948e+01    2.594613e+00
  2.613535e+01    2.289857e+00
  2.615123e+01    2.076708e+00
  2.616710e+01    1.905721e+00
  2.618298e+01    1.755499e+00
  2.619885e+01    1.590049e+00
  2.621473e+01    1.495441e+00
  2.623060e+01    1.394743e+00
  2.624648e+01    1.306462e+00
  2.626236e+01    1.266828e+00
  2.627823e+01    1.203323e+00
  2.629411e+01    1.156589e+00
  2.630998e+01    1.120033e+00
  2.632586e+01    1.096239e+00
  2.634173e+01    1.080556e+00
  2.635761e+01    1.080751e+00
  2.637348e+01    1.044957e+00
  2.638936e+01    1.016051e+00
  2.640524e+01    9.829113e-01
  2.642111e+01    9.665906e-01
  2.643699e+01    9.794732e-01
  2.645286e+01    9.532262e-01
  2.646874e+01    9.498382e-01
  2.648461e+01    9.564456e-01
  2.650049e+01    9.251055e-01
  2.651636e+01    9.285918e-01
  2.653224e+01    9.215422e-01
  2.654812e+01    9.162018e-01
  2.656399e+01    9.255476e-01
  2.657987e+01    9.078130e-01
  2.659574e+01    8.926380e-01
  2.661162e+01    8.979564e-01
  2.662749e+01    8.907006e-01
  2.664337e+01    8.812936e-01
  2.665924e+01    9.077792e-01
  2.667512e+01    8.960884e-01
  2.669100e+01    8.818768e-01
  2.670687e+01    8.599919e-01
  2.672275e+01    8.604172e-01
  2.673862e+01    8.703725e-01
  2.675450e+01    8.788412e-01
  2.677037e+01    8.635035e-01
  2.678625e+01    8.743258e-01
  2.680212e+01    8.928707e-01
  2.681800e+01    9.095343e-01
  2.683388e+01    8.979061e-01
  2.684975e+01    9.089257e-01
  2.686563e+01    9.119557e-01
  2.688150e+01    9.132004e-01
  2.689738e+01    8.947327e-01
  2.691325e+01    8.845937e-01
  2.692913e+01    9.255969e-01
  2.694501e+01    9.358297e-01
  2.696088e+01    9.502816e-01
  2.697676e+01    9.728897e-01
  2.699263e+01    9.856132e-01
  2.700851e+01    1.027714e+00
  2.702438e+01    1.043511e+00
  2.704026e+01    1.066230e+00
  2.705613e+01    1.143363e+00
  2.707201e+01    1.229990e+00
  2.708789e+01    1.266439e+00
  2.710376e+01    1.342015e+00
  2.711964e+01    1.464910e+00
  2.713551e+01    1.628633e+00
  2.715139e+01    1.722739e+00
  2.716726e+01    1.857126e+00
  2.718314e+01    2.021937e+00
  2.719901e+01    2.133293e+00
  2.721489e+01    2.205975e+00
  2.723077e+01    2.282967e+00
  2.724664e+01    2.272865e+00
  2.726252e+01    2.192558e+00
  2.727839e+01    2.021779e+00
  2.729427e+01    1.855212e+00
  2.731014e+01    1.691975e+00
  2.732602e+01    1.567740e+00
  2.734189e+01    1.411618e+00
  2.735777e+01    1.294129e+00
  2.737365e+01    1.201380e+00
  2.738952e+01    1.134001e+00
  2.740540e+01    1.079484e+00
  2.742127e+01    1.033352e+00
  2.743715e+01    1.017421e+00
  2.745302e+01    9.679039e-01
  2.746890e+01    9.501668e-01
  2.748477e+01    9.444950e-01
  2.750065e+01    9.128438e-01
  2.751653e+01    9.080129e-01
  2.753240e+01    8.862802e-01
  2.754828e+01    8.771205e-01
  2.756415e+01    8.787601e-01
  2.758003e+01    8.437080e-01
  2.759590e+01    8.542778e-01
  2.761178e+01    8.432782e-01
  2.762765e+01    8.588664e-01
  2.764353e+01    8.479133e-01
  2.765941e+01    8.374551e-01
  2.767528e+01    8.439100e-01
  2.769116e+01    8.291648e-01
  2.770703e+01    8.015431e-01
  2.772291e+01    8.150950e-01
  2.773878e+01    7.996745e-01
  2.775466e+01    8.240533e-01
  2.777054e+01    8.110822e-01
  2.778641e+01    7.998282e-01
  2.780229e+01    8.076805e-01
  2.781816e+01    8.068891e-01
  2.783404e+01    7.893191e-01
  2.784991e+01    7.799950e-01
  2.786579e+01    7.954079e-01
  2.788166e+01    8.024279e-01
  2.789754e+01    8.073673e-01
  2.791342e+01    8.080346e-01
  2.792929e+01    8.067133e-01
  2.794517e+01    7.940172e-01
  2.796104e+01    7.961447e-01
  2.797692e+01    7.837248e-01
  2.799279e+01    7.774695e-01
  2.800867e+01    7.723801e-01
  2.802454e+01    7.897385e-01
  2.804042e+01    7.795218e-01
  2.805630e+01    7.817621e-01
  2.807217e+01    7.768917e-01
  2.808805e+01    7.881180e-01
  2.810392e+01    7.605495e-01
  2.811980e+01    7.827488e-01
  2.813567e+01    8.046681e-01
  2.815155e+01    7.878839e-01
  2.816742e+01    7.782065e-01
  2.818330e+01    7.728118e-01
  2.819918e+01    7.881532e-01
  2.821505e+01    7.553197e-01
  2.823093e+01    7.682387e-01
  2.824680e+01    7.618580e-01
  2.826268e+01    7.437276e-01
  2.827855e+01    7.616770e-01
  2.829443e+01    7.815508e-01
  2.831030e+01    7.722017e-01
  2.832618e+01    7.722161e-01
  2.834206e+01    7.571382e-01
  2.835793e+01    7.690694e-01
  2.837381e+01    7.874569e-01
  2.838968e+01    7.733591e-01
  2.840556e+01    7.733220e-01
  2.842143e+01    7.593248e-01
  2.843731e+01    7.517954e-01
  2.845318e+01    7.583108e-01
  2.846906e+01    7.657761e-01
  2.848494e+01    7.593980e-01
  2.850081e+01    7.723712e-01
  2.851669e+01    7.831232e-01
  2.853256e+01    7.566835e-01
  2.854844e+01    7.496353e-01
  2.856431e+01    7.400952e-01
  2.858019e+01    7.551722e-01
  2.859606e+01    7.653316e-01
  2.861194e+01    7.459431e-01
  2.862782e+01    7.565213e-01
  2.864369e+01    7.443367e-01
  2.865957e+01    7.247728e-01
  2.867544e+01    7.364466e-01
  2.869132e+01    7.275580e-01
  2.870719e+01    7.287804e-01
  2.872307e+01    7.388966e-01
  2.873895e+01    7.649770e-01
  2.875482e+01    7.659848e-01
  2.877070e+01    7.414007e-01
  2.878657e+01    7.651434e-01
  2.880245e+01    7.323208e-01
  2.881832e+01    7.389619e-01
  2.883420e+01    7.399307e-01
  2.885007e+01    7.512264e-01
  2.886595e+01    7.410660e-01
  2.888183e+01    7.327479e-01
  2.889770e+01    7.245187e-01
  2.891358e+01    7.462342e-01
  2.892945e+01    7.436994e-01
  2.894533e+01    7.422960e-01
  2.896120e+01    7.457022e-01
  2.897708e+01    7.527038e-01
  2.899295e+01    7.237327e-01
  2.900883e+01    7.282919e-01
  2.902471e+01    7.311931e-01
  2.904058e+01    7.208635e-01
  2.905646e+01    7.277024e-01
  2.907233e+01    7.149947e-01
  2.908821e+01    7.234089e-01
  2.910408e+01    7.130901e-01
  2.911996e+01    7.394993e-01
  2.913583e+01    7.202902e-01
  2.915171e+01    7.192107e-01
  2.916759e+01    7.206129e-01
  2.918346e+01    7.232865e-01
  2.919934e+01    7.425522e-01
  2.921521e+01    7.240824e-01
  2.923109e+01    7.203625e-01
  2.924696e+01    7.259290e-01
  2.926284e+01    7.239140e-01
  2.927871e+01    7.223345e-01
  2.929459e+01    7.267214e-01
  2.931047e+01    7.269450e-01
  2.932634e+01    7.164645e-01
  2.934222e+01    7.109396e-01
  2.935809e+01    7.046145e-01
  2.937397e+01    7.078813e-01
  2.938984e+01    7.179092e-01
  2.940572e+01    7.286938e-01
  2.942159e+01    7.079561e-01
  2.943747e+01    7.272878e-01
  2.945335e+01    7.241409e-01
  2.946922e+01    7.029677e-01
  2.948510e+01    7.160303e-01
  2.950097e+01    6.942170e-01
  2.951685e+01    6.951556e-01
  2.953272e+01    7.224804e-01
  2.954860e+01    7.047818e-01
  2.956447e+01    7.199815e-01
  2.958035e+01    7.247891e-01
  2.959623e+01    7.122090e-01
  2.961210e+01    7.196103e-01
  2.962798e+01    7.183959e-01
  2.964385e+01    7.217952e-01
  2.965973e+01    7.407271e-01
  2.967560e+01    7.209382e-01
  2.969148e+01    7.328370e-01
  2.970736e+01    7.196661e-01
  2.972323e+01    7.086821e-01
  2.973911e+01    7.090412e-01
  2.975498e+01    7.351744e-01
  2.977086e+01    7.084938e-01
  2.978673e+01    7.088671e-01
  2.980261e+01    7.143918e-01
  2.981848e+01    7.239723e-01
  2.983436e+01    7.056696e-01
  2.985024e+01    7.097715e-01
  2.986611e+01    7.193190e-01
  2.988199e+01    6.925732e-01
  2.989786e+01    7.103841e-01
  2.991374e+01    7.019404e-01
  2.992961e+01    7.165635e-01
  2.994549e+01    7.024770e-01
  2.996136e+01    6.844078e-01
  2.997724e+01    6.855495e-01
  2.999312e+01    7.182924e-01
  3.000899e+01    7.196775e-01
  3.002487e+01    7.203490e-01
  3.004074e+01    7.419110e-01
  3.005662e+01    7.455238e-01
  3.007249e+01    7.390867e-01
  3.008837e+01    7.455611e-01
  3.010424e+01    7.462925e-01
  3.012012e+01    7.160045e-01
  3.013600e+01    7.149917e-01
  3.015187e+01    7.066709e-01
  3.016775e+01    7.003224e-01
  3.018362e+01    7.138452e-01
  3.019950e+01    7.094485e-01
  3.021537e+01    7.225696e-01
  3.023125e+01    7.211901e-01
  3.024712e+01    7.098231e-01
  3.026300e+01    6.935331e-01
  3.027888e+01    7.002051e-01
  3.029475e+01    7.159330e-01
  3.031063e+01    7.072225e-01
  3.032650e+01    7.014284e-01
  3.034238e+01    7.104324e-01
  3.035825e+01    6.971586e-01
  3.037413e+01    6.986484e-01
  3.039000e+01    7.077227e-01
  3.040588e+01    6.852944e-01
  3.042176e+01    6.888463e-01
  3.043763e+01    6.993434e-01
  3.045351e+01    7.142649e-01
  3.046938e+01    7.075104e-01
  3.048526e+01    7.089545e-01
  3.050113e+01    7.058179e-01
  3.051701e+01    7.009826e-01
  3.053288e+01    7.019510e-01
  3.054876e+01    6.979439e-01
  3.056464e+01    6.962962e-01
  3.058051e+01    7.117493e-01
  3.059639e+01    6.978290e-01
  3.061226e+01    7.191098e-01
  3.062814e+01    7.106465e-01
  3.064401e+01    7.017071e-01
  3.065989e+01    7.121761e-01
  3.067577e+01    7.014643e-01
  3.069164e+01    6.975650e-01
  3.070752e+01    7.086849e-01
  3.072339e+01    7.045752e-01
  3.073927e+01    7.199626e-01
  3.075514e+01    7.267199e-01
  3.077102e+01    7.088647e-01
  3.078689e+01    7.191883e-01
  3.080277e+01    6.886128e-01
  3.081865e+01    7.085080e-01
  3.083452e+01    6.922223e-01
  3.085040e+01    7.147121e-01
  3.086627e+01    7.121690e-01
  3.088215e+01    6.940885e-01
  3.089802e+01    7.098895e-01
  3.091390e+01    7.204044e-01
  3.092977e+01    7.377517e-01
  3.094565e+01    7.323223e-01
  3.096153e+01    7.063079e-01
  3.097740e+01    7.264785e-01
  3.099328e+01    7.170816e-01
  3.100915e+01    7.142709e-01
  3.102503e+01    7.093258e-01
  3.104090e+01    7.183277e-01
  3.105678e+01    7.203233e-01
  3.107265e+01    7.107211e-01
  3.108853e+01    7.057933e-01
  3.110441e+01    7.025066e-01
  3.112028e+01    7.062369e-01
  3.113616e+01    7.153296e-01
  3.115203e+01    7.194287e-01
  3.116791e+01    7.093691e-01
  3.118378e+01    7.123427e-01
  3.119966e+01    7.248844e-01
  3.121553e+01    7.151206e-01
  3.123141e+01    7.396374e-01
  3.124729e+01    7.372937e-01
  3.126316e+01    7.221300e-01
  3.127904e+01    7.476696e-01
  3.129491e+01    7.376972e-01
  3.131079e+01    7.232580e-01
  3.132666e+01    7.412571e-01
  3.134254e+01    7.395124e-01
  3.135841e+01    7.574202e-01
  3.137429e+01    7.196029e-01
  3.139017e+01    7.296071e-01
  3.140604e+01    7.364840e-01
  3.142192e+01    7.366266e-01
  3.143779e+01    7.313031e-01
  3.145367e+01    7.437825e-01
  3.146954e+01    7.550861e-01
  3.148542e+01    7.629679e-01
  3.150129e+01    7.761028e-01
  3.151717e+01    7.627311e-01
  3.153305e+01    7.664045e-01
  3.154892e+01    7.793454e-01
  3.156480e+01    7.761704e-01
  3.158067e+01    8.015049e-01
  3.159655e+01    8.079322e-01
  3.161242e+01    8.095157e-01
  3.162830e+01    8.297653e-01
  3.164418e+01    8.580098e-01
  3.166005e+01    8.821098e-01
  3.167593e+01    8.988552e-01
  3.169180e+01    9.005561e-01
  3.170768e+01    9.362144e-01
  3.172355e+01    9.819914e-01
  3.173943e+01    1.024857e+00
  3.175530e+01    1.102632e+00
  3.177118e+01    1.152424e+00
  3.178706e+01    1.235816e+00
  3.180293e+01    1.345538e+00
  3.181881e+01    1.481878e+00
  3.183468e+01    1.607138e+00
  3.185056e+01    1.735368e+00
  3.186643e+01    1.918110e+00
  3.188231e+01    2.060722e+00
  3.189818e+01    2.194581e+00
  3.191406e+01    2.237014e+00
  3.192994e+01    2.301067e+00
  3.194581e+01    2.211692e+00
  3.196169e+01    2.065582e+00
  3.197756e+01    1.925453e+00
  3.199344e+01    1.756452e+00
  3.200931e+01    1.571908e+00
  3.202519e+01    1.425799e+00
  3.204106e+01    1.289855e+00
  3.205694e+01    1.211339e+00
  3.207282e+01    1.113120e+00
  3.208869e+01    1.072332e+00
  3.210457e+01    1.018021e+00
  3.212044e+01    9.409068e-01
  3.213632e+01    9.073091e-01
  3.215219e+01    9.038668e-01
  3.216807e+01    8.865806e-01
  3.218394e+01    8.656797e-01
  3.219982e+01    8.473154e-01
  3.221570e+01    8.210015e-01
  3.223157e+01    7.903729e-01
  3.224745e+01    7.780592e-01
  3.226332e+01    7.789595e-01
  3.227920e+01    7.829112e-01
  3.229507e+01    7.924262e-01
  3.231095e+01    7.870293e-01
  3.232682e+01    7.656657e-01
  3.234270e+01    7.671982e-01
  3.235858e+01    7.427278e-01
  3.237445e+01    7.423052e-01
  3.239033e+01    7.684575e-01
  3.240620e+01    7.522088e-01
  3.242208e+01    7.165728e-01
  3.243795e+01    7.133737e-01
  3.245383e+01    7.120124e-01
  3.246970e+01    6.944994e-01
  3.248558e+01    7.148734e-01
  3.250146e+01    7.165510e-01
  3.251733e+01    7.162138e-01
  3.253321e+01    7.291802e-01
  3.254908e+01    7.124755e-01
