# == pyFAI calibration ==
# Distance Sample to Detector: 0.3999999939076516 m
# PONI: 9.750e-02, 1.135e-01 m
# Rotations: -0.000175 0.000000 -0.000000 rad
# 
# == Fit2d calibration ==
# Distance Sample-beamCenter: 400.000 mm
# Center: x=1514.000, y=1300.000 pix
# Tilt: 0.010 deg  TiltPlanRot: 0.010 deg
# 
# Detector Detector	 Spline= None	 PixelSize= 7.500e-05, 7.500e-05 m
#    Detector has a mask: False 
#    Detector has a dark current: False 
#    detector has a flat field: False 
# 
# Wavelength: 6.888e-11 m
# Mask applied: user provided
# Dark current applied: False
# Flat field applied: False
# Polarization factor: 0.99
# Normalization factor: 1.0
# --> /home/myspot/data/2024_07_Rosario/Ru-CGO-ex/2024-07-27_002_Ru-CGO-ex_Activtation_ramp_000002_data_000148.dat
#       q_nm^-1             I 
  2.003187e-02    2.849293e-01
  3.590745e-02    0.000000e+00
  5.178302e-02    0.000000e+00
  6.765859e-02    0.000000e+00
  8.353417e-02    0.000000e+00
  9.940974e-02    5.357010e-02
  1.152853e-01    5.084283e-02
  1.311609e-01    0.000000e+00
  1.470365e-01    0.000000e+00
  1.629120e-01    1.424534e-02
  1.787876e-01    6.363293e-02
  1.946632e-01    4.985713e-02
  2.105388e-01    7.384843e-02
  2.264143e-01    8.915457e-02
  2.422899e-01    4.879234e-02
  2.581655e-01    2.330548e-02
  2.740411e-01    1.384592e-02
  2.899166e-01    2.026121e-02
  3.057922e-01    4.664678e-02
  3.216678e-01    4.230639e-02
  3.375433e-01    5.956952e-03
  3.534189e-01    1.240127e-02
  3.692945e-01    2.121465e-02
  3.851701e-01    5.077009e-02
  4.010456e-01    3.344687e-02
  4.169212e-01    3.361300e-02
  4.327968e-01    3.991944e-02
  4.486724e-01    4.722256e-02
  4.645479e-01    5.007319e-02
  4.804235e-01    2.733566e-02
  4.962991e-01    3.761597e-02
  5.121747e-01    3.563403e-02
  5.280502e-01    1.817914e-02
  5.439258e-01    3.957547e-02
  5.598014e-01    5.714155e-02
  5.756770e-01    5.919353e-02
  5.915525e-01    2.749030e-02
  6.074281e-01    2.654448e-02
  6.233037e-01    3.322318e-02
  6.391793e-01    2.323066e-02
  6.550548e-01    3.795846e-02
  6.709304e-01    3.738314e-02
  6.868060e-01    3.544345e-02
  7.026815e-01    3.331214e-02
  7.185571e-01    2.963113e-02
  7.344327e-01    4.221994e-02
  7.503083e-01    6.916384e-02
  7.661838e-01    8.695497e-02
  7.820594e-01    1.380261e-01
  7.979350e-01    1.860578e-01
  8.138106e-01    1.954166e-01
  8.296861e-01    2.635418e-01
  8.455617e-01    2.899913e-01
  8.614373e-01    3.394869e-01
  8.773129e-01    3.950402e-01
  8.931884e-01    4.836303e-01
  9.090640e-01    6.111828e-01
  9.249396e-01    6.281589e-01
  9.408152e-01    6.883983e-01
  9.566907e-01    7.735667e-01
  9.725663e-01    8.254182e-01
  9.884419e-01    9.229618e-01
  1.004317e+00    1.049878e+00
  1.020193e+00    1.079129e+00
  1.036069e+00    1.164303e+00
  1.051944e+00    1.228085e+00
  1.067820e+00    1.377221e+00
  1.083695e+00    1.377765e+00
  1.099571e+00    1.357475e+00
  1.115446e+00    1.302730e+00
  1.131322e+00    1.407156e+00
  1.147198e+00    1.472066e+00
  1.163073e+00    1.486031e+00
  1.178949e+00    1.479604e+00
  1.194824e+00    1.655519e+00
  1.210700e+00    1.905450e+00
  1.226575e+00    2.105700e+00
  1.242451e+00    2.208361e+00
  1.258327e+00    2.241266e+00
  1.274202e+00    2.331530e+00
  1.290078e+00    2.376368e+00
  1.305953e+00    2.356514e+00
  1.321829e+00    2.473310e+00
  1.337705e+00    2.483656e+00
  1.353580e+00    2.512836e+00
  1.369456e+00    2.538088e+00
  1.385331e+00    2.534560e+00
  1.401207e+00    2.521940e+00
  1.417082e+00    2.642457e+00
  1.432958e+00    2.765471e+00
  1.448834e+00    2.734978e+00
  1.464709e+00    2.854118e+00
  1.480585e+00    2.931685e+00
  1.496460e+00    2.830679e+00
  1.512336e+00    2.752315e+00
  1.528211e+00    2.951454e+00
  1.544087e+00    3.033266e+00
  1.559963e+00    2.810186e+00
  1.575838e+00    2.821836e+00
  1.591714e+00    2.913187e+00
  1.607589e+00    2.950600e+00
  1.623465e+00    2.930818e+00
  1.639340e+00    2.852994e+00
  1.655216e+00    2.752746e+00
  1.671092e+00    2.723011e+00
  1.686967e+00    2.750718e+00
  1.702843e+00    2.809157e+00
  1.718718e+00    2.705653e+00
  1.734594e+00    2.805299e+00
  1.750469e+00    2.737105e+00
  1.766345e+00    2.708787e+00
  1.782221e+00    2.804690e+00
  1.798096e+00    2.767164e+00
  1.813972e+00    2.771549e+00
  1.829847e+00    2.695999e+00
  1.845723e+00    2.819902e+00
  1.861598e+00    2.776573e+00
  1.877474e+00    2.632148e+00
  1.893350e+00    2.683627e+00
  1.909225e+00    2.670024e+00
  1.925101e+00    2.678159e+00
  1.940976e+00    2.658348e+00
  1.956852e+00    2.596189e+00
  1.972727e+00    2.657004e+00
  1.988603e+00    2.739615e+00
  2.004479e+00    2.676590e+00
  2.020354e+00    2.689750e+00
  2.036230e+00    2.702662e+00
  2.052105e+00    2.727970e+00
  2.067981e+00    2.743006e+00
  2.083856e+00    2.697659e+00
  2.099732e+00    2.751367e+00
  2.115608e+00    2.732310e+00
  2.131483e+00    2.747223e+00
  2.147359e+00    2.752304e+00
  2.163234e+00    2.638861e+00
  2.179110e+00    2.671305e+00
  2.194985e+00    2.644954e+00
  2.210861e+00    2.633449e+00
  2.226737e+00    2.633346e+00
  2.242612e+00    2.621132e+00
  2.258488e+00    2.746841e+00
  2.274363e+00    2.794419e+00
  2.290239e+00    2.676787e+00
  2.306115e+00    2.717368e+00
  2.321990e+00    2.821810e+00
  2.337866e+00    2.847080e+00
  2.353741e+00    2.796716e+00
  2.369617e+00    2.668686e+00
  2.385492e+00    2.790673e+00
  2.401368e+00    2.814423e+00
  2.417244e+00    2.776966e+00
  2.433119e+00    2.808762e+00
  2.448995e+00    2.784214e+00
  2.464870e+00    2.794562e+00
  2.480746e+00    2.813731e+00
  2.496621e+00    2.809676e+00
  2.512497e+00    2.678479e+00
  2.528373e+00    2.759868e+00
  2.544248e+00    2.766120e+00
  2.560124e+00    2.723204e+00
  2.575999e+00    2.746669e+00
  2.591875e+00    2.772699e+00
  2.607750e+00    2.724092e+00
  2.623626e+00    2.611357e+00
  2.639502e+00    2.685367e+00
  2.655377e+00    2.764856e+00
  2.671253e+00    2.839845e+00
  2.687128e+00    2.820091e+00
  2.703004e+00    2.743455e+00
  2.718879e+00    2.734974e+00
  2.734755e+00    2.793429e+00
  2.750631e+00    2.734411e+00
  2.766506e+00    2.751917e+00
  2.782382e+00    2.806058e+00
  2.798257e+00    2.806801e+00
  2.814133e+00    2.810492e+00
  2.830008e+00    2.820917e+00
  2.845884e+00    2.814687e+00
  2.861760e+00    2.792235e+00
  2.877635e+00    2.778805e+00
  2.893511e+00    2.875774e+00
  2.909386e+00    2.936733e+00
  2.925262e+00    2.809724e+00
  2.941137e+00    2.903693e+00
  2.957013e+00    2.875545e+00
  2.972889e+00    2.888308e+00
  2.988764e+00    2.954614e+00
  3.004640e+00    2.920260e+00
  3.020515e+00    2.828345e+00
  3.036391e+00    2.852400e+00
  3.052266e+00    2.848130e+00
  3.068142e+00    2.893808e+00
  3.084018e+00    2.857696e+00
  3.099893e+00    2.914190e+00
  3.115769e+00    2.934227e+00
  3.131644e+00    2.877761e+00
  3.147520e+00    2.892065e+00
  3.163395e+00    2.902321e+00
  3.179271e+00    2.780154e+00
  3.195147e+00    2.840587e+00
  3.211022e+00    2.897153e+00
  3.226898e+00    2.961649e+00
  3.242773e+00    2.935147e+00
  3.258649e+00    2.840617e+00
  3.274525e+00    2.973510e+00
  3.290400e+00    2.981623e+00
  3.306276e+00    2.887962e+00
  3.322151e+00    2.899183e+00
  3.338027e+00    2.920809e+00
  3.353902e+00    2.910414e+00
  3.369778e+00    2.903455e+00
  3.385654e+00    2.974852e+00
  3.401529e+00    3.001957e+00
  3.417405e+00    2.963103e+00
  3.433280e+00    2.884346e+00
  3.449156e+00    2.938520e+00
  3.465031e+00    2.925605e+00
  3.480907e+00    2.953695e+00
  3.496783e+00    2.927611e+00
  3.512658e+00    2.894427e+00
  3.528534e+00    2.890905e+00
  3.544409e+00    2.954773e+00
  3.560285e+00    2.953713e+00
  3.576160e+00    2.979047e+00
  3.592036e+00    2.945213e+00
  3.607912e+00    2.952532e+00
  3.623787e+00    3.004589e+00
  3.639663e+00    2.931472e+00
  3.655538e+00    2.921617e+00
  3.671414e+00    2.949520e+00
  3.687289e+00    2.948035e+00
  3.703165e+00    2.938753e+00
  3.719041e+00    2.912264e+00
  3.734916e+00    2.993579e+00
  3.750792e+00    2.978619e+00
  3.766667e+00    2.902894e+00
  3.782543e+00    2.963364e+00
  3.798418e+00    3.028541e+00
  3.814294e+00    2.916177e+00
  3.830170e+00    3.013626e+00
  3.846045e+00    3.056459e+00
  3.861921e+00    2.955916e+00
  3.877796e+00    3.030669e+00
  3.893672e+00    3.042236e+00
  3.909547e+00    2.983875e+00
  3.925423e+00    2.967366e+00
  3.941299e+00    3.010499e+00
  3.957174e+00    3.035641e+00
  3.973050e+00    3.039946e+00
  3.988925e+00    2.973049e+00
  4.004801e+00    2.969048e+00
  4.020676e+00    3.098612e+00
  4.036552e+00    3.030929e+00
  4.052428e+00    3.042639e+00
  4.068303e+00    2.958966e+00
  4.084179e+00    2.955094e+00
  4.100054e+00    3.000070e+00
  4.115930e+00    2.998792e+00
  4.131806e+00    2.989228e+00
  4.147681e+00    3.066036e+00
  4.163557e+00    3.018741e+00
  4.179432e+00    3.023922e+00
  4.195308e+00    3.153636e+00
  4.211183e+00    3.091012e+00
  4.227059e+00    3.093427e+00
  4.242935e+00    3.042936e+00
  4.258810e+00    3.035551e+00
  4.274686e+00    2.979434e+00
  4.290561e+00    2.994686e+00
  4.306437e+00    3.046149e+00
  4.322312e+00    3.069290e+00
  4.338188e+00    3.078452e+00
  4.354064e+00    3.025852e+00
  4.369939e+00    3.003623e+00
  4.385815e+00    3.131055e+00
  4.401690e+00    3.163401e+00
  4.417566e+00    3.093905e+00
  4.433441e+00    3.025290e+00
  4.449317e+00    3.058617e+00
  4.465193e+00    3.102580e+00
  4.481068e+00    3.058731e+00
  4.496944e+00    2.975691e+00
  4.512819e+00    3.077899e+00
  4.528695e+00    3.084226e+00
  4.544570e+00    3.056819e+00
  4.560446e+00    3.083124e+00
  4.576322e+00    3.058686e+00
  4.592197e+00    3.082469e+00
  4.608073e+00    3.088351e+00
  4.623948e+00    3.110211e+00
  4.639824e+00    3.094316e+00
  4.655699e+00    3.107007e+00
  4.671575e+00    3.095403e+00
  4.687451e+00    3.142308e+00
  4.703326e+00    3.129335e+00
  4.719202e+00    3.074836e+00
  4.735077e+00    3.027916e+00
  4.750953e+00    3.055023e+00
  4.766828e+00    3.127585e+00
  4.782704e+00    3.107635e+00
  4.798580e+00    3.123040e+00
  4.814455e+00    3.116890e+00
  4.830331e+00    3.120514e+00
  4.846206e+00    3.116435e+00
  4.862082e+00    3.124009e+00
  4.877957e+00    3.170812e+00
  4.893833e+00    3.072291e+00
  4.909709e+00    3.013824e+00
  4.925584e+00    3.089203e+00
  4.941460e+00    3.017828e+00
  4.957335e+00    3.027453e+00
  4.973211e+00    3.138466e+00
  4.989086e+00    3.143330e+00
  5.004962e+00    3.135394e+00
  5.020838e+00    3.146885e+00
  5.036713e+00    3.098247e+00
  5.052589e+00    3.125174e+00
  5.068464e+00    3.084874e+00
  5.084340e+00    3.088665e+00
  5.100216e+00    3.175782e+00
  5.116091e+00    3.097069e+00
  5.131967e+00    3.132029e+00
  5.147842e+00    3.208460e+00
  5.163718e+00    3.092036e+00
  5.179593e+00    3.099885e+00
  5.195469e+00    3.122463e+00
  5.211345e+00    3.165390e+00
  5.227220e+00    3.156533e+00
  5.243096e+00    3.099212e+00
  5.258971e+00    3.124760e+00
  5.274847e+00    3.089486e+00
  5.290722e+00    3.135254e+00
  5.306598e+00    3.164257e+00
  5.322474e+00    3.195761e+00
  5.338349e+00    3.195650e+00
  5.354225e+00    3.172645e+00
  5.370100e+00    3.130089e+00
  5.385976e+00    3.164144e+00
  5.401851e+00    3.105234e+00
  5.417727e+00    3.104672e+00
  5.433603e+00    3.115570e+00
  5.449478e+00    3.005886e+00
  5.465354e+00    3.067343e+00
  5.481229e+00    3.043644e+00
  5.497105e+00    3.074101e+00
  5.512980e+00    3.097560e+00
  5.528856e+00    3.105846e+00
  5.544732e+00    3.054077e+00
  5.560607e+00    3.037023e+00
  5.576483e+00    3.029651e+00
  5.592358e+00    3.122336e+00
  5.608234e+00    3.123515e+00
  5.624109e+00    3.090134e+00
  5.639985e+00    3.012620e+00
  5.655861e+00    3.088468e+00
  5.671736e+00    3.157976e+00
  5.687612e+00    2.995459e+00
  5.703487e+00    3.000218e+00
  5.719363e+00    3.119580e+00
  5.735238e+00    3.134719e+00
  5.751114e+00    3.072247e+00
  5.766990e+00    3.058135e+00
  5.782865e+00    3.045597e+00
  5.798741e+00    3.014094e+00
  5.814616e+00    3.074104e+00
  5.830492e+00    3.086636e+00
  5.846367e+00    3.076149e+00
  5.862243e+00    2.989874e+00
  5.878119e+00    3.022467e+00
  5.893994e+00    3.029097e+00
  5.909870e+00    2.967000e+00
  5.925745e+00    2.918647e+00
  5.941621e+00    2.908035e+00
  5.957497e+00    2.965327e+00
  5.973372e+00    3.072632e+00
  5.989248e+00    3.047078e+00
  6.005123e+00    2.998328e+00
  6.020999e+00    3.030602e+00
  6.036874e+00    3.041504e+00
  6.052750e+00    2.966479e+00
  6.068626e+00    3.070957e+00
  6.084501e+00    3.137783e+00
  6.100377e+00    3.137880e+00
  6.116252e+00    3.055413e+00
  6.132128e+00    2.958386e+00
  6.148003e+00    3.006963e+00
  6.163879e+00    3.114668e+00
  6.179755e+00    3.070932e+00
  6.195630e+00    3.012007e+00
  6.211506e+00    3.100390e+00
  6.227381e+00    3.060418e+00
  6.243257e+00    2.979887e+00
  6.259132e+00    2.972116e+00
  6.275008e+00    3.023285e+00
  6.290884e+00    3.030500e+00
  6.306759e+00    3.023282e+00
  6.322635e+00    3.012212e+00
  6.338510e+00    2.991610e+00
  6.354386e+00    2.997569e+00
  6.370261e+00    2.998843e+00
  6.386137e+00    2.973516e+00
  6.402013e+00    3.032925e+00
  6.417888e+00    3.063035e+00
  6.433764e+00    3.013349e+00
  6.449639e+00    3.076909e+00
  6.465515e+00    3.030901e+00
  6.481390e+00    2.990157e+00
  6.497266e+00    3.001888e+00
  6.513142e+00    3.059942e+00
  6.529017e+00    3.073452e+00
  6.544893e+00    3.091408e+00
  6.560768e+00    3.086902e+00
  6.576644e+00    3.011857e+00
  6.592519e+00    2.990257e+00
  6.608395e+00    3.017700e+00
  6.624271e+00    3.023583e+00
  6.640146e+00    3.073983e+00
  6.656022e+00    3.003868e+00
  6.671897e+00    3.052706e+00
  6.687773e+00    3.009578e+00
  6.703648e+00    3.028343e+00
  6.719524e+00    3.052071e+00
  6.735400e+00    2.977882e+00
  6.751275e+00    2.947137e+00
  6.767151e+00    3.000341e+00
  6.783026e+00    3.021214e+00
  6.798902e+00    3.013521e+00
  6.814777e+00    3.040414e+00
  6.830653e+00    3.048646e+00
  6.846529e+00    2.995021e+00
  6.862404e+00    2.946850e+00
  6.878280e+00    3.008249e+00
  6.894155e+00    2.968533e+00
  6.910031e+00    2.927164e+00
  6.925907e+00    2.955308e+00
  6.941782e+00    2.953618e+00
  6.957658e+00    2.976025e+00
  6.973533e+00    3.049836e+00
  6.989409e+00    2.990102e+00
  7.005284e+00    3.006812e+00
  7.021160e+00    3.043435e+00
  7.037036e+00    2.996122e+00
  7.052911e+00    2.956041e+00
  7.068787e+00    2.946609e+00
  7.084662e+00    2.938887e+00
  7.100538e+00    3.005881e+00
  7.116413e+00    3.005066e+00
  7.132289e+00    3.012767e+00
  7.148165e+00    3.067795e+00
  7.164040e+00    3.038481e+00
  7.179916e+00    3.009181e+00
  7.195791e+00    3.023097e+00
  7.211667e+00    3.060282e+00
  7.227542e+00    3.017256e+00
  7.243418e+00    2.966166e+00
  7.259294e+00    2.998767e+00
  7.275169e+00    3.057827e+00
  7.291045e+00    3.053247e+00
  7.306920e+00    3.001520e+00
  7.322796e+00    3.007503e+00
  7.338671e+00    3.027939e+00
  7.354547e+00    3.022758e+00
  7.370423e+00    3.001286e+00
  7.386298e+00    3.029515e+00
  7.402174e+00    3.044164e+00
  7.418049e+00    2.929410e+00
  7.433925e+00    2.945463e+00
  7.449800e+00    3.020957e+00
  7.465676e+00    2.974331e+00
  7.481552e+00    2.918082e+00
  7.497427e+00    2.939524e+00
  7.513303e+00    3.001448e+00
  7.529178e+00    3.073405e+00
  7.545054e+00    2.989884e+00
  7.560929e+00    2.955098e+00
  7.576805e+00    2.954369e+00
  7.592681e+00    2.966511e+00
  7.608556e+00    2.955847e+00
  7.624432e+00    2.917824e+00
  7.640307e+00    2.909611e+00
  7.656183e+00    2.956717e+00
  7.672058e+00    3.004958e+00
  7.687934e+00    2.994074e+00
  7.703810e+00    2.991151e+00
  7.719685e+00    2.955442e+00
  7.735561e+00    2.938262e+00
  7.751436e+00    2.959065e+00
  7.767312e+00    2.969476e+00
  7.783187e+00    3.028013e+00
  7.799063e+00    2.981004e+00
  7.814939e+00    2.960766e+00
  7.830814e+00    2.982126e+00
  7.846690e+00    2.925771e+00
  7.862565e+00    2.936564e+00
  7.878441e+00    2.919398e+00
  7.894317e+00    2.925545e+00
  7.910192e+00    2.930364e+00
  7.926068e+00    2.863158e+00
  7.941943e+00    2.898903e+00
  7.957819e+00    2.932542e+00
  7.973694e+00    2.900680e+00
  7.989570e+00    2.870119e+00
  8.005446e+00    2.878647e+00
  8.021321e+00    2.903710e+00
  8.037197e+00    2.911552e+00
  8.053072e+00    2.901242e+00
  8.068948e+00    2.871314e+00
  8.084823e+00    2.973275e+00
  8.100699e+00    2.984737e+00
  8.116575e+00    3.018621e+00
  8.132450e+00    2.949228e+00
  8.148326e+00    2.921624e+00
  8.164201e+00    2.912470e+00
  8.180077e+00    2.938741e+00
  8.195952e+00    2.978689e+00
  8.211828e+00    2.923575e+00
  8.227704e+00    2.993237e+00
  8.243579e+00    2.981757e+00
  8.259455e+00    2.946095e+00
  8.275330e+00    2.880539e+00
  8.291206e+00    2.898899e+00
  8.307081e+00    2.896922e+00
  8.322957e+00    2.889676e+00
  8.338833e+00    2.935104e+00
  8.354708e+00    2.893742e+00
  8.370584e+00    2.852921e+00
  8.386459e+00    2.855810e+00
  8.402335e+00    2.874126e+00
  8.418210e+00    2.806507e+00
  8.434086e+00    2.895343e+00
  8.449962e+00    2.943534e+00
  8.465837e+00    2.861479e+00
  8.481713e+00    2.911064e+00
  8.497588e+00    2.952073e+00
  8.513464e+00    2.872584e+00
  8.529339e+00    2.796383e+00
  8.545215e+00    2.773279e+00
  8.561091e+00    2.792849e+00
  8.576966e+00    2.814886e+00
  8.592842e+00    2.855768e+00
  8.608717e+00    2.831455e+00
  8.624593e+00    2.799466e+00
  8.640468e+00    2.802798e+00
  8.656344e+00    2.797708e+00
  8.672220e+00    2.852664e+00
  8.688095e+00    2.797722e+00
  8.703971e+00    2.813482e+00
  8.719846e+00    2.845785e+00
  8.735722e+00    2.825435e+00
  8.751598e+00    2.858335e+00
  8.767473e+00    2.838428e+00
  8.783349e+00    2.837881e+00
  8.799224e+00    2.810735e+00
  8.815100e+00    2.809851e+00
  8.830975e+00    2.823340e+00
  8.846851e+00    2.768386e+00
  8.862727e+00    2.802787e+00
  8.878602e+00    2.796209e+00
  8.894478e+00    2.806233e+00
  8.910353e+00    2.856129e+00
  8.926229e+00    2.858849e+00
  8.942104e+00    2.850800e+00
  8.957980e+00    2.810562e+00
  8.973856e+00    2.813736e+00
  8.989731e+00    2.809759e+00
  9.005607e+00    2.762096e+00
  9.021482e+00    2.767221e+00
  9.037358e+00    2.793027e+00
  9.053233e+00    2.810269e+00
  9.069109e+00    2.749394e+00
  9.084985e+00    2.784372e+00
  9.100860e+00    2.812020e+00
  9.116736e+00    2.801523e+00
  9.132611e+00    2.763895e+00
  9.148487e+00    2.810821e+00
  9.164362e+00    2.790683e+00
  9.180238e+00    2.710682e+00
  9.196114e+00    2.734837e+00
  9.211989e+00    2.797385e+00
  9.227865e+00    2.779293e+00
  9.243740e+00    2.702010e+00
  9.259616e+00    2.660098e+00
  9.275491e+00    2.706159e+00
  9.291367e+00    2.749471e+00
  9.307243e+00    2.787318e+00
  9.323118e+00    2.788559e+00
  9.338994e+00    2.751746e+00
  9.354869e+00    2.759025e+00
  9.370745e+00    2.772044e+00
  9.386620e+00    2.751742e+00
  9.402496e+00    2.746140e+00
  9.418372e+00    2.741514e+00
  9.434247e+00    2.780179e+00
  9.450123e+00    2.779802e+00
  9.465998e+00    2.799320e+00
  9.481874e+00    2.807185e+00
  9.497749e+00    2.759436e+00
  9.513625e+00    2.768599e+00
  9.529501e+00    2.781019e+00
  9.545376e+00    2.794337e+00
  9.561252e+00    2.725363e+00
  9.577127e+00    2.717545e+00
  9.593003e+00    2.757984e+00
  9.608878e+00    2.753357e+00
  9.624754e+00    2.744063e+00
  9.640630e+00    2.684627e+00
  9.656505e+00    2.781383e+00
  9.672381e+00    2.740622e+00
  9.688256e+00    2.728799e+00
  9.704132e+00    2.729968e+00
  9.720008e+00    2.730344e+00
  9.735883e+00    2.746953e+00
  9.751759e+00    2.685013e+00
  9.767634e+00    2.701800e+00
  9.783510e+00    2.714710e+00
  9.799385e+00    2.695201e+00
  9.815261e+00    2.654608e+00
  9.831137e+00    2.708442e+00
  9.847012e+00    2.745512e+00
  9.862888e+00    2.696201e+00
  9.878763e+00    2.674287e+00
  9.894639e+00    2.719955e+00
  9.910514e+00    2.678627e+00
  9.926390e+00    2.657662e+00
  9.942266e+00    2.682328e+00
  9.958141e+00    2.685705e+00
  9.974017e+00    2.664210e+00
  9.989892e+00    2.641225e+00
  1.000577e+01    2.658226e+00
  1.002164e+01    2.640821e+00
  1.003752e+01    2.636095e+00
  1.005339e+01    2.688451e+00
  1.006927e+01    2.670485e+00
  1.008515e+01    2.679806e+00
  1.010102e+01    2.642367e+00
  1.011690e+01    2.624367e+00
  1.013277e+01    2.628353e+00
  1.014865e+01    2.625103e+00
  1.016452e+01    2.609110e+00
  1.018040e+01    2.633644e+00
  1.019627e+01    2.667852e+00
  1.021215e+01    2.636029e+00
  1.022803e+01    2.642471e+00
  1.024390e+01    2.635637e+00
  1.025978e+01    2.595339e+00
  1.027565e+01    2.598584e+00
  1.029153e+01    2.600383e+00
  1.030740e+01    2.617403e+00
  1.032328e+01    2.653042e+00
  1.033915e+01    2.650459e+00
  1.035503e+01    2.632725e+00
  1.037091e+01    2.570597e+00
  1.038678e+01    2.617378e+00
  1.040266e+01    2.661734e+00
  1.041853e+01    2.627445e+00
  1.043441e+01    2.638433e+00
  1.045028e+01    2.621423e+00
  1.046616e+01    2.600112e+00
  1.048204e+01    2.592267e+00
  1.049791e+01    2.615612e+00
  1.051379e+01    2.572674e+00
  1.052966e+01    2.555629e+00
  1.054554e+01    2.608461e+00
  1.056141e+01    2.612204e+00
  1.057729e+01    2.559063e+00
  1.059316e+01    2.553792e+00
  1.060904e+01    2.565694e+00
  1.062492e+01    2.601261e+00
  1.064079e+01    2.578097e+00
  1.065667e+01    2.576878e+00
  1.067254e+01    2.508226e+00
  1.068842e+01    2.484814e+00
  1.070429e+01    2.516788e+00
  1.072017e+01    2.528835e+00
  1.073604e+01    2.548983e+00
  1.075192e+01    2.525204e+00
  1.076780e+01    2.512498e+00
  1.078367e+01    2.540338e+00
  1.079955e+01    2.545363e+00
  1.081542e+01    2.546235e+00
  1.083130e+01    2.548980e+00
  1.084717e+01    2.543115e+00
  1.086305e+01    2.557463e+00
  1.087892e+01    2.554658e+00
  1.089480e+01    2.515893e+00
  1.091068e+01    2.510670e+00
  1.092655e+01    2.456496e+00
  1.094243e+01    2.439484e+00
  1.095830e+01    2.502941e+00
  1.097418e+01    2.514144e+00
  1.099005e+01    2.537189e+00
  1.100593e+01    2.501874e+00
  1.102180e+01    2.480438e+00
  1.103768e+01    2.513931e+00
  1.105356e+01    2.513499e+00
  1.106943e+01    2.475346e+00
  1.108531e+01    2.509275e+00
  1.110118e+01    2.506870e+00
  1.111706e+01    2.484007e+00
  1.113293e+01    2.481223e+00
  1.114881e+01    2.488167e+00
  1.116468e+01    2.444818e+00
  1.118056e+01    2.396823e+00
  1.119644e+01    2.436769e+00
  1.121231e+01    2.472961e+00
  1.122819e+01    2.496299e+00
  1.124406e+01    2.426261e+00
  1.125994e+01    2.410211e+00
  1.127581e+01    2.448607e+00
  1.129169e+01    2.434036e+00
  1.130756e+01    2.422160e+00
  1.132344e+01    2.446857e+00
  1.133932e+01    2.489987e+00
  1.135519e+01    2.413993e+00
  1.137107e+01    2.351577e+00
  1.138694e+01    2.395705e+00
  1.140282e+01    2.430784e+00
  1.141869e+01    2.431971e+00
  1.143457e+01    2.394579e+00
  1.145045e+01    2.380586e+00
  1.146632e+01    2.420126e+00
  1.148220e+01    2.431566e+00
  1.149807e+01    2.403408e+00
  1.151395e+01    2.384627e+00
  1.152982e+01    2.355275e+00
  1.154570e+01    2.388952e+00
  1.156157e+01    2.404587e+00
  1.157745e+01    2.421122e+00
  1.159333e+01    2.333709e+00
  1.160920e+01    2.322444e+00
  1.162508e+01    2.388348e+00
  1.164095e+01    2.352304e+00
  1.165683e+01    2.385170e+00
  1.167270e+01    2.362854e+00
  1.168858e+01    2.365099e+00
  1.170445e+01    2.365597e+00
  1.172033e+01    2.311520e+00
  1.173621e+01    2.324535e+00
  1.175208e+01    2.333885e+00
  1.176796e+01    2.405007e+00
  1.178383e+01    2.403725e+00
  1.179971e+01    2.364794e+00
  1.181558e+01    2.362020e+00
  1.183146e+01    2.346376e+00
  1.184733e+01    2.344490e+00
  1.186321e+01    2.329419e+00
  1.187909e+01    2.327199e+00
  1.189496e+01    2.349652e+00
  1.191084e+01    2.308661e+00
  1.192671e+01    2.333763e+00
  1.194259e+01    2.323707e+00
  1.195846e+01    2.358134e+00
  1.197434e+01    2.358976e+00
  1.199021e+01    2.329583e+00
  1.200609e+01    2.331702e+00
  1.202197e+01    2.327764e+00
  1.203784e+01    2.279133e+00
  1.205372e+01    2.329472e+00
  1.206959e+01    2.298544e+00
  1.208547e+01    2.332131e+00
  1.210134e+01    2.323576e+00
  1.211722e+01    2.280426e+00
  1.213309e+01    2.317344e+00
  1.214897e+01    2.317455e+00
  1.216485e+01    2.314995e+00
  1.218072e+01    2.316729e+00
  1.219660e+01    2.351800e+00
  1.221247e+01    2.340432e+00
  1.222835e+01    2.326930e+00
  1.224422e+01    2.304987e+00
  1.226010e+01    2.285062e+00
  1.227597e+01    2.291472e+00
  1.229185e+01    2.317967e+00
  1.230773e+01    2.328250e+00
  1.232360e+01    2.323989e+00
  1.233948e+01    2.352952e+00
  1.235535e+01    2.316537e+00
  1.237123e+01    2.333814e+00
  1.238710e+01    2.328770e+00
  1.240298e+01    2.320230e+00
  1.241886e+01    2.309593e+00
  1.243473e+01    2.287986e+00
  1.245061e+01    2.292343e+00
  1.246648e+01    2.292335e+00
  1.248236e+01    2.300937e+00
  1.249823e+01    2.344918e+00
  1.251411e+01    2.324954e+00
  1.252998e+01    2.372134e+00
  1.254586e+01    2.335874e+00
  1.256174e+01    2.305461e+00
  1.257761e+01    2.339479e+00
  1.259349e+01    2.362045e+00
  1.260936e+01    2.393291e+00
  1.262524e+01    2.403324e+00
  1.264111e+01    2.420811e+00
  1.265699e+01    2.432937e+00
  1.267286e+01    2.442746e+00
  1.268874e+01    2.468994e+00
  1.270462e+01    2.478966e+00
  1.272049e+01    2.491259e+00
  1.273637e+01    2.515734e+00
  1.275224e+01    2.511392e+00
  1.276812e+01    2.562933e+00
  1.278399e+01    2.595223e+00
  1.279987e+01    2.607767e+00
  1.281574e+01    2.730991e+00
  1.283162e+01    2.760026e+00
  1.284750e+01    2.834656e+00
  1.286337e+01    2.915154e+00
  1.287925e+01    3.019401e+00
  1.289512e+01    3.130132e+00
  1.291100e+01    3.296499e+00
  1.292687e+01    3.473854e+00
  1.294275e+01    3.668370e+00
  1.295862e+01    4.003829e+00
  1.297450e+01    4.384552e+00
  1.299038e+01    4.817729e+00
  1.300625e+01    5.433725e+00
  1.302213e+01    6.175533e+00
  1.303800e+01    7.072912e+00
  1.305388e+01    8.295029e+00
  1.306975e+01    9.580933e+00
  1.308563e+01    1.074615e+01
  1.310150e+01    1.203112e+01
  1.311738e+01    1.330278e+01
  1.313326e+01    1.431928e+01
  1.314913e+01    1.547820e+01
  1.316501e+01    1.626917e+01
  1.318088e+01    1.673371e+01
  1.319676e+01    1.644768e+01
  1.321263e+01    1.516329e+01
  1.322851e+01    1.341019e+01
  1.324438e+01    1.147979e+01
  1.326026e+01    9.601053e+00
  1.327614e+01    8.039571e+00
  1.329201e+01    6.877635e+00
  1.330789e+01    5.976257e+00
  1.332376e+01    5.245337e+00
  1.333964e+01    4.673922e+00
  1.335551e+01    4.241436e+00
  1.337139e+01    3.933857e+00
  1.338727e+01    3.659077e+00
  1.340314e+01    3.423079e+00
  1.341902e+01    3.181135e+00
  1.343489e+01    3.083750e+00
  1.345077e+01    2.958482e+00
  1.346664e+01    2.837249e+00
  1.348252e+01    2.723546e+00
  1.349839e+01    2.666976e+00
  1.351427e+01    2.616422e+00
  1.353015e+01    2.572441e+00
  1.354602e+01    2.509563e+00
  1.356190e+01    2.478637e+00
  1.357777e+01    2.447352e+00
  1.359365e+01    2.400923e+00
  1.360952e+01    2.340742e+00
  1.362540e+01    2.365550e+00
  1.364127e+01    2.340737e+00
  1.365715e+01    2.293227e+00
  1.367303e+01    2.236348e+00
  1.368890e+01    2.242992e+00
  1.370478e+01    2.220232e+00
  1.372065e+01    2.204216e+00
  1.373653e+01    2.218644e+00
  1.375240e+01    2.179260e+00
  1.376828e+01    2.120672e+00
  1.378415e+01    2.098739e+00
  1.380003e+01    2.121639e+00
  1.381591e+01    2.104565e+00
  1.383178e+01    2.095719e+00
  1.384766e+01    2.108810e+00
  1.386353e+01    2.101037e+00
  1.387941e+01    2.136001e+00
  1.389528e+01    2.137811e+00
  1.391116e+01    2.093364e+00
  1.392703e+01    2.111850e+00
  1.394291e+01    2.069371e+00
  1.395879e+01    2.055657e+00
  1.397466e+01    2.061113e+00
  1.399054e+01    2.024405e+00
  1.400641e+01    2.049927e+00
  1.402229e+01    2.059139e+00
  1.403816e+01    2.051836e+00
  1.405404e+01    2.041749e+00
  1.406991e+01    2.033483e+00
  1.408579e+01    2.019910e+00
  1.410167e+01    1.995130e+00
  1.411754e+01    2.002903e+00
  1.413342e+01    2.016177e+00
  1.414929e+01    2.058265e+00
  1.416517e+01    2.005141e+00
  1.418104e+01    1.984314e+00
  1.419692e+01    2.000598e+00
  1.421279e+01    1.947652e+00
  1.422867e+01    1.978756e+00
  1.424455e+01    2.005952e+00
  1.426042e+01    2.000303e+00
  1.427630e+01    1.949488e+00
  1.429217e+01    1.912996e+00
  1.430805e+01    1.939618e+00
  1.432392e+01    1.941109e+00
  1.433980e+01    1.946401e+00
  1.435568e+01    1.912365e+00
  1.437155e+01    1.939193e+00
  1.438743e+01    1.952570e+00
  1.440330e+01    1.928202e+00
  1.441918e+01    1.911041e+00
  1.443505e+01    1.934884e+00
  1.445093e+01    1.929438e+00
  1.446680e+01    1.950243e+00
  1.448268e+01    1.936980e+00
  1.449856e+01    1.944900e+00
  1.451443e+01    1.912957e+00
  1.453031e+01    1.915701e+00
  1.454618e+01    1.936261e+00
  1.456206e+01    1.896944e+00
  1.457793e+01    1.890989e+00
  1.459381e+01    1.894997e+00
  1.460968e+01    1.910083e+00
  1.462556e+01    1.920845e+00
  1.464144e+01    1.935303e+00
  1.465731e+01    1.879009e+00
  1.467319e+01    1.913156e+00
  1.468906e+01    1.916250e+00
  1.470494e+01    1.880555e+00
  1.472081e+01    1.902076e+00
  1.473669e+01    1.915186e+00
  1.475256e+01    1.896028e+00
  1.476844e+01    1.906076e+00
  1.478432e+01    1.910774e+00
  1.480019e+01    1.931563e+00
  1.481607e+01    1.926092e+00
  1.483194e+01    1.895516e+00
  1.484782e+01    1.889468e+00
  1.486369e+01    1.962998e+00
  1.487957e+01    1.945674e+00
  1.489544e+01    1.937011e+00
  1.491132e+01    1.958842e+00
  1.492720e+01    1.979547e+00
  1.494307e+01    2.004920e+00
  1.495895e+01    2.032283e+00
  1.497482e+01    2.090824e+00
  1.499070e+01    2.119236e+00
  1.500657e+01    2.141772e+00
  1.502245e+01    2.158604e+00
  1.503832e+01    2.242827e+00
  1.505420e+01    2.391158e+00
  1.507008e+01    2.531729e+00
  1.508595e+01    2.663397e+00
  1.510183e+01    2.865433e+00
  1.511770e+01    3.144115e+00
  1.513358e+01    3.426533e+00
  1.514945e+01    3.748096e+00
  1.516533e+01    4.127049e+00
  1.518120e+01    4.515147e+00
  1.519708e+01    4.863504e+00
  1.521296e+01    5.082560e+00
  1.522883e+01    5.363162e+00
  1.524471e+01    5.571975e+00
  1.526058e+01    5.744200e+00
  1.527646e+01    5.793226e+00
  1.529233e+01    5.579737e+00
  1.530821e+01    5.200132e+00
  1.532409e+01    4.730142e+00
  1.533996e+01    4.227950e+00
  1.535584e+01    3.804327e+00
  1.537171e+01    3.385132e+00
  1.538759e+01    2.987816e+00
  1.540346e+01    2.795226e+00
  1.541934e+01    2.614701e+00
  1.543521e+01    2.414655e+00
  1.545109e+01    2.287632e+00
  1.546697e+01    2.204079e+00
  1.548284e+01    2.112338e+00
  1.549872e+01    2.037397e+00
  1.551459e+01    2.015117e+00
  1.553047e+01    1.970252e+00
  1.554634e+01    1.936287e+00
  1.556222e+01    1.897991e+00
  1.557809e+01    1.860080e+00
  1.559397e+01    1.832258e+00
  1.560985e+01    1.777114e+00
  1.562572e+01    1.784432e+00
  1.564160e+01    1.752897e+00
  1.565747e+01    1.766984e+00
  1.567335e+01    1.763597e+00
  1.568922e+01    1.746381e+00
  1.570510e+01    1.725988e+00
  1.572097e+01    1.712333e+00
  1.573685e+01    1.683175e+00
  1.575273e+01    1.689541e+00
  1.576860e+01    1.672261e+00
  1.578448e+01    1.667124e+00
  1.580035e+01    1.628306e+00
  1.581623e+01    1.630686e+00
  1.583210e+01    1.682259e+00
  1.584798e+01    1.713467e+00
  1.586385e+01    1.679122e+00
  1.587973e+01    1.625561e+00
  1.589561e+01    1.640667e+00
  1.591148e+01    1.665421e+00
  1.592736e+01    1.631809e+00
  1.594323e+01    1.582962e+00
  1.595911e+01    1.599697e+00
  1.597498e+01    1.606877e+00
  1.599086e+01    1.592834e+00
  1.600673e+01    1.612352e+00
  1.602261e+01    1.606756e+00
  1.603849e+01    1.601539e+00
  1.605436e+01    1.623209e+00
  1.607024e+01    1.619898e+00
  1.608611e+01    1.618505e+00
  1.610199e+01    1.611330e+00
  1.611786e+01    1.584267e+00
  1.613374e+01    1.555130e+00
  1.614961e+01    1.568638e+00
  1.616549e+01    1.575005e+00
  1.618137e+01    1.580471e+00
  1.619724e+01    1.596565e+00
  1.621312e+01    1.551083e+00
  1.622899e+01    1.560865e+00
  1.624487e+01    1.514447e+00
  1.626074e+01    1.494784e+00
  1.627662e+01    1.542009e+00
  1.629250e+01    1.526343e+00
  1.630837e+01    1.533613e+00
  1.632425e+01    1.532616e+00
  1.634012e+01    1.535077e+00
  1.635600e+01    1.549139e+00
  1.637187e+01    1.546663e+00
  1.638775e+01    1.545316e+00
  1.640362e+01    1.549531e+00
  1.641950e+01    1.520750e+00
  1.643538e+01    1.518308e+00
  1.645125e+01    1.523984e+00
  1.646713e+01    1.512663e+00
  1.648300e+01    1.499703e+00
  1.649888e+01    1.520145e+00
  1.651475e+01    1.516358e+00
  1.653063e+01    1.480839e+00
  1.654650e+01    1.500709e+00
  1.656238e+01    1.520385e+00
  1.657826e+01    1.505364e+00
  1.659413e+01    1.496179e+00
  1.661001e+01    1.491564e+00
  1.662588e+01    1.491047e+00
  1.664176e+01    1.473439e+00
  1.665763e+01    1.490600e+00
  1.667351e+01    1.464788e+00
  1.668938e+01    1.444759e+00
  1.670526e+01    1.466753e+00
  1.672114e+01    1.469154e+00
  1.673701e+01    1.511373e+00
  1.675289e+01    1.501889e+00
  1.676876e+01    1.467968e+00
  1.678464e+01    1.461430e+00
  1.680051e+01    1.471779e+00
  1.681639e+01    1.491029e+00
  1.683226e+01    1.472095e+00
  1.684814e+01    1.475952e+00
  1.686402e+01    1.459987e+00
  1.687989e+01    1.453671e+00
  1.689577e+01    1.444409e+00
  1.691164e+01    1.447205e+00
  1.692752e+01    1.435868e+00
  1.694339e+01    1.413764e+00
  1.695927e+01    1.418494e+00
  1.697514e+01    1.418609e+00
  1.699102e+01    1.452051e+00
  1.700690e+01    1.437172e+00
  1.702277e+01    1.401462e+00
  1.703865e+01    1.412703e+00
  1.705452e+01    1.466961e+00
  1.707040e+01    1.447983e+00
  1.708627e+01    1.433341e+00
  1.710215e+01    1.420777e+00
  1.711802e+01    1.422707e+00
  1.713390e+01    1.431867e+00
  1.714978e+01    1.428860e+00
  1.716565e+01    1.406163e+00
  1.718153e+01    1.422677e+00
  1.719740e+01    1.419708e+00
  1.721328e+01    1.440260e+00
  1.722915e+01    1.420082e+00
  1.724503e+01    1.399116e+00
  1.726091e+01    1.374983e+00
  1.727678e+01    1.398898e+00
  1.729266e+01    1.411009e+00
  1.730853e+01    1.427102e+00
  1.732441e+01    1.406256e+00
  1.734028e+01    1.384737e+00
  1.735616e+01    1.382524e+00
  1.737203e+01    1.351498e+00
  1.738791e+01    1.360879e+00
  1.740379e+01    1.370583e+00
  1.741966e+01    1.385249e+00
  1.743554e+01    1.384516e+00
  1.745141e+01    1.369828e+00
  1.746729e+01    1.398862e+00
  1.748316e+01    1.394636e+00
  1.749904e+01    1.357032e+00
  1.751491e+01    1.357521e+00
  1.753079e+01    1.347887e+00
  1.754667e+01    1.351170e+00
  1.756254e+01    1.383979e+00
  1.757842e+01    1.349009e+00
  1.759429e+01    1.351725e+00
  1.761017e+01    1.376142e+00
  1.762604e+01    1.361240e+00
  1.764192e+01    1.333090e+00
  1.765779e+01    1.328784e+00
  1.767367e+01    1.335463e+00
  1.768955e+01    1.356874e+00
  1.770542e+01    1.358850e+00
  1.772130e+01    1.340528e+00
  1.773717e+01    1.324677e+00
  1.775305e+01    1.316702e+00
  1.776892e+01    1.341331e+00
  1.778480e+01    1.331697e+00
  1.780067e+01    1.322587e+00
  1.781655e+01    1.338425e+00
  1.783243e+01    1.334079e+00
  1.784830e+01    1.317822e+00
  1.786418e+01    1.314259e+00
  1.788005e+01    1.328689e+00
  1.789593e+01    1.314702e+00
  1.791180e+01    1.304460e+00
  1.792768e+01    1.313627e+00
  1.794355e+01    1.306376e+00
  1.795943e+01    1.318495e+00
  1.797531e+01    1.309460e+00
  1.799118e+01    1.279619e+00
  1.800706e+01    1.292788e+00
  1.802293e+01    1.316059e+00
  1.803881e+01    1.316347e+00
  1.805468e+01    1.293849e+00
  1.807056e+01    1.298761e+00
  1.808643e+01    1.291261e+00
  1.810231e+01    1.287085e+00
  1.811819e+01    1.298926e+00
  1.813406e+01    1.306631e+00
  1.814994e+01    1.301430e+00
  1.816581e+01    1.314327e+00
  1.818169e+01    1.290647e+00
  1.819756e+01    1.291396e+00
  1.821344e+01    1.277640e+00
  1.822932e+01    1.273682e+00
  1.824519e+01    1.311418e+00
  1.826107e+01    1.291143e+00
  1.827694e+01    1.274465e+00
  1.829282e+01    1.268998e+00
  1.830869e+01    1.260722e+00
  1.832457e+01    1.263615e+00
  1.834044e+01    1.247829e+00
  1.835632e+01    1.278706e+00
  1.837220e+01    1.255634e+00
  1.838807e+01    1.253666e+00
  1.840395e+01    1.254016e+00
  1.841982e+01    1.232693e+00
  1.843570e+01    1.241361e+00
  1.845157e+01    1.283399e+00
  1.846745e+01    1.273677e+00
  1.848332e+01    1.248931e+00
  1.849920e+01    1.264624e+00
  1.851508e+01    1.256787e+00
  1.853095e+01    1.229305e+00
  1.854683e+01    1.249965e+00
  1.856270e+01    1.256121e+00
  1.857858e+01    1.239143e+00
  1.859445e+01    1.241344e+00
  1.861033e+01    1.234728e+00
  1.862620e+01    1.229230e+00
  1.864208e+01    1.241339e+00
  1.865796e+01    1.228725e+00
  1.867383e+01    1.233381e+00
  1.868971e+01    1.221595e+00
  1.870558e+01    1.243831e+00
  1.872146e+01    1.204280e+00
  1.873733e+01    1.193552e+00
  1.875321e+01    1.211878e+00
  1.876908e+01    1.191240e+00
  1.878496e+01    1.199481e+00
  1.880084e+01    1.204621e+00
  1.881671e+01    1.191078e+00
  1.883259e+01    1.213526e+00
  1.884846e+01    1.212062e+00
  1.886434e+01    1.226212e+00
  1.888021e+01    1.228835e+00
  1.889609e+01    1.218464e+00
  1.891196e+01    1.238788e+00
  1.892784e+01    1.193627e+00
  1.894372e+01    1.182178e+00
  1.895959e+01    1.174169e+00
  1.897547e+01    1.211645e+00
  1.899134e+01    1.217033e+00
  1.900722e+01    1.212051e+00
  1.902309e+01    1.204546e+00
  1.903897e+01    1.183382e+00
  1.905484e+01    1.183027e+00
  1.907072e+01    1.175606e+00
  1.908660e+01    1.194530e+00
  1.910247e+01    1.217435e+00
  1.911835e+01    1.199392e+00
  1.913422e+01    1.185910e+00
  1.915010e+01    1.179416e+00
  1.916597e+01    1.198941e+00
  1.918185e+01    1.185468e+00
  1.919773e+01    1.169571e+00
  1.921360e+01    1.183473e+00
  1.922948e+01    1.171363e+00
  1.924535e+01    1.151620e+00
  1.926123e+01    1.181678e+00
  1.927710e+01    1.189263e+00
  1.929298e+01    1.155366e+00
  1.930885e+01    1.150525e+00
  1.932473e+01    1.163638e+00
  1.934061e+01    1.171039e+00
  1.935648e+01    1.180874e+00
  1.937236e+01    1.174046e+00
  1.938823e+01    1.153663e+00
  1.940411e+01    1.161727e+00
  1.941998e+01    1.176188e+00
  1.943586e+01    1.160344e+00
  1.945173e+01    1.158662e+00
  1.946761e+01    1.158548e+00
  1.948349e+01    1.162144e+00
  1.949936e+01    1.184914e+00
  1.951524e+01    1.151425e+00
  1.953111e+01    1.170220e+00
  1.954699e+01    1.164619e+00
  1.956286e+01    1.160844e+00
  1.957874e+01    1.148588e+00
  1.959461e+01    1.171755e+00
  1.961049e+01    1.141078e+00
  1.962637e+01    1.132370e+00
  1.964224e+01    1.168040e+00
  1.965812e+01    1.143211e+00
  1.967399e+01    1.141927e+00
  1.968987e+01    1.150428e+00
  1.970574e+01    1.153737e+00
  1.972162e+01    1.146018e+00
  1.973749e+01    1.141621e+00
  1.975337e+01    1.138302e+00
  1.976925e+01    1.121553e+00
  1.978512e+01    1.125899e+00
  1.980100e+01    1.144196e+00
  1.981687e+01    1.134186e+00
  1.983275e+01    1.107458e+00
  1.984862e+01    1.130359e+00
  1.986450e+01    1.108954e+00
  1.988037e+01    1.110767e+00
  1.989625e+01    1.125319e+00
  1.991213e+01    1.137492e+00
  1.992800e+01    1.123841e+00
  1.994388e+01    1.129114e+00
  1.995975e+01    1.138323e+00
  1.997563e+01    1.127591e+00
  1.999150e+01    1.095059e+00
  2.000738e+01    1.110613e+00
  2.002325e+01    1.109707e+00
  2.003913e+01    1.093994e+00
  2.005501e+01    1.096839e+00
  2.007088e+01    1.105412e+00
  2.008676e+01    1.121006e+00
  2.010263e+01    1.100156e+00
  2.011851e+01    1.093965e+00
  2.013438e+01    1.118929e+00
  2.015026e+01    1.134477e+00
  2.016614e+01    1.109023e+00
  2.018201e+01    1.108577e+00
  2.019789e+01    1.107819e+00
  2.021376e+01    1.090314e+00
  2.022964e+01    1.071148e+00
  2.024551e+01    1.097128e+00
  2.026139e+01    1.099083e+00
  2.027726e+01    1.107224e+00
  2.029314e+01    1.109527e+00
  2.030902e+01    1.107835e+00
  2.032489e+01    1.086784e+00
  2.034077e+01    1.093424e+00
  2.035664e+01    1.094373e+00
  2.037252e+01    1.090105e+00
  2.038839e+01    1.092395e+00
  2.040427e+01    1.092883e+00
  2.042014e+01    1.066852e+00
  2.043602e+01    1.094732e+00
  2.045190e+01    1.066576e+00
  2.046777e+01    1.065988e+00
  2.048365e+01    1.084575e+00
  2.049952e+01    1.067980e+00
  2.051540e+01    1.077087e+00
  2.053127e+01    1.075774e+00
  2.054715e+01    1.062796e+00
  2.056302e+01    1.071055e+00
  2.057890e+01    1.104274e+00
  2.059478e+01    1.094660e+00
  2.061065e+01    1.071178e+00
  2.062653e+01    1.089058e+00
  2.064240e+01    1.067514e+00
  2.065828e+01    1.082076e+00
  2.067415e+01    1.066053e+00
  2.069003e+01    1.082382e+00
  2.070590e+01    1.085554e+00
  2.072178e+01    1.081578e+00
  2.073766e+01    1.063821e+00
  2.075353e+01    1.057343e+00
  2.076941e+01    1.063473e+00
  2.078528e+01    1.068802e+00
  2.080116e+01    1.094229e+00
  2.081703e+01    1.081904e+00
  2.083291e+01    1.061452e+00
  2.084878e+01    1.073555e+00
  2.086466e+01    1.068322e+00
  2.088054e+01    1.055281e+00
  2.089641e+01    1.062735e+00
  2.091229e+01    1.073193e+00
  2.092816e+01    1.061151e+00
  2.094404e+01    1.071012e+00
  2.095991e+01    1.057091e+00
  2.097579e+01    1.093155e+00
  2.099166e+01    1.090665e+00
  2.100754e+01    1.083683e+00
  2.102342e+01    1.081854e+00
  2.103929e+01    1.068766e+00
  2.105517e+01    1.061940e+00
  2.107104e+01    1.062379e+00
  2.108692e+01    1.064487e+00
  2.110279e+01    1.054609e+00
  2.111867e+01    1.084642e+00
  2.113455e+01    1.083136e+00
  2.115042e+01    1.091677e+00
  2.116630e+01    1.104498e+00
  2.118217e+01    1.119432e+00
  2.119805e+01    1.115601e+00
  2.121392e+01    1.108813e+00
  2.122980e+01    1.104816e+00
  2.124567e+01    1.105109e+00
  2.126155e+01    1.097615e+00
  2.127743e+01    1.118536e+00
  2.129330e+01    1.143540e+00
  2.130918e+01    1.121135e+00
  2.132505e+01    1.123523e+00
  2.134093e+01    1.141431e+00
  2.135680e+01    1.128700e+00
  2.137268e+01    1.118417e+00
  2.138855e+01    1.143294e+00
  2.140443e+01    1.183187e+00
  2.142031e+01    1.185250e+00
  2.143618e+01    1.212882e+00
  2.145206e+01    1.202131e+00
  2.146793e+01    1.214108e+00
  2.148381e+01    1.259982e+00
  2.149968e+01    1.279016e+00
  2.151556e+01    1.291830e+00
  2.153143e+01    1.358747e+00
  2.154731e+01    1.400420e+00
  2.156319e+01    1.405353e+00
  2.157906e+01    1.462046e+00
  2.159494e+01    1.553990e+00
  2.161081e+01    1.623039e+00
  2.162669e+01    1.679296e+00
  2.164256e+01    1.780966e+00
  2.165844e+01    1.936307e+00
  2.167431e+01    2.102880e+00
  2.169019e+01    2.287602e+00
  2.170607e+01    2.537640e+00
  2.172194e+01    2.844406e+00
  2.173782e+01    3.212266e+00
  2.175369e+01    3.701098e+00
  2.176957e+01    4.236106e+00
  2.178544e+01    4.841353e+00
  2.180132e+01    5.469254e+00
  2.181719e+01    6.182877e+00
  2.183307e+01    6.890511e+00
  2.184895e+01    7.530406e+00
  2.186482e+01    8.263024e+00
  2.188070e+01    8.788356e+00
  2.189657e+01    9.134529e+00
  2.191245e+01    9.127780e+00
  2.192832e+01    8.819684e+00
  2.194420e+01    8.056134e+00
  2.196007e+01    7.053290e+00
  2.197595e+01    6.086039e+00
  2.199183e+01    5.222950e+00
  2.200770e+01    4.445374e+00
  2.202358e+01    3.766703e+00
  2.203945e+01    3.266690e+00
  2.205533e+01    2.873392e+00
  2.207120e+01    2.573787e+00
  2.208708e+01    2.278413e+00
  2.210296e+01    2.063210e+00
  2.211883e+01    1.924680e+00
  2.213471e+01    1.801017e+00
  2.215058e+01    1.670425e+00
  2.216646e+01    1.593879e+00
  2.218233e+01    1.514588e+00
  2.219821e+01    1.430500e+00
  2.221408e+01    1.396437e+00
  2.222996e+01    1.355201e+00
  2.224584e+01    1.291625e+00
  2.226171e+01    1.254856e+00
  2.227759e+01    1.221145e+00
  2.229346e+01    1.210537e+00
  2.230934e+01    1.173056e+00
  2.232521e+01    1.150939e+00
  2.234109e+01    1.142421e+00
  2.235696e+01    1.113487e+00
  2.237284e+01    1.107145e+00
  2.238872e+01    1.094778e+00
  2.240459e+01    1.066816e+00
  2.242047e+01    1.067719e+00
  2.243634e+01    1.044717e+00
  2.245222e+01    1.043640e+00
  2.246809e+01    1.040584e+00
  2.248397e+01    1.034521e+00
  2.249984e+01    1.007792e+00
  2.251572e+01    1.020561e+00
  2.253160e+01    9.874912e-01
  2.254747e+01    9.920478e-01
  2.256335e+01    9.956115e-01
  2.257922e+01    9.908111e-01
  2.259510e+01    9.739799e-01
  2.261097e+01    9.823350e-01
  2.262685e+01    9.608303e-01
  2.264272e+01    9.566063e-01
  2.265860e+01    9.610114e-01
  2.267448e+01    9.608915e-01
  2.269035e+01    9.345039e-01
  2.270623e+01    9.453886e-01
  2.272210e+01    9.585211e-01
  2.273798e+01    9.357966e-01
  2.275385e+01    9.307345e-01
  2.276973e+01    9.196003e-01
  2.278560e+01    9.287189e-01
  2.280148e+01    9.225779e-01
  2.281736e+01    9.191540e-01
  2.283323e+01    9.213607e-01
  2.284911e+01    8.995371e-01
  2.286498e+01    9.158496e-01
  2.288086e+01    9.197233e-01
  2.289673e+01    9.035389e-01
  2.291261e+01    9.165680e-01
  2.292848e+01    9.013379e-01
  2.294436e+01    8.876517e-01
  2.296024e+01    9.053254e-01
  2.297611e+01    8.994858e-01
  2.299199e+01    8.942217e-01
  2.300786e+01    9.037058e-01
  2.302374e+01    8.883650e-01
  2.303961e+01    8.782052e-01
  2.305549e+01    8.719245e-01
  2.307137e+01    8.810997e-01
  2.308724e+01    8.933399e-01
  2.310312e+01    8.979842e-01
  2.311899e+01    8.857952e-01
  2.313487e+01    8.801851e-01
  2.315074e+01    9.007847e-01
  2.316662e+01    8.751219e-01
  2.318249e+01    8.832336e-01
  2.319837e+01    8.751427e-01
  2.321425e+01    8.815432e-01
  2.323012e+01    8.560051e-01
  2.324600e+01    8.710371e-01
  2.326187e+01    8.629643e-01
  2.327775e+01    8.517323e-01
  2.329362e+01    8.646129e-01
  2.330950e+01    8.740401e-01
  2.332537e+01    8.785811e-01
  2.334125e+01    8.628191e-01
  2.335713e+01    8.613621e-01
  2.337300e+01    8.711752e-01
  2.338888e+01    8.456745e-01
  2.340475e+01    8.570352e-01
  2.342063e+01    8.588861e-01
  2.343650e+01    8.367807e-01
  2.345238e+01    8.565989e-01
  2.346825e+01    8.557869e-01
  2.348413e+01    8.400677e-01
  2.350001e+01    8.557295e-01
  2.351588e+01    8.657669e-01
  2.353176e+01    8.537176e-01
  2.354763e+01    8.300781e-01
  2.356351e+01    8.119152e-01
  2.357938e+01    8.207112e-01
  2.359526e+01    8.278182e-01
  2.361113e+01    8.431622e-01
  2.362701e+01    8.568199e-01
  2.364289e+01    8.526011e-01
  2.365876e+01    8.365160e-01
  2.367464e+01    8.263736e-01
  2.369051e+01    8.275152e-01
  2.370639e+01    8.261797e-01
  2.372226e+01    8.338733e-01
  2.373814e+01    8.368468e-01
  2.375401e+01    8.154602e-01
  2.376989e+01    8.195122e-01
  2.378577e+01    8.090116e-01
  2.380164e+01    8.001780e-01
  2.381752e+01    8.053315e-01
  2.383339e+01    8.056025e-01
  2.384927e+01    7.858351e-01
  2.386514e+01    8.000921e-01
  2.388102e+01    8.032086e-01
  2.389689e+01    7.974306e-01
  2.391277e+01    7.851598e-01
  2.392865e+01    7.818897e-01
  2.394452e+01    8.043867e-01
  2.396040e+01    8.011584e-01
  2.397627e+01    7.832596e-01
  2.399215e+01    7.974600e-01
  2.400802e+01    7.838639e-01
  2.402390e+01    7.798344e-01
  2.403978e+01    7.804642e-01
  2.405565e+01    7.902600e-01
  2.407153e+01    7.826837e-01
  2.408740e+01    7.676569e-01
  2.410328e+01    7.939513e-01
  2.411915e+01    7.928407e-01
  2.413503e+01    7.852296e-01
  2.415090e+01    7.893099e-01
  2.416678e+01    7.974479e-01
  2.418266e+01    7.922780e-01
  2.419853e+01    7.609799e-01
  2.421441e+01    7.655614e-01
  2.423028e+01    7.619273e-01
  2.424616e+01    7.687346e-01
  2.426203e+01    7.737088e-01
  2.427791e+01    7.672110e-01
  2.429378e+01    7.765561e-01
  2.430966e+01    7.652720e-01
  2.432554e+01    7.709879e-01
  2.434141e+01    7.919646e-01
  2.435729e+01    8.025560e-01
  2.437316e+01    7.846889e-01
  2.438904e+01    7.916644e-01
  2.440491e+01    7.848359e-01
  2.442079e+01    7.794846e-01
  2.443666e+01    7.660090e-01
  2.445254e+01    7.778146e-01
  2.446842e+01    7.994150e-01
  2.448429e+01    7.978713e-01
  2.450017e+01    7.795001e-01
  2.451604e+01    7.924638e-01
  2.453192e+01    7.832633e-01
  2.454779e+01    7.683455e-01
  2.456367e+01    7.801009e-01
  2.457954e+01    8.090487e-01
  2.459542e+01    8.010648e-01
  2.461130e+01    7.973150e-01
  2.462717e+01    7.819314e-01
  2.464305e+01    7.780584e-01
  2.465892e+01    7.775499e-01
  2.467480e+01    7.660968e-01
  2.469067e+01    7.716547e-01
  2.470655e+01    7.884418e-01
  2.472242e+01    7.731201e-01
  2.473830e+01    7.982926e-01
  2.475418e+01    8.162385e-01
  2.477005e+01    7.916781e-01
  2.478593e+01    7.692598e-01
  2.480180e+01    7.849761e-01
  2.481768e+01    7.856755e-01
  2.483355e+01    7.974622e-01
  2.484943e+01    8.115745e-01
  2.486530e+01    8.086020e-01
  2.488118e+01    7.761667e-01
  2.489706e+01    7.937691e-01
  2.491293e+01    8.029693e-01
  2.492881e+01    7.878184e-01
  2.494468e+01    7.966733e-01
  2.496056e+01    8.078108e-01
  2.497643e+01    7.909600e-01
  2.499231e+01    7.881929e-01
  2.500819e+01    7.939222e-01
  2.502406e+01    8.071067e-01
  2.503994e+01    7.918575e-01
  2.505581e+01    7.867244e-01
  2.507169e+01    7.930712e-01
  2.508756e+01    8.153512e-01
  2.510344e+01    8.199142e-01
  2.511931e+01    8.221657e-01
  2.513519e+01    7.988897e-01
  2.515107e+01    8.167155e-01
  2.516694e+01    8.184155e-01
  2.518282e+01    8.213654e-01
  2.519869e+01    8.228485e-01
  2.521457e+01    8.299260e-01
  2.523044e+01    8.257844e-01
  2.524632e+01    8.496262e-01
  2.526219e+01    8.430822e-01
  2.527807e+01    8.405264e-01
  2.529395e+01    8.645494e-01
  2.530982e+01    8.795177e-01
  2.532570e+01    8.716716e-01
  2.534157e+01    8.647972e-01
  2.535745e+01    8.592357e-01
  2.537332e+01    8.904642e-01
  2.538920e+01    8.889632e-01
  2.540507e+01    9.071642e-01
  2.542095e+01    8.948473e-01
  2.543683e+01    9.046417e-01
  2.545270e+01    8.942707e-01
  2.546858e+01    9.279928e-01
  2.548445e+01    9.431407e-01
  2.550033e+01    9.591458e-01
  2.551620e+01    9.912216e-01
  2.553208e+01    9.941216e-01
  2.554795e+01    1.000930e+00
  2.556383e+01    1.011952e+00
  2.557971e+01    1.058912e+00
  2.559558e+01    1.101139e+00
  2.561146e+01    1.130194e+00
  2.562733e+01    1.163119e+00
  2.564321e+01    1.207055e+00
  2.565908e+01    1.258097e+00
  2.567496e+01    1.334857e+00
  2.569083e+01    1.399237e+00
  2.570671e+01    1.492122e+00
  2.572259e+01    1.591858e+00
  2.573846e+01    1.722551e+00
  2.575434e+01    1.874107e+00
  2.577021e+01    2.037616e+00
  2.578609e+01    2.288277e+00
  2.580196e+01    2.629683e+00
  2.581784e+01    2.918402e+00
  2.583371e+01    3.336008e+00
  2.584959e+01    3.831700e+00
  2.586547e+01    4.366230e+00
  2.588134e+01    4.948802e+00
  2.589722e+01    5.565570e+00
  2.591309e+01    6.192560e+00
  2.592897e+01    6.779832e+00
  2.594484e+01    7.181667e+00
  2.596072e+01    7.497642e+00
  2.597660e+01    7.495673e+00
  2.599247e+01    7.219511e+00
  2.600835e+01    6.654586e+00
  2.602422e+01    5.930676e+00
  2.604010e+01    5.165387e+00
  2.605597e+01    4.419161e+00
  2.607185e+01    3.778876e+00
  2.608772e+01    3.277646e+00
  2.610360e+01    2.855714e+00
  2.611948e+01    2.480608e+00
  2.613535e+01    2.212532e+00
  2.615123e+01    1.996038e+00
  2.616710e+01    1.836240e+00
  2.618298e+01    1.682239e+00
  2.619885e+01    1.547090e+00
  2.621473e+01    1.466837e+00
  2.623060e+01    1.368995e+00
  2.624648e+01    1.272443e+00
  2.626236e+01    1.245450e+00
  2.627823e+01    1.193353e+00
  2.629411e+01    1.170093e+00
  2.630998e+01    1.134867e+00
  2.632586e+01    1.100369e+00
  2.634173e+01    1.065079e+00
  2.635761e+01    1.045022e+00
  2.637348e+01    9.887482e-01
  2.638936e+01    9.658368e-01
  2.640524e+01    9.634355e-01
  2.642111e+01    9.541557e-01
  2.643699e+01    9.522772e-01
  2.645286e+01    9.425030e-01
  2.646874e+01    9.470425e-01
  2.648461e+01    9.327214e-01
  2.650049e+01    9.231719e-01
  2.651636e+01    9.395570e-01
  2.653224e+01    9.186845e-01
  2.654812e+01    8.986457e-01
  2.656399e+01    8.912504e-01
  2.657987e+01    8.962935e-01
  2.659574e+01    8.850697e-01
  2.661162e+01    8.874322e-01
  2.662749e+01    8.909825e-01
  2.664337e+01    8.981273e-01
  2.665924e+01    8.796202e-01
  2.667512e+01    8.870262e-01
  2.669100e+01    8.839642e-01
  2.670687e+01    8.915725e-01
  2.672275e+01    9.009653e-01
  2.673862e+01    9.107006e-01
  2.675450e+01    8.861337e-01
  2.677037e+01    8.697091e-01
  2.678625e+01    8.753917e-01
  2.680212e+01    8.731406e-01
  2.681800e+01    8.714916e-01
  2.683388e+01    8.886082e-01
  2.684975e+01    9.194895e-01
  2.686563e+01    9.086415e-01
  2.688150e+01    8.991857e-01
  2.689738e+01    9.033185e-01
  2.691325e+01    9.120104e-01
  2.692913e+01    9.194954e-01
  2.694501e+01    9.268320e-01
  2.696088e+01    9.367449e-01
  2.697676e+01    9.466855e-01
  2.699263e+01    9.965832e-01
  2.700851e+01    1.036557e+00
  2.702438e+01    1.036314e+00
  2.704026e+01    1.088140e+00
  2.705613e+01    1.133845e+00
  2.707201e+01    1.184522e+00
  2.708789e+01    1.272015e+00
  2.710376e+01    1.372632e+00
  2.711964e+01    1.465557e+00
  2.713551e+01    1.586154e+00
  2.715139e+01    1.728247e+00
  2.716726e+01    1.870851e+00
  2.718314e+01    2.008897e+00
  2.719901e+01    2.167764e+00
  2.721489e+01    2.210562e+00
  2.723077e+01    2.219337e+00
  2.724664e+01    2.172472e+00
  2.726252e+01    2.071665e+00
  2.727839e+01    1.932508e+00
  2.729427e+01    1.779577e+00
  2.731014e+01    1.639620e+00
  2.732602e+01    1.505932e+00
  2.734189e+01    1.383312e+00
  2.735777e+01    1.280652e+00
  2.737365e+01    1.208599e+00
  2.738952e+01    1.145088e+00
  2.740540e+01    1.074943e+00
  2.742127e+01    1.042968e+00
  2.743715e+01    1.007660e+00
  2.745302e+01    9.780488e-01
  2.746890e+01    9.620923e-01
  2.748477e+01    9.255297e-01
  2.750065e+01    8.989995e-01
  2.751653e+01    8.838159e-01
  2.753240e+01    8.872951e-01
  2.754828e+01    8.839786e-01
  2.756415e+01    8.655894e-01
  2.758003e+01    8.668498e-01
  2.759590e+01    8.359926e-01
  2.761178e+01    8.536806e-01
  2.762765e+01    8.378215e-01
  2.764353e+01    8.150116e-01
  2.765941e+01    8.339436e-01
  2.767528e+01    8.201394e-01
  2.769116e+01    8.282661e-01
  2.770703e+01    8.296202e-01
  2.772291e+01    8.202513e-01
  2.773878e+01    8.003262e-01
  2.775466e+01    8.035379e-01
  2.777054e+01    8.006116e-01
  2.778641e+01    7.993478e-01
  2.780229e+01    8.178858e-01
  2.781816e+01    8.053544e-01
  2.783404e+01    8.074160e-01
  2.784991e+01    7.850189e-01
  2.786579e+01    7.868458e-01
  2.788166e+01    7.902136e-01
  2.789754e+01    7.786306e-01
  2.791342e+01    7.896883e-01
  2.792929e+01    7.956544e-01
  2.794517e+01    8.018158e-01
  2.796104e+01    8.055458e-01
  2.797692e+01    7.978505e-01
  2.799279e+01    7.753063e-01
  2.800867e+01    7.818381e-01
  2.802454e+01    7.824952e-01
  2.804042e+01    7.764050e-01
  2.805630e+01    7.738565e-01
  2.807217e+01    7.762124e-01
  2.808805e+01    7.887740e-01
  2.810392e+01    7.854335e-01
  2.811980e+01    7.806336e-01
  2.813567e+01    7.832247e-01
  2.815155e+01    7.739805e-01
  2.816742e+01    7.658581e-01
  2.818330e+01    7.631777e-01
  2.819918e+01    7.704716e-01
  2.821505e+01    7.722320e-01
  2.823093e+01    7.599429e-01
  2.824680e+01    7.696972e-01
  2.826268e+01    7.682464e-01
  2.827855e+01    7.726098e-01
  2.829443e+01    7.885872e-01
  2.831030e+01    7.804015e-01
  2.832618e+01    7.489321e-01
  2.834206e+01    7.495078e-01
  2.835793e+01    7.510027e-01
  2.837381e+01    7.511212e-01
  2.838968e+01    7.492556e-01
  2.840556e+01    7.515868e-01
  2.842143e+01    7.563620e-01
  2.843731e+01    7.626622e-01
  2.845318e+01    7.583411e-01
  2.846906e+01    7.469894e-01
  2.848494e+01    7.414538e-01
  2.850081e+01    7.474924e-01
  2.851669e+01    7.468637e-01
  2.853256e+01    7.529936e-01
  2.854844e+01    7.375510e-01
  2.856431e+01    7.279677e-01
  2.858019e+01    7.491547e-01
  2.859606e+01    7.486370e-01
  2.861194e+01    7.372904e-01
  2.862782e+01    7.281204e-01
  2.864369e+01    7.468310e-01
  2.865957e+01    7.493944e-01
  2.867544e+01    7.370168e-01
  2.869132e+01    7.254924e-01
  2.870719e+01    7.636498e-01
  2.872307e+01    7.493513e-01
  2.873895e+01    7.450040e-01
  2.875482e+01    7.684706e-01
  2.877070e+01    7.637568e-01
  2.878657e+01    7.555970e-01
  2.880245e+01    7.543252e-01
  2.881832e+01    7.305742e-01
  2.883420e+01    7.305626e-01
  2.885007e+01    7.405937e-01
  2.886595e+01    7.503050e-01
  2.888183e+01    7.447262e-01
  2.889770e+01    7.453399e-01
  2.891358e+01    7.246957e-01
  2.892945e+01    7.332213e-01
  2.894533e+01    7.266291e-01
  2.896120e+01    7.313269e-01
  2.897708e+01    7.379654e-01
  2.899295e+01    7.314587e-01
  2.900883e+01    7.405549e-01
  2.902471e+01    7.436724e-01
  2.904058e+01    7.263065e-01
  2.905646e+01    7.439349e-01
  2.907233e+01    7.334991e-01
  2.908821e+01    7.265322e-01
  2.910408e+01    7.183971e-01
  2.911996e+01    7.267802e-01
  2.913583e+01    7.323254e-01
  2.915171e+01    7.574795e-01
  2.916759e+01    7.559745e-01
  2.918346e+01    7.361014e-01
  2.919934e+01    7.352754e-01
  2.921521e+01    7.409930e-01
  2.923109e+01    7.360355e-01
  2.924696e+01    7.394089e-01
  2.926284e+01    7.230495e-01
  2.927871e+01    7.253785e-01
  2.929459e+01    7.300192e-01
  2.931047e+01    7.259435e-01
  2.932634e+01    7.233573e-01
  2.934222e+01    7.388482e-01
  2.935809e+01    7.325456e-01
  2.937397e+01    7.359864e-01
  2.938984e+01    7.259338e-01
  2.940572e+01    7.309458e-01
  2.942159e+01    7.230722e-01
  2.943747e+01    7.339353e-01
  2.945335e+01    7.233992e-01
  2.946922e+01    7.213888e-01
  2.948510e+01    7.025955e-01
  2.950097e+01    7.112471e-01
  2.951685e+01    7.320811e-01
  2.953272e+01    7.149663e-01
  2.954860e+01    7.263317e-01
  2.956447e+01    7.186835e-01
  2.958035e+01    7.213293e-01
  2.959623e+01    7.129700e-01
  2.961210e+01    7.060237e-01
  2.962798e+01    7.221494e-01
  2.964385e+01    7.125254e-01
  2.965973e+01    7.227090e-01
  2.967560e+01    7.281970e-01
  2.969148e+01    7.028761e-01
  2.970736e+01    7.122575e-01
  2.972323e+01    7.213587e-01
  2.973911e+01    7.236596e-01
  2.975498e+01    7.191056e-01
  2.977086e+01    7.115173e-01
  2.978673e+01    7.168121e-01
  2.980261e+01    7.191203e-01
  2.981848e+01    6.992221e-01
  2.983436e+01    7.021675e-01
  2.985024e+01    7.284889e-01
  2.986611e+01    7.175924e-01
  2.988199e+01    7.098696e-01
  2.989786e+01    7.048791e-01
  2.991374e+01    7.120063e-01
  2.992961e+01    7.158359e-01
  2.994549e+01    7.257461e-01
  2.996136e+01    7.196046e-01
  2.997724e+01    7.206164e-01
  2.999312e+01    7.431846e-01
  3.000899e+01    7.327238e-01
  3.002487e+01    7.227246e-01
  3.004074e+01    7.218659e-01
  3.005662e+01    7.257616e-01
  3.007249e+01    7.251539e-01
  3.008837e+01    7.263192e-01
  3.010424e+01    7.035065e-01
  3.012012e+01    7.232125e-01
  3.013600e+01    7.328132e-01
  3.015187e+01    7.071865e-01
  3.016775e+01    7.166458e-01
  3.018362e+01    7.021623e-01
  3.019950e+01    7.014256e-01
  3.021537e+01    6.962118e-01
  3.023125e+01    6.927841e-01
  3.024712e+01    7.115032e-01
  3.026300e+01    6.977472e-01
  3.027888e+01    7.105531e-01
  3.029475e+01    6.878166e-01
  3.031063e+01    7.004920e-01
  3.032650e+01    7.145281e-01
  3.034238e+01    7.052360e-01
  3.035825e+01    7.122650e-01
  3.037413e+01    7.130106e-01
  3.039000e+01    7.206227e-01
  3.040588e+01    7.129638e-01
  3.042176e+01    7.112694e-01
  3.043763e+01    6.984282e-01
  3.045351e+01    7.057064e-01
  3.046938e+01    7.052455e-01
  3.048526e+01    7.031460e-01
  3.050113e+01    7.092150e-01
  3.051701e+01    7.271287e-01
  3.053288e+01    7.081304e-01
  3.054876e+01    7.251320e-01
  3.056464e+01    7.177255e-01
  3.058051e+01    7.225497e-01
  3.059639e+01    7.029941e-01
  3.061226e+01    7.021799e-01
  3.062814e+01    7.333884e-01
  3.064401e+01    7.252969e-01
  3.065989e+01    7.264054e-01
  3.067577e+01    7.067508e-01
  3.069164e+01    7.118664e-01
  3.070752e+01    7.027444e-01
  3.072339e+01    7.202148e-01
  3.073927e+01    7.026324e-01
  3.075514e+01    7.181759e-01
  3.077102e+01    7.224356e-01
  3.078689e+01    7.193381e-01
  3.080277e+01    6.976703e-01
  3.081865e+01    7.032142e-01
  3.083452e+01    7.054446e-01
  3.085040e+01    7.107890e-01
  3.086627e+01    6.881402e-01
  3.088215e+01    6.972558e-01
  3.089802e+01    7.041854e-01
  3.091390e+01    7.151327e-01
  3.092977e+01    6.851735e-01
  3.094565e+01    7.044541e-01
  3.096153e+01    7.173731e-01
  3.097740e+01    7.261706e-01
  3.099328e+01    7.214199e-01
  3.100915e+01    7.165805e-01
  3.102503e+01    7.406651e-01
  3.104090e+01    7.326875e-01
  3.105678e+01    7.130859e-01
  3.107265e+01    7.138786e-01
  3.108853e+01    7.138591e-01
  3.110441e+01    7.177359e-01
  3.112028e+01    7.145770e-01
  3.113616e+01    7.200003e-01
  3.115203e+01    7.039983e-01
  3.116791e+01    7.231231e-01
  3.118378e+01    7.253928e-01
  3.119966e+01    7.205913e-01
  3.121553e+01    7.032351e-01
  3.123141e+01    7.050540e-01
  3.124729e+01    7.382734e-01
  3.126316e+01    7.423730e-01
  3.127904e+01    7.183304e-01
  3.129491e+01    7.325361e-01
  3.131079e+01    7.232020e-01
  3.132666e+01    7.420647e-01
  3.134254e+01    7.361965e-01
  3.135841e+01    7.235371e-01
  3.137429e+01    7.260997e-01
  3.139017e+01    7.452455e-01
  3.140604e+01    7.516678e-01
  3.142192e+01    7.333478e-01
  3.143779e+01    7.460151e-01
  3.145367e+01    7.411373e-01
  3.146954e+01    7.352335e-01
  3.148542e+01    7.447182e-01
  3.150129e+01    7.591922e-01
  3.151717e+01    7.560840e-01
  3.153305e+01    7.626942e-01
  3.154892e+01    7.674702e-01
  3.156480e+01    7.921633e-01
  3.158067e+01    8.157875e-01
  3.159655e+01    8.306785e-01
  3.161242e+01    8.488035e-01
  3.162830e+01    8.436499e-01
  3.164418e+01    8.581741e-01
  3.166005e+01    8.713790e-01
  3.167593e+01    8.844951e-01
  3.169180e+01    9.025711e-01
  3.170768e+01    9.524903e-01
  3.172355e+01    1.000224e+00
  3.173943e+01    1.019971e+00
  3.175530e+01    1.098452e+00
  3.177118e+01    1.153172e+00
  3.178706e+01    1.249398e+00
  3.180293e+01    1.350606e+00
  3.181881e+01    1.471018e+00
  3.183468e+01    1.618720e+00
  3.185056e+01    1.806000e+00
  3.186643e+01    1.945892e+00
  3.188231e+01    2.067424e+00
  3.189818e+01    2.156967e+00
  3.191406e+01    2.207391e+00
  3.192994e+01    2.201781e+00
  3.194581e+01    2.099856e+00
  3.196169e+01    1.979157e+00
  3.197756e+01    1.848010e+00
  3.199344e+01    1.707623e+00
  3.200931e+01    1.547744e+00
  3.202519e+01    1.387052e+00
  3.204106e+01    1.269228e+00
  3.205694e+01    1.151574e+00
  3.207282e+01    1.079932e+00
  3.208869e+01    1.041763e+00
  3.210457e+01    9.852472e-01
  3.212044e+01    9.137873e-01
  3.213632e+01    9.006591e-01
  3.215219e+01    9.153846e-01
  3.216807e+01    8.557550e-01
  3.218394e+01    8.521553e-01
  3.219982e+01    8.278184e-01
  3.221570e+01    8.174670e-01
  3.223157e+01    7.928682e-01
  3.224745e+01    7.785373e-01
  3.226332e+01    7.729223e-01
  3.227920e+01    7.819647e-01
  3.229507e+01    7.692859e-01
  3.231095e+01    7.658685e-01
  3.232682e+01    7.482812e-01
  3.234270e+01    7.317690e-01
  3.235858e+01    7.137536e-01
  3.237445e+01    7.205060e-01
  3.239033e+01    6.997466e-01
  3.240620e+01    6.920045e-01
  3.242208e+01    7.314016e-01
  3.243795e+01    7.306523e-01
  3.245383e+01    7.287539e-01
  3.246970e+01    7.360962e-01
  3.248558e+01    7.238293e-01
  3.250146e+01    7.141633e-01
  3.251733e+01    7.081324e-01
  3.253321e+01    7.271436e-01
  3.254908e+01    7.344613e-01
