# == pyFAI calibration ==
# Distance Sample to Detector: 0.3999999939076516 m
# PONI: 9.750e-02, 1.135e-01 m
# Rotations: -0.000175 0.000000 -0.000000 rad
# 
# == Fit2d calibration ==
# Distance Sample-beamCenter: 400.000 mm
# Center: x=1514.000, y=1300.000 pix
# Tilt: 0.010 deg  TiltPlanRot: 0.010 deg
# 
# Detector Detector	 Spline= None	 PixelSize= 7.500e-05, 7.500e-05 m
#    Detector has a mask: False 
#    Detector has a dark current: False 
#    detector has a flat field: False 
# 
# Wavelength: 6.888e-11 m
# Mask applied: user provided
# Dark current applied: False
# Flat field applied: False
# Polarization factor: 0.99
# Normalization factor: 1.0
# --> /home/myspot/data/2024_07_Rosario/Ru-CGO-ex/2024-07-27_002_Ru-CGO-ex_Activtation_ramp_000002_data_000156.dat
#       q_nm^-1             I 
  2.003187e-02    0.000000e+00
  3.590745e-02    3.429401e-02
  5.178302e-02    1.896245e-01
  6.765859e-02    1.811644e-01
  8.353417e-02    7.878944e-02
  9.940974e-02    1.064913e-01
  1.152853e-01    8.964861e-02
  1.311609e-01    6.152998e-02
  1.470365e-01    3.849993e-02
  1.629120e-01    3.216825e-02
  1.787876e-01    3.923429e-02
  1.946632e-01    1.604463e-02
  2.105388e-01    3.720579e-02
  2.264143e-01    2.105133e-02
  2.422899e-01    8.584212e-03
  2.581655e-01    3.072095e-02
  2.740411e-01    5.190238e-02
  2.899166e-01    3.321337e-02
  3.057922e-01    3.151140e-02
  3.216678e-01    2.839583e-02
  3.375433e-01    2.533131e-02
  3.534189e-01    1.109220e-02
  3.692945e-01    9.793037e-03
  3.851701e-01    2.778502e-02
  4.010456e-01    6.977468e-02
  4.169212e-01    2.420608e-02
  4.327968e-01    2.307091e-02
  4.486724e-01    3.489543e-02
  4.645479e-01    3.313419e-02
  4.804235e-01    2.378519e-02
  4.962991e-01    3.039241e-02
  5.121747e-01    1.739940e-02
  5.280502e-01    2.187251e-02
  5.439258e-01    2.590939e-02
  5.598014e-01    3.951595e-02
  5.756770e-01    4.639519e-02
  5.915525e-01    5.114968e-02
  6.074281e-01    1.525195e-02
  6.233037e-01    1.086845e-02
  6.391793e-01    3.999845e-02
  6.550548e-01    3.596805e-02
  6.709304e-01    3.734324e-02
  6.868060e-01    3.062577e-02
  7.026815e-01    4.471287e-02
  7.185571e-01    5.455980e-02
  7.344327e-01    3.691964e-02
  7.503083e-01    4.733034e-02
  7.661838e-01    4.725263e-02
  7.820594e-01    1.065998e-01
  7.979350e-01    1.444489e-01
  8.138106e-01    1.876608e-01
  8.296861e-01    2.326088e-01
  8.455617e-01    2.767223e-01
  8.614373e-01    3.494685e-01
  8.773129e-01    4.102787e-01
  8.931884e-01    4.593080e-01
  9.090640e-01    5.009699e-01
  9.249396e-01    5.779016e-01
  9.408152e-01    7.188655e-01
  9.566907e-01    7.903039e-01
  9.725663e-01    8.698295e-01
  9.884419e-01    9.197310e-01
  1.004317e+00    1.042053e+00
  1.020193e+00    1.147138e+00
  1.036069e+00    1.227774e+00
  1.051944e+00    1.282658e+00
  1.067820e+00    1.329987e+00
  1.083695e+00    1.318631e+00
  1.099571e+00    1.470186e+00
  1.115446e+00    1.480572e+00
  1.131322e+00    1.478456e+00
  1.147198e+00    1.424785e+00
  1.163073e+00    1.413782e+00
  1.178949e+00    1.448753e+00
  1.194824e+00    1.655430e+00
  1.210700e+00    1.896800e+00
  1.226575e+00    2.110569e+00
  1.242451e+00    2.192921e+00
  1.258327e+00    2.298802e+00
  1.274202e+00    2.356958e+00
  1.290078e+00    2.383863e+00
  1.305953e+00    2.432277e+00
  1.321829e+00    2.576911e+00
  1.337705e+00    2.437553e+00
  1.353580e+00    2.426436e+00
  1.369456e+00    2.698537e+00
  1.385331e+00    2.668753e+00
  1.401207e+00    2.654051e+00
  1.417082e+00    2.645956e+00
  1.432958e+00    2.606116e+00
  1.448834e+00    2.706924e+00
  1.464709e+00    2.700347e+00
  1.480585e+00    2.806321e+00
  1.496460e+00    2.778581e+00
  1.512336e+00    2.729126e+00
  1.528211e+00    2.755727e+00
  1.544087e+00    2.890288e+00
  1.559963e+00    2.893935e+00
  1.575838e+00    2.859117e+00
  1.591714e+00    2.904687e+00
  1.607589e+00    2.889688e+00
  1.623465e+00    2.932679e+00
  1.639340e+00    2.814222e+00
  1.655216e+00    2.870169e+00
  1.671092e+00    2.802225e+00
  1.686967e+00    2.832376e+00
  1.702843e+00    2.809193e+00
  1.718718e+00    2.779307e+00
  1.734594e+00    2.777725e+00
  1.750469e+00    2.791717e+00
  1.766345e+00    2.819746e+00
  1.782221e+00    2.780743e+00
  1.798096e+00    2.678277e+00
  1.813972e+00    2.648836e+00
  1.829847e+00    2.774259e+00
  1.845723e+00    2.840137e+00
  1.861598e+00    2.856362e+00
  1.877474e+00    2.748988e+00
  1.893350e+00    2.685589e+00
  1.909225e+00    2.659627e+00
  1.925101e+00    2.661085e+00
  1.940976e+00    2.673962e+00
  1.956852e+00    2.782654e+00
  1.972727e+00    2.816825e+00
  1.988603e+00    2.849296e+00
  2.004479e+00    2.767928e+00
  2.020354e+00    2.669864e+00
  2.036230e+00    2.560856e+00
  2.052105e+00    2.721323e+00
  2.067981e+00    2.807045e+00
  2.083856e+00    2.748337e+00
  2.099732e+00    2.729923e+00
  2.115608e+00    2.768845e+00
  2.131483e+00    2.697341e+00
  2.147359e+00    2.593282e+00
  2.163234e+00    2.685066e+00
  2.179110e+00    2.875881e+00
  2.194985e+00    2.795665e+00
  2.210861e+00    2.730217e+00
  2.226737e+00    2.666283e+00
  2.242612e+00    2.734158e+00
  2.258488e+00    2.768562e+00
  2.274363e+00    2.739599e+00
  2.290239e+00    2.740021e+00
  2.306115e+00    2.797093e+00
  2.321990e+00    2.704005e+00
  2.337866e+00    2.779953e+00
  2.353741e+00    2.725889e+00
  2.369617e+00    2.710336e+00
  2.385492e+00    2.689226e+00
  2.401368e+00    2.720971e+00
  2.417244e+00    2.755241e+00
  2.433119e+00    2.773254e+00
  2.448995e+00    2.697156e+00
  2.464870e+00    2.689044e+00
  2.480746e+00    2.766603e+00
  2.496621e+00    2.803453e+00
  2.512497e+00    2.822986e+00
  2.528373e+00    2.789786e+00
  2.544248e+00    2.726922e+00
  2.560124e+00    2.769164e+00
  2.575999e+00    2.719111e+00
  2.591875e+00    2.756190e+00
  2.607750e+00    2.825538e+00
  2.623626e+00    2.869893e+00
  2.639502e+00    2.812393e+00
  2.655377e+00    2.872523e+00
  2.671253e+00    2.943778e+00
  2.687128e+00    2.813505e+00
  2.703004e+00    2.838950e+00
  2.718879e+00    2.827708e+00
  2.734755e+00    2.791114e+00
  2.750631e+00    2.725133e+00
  2.766506e+00    2.805152e+00
  2.782382e+00    2.833733e+00
  2.798257e+00    2.797095e+00
  2.814133e+00    2.879027e+00
  2.830008e+00    2.820758e+00
  2.845884e+00    2.891897e+00
  2.861760e+00    2.889048e+00
  2.877635e+00    2.888896e+00
  2.893511e+00    2.919304e+00
  2.909386e+00    2.914693e+00
  2.925262e+00    2.862952e+00
  2.941137e+00    2.813126e+00
  2.957013e+00    2.828854e+00
  2.972889e+00    2.889058e+00
  2.988764e+00    2.748279e+00
  3.004640e+00    2.859906e+00
  3.020515e+00    2.985433e+00
  3.036391e+00    2.927974e+00
  3.052266e+00    2.818761e+00
  3.068142e+00    2.891468e+00
  3.084018e+00    2.873223e+00
  3.099893e+00    2.860419e+00
  3.115769e+00    2.917165e+00
  3.131644e+00    2.876173e+00
  3.147520e+00    2.854387e+00
  3.163395e+00    2.844635e+00
  3.179271e+00    2.932056e+00
  3.195147e+00    2.958147e+00
  3.211022e+00    2.924677e+00
  3.226898e+00    2.907076e+00
  3.242773e+00    2.883806e+00
  3.258649e+00    2.912444e+00
  3.274525e+00    2.913556e+00
  3.290400e+00    3.073284e+00
  3.306276e+00    2.981560e+00
  3.322151e+00    2.998853e+00
  3.338027e+00    3.059438e+00
  3.353902e+00    2.974898e+00
  3.369778e+00    2.943008e+00
  3.385654e+00    2.958125e+00
  3.401529e+00    2.858652e+00
  3.417405e+00    2.851835e+00
  3.433280e+00    2.909718e+00
  3.449156e+00    3.006308e+00
  3.465031e+00    2.992285e+00
  3.480907e+00    2.954539e+00
  3.496783e+00    2.952421e+00
  3.512658e+00    2.888849e+00
  3.528534e+00    2.885690e+00
  3.544409e+00    2.947774e+00
  3.560285e+00    2.933803e+00
  3.576160e+00    2.982814e+00
  3.592036e+00    3.031315e+00
  3.607912e+00    3.034292e+00
  3.623787e+00    2.979944e+00
  3.639663e+00    3.032580e+00
  3.655538e+00    3.003705e+00
  3.671414e+00    3.040461e+00
  3.687289e+00    3.008451e+00
  3.703165e+00    3.008930e+00
  3.719041e+00    3.059579e+00
  3.734916e+00    3.032211e+00
  3.750792e+00    2.947295e+00
  3.766667e+00    2.880241e+00
  3.782543e+00    2.981270e+00
  3.798418e+00    3.001257e+00
  3.814294e+00    3.062375e+00
  3.830170e+00    2.994088e+00
  3.846045e+00    2.982293e+00
  3.861921e+00    3.001183e+00
  3.877796e+00    2.999436e+00
  3.893672e+00    3.076499e+00
  3.909547e+00    2.986091e+00
  3.925423e+00    3.058029e+00
  3.941299e+00    3.112027e+00
  3.957174e+00    3.024200e+00
  3.973050e+00    3.203598e+00
  3.988925e+00    3.060404e+00
  4.004801e+00    3.036337e+00
  4.020676e+00    3.029605e+00
  4.036552e+00    3.018866e+00
  4.052428e+00    3.036675e+00
  4.068303e+00    3.018715e+00
  4.084179e+00    3.038678e+00
  4.100054e+00    3.041598e+00
  4.115930e+00    2.955766e+00
  4.131806e+00    2.986365e+00
  4.147681e+00    2.958692e+00
  4.163557e+00    2.985343e+00
  4.179432e+00    3.035091e+00
  4.195308e+00    3.036036e+00
  4.211183e+00    3.007909e+00
  4.227059e+00    3.173673e+00
  4.242935e+00    3.121097e+00
  4.258810e+00    3.112570e+00
  4.274686e+00    3.030726e+00
  4.290561e+00    3.051172e+00
  4.306437e+00    3.112038e+00
  4.322312e+00    3.026356e+00
  4.338188e+00    3.041890e+00
  4.354064e+00    3.080919e+00
  4.369939e+00    3.090986e+00
  4.385815e+00    3.095385e+00
  4.401690e+00    3.047635e+00
  4.417566e+00    3.003911e+00
  4.433441e+00    3.075897e+00
  4.449317e+00    3.128150e+00
  4.465193e+00    3.085428e+00
  4.481068e+00    2.960266e+00
  4.496944e+00    3.038771e+00
  4.512819e+00    3.102272e+00
  4.528695e+00    3.188855e+00
  4.544570e+00    3.103270e+00
  4.560446e+00    3.038981e+00
  4.576322e+00    3.109985e+00
  4.592197e+00    3.125558e+00
  4.608073e+00    3.190571e+00
  4.623948e+00    3.190955e+00
  4.639824e+00    3.179825e+00
  4.655699e+00    3.087593e+00
  4.671575e+00    3.029451e+00
  4.687451e+00    3.105641e+00
  4.703326e+00    3.177231e+00
  4.719202e+00    3.133692e+00
  4.735077e+00    3.167906e+00
  4.750953e+00    3.137370e+00
  4.766828e+00    3.082066e+00
  4.782704e+00    3.148666e+00
  4.798580e+00    3.162568e+00
  4.814455e+00    3.091160e+00
  4.830331e+00    3.066728e+00
  4.846206e+00    3.123565e+00
  4.862082e+00    3.126940e+00
  4.877957e+00    3.098541e+00
  4.893833e+00    3.072694e+00
  4.909709e+00    3.048236e+00
  4.925584e+00    3.150306e+00
  4.941460e+00    3.238493e+00
  4.957335e+00    3.078547e+00
  4.973211e+00    3.131313e+00
  4.989086e+00    3.152177e+00
  5.004962e+00    3.100048e+00
  5.020838e+00    3.210537e+00
  5.036713e+00    3.216503e+00
  5.052589e+00    3.092712e+00
  5.068464e+00    3.057591e+00
  5.084340e+00    3.068618e+00
  5.100216e+00    3.212820e+00
  5.116091e+00    3.184097e+00
  5.131967e+00    3.152478e+00
  5.147842e+00    3.117130e+00
  5.163718e+00    3.092401e+00
  5.179593e+00    3.142004e+00
  5.195469e+00    3.176841e+00
  5.211345e+00    3.216675e+00
  5.227220e+00    3.150572e+00
  5.243096e+00    3.103956e+00
  5.258971e+00    3.135011e+00
  5.274847e+00    3.230840e+00
  5.290722e+00    3.158455e+00
  5.306598e+00    3.112805e+00
  5.322474e+00    3.118081e+00
  5.338349e+00    3.122534e+00
  5.354225e+00    3.096712e+00
  5.370100e+00    3.130682e+00
  5.385976e+00    3.152655e+00
  5.401851e+00    3.155924e+00
  5.417727e+00    3.113645e+00
  5.433603e+00    3.111545e+00
  5.449478e+00    3.136240e+00
  5.465354e+00    3.096617e+00
  5.481229e+00    3.039923e+00
  5.497105e+00    3.098210e+00
  5.512980e+00    3.120693e+00
  5.528856e+00    3.063591e+00
  5.544732e+00    3.034636e+00
  5.560607e+00    3.132198e+00
  5.576483e+00    3.137919e+00
  5.592358e+00    3.168049e+00
  5.608234e+00    3.106236e+00
  5.624109e+00    3.058993e+00
  5.639985e+00    3.104629e+00
  5.655861e+00    3.191408e+00
  5.671736e+00    3.179079e+00
  5.687612e+00    3.150214e+00
  5.703487e+00    3.100116e+00
  5.719363e+00    3.047421e+00
  5.735238e+00    3.063551e+00
  5.751114e+00    3.038843e+00
  5.766990e+00    3.029814e+00
  5.782865e+00    3.076720e+00
  5.798741e+00    3.059583e+00
  5.814616e+00    3.027378e+00
  5.830492e+00    3.127923e+00
  5.846367e+00    3.100473e+00
  5.862243e+00    3.001229e+00
  5.878119e+00    2.976191e+00
  5.893994e+00    3.027454e+00
  5.909870e+00    3.070120e+00
  5.925745e+00    3.094553e+00
  5.941621e+00    2.983937e+00
  5.957497e+00    2.951538e+00
  5.973372e+00    3.016594e+00
  5.989248e+00    3.070288e+00
  6.005123e+00    3.010902e+00
  6.020999e+00    3.085723e+00
  6.036874e+00    3.088083e+00
  6.052750e+00    3.179718e+00
  6.068626e+00    3.119447e+00
  6.084501e+00    3.109584e+00
  6.100377e+00    3.181837e+00
  6.116252e+00    3.161834e+00
  6.132128e+00    3.015663e+00
  6.148003e+00    3.058042e+00
  6.163879e+00    3.095133e+00
  6.179755e+00    3.072470e+00
  6.195630e+00    3.100372e+00
  6.211506e+00    3.118733e+00
  6.227381e+00    3.097869e+00
  6.243257e+00    3.071490e+00
  6.259132e+00    3.059212e+00
  6.275008e+00    3.102710e+00
  6.290884e+00    3.052165e+00
  6.306759e+00    3.055903e+00
  6.322635e+00    3.008646e+00
  6.338510e+00    3.084287e+00
  6.354386e+00    3.075919e+00
  6.370261e+00    3.118484e+00
  6.386137e+00    3.095082e+00
  6.402013e+00    3.026514e+00
  6.417888e+00    3.030466e+00
  6.433764e+00    3.059943e+00
  6.449639e+00    3.025169e+00
  6.465515e+00    3.120426e+00
  6.481390e+00    3.093394e+00
  6.497266e+00    2.960736e+00
  6.513142e+00    3.039508e+00
  6.529017e+00    3.078214e+00
  6.544893e+00    3.046242e+00
  6.560768e+00    2.956541e+00
  6.576644e+00    2.937556e+00
  6.592519e+00    3.017398e+00
  6.608395e+00    3.041931e+00
  6.624271e+00    2.996716e+00
  6.640146e+00    3.019691e+00
  6.656022e+00    3.036464e+00
  6.671897e+00    3.034772e+00
  6.687773e+00    3.010375e+00
  6.703648e+00    3.039748e+00
  6.719524e+00    2.992315e+00
  6.735400e+00    3.036029e+00
  6.751275e+00    2.989815e+00
  6.767151e+00    3.018158e+00
  6.783026e+00    3.069916e+00
  6.798902e+00    3.066989e+00
  6.814777e+00    3.090585e+00
  6.830653e+00    3.051125e+00
  6.846529e+00    3.055439e+00
  6.862404e+00    3.069265e+00
  6.878280e+00    3.022138e+00
  6.894155e+00    2.968841e+00
  6.910031e+00    2.984762e+00
  6.925907e+00    3.015569e+00
  6.941782e+00    3.049278e+00
  6.957658e+00    2.987821e+00
  6.973533e+00    3.051653e+00
  6.989409e+00    3.043480e+00
  7.005284e+00    3.044941e+00
  7.021160e+00    3.042332e+00
  7.037036e+00    3.028018e+00
  7.052911e+00    3.078445e+00
  7.068787e+00    3.052960e+00
  7.084662e+00    2.957512e+00
  7.100538e+00    2.962355e+00
  7.116413e+00    2.964347e+00
  7.132289e+00    3.031264e+00
  7.148165e+00    3.002043e+00
  7.164040e+00    2.985100e+00
  7.179916e+00    3.009348e+00
  7.195791e+00    3.045561e+00
  7.211667e+00    3.056783e+00
  7.227542e+00    3.016568e+00
  7.243418e+00    3.017087e+00
  7.259294e+00    3.079617e+00
  7.275169e+00    2.996865e+00
  7.291045e+00    3.025112e+00
  7.306920e+00    3.009418e+00
  7.322796e+00    2.999823e+00
  7.338671e+00    3.034538e+00
  7.354547e+00    2.977560e+00
  7.370423e+00    2.980989e+00
  7.386298e+00    3.096604e+00
  7.402174e+00    3.111129e+00
  7.418049e+00    3.062616e+00
  7.433925e+00    2.994765e+00
  7.449800e+00    3.009109e+00
  7.465676e+00    3.013423e+00
  7.481552e+00    2.989695e+00
  7.497427e+00    2.994564e+00
  7.513303e+00    3.047296e+00
  7.529178e+00    2.995935e+00
  7.545054e+00    2.923824e+00
  7.560929e+00    2.914137e+00
  7.576805e+00    2.938565e+00
  7.592681e+00    2.939225e+00
  7.608556e+00    2.983409e+00
  7.624432e+00    2.980928e+00
  7.640307e+00    2.936184e+00
  7.656183e+00    2.825918e+00
  7.672058e+00    2.926176e+00
  7.687934e+00    2.926270e+00
  7.703810e+00    2.972451e+00
  7.719685e+00    2.988765e+00
  7.735561e+00    2.966258e+00
  7.751436e+00    2.989027e+00
  7.767312e+00    2.955357e+00
  7.783187e+00    2.925505e+00
  7.799063e+00    2.913492e+00
  7.814939e+00    2.950524e+00
  7.830814e+00    2.965649e+00
  7.846690e+00    2.970741e+00
  7.862565e+00    2.957608e+00
  7.878441e+00    3.005752e+00
  7.894317e+00    2.977035e+00
  7.910192e+00    2.913160e+00
  7.926068e+00    2.913858e+00
  7.941943e+00    2.954070e+00
  7.957819e+00    2.952221e+00
  7.973694e+00    2.944333e+00
  7.989570e+00    2.943579e+00
  8.005446e+00    2.951464e+00
  8.021321e+00    2.894397e+00
  8.037197e+00    2.925962e+00
  8.053072e+00    2.947700e+00
  8.068948e+00    2.936069e+00
  8.084823e+00    2.958253e+00
  8.100699e+00    2.941532e+00
  8.116575e+00    2.930494e+00
  8.132450e+00    2.981760e+00
  8.148326e+00    2.984357e+00
  8.164201e+00    2.951619e+00
  8.180077e+00    2.945810e+00
  8.195952e+00    3.070961e+00
  8.211828e+00    3.002935e+00
  8.227704e+00    2.923017e+00
  8.243579e+00    2.967301e+00
  8.259455e+00    2.974697e+00
  8.275330e+00    2.958133e+00
  8.291206e+00    2.968664e+00
  8.307081e+00    2.899381e+00
  8.322957e+00    2.910574e+00
  8.338833e+00    2.920807e+00
  8.354708e+00    2.926908e+00
  8.370584e+00    2.856829e+00
  8.386459e+00    2.857831e+00
  8.402335e+00    2.885988e+00
  8.418210e+00    2.849675e+00
  8.434086e+00    2.909889e+00
  8.449962e+00    2.891834e+00
  8.465837e+00    2.944449e+00
  8.481713e+00    2.916120e+00
  8.497588e+00    2.913799e+00
  8.513464e+00    2.890061e+00
  8.529339e+00    2.863398e+00
  8.545215e+00    2.885262e+00
  8.561091e+00    2.804853e+00
  8.576966e+00    2.819042e+00
  8.592842e+00    2.870947e+00
  8.608717e+00    2.888255e+00
  8.624593e+00    2.895904e+00
  8.640468e+00    2.882613e+00
  8.656344e+00    2.811399e+00
  8.672220e+00    2.825938e+00
  8.688095e+00    2.897157e+00
  8.703971e+00    2.890702e+00
  8.719846e+00    2.842947e+00
  8.735722e+00    2.931595e+00
  8.751598e+00    2.892049e+00
  8.767473e+00    2.849921e+00
  8.783349e+00    2.939892e+00
  8.799224e+00    2.895490e+00
  8.815100e+00    2.915653e+00
  8.830975e+00    2.844914e+00
  8.846851e+00    2.845526e+00
  8.862727e+00    2.864612e+00
  8.878602e+00    2.796975e+00
  8.894478e+00    2.803117e+00
  8.910353e+00    2.851681e+00
  8.926229e+00    2.820766e+00
  8.942104e+00    2.819780e+00
  8.957980e+00    2.808980e+00
  8.973856e+00    2.824133e+00
  8.989731e+00    2.826533e+00
  9.005607e+00    2.827640e+00
  9.021482e+00    2.809190e+00
  9.037358e+00    2.771091e+00
  9.053233e+00    2.784026e+00
  9.069109e+00    2.791383e+00
  9.084985e+00    2.781573e+00
  9.100860e+00    2.806383e+00
  9.116736e+00    2.804257e+00
  9.132611e+00    2.865904e+00
  9.148487e+00    2.776078e+00
  9.164362e+00    2.781707e+00
  9.180238e+00    2.821344e+00
  9.196114e+00    2.885207e+00
  9.211989e+00    2.837579e+00
  9.227865e+00    2.783347e+00
  9.243740e+00    2.786525e+00
  9.259616e+00    2.780471e+00
  9.275491e+00    2.791088e+00
  9.291367e+00    2.822871e+00
  9.307243e+00    2.802776e+00
  9.323118e+00    2.767946e+00
  9.338994e+00    2.778559e+00
  9.354869e+00    2.821457e+00
  9.370745e+00    2.753170e+00
  9.386620e+00    2.751105e+00
  9.402496e+00    2.796867e+00
  9.418372e+00    2.811719e+00
  9.434247e+00    2.842398e+00
  9.450123e+00    2.799313e+00
  9.465998e+00    2.754017e+00
  9.481874e+00    2.746323e+00
  9.497749e+00    2.735729e+00
  9.513625e+00    2.718542e+00
  9.529501e+00    2.759085e+00
  9.545376e+00    2.795716e+00
  9.561252e+00    2.783262e+00
  9.577127e+00    2.754547e+00
  9.593003e+00    2.794064e+00
  9.608878e+00    2.814169e+00
  9.624754e+00    2.843176e+00
  9.640630e+00    2.794182e+00
  9.656505e+00    2.784233e+00
  9.672381e+00    2.747282e+00
  9.688256e+00    2.723572e+00
  9.704132e+00    2.731063e+00
  9.720008e+00    2.725258e+00
  9.735883e+00    2.715940e+00
  9.751759e+00    2.706749e+00
  9.767634e+00    2.678117e+00
  9.783510e+00    2.718787e+00
  9.799385e+00    2.765237e+00
  9.815261e+00    2.726167e+00
  9.831137e+00    2.747032e+00
  9.847012e+00    2.749292e+00
  9.862888e+00    2.734300e+00
  9.878763e+00    2.704685e+00
  9.894639e+00    2.700769e+00
  9.910514e+00    2.670700e+00
  9.926390e+00    2.683024e+00
  9.942266e+00    2.673769e+00
  9.958141e+00    2.692836e+00
  9.974017e+00    2.728561e+00
  9.989892e+00    2.674646e+00
  1.000577e+01    2.655205e+00
  1.002164e+01    2.684585e+00
  1.003752e+01    2.698302e+00
  1.005339e+01    2.661760e+00
  1.006927e+01    2.682357e+00
  1.008515e+01    2.661011e+00
  1.010102e+01    2.621521e+00
  1.011690e+01    2.595631e+00
  1.013277e+01    2.717221e+00
  1.014865e+01    2.697974e+00
  1.016452e+01    2.696313e+00
  1.018040e+01    2.659394e+00
  1.019627e+01    2.643628e+00
  1.021215e+01    2.656811e+00
  1.022803e+01    2.669502e+00
  1.024390e+01    2.644058e+00
  1.025978e+01    2.603454e+00
  1.027565e+01    2.598056e+00
  1.029153e+01    2.604892e+00
  1.030740e+01    2.646667e+00
  1.032328e+01    2.695012e+00
  1.033915e+01    2.658032e+00
  1.035503e+01    2.617509e+00
  1.037091e+01    2.606422e+00
  1.038678e+01    2.612754e+00
  1.040266e+01    2.650558e+00
  1.041853e+01    2.653025e+00
  1.043441e+01    2.580560e+00
  1.045028e+01    2.590134e+00
  1.046616e+01    2.566815e+00
  1.048204e+01    2.645959e+00
  1.049791e+01    2.686686e+00
  1.051379e+01    2.631080e+00
  1.052966e+01    2.634862e+00
  1.054554e+01    2.633824e+00
  1.056141e+01    2.543838e+00
  1.057729e+01    2.534924e+00
  1.059316e+01    2.561047e+00
  1.060904e+01    2.617202e+00
  1.062492e+01    2.579662e+00
  1.064079e+01    2.562235e+00
  1.065667e+01    2.566769e+00
  1.067254e+01    2.601179e+00
  1.068842e+01    2.568789e+00
  1.070429e+01    2.571189e+00
  1.072017e+01    2.546992e+00
  1.073604e+01    2.534104e+00
  1.075192e+01    2.560376e+00
  1.076780e+01    2.550557e+00
  1.078367e+01    2.593349e+00
  1.079955e+01    2.527041e+00
  1.081542e+01    2.544846e+00
  1.083130e+01    2.517671e+00
  1.084717e+01    2.494321e+00
  1.086305e+01    2.546313e+00
  1.087892e+01    2.607887e+00
  1.089480e+01    2.588785e+00
  1.091068e+01    2.537498e+00
  1.092655e+01    2.493807e+00
  1.094243e+01    2.480872e+00
  1.095830e+01    2.492276e+00
  1.097418e+01    2.478376e+00
  1.099005e+01    2.539195e+00
  1.100593e+01    2.536599e+00
  1.102180e+01    2.515401e+00
  1.103768e+01    2.504545e+00
  1.105356e+01    2.492168e+00
  1.106943e+01    2.475570e+00
  1.108531e+01    2.502652e+00
  1.110118e+01    2.526440e+00
  1.111706e+01    2.476314e+00
  1.113293e+01    2.483730e+00
  1.114881e+01    2.478627e+00
  1.116468e+01    2.456401e+00
  1.118056e+01    2.457572e+00
  1.119644e+01    2.498182e+00
  1.121231e+01    2.470122e+00
  1.122819e+01    2.458912e+00
  1.124406e+01    2.447282e+00
  1.125994e+01    2.419206e+00
  1.127581e+01    2.420599e+00
  1.129169e+01    2.467466e+00
  1.130756e+01    2.494001e+00
  1.132344e+01    2.430583e+00
  1.133932e+01    2.384536e+00
  1.135519e+01    2.416471e+00
  1.137107e+01    2.443892e+00
  1.138694e+01    2.413314e+00
  1.140282e+01    2.466360e+00
  1.141869e+01    2.463501e+00
  1.143457e+01    2.466727e+00
  1.145045e+01    2.454162e+00
  1.146632e+01    2.425163e+00
  1.148220e+01    2.402567e+00
  1.149807e+01    2.421890e+00
  1.151395e+01    2.416919e+00
  1.152982e+01    2.421419e+00
  1.154570e+01    2.428590e+00
  1.156157e+01    2.409654e+00
  1.157745e+01    2.414820e+00
  1.159333e+01    2.400710e+00
  1.160920e+01    2.369395e+00
  1.162508e+01    2.350507e+00
  1.164095e+01    2.416936e+00
  1.165683e+01    2.398216e+00
  1.167270e+01    2.373395e+00
  1.168858e+01    2.408749e+00
  1.170445e+01    2.406049e+00
  1.172033e+01    2.349705e+00
  1.173621e+01    2.387355e+00
  1.175208e+01    2.354445e+00
  1.176796e+01    2.375051e+00
  1.178383e+01    2.372796e+00
  1.179971e+01    2.361115e+00
  1.181558e+01    2.351955e+00
  1.183146e+01    2.412779e+00
  1.184733e+01    2.392426e+00
  1.186321e+01    2.392374e+00
  1.187909e+01    2.351235e+00
  1.189496e+01    2.357928e+00
  1.191084e+01    2.333827e+00
  1.192671e+01    2.382025e+00
  1.194259e+01    2.324628e+00
  1.195846e+01    2.341561e+00
  1.197434e+01    2.367929e+00
  1.199021e+01    2.368903e+00
  1.200609e+01    2.361826e+00
  1.202197e+01    2.337960e+00
  1.203784e+01    2.355839e+00
  1.205372e+01    2.309931e+00
  1.206959e+01    2.328544e+00
  1.208547e+01    2.365159e+00
  1.210134e+01    2.282516e+00
  1.211722e+01    2.353170e+00
  1.213309e+01    2.338035e+00
  1.214897e+01    2.309078e+00
  1.216485e+01    2.267700e+00
  1.218072e+01    2.298683e+00
  1.219660e+01    2.322871e+00
  1.221247e+01    2.318968e+00
  1.222835e+01    2.306296e+00
  1.224422e+01    2.337529e+00
  1.226010e+01    2.326935e+00
  1.227597e+01    2.275441e+00
  1.229185e+01    2.285033e+00
  1.230773e+01    2.314396e+00
  1.232360e+01    2.320634e+00
  1.233948e+01    2.354008e+00
  1.235535e+01    2.376654e+00
  1.237123e+01    2.360164e+00
  1.238710e+01    2.324818e+00
  1.240298e+01    2.316862e+00
  1.241886e+01    2.294079e+00
  1.243473e+01    2.314487e+00
  1.245061e+01    2.332577e+00
  1.246648e+01    2.350394e+00
  1.248236e+01    2.354578e+00
  1.249823e+01    2.316701e+00
  1.251411e+01    2.316123e+00
  1.252998e+01    2.336125e+00
  1.254586e+01    2.376196e+00
  1.256174e+01    2.396715e+00
  1.257761e+01    2.391557e+00
  1.259349e+01    2.400501e+00
  1.260936e+01    2.417020e+00
  1.262524e+01    2.372440e+00
  1.264111e+01    2.399854e+00
  1.265699e+01    2.402079e+00
  1.267286e+01    2.463745e+00
  1.268874e+01    2.498123e+00
  1.270462e+01    2.481339e+00
  1.272049e+01    2.480103e+00
  1.273637e+01    2.509431e+00
  1.275224e+01    2.516670e+00
  1.276812e+01    2.556326e+00
  1.278399e+01    2.592941e+00
  1.279987e+01    2.675551e+00
  1.281574e+01    2.748853e+00
  1.283162e+01    2.796298e+00
  1.284750e+01    2.866652e+00
  1.286337e+01    2.934227e+00
  1.287925e+01    3.016708e+00
  1.289512e+01    3.151321e+00
  1.291100e+01    3.325114e+00
  1.292687e+01    3.477070e+00
  1.294275e+01    3.701894e+00
  1.295862e+01    4.010614e+00
  1.297450e+01    4.385938e+00
  1.299038e+01    4.843705e+00
  1.300625e+01    5.463747e+00
  1.302213e+01    6.242005e+00
  1.303800e+01    7.203878e+00
  1.305388e+01    8.282216e+00
  1.306975e+01    9.597650e+00
  1.308563e+01    1.085683e+01
  1.310150e+01    1.216184e+01
  1.311738e+01    1.335944e+01
  1.313326e+01    1.437193e+01
  1.314913e+01    1.536133e+01
  1.316501e+01    1.622270e+01
  1.318088e+01    1.650747e+01
  1.319676e+01    1.612740e+01
  1.321263e+01    1.477232e+01
  1.322851e+01    1.293636e+01
  1.324438e+01    1.103457e+01
  1.326026e+01    9.385577e+00
  1.327614e+01    7.925727e+00
  1.329201e+01    6.752248e+00
  1.330789e+01    5.786084e+00
  1.332376e+01    5.211691e+00
  1.333964e+01    4.647123e+00
  1.335551e+01    4.232202e+00
  1.337139e+01    3.911246e+00
  1.338727e+01    3.612029e+00
  1.340314e+01    3.411306e+00
  1.341902e+01    3.238946e+00
  1.343489e+01    3.030505e+00
  1.345077e+01    2.929053e+00
  1.346664e+01    2.847190e+00
  1.348252e+01    2.698368e+00
  1.349839e+01    2.641886e+00
  1.351427e+01    2.584242e+00
  1.353015e+01    2.505140e+00
  1.354602e+01    2.490478e+00
  1.356190e+01    2.453477e+00
  1.357777e+01    2.375010e+00
  1.359365e+01    2.385741e+00
  1.360952e+01    2.374351e+00
  1.362540e+01    2.315567e+00
  1.364127e+01    2.310873e+00
  1.365715e+01    2.275006e+00
  1.367303e+01    2.255912e+00
  1.368890e+01    2.261389e+00
  1.370478e+01    2.204776e+00
  1.372065e+01    2.197248e+00
  1.373653e+01    2.181731e+00
  1.375240e+01    2.219144e+00
  1.376828e+01    2.163853e+00
  1.378415e+01    2.157103e+00
  1.380003e+01    2.222333e+00
  1.381591e+01    2.201548e+00
  1.383178e+01    2.162204e+00
  1.384766e+01    2.116482e+00
  1.386353e+01    2.130238e+00
  1.387941e+01    2.136690e+00
  1.389528e+01    2.100591e+00
  1.391116e+01    2.102215e+00
  1.392703e+01    2.102351e+00
  1.394291e+01    2.123080e+00
  1.395879e+01    2.117651e+00
  1.397466e+01    2.067573e+00
  1.399054e+01    2.058896e+00
  1.400641e+01    2.048748e+00
  1.402229e+01    2.081183e+00
  1.403816e+01    2.088806e+00
  1.405404e+01    2.051630e+00
  1.406991e+01    2.060328e+00
  1.408579e+01    2.027950e+00
  1.410167e+01    2.032118e+00
  1.411754e+01    2.040596e+00
  1.413342e+01    2.053254e+00
  1.414929e+01    2.010958e+00
  1.416517e+01    1.989261e+00
  1.418104e+01    2.014258e+00
  1.419692e+01    2.013302e+00
  1.421279e+01    1.962428e+00
  1.422867e+01    1.991434e+00
  1.424455e+01    1.991299e+00
  1.426042e+01    2.022514e+00
  1.427630e+01    1.976232e+00
  1.429217e+01    1.934451e+00
  1.430805e+01    1.977748e+00
  1.432392e+01    1.972352e+00
  1.433980e+01    1.922486e+00
  1.435568e+01    1.987725e+00
  1.437155e+01    1.971677e+00
  1.438743e+01    1.950256e+00
  1.440330e+01    1.928924e+00
  1.441918e+01    1.952860e+00
  1.443505e+01    1.989032e+00
  1.445093e+01    1.948194e+00
  1.446680e+01    1.933580e+00
  1.448268e+01    1.931702e+00
  1.449856e+01    1.897414e+00
  1.451443e+01    1.922904e+00
  1.453031e+01    1.955418e+00
  1.454618e+01    1.942440e+00
  1.456206e+01    1.929616e+00
  1.457793e+01    1.966329e+00
  1.459381e+01    1.977523e+00
  1.460968e+01    1.937899e+00
  1.462556e+01    1.932649e+00
  1.464144e+01    1.927857e+00
  1.465731e+01    1.923819e+00
  1.467319e+01    1.899782e+00
  1.468906e+01    1.895086e+00
  1.470494e+01    1.909520e+00
  1.472081e+01    1.924298e+00
  1.473669e+01    1.934968e+00
  1.475256e+01    1.921670e+00
  1.476844e+01    1.914419e+00
  1.478432e+01    1.950912e+00
  1.480019e+01    1.934020e+00
  1.481607e+01    1.892491e+00
  1.483194e+01    1.942513e+00
  1.484782e+01    1.956681e+00
  1.486369e+01    1.945669e+00
  1.487957e+01    1.957591e+00
  1.489544e+01    1.993134e+00
  1.491132e+01    1.973572e+00
  1.492720e+01    1.974030e+00
  1.494307e+01    1.995632e+00
  1.495895e+01    2.048293e+00
  1.497482e+01    2.116149e+00
  1.499070e+01    2.140429e+00
  1.500657e+01    2.161593e+00
  1.502245e+01    2.197265e+00
  1.503832e+01    2.275805e+00
  1.505420e+01    2.353902e+00
  1.507008e+01    2.542571e+00
  1.508595e+01    2.707536e+00
  1.510183e+01    2.900281e+00
  1.511770e+01    3.149711e+00
  1.513358e+01    3.467945e+00
  1.514945e+01    3.759335e+00
  1.516533e+01    4.185938e+00
  1.518120e+01    4.586762e+00
  1.519708e+01    4.933388e+00
  1.521296e+01    5.257267e+00
  1.522883e+01    5.401845e+00
  1.524471e+01    5.599596e+00
  1.526058e+01    5.726643e+00
  1.527646e+01    5.622275e+00
  1.529233e+01    5.388054e+00
  1.530821e+01    5.115017e+00
  1.532409e+01    4.647267e+00
  1.533996e+01    4.107380e+00
  1.535584e+01    3.631558e+00
  1.537171e+01    3.300877e+00
  1.538759e+01    2.972024e+00
  1.540346e+01    2.697334e+00
  1.541934e+01    2.520510e+00
  1.543521e+01    2.392628e+00
  1.545109e+01    2.275283e+00
  1.546697e+01    2.181665e+00
  1.548284e+01    2.109569e+00
  1.549872e+01    2.069471e+00
  1.551459e+01    2.004498e+00
  1.553047e+01    1.949323e+00
  1.554634e+01    1.874160e+00
  1.556222e+01    1.880270e+00
  1.557809e+01    1.894908e+00
  1.559397e+01    1.843987e+00
  1.560985e+01    1.828778e+00
  1.562572e+01    1.796402e+00
  1.564160e+01    1.781737e+00
  1.565747e+01    1.817630e+00
  1.567335e+01    1.759013e+00
  1.568922e+01    1.755702e+00
  1.570510e+01    1.736691e+00
  1.572097e+01    1.729682e+00
  1.573685e+01    1.745751e+00
  1.575273e+01    1.742096e+00
  1.576860e+01    1.710068e+00
  1.578448e+01    1.718432e+00
  1.580035e+01    1.713275e+00
  1.581623e+01    1.701445e+00
  1.583210e+01    1.702208e+00
  1.584798e+01    1.662127e+00
  1.586385e+01    1.637716e+00
  1.587973e+01    1.626359e+00
  1.589561e+01    1.651286e+00
  1.591148e+01    1.639252e+00
  1.592736e+01    1.632861e+00
  1.594323e+01    1.638396e+00
  1.595911e+01    1.626719e+00
  1.597498e+01    1.590761e+00
  1.599086e+01    1.582802e+00
  1.600673e+01    1.618878e+00
  1.602261e+01    1.635205e+00
  1.603849e+01    1.624605e+00
  1.605436e+01    1.628954e+00
  1.607024e+01    1.634070e+00
  1.608611e+01    1.600977e+00
  1.610199e+01    1.594591e+00
  1.611786e+01    1.576935e+00
  1.613374e+01    1.562906e+00
  1.614961e+01    1.575787e+00
  1.616549e+01    1.572625e+00
  1.618137e+01    1.571913e+00
  1.619724e+01    1.553206e+00
  1.621312e+01    1.523244e+00
  1.622899e+01    1.547024e+00
  1.624487e+01    1.583315e+00
  1.626074e+01    1.563498e+00
  1.627662e+01    1.572407e+00
  1.629250e+01    1.559149e+00
  1.630837e+01    1.542353e+00
  1.632425e+01    1.525310e+00
  1.634012e+01    1.551440e+00
  1.635600e+01    1.556115e+00
  1.637187e+01    1.543664e+00
  1.638775e+01    1.558664e+00
  1.640362e+01    1.543685e+00
  1.641950e+01    1.538987e+00
  1.643538e+01    1.540807e+00
  1.645125e+01    1.523676e+00
  1.646713e+01    1.528701e+00
  1.648300e+01    1.552418e+00
  1.649888e+01    1.540267e+00
  1.651475e+01    1.516372e+00
  1.653063e+01    1.519079e+00
  1.654650e+01    1.539278e+00
  1.656238e+01    1.544577e+00
  1.657826e+01    1.471097e+00
  1.659413e+01    1.485985e+00
  1.661001e+01    1.491193e+00
  1.662588e+01    1.506393e+00
  1.664176e+01    1.514900e+00
  1.665763e+01    1.517169e+00
  1.667351e+01    1.507053e+00
  1.668938e+01    1.515443e+00
  1.670526e+01    1.514465e+00
  1.672114e+01    1.483085e+00
  1.673701e+01    1.488749e+00
  1.675289e+01    1.492929e+00
  1.676876e+01    1.495425e+00
  1.678464e+01    1.462858e+00
  1.680051e+01    1.456498e+00
  1.681639e+01    1.456549e+00
  1.683226e+01    1.473814e+00
  1.684814e+01    1.457382e+00
  1.686402e+01    1.450088e+00
  1.687989e+01    1.453630e+00
  1.689577e+01    1.464766e+00
  1.691164e+01    1.459795e+00
  1.692752e+01    1.441589e+00
  1.694339e+01    1.456384e+00
  1.695927e+01    1.416575e+00
  1.697514e+01    1.448917e+00
  1.699102e+01    1.450748e+00
  1.700690e+01    1.443523e+00
  1.702277e+01    1.465167e+00
  1.703865e+01    1.451584e+00
  1.705452e+01    1.430127e+00
  1.707040e+01    1.419891e+00
  1.708627e+01    1.427238e+00
  1.710215e+01    1.447210e+00
  1.711802e+01    1.433223e+00
  1.713390e+01    1.431150e+00
  1.714978e+01    1.430666e+00
  1.716565e+01    1.428694e+00
  1.718153e+01    1.405048e+00
  1.719740e+01    1.411310e+00
  1.721328e+01    1.399101e+00
  1.722915e+01    1.399195e+00
  1.724503e+01    1.405417e+00
  1.726091e+01    1.426051e+00
  1.727678e+01    1.401908e+00
  1.729266e+01    1.400792e+00
  1.730853e+01    1.393704e+00
  1.732441e+01    1.387711e+00
  1.734028e+01    1.423677e+00
  1.735616e+01    1.391948e+00
  1.737203e+01    1.378575e+00
  1.738791e+01    1.390258e+00
  1.740379e+01    1.373933e+00
  1.741966e+01    1.402946e+00
  1.743554e+01    1.403620e+00
  1.745141e+01    1.382801e+00
  1.746729e+01    1.397085e+00
  1.748316e+01    1.364814e+00
  1.749904e+01    1.374355e+00
  1.751491e+01    1.378627e+00
  1.753079e+01    1.382232e+00
  1.754667e+01    1.397742e+00
  1.756254e+01    1.381651e+00
  1.757842e+01    1.360971e+00
  1.759429e+01    1.349520e+00
  1.761017e+01    1.364086e+00
  1.762604e+01    1.357638e+00
  1.764192e+01    1.308054e+00
  1.765779e+01    1.353078e+00
  1.767367e+01    1.349233e+00
  1.768955e+01    1.341064e+00
  1.770542e+01    1.336677e+00
  1.772130e+01    1.343736e+00
  1.773717e+01    1.336890e+00
  1.775305e+01    1.340394e+00
  1.776892e+01    1.353378e+00
  1.778480e+01    1.334770e+00
  1.780067e+01    1.316358e+00
  1.781655e+01    1.297137e+00
  1.783243e+01    1.306093e+00
  1.784830e+01    1.291014e+00
  1.786418e+01    1.314158e+00
  1.788005e+01    1.321653e+00
  1.789593e+01    1.312799e+00
  1.791180e+01    1.320102e+00
  1.792768e+01    1.355321e+00
  1.794355e+01    1.317202e+00
  1.795943e+01    1.309050e+00
  1.797531e+01    1.313450e+00
  1.799118e+01    1.293862e+00
  1.800706e+01    1.296260e+00
  1.802293e+01    1.306014e+00
  1.803881e+01    1.303584e+00
  1.805468e+01    1.296606e+00
  1.807056e+01    1.305119e+00
  1.808643e+01    1.304025e+00
  1.810231e+01    1.301745e+00
  1.811819e+01    1.278450e+00
  1.813406e+01    1.304303e+00
  1.814994e+01    1.317728e+00
  1.816581e+01    1.309129e+00
  1.818169e+01    1.298452e+00
  1.819756e+01    1.283051e+00
  1.821344e+01    1.264503e+00
  1.822932e+01    1.266876e+00
  1.824519e+01    1.268243e+00
  1.826107e+01    1.287194e+00
  1.827694e+01    1.267951e+00
  1.829282e+01    1.249856e+00
  1.830869e+01    1.262821e+00
  1.832457e+01    1.269531e+00
  1.834044e+01    1.297755e+00
  1.835632e+01    1.297277e+00
  1.837220e+01    1.263230e+00
  1.838807e+01    1.269225e+00
  1.840395e+01    1.303560e+00
  1.841982e+01    1.280353e+00
  1.843570e+01    1.262364e+00
  1.845157e+01    1.275943e+00
  1.846745e+01    1.286158e+00
  1.848332e+01    1.272278e+00
  1.849920e+01    1.245526e+00
  1.851508e+01    1.236821e+00
  1.853095e+01    1.250950e+00
  1.854683e+01    1.249547e+00
  1.856270e+01    1.244261e+00
  1.857858e+01    1.225627e+00
  1.859445e+01    1.253066e+00
  1.861033e+01    1.269029e+00
  1.862620e+01    1.235004e+00
  1.864208e+01    1.207638e+00
  1.865796e+01    1.218804e+00
  1.867383e+01    1.248355e+00
  1.868971e+01    1.234455e+00
  1.870558e+01    1.225066e+00
  1.872146e+01    1.213334e+00
  1.873733e+01    1.217443e+00
  1.875321e+01    1.228374e+00
  1.876908e+01    1.228052e+00
  1.878496e+01    1.236462e+00
  1.880084e+01    1.223045e+00
  1.881671e+01    1.221768e+00
  1.883259e+01    1.229197e+00
  1.884846e+01    1.221339e+00
  1.886434e+01    1.214302e+00
  1.888021e+01    1.205512e+00
  1.889609e+01    1.214467e+00
  1.891196e+01    1.235353e+00
  1.892784e+01    1.223163e+00
  1.894372e+01    1.209707e+00
  1.895959e+01    1.211711e+00
  1.897547e+01    1.212069e+00
  1.899134e+01    1.222360e+00
  1.900722e+01    1.191086e+00
  1.902309e+01    1.192550e+00
  1.903897e+01    1.202742e+00
  1.905484e+01    1.189753e+00
  1.907072e+01    1.207288e+00
  1.908660e+01    1.225589e+00
  1.910247e+01    1.198750e+00
  1.911835e+01    1.194018e+00
  1.913422e+01    1.194805e+00
  1.915010e+01    1.191736e+00
  1.916597e+01    1.178967e+00
  1.918185e+01    1.182406e+00
  1.919773e+01    1.174652e+00
  1.921360e+01    1.157349e+00
  1.922948e+01    1.141977e+00
  1.924535e+01    1.165868e+00
  1.926123e+01    1.169458e+00
  1.927710e+01    1.166540e+00
  1.929298e+01    1.199270e+00
  1.930885e+01    1.176419e+00
  1.932473e+01    1.168380e+00
  1.934061e+01    1.182413e+00
  1.935648e+01    1.206325e+00
  1.937236e+01    1.179338e+00
  1.938823e+01    1.140730e+00
  1.940411e+01    1.161964e+00
  1.941998e+01    1.171587e+00
  1.943586e+01    1.169987e+00
  1.945173e+01    1.176876e+00
  1.946761e+01    1.162787e+00
  1.948349e+01    1.149011e+00
  1.949936e+01    1.166018e+00
  1.951524e+01    1.177329e+00
  1.953111e+01    1.160075e+00
  1.954699e+01    1.161799e+00
  1.956286e+01    1.173037e+00
  1.957874e+01    1.155568e+00
  1.959461e+01    1.154977e+00
  1.961049e+01    1.152801e+00
  1.962637e+01    1.171034e+00
  1.964224e+01    1.163420e+00
  1.965812e+01    1.125859e+00
  1.967399e+01    1.152859e+00
  1.968987e+01    1.160418e+00
  1.970574e+01    1.148933e+00
  1.972162e+01    1.131403e+00
  1.973749e+01    1.114928e+00
  1.975337e+01    1.157477e+00
  1.976925e+01    1.122126e+00
  1.978512e+01    1.128035e+00
  1.980100e+01    1.146860e+00
  1.981687e+01    1.123366e+00
  1.983275e+01    1.153206e+00
  1.984862e+01    1.137950e+00
  1.986450e+01    1.126426e+00
  1.988037e+01    1.137165e+00
  1.989625e+01    1.109513e+00
  1.991213e+01    1.131563e+00
  1.992800e+01    1.115379e+00
  1.994388e+01    1.121505e+00
  1.995975e+01    1.115638e+00
  1.997563e+01    1.104189e+00
  1.999150e+01    1.118229e+00
  2.000738e+01    1.115099e+00
  2.002325e+01    1.132512e+00
  2.003913e+01    1.133841e+00
  2.005501e+01    1.117846e+00
  2.007088e+01    1.118496e+00
  2.008676e+01    1.110640e+00
  2.010263e+01    1.118031e+00
  2.011851e+01    1.124786e+00
  2.013438e+01    1.126137e+00
  2.015026e+01    1.100578e+00
  2.016614e+01    1.099447e+00
  2.018201e+01    1.109188e+00
  2.019789e+01    1.107652e+00
  2.021376e+01    1.118975e+00
  2.022964e+01    1.104510e+00
  2.024551e+01    1.117112e+00
  2.026139e+01    1.100038e+00
  2.027726e+01    1.114526e+00
  2.029314e+01    1.121860e+00
  2.030902e+01    1.097575e+00
  2.032489e+01    1.088745e+00
  2.034077e+01    1.104773e+00
  2.035664e+01    1.106156e+00
  2.037252e+01    1.108917e+00
  2.038839e+01    1.112180e+00
  2.040427e+01    1.115301e+00
  2.042014e+01    1.093729e+00
  2.043602e+01    1.103007e+00
  2.045190e+01    1.086473e+00
  2.046777e+01    1.075930e+00
  2.048365e+01    1.103032e+00
  2.049952e+01    1.113110e+00
  2.051540e+01    1.088518e+00
  2.053127e+01    1.094909e+00
  2.054715e+01    1.094895e+00
  2.056302e+01    1.074664e+00
  2.057890e+01    1.080552e+00
  2.059478e+01    1.093716e+00
  2.061065e+01    1.082133e+00
  2.062653e+01    1.070314e+00
  2.064240e+01    1.093308e+00
  2.065828e+01    1.105679e+00
  2.067415e+01    1.084056e+00
  2.069003e+01    1.076676e+00
  2.070590e+01    1.055070e+00
  2.072178e+01    1.056870e+00
  2.073766e+01    1.069027e+00
  2.075353e+01    1.094168e+00
  2.076941e+01    1.070835e+00
  2.078528e+01    1.063005e+00
  2.080116e+01    1.062383e+00
  2.081703e+01    1.081941e+00
  2.083291e+01    1.099345e+00
  2.084878e+01    1.095253e+00
  2.086466e+01    1.071487e+00
  2.088054e+01    1.104648e+00
  2.089641e+01    1.088276e+00
  2.091229e+01    1.071300e+00
  2.092816e+01    1.083881e+00
  2.094404e+01    1.086089e+00
  2.095991e+01    1.091534e+00
  2.097579e+01    1.073329e+00
  2.099166e+01    1.069310e+00
  2.100754e+01    1.087194e+00
  2.102342e+01    1.103026e+00
  2.103929e+01    1.096970e+00
  2.105517e+01    1.092487e+00
  2.107104e+01    1.107511e+00
  2.108692e+01    1.056574e+00
  2.110279e+01    1.068771e+00
  2.111867e+01    1.084449e+00
  2.113455e+01    1.078175e+00
  2.115042e+01    1.081441e+00
  2.116630e+01    1.094253e+00
  2.118217e+01    1.081509e+00
  2.119805e+01    1.091256e+00
  2.121392e+01    1.116201e+00
  2.122980e+01    1.103128e+00
  2.124567e+01    1.093210e+00
  2.126155e+01    1.125255e+00
  2.127743e+01    1.137522e+00
  2.129330e+01    1.131170e+00
  2.130918e+01    1.122373e+00
  2.132505e+01    1.145394e+00
  2.134093e+01    1.132416e+00
  2.135680e+01    1.127618e+00
  2.137268e+01    1.136367e+00
  2.138855e+01    1.151886e+00
  2.140443e+01    1.184266e+00
  2.142031e+01    1.212384e+00
  2.143618e+01    1.223424e+00
  2.145206e+01    1.229871e+00
  2.146793e+01    1.231292e+00
  2.148381e+01    1.222491e+00
  2.149968e+01    1.256610e+00
  2.151556e+01    1.314468e+00
  2.153143e+01    1.338873e+00
  2.154731e+01    1.356186e+00
  2.156319e+01    1.428142e+00
  2.157906e+01    1.447972e+00
  2.159494e+01    1.542623e+00
  2.161081e+01    1.630832e+00
  2.162669e+01    1.697277e+00
  2.164256e+01    1.813885e+00
  2.165844e+01    1.947142e+00
  2.167431e+01    2.108541e+00
  2.169019e+01    2.351239e+00
  2.170607e+01    2.585163e+00
  2.172194e+01    2.940987e+00
  2.173782e+01    3.337990e+00
  2.175369e+01    3.784748e+00
  2.176957e+01    4.287831e+00
  2.178544e+01    4.914605e+00
  2.180132e+01    5.556083e+00
  2.181719e+01    6.256727e+00
  2.183307e+01    6.986217e+00
  2.184895e+01    7.670156e+00
  2.186482e+01    8.314805e+00
  2.188070e+01    8.871273e+00
  2.189657e+01    9.122244e+00
  2.191245e+01    8.977194e+00
  2.192832e+01    8.540597e+00
  2.194420e+01    7.811827e+00
  2.196007e+01    6.837165e+00
  2.197595e+01    5.831702e+00
  2.199183e+01    4.917113e+00
  2.200770e+01    4.201510e+00
  2.202358e+01    3.628032e+00
  2.203945e+01    3.149517e+00
  2.205533e+01    2.812364e+00
  2.207120e+01    2.511394e+00
  2.208708e+01    2.241505e+00
  2.210296e+01    2.062348e+00
  2.211883e+01    1.915635e+00
  2.213471e+01    1.766338e+00
  2.215058e+01    1.666357e+00
  2.216646e+01    1.582077e+00
  2.218233e+01    1.484230e+00
  2.219821e+01    1.420755e+00
  2.221408e+01    1.367659e+00
  2.222996e+01    1.333708e+00
  2.224584e+01    1.279728e+00
  2.226171e+01    1.246977e+00
  2.227759e+01    1.185612e+00
  2.229346e+01    1.190259e+00
  2.230934e+01    1.189251e+00
  2.232521e+01    1.140232e+00
  2.234109e+01    1.114461e+00
  2.235696e+01    1.103541e+00
  2.237284e+01    1.102577e+00
  2.238872e+01    1.106469e+00
  2.240459e+01    1.080698e+00
  2.242047e+01    1.059959e+00
  2.243634e+01    1.055439e+00
  2.245222e+01    1.034515e+00
  2.246809e+01    1.012245e+00
  2.248397e+01    1.035566e+00
  2.249984e+01    1.032697e+00
  2.251572e+01    9.982997e-01
  2.253160e+01    1.005507e+00
  2.254747e+01    1.004799e+00
  2.256335e+01    1.025172e+00
  2.257922e+01    1.018792e+00
  2.259510e+01    1.001157e+00
  2.261097e+01    9.690228e-01
  2.262685e+01    9.658988e-01
  2.264272e+01    9.589438e-01
  2.265860e+01    9.722172e-01
  2.267448e+01    9.710222e-01
  2.269035e+01    9.687881e-01
  2.270623e+01    9.587473e-01
  2.272210e+01    9.487622e-01
  2.273798e+01    9.458894e-01
  2.275385e+01    9.232929e-01
  2.276973e+01    9.348332e-01
  2.278560e+01    9.439602e-01
  2.280148e+01    9.151906e-01
  2.281736e+01    9.166024e-01
  2.283323e+01    9.181427e-01
  2.284911e+01    9.142051e-01
  2.286498e+01    9.217809e-01
  2.288086e+01    9.093328e-01
  2.289673e+01    9.201674e-01
  2.291261e+01    9.143444e-01
  2.292848e+01    9.114310e-01
  2.294436e+01    9.054456e-01
  2.296024e+01    9.066046e-01
  2.297611e+01    9.002873e-01
  2.299199e+01    9.017953e-01
  2.300786e+01    8.920651e-01
  2.302374e+01    9.105155e-01
  2.303961e+01    9.054226e-01
  2.305549e+01    8.964856e-01
  2.307137e+01    8.861217e-01
  2.308724e+01    8.818983e-01
  2.310312e+01    9.064097e-01
  2.311899e+01    9.023605e-01
  2.313487e+01    8.853629e-01
  2.315074e+01    8.782171e-01
  2.316662e+01    8.822250e-01
  2.318249e+01    8.941817e-01
  2.319837e+01    8.846857e-01
  2.321425e+01    8.397235e-01
  2.323012e+01    8.507032e-01
  2.324600e+01    8.692226e-01
  2.326187e+01    8.721052e-01
  2.327775e+01    8.595078e-01
  2.329362e+01    8.381169e-01
  2.330950e+01    8.764368e-01
  2.332537e+01    8.609897e-01
  2.334125e+01    8.728747e-01
  2.335713e+01    8.698924e-01
  2.337300e+01    8.484221e-01
  2.338888e+01    8.450869e-01
  2.340475e+01    8.595270e-01
  2.342063e+01    8.611085e-01
  2.343650e+01    8.526410e-01
  2.345238e+01    8.591692e-01
  2.346825e+01    8.604010e-01
  2.348413e+01    8.716381e-01
  2.350001e+01    8.598052e-01
  2.351588e+01    8.411778e-01
  2.353176e+01    8.494279e-01
  2.354763e+01    8.383681e-01
  2.356351e+01    8.352776e-01
  2.357938e+01    8.510267e-01
  2.359526e+01    8.474195e-01
  2.361113e+01    8.602145e-01
  2.362701e+01    8.486110e-01
  2.364289e+01    8.333748e-01
  2.365876e+01    8.251961e-01
  2.367464e+01    8.200871e-01
  2.369051e+01    8.200064e-01
  2.370639e+01    8.183435e-01
  2.372226e+01    8.241745e-01
  2.373814e+01    8.219249e-01
  2.375401e+01    8.350764e-01
  2.376989e+01    8.237182e-01
  2.378577e+01    8.326669e-01
  2.380164e+01    8.161885e-01
  2.381752e+01    8.222634e-01
  2.383339e+01    8.145012e-01
  2.384927e+01    8.094275e-01
  2.386514e+01    8.153049e-01
  2.388102e+01    8.187923e-01
  2.389689e+01    8.049819e-01
  2.391277e+01    7.980145e-01
  2.392865e+01    8.197576e-01
  2.394452e+01    8.052326e-01
  2.396040e+01    7.902896e-01
  2.397627e+01    8.180779e-01
  2.399215e+01    8.142018e-01
  2.400802e+01    8.091237e-01
  2.402390e+01    7.969246e-01
  2.403978e+01    7.981313e-01
  2.405565e+01    8.138908e-01
  2.407153e+01    8.079323e-01
  2.408740e+01    8.080156e-01
  2.410328e+01    7.702079e-01
  2.411915e+01    7.708302e-01
  2.413503e+01    7.683165e-01
  2.415090e+01    7.912091e-01
  2.416678e+01    7.752743e-01
  2.418266e+01    7.828235e-01
  2.419853e+01    7.859173e-01
  2.421441e+01    7.766062e-01
  2.423028e+01    7.668746e-01
  2.424616e+01    7.706863e-01
  2.426203e+01    7.773074e-01
  2.427791e+01    7.914487e-01
  2.429378e+01    7.817352e-01
  2.430966e+01    7.873609e-01
  2.432554e+01    7.869920e-01
  2.434141e+01    7.952624e-01
  2.435729e+01    7.923841e-01
  2.437316e+01    8.124117e-01
  2.438904e+01    7.899173e-01
  2.440491e+01    7.952606e-01
  2.442079e+01    7.935311e-01
  2.443666e+01    7.810747e-01
  2.445254e+01    7.856035e-01
  2.446842e+01    7.889223e-01
  2.448429e+01    7.722735e-01
  2.450017e+01    7.870772e-01
  2.451604e+01    7.960398e-01
  2.453192e+01    7.927163e-01
  2.454779e+01    7.963206e-01
  2.456367e+01    7.873996e-01
  2.457954e+01    8.107499e-01
  2.459542e+01    7.921544e-01
  2.461130e+01    7.659068e-01
  2.462717e+01    7.954041e-01
  2.464305e+01    7.974450e-01
  2.465892e+01    7.896615e-01
  2.467480e+01    7.890990e-01
  2.469067e+01    8.094461e-01
  2.470655e+01    7.980106e-01
  2.472242e+01    7.941921e-01
  2.473830e+01    7.975599e-01
  2.475418e+01    8.064242e-01
  2.477005e+01    7.884842e-01
  2.478593e+01    7.912369e-01
  2.480180e+01    7.879780e-01
  2.481768e+01    7.856621e-01
  2.483355e+01    7.888038e-01
  2.484943e+01    8.041268e-01
  2.486530e+01    8.109628e-01
  2.488118e+01    7.864681e-01
  2.489706e+01    7.914332e-01
  2.491293e+01    8.044211e-01
  2.492881e+01    7.879115e-01
  2.494468e+01    8.111887e-01
  2.496056e+01    8.104946e-01
  2.497643e+01    7.934473e-01
  2.499231e+01    8.074442e-01
  2.500819e+01    7.839044e-01
  2.502406e+01    7.971600e-01
  2.503994e+01    8.076696e-01
  2.505581e+01    8.090531e-01
  2.507169e+01    8.204269e-01
  2.508756e+01    8.020447e-01
  2.510344e+01    8.192167e-01
  2.511931e+01    8.151508e-01
  2.513519e+01    7.980658e-01
  2.515107e+01    8.166494e-01
  2.516694e+01    8.301638e-01
  2.518282e+01    8.286353e-01
  2.519869e+01    8.416578e-01
  2.521457e+01    8.491343e-01
  2.523044e+01    8.494201e-01
  2.524632e+01    8.618634e-01
  2.526219e+01    8.606691e-01
  2.527807e+01    8.560010e-01
  2.529395e+01    8.679921e-01
  2.530982e+01    8.563420e-01
  2.532570e+01    8.650064e-01
  2.534157e+01    8.851715e-01
  2.535745e+01    8.778235e-01
  2.537332e+01    9.013259e-01
  2.538920e+01    9.132636e-01
  2.540507e+01    8.874586e-01
  2.542095e+01    9.175248e-01
  2.543683e+01    9.255412e-01
  2.545270e+01    9.232644e-01
  2.546858e+01    9.426855e-01
  2.548445e+01    9.701869e-01
  2.550033e+01    9.614043e-01
  2.551620e+01    9.786811e-01
  2.553208e+01    9.897755e-01
  2.554795e+01    1.011066e+00
  2.556383e+01    1.046680e+00
  2.557971e+01    1.088240e+00
  2.559558e+01    1.107946e+00
  2.561146e+01    1.129807e+00
  2.562733e+01    1.170974e+00
  2.564321e+01    1.215950e+00
  2.565908e+01    1.283510e+00
  2.567496e+01    1.335351e+00
  2.569083e+01    1.415808e+00
  2.570671e+01    1.502792e+00
  2.572259e+01    1.602905e+00
  2.573846e+01    1.754743e+00
  2.575434e+01    1.932872e+00
  2.577021e+01    2.126657e+00
  2.578609e+01    2.344943e+00
  2.580196e+01    2.686354e+00
  2.581784e+01    3.058693e+00
  2.583371e+01    3.437860e+00
  2.584959e+01    3.975042e+00
  2.586547e+01    4.522559e+00
  2.588134e+01    5.100096e+00
  2.589722e+01    5.750656e+00
  2.591309e+01    6.328302e+00
  2.592897e+01    6.809811e+00
  2.594484e+01    7.213083e+00
  2.596072e+01    7.416370e+00
  2.597660e+01    7.276283e+00
  2.599247e+01    6.950624e+00
  2.600835e+01    6.433783e+00
  2.602422e+01    5.667827e+00
  2.604010e+01    4.897157e+00
  2.605597e+01    4.195282e+00
  2.607185e+01    3.581132e+00
  2.608772e+01    3.065141e+00
  2.610360e+01    2.702791e+00
  2.611948e+01    2.416949e+00
  2.613535e+01    2.177761e+00
  2.615123e+01    1.945143e+00
  2.616710e+01    1.760529e+00
  2.618298e+01    1.644119e+00
  2.619885e+01    1.529431e+00
  2.621473e+01    1.426229e+00
  2.623060e+01    1.348173e+00
  2.624648e+01    1.274773e+00
  2.626236e+01    1.234719e+00
  2.627823e+01    1.207610e+00
  2.629411e+01    1.153085e+00
  2.630998e+01    1.108683e+00
  2.632586e+01    1.085485e+00
  2.634173e+01    1.063745e+00
  2.635761e+01    1.035855e+00
  2.637348e+01    1.010225e+00
  2.638936e+01    9.988042e-01
  2.640524e+01    9.677025e-01
  2.642111e+01    9.740906e-01
  2.643699e+01    9.818223e-01
  2.645286e+01    9.358039e-01
  2.646874e+01    9.359641e-01
  2.648461e+01    9.303382e-01
  2.650049e+01    9.262938e-01
  2.651636e+01    9.405633e-01
  2.653224e+01    8.999494e-01
  2.654812e+01    8.988960e-01
  2.656399e+01    8.929324e-01
  2.657987e+01    9.021670e-01
  2.659574e+01    9.070753e-01
  2.661162e+01    9.112006e-01
  2.662749e+01    9.098528e-01
  2.664337e+01    8.764819e-01
  2.665924e+01    8.982422e-01
  2.667512e+01    9.073993e-01
  2.669100e+01    8.861029e-01
  2.670687e+01    8.919619e-01
  2.672275e+01    8.854155e-01
  2.673862e+01    8.892578e-01
  2.675450e+01    8.707740e-01
  2.677037e+01    8.790060e-01
  2.678625e+01    8.891777e-01
  2.680212e+01    8.694220e-01
  2.681800e+01    8.839431e-01
  2.683388e+01    9.012650e-01
  2.684975e+01    8.880058e-01
  2.686563e+01    8.989274e-01
  2.688150e+01    9.258258e-01
  2.689738e+01    9.134501e-01
  2.691325e+01    9.059092e-01
  2.692913e+01    9.388248e-01
  2.694501e+01    9.473327e-01
  2.696088e+01    9.642133e-01
  2.697676e+01    9.845592e-01
  2.699263e+01    9.853637e-01
  2.700851e+01    1.016476e+00
  2.702438e+01    1.065304e+00
  2.704026e+01    1.119113e+00
  2.705613e+01    1.172037e+00
  2.707201e+01    1.240219e+00
  2.708789e+01    1.308671e+00
  2.710376e+01    1.416027e+00
  2.711964e+01    1.536326e+00
  2.713551e+01    1.648372e+00
  2.715139e+01    1.754828e+00
  2.716726e+01    1.914769e+00
  2.718314e+01    2.012161e+00
  2.719901e+01    2.115866e+00
  2.721489e+01    2.224815e+00
  2.723077e+01    2.227763e+00
  2.724664e+01    2.159268e+00
  2.726252e+01    2.081531e+00
  2.727839e+01    1.921937e+00
  2.729427e+01    1.713293e+00
  2.731014e+01    1.556008e+00
  2.732602e+01    1.436464e+00
  2.734189e+01    1.337846e+00
  2.735777e+01    1.257362e+00
  2.737365e+01    1.176259e+00
  2.738952e+01    1.126298e+00
  2.740540e+01    1.069600e+00
  2.742127e+01    1.022129e+00
  2.743715e+01    1.004037e+00
  2.745302e+01    9.661491e-01
  2.746890e+01    9.446009e-01
  2.748477e+01    9.136204e-01
  2.750065e+01    8.805335e-01
  2.751653e+01    8.878982e-01
  2.753240e+01    8.631005e-01
  2.754828e+01    8.627859e-01
  2.756415e+01    8.652779e-01
  2.758003e+01    8.649175e-01
  2.759590e+01    8.616189e-01
  2.761178e+01    8.631337e-01
  2.762765e+01    8.383259e-01
  2.764353e+01    8.355545e-01
  2.765941e+01    8.185368e-01
  2.767528e+01    8.107730e-01
  2.769116e+01    8.266022e-01
  2.770703e+01    8.294521e-01
  2.772291e+01    8.136549e-01
  2.773878e+01    8.032166e-01
  2.775466e+01    8.121571e-01
  2.777054e+01    7.987308e-01
  2.778641e+01    7.968481e-01
  2.780229e+01    8.142048e-01
  2.781816e+01    7.991405e-01
  2.783404e+01    8.105398e-01
  2.784991e+01    7.876539e-01
  2.786579e+01    8.068370e-01
  2.788166e+01    8.101669e-01
  2.789754e+01    8.171805e-01
  2.791342e+01    7.884868e-01
  2.792929e+01    7.914822e-01
  2.794517e+01    7.966098e-01
  2.796104e+01    7.891585e-01
  2.797692e+01    7.879638e-01
  2.799279e+01    8.002521e-01
  2.800867e+01    7.998573e-01
  2.802454e+01    7.641301e-01
  2.804042e+01    7.575680e-01
  2.805630e+01    7.670790e-01
  2.807217e+01    7.768422e-01
  2.808805e+01    7.888362e-01
  2.810392e+01    7.770165e-01
  2.811980e+01    7.816998e-01
  2.813567e+01    7.894354e-01
  2.815155e+01    7.777641e-01
  2.816742e+01    7.726350e-01
  2.818330e+01    7.757699e-01
  2.819918e+01    7.685926e-01
  2.821505e+01    7.540501e-01
  2.823093e+01    7.544194e-01
  2.824680e+01    7.642576e-01
  2.826268e+01    7.735073e-01
  2.827855e+01    7.683758e-01
  2.829443e+01    7.584527e-01
  2.831030e+01    7.624823e-01
  2.832618e+01    7.819794e-01
  2.834206e+01    7.734753e-01
  2.835793e+01    7.608287e-01
  2.837381e+01    7.552835e-01
  2.838968e+01    7.655182e-01
  2.840556e+01    7.458450e-01
  2.842143e+01    7.555101e-01
  2.843731e+01    7.638767e-01
  2.845318e+01    7.699268e-01
  2.846906e+01    7.617390e-01
  2.848494e+01    7.715524e-01
  2.850081e+01    7.522058e-01
  2.851669e+01    7.475783e-01
  2.853256e+01    7.572730e-01
  2.854844e+01    7.677946e-01
  2.856431e+01    7.553833e-01
  2.858019e+01    7.516207e-01
  2.859606e+01    7.604231e-01
  2.861194e+01    7.513921e-01
  2.862782e+01    7.582328e-01
  2.864369e+01    7.760093e-01
  2.865957e+01    7.729022e-01
  2.867544e+01    7.418324e-01
  2.869132e+01    7.317477e-01
  2.870719e+01    7.567425e-01
  2.872307e+01    7.498953e-01
  2.873895e+01    7.592277e-01
  2.875482e+01    7.372309e-01
  2.877070e+01    7.253708e-01
  2.878657e+01    7.617644e-01
  2.880245e+01    7.540773e-01
  2.881832e+01    7.397961e-01
  2.883420e+01    7.343071e-01
  2.885007e+01    7.335916e-01
  2.886595e+01    7.358564e-01
  2.888183e+01    7.480369e-01
  2.889770e+01    7.625246e-01
  2.891358e+01    7.505609e-01
  2.892945e+01    7.428625e-01
  2.894533e+01    7.265705e-01
  2.896120e+01    7.192811e-01
  2.897708e+01    7.268443e-01
  2.899295e+01    7.410576e-01
  2.900883e+01    7.295573e-01
  2.902471e+01    7.305576e-01
  2.904058e+01    7.436873e-01
  2.905646e+01    7.462966e-01
  2.907233e+01    7.465513e-01
  2.908821e+01    7.236911e-01
  2.910408e+01    7.494285e-01
  2.911996e+01    7.696251e-01
  2.913583e+01    7.446398e-01
  2.915171e+01    7.416998e-01
  2.916759e+01    7.102180e-01
  2.918346e+01    7.353442e-01
  2.919934e+01    7.411450e-01
  2.921521e+01    7.277581e-01
  2.923109e+01    7.267438e-01
  2.924696e+01    7.367039e-01
  2.926284e+01    7.171887e-01
  2.927871e+01    7.099982e-01
  2.929459e+01    7.297434e-01
  2.931047e+01    7.472262e-01
  2.932634e+01    7.328982e-01
  2.934222e+01    7.239110e-01
  2.935809e+01    7.253222e-01
  2.937397e+01    7.114791e-01
  2.938984e+01    7.279749e-01
  2.940572e+01    7.243062e-01
  2.942159e+01    7.251540e-01
  2.943747e+01    7.246159e-01
  2.945335e+01    7.261926e-01
  2.946922e+01    7.106620e-01
  2.948510e+01    7.345316e-01
  2.950097e+01    7.445795e-01
  2.951685e+01    7.479801e-01
  2.953272e+01    7.291146e-01
  2.954860e+01    7.195859e-01
  2.956447e+01    7.281812e-01
  2.958035e+01    7.382356e-01
  2.959623e+01    7.211934e-01
  2.961210e+01    7.211857e-01
  2.962798e+01    7.361506e-01
  2.964385e+01    7.262598e-01
  2.965973e+01    7.028210e-01
  2.967560e+01    6.903342e-01
  2.969148e+01    7.151129e-01
  2.970736e+01    7.196071e-01
  2.972323e+01    7.087231e-01
  2.973911e+01    7.203285e-01
  2.975498e+01    7.112454e-01
  2.977086e+01    7.192729e-01
  2.978673e+01    7.254750e-01
  2.980261e+01    7.303821e-01
  2.981848e+01    7.410342e-01
  2.983436e+01    7.430072e-01
  2.985024e+01    7.284296e-01
  2.986611e+01    7.092308e-01
  2.988199e+01    7.149590e-01
  2.989786e+01    7.278711e-01
  2.991374e+01    7.321930e-01
  2.992961e+01    7.328163e-01
  2.994549e+01    7.275949e-01
  2.996136e+01    7.128647e-01
  2.997724e+01    7.189871e-01
  2.999312e+01    7.023909e-01
  3.000899e+01    7.114685e-01
  3.002487e+01    7.104561e-01
  3.004074e+01    7.260400e-01
  3.005662e+01    7.436247e-01
  3.007249e+01    7.429519e-01
  3.008837e+01    7.319553e-01
  3.010424e+01    7.189475e-01
  3.012012e+01    7.336359e-01
  3.013600e+01    7.034820e-01
  3.015187e+01    6.961870e-01
  3.016775e+01    6.989111e-01
  3.018362e+01    7.111700e-01
  3.019950e+01    7.053812e-01
  3.021537e+01    6.885777e-01
  3.023125e+01    7.068737e-01
  3.024712e+01    7.221555e-01
  3.026300e+01    7.032345e-01
  3.027888e+01    7.067180e-01
  3.029475e+01    7.040514e-01
  3.031063e+01    7.078296e-01
  3.032650e+01    7.056094e-01
  3.034238e+01    7.151974e-01
  3.035825e+01    7.110197e-01
  3.037413e+01    6.878099e-01
  3.039000e+01    7.069613e-01
  3.040588e+01    7.102721e-01
  3.042176e+01    6.968266e-01
  3.043763e+01    6.921182e-01
  3.045351e+01    6.984689e-01
  3.046938e+01    7.134478e-01
  3.048526e+01    7.138560e-01
  3.050113e+01    7.206133e-01
  3.051701e+01    7.222385e-01
  3.053288e+01    7.137581e-01
  3.054876e+01    6.921919e-01
  3.056464e+01    6.968272e-01
  3.058051e+01    7.194335e-01
  3.059639e+01    7.062650e-01
  3.061226e+01    7.144949e-01
  3.062814e+01    7.079524e-01
  3.064401e+01    7.140070e-01
  3.065989e+01    7.259536e-01
  3.067577e+01    7.022852e-01
  3.069164e+01    7.161373e-01
  3.070752e+01    7.326968e-01
  3.072339e+01    7.096923e-01
  3.073927e+01    7.376695e-01
  3.075514e+01    7.319085e-01
  3.077102e+01    7.355115e-01
  3.078689e+01    7.185469e-01
  3.080277e+01    6.962002e-01
  3.081865e+01    7.246326e-01
  3.083452e+01    7.138126e-01
  3.085040e+01    7.186784e-01
  3.086627e+01    7.270103e-01
  3.088215e+01    6.970473e-01
  3.089802e+01    7.175591e-01
  3.091390e+01    7.374908e-01
  3.092977e+01    7.296555e-01
  3.094565e+01    7.220008e-01
  3.096153e+01    6.899483e-01
  3.097740e+01    7.136346e-01
  3.099328e+01    7.216550e-01
  3.100915e+01    7.197350e-01
  3.102503e+01    7.215692e-01
  3.104090e+01    7.264089e-01
  3.105678e+01    7.077731e-01
  3.107265e+01    7.246301e-01
  3.108853e+01    7.326106e-01
  3.110441e+01    7.118848e-01
  3.112028e+01    6.994363e-01
  3.113616e+01    7.367227e-01
  3.115203e+01    7.259789e-01
  3.116791e+01    7.036698e-01
  3.118378e+01    7.304342e-01
  3.119966e+01    7.172063e-01
  3.121553e+01    6.993724e-01
  3.123141e+01    7.172560e-01
  3.124729e+01    7.240000e-01
  3.126316e+01    7.231323e-01
  3.127904e+01    7.221973e-01
  3.129491e+01    7.307145e-01
  3.131079e+01    7.170650e-01
  3.132666e+01    7.279875e-01
  3.134254e+01    7.482228e-01
  3.135841e+01    7.374855e-01
  3.137429e+01    7.498723e-01
  3.139017e+01    7.524686e-01
  3.140604e+01    7.491112e-01
  3.142192e+01    7.529918e-01
  3.143779e+01    7.658635e-01
  3.145367e+01    7.777665e-01
  3.146954e+01    7.739785e-01
  3.148542e+01    7.663436e-01
  3.150129e+01    7.643262e-01
  3.151717e+01    7.489098e-01
  3.153305e+01    7.812904e-01
  3.154892e+01    8.064112e-01
  3.156480e+01    8.163202e-01
  3.158067e+01    8.153929e-01
  3.159655e+01    8.337661e-01
  3.161242e+01    8.236979e-01
  3.162830e+01    8.365490e-01
  3.164418e+01    8.562344e-01
  3.166005e+01    8.783962e-01
  3.167593e+01    9.072855e-01
  3.169180e+01    9.324058e-01
  3.170768e+01    9.917095e-01
  3.172355e+01    1.003699e+00
  3.173943e+01    1.057615e+00
  3.175530e+01    1.148710e+00
  3.177118e+01    1.243573e+00
  3.178706e+01    1.292150e+00
  3.180293e+01    1.401098e+00
  3.181881e+01    1.540803e+00
  3.183468e+01    1.702562e+00
  3.185056e+01    1.834310e+00
  3.186643e+01    1.955531e+00
  3.188231e+01    2.091941e+00
  3.189818e+01    2.150574e+00
  3.191406e+01    2.192999e+00
  3.192994e+01    2.161749e+00
  3.194581e+01    2.087738e+00
  3.196169e+01    1.927744e+00
  3.197756e+01    1.764937e+00
  3.199344e+01    1.584525e+00
  3.200931e+01    1.464036e+00
  3.202519e+01    1.361402e+00
  3.204106e+01    1.242276e+00
  3.205694e+01    1.134837e+00
  3.207282e+01    1.072183e+00
  3.208869e+01    9.999877e-01
  3.210457e+01    9.530631e-01
  3.212044e+01    9.240482e-01
  3.213632e+01    8.909791e-01
  3.215219e+01    8.738054e-01
  3.216807e+01    8.288153e-01
  3.218394e+01    8.375650e-01
  3.219982e+01    8.320922e-01
  3.221570e+01    7.940558e-01
  3.223157e+01    7.838868e-01
  3.224745e+01    7.793658e-01
  3.226332e+01    7.566553e-01
  3.227920e+01    7.773784e-01
  3.229507e+01    7.607809e-01
  3.231095e+01    7.556855e-01
  3.232682e+01    7.230219e-01
  3.234270e+01    7.374166e-01
  3.235858e+01    7.473971e-01
  3.237445e+01    7.185931e-01
  3.239033e+01    7.399120e-01
  3.240620e+01    7.136355e-01
  3.242208e+01    7.257489e-01
  3.243795e+01    7.595845e-01
  3.245383e+01    7.431498e-01
  3.246970e+01    7.175499e-01
  3.248558e+01    7.187237e-01
  3.250146e+01    7.199323e-01
  3.251733e+01    7.124339e-01
  3.253321e+01    7.143349e-01
  3.254908e+01    7.207035e-01
