# == pyFAI calibration ==
# Distance Sample to Detector: 0.3999999939076516 m
# PONI: 9.750e-02, 1.135e-01 m
# Rotations: -0.000175 0.000000 -0.000000 rad
# 
# == Fit2d calibration ==
# Distance Sample-beamCenter: 400.000 mm
# Center: x=1514.000, y=1300.000 pix
# Tilt: 0.010 deg  TiltPlanRot: 0.010 deg
# 
# Detector Detector	 Spline= None	 PixelSize= 7.500e-05, 7.500e-05 m
#    Detector has a mask: False 
#    Detector has a dark current: False 
#    detector has a flat field: False 
# 
# Wavelength: 6.888e-11 m
# Mask applied: user provided
# Dark current applied: False
# Flat field applied: False
# Polarization factor: 0.99
# Normalization factor: 1.0
# --> /home/myspot/data/2024_07_Rosario/Ru-CGO-ex/2024-07-27_002_Ru-CGO-ex_Activtation_ramp_000002_data_000142.dat
#       q_nm^-1             I 
  2.003187e-02    4.391690e-01
  3.590745e-02    1.284348e-01
  5.178302e-02    0.000000e+00
  6.765859e-02    5.689427e-02
  8.353417e-02    9.333518e-02
  9.940974e-02    4.898547e-02
  1.152853e-01    0.000000e+00
  1.311609e-01    3.549711e-02
  1.470365e-01    4.538409e-02
  1.629120e-01    2.611468e-02
  1.787876e-01    5.443492e-02
  1.946632e-01    2.507456e-02
  2.105388e-01    3.196138e-02
  2.264143e-01    2.620273e-02
  2.422899e-01    1.100976e-02
  2.581655e-01    8.386279e-03
  2.740411e-01    2.596701e-02
  2.899166e-01    1.034184e-02
  3.057922e-01    2.524174e-02
  3.216678e-01    5.424040e-02
  3.375433e-01    7.356343e-02
  3.534189e-01    7.050605e-03
  3.692945e-01    3.252051e-02
  3.851701e-01    5.406736e-02
  4.010456e-01    3.041416e-02
  4.169212e-01    2.639655e-02
  4.327968e-01    2.044705e-02
  4.486724e-01    5.618336e-02
  4.645479e-01    7.822751e-02
  4.804235e-01    2.775750e-02
  4.962991e-01    2.804605e-02
  5.121747e-01    2.826128e-02
  5.280502e-01    2.010169e-02
  5.439258e-01    2.101619e-02
  5.598014e-01    3.502107e-02
  5.756770e-01    3.939323e-02
  5.915525e-01    3.068554e-02
  6.074281e-01    3.289682e-02
  6.233037e-01    4.416088e-02
  6.391793e-01    2.582534e-02
  6.550548e-01    2.349548e-02
  6.709304e-01    1.854418e-02
  6.868060e-01    2.565473e-02
  7.026815e-01    1.420047e-02
  7.185571e-01    1.964650e-02
  7.344327e-01    4.098644e-02
  7.503083e-01    3.920022e-02
  7.661838e-01    8.661399e-02
  7.820594e-01    1.295090e-01
  7.979350e-01    1.266212e-01
  8.138106e-01    1.452996e-01
  8.296861e-01    2.348163e-01
  8.455617e-01    3.335622e-01
  8.614373e-01    4.434747e-01
  8.773129e-01    4.487663e-01
  8.931884e-01    5.400878e-01
  9.090640e-01    6.367234e-01
  9.249396e-01    6.742170e-01
  9.408152e-01    6.526728e-01
  9.566907e-01    8.117568e-01
  9.725663e-01    8.499513e-01
  9.884419e-01    9.479520e-01
  1.004317e+00    1.023019e+00
  1.020193e+00    1.077891e+00
  1.036069e+00    1.103413e+00
  1.051944e+00    1.252988e+00
  1.067820e+00    1.294881e+00
  1.083695e+00    1.299150e+00
  1.099571e+00    1.340656e+00
  1.115446e+00    1.411769e+00
  1.131322e+00    1.477614e+00
  1.147198e+00    1.423073e+00
  1.163073e+00    1.415262e+00
  1.178949e+00    1.445434e+00
  1.194824e+00    1.619673e+00
  1.210700e+00    1.758094e+00
  1.226575e+00    1.869952e+00
  1.242451e+00    2.110265e+00
  1.258327e+00    2.262239e+00
  1.274202e+00    2.457231e+00
  1.290078e+00    2.568592e+00
  1.305953e+00    2.504019e+00
  1.321829e+00    2.531990e+00
  1.337705e+00    2.538827e+00
  1.353580e+00    2.403062e+00
  1.369456e+00    2.446095e+00
  1.385331e+00    2.618284e+00
  1.401207e+00    2.764680e+00
  1.417082e+00    2.759400e+00
  1.432958e+00    2.769763e+00
  1.448834e+00    2.736830e+00
  1.464709e+00    2.743920e+00
  1.480585e+00    2.835553e+00
  1.496460e+00    2.901643e+00
  1.512336e+00    2.829885e+00
  1.528211e+00    2.909393e+00
  1.544087e+00    2.997368e+00
  1.559963e+00    3.020154e+00
  1.575838e+00    2.992027e+00
  1.591714e+00    2.941417e+00
  1.607589e+00    2.881468e+00
  1.623465e+00    2.848265e+00
  1.639340e+00    2.887511e+00
  1.655216e+00    2.879253e+00
  1.671092e+00    2.848082e+00
  1.686967e+00    2.696659e+00
  1.702843e+00    2.641488e+00
  1.718718e+00    2.643942e+00
  1.734594e+00    2.767154e+00
  1.750469e+00    2.670316e+00
  1.766345e+00    2.750664e+00
  1.782221e+00    2.696288e+00
  1.798096e+00    2.650294e+00
  1.813972e+00    2.806912e+00
  1.829847e+00    2.783156e+00
  1.845723e+00    2.607980e+00
  1.861598e+00    2.713123e+00
  1.877474e+00    2.605826e+00
  1.893350e+00    2.532800e+00
  1.909225e+00    2.616130e+00
  1.925101e+00    2.769879e+00
  1.940976e+00    2.663349e+00
  1.956852e+00    2.521997e+00
  1.972727e+00    2.646577e+00
  1.988603e+00    2.845498e+00
  2.004479e+00    2.724230e+00
  2.020354e+00    2.801012e+00
  2.036230e+00    2.724710e+00
  2.052105e+00    2.726894e+00
  2.067981e+00    2.629035e+00
  2.083856e+00    2.703358e+00
  2.099732e+00    2.755123e+00
  2.115608e+00    2.738331e+00
  2.131483e+00    2.760571e+00
  2.147359e+00    2.657721e+00
  2.163234e+00    2.673270e+00
  2.179110e+00    2.742593e+00
  2.194985e+00    2.719854e+00
  2.210861e+00    2.682760e+00
  2.226737e+00    2.598099e+00
  2.242612e+00    2.667706e+00
  2.258488e+00    2.683966e+00
  2.274363e+00    2.724906e+00
  2.290239e+00    2.621452e+00
  2.306115e+00    2.656753e+00
  2.321990e+00    2.706274e+00
  2.337866e+00    2.691544e+00
  2.353741e+00    2.739945e+00
  2.369617e+00    2.740311e+00
  2.385492e+00    2.762518e+00
  2.401368e+00    2.781034e+00
  2.417244e+00    2.640843e+00
  2.433119e+00    2.630300e+00
  2.448995e+00    2.642912e+00
  2.464870e+00    2.773315e+00
  2.480746e+00    2.777420e+00
  2.496621e+00    2.862054e+00
  2.512497e+00    2.823144e+00
  2.528373e+00    2.672215e+00
  2.544248e+00    2.727648e+00
  2.560124e+00    2.700318e+00
  2.575999e+00    2.663684e+00
  2.591875e+00    2.778074e+00
  2.607750e+00    2.856239e+00
  2.623626e+00    2.751442e+00
  2.639502e+00    2.731183e+00
  2.655377e+00    2.849123e+00
  2.671253e+00    2.855821e+00
  2.687128e+00    2.864194e+00
  2.703004e+00    2.826055e+00
  2.718879e+00    2.775927e+00
  2.734755e+00    2.764988e+00
  2.750631e+00    2.813231e+00
  2.766506e+00    2.839229e+00
  2.782382e+00    2.808979e+00
  2.798257e+00    2.798558e+00
  2.814133e+00    2.852896e+00
  2.830008e+00    2.852238e+00
  2.845884e+00    2.782881e+00
  2.861760e+00    2.768099e+00
  2.877635e+00    2.795972e+00
  2.893511e+00    2.862869e+00
  2.909386e+00    2.833969e+00
  2.925262e+00    2.872392e+00
  2.941137e+00    2.833448e+00
  2.957013e+00    2.828150e+00
  2.972889e+00    2.893885e+00
  2.988764e+00    2.862916e+00
  3.004640e+00    2.875121e+00
  3.020515e+00    2.841594e+00
  3.036391e+00    2.749568e+00
  3.052266e+00    2.895980e+00
  3.068142e+00    2.927331e+00
  3.084018e+00    2.869292e+00
  3.099893e+00    2.848042e+00
  3.115769e+00    2.827010e+00
  3.131644e+00    2.793664e+00
  3.147520e+00    2.805600e+00
  3.163395e+00    2.915442e+00
  3.179271e+00    2.826114e+00
  3.195147e+00    2.733671e+00
  3.211022e+00    2.906008e+00
  3.226898e+00    2.888994e+00
  3.242773e+00    2.961175e+00
  3.258649e+00    2.939624e+00
  3.274525e+00    2.899737e+00
  3.290400e+00    2.889969e+00
  3.306276e+00    2.943814e+00
  3.322151e+00    2.959581e+00
  3.338027e+00    2.875687e+00
  3.353902e+00    2.879049e+00
  3.369778e+00    2.868428e+00
  3.385654e+00    2.955671e+00
  3.401529e+00    2.957745e+00
  3.417405e+00    2.874797e+00
  3.433280e+00    2.897846e+00
  3.449156e+00    2.896159e+00
  3.465031e+00    2.926333e+00
  3.480907e+00    2.969086e+00
  3.496783e+00    3.000941e+00
  3.512658e+00    2.896998e+00
  3.528534e+00    2.961316e+00
  3.544409e+00    2.999670e+00
  3.560285e+00    2.983790e+00
  3.576160e+00    3.070715e+00
  3.592036e+00    3.020860e+00
  3.607912e+00    2.885475e+00
  3.623787e+00    2.892799e+00
  3.639663e+00    3.045746e+00
  3.655538e+00    3.016271e+00
  3.671414e+00    2.974414e+00
  3.687289e+00    3.003602e+00
  3.703165e+00    2.987851e+00
  3.719041e+00    2.927177e+00
  3.734916e+00    2.976472e+00
  3.750792e+00    2.949775e+00
  3.766667e+00    2.977940e+00
  3.782543e+00    2.977538e+00
  3.798418e+00    3.006074e+00
  3.814294e+00    3.008432e+00
  3.830170e+00    2.991031e+00
  3.846045e+00    2.987349e+00
  3.861921e+00    2.942746e+00
  3.877796e+00    2.995107e+00
  3.893672e+00    3.065474e+00
  3.909547e+00    3.048085e+00
  3.925423e+00    2.944257e+00
  3.941299e+00    2.969242e+00
  3.957174e+00    3.047905e+00
  3.973050e+00    2.993992e+00
  3.988925e+00    2.969793e+00
  4.004801e+00    2.980613e+00
  4.020676e+00    3.055633e+00
  4.036552e+00    2.932215e+00
  4.052428e+00    2.936323e+00
  4.068303e+00    2.995933e+00
  4.084179e+00    3.069744e+00
  4.100054e+00    2.996017e+00
  4.115930e+00    2.959414e+00
  4.131806e+00    2.965938e+00
  4.147681e+00    2.923764e+00
  4.163557e+00    2.903384e+00
  4.179432e+00    2.955719e+00
  4.195308e+00    2.992630e+00
  4.211183e+00    2.981825e+00
  4.227059e+00    2.970383e+00
  4.242935e+00    2.983219e+00
  4.258810e+00    3.014935e+00
  4.274686e+00    3.030950e+00
  4.290561e+00    3.048072e+00
  4.306437e+00    3.000692e+00
  4.322312e+00    2.974079e+00
  4.338188e+00    2.951380e+00
  4.354064e+00    3.020189e+00
  4.369939e+00    3.093889e+00
  4.385815e+00    2.974074e+00
  4.401690e+00    2.954008e+00
  4.417566e+00    3.025662e+00
  4.433441e+00    3.033511e+00
  4.449317e+00    3.049158e+00
  4.465193e+00    3.077002e+00
  4.481068e+00    3.089061e+00
  4.496944e+00    3.099244e+00
  4.512819e+00    3.072253e+00
  4.528695e+00    3.011477e+00
  4.544570e+00    3.016876e+00
  4.560446e+00    2.990721e+00
  4.576322e+00    3.041618e+00
  4.592197e+00    3.060111e+00
  4.608073e+00    3.042445e+00
  4.623948e+00    2.976552e+00
  4.639824e+00    3.064907e+00
  4.655699e+00    3.016811e+00
  4.671575e+00    3.023822e+00
  4.687451e+00    3.137979e+00
  4.703326e+00    3.135582e+00
  4.719202e+00    3.139551e+00
  4.735077e+00    3.156785e+00
  4.750953e+00    3.085985e+00
  4.766828e+00    3.028557e+00
  4.782704e+00    3.062165e+00
  4.798580e+00    2.988432e+00
  4.814455e+00    3.116710e+00
  4.830331e+00    3.091571e+00
  4.846206e+00    3.012041e+00
  4.862082e+00    3.080913e+00
  4.877957e+00    3.062335e+00
  4.893833e+00    3.081849e+00
  4.909709e+00    3.100174e+00
  4.925584e+00    3.105443e+00
  4.941460e+00    3.040070e+00
  4.957335e+00    3.058609e+00
  4.973211e+00    3.025924e+00
  4.989086e+00    3.066576e+00
  5.004962e+00    3.063859e+00
  5.020838e+00    3.090602e+00
  5.036713e+00    3.090393e+00
  5.052589e+00    3.133668e+00
  5.068464e+00    3.089690e+00
  5.084340e+00    3.045858e+00
  5.100216e+00    3.095858e+00
  5.116091e+00    3.163484e+00
  5.131967e+00    3.087061e+00
  5.147842e+00    3.083184e+00
  5.163718e+00    3.112286e+00
  5.179593e+00    3.083556e+00
  5.195469e+00    3.020412e+00
  5.211345e+00    3.135244e+00
  5.227220e+00    3.112494e+00
  5.243096e+00    3.077214e+00
  5.258971e+00    3.092217e+00
  5.274847e+00    3.098202e+00
  5.290722e+00    3.161289e+00
  5.306598e+00    3.202749e+00
  5.322474e+00    3.179581e+00
  5.338349e+00    3.198770e+00
  5.354225e+00    3.132848e+00
  5.370100e+00    3.093708e+00
  5.385976e+00    3.047399e+00
  5.401851e+00    3.076443e+00
  5.417727e+00    3.089691e+00
  5.433603e+00    3.047626e+00
  5.449478e+00    3.030657e+00
  5.465354e+00    2.980156e+00
  5.481229e+00    3.052687e+00
  5.497105e+00    3.144908e+00
  5.512980e+00    3.143268e+00
  5.528856e+00    3.036075e+00
  5.544732e+00    3.013242e+00
  5.560607e+00    3.011093e+00
  5.576483e+00    2.992923e+00
  5.592358e+00    2.960849e+00
  5.608234e+00    3.027669e+00
  5.624109e+00    2.983881e+00
  5.639985e+00    3.014491e+00
  5.655861e+00    2.999920e+00
  5.671736e+00    3.053527e+00
  5.687612e+00    3.068269e+00
  5.703487e+00    3.033666e+00
  5.719363e+00    3.059809e+00
  5.735238e+00    2.989092e+00
  5.751114e+00    3.011531e+00
  5.766990e+00    3.021446e+00
  5.782865e+00    2.994843e+00
  5.798741e+00    2.949852e+00
  5.814616e+00    3.072811e+00
  5.830492e+00    3.071750e+00
  5.846367e+00    3.016226e+00
  5.862243e+00    2.985639e+00
  5.878119e+00    2.999563e+00
  5.893994e+00    2.930819e+00
  5.909870e+00    2.936332e+00
  5.925745e+00    3.015144e+00
  5.941621e+00    2.933974e+00
  5.957497e+00    3.001559e+00
  5.973372e+00    3.088337e+00
  5.989248e+00    2.978676e+00
  6.005123e+00    2.967887e+00
  6.020999e+00    3.031600e+00
  6.036874e+00    3.045060e+00
  6.052750e+00    2.919163e+00
  6.068626e+00    2.907561e+00
  6.084501e+00    2.970613e+00
  6.100377e+00    3.072675e+00
  6.116252e+00    2.990901e+00
  6.132128e+00    2.987181e+00
  6.148003e+00    3.033867e+00
  6.163879e+00    3.024642e+00
  6.179755e+00    2.963673e+00
  6.195630e+00    3.046167e+00
  6.211506e+00    3.066945e+00
  6.227381e+00    3.030574e+00
  6.243257e+00    3.041878e+00
  6.259132e+00    2.990029e+00
  6.275008e+00    2.979229e+00
  6.290884e+00    2.939699e+00
  6.306759e+00    3.062467e+00
  6.322635e+00    3.012889e+00
  6.338510e+00    3.036734e+00
  6.354386e+00    3.092492e+00
  6.370261e+00    3.035017e+00
  6.386137e+00    2.890939e+00
  6.402013e+00    3.045386e+00
  6.417888e+00    3.107001e+00
  6.433764e+00    3.026848e+00
  6.449639e+00    3.020994e+00
  6.465515e+00    3.017932e+00
  6.481390e+00    2.991930e+00
  6.497266e+00    3.007260e+00
  6.513142e+00    2.983725e+00
  6.529017e+00    3.012761e+00
  6.544893e+00    3.043004e+00
  6.560768e+00    3.020289e+00
  6.576644e+00    3.003644e+00
  6.592519e+00    3.037099e+00
  6.608395e+00    3.028224e+00
  6.624271e+00    2.999822e+00
  6.640146e+00    3.028368e+00
  6.656022e+00    2.981448e+00
  6.671897e+00    3.005021e+00
  6.687773e+00    2.994699e+00
  6.703648e+00    2.995207e+00
  6.719524e+00    2.950468e+00
  6.735400e+00    2.972725e+00
  6.751275e+00    2.982645e+00
  6.767151e+00    2.996836e+00
  6.783026e+00    2.996381e+00
  6.798902e+00    2.975769e+00
  6.814777e+00    3.023085e+00
  6.830653e+00    3.031603e+00
  6.846529e+00    3.060990e+00
  6.862404e+00    3.027102e+00
  6.878280e+00    2.935359e+00
  6.894155e+00    2.964905e+00
  6.910031e+00    3.001951e+00
  6.925907e+00    3.014370e+00
  6.941782e+00    2.991167e+00
  6.957658e+00    2.985312e+00
  6.973533e+00    2.963310e+00
  6.989409e+00    2.944352e+00
  7.005284e+00    2.946048e+00
  7.021160e+00    2.988448e+00
  7.037036e+00    2.978761e+00
  7.052911e+00    2.996646e+00
  7.068787e+00    3.040157e+00
  7.084662e+00    2.996266e+00
  7.100538e+00    3.035311e+00
  7.116413e+00    3.003070e+00
  7.132289e+00    3.019984e+00
  7.148165e+00    3.048141e+00
  7.164040e+00    2.976029e+00
  7.179916e+00    2.974472e+00
  7.195791e+00    3.002763e+00
  7.211667e+00    2.952619e+00
  7.227542e+00    2.959031e+00
  7.243418e+00    2.984334e+00
  7.259294e+00    2.997286e+00
  7.275169e+00    2.950424e+00
  7.291045e+00    2.978896e+00
  7.306920e+00    2.892059e+00
  7.322796e+00    2.893799e+00
  7.338671e+00    2.979300e+00
  7.354547e+00    2.936584e+00
  7.370423e+00    2.969544e+00
  7.386298e+00    2.968880e+00
  7.402174e+00    2.946178e+00
  7.418049e+00    2.960109e+00
  7.433925e+00    2.991572e+00
  7.449800e+00    2.994723e+00
  7.465676e+00    2.992576e+00
  7.481552e+00    2.969122e+00
  7.497427e+00    2.997617e+00
  7.513303e+00    3.005213e+00
  7.529178e+00    2.971776e+00
  7.545054e+00    2.919920e+00
  7.560929e+00    2.908630e+00
  7.576805e+00    2.962311e+00
  7.592681e+00    2.921454e+00
  7.608556e+00    2.952773e+00
  7.624432e+00    2.967946e+00
  7.640307e+00    2.954271e+00
  7.656183e+00    2.971137e+00
  7.672058e+00    2.982898e+00
  7.687934e+00    2.934056e+00
  7.703810e+00    3.006678e+00
  7.719685e+00    2.949235e+00
  7.735561e+00    2.899136e+00
  7.751436e+00    2.967771e+00
  7.767312e+00    2.944182e+00
  7.783187e+00    2.930191e+00
  7.799063e+00    2.923378e+00
  7.814939e+00    2.905383e+00
  7.830814e+00    2.899011e+00
  7.846690e+00    2.904437e+00
  7.862565e+00    2.854889e+00
  7.878441e+00    2.860982e+00
  7.894317e+00    2.836442e+00
  7.910192e+00    2.839613e+00
  7.926068e+00    2.896632e+00
  7.941943e+00    2.845633e+00
  7.957819e+00    2.874530e+00
  7.973694e+00    2.857635e+00
  7.989570e+00    2.900861e+00
  8.005446e+00    2.953296e+00
  8.021321e+00    2.909225e+00
  8.037197e+00    2.846374e+00
  8.053072e+00    2.858445e+00
  8.068948e+00    2.879318e+00
  8.084823e+00    2.818205e+00
  8.100699e+00    2.899472e+00
  8.116575e+00    2.901539e+00
  8.132450e+00    2.905113e+00
  8.148326e+00    2.923269e+00
  8.164201e+00    2.876170e+00
  8.180077e+00    2.871384e+00
  8.195952e+00    2.881894e+00
  8.211828e+00    2.973987e+00
  8.227704e+00    2.991554e+00
  8.243579e+00    3.023148e+00
  8.259455e+00    2.899054e+00
  8.275330e+00    2.859948e+00
  8.291206e+00    2.844836e+00
  8.307081e+00    2.891177e+00
  8.322957e+00    2.876552e+00
  8.338833e+00    2.903167e+00
  8.354708e+00    2.945245e+00
  8.370584e+00    2.826895e+00
  8.386459e+00    2.837873e+00
  8.402335e+00    2.857391e+00
  8.418210e+00    2.814652e+00
  8.434086e+00    2.817041e+00
  8.449962e+00    2.820364e+00
  8.465837e+00    2.777174e+00
  8.481713e+00    2.844420e+00
  8.497588e+00    2.856549e+00
  8.513464e+00    2.840367e+00
  8.529339e+00    2.876663e+00
  8.545215e+00    2.863453e+00
  8.561091e+00    2.843391e+00
  8.576966e+00    2.829729e+00
  8.592842e+00    2.826133e+00
  8.608717e+00    2.889472e+00
  8.624593e+00    2.905680e+00
  8.640468e+00    2.824648e+00
  8.656344e+00    2.840482e+00
  8.672220e+00    2.876415e+00
  8.688095e+00    2.833393e+00
  8.703971e+00    2.810298e+00
  8.719846e+00    2.871181e+00
  8.735722e+00    2.843095e+00
  8.751598e+00    2.846410e+00
  8.767473e+00    2.888505e+00
  8.783349e+00    2.805752e+00
  8.799224e+00    2.771955e+00
  8.815100e+00    2.792736e+00
  8.830975e+00    2.791396e+00
  8.846851e+00    2.771303e+00
  8.862727e+00    2.812413e+00
  8.878602e+00    2.827232e+00
  8.894478e+00    2.780569e+00
  8.910353e+00    2.686044e+00
  8.926229e+00    2.774702e+00
  8.942104e+00    2.821563e+00
  8.957980e+00    2.814888e+00
  8.973856e+00    2.762703e+00
  8.989731e+00    2.800943e+00
  9.005607e+00    2.806921e+00
  9.021482e+00    2.840695e+00
  9.037358e+00    2.828321e+00
  9.053233e+00    2.824219e+00
  9.069109e+00    2.799593e+00
  9.084985e+00    2.821914e+00
  9.100860e+00    2.779350e+00
  9.116736e+00    2.787657e+00
  9.132611e+00    2.774214e+00
  9.148487e+00    2.772391e+00
  9.164362e+00    2.750610e+00
  9.180238e+00    2.749316e+00
  9.196114e+00    2.785183e+00
  9.211989e+00    2.761480e+00
  9.227865e+00    2.732935e+00
  9.243740e+00    2.760874e+00
  9.259616e+00    2.732114e+00
  9.275491e+00    2.707260e+00
  9.291367e+00    2.721526e+00
  9.307243e+00    2.727688e+00
  9.323118e+00    2.709522e+00
  9.338994e+00    2.736305e+00
  9.354869e+00    2.722034e+00
  9.370745e+00    2.722869e+00
  9.386620e+00    2.703980e+00
  9.402496e+00    2.768346e+00
  9.418372e+00    2.786825e+00
  9.434247e+00    2.728889e+00
  9.450123e+00    2.768446e+00
  9.465998e+00    2.781874e+00
  9.481874e+00    2.725607e+00
  9.497749e+00    2.732221e+00
  9.513625e+00    2.739345e+00
  9.529501e+00    2.781054e+00
  9.545376e+00    2.771672e+00
  9.561252e+00    2.767128e+00
  9.577127e+00    2.762368e+00
  9.593003e+00    2.749236e+00
  9.608878e+00    2.744951e+00
  9.624754e+00    2.734508e+00
  9.640630e+00    2.775073e+00
  9.656505e+00    2.687003e+00
  9.672381e+00    2.677864e+00
  9.688256e+00    2.729661e+00
  9.704132e+00    2.752360e+00
  9.720008e+00    2.741550e+00
  9.735883e+00    2.719715e+00
  9.751759e+00    2.734568e+00
  9.767634e+00    2.721056e+00
  9.783510e+00    2.696609e+00
  9.799385e+00    2.662288e+00
  9.815261e+00    2.668780e+00
  9.831137e+00    2.685266e+00
  9.847012e+00    2.718030e+00
  9.862888e+00    2.728860e+00
  9.878763e+00    2.684683e+00
  9.894639e+00    2.697266e+00
  9.910514e+00    2.670212e+00
  9.926390e+00    2.711057e+00
  9.942266e+00    2.695789e+00
  9.958141e+00    2.699005e+00
  9.974017e+00    2.644726e+00
  9.989892e+00    2.643800e+00
  1.000577e+01    2.653199e+00
  1.002164e+01    2.619479e+00
  1.003752e+01    2.632263e+00
  1.005339e+01    2.652898e+00
  1.006927e+01    2.691867e+00
  1.008515e+01    2.725698e+00
  1.010102e+01    2.668694e+00
  1.011690e+01    2.614454e+00
  1.013277e+01    2.645709e+00
  1.014865e+01    2.639241e+00
  1.016452e+01    2.642069e+00
  1.018040e+01    2.631810e+00
  1.019627e+01    2.657708e+00
  1.021215e+01    2.684196e+00
  1.022803e+01    2.629772e+00
  1.024390e+01    2.607702e+00
  1.025978e+01    2.597812e+00
  1.027565e+01    2.581971e+00
  1.029153e+01    2.606601e+00
  1.030740e+01    2.620147e+00
  1.032328e+01    2.616138e+00
  1.033915e+01    2.602788e+00
  1.035503e+01    2.592740e+00
  1.037091e+01    2.615177e+00
  1.038678e+01    2.554249e+00
  1.040266e+01    2.567254e+00
  1.041853e+01    2.568275e+00
  1.043441e+01    2.592251e+00
  1.045028e+01    2.570866e+00
  1.046616e+01    2.581030e+00
  1.048204e+01    2.575403e+00
  1.049791e+01    2.542768e+00
  1.051379e+01    2.539616e+00
  1.052966e+01    2.576235e+00
  1.054554e+01    2.552693e+00
  1.056141e+01    2.596732e+00
  1.057729e+01    2.617778e+00
  1.059316e+01    2.599942e+00
  1.060904e+01    2.537939e+00
  1.062492e+01    2.532258e+00
  1.064079e+01    2.560997e+00
  1.065667e+01    2.561791e+00
  1.067254e+01    2.534790e+00
  1.068842e+01    2.529727e+00
  1.070429e+01    2.528873e+00
  1.072017e+01    2.551502e+00
  1.073604e+01    2.560445e+00
  1.075192e+01    2.534713e+00
  1.076780e+01    2.501408e+00
  1.078367e+01    2.476516e+00
  1.079955e+01    2.467344e+00
  1.081542e+01    2.511529e+00
  1.083130e+01    2.512411e+00
  1.084717e+01    2.497689e+00
  1.086305e+01    2.508762e+00
  1.087892e+01    2.505494e+00
  1.089480e+01    2.471997e+00
  1.091068e+01    2.447959e+00
  1.092655e+01    2.461710e+00
  1.094243e+01    2.496410e+00
  1.095830e+01    2.475674e+00
  1.097418e+01    2.476020e+00
  1.099005e+01    2.502385e+00
  1.100593e+01    2.479426e+00
  1.102180e+01    2.479712e+00
  1.103768e+01    2.436882e+00
  1.105356e+01    2.451052e+00
  1.106943e+01    2.480291e+00
  1.108531e+01    2.434078e+00
  1.110118e+01    2.402390e+00
  1.111706e+01    2.477727e+00
  1.113293e+01    2.484342e+00
  1.114881e+01    2.450811e+00
  1.116468e+01    2.421807e+00
  1.118056e+01    2.440911e+00
  1.119644e+01    2.440725e+00
  1.121231e+01    2.449449e+00
  1.122819e+01    2.424640e+00
  1.124406e+01    2.407160e+00
  1.125994e+01    2.425939e+00
  1.127581e+01    2.407884e+00
  1.129169e+01    2.386568e+00
  1.130756e+01    2.377804e+00
  1.132344e+01    2.434289e+00
  1.133932e+01    2.431489e+00
  1.135519e+01    2.384009e+00
  1.137107e+01    2.411486e+00
  1.138694e+01    2.387049e+00
  1.140282e+01    2.387069e+00
  1.141869e+01    2.391953e+00
  1.143457e+01    2.389634e+00
  1.145045e+01    2.351458e+00
  1.146632e+01    2.354260e+00
  1.148220e+01    2.376088e+00
  1.149807e+01    2.384977e+00
  1.151395e+01    2.347552e+00
  1.152982e+01    2.321452e+00
  1.154570e+01    2.344277e+00
  1.156157e+01    2.375523e+00
  1.157745e+01    2.391280e+00
  1.159333e+01    2.350790e+00
  1.160920e+01    2.336892e+00
  1.162508e+01    2.300905e+00
  1.164095e+01    2.315004e+00
  1.165683e+01    2.337369e+00
  1.167270e+01    2.403019e+00
  1.168858e+01    2.390360e+00
  1.170445e+01    2.323453e+00
  1.172033e+01    2.349859e+00
  1.173621e+01    2.378601e+00
  1.175208e+01    2.327608e+00
  1.176796e+01    2.331141e+00
  1.178383e+01    2.342398e+00
  1.179971e+01    2.327270e+00
  1.181558e+01    2.348936e+00
  1.183146e+01    2.357223e+00
  1.184733e+01    2.314337e+00
  1.186321e+01    2.317347e+00
  1.187909e+01    2.351518e+00
  1.189496e+01    2.303699e+00
  1.191084e+01    2.294397e+00
  1.192671e+01    2.320602e+00
  1.194259e+01    2.325176e+00
  1.195846e+01    2.309197e+00
  1.197434e+01    2.353009e+00
  1.199021e+01    2.322276e+00
  1.200609e+01    2.309715e+00
  1.202197e+01    2.326796e+00
  1.203784e+01    2.319834e+00
  1.205372e+01    2.305059e+00
  1.206959e+01    2.309607e+00
  1.208547e+01    2.295516e+00
  1.210134e+01    2.303694e+00
  1.211722e+01    2.310387e+00
  1.213309e+01    2.282082e+00
  1.214897e+01    2.282910e+00
  1.216485e+01    2.282651e+00
  1.218072e+01    2.286483e+00
  1.219660e+01    2.314830e+00
  1.221247e+01    2.342523e+00
  1.222835e+01    2.362242e+00
  1.224422e+01    2.290073e+00
  1.226010e+01    2.290002e+00
  1.227597e+01    2.301656e+00
  1.229185e+01    2.317216e+00
  1.230773e+01    2.275113e+00
  1.232360e+01    2.257105e+00
  1.233948e+01    2.292630e+00
  1.235535e+01    2.321095e+00
  1.237123e+01    2.317432e+00
  1.238710e+01    2.337542e+00
  1.240298e+01    2.347607e+00
  1.241886e+01    2.335956e+00
  1.243473e+01    2.325891e+00
  1.245061e+01    2.299904e+00
  1.246648e+01    2.326270e+00
  1.248236e+01    2.315779e+00
  1.249823e+01    2.278522e+00
  1.251411e+01    2.337903e+00
  1.252998e+01    2.346242e+00
  1.254586e+01    2.393270e+00
  1.256174e+01    2.357353e+00
  1.257761e+01    2.370216e+00
  1.259349e+01    2.352153e+00
  1.260936e+01    2.380297e+00
  1.262524e+01    2.389067e+00
  1.264111e+01    2.400186e+00
  1.265699e+01    2.410928e+00
  1.267286e+01    2.426064e+00
  1.268874e+01    2.430624e+00
  1.270462e+01    2.466675e+00
  1.272049e+01    2.472623e+00
  1.273637e+01    2.508564e+00
  1.275224e+01    2.556937e+00
  1.276812e+01    2.582934e+00
  1.278399e+01    2.587541e+00
  1.279987e+01    2.669871e+00
  1.281574e+01    2.682772e+00
  1.283162e+01    2.746894e+00
  1.284750e+01    2.817059e+00
  1.286337e+01    2.872009e+00
  1.287925e+01    2.975353e+00
  1.289512e+01    3.124218e+00
  1.291100e+01    3.270251e+00
  1.292687e+01    3.507453e+00
  1.294275e+01    3.692187e+00
  1.295862e+01    3.993936e+00
  1.297450e+01    4.344032e+00
  1.299038e+01    4.839262e+00
  1.300625e+01    5.382371e+00
  1.302213e+01    6.098052e+00
  1.303800e+01    7.022133e+00
  1.305388e+01    8.184707e+00
  1.306975e+01    9.491784e+00
  1.308563e+01    1.078447e+01
  1.310150e+01    1.206712e+01
  1.311738e+01    1.319449e+01
  1.313326e+01    1.445222e+01
  1.314913e+01    1.557514e+01
  1.316501e+01    1.622639e+01
  1.318088e+01    1.665853e+01
  1.319676e+01    1.639519e+01
  1.321263e+01    1.528189e+01
  1.322851e+01    1.350076e+01
  1.324438e+01    1.150220e+01
  1.326026e+01    9.679430e+00
  1.327614e+01    8.148982e+00
  1.329201e+01    6.941237e+00
  1.330789e+01    6.004304e+00
  1.332376e+01    5.288119e+00
  1.333964e+01    4.722721e+00
  1.335551e+01    4.302100e+00
  1.337139e+01    3.917733e+00
  1.338727e+01    3.623984e+00
  1.340314e+01    3.410352e+00
  1.341902e+01    3.232470e+00
  1.343489e+01    3.061253e+00
  1.345077e+01    2.965271e+00
  1.346664e+01    2.858799e+00
  1.348252e+01    2.734754e+00
  1.349839e+01    2.709219e+00
  1.351427e+01    2.626065e+00
  1.353015e+01    2.569723e+00
  1.354602e+01    2.491286e+00
  1.356190e+01    2.413351e+00
  1.357777e+01    2.402208e+00
  1.359365e+01    2.374354e+00
  1.360952e+01    2.338930e+00
  1.362540e+01    2.328123e+00
  1.364127e+01    2.322400e+00
  1.365715e+01    2.257329e+00
  1.367303e+01    2.243910e+00
  1.368890e+01    2.242635e+00
  1.370478e+01    2.232972e+00
  1.372065e+01    2.217484e+00
  1.373653e+01    2.204967e+00
  1.375240e+01    2.161248e+00
  1.376828e+01    2.155680e+00
  1.378415e+01    2.196554e+00
  1.380003e+01    2.148661e+00
  1.381591e+01    2.148587e+00
  1.383178e+01    2.149324e+00
  1.384766e+01    2.123420e+00
  1.386353e+01    2.104827e+00
  1.387941e+01    2.095582e+00
  1.389528e+01    2.061001e+00
  1.391116e+01    2.070303e+00
  1.392703e+01    2.094886e+00
  1.394291e+01    2.062589e+00
  1.395879e+01    2.060081e+00
  1.397466e+01    2.061357e+00
  1.399054e+01    2.018015e+00
  1.400641e+01    2.035265e+00
  1.402229e+01    2.051645e+00
  1.403816e+01    2.026319e+00
  1.405404e+01    2.021582e+00
  1.406991e+01    2.037123e+00
  1.408579e+01    2.021734e+00
  1.410167e+01    2.025464e+00
  1.411754e+01    1.993184e+00
  1.413342e+01    1.961317e+00
  1.414929e+01    1.972374e+00
  1.416517e+01    1.984489e+00
  1.418104e+01    1.956509e+00
  1.419692e+01    1.996192e+00
  1.421279e+01    1.986813e+00
  1.422867e+01    1.994651e+00
  1.424455e+01    1.988104e+00
  1.426042e+01    1.973635e+00
  1.427630e+01    1.978426e+00
  1.429217e+01    1.942877e+00
  1.430805e+01    1.938575e+00
  1.432392e+01    1.968642e+00
  1.433980e+01    1.952725e+00
  1.435568e+01    1.938876e+00
  1.437155e+01    1.924104e+00
  1.438743e+01    1.894938e+00
  1.440330e+01    1.882740e+00
  1.441918e+01    1.933596e+00
  1.443505e+01    1.924390e+00
  1.445093e+01    1.878172e+00
  1.446680e+01    1.920994e+00
  1.448268e+01    1.930242e+00
  1.449856e+01    1.931003e+00
  1.451443e+01    1.898875e+00
  1.453031e+01    1.911347e+00
  1.454618e+01    1.932612e+00
  1.456206e+01    1.948634e+00
  1.457793e+01    1.928968e+00
  1.459381e+01    1.903854e+00
  1.460968e+01    1.943333e+00
  1.462556e+01    1.903523e+00
  1.464144e+01    1.889527e+00
  1.465731e+01    1.892999e+00
  1.467319e+01    1.892213e+00
  1.468906e+01    1.909332e+00
  1.470494e+01    1.885054e+00
  1.472081e+01    1.921608e+00
  1.473669e+01    1.919375e+00
  1.475256e+01    1.909545e+00
  1.476844e+01    1.890973e+00
  1.478432e+01    1.892986e+00
  1.480019e+01    1.929782e+00
  1.481607e+01    1.930742e+00
  1.483194e+01    1.915073e+00
  1.484782e+01    1.930411e+00
  1.486369e+01    1.932078e+00
  1.487957e+01    1.893874e+00
  1.489544e+01    1.945805e+00
  1.491132e+01    1.934307e+00
  1.492720e+01    1.978290e+00
  1.494307e+01    1.987713e+00
  1.495895e+01    2.003885e+00
  1.497482e+01    2.069085e+00
  1.499070e+01    2.130042e+00
  1.500657e+01    2.101008e+00
  1.502245e+01    2.173090e+00
  1.503832e+01    2.265602e+00
  1.505420e+01    2.333419e+00
  1.507008e+01    2.490380e+00
  1.508595e+01    2.641890e+00
  1.510183e+01    2.819685e+00
  1.511770e+01    3.107404e+00
  1.513358e+01    3.407579e+00
  1.514945e+01    3.720302e+00
  1.516533e+01    4.137722e+00
  1.518120e+01    4.470227e+00
  1.519708e+01    4.850597e+00
  1.521296e+01    5.164623e+00
  1.522883e+01    5.415174e+00
  1.524471e+01    5.643395e+00
  1.526058e+01    5.779995e+00
  1.527646e+01    5.699493e+00
  1.529233e+01    5.538853e+00
  1.530821e+01    5.227808e+00
  1.532409e+01    4.774411e+00
  1.533996e+01    4.308276e+00
  1.535584e+01    3.755751e+00
  1.537171e+01    3.340690e+00
  1.538759e+01    3.062358e+00
  1.540346e+01    2.795347e+00
  1.541934e+01    2.565250e+00
  1.543521e+01    2.423187e+00
  1.545109e+01    2.316626e+00
  1.546697e+01    2.177497e+00
  1.548284e+01    2.117275e+00
  1.549872e+01    2.055854e+00
  1.551459e+01    2.003406e+00
  1.553047e+01    2.016655e+00
  1.554634e+01    1.926661e+00
  1.556222e+01    1.857102e+00
  1.557809e+01    1.821533e+00
  1.559397e+01    1.803258e+00
  1.560985e+01    1.803055e+00
  1.562572e+01    1.799949e+00
  1.564160e+01    1.750407e+00
  1.565747e+01    1.750832e+00
  1.567335e+01    1.764945e+00
  1.568922e+01    1.756054e+00
  1.570510e+01    1.774459e+00
  1.572097e+01    1.710903e+00
  1.573685e+01    1.714803e+00
  1.575273e+01    1.667101e+00
  1.576860e+01    1.636551e+00
  1.578448e+01    1.630551e+00
  1.580035e+01    1.632638e+00
  1.581623e+01    1.653358e+00
  1.583210e+01    1.650036e+00
  1.584798e+01    1.639616e+00
  1.586385e+01    1.637661e+00
  1.587973e+01    1.629438e+00
  1.589561e+01    1.658293e+00
  1.591148e+01    1.646007e+00
  1.592736e+01    1.619498e+00
  1.594323e+01    1.644370e+00
  1.595911e+01    1.616995e+00
  1.597498e+01    1.595276e+00
  1.599086e+01    1.583592e+00
  1.600673e+01    1.593709e+00
  1.602261e+01    1.636893e+00
  1.603849e+01    1.600889e+00
  1.605436e+01    1.580811e+00
  1.607024e+01    1.593313e+00
  1.608611e+01    1.596123e+00
  1.610199e+01    1.569943e+00
  1.611786e+01    1.548785e+00
  1.613374e+01    1.590127e+00
  1.614961e+01    1.587515e+00
  1.616549e+01    1.546183e+00
  1.618137e+01    1.576915e+00
  1.619724e+01    1.552454e+00
  1.621312e+01    1.583602e+00
  1.622899e+01    1.593588e+00
  1.624487e+01    1.550571e+00
  1.626074e+01    1.573563e+00
  1.627662e+01    1.563684e+00
  1.629250e+01    1.539219e+00
  1.630837e+01    1.523872e+00
  1.632425e+01    1.537703e+00
  1.634012e+01    1.526163e+00
  1.635600e+01    1.511395e+00
  1.637187e+01    1.520145e+00
  1.638775e+01    1.542820e+00
  1.640362e+01    1.535383e+00
  1.641950e+01    1.518944e+00
  1.643538e+01    1.512370e+00
  1.645125e+01    1.509279e+00
  1.646713e+01    1.502759e+00
  1.648300e+01    1.503554e+00
  1.649888e+01    1.491514e+00
  1.651475e+01    1.489097e+00
  1.653063e+01    1.547542e+00
  1.654650e+01    1.530561e+00
  1.656238e+01    1.497568e+00
  1.657826e+01    1.488658e+00
  1.659413e+01    1.495666e+00
  1.661001e+01    1.490162e+00
  1.662588e+01    1.444075e+00
  1.664176e+01    1.448586e+00
  1.665763e+01    1.488921e+00
  1.667351e+01    1.458305e+00
  1.668938e+01    1.442783e+00
  1.670526e+01    1.464914e+00
  1.672114e+01    1.441174e+00
  1.673701e+01    1.459284e+00
  1.675289e+01    1.453288e+00
  1.676876e+01    1.437719e+00
  1.678464e+01    1.449010e+00
  1.680051e+01    1.475024e+00
  1.681639e+01    1.441208e+00
  1.683226e+01    1.427615e+00
  1.684814e+01    1.454858e+00
  1.686402e+01    1.442602e+00
  1.687989e+01    1.452011e+00
  1.689577e+01    1.449168e+00
  1.691164e+01    1.434035e+00
  1.692752e+01    1.443127e+00
  1.694339e+01    1.437923e+00
  1.695927e+01    1.423432e+00
  1.697514e+01    1.406993e+00
  1.699102e+01    1.406637e+00
  1.700690e+01    1.430490e+00
  1.702277e+01    1.432959e+00
  1.703865e+01    1.440809e+00
  1.705452e+01    1.447664e+00
  1.707040e+01    1.412803e+00
  1.708627e+01    1.415775e+00
  1.710215e+01    1.399944e+00
  1.711802e+01    1.407630e+00
  1.713390e+01    1.408542e+00
  1.714978e+01    1.394397e+00
  1.716565e+01    1.411302e+00
  1.718153e+01    1.396921e+00
  1.719740e+01    1.379107e+00
  1.721328e+01    1.382827e+00
  1.722915e+01    1.389633e+00
  1.724503e+01    1.416579e+00
  1.726091e+01    1.397338e+00
  1.727678e+01    1.397984e+00
  1.729266e+01    1.397241e+00
  1.730853e+01    1.360947e+00
  1.732441e+01    1.338467e+00
  1.734028e+01    1.371699e+00
  1.735616e+01    1.368091e+00
  1.737203e+01    1.355021e+00
  1.738791e+01    1.366825e+00
  1.740379e+01    1.362018e+00
  1.741966e+01    1.329889e+00
  1.743554e+01    1.345421e+00
  1.745141e+01    1.376201e+00
  1.746729e+01    1.384792e+00
  1.748316e+01    1.378498e+00
  1.749904e+01    1.376490e+00
  1.751491e+01    1.349392e+00
  1.753079e+01    1.354060e+00
  1.754667e+01    1.356349e+00
  1.756254e+01    1.356233e+00
  1.757842e+01    1.345143e+00
  1.759429e+01    1.344608e+00
  1.761017e+01    1.318993e+00
  1.762604e+01    1.296230e+00
  1.764192e+01    1.315452e+00
  1.765779e+01    1.337408e+00
  1.767367e+01    1.370380e+00
  1.768955e+01    1.339380e+00
  1.770542e+01    1.322680e+00
  1.772130e+01    1.318622e+00
  1.773717e+01    1.323455e+00
  1.775305e+01    1.301473e+00
  1.776892e+01    1.296094e+00
  1.778480e+01    1.307610e+00
  1.780067e+01    1.310265e+00
  1.781655e+01    1.320505e+00
  1.783243e+01    1.321199e+00
  1.784830e+01    1.327208e+00
  1.786418e+01    1.313602e+00
  1.788005e+01    1.307901e+00
  1.789593e+01    1.326713e+00
  1.791180e+01    1.301344e+00
  1.792768e+01    1.293242e+00
  1.794355e+01    1.296730e+00
  1.795943e+01    1.295282e+00
  1.797531e+01    1.282253e+00
  1.799118e+01    1.263782e+00
  1.800706e+01    1.280143e+00
  1.802293e+01    1.276362e+00
  1.803881e+01    1.281310e+00
  1.805468e+01    1.288225e+00
  1.807056e+01    1.290644e+00
  1.808643e+01    1.297765e+00
  1.810231e+01    1.306314e+00
  1.811819e+01    1.308840e+00
  1.813406e+01    1.297554e+00
  1.814994e+01    1.296195e+00
  1.816581e+01    1.294430e+00
  1.818169e+01    1.300271e+00
  1.819756e+01    1.302007e+00
  1.821344e+01    1.274617e+00
  1.822932e+01    1.256389e+00
  1.824519e+01    1.258630e+00
  1.826107e+01    1.259565e+00
  1.827694e+01    1.253052e+00
  1.829282e+01    1.230096e+00
  1.830869e+01    1.277522e+00
  1.832457e+01    1.279560e+00
  1.834044e+01    1.280642e+00
  1.835632e+01    1.240704e+00
  1.837220e+01    1.225596e+00
  1.838807e+01    1.244859e+00
  1.840395e+01    1.246089e+00
  1.841982e+01    1.244101e+00
  1.843570e+01    1.244514e+00
  1.845157e+01    1.245229e+00
  1.846745e+01    1.218618e+00
  1.848332e+01    1.241721e+00
  1.849920e+01    1.245009e+00
  1.851508e+01    1.222846e+00
  1.853095e+01    1.234817e+00
  1.854683e+01    1.224679e+00
  1.856270e+01    1.203482e+00
  1.857858e+01    1.222953e+00
  1.859445e+01    1.228290e+00
  1.861033e+01    1.223164e+00
  1.862620e+01    1.239369e+00
  1.864208e+01    1.242490e+00
  1.865796e+01    1.228570e+00
  1.867383e+01    1.224445e+00
  1.868971e+01    1.194988e+00
  1.870558e+01    1.189530e+00
  1.872146e+01    1.223374e+00
  1.873733e+01    1.234519e+00
  1.875321e+01    1.256364e+00
  1.876908e+01    1.219111e+00
  1.878496e+01    1.202153e+00
  1.880084e+01    1.207759e+00
  1.881671e+01    1.214527e+00
  1.883259e+01    1.205451e+00
  1.884846e+01    1.210038e+00
  1.886434e+01    1.188246e+00
  1.888021e+01    1.208468e+00
  1.889609e+01    1.223327e+00
  1.891196e+01    1.202070e+00
  1.892784e+01    1.195992e+00
  1.894372e+01    1.206894e+00
  1.895959e+01    1.205058e+00
  1.897547e+01    1.216415e+00
  1.899134e+01    1.195889e+00
  1.900722e+01    1.208225e+00
  1.902309e+01    1.179262e+00
  1.903897e+01    1.181198e+00
  1.905484e+01    1.177496e+00
  1.907072e+01    1.186439e+00
  1.908660e+01    1.178505e+00
  1.910247e+01    1.177094e+00
  1.911835e+01    1.155649e+00
  1.913422e+01    1.170981e+00
  1.915010e+01    1.193258e+00
  1.916597e+01    1.202049e+00
  1.918185e+01    1.174914e+00
  1.919773e+01    1.194120e+00
  1.921360e+01    1.185338e+00
  1.922948e+01    1.164856e+00
  1.924535e+01    1.180193e+00
  1.926123e+01    1.164327e+00
  1.927710e+01    1.175794e+00
  1.929298e+01    1.157095e+00
  1.930885e+01    1.161848e+00
  1.932473e+01    1.172519e+00
  1.934061e+01    1.183138e+00
  1.935648e+01    1.172092e+00
  1.937236e+01    1.146974e+00
  1.938823e+01    1.144467e+00
  1.940411e+01    1.144468e+00
  1.941998e+01    1.135604e+00
  1.943586e+01    1.149546e+00
  1.945173e+01    1.163826e+00
  1.946761e+01    1.146398e+00
  1.948349e+01    1.138125e+00
  1.949936e+01    1.161598e+00
  1.951524e+01    1.154375e+00
  1.953111e+01    1.152326e+00
  1.954699e+01    1.138578e+00
  1.956286e+01    1.140739e+00
  1.957874e+01    1.156693e+00
  1.959461e+01    1.153347e+00
  1.961049e+01    1.139917e+00
  1.962637e+01    1.141133e+00
  1.964224e+01    1.145620e+00
  1.965812e+01    1.148461e+00
  1.967399e+01    1.143936e+00
  1.968987e+01    1.122373e+00
  1.970574e+01    1.124335e+00
  1.972162e+01    1.130387e+00
  1.973749e+01    1.121822e+00
  1.975337e+01    1.124615e+00
  1.976925e+01    1.132366e+00
  1.978512e+01    1.130149e+00
  1.980100e+01    1.119445e+00
  1.981687e+01    1.108997e+00
  1.983275e+01    1.105988e+00
  1.984862e+01    1.115641e+00
  1.986450e+01    1.121682e+00
  1.988037e+01    1.120645e+00
  1.989625e+01    1.114264e+00
  1.991213e+01    1.127087e+00
  1.992800e+01    1.114427e+00
  1.994388e+01    1.106183e+00
  1.995975e+01    1.120642e+00
  1.997563e+01    1.103379e+00
  1.999150e+01    1.076299e+00
  2.000738e+01    1.083812e+00
  2.002325e+01    1.109921e+00
  2.003913e+01    1.105963e+00
  2.005501e+01    1.104743e+00
  2.007088e+01    1.109441e+00
  2.008676e+01    1.095810e+00
  2.010263e+01    1.110729e+00
  2.011851e+01    1.114888e+00
  2.013438e+01    1.117144e+00
  2.015026e+01    1.090671e+00
  2.016614e+01    1.076616e+00
  2.018201e+01    1.091803e+00
  2.019789e+01    1.099153e+00
  2.021376e+01    1.097428e+00
  2.022964e+01    1.104835e+00
  2.024551e+01    1.079032e+00
  2.026139e+01    1.087130e+00
  2.027726e+01    1.104441e+00
  2.029314e+01    1.101707e+00
  2.030902e+01    1.075766e+00
  2.032489e+01    1.072927e+00
  2.034077e+01    1.079479e+00
  2.035664e+01    1.083915e+00
  2.037252e+01    1.080065e+00
  2.038839e+01    1.082305e+00
  2.040427e+01    1.087998e+00
  2.042014e+01    1.074643e+00
  2.043602e+01    1.077539e+00
  2.045190e+01    1.065936e+00
  2.046777e+01    1.078434e+00
  2.048365e+01    1.084360e+00
  2.049952e+01    1.080711e+00
  2.051540e+01    1.079112e+00
  2.053127e+01    1.049795e+00
  2.054715e+01    1.062732e+00
  2.056302e+01    1.090311e+00
  2.057890e+01    1.067685e+00
  2.059478e+01    1.074775e+00
  2.061065e+01    1.082468e+00
  2.062653e+01    1.047630e+00
  2.064240e+01    1.037702e+00
  2.065828e+01    1.074692e+00
  2.067415e+01    1.067852e+00
  2.069003e+01    1.083162e+00
  2.070590e+01    1.089793e+00
  2.072178e+01    1.080900e+00
  2.073766e+01    1.073180e+00
  2.075353e+01    1.062376e+00
  2.076941e+01    1.070021e+00
  2.078528e+01    1.051266e+00
  2.080116e+01    1.066288e+00
  2.081703e+01    1.076730e+00
  2.083291e+01    1.062277e+00
  2.084878e+01    1.067366e+00
  2.086466e+01    1.057504e+00
  2.088054e+01    1.087589e+00
  2.089641e+01    1.095325e+00
  2.091229e+01    1.084070e+00
  2.092816e+01    1.078976e+00
  2.094404e+01    1.107151e+00
  2.095991e+01    1.101360e+00
  2.097579e+01    1.067536e+00
  2.099166e+01    1.074856e+00
  2.100754e+01    1.072534e+00
  2.102342e+01    1.073024e+00
  2.103929e+01    1.077618e+00
  2.105517e+01    1.071521e+00
  2.107104e+01    1.061483e+00
  2.108692e+01    1.089293e+00
  2.110279e+01    1.067930e+00
  2.111867e+01    1.083117e+00
  2.113455e+01    1.086451e+00
  2.115042e+01    1.091636e+00
  2.116630e+01    1.069021e+00
  2.118217e+01    1.080311e+00
  2.119805e+01    1.079522e+00
  2.121392e+01    1.061294e+00
  2.122980e+01    1.068064e+00
  2.124567e+01    1.081898e+00
  2.126155e+01    1.104396e+00
  2.127743e+01    1.093074e+00
  2.129330e+01    1.109963e+00
  2.130918e+01    1.114907e+00
  2.132505e+01    1.139118e+00
  2.134093e+01    1.137535e+00
  2.135680e+01    1.144265e+00
  2.137268e+01    1.154678e+00
  2.138855e+01    1.169897e+00
  2.140443e+01    1.174397e+00
  2.142031e+01    1.166604e+00
  2.143618e+01    1.202643e+00
  2.145206e+01    1.189900e+00
  2.146793e+01    1.208153e+00
  2.148381e+01    1.223064e+00
  2.149968e+01    1.251450e+00
  2.151556e+01    1.298712e+00
  2.153143e+01    1.346401e+00
  2.154731e+01    1.374497e+00
  2.156319e+01    1.408758e+00
  2.157906e+01    1.467824e+00
  2.159494e+01    1.542017e+00
  2.161081e+01    1.605180e+00
  2.162669e+01    1.666662e+00
  2.164256e+01    1.794268e+00
  2.165844e+01    1.930660e+00
  2.167431e+01    2.074021e+00
  2.169019e+01    2.303947e+00
  2.170607e+01    2.547347e+00
  2.172194e+01    2.858213e+00
  2.173782e+01    3.232851e+00
  2.175369e+01    3.682776e+00
  2.176957e+01    4.272717e+00
  2.178544e+01    4.817337e+00
  2.180132e+01    5.457617e+00
  2.181719e+01    6.134183e+00
  2.183307e+01    6.847697e+00
  2.184895e+01    7.599401e+00
  2.186482e+01    8.311714e+00
  2.188070e+01    8.875362e+00
  2.189657e+01    9.186789e+00
  2.191245e+01    9.272443e+00
  2.192832e+01    8.876639e+00
  2.194420e+01    8.128633e+00
  2.196007e+01    7.136596e+00
  2.197595e+01    6.208267e+00
  2.199183e+01    5.253026e+00
  2.200770e+01    4.428977e+00
  2.202358e+01    3.803653e+00
  2.203945e+01    3.303871e+00
  2.205533e+01    2.882382e+00
  2.207120e+01    2.575035e+00
  2.208708e+01    2.323858e+00
  2.210296e+01    2.086920e+00
  2.211883e+01    1.926887e+00
  2.213471e+01    1.777833e+00
  2.215058e+01    1.670353e+00
  2.216646e+01    1.586838e+00
  2.218233e+01    1.495522e+00
  2.219821e+01    1.439637e+00
  2.221408e+01    1.362082e+00
  2.222996e+01    1.331960e+00
  2.224584e+01    1.309011e+00
  2.226171e+01    1.240629e+00
  2.227759e+01    1.214820e+00
  2.229346e+01    1.177840e+00
  2.230934e+01    1.152638e+00
  2.232521e+01    1.141078e+00
  2.234109e+01    1.125497e+00
  2.235696e+01    1.100344e+00
  2.237284e+01    1.100311e+00
  2.238872e+01    1.080700e+00
  2.240459e+01    1.066935e+00
  2.242047e+01    1.054350e+00
  2.243634e+01    1.049197e+00
  2.245222e+01    1.034722e+00
  2.246809e+01    1.021941e+00
  2.248397e+01    1.010527e+00
  2.249984e+01    1.000621e+00
  2.251572e+01    9.900383e-01
  2.253160e+01    9.974837e-01
  2.254747e+01    9.904367e-01
  2.256335e+01    9.863699e-01
  2.257922e+01    9.874168e-01
  2.259510e+01    9.814920e-01
  2.261097e+01    9.523912e-01
  2.262685e+01    9.539603e-01
  2.264272e+01    9.497902e-01
  2.265860e+01    9.537454e-01
  2.267448e+01    9.511856e-01
  2.269035e+01    9.399505e-01
  2.270623e+01    9.494339e-01
  2.272210e+01    9.448879e-01
  2.273798e+01    9.577979e-01
  2.275385e+01    9.462320e-01
  2.276973e+01    9.019030e-01
  2.278560e+01    9.134194e-01
  2.280148e+01    9.131688e-01
  2.281736e+01    9.358923e-01
  2.283323e+01    9.215975e-01
  2.284911e+01    9.125928e-01
  2.286498e+01    9.225946e-01
  2.288086e+01    9.377676e-01
  2.289673e+01    9.162500e-01
  2.291261e+01    9.156659e-01
  2.292848e+01    8.967692e-01
  2.294436e+01    8.797442e-01
  2.296024e+01    9.049879e-01
  2.297611e+01    8.944207e-01
  2.299199e+01    8.873425e-01
  2.300786e+01    8.988933e-01
  2.302374e+01    8.843958e-01
  2.303961e+01    8.902633e-01
  2.305549e+01    8.858171e-01
  2.307137e+01    9.003586e-01
  2.308724e+01    8.959197e-01
  2.310312e+01    9.053239e-01
  2.311899e+01    8.868656e-01
  2.313487e+01    8.724366e-01
  2.315074e+01    8.848111e-01
  2.316662e+01    9.007483e-01
  2.318249e+01    8.786393e-01
  2.319837e+01    8.466915e-01
  2.321425e+01    8.621154e-01
  2.323012e+01    8.643012e-01
  2.324600e+01    8.622937e-01
  2.326187e+01    8.580112e-01
  2.327775e+01    8.818460e-01
  2.329362e+01    8.784148e-01
  2.330950e+01    8.728395e-01
  2.332537e+01    8.723593e-01
  2.334125e+01    8.667965e-01
  2.335713e+01    8.641712e-01
  2.337300e+01    8.680047e-01
  2.338888e+01    8.482599e-01
  2.340475e+01    8.480977e-01
  2.342063e+01    8.394349e-01
  2.343650e+01    8.307138e-01
  2.345238e+01    8.512369e-01
  2.346825e+01    8.618496e-01
  2.348413e+01    8.653876e-01
  2.350001e+01    8.473619e-01
  2.351588e+01    8.310202e-01
  2.353176e+01    8.487834e-01
  2.354763e+01    8.548157e-01
  2.356351e+01    8.664436e-01
  2.357938e+01    8.600503e-01
  2.359526e+01    8.485464e-01
  2.361113e+01    8.470018e-01
  2.362701e+01    8.402466e-01
  2.364289e+01    8.302208e-01
  2.365876e+01    8.161829e-01
  2.367464e+01    8.346286e-01
  2.369051e+01    8.338053e-01
  2.370639e+01    8.051204e-01
  2.372226e+01    8.109590e-01
  2.373814e+01    8.104908e-01
  2.375401e+01    8.178911e-01
  2.376989e+01    7.965693e-01
  2.378577e+01    8.187680e-01
  2.380164e+01    8.071924e-01
  2.381752e+01    8.204420e-01
  2.383339e+01    8.041406e-01
  2.384927e+01    7.926365e-01
  2.386514e+01    7.921453e-01
  2.388102e+01    7.764261e-01
  2.389689e+01    7.780051e-01
  2.391277e+01    8.055832e-01
  2.392865e+01    8.086209e-01
  2.394452e+01    8.132213e-01
  2.396040e+01    8.109869e-01
  2.397627e+01    7.916055e-01
  2.399215e+01    7.983472e-01
  2.400802e+01    7.840081e-01
  2.402390e+01    7.683114e-01
  2.403978e+01    7.696103e-01
  2.405565e+01    7.769704e-01
  2.407153e+01    7.936816e-01
  2.408740e+01    7.696012e-01
  2.410328e+01    7.647392e-01
  2.411915e+01    7.838020e-01
  2.413503e+01    7.827088e-01
  2.415090e+01    7.816054e-01
  2.416678e+01    7.652808e-01
  2.418266e+01    7.668717e-01
  2.419853e+01    7.817439e-01
  2.421441e+01    7.855509e-01
  2.423028e+01    7.771641e-01
  2.424616e+01    7.734833e-01
  2.426203e+01    7.830410e-01
  2.427791e+01    7.802165e-01
  2.429378e+01    7.753830e-01
  2.430966e+01    7.726409e-01
  2.432554e+01    7.826518e-01
  2.434141e+01    8.048158e-01
  2.435729e+01    7.984822e-01
  2.437316e+01    7.783515e-01
  2.438904e+01    7.867057e-01
  2.440491e+01    7.967120e-01
  2.442079e+01    7.846951e-01
  2.443666e+01    7.799673e-01
  2.445254e+01    7.756400e-01
  2.446842e+01    7.788436e-01
  2.448429e+01    7.913152e-01
  2.450017e+01    7.852201e-01
  2.451604e+01    7.873948e-01
  2.453192e+01    7.879535e-01
  2.454779e+01    7.930679e-01
  2.456367e+01    7.835188e-01
  2.457954e+01    7.616767e-01
  2.459542e+01    7.714953e-01
  2.461130e+01    8.107024e-01
  2.462717e+01    7.871007e-01
  2.464305e+01    7.741553e-01
  2.465892e+01    7.757075e-01
  2.467480e+01    7.846690e-01
  2.469067e+01    8.123600e-01
  2.470655e+01    7.906977e-01
  2.472242e+01    7.760196e-01
  2.473830e+01    8.031184e-01
  2.475418e+01    7.895347e-01
  2.477005e+01    7.802437e-01
  2.478593e+01    7.893480e-01
  2.480180e+01    7.808251e-01
  2.481768e+01    8.025940e-01
  2.483355e+01    8.085108e-01
  2.484943e+01    7.979805e-01
  2.486530e+01    7.982007e-01
  2.488118e+01    7.808815e-01
  2.489706e+01    7.857970e-01
  2.491293e+01    7.974952e-01
  2.492881e+01    7.875036e-01
  2.494468e+01    7.884696e-01
  2.496056e+01    7.936769e-01
  2.497643e+01    7.926850e-01
  2.499231e+01    7.980886e-01
  2.500819e+01    7.937932e-01
  2.502406e+01    7.881507e-01
  2.503994e+01    7.847843e-01
  2.505581e+01    8.153468e-01
  2.507169e+01    8.080820e-01
  2.508756e+01    8.053254e-01
  2.510344e+01    7.988537e-01
  2.511931e+01    7.948681e-01
  2.513519e+01    7.857589e-01
  2.515107e+01    8.107662e-01
  2.516694e+01    8.075459e-01
  2.518282e+01    8.189806e-01
  2.519869e+01    8.025755e-01
  2.521457e+01    8.069764e-01
  2.523044e+01    8.209274e-01
  2.524632e+01    8.482009e-01
  2.526219e+01    8.375310e-01
  2.527807e+01    8.459406e-01
  2.529395e+01    8.521726e-01
  2.530982e+01    8.681393e-01
  2.532570e+01    8.711634e-01
  2.534157e+01    8.805048e-01
  2.535745e+01    8.757210e-01
  2.537332e+01    8.762640e-01
  2.538920e+01    8.786498e-01
  2.540507e+01    8.929491e-01
  2.542095e+01    9.076455e-01
  2.543683e+01    9.188950e-01
  2.545270e+01    9.323023e-01
  2.546858e+01    9.374655e-01
  2.548445e+01    9.628075e-01
  2.550033e+01    9.787225e-01
  2.551620e+01    1.002117e+00
  2.553208e+01    1.004983e+00
  2.554795e+01    1.015904e+00
  2.556383e+01    1.022041e+00
  2.557971e+01    1.063534e+00
  2.559558e+01    1.080099e+00
  2.561146e+01    1.109663e+00
  2.562733e+01    1.159487e+00
  2.564321e+01    1.216144e+00
  2.565908e+01    1.299241e+00
  2.567496e+01    1.345617e+00
  2.569083e+01    1.394341e+00
  2.570671e+01    1.481518e+00
  2.572259e+01    1.576093e+00
  2.573846e+01    1.719141e+00
  2.575434e+01    1.877811e+00
  2.577021e+01    2.055981e+00
  2.578609e+01    2.289326e+00
  2.580196e+01    2.564216e+00
  2.581784e+01    2.905868e+00
  2.583371e+01    3.322177e+00
  2.584959e+01    3.789265e+00
  2.586547e+01    4.387263e+00
  2.588134e+01    4.971929e+00
  2.589722e+01    5.598253e+00
  2.591309e+01    6.222406e+00
  2.592897e+01    6.806999e+00
  2.594484e+01    7.271246e+00
  2.596072e+01    7.539764e+00
  2.597660e+01    7.576953e+00
  2.599247e+01    7.358378e+00
  2.600835e+01    6.759683e+00
  2.602422e+01    5.978376e+00
  2.604010e+01    5.206614e+00
  2.605597e+01    4.483265e+00
  2.607185e+01    3.856748e+00
  2.608772e+01    3.329729e+00
  2.610360e+01    2.855836e+00
  2.611948e+01    2.503133e+00
  2.613535e+01    2.230190e+00
  2.615123e+01    1.997902e+00
  2.616710e+01    1.844145e+00
  2.618298e+01    1.697123e+00
  2.619885e+01    1.582161e+00
  2.621473e+01    1.437994e+00
  2.623060e+01    1.354859e+00
  2.624648e+01    1.324089e+00
  2.626236e+01    1.267045e+00
  2.627823e+01    1.191824e+00
  2.629411e+01    1.158049e+00
  2.630998e+01    1.131217e+00
  2.632586e+01    1.080240e+00
  2.634173e+01    1.063766e+00
  2.635761e+01    1.048435e+00
  2.637348e+01    9.982408e-01
  2.638936e+01    9.910524e-01
  2.640524e+01    9.888076e-01
  2.642111e+01    9.688409e-01
  2.643699e+01    9.387757e-01
  2.645286e+01    9.290705e-01
  2.646874e+01    9.248502e-01
  2.648461e+01    9.347057e-01
  2.650049e+01    9.145681e-01
  2.651636e+01    9.140672e-01
  2.653224e+01    9.122244e-01
  2.654812e+01    9.131021e-01
  2.656399e+01    9.238256e-01
  2.657987e+01    9.023700e-01
  2.659574e+01    8.991690e-01
  2.661162e+01    8.945823e-01
  2.662749e+01    8.809109e-01
  2.664337e+01    8.865488e-01
  2.665924e+01    8.913931e-01
  2.667512e+01    8.658933e-01
  2.669100e+01    8.680639e-01
  2.670687e+01    8.784571e-01
  2.672275e+01    8.925731e-01
  2.673862e+01    8.995179e-01
  2.675450e+01    8.788142e-01
  2.677037e+01    8.726153e-01
  2.678625e+01    8.857750e-01
  2.680212e+01    8.958694e-01
  2.681800e+01    8.824475e-01
  2.683388e+01    9.053721e-01
  2.684975e+01    9.090736e-01
  2.686563e+01    9.082758e-01
  2.688150e+01    9.126574e-01
  2.689738e+01    9.097164e-01
  2.691325e+01    9.446195e-01
  2.692913e+01    9.514379e-01
  2.694501e+01    9.417145e-01
  2.696088e+01    9.429045e-01
  2.697676e+01    9.667544e-01
  2.699263e+01    1.002400e+00
  2.700851e+01    1.031368e+00
  2.702438e+01    1.045136e+00
  2.704026e+01    1.109873e+00
  2.705613e+01    1.162557e+00
  2.707201e+01    1.207349e+00
  2.708789e+01    1.271736e+00
  2.710376e+01    1.358786e+00
  2.711964e+01    1.478842e+00
  2.713551e+01    1.597420e+00
  2.715139e+01    1.749179e+00
  2.716726e+01    1.884318e+00
  2.718314e+01    2.039391e+00
  2.719901e+01    2.161392e+00
  2.721489e+01    2.236531e+00
  2.723077e+01    2.256602e+00
  2.724664e+01    2.193611e+00
  2.726252e+01    2.133709e+00
  2.727839e+01    1.946427e+00
  2.729427e+01    1.777340e+00
  2.731014e+01    1.645049e+00
  2.732602e+01    1.501800e+00
  2.734189e+01    1.368686e+00
  2.735777e+01    1.304778e+00
  2.737365e+01    1.196165e+00
  2.738952e+01    1.137840e+00
  2.740540e+01    1.085889e+00
  2.742127e+01    1.024762e+00
  2.743715e+01    1.014454e+00
  2.745302e+01    9.903317e-01
  2.746890e+01    9.685586e-01
  2.748477e+01    9.345715e-01
  2.750065e+01    9.066674e-01
  2.751653e+01    8.969066e-01
  2.753240e+01    9.065686e-01
  2.754828e+01    8.958756e-01
  2.756415e+01    8.678336e-01
  2.758003e+01    8.509598e-01
  2.759590e+01    8.623791e-01
  2.761178e+01    8.497477e-01
  2.762765e+01    8.379777e-01
  2.764353e+01    8.246853e-01
  2.765941e+01    8.205502e-01
  2.767528e+01    8.123348e-01
  2.769116e+01    8.051569e-01
  2.770703e+01    8.099207e-01
  2.772291e+01    8.158011e-01
  2.773878e+01    8.070133e-01
  2.775466e+01    7.871706e-01
  2.777054e+01    7.907866e-01
  2.778641e+01    7.874305e-01
  2.780229e+01    7.904441e-01
  2.781816e+01    7.910169e-01
  2.783404e+01    8.037017e-01
  2.784991e+01    7.896442e-01
  2.786579e+01    7.931307e-01
  2.788166e+01    7.729648e-01
  2.789754e+01    7.727479e-01
  2.791342e+01    7.770025e-01
  2.792929e+01    7.847614e-01
  2.794517e+01    7.758068e-01
  2.796104e+01    7.882798e-01
  2.797692e+01    7.899112e-01
  2.799279e+01    7.994134e-01
  2.800867e+01    7.625880e-01
  2.802454e+01    7.467124e-01
  2.804042e+01    7.842681e-01
  2.805630e+01    7.994404e-01
  2.807217e+01    7.880552e-01
  2.808805e+01    7.791064e-01
  2.810392e+01    7.498766e-01
  2.811980e+01    7.628590e-01
  2.813567e+01    7.544686e-01
  2.815155e+01    7.331359e-01
  2.816742e+01    7.705337e-01
  2.818330e+01    7.741325e-01
  2.819918e+01    7.633490e-01
  2.821505e+01    7.630439e-01
  2.823093e+01    7.587470e-01
  2.824680e+01    7.575557e-01
  2.826268e+01    7.374172e-01
  2.827855e+01    7.417518e-01
  2.829443e+01    7.477747e-01
  2.831030e+01    7.610884e-01
  2.832618e+01    7.473961e-01
  2.834206e+01    7.656602e-01
  2.835793e+01    7.650272e-01
  2.837381e+01    7.428100e-01
  2.838968e+01    7.574819e-01
  2.840556e+01    7.611218e-01
  2.842143e+01    7.479203e-01
  2.843731e+01    7.729059e-01
  2.845318e+01    7.592041e-01
  2.846906e+01    7.330686e-01
  2.848494e+01    7.581661e-01
  2.850081e+01    7.518672e-01
  2.851669e+01    7.463524e-01
  2.853256e+01    7.473380e-01
  2.854844e+01    7.575606e-01
  2.856431e+01    7.396930e-01
  2.858019e+01    7.413278e-01
  2.859606e+01    7.650244e-01
  2.861194e+01    7.695292e-01
  2.862782e+01    7.637342e-01
  2.864369e+01    7.520154e-01
  2.865957e+01    7.411415e-01
  2.867544e+01    7.412115e-01
  2.869132e+01    7.576975e-01
  2.870719e+01    7.342864e-01
  2.872307e+01    7.274634e-01
  2.873895e+01    7.225325e-01
  2.875482e+01    7.453000e-01
  2.877070e+01    7.403015e-01
  2.878657e+01    7.332692e-01
  2.880245e+01    7.406695e-01
  2.881832e+01    7.522983e-01
  2.883420e+01    7.353431e-01
  2.885007e+01    7.330140e-01
  2.886595e+01    7.152687e-01
  2.888183e+01    7.160457e-01
  2.889770e+01    7.406350e-01
  2.891358e+01    7.516254e-01
  2.892945e+01    7.310356e-01
  2.894533e+01    7.185899e-01
  2.896120e+01    7.318757e-01
  2.897708e+01    7.441173e-01
  2.899295e+01    7.329909e-01
  2.900883e+01    7.276951e-01
  2.902471e+01    7.430438e-01
  2.904058e+01    7.422678e-01
  2.905646e+01    7.221108e-01
  2.907233e+01    7.145689e-01
  2.908821e+01    7.213172e-01
  2.910408e+01    7.323513e-01
  2.911996e+01    7.231508e-01
  2.913583e+01    7.481837e-01
  2.915171e+01    7.295851e-01
  2.916759e+01    7.456858e-01
  2.918346e+01    7.111506e-01
  2.919934e+01    7.273871e-01
  2.921521e+01    7.089437e-01
  2.923109e+01    7.155864e-01
  2.924696e+01    7.291732e-01
  2.926284e+01    7.247288e-01
  2.927871e+01    7.201550e-01
  2.929459e+01    7.233070e-01
  2.931047e+01    7.105656e-01
  2.932634e+01    7.091367e-01
  2.934222e+01    7.196761e-01
  2.935809e+01    6.999176e-01
  2.937397e+01    6.981355e-01
  2.938984e+01    7.082989e-01
  2.940572e+01    7.228673e-01
  2.942159e+01    7.237195e-01
  2.943747e+01    7.263972e-01
  2.945335e+01    7.167978e-01
  2.946922e+01    7.156332e-01
  2.948510e+01    7.082012e-01
  2.950097e+01    7.094991e-01
  2.951685e+01    7.238371e-01
  2.953272e+01    7.313907e-01
  2.954860e+01    7.282844e-01
  2.956447e+01    7.203345e-01
  2.958035e+01    7.200819e-01
  2.959623e+01    7.174426e-01
  2.961210e+01    7.120326e-01
  2.962798e+01    7.126356e-01
  2.964385e+01    7.293505e-01
  2.965973e+01    7.183618e-01
  2.967560e+01    7.203599e-01
  2.969148e+01    7.208223e-01
  2.970736e+01    7.148852e-01
  2.972323e+01    7.171310e-01
  2.973911e+01    7.072149e-01
  2.975498e+01    7.319444e-01
  2.977086e+01    7.031156e-01
  2.978673e+01    7.204639e-01
  2.980261e+01    7.372336e-01
  2.981848e+01    7.336764e-01
  2.983436e+01    7.021677e-01
  2.985024e+01    6.989166e-01
  2.986611e+01    6.850716e-01
  2.988199e+01    7.128825e-01
  2.989786e+01    7.129995e-01
  2.991374e+01    7.074288e-01
  2.992961e+01    6.926740e-01
  2.994549e+01    7.071240e-01
  2.996136e+01    7.172943e-01
  2.997724e+01    7.468446e-01
  2.999312e+01    7.324658e-01
  3.000899e+01    7.308279e-01
  3.002487e+01    7.385567e-01
  3.004074e+01    7.299878e-01
  3.005662e+01    7.300364e-01
  3.007249e+01    7.264062e-01
  3.008837e+01    7.190676e-01
  3.010424e+01    7.493088e-01
  3.012012e+01    7.230705e-01
  3.013600e+01    7.266644e-01
  3.015187e+01    7.403359e-01
  3.016775e+01    7.215279e-01
  3.018362e+01    7.028409e-01
  3.019950e+01    6.993006e-01
  3.021537e+01    6.928014e-01
  3.023125e+01    7.026967e-01
  3.024712e+01    7.000267e-01
  3.026300e+01    6.993584e-01
  3.027888e+01    6.985250e-01
  3.029475e+01    6.973116e-01
  3.031063e+01    6.942445e-01
  3.032650e+01    7.048628e-01
  3.034238e+01    6.984641e-01
  3.035825e+01    6.880966e-01
  3.037413e+01    7.090921e-01
  3.039000e+01    7.036409e-01
  3.040588e+01    7.167248e-01
  3.042176e+01    7.073280e-01
  3.043763e+01    7.068813e-01
  3.045351e+01    6.938857e-01
  3.046938e+01    6.919580e-01
  3.048526e+01    6.880474e-01
  3.050113e+01    6.869783e-01
  3.051701e+01    7.192992e-01
  3.053288e+01    7.217556e-01
  3.054876e+01    7.064770e-01
  3.056464e+01    6.874453e-01
  3.058051e+01    7.049662e-01
  3.059639e+01    7.227128e-01
  3.061226e+01    7.156219e-01
  3.062814e+01    7.059877e-01
  3.064401e+01    7.141232e-01
  3.065989e+01    7.301422e-01
  3.067577e+01    7.386091e-01
  3.069164e+01    7.131267e-01
  3.070752e+01    7.107822e-01
  3.072339e+01    7.124892e-01
  3.073927e+01    7.022157e-01
  3.075514e+01    6.937563e-01
  3.077102e+01    7.077203e-01
  3.078689e+01    7.252860e-01
  3.080277e+01    7.329173e-01
  3.081865e+01    7.342269e-01
  3.083452e+01    7.121323e-01
  3.085040e+01    7.066240e-01
  3.086627e+01    7.157747e-01
  3.088215e+01    7.020789e-01
  3.089802e+01    7.045433e-01
  3.091390e+01    7.154630e-01
  3.092977e+01    7.068238e-01
  3.094565e+01    7.111354e-01
  3.096153e+01    7.028258e-01
  3.097740e+01    7.099396e-01
  3.099328e+01    6.967741e-01
  3.100915e+01    7.109430e-01
  3.102503e+01    7.166302e-01
  3.104090e+01    7.044228e-01
  3.105678e+01    7.026584e-01
  3.107265e+01    7.023781e-01
  3.108853e+01    6.911144e-01
  3.110441e+01    6.932275e-01
  3.112028e+01    7.219036e-01
  3.113616e+01    7.061280e-01
  3.115203e+01    7.071198e-01
  3.116791e+01    7.125130e-01
  3.118378e+01    6.886398e-01
  3.119966e+01    6.914103e-01
  3.121553e+01    7.277610e-01
  3.123141e+01    7.326489e-01
  3.124729e+01    7.269989e-01
  3.126316e+01    7.073381e-01
  3.127904e+01    7.129589e-01
  3.129491e+01    7.236099e-01
  3.131079e+01    7.198392e-01
  3.132666e+01    7.048967e-01
  3.134254e+01    7.336293e-01
  3.135841e+01    7.561588e-01
  3.137429e+01    7.362309e-01
  3.139017e+01    7.376848e-01
  3.140604e+01    7.451958e-01
  3.142192e+01    7.230297e-01
  3.143779e+01    7.435834e-01
  3.145367e+01    7.310773e-01
  3.146954e+01    7.654337e-01
  3.148542e+01    7.651141e-01
  3.150129e+01    7.791349e-01
  3.151717e+01    7.811329e-01
  3.153305e+01    7.776771e-01
  3.154892e+01    7.873650e-01
  3.156480e+01    7.864027e-01
  3.158067e+01    7.824112e-01
  3.159655e+01    8.039992e-01
  3.161242e+01    8.421499e-01
  3.162830e+01    8.334730e-01
  3.164418e+01    8.338684e-01
  3.166005e+01    8.494826e-01
  3.167593e+01    8.987929e-01
  3.169180e+01    9.294159e-01
  3.170768e+01    9.436738e-01
  3.172355e+01    9.782062e-01
  3.173943e+01    1.031798e+00
  3.175530e+01    1.108336e+00
  3.177118e+01    1.180813e+00
  3.178706e+01    1.259242e+00
  3.180293e+01    1.366802e+00
  3.181881e+01    1.478346e+00
  3.183468e+01    1.626473e+00
  3.185056e+01    1.805709e+00
  3.186643e+01    1.923757e+00
  3.188231e+01    2.076885e+00
  3.189818e+01    2.184548e+00
  3.191406e+01    2.243583e+00
  3.192994e+01    2.201764e+00
  3.194581e+01    2.117382e+00
  3.196169e+01    1.997667e+00
  3.197756e+01    1.850006e+00
  3.199344e+01    1.685694e+00
  3.200931e+01    1.533841e+00
  3.202519e+01    1.405497e+00
  3.204106e+01    1.253920e+00
  3.205694e+01    1.153119e+00
  3.207282e+01    1.070845e+00
  3.208869e+01    9.912997e-01
  3.210457e+01    9.654882e-01
  3.212044e+01    9.370838e-01
  3.213632e+01    9.084768e-01
  3.215219e+01    8.796718e-01
  3.216807e+01    8.671699e-01
  3.218394e+01    8.549194e-01
  3.219982e+01    8.228502e-01
  3.221570e+01    8.080189e-01
  3.223157e+01    8.097982e-01
  3.224745e+01    7.864016e-01
  3.226332e+01    7.795978e-01
  3.227920e+01    7.579040e-01
  3.229507e+01    7.583117e-01
  3.231095e+01    7.741565e-01
  3.232682e+01    7.609827e-01
  3.234270e+01    7.446478e-01
  3.235858e+01    7.106929e-01
  3.237445e+01    7.295591e-01
  3.239033e+01    7.191771e-01
  3.240620e+01    7.143943e-01
  3.242208e+01    7.170278e-01
  3.243795e+01    6.984012e-01
  3.245383e+01    7.242399e-01
  3.246970e+01    7.554981e-01
  3.248558e+01    7.539169e-01
  3.250146e+01    7.398005e-01
  3.251733e+01    7.180100e-01
  3.253321e+01    7.139677e-01
  3.254908e+01    7.160656e-01
