# == pyFAI calibration ==
# Distance Sample to Detector: 0.3999999939076516 m
# PONI: 9.750e-02, 1.135e-01 m
# Rotations: -0.000175 0.000000 -0.000000 rad
# 
# == Fit2d calibration ==
# Distance Sample-beamCenter: 400.000 mm
# Center: x=1514.000, y=1300.000 pix
# Tilt: 0.010 deg  TiltPlanRot: 0.010 deg
# 
# Detector Detector	 Spline= None	 PixelSize= 7.500e-05, 7.500e-05 m
#    Detector has a mask: False 
#    Detector has a dark current: False 
#    detector has a flat field: False 
# 
# Wavelength: 6.888e-11 m
# Mask applied: user provided
# Dark current applied: False
# Flat field applied: False
# Polarization factor: 0.99
# Normalization factor: 1.0
# --> /home/myspot/data/2024_07_Rosario/Ru-CGO-ex/2024-07-27_002_Ru-CGO-ex_Activtation_ramp_000002_data_000149.dat
#       q_nm^-1             I 
  2.003187e-02    2.226973e-02
  3.590745e-02    9.188047e-02
  5.178302e-02    6.692421e-02
  6.765859e-02    9.943525e-02
  8.353417e-02    1.160181e-01
  9.940974e-02    8.574022e-02
  1.152853e-01    1.797806e-02
  1.311609e-01    3.044090e-02
  1.470365e-01    3.046184e-02
  1.629120e-01    4.738621e-03
  1.787876e-01    3.988712e-02
  1.946632e-01    4.553457e-02
  2.105388e-01    2.530496e-02
  2.264143e-01    3.586527e-02
  2.422899e-01    6.200085e-02
  2.581655e-01    4.068061e-02
  2.740411e-01    3.723834e-02
  2.899166e-01    3.745568e-02
  3.057922e-01    2.317744e-02
  3.216678e-01    4.140837e-02
  3.375433e-01    3.445947e-02
  3.534189e-01    2.318631e-02
  3.692945e-01    3.849297e-02
  3.851701e-01    3.434912e-02
  4.010456e-01    1.460115e-02
  4.169212e-01    9.691734e-03
  4.327968e-01    4.568842e-02
  4.486724e-01    4.878543e-02
  4.645479e-01    4.131246e-02
  4.804235e-01    5.912074e-02
  4.962991e-01    7.060082e-02
  5.121747e-01    5.337114e-02
  5.280502e-01    4.675946e-02
  5.439258e-01    3.900709e-02
  5.598014e-01    3.814612e-02
  5.756770e-01    2.946278e-02
  5.915525e-01    3.972528e-02
  6.074281e-01    4.260597e-02
  6.233037e-01    2.586886e-02
  6.391793e-01    3.237503e-02
  6.550548e-01    2.063322e-02
  6.709304e-01    6.820376e-03
  6.868060e-01    2.858111e-02
  7.026815e-01    5.391450e-02
  7.185571e-01    3.824469e-02
  7.344327e-01    4.407358e-02
  7.503083e-01    6.791513e-02
  7.661838e-01    6.902006e-02
  7.820594e-01    9.432575e-02
  7.979350e-01    1.192554e-01
  8.138106e-01    1.519028e-01
  8.296861e-01    2.139300e-01
  8.455617e-01    2.766756e-01
  8.614373e-01    3.648328e-01
  8.773129e-01    4.851967e-01
  8.931884e-01    4.888308e-01
  9.090640e-01    5.721603e-01
  9.249396e-01    6.328862e-01
  9.408152e-01    7.756578e-01
  9.566907e-01    8.242701e-01
  9.725663e-01    9.140952e-01
  9.884419e-01    9.451677e-01
  1.004317e+00    9.660723e-01
  1.020193e+00    1.112193e+00
  1.036069e+00    1.204260e+00
  1.051944e+00    1.279586e+00
  1.067820e+00    1.367094e+00
  1.083695e+00    1.424758e+00
  1.099571e+00    1.407018e+00
  1.115446e+00    1.348712e+00
  1.131322e+00    1.447236e+00
  1.147198e+00    1.440320e+00
  1.163073e+00    1.462877e+00
  1.178949e+00    1.433610e+00
  1.194824e+00    1.564073e+00
  1.210700e+00    1.827857e+00
  1.226575e+00    2.073460e+00
  1.242451e+00    2.243389e+00
  1.258327e+00    2.329749e+00
  1.274202e+00    2.286384e+00
  1.290078e+00    2.352116e+00
  1.305953e+00    2.318754e+00
  1.321829e+00    2.418643e+00
  1.337705e+00    2.491572e+00
  1.353580e+00    2.440634e+00
  1.369456e+00    2.467105e+00
  1.385331e+00    2.495188e+00
  1.401207e+00    2.567337e+00
  1.417082e+00    2.669809e+00
  1.432958e+00    2.738666e+00
  1.448834e+00    2.847474e+00
  1.464709e+00    2.686995e+00
  1.480585e+00    2.740739e+00
  1.496460e+00    2.745763e+00
  1.512336e+00    2.875313e+00
  1.528211e+00    2.974864e+00
  1.544087e+00    2.956905e+00
  1.559963e+00    2.804683e+00
  1.575838e+00    2.867058e+00
  1.591714e+00    2.917364e+00
  1.607589e+00    3.085523e+00
  1.623465e+00    2.988009e+00
  1.639340e+00    2.930345e+00
  1.655216e+00    2.981453e+00
  1.671092e+00    2.804949e+00
  1.686967e+00    2.638241e+00
  1.702843e+00    2.786428e+00
  1.718718e+00    2.923192e+00
  1.734594e+00    2.743500e+00
  1.750469e+00    2.593045e+00
  1.766345e+00    2.654133e+00
  1.782221e+00    2.669461e+00
  1.798096e+00    2.786202e+00
  1.813972e+00    2.837178e+00
  1.829847e+00    2.745574e+00
  1.845723e+00    2.752984e+00
  1.861598e+00    2.793766e+00
  1.877474e+00    2.731704e+00
  1.893350e+00    2.700116e+00
  1.909225e+00    2.700892e+00
  1.925101e+00    2.830924e+00
  1.940976e+00    2.859710e+00
  1.956852e+00    2.824887e+00
  1.972727e+00    2.704943e+00
  1.988603e+00    2.691020e+00
  2.004479e+00    2.753002e+00
  2.020354e+00    2.747627e+00
  2.036230e+00    2.700332e+00
  2.052105e+00    2.567606e+00
  2.067981e+00    2.662161e+00
  2.083856e+00    2.760512e+00
  2.099732e+00    2.778026e+00
  2.115608e+00    2.733695e+00
  2.131483e+00    2.748659e+00
  2.147359e+00    2.638250e+00
  2.163234e+00    2.634911e+00
  2.179110e+00    2.627721e+00
  2.194985e+00    2.617488e+00
  2.210861e+00    2.677496e+00
  2.226737e+00    2.730447e+00
  2.242612e+00    2.815475e+00
  2.258488e+00    2.806433e+00
  2.274363e+00    2.689212e+00
  2.290239e+00    2.705178e+00
  2.306115e+00    2.723776e+00
  2.321990e+00    2.779875e+00
  2.337866e+00    2.716377e+00
  2.353741e+00    2.715597e+00
  2.369617e+00    2.771969e+00
  2.385492e+00    2.755981e+00
  2.401368e+00    2.678604e+00
  2.417244e+00    2.802001e+00
  2.433119e+00    2.754806e+00
  2.448995e+00    2.757270e+00
  2.464870e+00    2.726734e+00
  2.480746e+00    2.700013e+00
  2.496621e+00    2.743141e+00
  2.512497e+00    2.825771e+00
  2.528373e+00    2.816215e+00
  2.544248e+00    2.785201e+00
  2.560124e+00    2.812291e+00
  2.575999e+00    2.799705e+00
  2.591875e+00    2.898031e+00
  2.607750e+00    2.833829e+00
  2.623626e+00    2.862531e+00
  2.639502e+00    2.866392e+00
  2.655377e+00    2.798215e+00
  2.671253e+00    2.905127e+00
  2.687128e+00    2.788613e+00
  2.703004e+00    2.866625e+00
  2.718879e+00    2.923091e+00
  2.734755e+00    2.833781e+00
  2.750631e+00    2.811756e+00
  2.766506e+00    2.793497e+00
  2.782382e+00    2.822076e+00
  2.798257e+00    2.855653e+00
  2.814133e+00    2.779460e+00
  2.830008e+00    2.750664e+00
  2.845884e+00    2.903440e+00
  2.861760e+00    2.916577e+00
  2.877635e+00    2.895752e+00
  2.893511e+00    2.833220e+00
  2.909386e+00    2.823808e+00
  2.925262e+00    2.991125e+00
  2.941137e+00    2.847307e+00
  2.957013e+00    2.824687e+00
  2.972889e+00    2.873693e+00
  2.988764e+00    2.812473e+00
  3.004640e+00    2.834686e+00
  3.020515e+00    2.814688e+00
  3.036391e+00    2.932315e+00
  3.052266e+00    2.957114e+00
  3.068142e+00    2.884099e+00
  3.084018e+00    2.899991e+00
  3.099893e+00    2.859216e+00
  3.115769e+00    2.907348e+00
  3.131644e+00    2.851337e+00
  3.147520e+00    2.857187e+00
  3.163395e+00    2.866969e+00
  3.179271e+00    2.913481e+00
  3.195147e+00    2.950080e+00
  3.211022e+00    2.997938e+00
  3.226898e+00    2.948776e+00
  3.242773e+00    2.973589e+00
  3.258649e+00    3.000283e+00
  3.274525e+00    2.954156e+00
  3.290400e+00    2.873186e+00
  3.306276e+00    2.862672e+00
  3.322151e+00    2.903896e+00
  3.338027e+00    2.940605e+00
  3.353902e+00    2.918290e+00
  3.369778e+00    2.914308e+00
  3.385654e+00    2.966418e+00
  3.401529e+00    3.001768e+00
  3.417405e+00    2.911496e+00
  3.433280e+00    2.943974e+00
  3.449156e+00    3.018707e+00
  3.465031e+00    3.026474e+00
  3.480907e+00    3.016847e+00
  3.496783e+00    3.040163e+00
  3.512658e+00    2.888687e+00
  3.528534e+00    2.923526e+00
  3.544409e+00    2.936112e+00
  3.560285e+00    2.952773e+00
  3.576160e+00    3.006251e+00
  3.592036e+00    2.971642e+00
  3.607912e+00    2.877799e+00
  3.623787e+00    2.866421e+00
  3.639663e+00    2.914214e+00
  3.655538e+00    2.997665e+00
  3.671414e+00    3.023548e+00
  3.687289e+00    3.054430e+00
  3.703165e+00    2.983259e+00
  3.719041e+00    2.940799e+00
  3.734916e+00    2.989269e+00
  3.750792e+00    2.996528e+00
  3.766667e+00    3.048211e+00
  3.782543e+00    2.982550e+00
  3.798418e+00    3.012263e+00
  3.814294e+00    3.057398e+00
  3.830170e+00    3.065992e+00
  3.846045e+00    3.006912e+00
  3.861921e+00    2.996435e+00
  3.877796e+00    2.964109e+00
  3.893672e+00    3.061784e+00
  3.909547e+00    2.929639e+00
  3.925423e+00    2.939946e+00
  3.941299e+00    2.912699e+00
  3.957174e+00    2.935114e+00
  3.973050e+00    3.018103e+00
  3.988925e+00    3.076449e+00
  4.004801e+00    3.135436e+00
  4.020676e+00    3.021152e+00
  4.036552e+00    2.982705e+00
  4.052428e+00    2.946275e+00
  4.068303e+00    3.027780e+00
  4.084179e+00    3.141155e+00
  4.100054e+00    3.136086e+00
  4.115930e+00    3.015767e+00
  4.131806e+00    2.926643e+00
  4.147681e+00    3.006901e+00
  4.163557e+00    3.126604e+00
  4.179432e+00    2.956744e+00
  4.195308e+00    2.993720e+00
  4.211183e+00    3.049493e+00
  4.227059e+00    2.978158e+00
  4.242935e+00    2.998194e+00
  4.258810e+00    3.007435e+00
  4.274686e+00    2.996644e+00
  4.290561e+00    3.047302e+00
  4.306437e+00    3.088795e+00
  4.322312e+00    3.053976e+00
  4.338188e+00    2.967196e+00
  4.354064e+00    3.040509e+00
  4.369939e+00    3.134679e+00
  4.385815e+00    3.092605e+00
  4.401690e+00    3.040894e+00
  4.417566e+00    3.126488e+00
  4.433441e+00    3.125391e+00
  4.449317e+00    3.053385e+00
  4.465193e+00    3.079489e+00
  4.481068e+00    3.063875e+00
  4.496944e+00    3.046943e+00
  4.512819e+00    3.076046e+00
  4.528695e+00    3.050810e+00
  4.544570e+00    3.071266e+00
  4.560446e+00    3.100281e+00
  4.576322e+00    3.075046e+00
  4.592197e+00    3.078994e+00
  4.608073e+00    3.096262e+00
  4.623948e+00    3.134681e+00
  4.639824e+00    3.093222e+00
  4.655699e+00    3.160183e+00
  4.671575e+00    3.148523e+00
  4.687451e+00    3.138379e+00
  4.703326e+00    3.146016e+00
  4.719202e+00    3.097360e+00
  4.735077e+00    3.311808e+00
  4.750953e+00    3.306085e+00
  4.766828e+00    3.101093e+00
  4.782704e+00    3.099102e+00
  4.798580e+00    3.115313e+00
  4.814455e+00    3.098456e+00
  4.830331e+00    3.047551e+00
  4.846206e+00    3.050401e+00
  4.862082e+00    3.129640e+00
  4.877957e+00    3.111749e+00
  4.893833e+00    3.081818e+00
  4.909709e+00    3.132570e+00
  4.925584e+00    3.120151e+00
  4.941460e+00    3.132102e+00
  4.957335e+00    3.131500e+00
  4.973211e+00    3.055632e+00
  4.989086e+00    3.115416e+00
  5.004962e+00    3.124146e+00
  5.020838e+00    3.213196e+00
  5.036713e+00    3.095241e+00
  5.052589e+00    3.136731e+00
  5.068464e+00    3.159297e+00
  5.084340e+00    3.191455e+00
  5.100216e+00    3.182920e+00
  5.116091e+00    3.106803e+00
  5.131967e+00    3.099557e+00
  5.147842e+00    3.112057e+00
  5.163718e+00    3.034211e+00
  5.179593e+00    3.061809e+00
  5.195469e+00    3.167811e+00
  5.211345e+00    3.162395e+00
  5.227220e+00    3.122058e+00
  5.243096e+00    3.156282e+00
  5.258971e+00    3.175228e+00
  5.274847e+00    3.099684e+00
  5.290722e+00    3.045845e+00
  5.306598e+00    3.096910e+00
  5.322474e+00    3.126683e+00
  5.338349e+00    3.190835e+00
  5.354225e+00    3.052385e+00
  5.370100e+00    3.019562e+00
  5.385976e+00    3.031435e+00
  5.401851e+00    3.074341e+00
  5.417727e+00    3.127450e+00
  5.433603e+00    3.127253e+00
  5.449478e+00    3.069422e+00
  5.465354e+00    3.070796e+00
  5.481229e+00    3.031190e+00
  5.497105e+00    3.011037e+00
  5.512980e+00    3.037019e+00
  5.528856e+00    3.055599e+00
  5.544732e+00    3.160145e+00
  5.560607e+00    3.094492e+00
  5.576483e+00    3.052789e+00
  5.592358e+00    3.079870e+00
  5.608234e+00    3.093655e+00
  5.624109e+00    3.081775e+00
  5.639985e+00    3.098910e+00
  5.655861e+00    3.119493e+00
  5.671736e+00    3.089179e+00
  5.687612e+00    3.034925e+00
  5.703487e+00    3.074793e+00
  5.719363e+00    3.139061e+00
  5.735238e+00    3.103953e+00
  5.751114e+00    3.048155e+00
  5.766990e+00    3.082968e+00
  5.782865e+00    3.023655e+00
  5.798741e+00    3.120147e+00
  5.814616e+00    3.124582e+00
  5.830492e+00    2.942697e+00
  5.846367e+00    2.967366e+00
  5.862243e+00    3.071412e+00
  5.878119e+00    3.131341e+00
  5.893994e+00    3.122389e+00
  5.909870e+00    3.028742e+00
  5.925745e+00    3.035686e+00
  5.941621e+00    3.012640e+00
  5.957497e+00    2.977882e+00
  5.973372e+00    3.002830e+00
  5.989248e+00    3.016297e+00
  6.005123e+00    3.063274e+00
  6.020999e+00    3.049649e+00
  6.036874e+00    3.073031e+00
  6.052750e+00    3.092293e+00
  6.068626e+00    3.148206e+00
  6.084501e+00    3.040226e+00
  6.100377e+00    3.059872e+00
  6.116252e+00    3.169573e+00
  6.132128e+00    3.104762e+00
  6.148003e+00    3.108658e+00
  6.163879e+00    3.042339e+00
  6.179755e+00    3.024082e+00
  6.195630e+00    3.018053e+00
  6.211506e+00    3.075712e+00
  6.227381e+00    3.134739e+00
  6.243257e+00    3.080782e+00
  6.259132e+00    3.020339e+00
  6.275008e+00    3.056346e+00
  6.290884e+00    2.985316e+00
  6.306759e+00    2.990698e+00
  6.322635e+00    3.008431e+00
  6.338510e+00    3.066673e+00
  6.354386e+00    3.159312e+00
  6.370261e+00    3.089275e+00
  6.386137e+00    2.998866e+00
  6.402013e+00    3.053555e+00
  6.417888e+00    3.054186e+00
  6.433764e+00    3.095687e+00
  6.449639e+00    3.099905e+00
  6.465515e+00    3.126871e+00
  6.481390e+00    3.141054e+00
  6.497266e+00    3.131576e+00
  6.513142e+00    3.135213e+00
  6.529017e+00    3.063046e+00
  6.544893e+00    3.077578e+00
  6.560768e+00    3.022542e+00
  6.576644e+00    3.010892e+00
  6.592519e+00    3.003483e+00
  6.608395e+00    3.012203e+00
  6.624271e+00    3.021653e+00
  6.640146e+00    3.026776e+00
  6.656022e+00    3.020525e+00
  6.671897e+00    3.093895e+00
  6.687773e+00    3.040794e+00
  6.703648e+00    3.040240e+00
  6.719524e+00    3.006445e+00
  6.735400e+00    3.053731e+00
  6.751275e+00    3.032998e+00
  6.767151e+00    3.018006e+00
  6.783026e+00    3.052869e+00
  6.798902e+00    3.046936e+00
  6.814777e+00    3.042363e+00
  6.830653e+00    3.061270e+00
  6.846529e+00    2.980682e+00
  6.862404e+00    2.991773e+00
  6.878280e+00    3.100191e+00
  6.894155e+00    3.112518e+00
  6.910031e+00    3.110282e+00
  6.925907e+00    3.095576e+00
  6.941782e+00    3.108602e+00
  6.957658e+00    3.108088e+00
  6.973533e+00    3.029516e+00
  6.989409e+00    3.031938e+00
  7.005284e+00    3.008789e+00
  7.021160e+00    3.029358e+00
  7.037036e+00    3.002508e+00
  7.052911e+00    2.936524e+00
  7.068787e+00    3.015443e+00
  7.084662e+00    3.014419e+00
  7.100538e+00    3.035161e+00
  7.116413e+00    3.064681e+00
  7.132289e+00    3.039181e+00
  7.148165e+00    2.946665e+00
  7.164040e+00    2.948366e+00
  7.179916e+00    3.018447e+00
  7.195791e+00    3.034475e+00
  7.211667e+00    3.000726e+00
  7.227542e+00    3.031890e+00
  7.243418e+00    3.031527e+00
  7.259294e+00    3.091536e+00
  7.275169e+00    2.955131e+00
  7.291045e+00    2.914968e+00
  7.306920e+00    2.936059e+00
  7.322796e+00    2.955683e+00
  7.338671e+00    3.010320e+00
  7.354547e+00    2.943755e+00
  7.370423e+00    2.939108e+00
  7.386298e+00    2.984093e+00
  7.402174e+00    3.055265e+00
  7.418049e+00    2.994899e+00
  7.433925e+00    2.966353e+00
  7.449800e+00    3.004872e+00
  7.465676e+00    3.005259e+00
  7.481552e+00    2.972614e+00
  7.497427e+00    2.968825e+00
  7.513303e+00    2.980307e+00
  7.529178e+00    2.981533e+00
  7.545054e+00    3.037903e+00
  7.560929e+00    3.051879e+00
  7.576805e+00    3.027273e+00
  7.592681e+00    3.038264e+00
  7.608556e+00    2.932073e+00
  7.624432e+00    2.962566e+00
  7.640307e+00    2.964916e+00
  7.656183e+00    2.952611e+00
  7.672058e+00    2.927692e+00
  7.687934e+00    2.933089e+00
  7.703810e+00    2.962328e+00
  7.719685e+00    2.979384e+00
  7.735561e+00    2.935734e+00
  7.751436e+00    2.928668e+00
  7.767312e+00    2.951169e+00
  7.783187e+00    2.976274e+00
  7.799063e+00    2.987205e+00
  7.814939e+00    2.990759e+00
  7.830814e+00    2.965549e+00
  7.846690e+00    2.899688e+00
  7.862565e+00    2.962132e+00
  7.878441e+00    2.989264e+00
  7.894317e+00    2.995960e+00
  7.910192e+00    2.994942e+00
  7.926068e+00    3.007283e+00
  7.941943e+00    2.957660e+00
  7.957819e+00    2.899203e+00
  7.973694e+00    2.910298e+00
  7.989570e+00    2.939564e+00
  8.005446e+00    2.935784e+00
  8.021321e+00    2.958292e+00
  8.037197e+00    2.991474e+00
  8.053072e+00    2.946136e+00
  8.068948e+00    2.985116e+00
  8.084823e+00    3.066408e+00
  8.100699e+00    3.004450e+00
  8.116575e+00    2.910900e+00
  8.132450e+00    2.967974e+00
  8.148326e+00    2.968000e+00
  8.164201e+00    2.956003e+00
  8.180077e+00    2.983312e+00
  8.195952e+00    3.046152e+00
  8.211828e+00    3.032237e+00
  8.227704e+00    2.996485e+00
  8.243579e+00    2.994765e+00
  8.259455e+00    2.903713e+00
  8.275330e+00    2.874136e+00
  8.291206e+00    2.962444e+00
  8.307081e+00    2.957705e+00
  8.322957e+00    2.914503e+00
  8.338833e+00    2.946256e+00
  8.354708e+00    2.879591e+00
  8.370584e+00    2.887166e+00
  8.386459e+00    2.889146e+00
  8.402335e+00    2.941857e+00
  8.418210e+00    2.850217e+00
  8.434086e+00    2.875983e+00
  8.449962e+00    2.945871e+00
  8.465837e+00    2.885162e+00
  8.481713e+00    2.873949e+00
  8.497588e+00    2.865458e+00
  8.513464e+00    2.905269e+00
  8.529339e+00    2.887969e+00
  8.545215e+00    2.857063e+00
  8.561091e+00    2.916337e+00
  8.576966e+00    2.937256e+00
  8.592842e+00    2.869491e+00
  8.608717e+00    2.840592e+00
  8.624593e+00    2.888039e+00
  8.640468e+00    2.900000e+00
  8.656344e+00    2.915132e+00
  8.672220e+00    2.885714e+00
  8.688095e+00    2.858545e+00
  8.703971e+00    2.890962e+00
  8.719846e+00    2.875929e+00
  8.735722e+00    2.850523e+00
  8.751598e+00    2.861837e+00
  8.767473e+00    2.822950e+00
  8.783349e+00    2.838266e+00
  8.799224e+00    2.878771e+00
  8.815100e+00    2.840310e+00
  8.830975e+00    2.912016e+00
  8.846851e+00    2.855126e+00
  8.862727e+00    2.852391e+00
  8.878602e+00    2.868942e+00
  8.894478e+00    2.873055e+00
  8.910353e+00    2.825248e+00
  8.926229e+00    2.797893e+00
  8.942104e+00    2.857244e+00
  8.957980e+00    2.819873e+00
  8.973856e+00    2.773602e+00
  8.989731e+00    2.897162e+00
  9.005607e+00    2.845144e+00
  9.021482e+00    2.794185e+00
  9.037358e+00    2.850104e+00
  9.053233e+00    2.906312e+00
  9.069109e+00    2.878776e+00
  9.084985e+00    2.834170e+00
  9.100860e+00    2.879869e+00
  9.116736e+00    2.809004e+00
  9.132611e+00    2.775972e+00
  9.148487e+00    2.806162e+00
  9.164362e+00    2.775972e+00
  9.180238e+00    2.766166e+00
  9.196114e+00    2.802073e+00
  9.211989e+00    2.806417e+00
  9.227865e+00    2.769405e+00
  9.243740e+00    2.783612e+00
  9.259616e+00    2.803126e+00
  9.275491e+00    2.773120e+00
  9.291367e+00    2.758397e+00
  9.307243e+00    2.726909e+00
  9.323118e+00    2.797217e+00
  9.338994e+00    2.801144e+00
  9.354869e+00    2.838819e+00
  9.370745e+00    2.786789e+00
  9.386620e+00    2.738885e+00
  9.402496e+00    2.760398e+00
  9.418372e+00    2.775107e+00
  9.434247e+00    2.784050e+00
  9.450123e+00    2.731194e+00
  9.465998e+00    2.680241e+00
  9.481874e+00    2.701219e+00
  9.497749e+00    2.761089e+00
  9.513625e+00    2.742768e+00
  9.529501e+00    2.765364e+00
  9.545376e+00    2.815495e+00
  9.561252e+00    2.788989e+00
  9.577127e+00    2.786766e+00
  9.593003e+00    2.778492e+00
  9.608878e+00    2.777605e+00
  9.624754e+00    2.731559e+00
  9.640630e+00    2.774226e+00
  9.656505e+00    2.751430e+00
  9.672381e+00    2.740220e+00
  9.688256e+00    2.779324e+00
  9.704132e+00    2.804832e+00
  9.720008e+00    2.751540e+00
  9.735883e+00    2.709033e+00
  9.751759e+00    2.722406e+00
  9.767634e+00    2.738885e+00
  9.783510e+00    2.729098e+00
  9.799385e+00    2.727388e+00
  9.815261e+00    2.664024e+00
  9.831137e+00    2.695847e+00
  9.847012e+00    2.706361e+00
  9.862888e+00    2.678056e+00
  9.878763e+00    2.663225e+00
  9.894639e+00    2.672174e+00
  9.910514e+00    2.763374e+00
  9.926390e+00    2.705751e+00
  9.942266e+00    2.659596e+00
  9.958141e+00    2.642027e+00
  9.974017e+00    2.638535e+00
  9.989892e+00    2.673219e+00
  1.000577e+01    2.701973e+00
  1.002164e+01    2.708732e+00
  1.003752e+01    2.689089e+00
  1.005339e+01    2.671238e+00
  1.006927e+01    2.629854e+00
  1.008515e+01    2.648044e+00
  1.010102e+01    2.664684e+00
  1.011690e+01    2.716016e+00
  1.013277e+01    2.656639e+00
  1.014865e+01    2.640681e+00
  1.016452e+01    2.630591e+00
  1.018040e+01    2.657586e+00
  1.019627e+01    2.639825e+00
  1.021215e+01    2.627875e+00
  1.022803e+01    2.600026e+00
  1.024390e+01    2.612678e+00
  1.025978e+01    2.659673e+00
  1.027565e+01    2.686980e+00
  1.029153e+01    2.655167e+00
  1.030740e+01    2.628389e+00
  1.032328e+01    2.643228e+00
  1.033915e+01    2.588110e+00
  1.035503e+01    2.631190e+00
  1.037091e+01    2.604480e+00
  1.038678e+01    2.611130e+00
  1.040266e+01    2.598489e+00
  1.041853e+01    2.565646e+00
  1.043441e+01    2.615218e+00
  1.045028e+01    2.596959e+00
  1.046616e+01    2.583759e+00
  1.048204e+01    2.573938e+00
  1.049791e+01    2.574340e+00
  1.051379e+01    2.609126e+00
  1.052966e+01    2.561716e+00
  1.054554e+01    2.545389e+00
  1.056141e+01    2.571781e+00
  1.057729e+01    2.565933e+00
  1.059316e+01    2.605249e+00
  1.060904e+01    2.619791e+00
  1.062492e+01    2.610573e+00
  1.064079e+01    2.594944e+00
  1.065667e+01    2.631309e+00
  1.067254e+01    2.603435e+00
  1.068842e+01    2.600332e+00
  1.070429e+01    2.548313e+00
  1.072017e+01    2.567161e+00
  1.073604e+01    2.534203e+00
  1.075192e+01    2.448673e+00
  1.076780e+01    2.549735e+00
  1.078367e+01    2.610160e+00
  1.079955e+01    2.557414e+00
  1.081542e+01    2.491924e+00
  1.083130e+01    2.523091e+00
  1.084717e+01    2.534452e+00
  1.086305e+01    2.520464e+00
  1.087892e+01    2.535473e+00
  1.089480e+01    2.508473e+00
  1.091068e+01    2.499390e+00
  1.092655e+01    2.502104e+00
  1.094243e+01    2.511675e+00
  1.095830e+01    2.510402e+00
  1.097418e+01    2.548560e+00
  1.099005e+01    2.545552e+00
  1.100593e+01    2.472261e+00
  1.102180e+01    2.450354e+00
  1.103768e+01    2.511719e+00
  1.105356e+01    2.521222e+00
  1.106943e+01    2.529949e+00
  1.108531e+01    2.525020e+00
  1.110118e+01    2.468196e+00
  1.111706e+01    2.482710e+00
  1.113293e+01    2.498305e+00
  1.114881e+01    2.441316e+00
  1.116468e+01    2.475756e+00
  1.118056e+01    2.516999e+00
  1.119644e+01    2.469015e+00
  1.121231e+01    2.478524e+00
  1.122819e+01    2.454944e+00
  1.124406e+01    2.475083e+00
  1.125994e+01    2.467340e+00
  1.127581e+01    2.459383e+00
  1.129169e+01    2.498890e+00
  1.130756e+01    2.486357e+00
  1.132344e+01    2.444777e+00
  1.133932e+01    2.386522e+00
  1.135519e+01    2.381109e+00
  1.137107e+01    2.386719e+00
  1.138694e+01    2.456184e+00
  1.140282e+01    2.452956e+00
  1.141869e+01    2.415186e+00
  1.143457e+01    2.414568e+00
  1.145045e+01    2.453300e+00
  1.146632e+01    2.464283e+00
  1.148220e+01    2.486377e+00
  1.149807e+01    2.459716e+00
  1.151395e+01    2.407796e+00
  1.152982e+01    2.402343e+00
  1.154570e+01    2.418328e+00
  1.156157e+01    2.416146e+00
  1.157745e+01    2.385454e+00
  1.159333e+01    2.361616e+00
  1.160920e+01    2.399349e+00
  1.162508e+01    2.434208e+00
  1.164095e+01    2.429508e+00
  1.165683e+01    2.386347e+00
  1.167270e+01    2.373402e+00
  1.168858e+01    2.337883e+00
  1.170445e+01    2.347074e+00
  1.172033e+01    2.338391e+00
  1.173621e+01    2.335505e+00
  1.175208e+01    2.341599e+00
  1.176796e+01    2.353282e+00
  1.178383e+01    2.340556e+00
  1.179971e+01    2.387569e+00
  1.181558e+01    2.366040e+00
  1.183146e+01    2.350211e+00
  1.184733e+01    2.356650e+00
  1.186321e+01    2.374481e+00
  1.187909e+01    2.355458e+00
  1.189496e+01    2.381584e+00
  1.191084e+01    2.350261e+00
  1.192671e+01    2.401485e+00
  1.194259e+01    2.419242e+00
  1.195846e+01    2.378468e+00
  1.197434e+01    2.361777e+00
  1.199021e+01    2.331698e+00
  1.200609e+01    2.355987e+00
  1.202197e+01    2.346012e+00
  1.203784e+01    2.315322e+00
  1.205372e+01    2.304915e+00
  1.206959e+01    2.360405e+00
  1.208547e+01    2.327972e+00
  1.210134e+01    2.347068e+00
  1.211722e+01    2.366918e+00
  1.213309e+01    2.298372e+00
  1.214897e+01    2.300867e+00
  1.216485e+01    2.337575e+00
  1.218072e+01    2.313686e+00
  1.219660e+01    2.307853e+00
  1.221247e+01    2.293533e+00
  1.222835e+01    2.276478e+00
  1.224422e+01    2.324540e+00
  1.226010e+01    2.356081e+00
  1.227597e+01    2.329105e+00
  1.229185e+01    2.333261e+00
  1.230773e+01    2.338934e+00
  1.232360e+01    2.318582e+00
  1.233948e+01    2.368068e+00
  1.235535e+01    2.349253e+00
  1.237123e+01    2.356241e+00
  1.238710e+01    2.353488e+00
  1.240298e+01    2.296720e+00
  1.241886e+01    2.295210e+00
  1.243473e+01    2.366919e+00
  1.245061e+01    2.387994e+00
  1.246648e+01    2.334804e+00
  1.248236e+01    2.361073e+00
  1.249823e+01    2.373849e+00
  1.251411e+01    2.392880e+00
  1.252998e+01    2.430429e+00
  1.254586e+01    2.421741e+00
  1.256174e+01    2.380198e+00
  1.257761e+01    2.367419e+00
  1.259349e+01    2.383055e+00
  1.260936e+01    2.380988e+00
  1.262524e+01    2.399363e+00
  1.264111e+01    2.454605e+00
  1.265699e+01    2.441914e+00
  1.267286e+01    2.384410e+00
  1.268874e+01    2.421300e+00
  1.270462e+01    2.457803e+00
  1.272049e+01    2.463108e+00
  1.273637e+01    2.500574e+00
  1.275224e+01    2.546699e+00
  1.276812e+01    2.604101e+00
  1.278399e+01    2.630400e+00
  1.279987e+01    2.653149e+00
  1.281574e+01    2.685533e+00
  1.283162e+01    2.741301e+00
  1.284750e+01    2.832800e+00
  1.286337e+01    2.911879e+00
  1.287925e+01    3.051125e+00
  1.289512e+01    3.178374e+00
  1.291100e+01    3.337461e+00
  1.292687e+01    3.579008e+00
  1.294275e+01    3.723284e+00
  1.295862e+01    4.083596e+00
  1.297450e+01    4.451021e+00
  1.299038e+01    4.932783e+00
  1.300625e+01    5.502416e+00
  1.302213e+01    6.270198e+00
  1.303800e+01    7.272912e+00
  1.305388e+01    8.399946e+00
  1.306975e+01    9.685781e+00
  1.308563e+01    1.104604e+01
  1.310150e+01    1.230510e+01
  1.311738e+01    1.349995e+01
  1.313326e+01    1.464158e+01
  1.314913e+01    1.569963e+01
  1.316501e+01    1.650544e+01
  1.318088e+01    1.673396e+01
  1.319676e+01    1.620798e+01
  1.321263e+01    1.489478e+01
  1.322851e+01    1.313104e+01
  1.324438e+01    1.113958e+01
  1.326026e+01    9.398653e+00
  1.327614e+01    7.832961e+00
  1.329201e+01    6.688079e+00
  1.330789e+01    5.857282e+00
  1.332376e+01    5.169818e+00
  1.333964e+01    4.661957e+00
  1.335551e+01    4.209318e+00
  1.337139e+01    3.874569e+00
  1.338727e+01    3.646001e+00
  1.340314e+01    3.403645e+00
  1.341902e+01    3.168571e+00
  1.343489e+01    3.055534e+00
  1.345077e+01    2.930116e+00
  1.346664e+01    2.860903e+00
  1.348252e+01    2.763175e+00
  1.349839e+01    2.672685e+00
  1.351427e+01    2.576202e+00
  1.353015e+01    2.551894e+00
  1.354602e+01    2.559131e+00
  1.356190e+01    2.521091e+00
  1.357777e+01    2.420513e+00
  1.359365e+01    2.410260e+00
  1.360952e+01    2.386941e+00
  1.362540e+01    2.368317e+00
  1.364127e+01    2.326467e+00
  1.365715e+01    2.302903e+00
  1.367303e+01    2.294730e+00
  1.368890e+01    2.291265e+00
  1.370478e+01    2.242378e+00
  1.372065e+01    2.218017e+00
  1.373653e+01    2.238071e+00
  1.375240e+01    2.193409e+00
  1.376828e+01    2.170621e+00
  1.378415e+01    2.168497e+00
  1.380003e+01    2.136118e+00
  1.381591e+01    2.122161e+00
  1.383178e+01    2.135998e+00
  1.384766e+01    2.139509e+00
  1.386353e+01    2.146360e+00
  1.387941e+01    2.143283e+00
  1.389528e+01    2.089464e+00
  1.391116e+01    2.064178e+00
  1.392703e+01    2.076605e+00
  1.394291e+01    2.083061e+00
  1.395879e+01    2.080378e+00
  1.397466e+01    2.046664e+00
  1.399054e+01    2.058821e+00
  1.400641e+01    2.082740e+00
  1.402229e+01    2.055102e+00
  1.403816e+01    2.043136e+00
  1.405404e+01    2.062492e+00
  1.406991e+01    2.053679e+00
  1.408579e+01    2.061875e+00
  1.410167e+01    2.069870e+00
  1.411754e+01    2.031161e+00
  1.413342e+01    2.048695e+00
  1.414929e+01    2.006082e+00
  1.416517e+01    2.021440e+00
  1.418104e+01    2.009980e+00
  1.419692e+01    2.002733e+00
  1.421279e+01    1.973756e+00
  1.422867e+01    1.970420e+00
  1.424455e+01    1.950857e+00
  1.426042e+01    1.968765e+00
  1.427630e+01    1.986602e+00
  1.429217e+01    1.985840e+00
  1.430805e+01    1.937757e+00
  1.432392e+01    1.930051e+00
  1.433980e+01    1.956340e+00
  1.435568e+01    1.975678e+00
  1.437155e+01    1.941977e+00
  1.438743e+01    1.966569e+00
  1.440330e+01    1.953043e+00
  1.441918e+01    1.929073e+00
  1.443505e+01    1.950537e+00
  1.445093e+01    1.945055e+00
  1.446680e+01    1.958167e+00
  1.448268e+01    1.928654e+00
  1.449856e+01    1.914360e+00
  1.451443e+01    1.930964e+00
  1.453031e+01    1.926993e+00
  1.454618e+01    1.899806e+00
  1.456206e+01    1.938068e+00
  1.457793e+01    1.939131e+00
  1.459381e+01    1.915968e+00
  1.460968e+01    1.920457e+00
  1.462556e+01    1.919934e+00
  1.464144e+01    1.970173e+00
  1.465731e+01    1.950159e+00
  1.467319e+01    1.889906e+00
  1.468906e+01    1.934393e+00
  1.470494e+01    1.899554e+00
  1.472081e+01    1.900915e+00
  1.473669e+01    1.899985e+00
  1.475256e+01    1.914564e+00
  1.476844e+01    1.912147e+00
  1.478432e+01    1.869160e+00
  1.480019e+01    1.903127e+00
  1.481607e+01    1.888270e+00
  1.483194e+01    1.926939e+00
  1.484782e+01    1.941982e+00
  1.486369e+01    1.942315e+00
  1.487957e+01    1.947313e+00
  1.489544e+01    1.949643e+00
  1.491132e+01    1.993536e+00
  1.492720e+01    1.960776e+00
  1.494307e+01    2.004316e+00
  1.495895e+01    2.034772e+00
  1.497482e+01    2.076174e+00
  1.499070e+01    2.123745e+00
  1.500657e+01    2.209119e+00
  1.502245e+01    2.282141e+00
  1.503832e+01    2.329475e+00
  1.505420e+01    2.421162e+00
  1.507008e+01    2.558865e+00
  1.508595e+01    2.640363e+00
  1.510183e+01    2.902236e+00
  1.511770e+01    3.209523e+00
  1.513358e+01    3.512086e+00
  1.514945e+01    3.829757e+00
  1.516533e+01    4.214666e+00
  1.518120e+01    4.658769e+00
  1.519708e+01    4.932815e+00
  1.521296e+01    5.181110e+00
  1.522883e+01    5.387389e+00
  1.524471e+01    5.641016e+00
  1.526058e+01    5.776983e+00
  1.527646e+01    5.796257e+00
  1.529233e+01    5.458200e+00
  1.530821e+01    5.118365e+00
  1.532409e+01    4.660565e+00
  1.533996e+01    4.193744e+00
  1.535584e+01    3.685824e+00
  1.537171e+01    3.299030e+00
  1.538759e+01    2.944550e+00
  1.540346e+01    2.727810e+00
  1.541934e+01    2.601449e+00
  1.543521e+01    2.398897e+00
  1.545109e+01    2.299770e+00
  1.546697e+01    2.204261e+00
  1.548284e+01    2.101112e+00
  1.549872e+01    2.033823e+00
  1.551459e+01    2.032222e+00
  1.553047e+01    1.997460e+00
  1.554634e+01    1.904878e+00
  1.556222e+01    1.873927e+00
  1.557809e+01    1.867237e+00
  1.559397e+01    1.822427e+00
  1.560985e+01    1.797913e+00
  1.562572e+01    1.825680e+00
  1.564160e+01    1.801264e+00
  1.565747e+01    1.772645e+00
  1.567335e+01    1.791832e+00
  1.568922e+01    1.773118e+00
  1.570510e+01    1.719598e+00
  1.572097e+01    1.717128e+00
  1.573685e+01    1.723362e+00
  1.575273e+01    1.724198e+00
  1.576860e+01    1.714764e+00
  1.578448e+01    1.676384e+00
  1.580035e+01    1.677043e+00
  1.581623e+01    1.691117e+00
  1.583210e+01    1.686712e+00
  1.584798e+01    1.654504e+00
  1.586385e+01    1.649287e+00
  1.587973e+01    1.663637e+00
  1.589561e+01    1.642547e+00
  1.591148e+01    1.624167e+00
  1.592736e+01    1.624689e+00
  1.594323e+01    1.653348e+00
  1.595911e+01    1.612146e+00
  1.597498e+01    1.664618e+00
  1.599086e+01    1.661440e+00
  1.600673e+01    1.632816e+00
  1.602261e+01    1.597555e+00
  1.603849e+01    1.608070e+00
  1.605436e+01    1.594521e+00
  1.607024e+01    1.594710e+00
  1.608611e+01    1.600377e+00
  1.610199e+01    1.588007e+00
  1.611786e+01    1.593682e+00
  1.613374e+01    1.600667e+00
  1.614961e+01    1.557158e+00
  1.616549e+01    1.531742e+00
  1.618137e+01    1.583369e+00
  1.619724e+01    1.634653e+00
  1.621312e+01    1.612713e+00
  1.622899e+01    1.601616e+00
  1.624487e+01    1.604506e+00
  1.626074e+01    1.587507e+00
  1.627662e+01    1.585751e+00
  1.629250e+01    1.538064e+00
  1.630837e+01    1.564932e+00
  1.632425e+01    1.556475e+00
  1.634012e+01    1.550578e+00
  1.635600e+01    1.534799e+00
  1.637187e+01    1.530003e+00
  1.638775e+01    1.534203e+00
  1.640362e+01    1.543362e+00
  1.641950e+01    1.522660e+00
  1.643538e+01    1.524556e+00
  1.645125e+01    1.568249e+00
  1.646713e+01    1.534563e+00
  1.648300e+01    1.513554e+00
  1.649888e+01    1.542761e+00
  1.651475e+01    1.525424e+00
  1.653063e+01    1.504797e+00
  1.654650e+01    1.496716e+00
  1.656238e+01    1.520044e+00
  1.657826e+01    1.528763e+00
  1.659413e+01    1.494988e+00
  1.661001e+01    1.512211e+00
  1.662588e+01    1.505455e+00
  1.664176e+01    1.476349e+00
  1.665763e+01    1.491770e+00
  1.667351e+01    1.510188e+00
  1.668938e+01    1.483182e+00
  1.670526e+01    1.479462e+00
  1.672114e+01    1.456993e+00
  1.673701e+01    1.465936e+00
  1.675289e+01    1.478333e+00
  1.676876e+01    1.491090e+00
  1.678464e+01    1.496160e+00
  1.680051e+01    1.490061e+00
  1.681639e+01    1.476916e+00
  1.683226e+01    1.462832e+00
  1.684814e+01    1.476625e+00
  1.686402e+01    1.470045e+00
  1.687989e+01    1.457413e+00
  1.689577e+01    1.466583e+00
  1.691164e+01    1.447734e+00
  1.692752e+01    1.440895e+00
  1.694339e+01    1.458810e+00
  1.695927e+01    1.430409e+00
  1.697514e+01    1.437061e+00
  1.699102e+01    1.438679e+00
  1.700690e+01    1.441303e+00
  1.702277e+01    1.446932e+00
  1.703865e+01    1.436779e+00
  1.705452e+01    1.424532e+00
  1.707040e+01    1.436467e+00
  1.708627e+01    1.420010e+00
  1.710215e+01    1.426064e+00
  1.711802e+01    1.441029e+00
  1.713390e+01    1.431172e+00
  1.714978e+01    1.415672e+00
  1.716565e+01    1.416490e+00
  1.718153e+01    1.397010e+00
  1.719740e+01    1.418104e+00
  1.721328e+01    1.408442e+00
  1.722915e+01    1.415781e+00
  1.724503e+01    1.406478e+00
  1.726091e+01    1.371658e+00
  1.727678e+01    1.386913e+00
  1.729266e+01    1.416246e+00
  1.730853e+01    1.410411e+00
  1.732441e+01    1.392460e+00
  1.734028e+01    1.398604e+00
  1.735616e+01    1.390998e+00
  1.737203e+01    1.383036e+00
  1.738791e+01    1.357213e+00
  1.740379e+01    1.387640e+00
  1.741966e+01    1.348485e+00
  1.743554e+01    1.375719e+00
  1.745141e+01    1.381899e+00
  1.746729e+01    1.361502e+00
  1.748316e+01    1.368918e+00
  1.749904e+01    1.385243e+00
  1.751491e+01    1.357102e+00
  1.753079e+01    1.339695e+00
  1.754667e+01    1.360187e+00
  1.756254e+01    1.364085e+00
  1.757842e+01    1.374250e+00
  1.759429e+01    1.395671e+00
  1.761017e+01    1.367016e+00
  1.762604e+01    1.356487e+00
  1.764192e+01    1.359056e+00
  1.765779e+01    1.373968e+00
  1.767367e+01    1.371763e+00
  1.768955e+01    1.329276e+00
  1.770542e+01    1.335559e+00
  1.772130e+01    1.361051e+00
  1.773717e+01    1.369601e+00
  1.775305e+01    1.337425e+00
  1.776892e+01    1.307570e+00
  1.778480e+01    1.311364e+00
  1.780067e+01    1.328348e+00
  1.781655e+01    1.316990e+00
  1.783243e+01    1.302896e+00
  1.784830e+01    1.330933e+00
  1.786418e+01    1.335278e+00
  1.788005e+01    1.318545e+00
  1.789593e+01    1.312989e+00
  1.791180e+01    1.289063e+00
  1.792768e+01    1.318249e+00
  1.794355e+01    1.287913e+00
  1.795943e+01    1.299962e+00
  1.797531e+01    1.324763e+00
  1.799118e+01    1.301976e+00
  1.800706e+01    1.303559e+00
  1.802293e+01    1.291876e+00
  1.803881e+01    1.280881e+00
  1.805468e+01    1.341932e+00
  1.807056e+01    1.300639e+00
  1.808643e+01    1.294285e+00
  1.810231e+01    1.313979e+00
  1.811819e+01    1.333830e+00
  1.813406e+01    1.316421e+00
  1.814994e+01    1.303471e+00
  1.816581e+01    1.288047e+00
  1.818169e+01    1.312274e+00
  1.819756e+01    1.304301e+00
  1.821344e+01    1.295831e+00
  1.822932e+01    1.259201e+00
  1.824519e+01    1.280854e+00
  1.826107e+01    1.299819e+00
  1.827694e+01    1.265154e+00
  1.829282e+01    1.258731e+00
  1.830869e+01    1.248667e+00
  1.832457e+01    1.298256e+00
  1.834044e+01    1.310840e+00
  1.835632e+01    1.302534e+00
  1.837220e+01    1.302133e+00
  1.838807e+01    1.254069e+00
  1.840395e+01    1.263971e+00
  1.841982e+01    1.284676e+00
  1.843570e+01    1.274144e+00
  1.845157e+01    1.245157e+00
  1.846745e+01    1.253526e+00
  1.848332e+01    1.233581e+00
  1.849920e+01    1.227378e+00
  1.851508e+01    1.239981e+00
  1.853095e+01    1.222271e+00
  1.854683e+01    1.216755e+00
  1.856270e+01    1.246754e+00
  1.857858e+01    1.236275e+00
  1.859445e+01    1.237723e+00
  1.861033e+01    1.247127e+00
  1.862620e+01    1.222333e+00
  1.864208e+01    1.251015e+00
  1.865796e+01    1.241254e+00
  1.867383e+01    1.221385e+00
  1.868971e+01    1.233483e+00
  1.870558e+01    1.240643e+00
  1.872146e+01    1.235507e+00
  1.873733e+01    1.224858e+00
  1.875321e+01    1.231536e+00
  1.876908e+01    1.234306e+00
  1.878496e+01    1.233574e+00
  1.880084e+01    1.213026e+00
  1.881671e+01    1.220752e+00
  1.883259e+01    1.208475e+00
  1.884846e+01    1.213701e+00
  1.886434e+01    1.208493e+00
  1.888021e+01    1.200257e+00
  1.889609e+01    1.211541e+00
  1.891196e+01    1.223845e+00
  1.892784e+01    1.206348e+00
  1.894372e+01    1.213048e+00
  1.895959e+01    1.226329e+00
  1.897547e+01    1.201438e+00
  1.899134e+01    1.191783e+00
  1.900722e+01    1.161555e+00
  1.902309e+01    1.189853e+00
  1.903897e+01    1.235358e+00
  1.905484e+01    1.175358e+00
  1.907072e+01    1.187404e+00
  1.908660e+01    1.197075e+00
  1.910247e+01    1.203923e+00
  1.911835e+01    1.193086e+00
  1.913422e+01    1.198565e+00
  1.915010e+01    1.195568e+00
  1.916597e+01    1.190260e+00
  1.918185e+01    1.197842e+00
  1.919773e+01    1.224995e+00
  1.921360e+01    1.210386e+00
  1.922948e+01    1.191889e+00
  1.924535e+01    1.195463e+00
  1.926123e+01    1.188460e+00
  1.927710e+01    1.184822e+00
  1.929298e+01    1.190401e+00
  1.930885e+01    1.168829e+00
  1.932473e+01    1.174475e+00
  1.934061e+01    1.173345e+00
  1.935648e+01    1.182859e+00
  1.937236e+01    1.178045e+00
  1.938823e+01    1.162086e+00
  1.940411e+01    1.141850e+00
  1.941998e+01    1.170255e+00
  1.943586e+01    1.189654e+00
  1.945173e+01    1.169798e+00
  1.946761e+01    1.166626e+00
  1.948349e+01    1.162965e+00
  1.949936e+01    1.170714e+00
  1.951524e+01    1.159671e+00
  1.953111e+01    1.185835e+00
  1.954699e+01    1.181948e+00
  1.956286e+01    1.152208e+00
  1.957874e+01    1.146872e+00
  1.959461e+01    1.149786e+00
  1.961049e+01    1.151268e+00
  1.962637e+01    1.161878e+00
  1.964224e+01    1.159936e+00
  1.965812e+01    1.166896e+00
  1.967399e+01    1.173994e+00
  1.968987e+01    1.159821e+00
  1.970574e+01    1.183462e+00
  1.972162e+01    1.154222e+00
  1.973749e+01    1.136299e+00
  1.975337e+01    1.141627e+00
  1.976925e+01    1.134103e+00
  1.978512e+01    1.136974e+00
  1.980100e+01    1.131981e+00
  1.981687e+01    1.140067e+00
  1.983275e+01    1.134741e+00
  1.984862e+01    1.120247e+00
  1.986450e+01    1.132773e+00
  1.988037e+01    1.092332e+00
  1.989625e+01    1.111722e+00
  1.991213e+01    1.115650e+00
  1.992800e+01    1.107274e+00
  1.994388e+01    1.112092e+00
  1.995975e+01    1.129765e+00
  1.997563e+01    1.121930e+00
  1.999150e+01    1.134415e+00
  2.000738e+01    1.137206e+00
  2.002325e+01    1.125585e+00
  2.003913e+01    1.122577e+00
  2.005501e+01    1.117932e+00
  2.007088e+01    1.110901e+00
  2.008676e+01    1.108974e+00
  2.010263e+01    1.111476e+00
  2.011851e+01    1.117790e+00
  2.013438e+01    1.109591e+00
  2.015026e+01    1.126848e+00
  2.016614e+01    1.125705e+00
  2.018201e+01    1.116768e+00
  2.019789e+01    1.119840e+00
  2.021376e+01    1.122415e+00
  2.022964e+01    1.114866e+00
  2.024551e+01    1.117921e+00
  2.026139e+01    1.098305e+00
  2.027726e+01    1.079241e+00
  2.029314e+01    1.112002e+00
  2.030902e+01    1.128247e+00
  2.032489e+01    1.085190e+00
  2.034077e+01    1.077934e+00
  2.035664e+01    1.102407e+00
  2.037252e+01    1.101167e+00
  2.038839e+01    1.105916e+00
  2.040427e+01    1.105065e+00
  2.042014e+01    1.092387e+00
  2.043602e+01    1.081133e+00
  2.045190e+01    1.084109e+00
  2.046777e+01    1.085311e+00
  2.048365e+01    1.082904e+00
  2.049952e+01    1.106950e+00
  2.051540e+01    1.091018e+00
  2.053127e+01    1.070442e+00
  2.054715e+01    1.098201e+00
  2.056302e+01    1.079022e+00
  2.057890e+01    1.073835e+00
  2.059478e+01    1.087342e+00
  2.061065e+01    1.093749e+00
  2.062653e+01    1.088410e+00
  2.064240e+01    1.068678e+00
  2.065828e+01    1.064343e+00
  2.067415e+01    1.089136e+00
  2.069003e+01    1.092215e+00
  2.070590e+01    1.085246e+00
  2.072178e+01    1.081797e+00
  2.073766e+01    1.082199e+00
  2.075353e+01    1.079492e+00
  2.076941e+01    1.087606e+00
  2.078528e+01    1.092289e+00
  2.080116e+01    1.101593e+00
  2.081703e+01    1.113113e+00
  2.083291e+01    1.081336e+00
  2.084878e+01    1.061127e+00
  2.086466e+01    1.086743e+00
  2.088054e+01    1.095158e+00
  2.089641e+01    1.089920e+00
  2.091229e+01    1.087440e+00
  2.092816e+01    1.097110e+00
  2.094404e+01    1.106471e+00
  2.095991e+01    1.095109e+00
  2.097579e+01    1.074023e+00
  2.099166e+01    1.075390e+00
  2.100754e+01    1.078089e+00
  2.102342e+01    1.092996e+00
  2.103929e+01    1.067331e+00
  2.105517e+01    1.066926e+00
  2.107104e+01    1.099090e+00
  2.108692e+01    1.097118e+00
  2.110279e+01    1.088946e+00
  2.111867e+01    1.068839e+00
  2.113455e+01    1.096782e+00
  2.115042e+01    1.103797e+00
  2.116630e+01    1.112546e+00
  2.118217e+01    1.112234e+00
  2.119805e+01    1.099844e+00
  2.121392e+01    1.091835e+00
  2.122980e+01    1.121313e+00
  2.124567e+01    1.113910e+00
  2.126155e+01    1.117792e+00
  2.127743e+01    1.116470e+00
  2.129330e+01    1.126383e+00
  2.130918e+01    1.124974e+00
  2.132505e+01    1.119644e+00
  2.134093e+01    1.115144e+00
  2.135680e+01    1.139342e+00
  2.137268e+01    1.162790e+00
  2.138855e+01    1.191043e+00
  2.140443e+01    1.162566e+00
  2.142031e+01    1.170514e+00
  2.143618e+01    1.222642e+00
  2.145206e+01    1.222247e+00
  2.146793e+01    1.229441e+00
  2.148381e+01    1.248810e+00
  2.149968e+01    1.287183e+00
  2.151556e+01    1.334815e+00
  2.153143e+01    1.379267e+00
  2.154731e+01    1.399592e+00
  2.156319e+01    1.435179e+00
  2.157906e+01    1.474983e+00
  2.159494e+01    1.543725e+00
  2.161081e+01    1.618237e+00
  2.162669e+01    1.743135e+00
  2.164256e+01    1.853019e+00
  2.165844e+01    2.009279e+00
  2.167431e+01    2.160134e+00
  2.169019e+01    2.413129e+00
  2.170607e+01    2.675097e+00
  2.172194e+01    3.007464e+00
  2.173782e+01    3.418149e+00
  2.175369e+01    3.859188e+00
  2.176957e+01    4.408810e+00
  2.178544e+01    5.078075e+00
  2.180132e+01    5.700659e+00
  2.181719e+01    6.386004e+00
  2.183307e+01    7.093815e+00
  2.184895e+01    7.774092e+00
  2.186482e+01    8.466360e+00
  2.188070e+01    8.945039e+00
  2.189657e+01    9.166319e+00
  2.191245e+01    9.158909e+00
  2.192832e+01    8.637601e+00
  2.194420e+01    7.876913e+00
  2.196007e+01    6.892890e+00
  2.197595e+01    5.823694e+00
  2.199183e+01    4.994997e+00
  2.200770e+01    4.208082e+00
  2.202358e+01    3.613442e+00
  2.203945e+01    3.175533e+00
  2.205533e+01    2.765103e+00
  2.207120e+01    2.486695e+00
  2.208708e+01    2.258993e+00
  2.210296e+01    2.033918e+00
  2.211883e+01    1.870645e+00
  2.213471e+01    1.765290e+00
  2.215058e+01    1.658044e+00
  2.216646e+01    1.556786e+00
  2.218233e+01    1.464072e+00
  2.219821e+01    1.424073e+00
  2.221408e+01    1.384291e+00
  2.222996e+01    1.322826e+00
  2.224584e+01    1.272953e+00
  2.226171e+01    1.267822e+00
  2.227759e+01    1.232803e+00
  2.229346e+01    1.202919e+00
  2.230934e+01    1.166641e+00
  2.232521e+01    1.174556e+00
  2.234109e+01    1.156505e+00
  2.235696e+01    1.112577e+00
  2.237284e+01    1.113852e+00
  2.238872e+01    1.112782e+00
  2.240459e+01    1.094352e+00
  2.242047e+01    1.067939e+00
  2.243634e+01    1.061262e+00
  2.245222e+01    1.039906e+00
  2.246809e+01    1.033621e+00
  2.248397e+01    1.045020e+00
  2.249984e+01    1.026669e+00
  2.251572e+01    1.026080e+00
  2.253160e+01    9.960271e-01
  2.254747e+01    9.972230e-01
  2.256335e+01    1.000685e+00
  2.257922e+01    9.872188e-01
  2.259510e+01    9.786831e-01
  2.261097e+01    9.788632e-01
  2.262685e+01    9.791445e-01
  2.264272e+01    9.778736e-01
  2.265860e+01    9.817175e-01
  2.267448e+01    9.678034e-01
  2.269035e+01    9.594534e-01
  2.270623e+01    9.466910e-01
  2.272210e+01    9.515055e-01
  2.273798e+01    9.538185e-01
  2.275385e+01    9.563258e-01
  2.276973e+01    9.404044e-01
  2.278560e+01    9.394917e-01
  2.280148e+01    9.455223e-01
  2.281736e+01    9.292847e-01
  2.283323e+01    9.344663e-01
  2.284911e+01    9.395707e-01
  2.286498e+01    9.119632e-01
  2.288086e+01    9.077804e-01
  2.289673e+01    9.176882e-01
  2.291261e+01    9.291182e-01
  2.292848e+01    9.127979e-01
  2.294436e+01    9.055005e-01
  2.296024e+01    9.183159e-01
  2.297611e+01    9.089854e-01
  2.299199e+01    9.263869e-01
  2.300786e+01    9.422024e-01
  2.302374e+01    9.008375e-01
  2.303961e+01    8.901628e-01
  2.305549e+01    9.060218e-01
  2.307137e+01    9.123912e-01
  2.308724e+01    8.983916e-01
  2.310312e+01    8.959839e-01
  2.311899e+01    9.110293e-01
  2.313487e+01    9.029583e-01
  2.315074e+01    8.962995e-01
  2.316662e+01    8.602736e-01
  2.318249e+01    8.700481e-01
  2.319837e+01    8.930952e-01
  2.321425e+01    8.949949e-01
  2.323012e+01    8.803370e-01
  2.324600e+01    8.908213e-01
  2.326187e+01    8.546413e-01
  2.327775e+01    8.724965e-01
  2.329362e+01    8.794274e-01
  2.330950e+01    8.642781e-01
  2.332537e+01    8.703800e-01
  2.334125e+01    8.712845e-01
  2.335713e+01    8.809977e-01
  2.337300e+01    8.751924e-01
  2.338888e+01    8.666915e-01
  2.340475e+01    8.576323e-01
  2.342063e+01    8.580368e-01
  2.343650e+01    8.687224e-01
  2.345238e+01    8.656474e-01
  2.346825e+01    8.509511e-01
  2.348413e+01    8.617635e-01
  2.350001e+01    8.642298e-01
  2.351588e+01    8.369175e-01
  2.353176e+01    8.501936e-01
  2.354763e+01    8.371624e-01
  2.356351e+01    8.379123e-01
  2.357938e+01    8.448103e-01
  2.359526e+01    8.245395e-01
  2.361113e+01    8.516046e-01
  2.362701e+01    8.530021e-01
  2.364289e+01    8.507723e-01
  2.365876e+01    8.345310e-01
  2.367464e+01    8.294194e-01
  2.369051e+01    8.354625e-01
  2.370639e+01    8.300842e-01
  2.372226e+01    8.312023e-01
  2.373814e+01    8.186225e-01
  2.375401e+01    8.341328e-01
  2.376989e+01    8.315552e-01
  2.378577e+01    8.070147e-01
  2.380164e+01    7.973381e-01
  2.381752e+01    7.931764e-01
  2.383339e+01    7.975228e-01
  2.384927e+01    7.933606e-01
  2.386514e+01    8.080325e-01
  2.388102e+01    8.138879e-01
  2.389689e+01    7.995000e-01
  2.391277e+01    7.845763e-01
  2.392865e+01    7.720262e-01
  2.394452e+01    7.873434e-01
  2.396040e+01    7.965502e-01
  2.397627e+01    7.920994e-01
  2.399215e+01    7.675878e-01
  2.400802e+01    7.802905e-01
  2.402390e+01    8.020384e-01
  2.403978e+01    8.011766e-01
  2.405565e+01    8.043329e-01
  2.407153e+01    7.947984e-01
  2.408740e+01    7.807779e-01
  2.410328e+01    7.829199e-01
  2.411915e+01    7.842036e-01
  2.413503e+01    7.956004e-01
  2.415090e+01    7.975554e-01
  2.416678e+01    7.939714e-01
  2.418266e+01    7.857503e-01
  2.419853e+01    7.802361e-01
  2.421441e+01    7.876994e-01
  2.423028e+01    7.666166e-01
  2.424616e+01    7.747599e-01
  2.426203e+01    7.814701e-01
  2.427791e+01    8.001422e-01
  2.429378e+01    7.878934e-01
  2.430966e+01    7.766725e-01
  2.432554e+01    7.985479e-01
  2.434141e+01    7.965554e-01
  2.435729e+01    8.097021e-01
  2.437316e+01    7.929227e-01
  2.438904e+01    8.053570e-01
  2.440491e+01    8.054468e-01
  2.442079e+01    8.067514e-01
  2.443666e+01    7.849000e-01
  2.445254e+01    7.816509e-01
  2.446842e+01    7.855251e-01
  2.448429e+01    7.996577e-01
  2.450017e+01    7.961531e-01
  2.451604e+01    7.996558e-01
  2.453192e+01    7.931994e-01
  2.454779e+01    7.855144e-01
  2.456367e+01    7.790994e-01
  2.457954e+01    7.798049e-01
  2.459542e+01    7.915654e-01
  2.461130e+01    8.096387e-01
  2.462717e+01    7.820879e-01
  2.464305e+01    7.814719e-01
  2.465892e+01    7.990701e-01
  2.467480e+01    8.033983e-01
  2.469067e+01    8.135357e-01
  2.470655e+01    8.063055e-01
  2.472242e+01    7.915893e-01
  2.473830e+01    8.027421e-01
  2.475418e+01    7.954451e-01
  2.477005e+01    7.761324e-01
  2.478593e+01    7.871810e-01
  2.480180e+01    7.980841e-01
  2.481768e+01    7.881488e-01
  2.483355e+01    7.864854e-01
  2.484943e+01    7.992302e-01
  2.486530e+01    7.948083e-01
  2.488118e+01    7.928535e-01
  2.489706e+01    7.897694e-01
  2.491293e+01    7.965264e-01
  2.492881e+01    7.932477e-01
  2.494468e+01    7.971203e-01
  2.496056e+01    7.968317e-01
  2.497643e+01    8.065604e-01
  2.499231e+01    8.099519e-01
  2.500819e+01    8.046416e-01
  2.502406e+01    7.885193e-01
  2.503994e+01    7.937213e-01
  2.505581e+01    8.043721e-01
  2.507169e+01    7.910697e-01
  2.508756e+01    8.101273e-01
  2.510344e+01    8.028731e-01
  2.511931e+01    7.931423e-01
  2.513519e+01    8.225399e-01
  2.515107e+01    8.172035e-01
  2.516694e+01    8.197006e-01
  2.518282e+01    8.401909e-01
  2.519869e+01    8.327088e-01
  2.521457e+01    8.421221e-01
  2.523044e+01    8.443651e-01
  2.524632e+01    8.471049e-01
  2.526219e+01    8.596842e-01
  2.527807e+01    8.580670e-01
  2.529395e+01    8.779267e-01
  2.530982e+01    8.528033e-01
  2.532570e+01    8.635872e-01
  2.534157e+01    8.902604e-01
  2.535745e+01    8.739441e-01
  2.537332e+01    9.035456e-01
  2.538920e+01    9.040259e-01
  2.540507e+01    9.003403e-01
  2.542095e+01    9.058240e-01
  2.543683e+01    9.414319e-01
  2.545270e+01    9.267108e-01
  2.546858e+01    9.728860e-01
  2.548445e+01    9.679612e-01
  2.550033e+01    9.479315e-01
  2.551620e+01    9.971060e-01
  2.553208e+01    1.014415e+00
  2.554795e+01    1.044500e+00
  2.556383e+01    1.056154e+00
  2.557971e+01    1.086177e+00
  2.559558e+01    1.116277e+00
  2.561146e+01    1.123459e+00
  2.562733e+01    1.186449e+00
  2.564321e+01    1.235506e+00
  2.565908e+01    1.293745e+00
  2.567496e+01    1.350594e+00
  2.569083e+01    1.439496e+00
  2.570671e+01    1.539463e+00
  2.572259e+01    1.657813e+00
  2.573846e+01    1.796898e+00
  2.575434e+01    1.947587e+00
  2.577021e+01    2.163400e+00
  2.578609e+01    2.401048e+00
  2.580196e+01    2.718174e+00
  2.581784e+01    3.094776e+00
  2.583371e+01    3.554214e+00
  2.584959e+01    4.037512e+00
  2.586547e+01    4.619589e+00
  2.588134e+01    5.276616e+00
  2.589722e+01    5.856075e+00
  2.591309e+01    6.441464e+00
  2.592897e+01    6.934867e+00
  2.594484e+01    7.285080e+00
  2.596072e+01    7.474543e+00
  2.597660e+01    7.446212e+00
  2.599247e+01    7.042581e+00
  2.600835e+01    6.413821e+00
  2.602422e+01    5.656530e+00
  2.604010e+01    4.859950e+00
  2.605597e+01    4.192481e+00
  2.607185e+01    3.572529e+00
  2.608772e+01    3.082728e+00
  2.610360e+01    2.681173e+00
  2.611948e+01    2.391097e+00
  2.613535e+01    2.143549e+00
  2.615123e+01    1.966167e+00
  2.616710e+01    1.768885e+00
  2.618298e+01    1.598700e+00
  2.619885e+01    1.525736e+00
  2.621473e+01    1.450631e+00
  2.623060e+01    1.358743e+00
  2.624648e+01    1.285506e+00
  2.626236e+01    1.226552e+00
  2.627823e+01    1.141205e+00
  2.629411e+01    1.110821e+00
  2.630998e+01    1.087172e+00
  2.632586e+01    1.060241e+00
  2.634173e+01    1.040178e+00
  2.635761e+01    1.035118e+00
  2.637348e+01    1.021594e+00
  2.638936e+01    9.849513e-01
  2.640524e+01    9.663281e-01
  2.642111e+01    9.646165e-01
  2.643699e+01    9.522324e-01
  2.645286e+01    9.521140e-01
  2.646874e+01    9.226629e-01
  2.648461e+01    9.373744e-01
  2.650049e+01    9.339327e-01
  2.651636e+01    9.334566e-01
  2.653224e+01    9.387885e-01
  2.654812e+01    9.426435e-01
  2.656399e+01    9.248308e-01
  2.657987e+01    9.103357e-01
  2.659574e+01    9.008080e-01
  2.661162e+01    9.036006e-01
  2.662749e+01    8.756191e-01
  2.664337e+01    8.858048e-01
  2.665924e+01    8.970414e-01
  2.667512e+01    9.067079e-01
  2.669100e+01    8.961746e-01
  2.670687e+01    9.064500e-01
  2.672275e+01    8.819152e-01
  2.673862e+01    8.887817e-01
  2.675450e+01    8.864402e-01
  2.677037e+01    8.772992e-01
  2.678625e+01    8.926589e-01
  2.680212e+01    9.067092e-01
  2.681800e+01    9.128425e-01
  2.683388e+01    8.974034e-01
  2.684975e+01    8.856121e-01
  2.686563e+01    8.916948e-01
  2.688150e+01    9.060885e-01
  2.689738e+01    9.068968e-01
  2.691325e+01    9.313267e-01
  2.692913e+01    9.354134e-01
  2.694501e+01    9.266192e-01
  2.696088e+01    9.729957e-01
  2.697676e+01    9.807860e-01
  2.699263e+01    1.029780e+00
  2.700851e+01    1.029091e+00
  2.702438e+01    1.065499e+00
  2.704026e+01    1.106637e+00
  2.705613e+01    1.167512e+00
  2.707201e+01    1.215693e+00
  2.708789e+01    1.329949e+00
  2.710376e+01    1.424202e+00
  2.711964e+01    1.521668e+00
  2.713551e+01    1.669866e+00
  2.715139e+01    1.813648e+00
  2.716726e+01    1.964571e+00
  2.718314e+01    2.107288e+00
  2.719901e+01    2.188145e+00
  2.721489e+01    2.238703e+00
  2.723077e+01    2.212766e+00
  2.724664e+01    2.138216e+00
  2.726252e+01    2.041873e+00
  2.727839e+01    1.902081e+00
  2.729427e+01    1.719034e+00
  2.731014e+01    1.576185e+00
  2.732602e+01    1.445173e+00
  2.734189e+01    1.345322e+00
  2.735777e+01    1.246373e+00
  2.737365e+01    1.181976e+00
  2.738952e+01    1.124801e+00
  2.740540e+01    1.073374e+00
  2.742127e+01    1.039915e+00
  2.743715e+01    9.984292e-01
  2.745302e+01    9.579450e-01
  2.746890e+01    9.448288e-01
  2.748477e+01    9.382409e-01
  2.750065e+01    9.372864e-01
  2.751653e+01    8.940840e-01
  2.753240e+01    8.785402e-01
  2.754828e+01    8.690152e-01
  2.756415e+01    8.461846e-01
  2.758003e+01    8.503516e-01
  2.759590e+01    8.518416e-01
  2.761178e+01    8.437147e-01
  2.762765e+01    8.297123e-01
  2.764353e+01    8.279944e-01
  2.765941e+01    8.376995e-01
  2.767528e+01    8.294128e-01
  2.769116e+01    8.153479e-01
  2.770703e+01    8.450691e-01
  2.772291e+01    8.404298e-01
  2.773878e+01    7.993527e-01
  2.775466e+01    8.112230e-01
  2.777054e+01    8.163638e-01
  2.778641e+01    8.251203e-01
  2.780229e+01    7.981066e-01
  2.781816e+01    7.986888e-01
  2.783404e+01    8.136818e-01
  2.784991e+01    8.095533e-01
  2.786579e+01    8.149287e-01
  2.788166e+01    7.981535e-01
  2.789754e+01    7.862539e-01
  2.791342e+01    8.030279e-01
  2.792929e+01    8.119964e-01
  2.794517e+01    8.006659e-01
  2.796104e+01    7.890381e-01
  2.797692e+01    7.789263e-01
  2.799279e+01    7.751510e-01
  2.800867e+01    7.772846e-01
  2.802454e+01    7.754921e-01
  2.804042e+01    7.745929e-01
  2.805630e+01    8.083140e-01
  2.807217e+01    8.140550e-01
  2.808805e+01    7.924718e-01
  2.810392e+01    7.829986e-01
  2.811980e+01    7.749088e-01
  2.813567e+01    7.709151e-01
  2.815155e+01    7.907646e-01
  2.816742e+01    7.998227e-01
  2.818330e+01    7.863165e-01
  2.819918e+01    7.585179e-01
  2.821505e+01    7.739555e-01
  2.823093e+01    7.893021e-01
  2.824680e+01    7.625147e-01
  2.826268e+01    7.616927e-01
  2.827855e+01    7.901727e-01
  2.829443e+01    7.590263e-01
  2.831030e+01    7.550325e-01
  2.832618e+01    7.598454e-01
  2.834206e+01    7.518340e-01
  2.835793e+01    7.601959e-01
  2.837381e+01    7.465424e-01
  2.838968e+01    7.588528e-01
  2.840556e+01    7.453547e-01
  2.842143e+01    7.356000e-01
  2.843731e+01    7.463201e-01
  2.845318e+01    7.407436e-01
  2.846906e+01    7.555175e-01
  2.848494e+01    7.806144e-01
  2.850081e+01    7.559292e-01
  2.851669e+01    7.473754e-01
  2.853256e+01    7.628837e-01
  2.854844e+01    7.527957e-01
  2.856431e+01    7.350457e-01
  2.858019e+01    7.306126e-01
  2.859606e+01    7.635499e-01
  2.861194e+01    7.610848e-01
  2.862782e+01    7.642683e-01
  2.864369e+01    7.505435e-01
  2.865957e+01    7.373791e-01
  2.867544e+01    7.573650e-01
  2.869132e+01    7.536642e-01
  2.870719e+01    7.355833e-01
  2.872307e+01    7.361451e-01
  2.873895e+01    7.582202e-01
  2.875482e+01    7.529110e-01
  2.877070e+01    7.634303e-01
  2.878657e+01    7.583653e-01
  2.880245e+01    7.388275e-01
  2.881832e+01    7.370030e-01
  2.883420e+01    7.382476e-01
  2.885007e+01    7.412808e-01
  2.886595e+01    7.501544e-01
  2.888183e+01    7.466272e-01
  2.889770e+01    7.465944e-01
  2.891358e+01    7.512494e-01
  2.892945e+01    7.238348e-01
  2.894533e+01    7.480764e-01
  2.896120e+01    7.604386e-01
  2.897708e+01    7.499948e-01
  2.899295e+01    7.534515e-01
  2.900883e+01    7.561519e-01
  2.902471e+01    7.371466e-01
  2.904058e+01    7.550240e-01
  2.905646e+01    7.324574e-01
  2.907233e+01    7.316517e-01
  2.908821e+01    7.254304e-01
  2.910408e+01    7.435419e-01
  2.911996e+01    7.298449e-01
  2.913583e+01    7.205856e-01
  2.915171e+01    7.322314e-01
  2.916759e+01    7.266523e-01
  2.918346e+01    7.304293e-01
  2.919934e+01    7.512264e-01
  2.921521e+01    7.427266e-01
  2.923109e+01    7.189756e-01
  2.924696e+01    7.325217e-01
  2.926284e+01    7.413595e-01
  2.927871e+01    7.517106e-01
  2.929459e+01    7.394651e-01
  2.931047e+01    7.149800e-01
  2.932634e+01    7.355859e-01
  2.934222e+01    7.370268e-01
  2.935809e+01    7.314435e-01
  2.937397e+01    7.312166e-01
  2.938984e+01    7.124235e-01
  2.940572e+01    7.164917e-01
  2.942159e+01    7.384084e-01
  2.943747e+01    7.331252e-01
  2.945335e+01    7.074213e-01
  2.946922e+01    7.285311e-01
  2.948510e+01    7.303239e-01
  2.950097e+01    7.294264e-01
  2.951685e+01    7.231136e-01
  2.953272e+01    7.221713e-01
  2.954860e+01    7.148459e-01
  2.956447e+01    7.298365e-01
  2.958035e+01    7.200404e-01
  2.959623e+01    7.363538e-01
  2.961210e+01    7.401690e-01
  2.962798e+01    7.326066e-01
  2.964385e+01    7.269915e-01
  2.965973e+01    7.128715e-01
  2.967560e+01    7.300315e-01
  2.969148e+01    7.439463e-01
  2.970736e+01    7.215632e-01
  2.972323e+01    7.253343e-01
  2.973911e+01    7.507653e-01
  2.975498e+01    7.400857e-01
  2.977086e+01    7.196431e-01
  2.978673e+01    7.123023e-01
  2.980261e+01    7.395318e-01
  2.981848e+01    7.192534e-01
  2.983436e+01    7.090403e-01
  2.985024e+01    7.088708e-01
  2.986611e+01    7.196996e-01
  2.988199e+01    7.296731e-01
  2.989786e+01    7.272320e-01
  2.991374e+01    7.018600e-01
  2.992961e+01    7.132379e-01
  2.994549e+01    7.272285e-01
  2.996136e+01    7.346344e-01
  2.997724e+01    7.505879e-01
  2.999312e+01    7.388861e-01
  3.000899e+01    7.407610e-01
  3.002487e+01    7.328016e-01
  3.004074e+01    7.217464e-01
  3.005662e+01    7.562342e-01
  3.007249e+01    7.653216e-01
  3.008837e+01    7.374817e-01
  3.010424e+01    7.194495e-01
  3.012012e+01    7.235913e-01
  3.013600e+01    7.048156e-01
  3.015187e+01    7.199360e-01
  3.016775e+01    7.148884e-01
  3.018362e+01    7.248802e-01
  3.019950e+01    7.104754e-01
  3.021537e+01    7.181853e-01
  3.023125e+01    7.121546e-01
  3.024712e+01    7.155408e-01
  3.026300e+01    7.081038e-01
  3.027888e+01    6.889241e-01
  3.029475e+01    7.102761e-01
  3.031063e+01    7.160158e-01
  3.032650e+01    7.428954e-01
  3.034238e+01    7.315804e-01
  3.035825e+01    7.115514e-01
  3.037413e+01    7.037111e-01
  3.039000e+01    7.075976e-01
  3.040588e+01    7.091626e-01
  3.042176e+01    6.961020e-01
  3.043763e+01    7.014254e-01
  3.045351e+01    7.146337e-01
  3.046938e+01    7.250462e-01
  3.048526e+01    7.242370e-01
  3.050113e+01    7.225795e-01
  3.051701e+01    7.173882e-01
  3.053288e+01    7.313362e-01
  3.054876e+01    7.226772e-01
  3.056464e+01    7.075251e-01
  3.058051e+01    7.047191e-01
  3.059639e+01    7.005708e-01
  3.061226e+01    7.019241e-01
  3.062814e+01    7.040162e-01
  3.064401e+01    7.255201e-01
  3.065989e+01    7.156307e-01
  3.067577e+01    7.312828e-01
  3.069164e+01    7.314101e-01
  3.070752e+01    7.004658e-01
  3.072339e+01    7.146102e-01
  3.073927e+01    7.191874e-01
  3.075514e+01    7.109666e-01
  3.077102e+01    7.120650e-01
  3.078689e+01    7.145748e-01
  3.080277e+01    7.119076e-01
  3.081865e+01    7.091722e-01
  3.083452e+01    7.120523e-01
  3.085040e+01    7.308859e-01
  3.086627e+01    7.224932e-01
  3.088215e+01    7.125258e-01
  3.089802e+01    7.150429e-01
  3.091390e+01    7.181825e-01
  3.092977e+01    7.159077e-01
  3.094565e+01    7.038844e-01
  3.096153e+01    7.065180e-01
  3.097740e+01    7.145686e-01
  3.099328e+01    7.120147e-01
  3.100915e+01    6.958050e-01
  3.102503e+01    7.208876e-01
  3.104090e+01    7.355699e-01
  3.105678e+01    7.316128e-01
  3.107265e+01    7.263454e-01
  3.108853e+01    7.285052e-01
  3.110441e+01    7.189634e-01
  3.112028e+01    7.517779e-01
  3.113616e+01    7.342265e-01
  3.115203e+01    7.291156e-01
  3.116791e+01    7.049364e-01
  3.118378e+01    7.167930e-01
  3.119966e+01    7.317114e-01
  3.121553e+01    7.393873e-01
  3.123141e+01    7.373902e-01
  3.124729e+01    7.062260e-01
  3.126316e+01    7.169378e-01
  3.127904e+01    7.334093e-01
  3.129491e+01    7.262101e-01
  3.131079e+01    7.600560e-01
  3.132666e+01    7.677655e-01
  3.134254e+01    7.523085e-01
  3.135841e+01    7.318365e-01
  3.137429e+01    7.480019e-01
  3.139017e+01    7.364470e-01
  3.140604e+01    7.630462e-01
  3.142192e+01    7.735289e-01
  3.143779e+01    7.701561e-01
  3.145367e+01    7.524128e-01
  3.146954e+01    7.618158e-01
  3.148542e+01    7.760053e-01
  3.150129e+01    7.916054e-01
  3.151717e+01    7.817621e-01
  3.153305e+01    7.790471e-01
  3.154892e+01    7.926135e-01
  3.156480e+01    7.819306e-01
  3.158067e+01    7.755781e-01
  3.159655e+01    8.038390e-01
  3.161242e+01    8.314639e-01
  3.162830e+01    8.363374e-01
  3.164418e+01    8.819863e-01
  3.166005e+01    8.811268e-01
  3.167593e+01    9.074614e-01
  3.169180e+01    9.513247e-01
  3.170768e+01    9.818359e-01
  3.172355e+01    1.003330e+00
  3.173943e+01    1.067706e+00
  3.175530e+01    1.130549e+00
  3.177118e+01    1.214698e+00
  3.178706e+01    1.323562e+00
  3.180293e+01    1.396828e+00
  3.181881e+01    1.551838e+00
  3.183468e+01    1.709719e+00
  3.185056e+01    1.875462e+00
  3.186643e+01    1.989713e+00
  3.188231e+01    2.129734e+00
  3.189818e+01    2.181509e+00
  3.191406e+01    2.236229e+00
  3.192994e+01    2.164689e+00
  3.194581e+01    2.064779e+00
  3.196169e+01    1.909846e+00
  3.197756e+01    1.781095e+00
  3.199344e+01    1.589717e+00
  3.200931e+01    1.410228e+00
  3.202519e+01    1.301267e+00
  3.204106e+01    1.209638e+00
  3.205694e+01    1.130649e+00
  3.207282e+01    1.069034e+00
  3.208869e+01    1.001601e+00
  3.210457e+01    9.758263e-01
  3.212044e+01    9.140329e-01
  3.213632e+01    8.857313e-01
  3.215219e+01    8.408948e-01
  3.216807e+01    8.448477e-01
  3.218394e+01    8.422739e-01
  3.219982e+01    8.146804e-01
  3.221570e+01    7.956939e-01
  3.223157e+01    7.902291e-01
  3.224745e+01    7.878407e-01
  3.226332e+01    7.708692e-01
  3.227920e+01    7.720172e-01
  3.229507e+01    7.553070e-01
  3.231095e+01    7.481915e-01
  3.232682e+01    7.373970e-01
  3.234270e+01    7.524695e-01
  3.235858e+01    7.429156e-01
  3.237445e+01    7.454560e-01
  3.239033e+01    7.488751e-01
  3.240620e+01    7.410554e-01
  3.242208e+01    7.281607e-01
  3.243795e+01    7.335417e-01
  3.245383e+01    7.335957e-01
  3.246970e+01    7.212403e-01
  3.248558e+01    7.224314e-01
  3.250146e+01    7.233480e-01
  3.251733e+01    7.176412e-01
  3.253321e+01    7.194177e-01
  3.254908e+01    7.210948e-01
