# == pyFAI calibration ==
# Distance Sample to Detector: 0.3999999939076516 m
# PONI: 9.750e-02, 1.135e-01 m
# Rotations: -0.000175 0.000000 -0.000000 rad
# 
# == Fit2d calibration ==
# Distance Sample-beamCenter: 400.000 mm
# Center: x=1514.000, y=1300.000 pix
# Tilt: 0.010 deg  TiltPlanRot: 0.010 deg
# 
# Detector Detector	 Spline= None	 PixelSize= 7.500e-05, 7.500e-05 m
#    Detector has a mask: False 
#    Detector has a dark current: False 
#    detector has a flat field: False 
# 
# Wavelength: 6.888e-11 m
# Mask applied: user provided
# Dark current applied: False
# Flat field applied: False
# Polarization factor: 0.99
# Normalization factor: 1.0
# --> /home/myspot/data/2024_07_Rosario/Ru-CGO-ex/2024-07-27_002_Ru-CGO-ex_Activtation_ramp_000002_data_000006.dat
#       q_nm^-1             I 
  2.003187e-02    7.711996e-02
  3.590745e-02    1.358083e-01
  5.178302e-02    1.032391e-01
  6.765859e-02    1.119475e-01
  8.353417e-02    4.427407e-02
  9.940974e-02    1.076379e-01
  1.152853e-01    7.214832e-02
  1.311609e-01    2.051406e-04
  1.470365e-01    0.000000e+00
  1.629120e-01    3.828169e-03
  1.787876e-01    2.850442e-02
  1.946632e-01    3.281754e-02
  2.105388e-01    7.744397e-02
  2.264143e-01    4.630281e-02
  2.422899e-01    1.689109e-02
  2.581655e-01    3.192066e-02
  2.740411e-01    2.660313e-02
  2.899166e-01    3.661937e-02
  3.057922e-01    4.936139e-02
  3.216678e-01    3.338777e-02
  3.375433e-01    4.687761e-02
  3.534189e-01    1.086254e-01
  3.692945e-01    4.984429e-02
  3.851701e-01    3.710701e-02
  4.010456e-01    4.760433e-02
  4.169212e-01    4.252896e-02
  4.327968e-01    4.248233e-02
  4.486724e-01    5.033993e-02
  4.645479e-01    7.956030e-02
  4.804235e-01    1.720011e-02
  4.962991e-01    2.336524e-02
  5.121747e-01    3.452524e-02
  5.280502e-01    3.907560e-02
  5.439258e-01    3.778397e-02
  5.598014e-01    4.507072e-02
  5.756770e-01    4.849045e-02
  5.915525e-01    1.916624e-02
  6.074281e-01    3.022548e-02
  6.233037e-01    4.409622e-02
  6.391793e-01    4.085701e-02
  6.550548e-01    2.047590e-02
  6.709304e-01    3.499831e-02
  6.868060e-01    4.013106e-02
  7.026815e-01    3.755274e-02
  7.185571e-01    2.764563e-02
  7.344327e-01    4.833388e-02
  7.503083e-01    3.979433e-02
  7.661838e-01    7.810281e-02
  7.820594e-01    9.966222e-02
  7.979350e-01    1.311707e-01
  8.138106e-01    1.901165e-01
  8.296861e-01    2.179738e-01
  8.455617e-01    3.274961e-01
  8.614373e-01    3.968922e-01
  8.773129e-01    4.227967e-01
  8.931884e-01    4.627483e-01
  9.090640e-01    5.381382e-01
  9.249396e-01    6.688769e-01
  9.408152e-01    7.094898e-01
  9.566907e-01    8.273147e-01
  9.725663e-01    9.295579e-01
  9.884419e-01    9.279131e-01
  1.004317e+00    1.020731e+00
  1.020193e+00    1.147455e+00
  1.036069e+00    1.191939e+00
  1.051944e+00    1.263410e+00
  1.067820e+00    1.408914e+00
  1.083695e+00    1.374680e+00
  1.099571e+00    1.387345e+00
  1.115446e+00    1.406234e+00
  1.131322e+00    1.455608e+00
  1.147198e+00    1.542516e+00
  1.163073e+00    1.591004e+00
  1.178949e+00    1.599806e+00
  1.194824e+00    1.719262e+00
  1.210700e+00    2.050133e+00
  1.226575e+00    2.124032e+00
  1.242451e+00    2.148781e+00
  1.258327e+00    2.495872e+00
  1.274202e+00    2.573549e+00
  1.290078e+00    2.656854e+00
  1.305953e+00    2.629010e+00
  1.321829e+00    2.621504e+00
  1.337705e+00    2.606194e+00
  1.353580e+00    2.646133e+00
  1.369456e+00    2.816393e+00
  1.385331e+00    2.752135e+00
  1.401207e+00    2.661635e+00
  1.417082e+00    2.782213e+00
  1.432958e+00    2.919750e+00
  1.448834e+00    2.861947e+00
  1.464709e+00    2.776018e+00
  1.480585e+00    2.913315e+00
  1.496460e+00    3.012303e+00
  1.512336e+00    3.040955e+00
  1.528211e+00    3.066501e+00
  1.544087e+00    3.138462e+00
  1.559963e+00    3.285879e+00
  1.575838e+00    3.213686e+00
  1.591714e+00    3.045544e+00
  1.607589e+00    2.922501e+00
  1.623465e+00    2.930013e+00
  1.639340e+00    2.798045e+00
  1.655216e+00    2.832788e+00
  1.671092e+00    3.049460e+00
  1.686967e+00    3.004971e+00
  1.702843e+00    2.917877e+00
  1.718718e+00    2.924554e+00
  1.734594e+00    2.872076e+00
  1.750469e+00    2.962292e+00
  1.766345e+00    3.040334e+00
  1.782221e+00    2.919672e+00
  1.798096e+00    2.913907e+00
  1.813972e+00    2.762315e+00
  1.829847e+00    2.826971e+00
  1.845723e+00    2.915407e+00
  1.861598e+00    2.930084e+00
  1.877474e+00    2.833762e+00
  1.893350e+00    2.855238e+00
  1.909225e+00    2.812356e+00
  1.925101e+00    2.853007e+00
  1.940976e+00    2.896606e+00
  1.956852e+00    2.727282e+00
  1.972727e+00    2.808629e+00
  1.988603e+00    2.864571e+00
  2.004479e+00    2.885879e+00
  2.020354e+00    2.779576e+00
  2.036230e+00    2.764628e+00
  2.052105e+00    2.827569e+00
  2.067981e+00    2.891738e+00
  2.083856e+00    2.779834e+00
  2.099732e+00    2.705540e+00
  2.115608e+00    2.752010e+00
  2.131483e+00    2.756734e+00
  2.147359e+00    2.801077e+00
  2.163234e+00    2.709021e+00
  2.179110e+00    2.832304e+00
  2.194985e+00    2.943861e+00
  2.210861e+00    2.834939e+00
  2.226737e+00    2.768864e+00
  2.242612e+00    2.668948e+00
  2.258488e+00    2.745069e+00
  2.274363e+00    2.861439e+00
  2.290239e+00    2.878605e+00
  2.306115e+00    2.940777e+00
  2.321990e+00    2.803801e+00
  2.337866e+00    2.798329e+00
  2.353741e+00    2.795071e+00
  2.369617e+00    2.714462e+00
  2.385492e+00    2.785075e+00
  2.401368e+00    2.946169e+00
  2.417244e+00    2.830544e+00
  2.433119e+00    2.774755e+00
  2.448995e+00    2.896388e+00
  2.464870e+00    2.858837e+00
  2.480746e+00    2.870948e+00
  2.496621e+00    2.944664e+00
  2.512497e+00    2.909485e+00
  2.528373e+00    2.920938e+00
  2.544248e+00    2.879576e+00
  2.560124e+00    2.894221e+00
  2.575999e+00    2.973576e+00
  2.591875e+00    2.874530e+00
  2.607750e+00    2.872798e+00
  2.623626e+00    2.929487e+00
  2.639502e+00    2.857003e+00
  2.655377e+00    2.899529e+00
  2.671253e+00    2.860744e+00
  2.687128e+00    2.946540e+00
  2.703004e+00    3.012979e+00
  2.718879e+00    2.975101e+00
  2.734755e+00    2.959300e+00
  2.750631e+00    2.936560e+00
  2.766506e+00    2.917452e+00
  2.782382e+00    2.879671e+00
  2.798257e+00    2.757544e+00
  2.814133e+00    2.866112e+00
  2.830008e+00    2.944951e+00
  2.845884e+00    2.909142e+00
  2.861760e+00    2.958599e+00
  2.877635e+00    2.946809e+00
  2.893511e+00    2.914810e+00
  2.909386e+00    2.915086e+00
  2.925262e+00    2.880560e+00
  2.941137e+00    2.907336e+00
  2.957013e+00    3.025990e+00
  2.972889e+00    3.025886e+00
  2.988764e+00    2.969248e+00
  3.004640e+00    2.932579e+00
  3.020515e+00    2.895720e+00
  3.036391e+00    2.983004e+00
  3.052266e+00    2.953246e+00
  3.068142e+00    3.036424e+00
  3.084018e+00    3.069586e+00
  3.099893e+00    3.066940e+00
  3.115769e+00    2.977459e+00
  3.131644e+00    2.937225e+00
  3.147520e+00    2.929769e+00
  3.163395e+00    2.941246e+00
  3.179271e+00    2.972921e+00
  3.195147e+00    3.004185e+00
  3.211022e+00    3.005581e+00
  3.226898e+00    2.992980e+00
  3.242773e+00    3.009730e+00
  3.258649e+00    2.926391e+00
  3.274525e+00    2.994927e+00
  3.290400e+00    2.973895e+00
  3.306276e+00    3.048220e+00
  3.322151e+00    3.060138e+00
  3.338027e+00    2.989798e+00
  3.353902e+00    2.988967e+00
  3.369778e+00    3.072839e+00
  3.385654e+00    2.962263e+00
  3.401529e+00    2.967531e+00
  3.417405e+00    2.966023e+00
  3.433280e+00    2.975601e+00
  3.449156e+00    3.005837e+00
  3.465031e+00    3.033985e+00
  3.480907e+00    3.005400e+00
  3.496783e+00    2.989272e+00
  3.512658e+00    2.978415e+00
  3.528534e+00    3.013057e+00
  3.544409e+00    2.955240e+00
  3.560285e+00    2.950243e+00
  3.576160e+00    3.034908e+00
  3.592036e+00    2.981851e+00
  3.607912e+00    2.944803e+00
  3.623787e+00    2.992437e+00
  3.639663e+00    2.988629e+00
  3.655538e+00    2.942722e+00
  3.671414e+00    3.050430e+00
  3.687289e+00    2.971625e+00
  3.703165e+00    2.971359e+00
  3.719041e+00    3.053552e+00
  3.734916e+00    3.044366e+00
  3.750792e+00    3.112358e+00
  3.766667e+00    3.063533e+00
  3.782543e+00    3.024781e+00
  3.798418e+00    2.986937e+00
  3.814294e+00    2.981265e+00
  3.830170e+00    3.007548e+00
  3.846045e+00    3.035036e+00
  3.861921e+00    3.115196e+00
  3.877796e+00    3.096156e+00
  3.893672e+00    3.029036e+00
  3.909547e+00    3.062976e+00
  3.925423e+00    3.109331e+00
  3.941299e+00    2.981559e+00
  3.957174e+00    2.984211e+00
  3.973050e+00    2.940803e+00
  3.988925e+00    2.979182e+00
  4.004801e+00    3.123313e+00
  4.020676e+00    3.049760e+00
  4.036552e+00    2.944180e+00
  4.052428e+00    3.037090e+00
  4.068303e+00    3.062433e+00
  4.084179e+00    3.061693e+00
  4.100054e+00    3.025176e+00
  4.115930e+00    3.094007e+00
  4.131806e+00    3.064999e+00
  4.147681e+00    3.062624e+00
  4.163557e+00    3.037049e+00
  4.179432e+00    3.047939e+00
  4.195308e+00    3.074731e+00
  4.211183e+00    3.075719e+00
  4.227059e+00    3.068772e+00
  4.242935e+00    2.999191e+00
  4.258810e+00    3.040925e+00
  4.274686e+00    3.068598e+00
  4.290561e+00    3.138364e+00
  4.306437e+00    3.119260e+00
  4.322312e+00    3.133901e+00
  4.338188e+00    3.157078e+00
  4.354064e+00    3.109490e+00
  4.369939e+00    3.111233e+00
  4.385815e+00    3.073860e+00
  4.401690e+00    3.133344e+00
  4.417566e+00    3.128365e+00
  4.433441e+00    3.116164e+00
  4.449317e+00    3.130294e+00
  4.465193e+00    3.094497e+00
  4.481068e+00    3.090799e+00
  4.496944e+00    3.056639e+00
  4.512819e+00    3.051761e+00
  4.528695e+00    3.100373e+00
  4.544570e+00    3.123753e+00
  4.560446e+00    3.059310e+00
  4.576322e+00    3.047416e+00
  4.592197e+00    3.094924e+00
  4.608073e+00    3.143161e+00
  4.623948e+00    3.202737e+00
  4.639824e+00    3.119651e+00
  4.655699e+00    3.138122e+00
  4.671575e+00    3.158286e+00
  4.687451e+00    3.178519e+00
  4.703326e+00    3.162758e+00
  4.719202e+00    3.128602e+00
  4.735077e+00    3.324152e+00
  4.750953e+00    3.320585e+00
  4.766828e+00    3.221628e+00
  4.782704e+00    3.314378e+00
  4.798580e+00    3.246306e+00
  4.814455e+00    3.189656e+00
  4.830331e+00    3.191571e+00
  4.846206e+00    3.162983e+00
  4.862082e+00    3.097482e+00
  4.877957e+00    3.118453e+00
  4.893833e+00    3.151910e+00
  4.909709e+00    3.181137e+00
  4.925584e+00    3.211062e+00
  4.941460e+00    3.258500e+00
  4.957335e+00    3.179479e+00
  4.973211e+00    3.185211e+00
  4.989086e+00    3.141156e+00
  5.004962e+00    3.139833e+00
  5.020838e+00    3.227702e+00
  5.036713e+00    3.156837e+00
  5.052589e+00    3.159869e+00
  5.068464e+00    3.221014e+00
  5.084340e+00    3.167866e+00
  5.100216e+00    3.146033e+00
  5.116091e+00    3.156604e+00
  5.131967e+00    3.154503e+00
  5.147842e+00    3.198242e+00
  5.163718e+00    3.171851e+00
  5.179593e+00    3.187310e+00
  5.195469e+00    3.226428e+00
  5.211345e+00    3.191380e+00
  5.227220e+00    3.143435e+00
  5.243096e+00    3.116582e+00
  5.258971e+00    3.143238e+00
  5.274847e+00    3.202141e+00
  5.290722e+00    3.192103e+00
  5.306598e+00    3.071637e+00
  5.322474e+00    3.105301e+00
  5.338349e+00    3.159197e+00
  5.354225e+00    3.211440e+00
  5.370100e+00    3.147714e+00
  5.385976e+00    3.162198e+00
  5.401851e+00    3.154259e+00
  5.417727e+00    3.071748e+00
  5.433603e+00    3.114874e+00
  5.449478e+00    3.121762e+00
  5.465354e+00    3.096761e+00
  5.481229e+00    3.105047e+00
  5.497105e+00    3.063294e+00
  5.512980e+00    3.019837e+00
  5.528856e+00    3.138660e+00
  5.544732e+00    3.175398e+00
  5.560607e+00    3.103975e+00
  5.576483e+00    3.067186e+00
  5.592358e+00    3.093995e+00
  5.608234e+00    3.106909e+00
  5.624109e+00    3.106565e+00
  5.639985e+00    3.124321e+00
  5.655861e+00    3.073222e+00
  5.671736e+00    3.116340e+00
  5.687612e+00    3.122062e+00
  5.703487e+00    3.143979e+00
  5.719363e+00    3.143209e+00
  5.735238e+00    3.173163e+00
  5.751114e+00    3.157539e+00
  5.766990e+00    3.069403e+00
  5.782865e+00    3.143458e+00
  5.798741e+00    3.068347e+00
  5.814616e+00    3.066162e+00
  5.830492e+00    3.043087e+00
  5.846367e+00    3.021610e+00
  5.862243e+00    3.094126e+00
  5.878119e+00    3.079660e+00
  5.893994e+00    3.171650e+00
  5.909870e+00    3.046819e+00
  5.925745e+00    2.971167e+00
  5.941621e+00    2.989510e+00
  5.957497e+00    3.066958e+00
  5.973372e+00    3.095491e+00
  5.989248e+00    3.137564e+00
  6.005123e+00    3.091930e+00
  6.020999e+00    3.013325e+00
  6.036874e+00    3.024536e+00
  6.052750e+00    3.028778e+00
  6.068626e+00    3.038775e+00
  6.084501e+00    3.112851e+00
  6.100377e+00    3.117782e+00
  6.116252e+00    3.129675e+00
  6.132128e+00    3.166163e+00
  6.148003e+00    3.205121e+00
  6.163879e+00    3.160110e+00
  6.179755e+00    3.131352e+00
  6.195630e+00    3.080924e+00
  6.211506e+00    3.055986e+00
  6.227381e+00    3.043722e+00
  6.243257e+00    2.993447e+00
  6.259132e+00    2.945986e+00
  6.275008e+00    3.054396e+00
  6.290884e+00    3.117042e+00
  6.306759e+00    3.096020e+00
  6.322635e+00    3.066056e+00
  6.338510e+00    3.061694e+00
  6.354386e+00    3.033113e+00
  6.370261e+00    3.025009e+00
  6.386137e+00    3.014586e+00
  6.402013e+00    3.010587e+00
  6.417888e+00    3.083456e+00
  6.433764e+00    3.086747e+00
  6.449639e+00    3.065398e+00
  6.465515e+00    3.083540e+00
  6.481390e+00    3.093906e+00
  6.497266e+00    3.036156e+00
  6.513142e+00    3.023815e+00
  6.529017e+00    3.013282e+00
  6.544893e+00    3.045214e+00
  6.560768e+00    3.074411e+00
  6.576644e+00    3.059568e+00
  6.592519e+00    3.066380e+00
  6.608395e+00    3.001087e+00
  6.624271e+00    3.026334e+00
  6.640146e+00    3.045129e+00
  6.656022e+00    3.105854e+00
  6.671897e+00    3.090459e+00
  6.687773e+00    3.053633e+00
  6.703648e+00    3.083524e+00
  6.719524e+00    3.122276e+00
  6.735400e+00    3.164137e+00
  6.751275e+00    3.072769e+00
  6.767151e+00    3.069285e+00
  6.783026e+00    3.066082e+00
  6.798902e+00    3.057873e+00
  6.814777e+00    3.026101e+00
  6.830653e+00    3.040547e+00
  6.846529e+00    3.088415e+00
  6.862404e+00    3.127975e+00
  6.878280e+00    3.098354e+00
  6.894155e+00    3.115118e+00
  6.910031e+00    3.024988e+00
  6.925907e+00    3.049321e+00
  6.941782e+00    3.061614e+00
  6.957658e+00    3.056767e+00
  6.973533e+00    3.041303e+00
  6.989409e+00    3.098536e+00
  7.005284e+00    3.004277e+00
  7.021160e+00    2.964806e+00
  7.037036e+00    3.017394e+00
  7.052911e+00    3.062373e+00
  7.068787e+00    3.043689e+00
  7.084662e+00    3.094237e+00
  7.100538e+00    3.146224e+00
  7.116413e+00    3.050293e+00
  7.132289e+00    3.003396e+00
  7.148165e+00    2.971570e+00
  7.164040e+00    2.995715e+00
  7.179916e+00    3.077154e+00
  7.195791e+00    3.026925e+00
  7.211667e+00    3.013733e+00
  7.227542e+00    2.999177e+00
  7.243418e+00    3.096794e+00
  7.259294e+00    3.088502e+00
  7.275169e+00    3.093035e+00
  7.291045e+00    3.070726e+00
  7.306920e+00    3.046143e+00
  7.322796e+00    3.089219e+00
  7.338671e+00    3.071648e+00
  7.354547e+00    3.030061e+00
  7.370423e+00    3.004498e+00
  7.386298e+00    3.041075e+00
  7.402174e+00    2.952390e+00
  7.418049e+00    2.912568e+00
  7.433925e+00    2.990168e+00
  7.449800e+00    3.024966e+00
  7.465676e+00    2.967918e+00
  7.481552e+00    3.019083e+00
  7.497427e+00    3.044969e+00
  7.513303e+00    3.071343e+00
  7.529178e+00    3.067926e+00
  7.545054e+00    3.005927e+00
  7.560929e+00    3.017336e+00
  7.576805e+00    3.079022e+00
  7.592681e+00    3.022429e+00
  7.608556e+00    2.963869e+00
  7.624432e+00    2.979255e+00
  7.640307e+00    2.977025e+00
  7.656183e+00    3.039634e+00
  7.672058e+00    2.977091e+00
  7.687934e+00    2.972624e+00
  7.703810e+00    2.932516e+00
  7.719685e+00    2.907983e+00
  7.735561e+00    2.937289e+00
  7.751436e+00    2.980193e+00
  7.767312e+00    3.039058e+00
  7.783187e+00    3.013531e+00
  7.799063e+00    3.013440e+00
  7.814939e+00    2.982395e+00
  7.830814e+00    2.984380e+00
  7.846690e+00    2.972216e+00
  7.862565e+00    2.949728e+00
  7.878441e+00    2.995222e+00
  7.894317e+00    2.988273e+00
  7.910192e+00    2.959329e+00
  7.926068e+00    2.979845e+00
  7.941943e+00    2.972770e+00
  7.957819e+00    2.931222e+00
  7.973694e+00    2.949793e+00
  7.989570e+00    2.961659e+00
  8.005446e+00    3.013947e+00
  8.021321e+00    2.956767e+00
  8.037197e+00    3.010025e+00
  8.053072e+00    2.960896e+00
  8.068948e+00    2.992254e+00
  8.084823e+00    3.022212e+00
  8.100699e+00    2.969523e+00
  8.116575e+00    2.960735e+00
  8.132450e+00    2.993686e+00
  8.148326e+00    3.037405e+00
  8.164201e+00    2.977401e+00
  8.180077e+00    2.932254e+00
  8.195952e+00    3.002249e+00
  8.211828e+00    2.955442e+00
  8.227704e+00    2.952206e+00
  8.243579e+00    2.970773e+00
  8.259455e+00    2.913474e+00
  8.275330e+00    2.954210e+00
  8.291206e+00    2.969016e+00
  8.307081e+00    2.955768e+00
  8.322957e+00    2.941090e+00
  8.338833e+00    2.964731e+00
  8.354708e+00    2.967461e+00
  8.370584e+00    2.972915e+00
  8.386459e+00    2.924396e+00
  8.402335e+00    2.913533e+00
  8.418210e+00    2.973658e+00
  8.434086e+00    2.953481e+00
  8.449962e+00    2.908405e+00
  8.465837e+00    2.905764e+00
  8.481713e+00    2.918604e+00
  8.497588e+00    2.954723e+00
  8.513464e+00    2.980792e+00
  8.529339e+00    2.915141e+00
  8.545215e+00    2.883901e+00
  8.561091e+00    2.958525e+00
  8.576966e+00    2.929565e+00
  8.592842e+00    2.888587e+00
  8.608717e+00    2.899970e+00
  8.624593e+00    2.926338e+00
  8.640468e+00    2.914039e+00
  8.656344e+00    2.894158e+00
  8.672220e+00    2.877007e+00
  8.688095e+00    2.961238e+00
  8.703971e+00    2.921142e+00
  8.719846e+00    2.926713e+00
  8.735722e+00    2.947740e+00
  8.751598e+00    2.864758e+00
  8.767473e+00    2.839740e+00
  8.783349e+00    2.867651e+00
  8.799224e+00    2.927672e+00
  8.815100e+00    2.905866e+00
  8.830975e+00    2.899339e+00
  8.846851e+00    2.897032e+00
  8.862727e+00    2.893829e+00
  8.878602e+00    2.923674e+00
  8.894478e+00    2.931933e+00
  8.910353e+00    2.872039e+00
  8.926229e+00    2.857846e+00
  8.942104e+00    2.851919e+00
  8.957980e+00    2.821726e+00
  8.973856e+00    2.842716e+00
  8.989731e+00    2.836025e+00
  9.005607e+00    2.927561e+00
  9.021482e+00    2.872800e+00
  9.037358e+00    2.825117e+00
  9.053233e+00    2.809474e+00
  9.069109e+00    2.826859e+00
  9.084985e+00    2.909810e+00
  9.100860e+00    2.846651e+00
  9.116736e+00    2.832561e+00
  9.132611e+00    2.831894e+00
  9.148487e+00    2.859934e+00
  9.164362e+00    2.888631e+00
  9.180238e+00    2.901788e+00
  9.196114e+00    2.813140e+00
  9.211989e+00    2.822935e+00
  9.227865e+00    2.823418e+00
  9.243740e+00    2.848532e+00
  9.259616e+00    2.842276e+00
  9.275491e+00    2.800110e+00
  9.291367e+00    2.831141e+00
  9.307243e+00    2.842248e+00
  9.323118e+00    2.843319e+00
  9.338994e+00    2.828094e+00
  9.354869e+00    2.844237e+00
  9.370745e+00    2.883548e+00
  9.386620e+00    2.875201e+00
  9.402496e+00    2.847821e+00
  9.418372e+00    2.799854e+00
  9.434247e+00    2.753693e+00
  9.450123e+00    2.842649e+00
  9.465998e+00    2.771415e+00
  9.481874e+00    2.775903e+00
  9.497749e+00    2.770895e+00
  9.513625e+00    2.819358e+00
  9.529501e+00    2.856512e+00
  9.545376e+00    2.866214e+00
  9.561252e+00    2.788030e+00
  9.577127e+00    2.820121e+00
  9.593003e+00    2.827841e+00
  9.608878e+00    2.762340e+00
  9.624754e+00    2.814912e+00
  9.640630e+00    2.855396e+00
  9.656505e+00    2.799252e+00
  9.672381e+00    2.800629e+00
  9.688256e+00    2.750061e+00
  9.704132e+00    2.769206e+00
  9.720008e+00    2.726720e+00
  9.735883e+00    2.717694e+00
  9.751759e+00    2.759840e+00
  9.767634e+00    2.708225e+00
  9.783510e+00    2.784751e+00
  9.799385e+00    2.753902e+00
  9.815261e+00    2.740307e+00
  9.831137e+00    2.759799e+00
  9.847012e+00    2.785202e+00
  9.862888e+00    2.776572e+00
  9.878763e+00    2.775072e+00
  9.894639e+00    2.736049e+00
  9.910514e+00    2.746758e+00
  9.926390e+00    2.775139e+00
  9.942266e+00    2.727574e+00
  9.958141e+00    2.736704e+00
  9.974017e+00    2.752366e+00
  9.989892e+00    2.716920e+00
  1.000577e+01    2.710263e+00
  1.002164e+01    2.692610e+00
  1.003752e+01    2.747027e+00
  1.005339e+01    2.728326e+00
  1.006927e+01    2.658866e+00
  1.008515e+01    2.632968e+00
  1.010102e+01    2.694449e+00
  1.011690e+01    2.725079e+00
  1.013277e+01    2.669242e+00
  1.014865e+01    2.671983e+00
  1.016452e+01    2.685693e+00
  1.018040e+01    2.718739e+00
  1.019627e+01    2.738766e+00
  1.021215e+01    2.706378e+00
  1.022803e+01    2.692871e+00
  1.024390e+01    2.660753e+00
  1.025978e+01    2.646799e+00
  1.027565e+01    2.635492e+00
  1.029153e+01    2.671313e+00
  1.030740e+01    2.658524e+00
  1.032328e+01    2.681585e+00
  1.033915e+01    2.655556e+00
  1.035503e+01    2.671409e+00
  1.037091e+01    2.676747e+00
  1.038678e+01    2.706781e+00
  1.040266e+01    2.652016e+00
  1.041853e+01    2.668418e+00
  1.043441e+01    2.679960e+00
  1.045028e+01    2.627820e+00
  1.046616e+01    2.627391e+00
  1.048204e+01    2.626274e+00
  1.049791e+01    2.614495e+00
  1.051379e+01    2.612318e+00
  1.052966e+01    2.642475e+00
  1.054554e+01    2.601222e+00
  1.056141e+01    2.617418e+00
  1.057729e+01    2.577620e+00
  1.059316e+01    2.576072e+00
  1.060904e+01    2.583725e+00
  1.062492e+01    2.612092e+00
  1.064079e+01    2.639910e+00
  1.065667e+01    2.599953e+00
  1.067254e+01    2.606299e+00
  1.068842e+01    2.602454e+00
  1.070429e+01    2.587995e+00
  1.072017e+01    2.596630e+00
  1.073604e+01    2.601580e+00
  1.075192e+01    2.562503e+00
  1.076780e+01    2.560187e+00
  1.078367e+01    2.629327e+00
  1.079955e+01    2.671106e+00
  1.081542e+01    2.613805e+00
  1.083130e+01    2.564430e+00
  1.084717e+01    2.542497e+00
  1.086305e+01    2.574179e+00
  1.087892e+01    2.535991e+00
  1.089480e+01    2.501330e+00
  1.091068e+01    2.488204e+00
  1.092655e+01    2.540308e+00
  1.094243e+01    2.562543e+00
  1.095830e+01    2.511424e+00
  1.097418e+01    2.497690e+00
  1.099005e+01    2.519591e+00
  1.100593e+01    2.496671e+00
  1.102180e+01    2.544429e+00
  1.103768e+01    2.502109e+00
  1.105356e+01    2.498385e+00
  1.106943e+01    2.520408e+00
  1.108531e+01    2.489471e+00
  1.110118e+01    2.485870e+00
  1.111706e+01    2.446826e+00
  1.113293e+01    2.507900e+00
  1.114881e+01    2.509429e+00
  1.116468e+01    2.517863e+00
  1.118056e+01    2.477389e+00
  1.119644e+01    2.517689e+00
  1.121231e+01    2.502281e+00
  1.122819e+01    2.480131e+00
  1.124406e+01    2.463116e+00
  1.125994e+01    2.469803e+00
  1.127581e+01    2.499216e+00
  1.129169e+01    2.479150e+00
  1.130756e+01    2.504236e+00
  1.132344e+01    2.507179e+00
  1.133932e+01    2.455597e+00
  1.135519e+01    2.456340e+00
  1.137107e+01    2.462359e+00
  1.138694e+01    2.425906e+00
  1.140282e+01    2.441310e+00
  1.141869e+01    2.479328e+00
  1.143457e+01    2.420681e+00
  1.145045e+01    2.436722e+00
  1.146632e+01    2.456066e+00
  1.148220e+01    2.470642e+00
  1.149807e+01    2.444503e+00
  1.151395e+01    2.424876e+00
  1.152982e+01    2.425102e+00
  1.154570e+01    2.449203e+00
  1.156157e+01    2.431166e+00
  1.157745e+01    2.412496e+00
  1.159333e+01    2.389984e+00
  1.160920e+01    2.412975e+00
  1.162508e+01    2.422488e+00
  1.164095e+01    2.406605e+00
  1.165683e+01    2.400389e+00
  1.167270e+01    2.477546e+00
  1.168858e+01    2.456159e+00
  1.170445e+01    2.385401e+00
  1.172033e+01    2.380820e+00
  1.173621e+01    2.388397e+00
  1.175208e+01    2.367468e+00
  1.176796e+01    2.373892e+00
  1.178383e+01    2.379713e+00
  1.179971e+01    2.371238e+00
  1.181558e+01    2.399851e+00
  1.183146e+01    2.426609e+00
  1.184733e+01    2.401446e+00
  1.186321e+01    2.382451e+00
  1.187909e+01    2.349634e+00
  1.189496e+01    2.391237e+00
  1.191084e+01    2.400502e+00
  1.192671e+01    2.410531e+00
  1.194259e+01    2.407053e+00
  1.195846e+01    2.399794e+00
  1.197434e+01    2.449322e+00
  1.199021e+01    2.371003e+00
  1.200609e+01    2.378037e+00
  1.202197e+01    2.371448e+00
  1.203784e+01    2.373059e+00
  1.205372e+01    2.332022e+00
  1.206959e+01    2.327345e+00
  1.208547e+01    2.339209e+00
  1.210134e+01    2.339326e+00
  1.211722e+01    2.350174e+00
  1.213309e+01    2.380160e+00
  1.214897e+01    2.358284e+00
  1.216485e+01    2.342281e+00
  1.218072e+01    2.364040e+00
  1.219660e+01    2.383220e+00
  1.221247e+01    2.392736e+00
  1.222835e+01    2.359033e+00
  1.224422e+01    2.344472e+00
  1.226010e+01    2.381700e+00
  1.227597e+01    2.327437e+00
  1.229185e+01    2.343241e+00
  1.230773e+01    2.360560e+00
  1.232360e+01    2.341323e+00
  1.233948e+01    2.351929e+00
  1.235535e+01    2.374172e+00
  1.237123e+01    2.356343e+00
  1.238710e+01    2.382888e+00
  1.240298e+01    2.395460e+00
  1.241886e+01    2.382135e+00
  1.243473e+01    2.369718e+00
  1.245061e+01    2.375112e+00
  1.246648e+01    2.401839e+00
  1.248236e+01    2.401634e+00
  1.249823e+01    2.346480e+00
  1.251411e+01    2.418625e+00
  1.252998e+01    2.419960e+00
  1.254586e+01    2.418923e+00
  1.256174e+01    2.416508e+00
  1.257761e+01    2.420633e+00
  1.259349e+01    2.456669e+00
  1.260936e+01    2.450531e+00
  1.262524e+01    2.431025e+00
  1.264111e+01    2.450317e+00
  1.265699e+01    2.474908e+00
  1.267286e+01    2.447805e+00
  1.268874e+01    2.441874e+00
  1.270462e+01    2.518620e+00
  1.272049e+01    2.542069e+00
  1.273637e+01    2.550464e+00
  1.275224e+01    2.597684e+00
  1.276812e+01    2.601729e+00
  1.278399e+01    2.656241e+00
  1.279987e+01    2.734010e+00
  1.281574e+01    2.787050e+00
  1.283162e+01    2.790790e+00
  1.284750e+01    2.929571e+00
  1.286337e+01    3.013722e+00
  1.287925e+01    3.040211e+00
  1.289512e+01    3.133544e+00
  1.291100e+01    3.272234e+00
  1.292687e+01    3.485272e+00
  1.294275e+01    3.673426e+00
  1.295862e+01    3.938596e+00
  1.297450e+01    4.241153e+00
  1.299038e+01    4.706342e+00
  1.300625e+01    5.161777e+00
  1.302213e+01    5.779925e+00
  1.303800e+01    6.598574e+00
  1.305388e+01    7.611707e+00
  1.306975e+01    8.929766e+00
  1.308563e+01    1.044672e+01
  1.310150e+01    1.183627e+01
  1.311738e+01    1.344209e+01
  1.313326e+01    1.501012e+01
  1.314913e+01    1.651480e+01
  1.316501e+01    1.792425e+01
  1.318088e+01    1.919208e+01
  1.319676e+01    2.002581e+01
  1.321263e+01    1.987707e+01
  1.322851e+01    1.884608e+01
  1.324438e+01    1.679623e+01
  1.326026e+01    1.445687e+01
  1.327614e+01    1.215748e+01
  1.329201e+01    1.017395e+01
  1.330789e+01    8.560011e+00
  1.332376e+01    7.303264e+00
  1.333964e+01    6.340803e+00
  1.335551e+01    5.628582e+00
  1.337139e+01    5.048519e+00
  1.338727e+01    4.567971e+00
  1.340314e+01    4.173505e+00
  1.341902e+01    3.930039e+00
  1.343489e+01    3.629658e+00
  1.345077e+01    3.403187e+00
  1.346664e+01    3.200839e+00
  1.348252e+01    3.091870e+00
  1.349839e+01    3.016878e+00
  1.351427e+01    2.964080e+00
  1.353015e+01    2.838657e+00
  1.354602e+01    2.792203e+00
  1.356190e+01    2.712375e+00
  1.357777e+01    2.576073e+00
  1.359365e+01    2.563586e+00
  1.360952e+01    2.546041e+00
  1.362540e+01    2.471071e+00
  1.364127e+01    2.480495e+00
  1.365715e+01    2.455739e+00
  1.367303e+01    2.380840e+00
  1.368890e+01    2.332768e+00
  1.370478e+01    2.322794e+00
  1.372065e+01    2.303567e+00
  1.373653e+01    2.302959e+00
  1.375240e+01    2.274618e+00
  1.376828e+01    2.262403e+00
  1.378415e+01    2.235848e+00
  1.380003e+01    2.223692e+00
  1.381591e+01    2.198539e+00
  1.383178e+01    2.190189e+00
  1.384766e+01    2.163826e+00
  1.386353e+01    2.171997e+00
  1.387941e+01    2.188796e+00
  1.389528e+01    2.172156e+00
  1.391116e+01    2.131873e+00
  1.392703e+01    2.081257e+00
  1.394291e+01    2.164505e+00
  1.395879e+01    2.199658e+00
  1.397466e+01    2.179447e+00
  1.399054e+01    2.143574e+00
  1.400641e+01    2.127072e+00
  1.402229e+01    2.087364e+00
  1.403816e+01    2.092423e+00
  1.405404e+01    2.098504e+00
  1.406991e+01    2.098156e+00
  1.408579e+01    2.054037e+00
  1.410167e+01    2.040065e+00
  1.411754e+01    2.025898e+00
  1.413342e+01    2.061598e+00
  1.414929e+01    2.041022e+00
  1.416517e+01    2.047756e+00
  1.418104e+01    2.038172e+00
  1.419692e+01    2.053741e+00
  1.421279e+01    2.036480e+00
  1.422867e+01    2.059289e+00
  1.424455e+01    2.048684e+00
  1.426042e+01    2.030320e+00
  1.427630e+01    2.027616e+00
  1.429217e+01    1.989664e+00
  1.430805e+01    1.968058e+00
  1.432392e+01    1.942845e+00
  1.433980e+01    2.005030e+00
  1.435568e+01    2.016194e+00
  1.437155e+01    1.996404e+00
  1.438743e+01    1.984966e+00
  1.440330e+01    1.980951e+00
  1.441918e+01    1.987259e+00
  1.443505e+01    1.940144e+00
  1.445093e+01    1.969252e+00
  1.446680e+01    1.956588e+00
  1.448268e+01    1.930667e+00
  1.449856e+01    1.960135e+00
  1.451443e+01    1.943473e+00
  1.453031e+01    1.969306e+00
  1.454618e+01    1.926031e+00
  1.456206e+01    1.931853e+00
  1.457793e+01    1.957792e+00
  1.459381e+01    1.945576e+00
  1.460968e+01    1.929885e+00
  1.462556e+01    1.942199e+00
  1.464144e+01    1.984719e+00
  1.465731e+01    1.991432e+00
  1.467319e+01    1.930978e+00
  1.468906e+01    1.912499e+00
  1.470494e+01    1.947260e+00
  1.472081e+01    1.931595e+00
  1.473669e+01    1.944779e+00
  1.475256e+01    1.966320e+00
  1.476844e+01    1.961008e+00
  1.478432e+01    1.960895e+00
  1.480019e+01    1.966550e+00
  1.481607e+01    1.993847e+00
  1.483194e+01    1.949495e+00
  1.484782e+01    1.936433e+00
  1.486369e+01    1.970960e+00
  1.487957e+01    1.977003e+00
  1.489544e+01    1.964650e+00
  1.491132e+01    1.969249e+00
  1.492720e+01    2.056355e+00
  1.494307e+01    2.062430e+00
  1.495895e+01    2.045818e+00
  1.497482e+01    2.076743e+00
  1.499070e+01    2.128419e+00
  1.500657e+01    2.171659e+00
  1.502245e+01    2.198700e+00
  1.503832e+01    2.269243e+00
  1.505420e+01    2.343728e+00
  1.507008e+01    2.452703e+00
  1.508595e+01    2.533913e+00
  1.510183e+01    2.699291e+00
  1.511770e+01    2.939888e+00
  1.513358e+01    3.199850e+00
  1.514945e+01    3.534348e+00
  1.516533e+01    3.963183e+00
  1.518120e+01    4.444234e+00
  1.519708e+01    4.848931e+00
  1.521296e+01    5.287653e+00
  1.522883e+01    5.664435e+00
  1.524471e+01    6.079089e+00
  1.526058e+01    6.339315e+00
  1.527646e+01    6.513632e+00
  1.529233e+01    6.645147e+00
  1.530821e+01    6.649199e+00
  1.532409e+01    6.318223e+00
  1.533996e+01    5.830480e+00
  1.535584e+01    5.223788e+00
  1.537171e+01    4.615125e+00
  1.538759e+01    4.011306e+00
  1.540346e+01    3.566619e+00
  1.541934e+01    3.226687e+00
  1.543521e+01    2.968217e+00
  1.545109e+01    2.730221e+00
  1.546697e+01    2.549627e+00
  1.548284e+01    2.405500e+00
  1.549872e+01    2.334666e+00
  1.551459e+01    2.232230e+00
  1.553047e+01    2.128141e+00
  1.554634e+01    2.069191e+00
  1.556222e+01    2.022249e+00
  1.557809e+01    2.016438e+00
  1.559397e+01    1.980050e+00
  1.560985e+01    1.885266e+00
  1.562572e+01    1.893000e+00
  1.564160e+01    1.898605e+00
  1.565747e+01    1.878555e+00
  1.567335e+01    1.838190e+00
  1.568922e+01    1.801537e+00
  1.570510e+01    1.804225e+00
  1.572097e+01    1.759703e+00
  1.573685e+01    1.756295e+00
  1.575273e+01    1.773129e+00
  1.576860e+01    1.765118e+00
  1.578448e+01    1.729609e+00
  1.580035e+01    1.715656e+00
  1.581623e+01    1.738551e+00
  1.583210e+01    1.755144e+00
  1.584798e+01    1.722416e+00
  1.586385e+01    1.706991e+00
  1.587973e+01    1.705281e+00
  1.589561e+01    1.697926e+00
  1.591148e+01    1.691333e+00
  1.592736e+01    1.708553e+00
  1.594323e+01    1.674509e+00
  1.595911e+01    1.668167e+00
  1.597498e+01    1.686424e+00
  1.599086e+01    1.660376e+00
  1.600673e+01    1.642451e+00
  1.602261e+01    1.655594e+00
  1.603849e+01    1.647826e+00
  1.605436e+01    1.657081e+00
  1.607024e+01    1.635491e+00
  1.608611e+01    1.655698e+00
  1.610199e+01    1.607284e+00
  1.611786e+01    1.630678e+00
  1.613374e+01    1.616666e+00
  1.614961e+01    1.575609e+00
  1.616549e+01    1.585676e+00
  1.618137e+01    1.605458e+00
  1.619724e+01    1.598737e+00
  1.621312e+01    1.581691e+00
  1.622899e+01    1.567359e+00
  1.624487e+01    1.558443e+00
  1.626074e+01    1.574642e+00
  1.627662e+01    1.564828e+00
  1.629250e+01    1.579964e+00
  1.630837e+01    1.572000e+00
  1.632425e+01    1.568565e+00
  1.634012e+01    1.568442e+00
  1.635600e+01    1.573038e+00
  1.637187e+01    1.558336e+00
  1.638775e+01    1.548012e+00
  1.640362e+01    1.536393e+00
  1.641950e+01    1.558259e+00
  1.643538e+01    1.542664e+00
  1.645125e+01    1.554062e+00
  1.646713e+01    1.558675e+00
  1.648300e+01    1.543721e+00
  1.649888e+01    1.570367e+00
  1.651475e+01    1.525883e+00
  1.653063e+01    1.507830e+00
  1.654650e+01    1.482114e+00
  1.656238e+01    1.510208e+00
  1.657826e+01    1.530459e+00
  1.659413e+01    1.496257e+00
  1.661001e+01    1.506144e+00
  1.662588e+01    1.509870e+00
  1.664176e+01    1.501922e+00
  1.665763e+01    1.503421e+00
  1.667351e+01    1.517208e+00
  1.668938e+01    1.518129e+00
  1.670526e+01    1.495453e+00
  1.672114e+01    1.477495e+00
  1.673701e+01    1.459429e+00
  1.675289e+01    1.471099e+00
  1.676876e+01    1.489115e+00
  1.678464e+01    1.498946e+00
  1.680051e+01    1.466987e+00
  1.681639e+01    1.485932e+00
  1.683226e+01    1.464833e+00
  1.684814e+01    1.465256e+00
  1.686402e+01    1.453402e+00
  1.687989e+01    1.461124e+00
  1.689577e+01    1.466645e+00
  1.691164e+01    1.497602e+00
  1.692752e+01    1.483675e+00
  1.694339e+01    1.469220e+00
  1.695927e+01    1.473538e+00
  1.697514e+01    1.460875e+00
  1.699102e+01    1.485503e+00
  1.700690e+01    1.442740e+00
  1.702277e+01    1.433313e+00
  1.703865e+01    1.483442e+00
  1.705452e+01    1.487231e+00
  1.707040e+01    1.478461e+00
  1.708627e+01    1.451512e+00
  1.710215e+01    1.439440e+00
  1.711802e+01    1.467265e+00
  1.713390e+01    1.455299e+00
  1.714978e+01    1.440558e+00
  1.716565e+01    1.420461e+00
  1.718153e+01    1.398807e+00
  1.719740e+01    1.427354e+00
  1.721328e+01    1.423243e+00
  1.722915e+01    1.423002e+00
  1.724503e+01    1.428864e+00
  1.726091e+01    1.430385e+00
  1.727678e+01    1.440660e+00
  1.729266e+01    1.428217e+00
  1.730853e+01    1.422032e+00
  1.732441e+01    1.406155e+00
  1.734028e+01    1.420719e+00
  1.735616e+01    1.418514e+00
  1.737203e+01    1.418145e+00
  1.738791e+01    1.396598e+00
  1.740379e+01    1.407783e+00
  1.741966e+01    1.392051e+00
  1.743554e+01    1.404285e+00
  1.745141e+01    1.427666e+00
  1.746729e+01    1.419208e+00
  1.748316e+01    1.388168e+00
  1.749904e+01    1.398297e+00
  1.751491e+01    1.388774e+00
  1.753079e+01    1.363694e+00
  1.754667e+01    1.393606e+00
  1.756254e+01    1.369947e+00
  1.757842e+01    1.380037e+00
  1.759429e+01    1.362055e+00
  1.761017e+01    1.380125e+00
  1.762604e+01    1.363213e+00
  1.764192e+01    1.386565e+00
  1.765779e+01    1.399438e+00
  1.767367e+01    1.371971e+00
  1.768955e+01    1.351383e+00
  1.770542e+01    1.353873e+00
  1.772130e+01    1.353150e+00
  1.773717e+01    1.344011e+00
  1.775305e+01    1.346085e+00
  1.776892e+01    1.358988e+00
  1.778480e+01    1.369181e+00
  1.780067e+01    1.377545e+00
  1.781655e+01    1.338918e+00
  1.783243e+01    1.342713e+00
  1.784830e+01    1.359028e+00
  1.786418e+01    1.346548e+00
  1.788005e+01    1.372597e+00
  1.789593e+01    1.362740e+00
  1.791180e+01    1.344602e+00
  1.792768e+01    1.324875e+00
  1.794355e+01    1.321234e+00
  1.795943e+01    1.335885e+00
  1.797531e+01    1.318360e+00
  1.799118e+01    1.336656e+00
  1.800706e+01    1.291734e+00
  1.802293e+01    1.344744e+00
  1.803881e+01    1.367720e+00
  1.805468e+01    1.344224e+00
  1.807056e+01    1.320152e+00
  1.808643e+01    1.329454e+00
  1.810231e+01    1.332606e+00
  1.811819e+01    1.323317e+00
  1.813406e+01    1.302700e+00
  1.814994e+01    1.295849e+00
  1.816581e+01    1.306728e+00
  1.818169e+01    1.310065e+00
  1.819756e+01    1.314246e+00
  1.821344e+01    1.333454e+00
  1.822932e+01    1.296299e+00
  1.824519e+01    1.286379e+00
  1.826107e+01    1.288370e+00
  1.827694e+01    1.279500e+00
  1.829282e+01    1.300980e+00
  1.830869e+01    1.298594e+00
  1.832457e+01    1.288166e+00
  1.834044e+01    1.297330e+00
  1.835632e+01    1.294124e+00
  1.837220e+01    1.267109e+00
  1.838807e+01    1.316089e+00
  1.840395e+01    1.302536e+00
  1.841982e+01    1.278231e+00
  1.843570e+01    1.315356e+00
  1.845157e+01    1.275146e+00
  1.846745e+01    1.290970e+00
  1.848332e+01    1.301195e+00
  1.849920e+01    1.274741e+00
  1.851508e+01    1.259627e+00
  1.853095e+01    1.266602e+00
  1.854683e+01    1.297618e+00
  1.856270e+01    1.283052e+00
  1.857858e+01    1.300777e+00
  1.859445e+01    1.285607e+00
  1.861033e+01    1.287377e+00
  1.862620e+01    1.252548e+00
  1.864208e+01    1.237161e+00
  1.865796e+01    1.246353e+00
  1.867383e+01    1.262218e+00
  1.868971e+01    1.277231e+00
  1.870558e+01    1.290765e+00
  1.872146e+01    1.266920e+00
  1.873733e+01    1.262998e+00
  1.875321e+01    1.262155e+00
  1.876908e+01    1.252041e+00
  1.878496e+01    1.257190e+00
  1.880084e+01    1.249029e+00
  1.881671e+01    1.247426e+00
  1.883259e+01    1.252189e+00
  1.884846e+01    1.247723e+00
  1.886434e+01    1.231712e+00
  1.888021e+01    1.241312e+00
  1.889609e+01    1.231973e+00
  1.891196e+01    1.216268e+00
  1.892784e+01    1.250327e+00
  1.894372e+01    1.244956e+00
  1.895959e+01    1.245011e+00
  1.897547e+01    1.218339e+00
  1.899134e+01    1.223393e+00
  1.900722e+01    1.222977e+00
  1.902309e+01    1.233441e+00
  1.903897e+01    1.234692e+00
  1.905484e+01    1.227711e+00
  1.907072e+01    1.204598e+00
  1.908660e+01    1.190066e+00
  1.910247e+01    1.222971e+00
  1.911835e+01    1.212487e+00
  1.913422e+01    1.221000e+00
  1.915010e+01    1.233859e+00
  1.916597e+01    1.218830e+00
  1.918185e+01    1.210324e+00
  1.919773e+01    1.198933e+00
  1.921360e+01    1.188093e+00
  1.922948e+01    1.210475e+00
  1.924535e+01    1.224998e+00
  1.926123e+01    1.213511e+00
  1.927710e+01    1.189040e+00
  1.929298e+01    1.189354e+00
  1.930885e+01    1.197296e+00
  1.932473e+01    1.203266e+00
  1.934061e+01    1.198700e+00
  1.935648e+01    1.204524e+00
  1.937236e+01    1.219975e+00
  1.938823e+01    1.229442e+00
  1.940411e+01    1.221153e+00
  1.941998e+01    1.204916e+00
  1.943586e+01    1.204692e+00
  1.945173e+01    1.197528e+00
  1.946761e+01    1.212560e+00
  1.948349e+01    1.205927e+00
  1.949936e+01    1.176676e+00
  1.951524e+01    1.165211e+00
  1.953111e+01    1.198994e+00
  1.954699e+01    1.184105e+00
  1.956286e+01    1.182885e+00
  1.957874e+01    1.193693e+00
  1.959461e+01    1.184720e+00
  1.961049e+01    1.170982e+00
  1.962637e+01    1.183461e+00
  1.964224e+01    1.207306e+00
  1.965812e+01    1.170916e+00
  1.967399e+01    1.167961e+00
  1.968987e+01    1.172868e+00
  1.970574e+01    1.172979e+00
  1.972162e+01    1.154706e+00
  1.973749e+01    1.162663e+00
  1.975337e+01    1.179323e+00
  1.976925e+01    1.157310e+00
  1.978512e+01    1.168940e+00
  1.980100e+01    1.165170e+00
  1.981687e+01    1.160585e+00
  1.983275e+01    1.163976e+00
  1.984862e+01    1.146413e+00
  1.986450e+01    1.125093e+00
  1.988037e+01    1.158669e+00
  1.989625e+01    1.148524e+00
  1.991213e+01    1.141746e+00
  1.992800e+01    1.136068e+00
  1.994388e+01    1.129723e+00
  1.995975e+01    1.135804e+00
  1.997563e+01    1.175311e+00
  1.999150e+01    1.165586e+00
  2.000738e+01    1.160504e+00
  2.002325e+01    1.154546e+00
  2.003913e+01    1.136160e+00
  2.005501e+01    1.122001e+00
  2.007088e+01    1.127786e+00
  2.008676e+01    1.144313e+00
  2.010263e+01    1.146627e+00
  2.011851e+01    1.137560e+00
  2.013438e+01    1.137986e+00
  2.015026e+01    1.158034e+00
  2.016614e+01    1.136238e+00
  2.018201e+01    1.124130e+00
  2.019789e+01    1.100996e+00
  2.021376e+01    1.136416e+00
  2.022964e+01    1.114482e+00
  2.024551e+01    1.101375e+00
  2.026139e+01    1.106914e+00
  2.027726e+01    1.122836e+00
  2.029314e+01    1.134054e+00
  2.030902e+01    1.126642e+00
  2.032489e+01    1.142033e+00
  2.034077e+01    1.143198e+00
  2.035664e+01    1.129853e+00
  2.037252e+01    1.104076e+00
  2.038839e+01    1.105914e+00
  2.040427e+01    1.109298e+00
  2.042014e+01    1.134245e+00
  2.043602e+01    1.153959e+00
  2.045190e+01    1.129286e+00
  2.046777e+01    1.116869e+00
  2.048365e+01    1.090972e+00
  2.049952e+01    1.106011e+00
  2.051540e+01    1.112494e+00
  2.053127e+01    1.114022e+00
  2.054715e+01    1.101777e+00
  2.056302e+01    1.112893e+00
  2.057890e+01    1.130477e+00
  2.059478e+01    1.129606e+00
  2.061065e+01    1.096333e+00
  2.062653e+01    1.102785e+00
  2.064240e+01    1.105101e+00
  2.065828e+01    1.101640e+00
  2.067415e+01    1.099107e+00
  2.069003e+01    1.094590e+00
  2.070590e+01    1.108596e+00
  2.072178e+01    1.086470e+00
  2.073766e+01    1.067807e+00
  2.075353e+01    1.101896e+00
  2.076941e+01    1.096458e+00
  2.078528e+01    1.083364e+00
  2.080116e+01    1.101179e+00
  2.081703e+01    1.131793e+00
  2.083291e+01    1.123424e+00
  2.084878e+01    1.110287e+00
  2.086466e+01    1.109471e+00
  2.088054e+01    1.096882e+00
  2.089641e+01    1.100383e+00
  2.091229e+01    1.123658e+00
  2.092816e+01    1.133136e+00
  2.094404e+01    1.120827e+00
  2.095991e+01    1.101045e+00
  2.097579e+01    1.107938e+00
  2.099166e+01    1.109003e+00
  2.100754e+01    1.137455e+00
  2.102342e+01    1.117066e+00
  2.103929e+01    1.113289e+00
  2.105517e+01    1.122536e+00
  2.107104e+01    1.129940e+00
  2.108692e+01    1.110796e+00
  2.110279e+01    1.103347e+00
  2.111867e+01    1.114192e+00
  2.113455e+01    1.107365e+00
  2.115042e+01    1.097887e+00
  2.116630e+01    1.103184e+00
  2.118217e+01    1.137891e+00
  2.119805e+01    1.138866e+00
  2.121392e+01    1.102310e+00
  2.122980e+01    1.096217e+00
  2.124567e+01    1.120570e+00
  2.126155e+01    1.143915e+00
  2.127743e+01    1.135007e+00
  2.129330e+01    1.146878e+00
  2.130918e+01    1.152641e+00
  2.132505e+01    1.136868e+00
  2.134093e+01    1.137720e+00
  2.135680e+01    1.177068e+00
  2.137268e+01    1.197756e+00
  2.138855e+01    1.200466e+00
  2.140443e+01    1.185237e+00
  2.142031e+01    1.191468e+00
  2.143618e+01    1.185000e+00
  2.145206e+01    1.210636e+00
  2.146793e+01    1.249311e+00
  2.148381e+01    1.291778e+00
  2.149968e+01    1.301478e+00
  2.151556e+01    1.337580e+00
  2.153143e+01    1.342204e+00
  2.154731e+01    1.373968e+00
  2.156319e+01    1.397620e+00
  2.157906e+01    1.434080e+00
  2.159494e+01    1.492949e+00
  2.161081e+01    1.555920e+00
  2.162669e+01    1.635180e+00
  2.164256e+01    1.693865e+00
  2.165844e+01    1.780766e+00
  2.167431e+01    1.937384e+00
  2.169019e+01    2.084314e+00
  2.170607e+01    2.237090e+00
  2.172194e+01    2.488786e+00
  2.173782e+01    2.768749e+00
  2.175369e+01    3.121775e+00
  2.176957e+01    3.540567e+00
  2.178544e+01    4.105530e+00
  2.180132e+01    4.706538e+00
  2.181719e+01    5.447428e+00
  2.183307e+01    6.275702e+00
  2.184895e+01    7.160535e+00
  2.186482e+01    7.979650e+00
  2.188070e+01    8.885563e+00
  2.189657e+01    9.825225e+00
  2.191245e+01    1.056996e+01
  2.192832e+01    1.108238e+01
  2.194420e+01    1.118497e+01
  2.196007e+01    1.086977e+01
  2.197595e+01    1.003704e+01
  2.199183e+01    8.902762e+00
  2.200770e+01    7.707873e+00
  2.202358e+01    6.472025e+00
  2.203945e+01    5.470806e+00
  2.205533e+01    4.640997e+00
  2.207120e+01    3.983424e+00
  2.208708e+01    3.451735e+00
  2.210296e+01    3.064764e+00
  2.211883e+01    2.682887e+00
  2.213471e+01    2.454512e+00
  2.215058e+01    2.217969e+00
  2.216646e+01    2.038302e+00
  2.218233e+01    1.903636e+00
  2.219821e+01    1.787422e+00
  2.221408e+01    1.681717e+00
  2.222996e+01    1.591625e+00
  2.224584e+01    1.496501e+00
  2.226171e+01    1.434050e+00
  2.227759e+01    1.409293e+00
  2.229346e+01    1.355884e+00
  2.230934e+01    1.313364e+00
  2.232521e+01    1.307625e+00
  2.234109e+01    1.260741e+00
  2.235696e+01    1.240837e+00
  2.237284e+01    1.191519e+00
  2.238872e+01    1.176229e+00
  2.240459e+01    1.164561e+00
  2.242047e+01    1.128064e+00
  2.243634e+01    1.126687e+00
  2.245222e+01    1.135187e+00
  2.246809e+01    1.114980e+00
  2.248397e+01    1.107152e+00
  2.249984e+01    1.100528e+00
  2.251572e+01    1.088306e+00
  2.253160e+01    1.065451e+00
  2.254747e+01    1.047753e+00
  2.256335e+01    1.040020e+00
  2.257922e+01    1.046206e+00
  2.259510e+01    1.055408e+00
  2.261097e+01    1.017972e+00
  2.262685e+01    1.002562e+00
  2.264272e+01    9.993399e-01
  2.265860e+01    1.002498e+00
  2.267448e+01    1.008461e+00
  2.269035e+01    1.011386e+00
  2.270623e+01    1.020811e+00
  2.272210e+01    9.812176e-01
  2.273798e+01    9.811834e-01
  2.275385e+01    9.704334e-01
  2.276973e+01    9.643717e-01
  2.278560e+01    9.591466e-01
  2.280148e+01    9.553222e-01
  2.281736e+01    9.647520e-01
  2.283323e+01    9.600322e-01
  2.284911e+01    9.590551e-01
  2.286498e+01    9.700261e-01
  2.288086e+01    9.694429e-01
  2.289673e+01    9.428422e-01
  2.291261e+01    9.318280e-01
  2.292848e+01    9.425902e-01
  2.294436e+01    9.614230e-01
  2.296024e+01    9.624019e-01
  2.297611e+01    9.372901e-01
  2.299199e+01    9.275817e-01
  2.300786e+01    9.191045e-01
  2.302374e+01    9.320099e-01
  2.303961e+01    9.035736e-01
  2.305549e+01    9.021017e-01
  2.307137e+01    9.198558e-01
  2.308724e+01    9.296920e-01
  2.310312e+01    9.227182e-01
  2.311899e+01    9.339378e-01
  2.313487e+01    9.177810e-01
  2.315074e+01    9.206589e-01
  2.316662e+01    9.239883e-01
  2.318249e+01    9.154508e-01
  2.319837e+01    8.972547e-01
  2.321425e+01    8.877197e-01
  2.323012e+01    8.980901e-01
  2.324600e+01    8.903222e-01
  2.326187e+01    8.994397e-01
  2.327775e+01    9.017445e-01
  2.329362e+01    8.828499e-01
  2.330950e+01    8.901173e-01
  2.332537e+01    8.823389e-01
  2.334125e+01    8.574860e-01
  2.335713e+01    8.580604e-01
  2.337300e+01    8.826032e-01
  2.338888e+01    8.731955e-01
  2.340475e+01    8.760278e-01
  2.342063e+01    8.742036e-01
  2.343650e+01    8.953528e-01
  2.345238e+01    8.946088e-01
  2.346825e+01    8.798987e-01
  2.348413e+01    8.613271e-01
  2.350001e+01    8.569746e-01
  2.351588e+01    8.585539e-01
  2.353176e+01    8.672099e-01
  2.354763e+01    8.591174e-01
  2.356351e+01    8.475109e-01
  2.357938e+01    8.711404e-01
  2.359526e+01    8.824139e-01
  2.361113e+01    8.623648e-01
  2.362701e+01    8.675082e-01
  2.364289e+01    8.598294e-01
  2.365876e+01    8.353389e-01
  2.367464e+01    8.325924e-01
  2.369051e+01    8.464859e-01
  2.370639e+01    8.515556e-01
  2.372226e+01    8.338394e-01
  2.373814e+01    8.250364e-01
  2.375401e+01    8.527554e-01
  2.376989e+01    8.597060e-01
  2.378577e+01    8.400103e-01
  2.380164e+01    8.240495e-01
  2.381752e+01    8.269382e-01
  2.383339e+01    8.191915e-01
  2.384927e+01    8.066223e-01
  2.386514e+01    8.306676e-01
  2.388102e+01    8.158706e-01
  2.389689e+01    8.074450e-01
  2.391277e+01    8.214409e-01
  2.392865e+01    8.158867e-01
  2.394452e+01    8.225372e-01
  2.396040e+01    8.156326e-01
  2.397627e+01    8.073447e-01
  2.399215e+01    8.183588e-01
  2.400802e+01    8.265415e-01
  2.402390e+01    8.050967e-01
  2.403978e+01    8.071548e-01
  2.405565e+01    8.121884e-01
  2.407153e+01    8.091645e-01
  2.408740e+01    8.144460e-01
  2.410328e+01    8.005376e-01
  2.411915e+01    8.040896e-01
  2.413503e+01    8.112587e-01
  2.415090e+01    8.094840e-01
  2.416678e+01    8.098660e-01
  2.418266e+01    7.935636e-01
  2.419853e+01    7.966091e-01
  2.421441e+01    8.139607e-01
  2.423028e+01    8.099976e-01
  2.424616e+01    7.847180e-01
  2.426203e+01    7.999646e-01
  2.427791e+01    7.935508e-01
  2.429378e+01    8.032740e-01
  2.430966e+01    8.013768e-01
  2.432554e+01    8.049845e-01
  2.434141e+01    8.148969e-01
  2.435729e+01    7.961010e-01
  2.437316e+01    7.910624e-01
  2.438904e+01    7.935780e-01
  2.440491e+01    7.878663e-01
  2.442079e+01    8.104137e-01
  2.443666e+01    8.074307e-01
  2.445254e+01    8.142682e-01
  2.446842e+01    8.135991e-01
  2.448429e+01    8.151829e-01
  2.450017e+01    7.933238e-01
  2.451604e+01    7.972056e-01
  2.453192e+01    8.183574e-01
  2.454779e+01    8.190569e-01
  2.456367e+01    8.271484e-01
  2.457954e+01    8.176662e-01
  2.459542e+01    8.115576e-01
  2.461130e+01    8.218744e-01
  2.462717e+01    8.131056e-01
  2.464305e+01    8.080872e-01
  2.465892e+01    8.085241e-01
  2.467480e+01    8.067924e-01
  2.469067e+01    8.058160e-01
  2.470655e+01    8.181427e-01
  2.472242e+01    8.172447e-01
  2.473830e+01    8.143600e-01
  2.475418e+01    8.207023e-01
  2.477005e+01    8.063915e-01
  2.478593e+01    7.934849e-01
  2.480180e+01    8.081493e-01
  2.481768e+01    8.096539e-01
  2.483355e+01    8.146783e-01
  2.484943e+01    8.136345e-01
  2.486530e+01    8.008603e-01
  2.488118e+01    7.947965e-01
  2.489706e+01    8.010952e-01
  2.491293e+01    8.143394e-01
  2.492881e+01    7.969531e-01
  2.494468e+01    8.004983e-01
  2.496056e+01    8.155659e-01
  2.497643e+01    8.068761e-01
  2.499231e+01    7.955013e-01
  2.500819e+01    8.112199e-01
  2.502406e+01    8.344810e-01
  2.503994e+01    8.290938e-01
  2.505581e+01    8.281657e-01
  2.507169e+01    8.290738e-01
  2.508756e+01    8.043701e-01
  2.510344e+01    8.212185e-01
  2.511931e+01    8.486577e-01
  2.513519e+01    8.346171e-01
  2.515107e+01    8.494318e-01
  2.516694e+01    8.534781e-01
  2.518282e+01    8.531050e-01
  2.519869e+01    8.463531e-01
  2.521457e+01    8.312855e-01
  2.523044e+01    8.607867e-01
  2.524632e+01    8.772468e-01
  2.526219e+01    8.625404e-01
  2.527807e+01    8.620144e-01
  2.529395e+01    8.944955e-01
  2.530982e+01    8.987017e-01
  2.532570e+01    8.906649e-01
  2.534157e+01    8.966500e-01
  2.535745e+01    8.911961e-01
  2.537332e+01    9.109593e-01
  2.538920e+01    9.172592e-01
  2.540507e+01    9.119285e-01
  2.542095e+01    9.279068e-01
  2.543683e+01    9.569258e-01
  2.545270e+01    9.541597e-01
  2.546858e+01    9.368420e-01
  2.548445e+01    9.525691e-01
  2.550033e+01    9.685397e-01
  2.551620e+01    9.820816e-01
  2.553208e+01    1.013855e+00
  2.554795e+01    1.029049e+00
  2.556383e+01    1.042978e+00
  2.557971e+01    1.065972e+00
  2.559558e+01    1.087024e+00
  2.561146e+01    1.115716e+00
  2.562733e+01    1.153518e+00
  2.564321e+01    1.191770e+00
  2.565908e+01    1.221509e+00
  2.567496e+01    1.277730e+00
  2.569083e+01    1.326252e+00
  2.570671e+01    1.371512e+00
  2.572259e+01    1.448359e+00
  2.573846e+01    1.539554e+00
  2.575434e+01    1.661444e+00
  2.577021e+01    1.790458e+00
  2.578609e+01    1.954290e+00
  2.580196e+01    2.152836e+00
  2.581784e+01    2.400033e+00
  2.583371e+01    2.707880e+00
  2.584959e+01    3.051282e+00
  2.586547e+01    3.519280e+00
  2.588134e+01    4.029264e+00
  2.589722e+01    4.640063e+00
  2.591309e+01    5.380401e+00
  2.592897e+01    6.135749e+00
  2.594484e+01    6.936125e+00
  2.596072e+01    7.754859e+00
  2.597660e+01    8.503225e+00
  2.599247e+01    9.082743e+00
  2.600835e+01    9.349540e+00
  2.602422e+01    9.277407e+00
  2.604010e+01    8.776700e+00
  2.605597e+01    7.992216e+00
  2.607185e+01    7.104228e+00
  2.608772e+01    6.152562e+00
  2.610360e+01    5.240124e+00
  2.611948e+01    4.522224e+00
  2.613535e+01    3.808834e+00
  2.615123e+01    3.284774e+00
  2.616710e+01    2.908989e+00
  2.618298e+01    2.543457e+00
  2.619885e+01    2.278896e+00
  2.621473e+01    2.082005e+00
  2.623060e+01    1.909022e+00
  2.624648e+01    1.744288e+00
  2.626236e+01    1.633791e+00
  2.627823e+01    1.545274e+00
  2.629411e+01    1.442339e+00
  2.630998e+01    1.382648e+00
  2.632586e+01    1.326375e+00
  2.634173e+01    1.239204e+00
  2.635761e+01    1.209632e+00
  2.637348e+01    1.164587e+00
  2.638936e+01    1.146869e+00
  2.640524e+01    1.118005e+00
  2.642111e+01    1.091379e+00
  2.643699e+01    1.071079e+00
  2.645286e+01    1.080439e+00
  2.646874e+01    1.049712e+00
  2.648461e+01    1.039871e+00
  2.650049e+01    1.013123e+00
  2.651636e+01    1.001059e+00
  2.653224e+01    9.899865e-01
  2.654812e+01    9.862553e-01
  2.656399e+01    9.916477e-01
  2.657987e+01    9.815270e-01
  2.659574e+01    9.787355e-01
  2.661162e+01    9.718891e-01
  2.662749e+01    9.657385e-01
  2.664337e+01    9.450828e-01
  2.665924e+01    9.262077e-01
  2.667512e+01    9.459070e-01
  2.669100e+01    9.474759e-01
  2.670687e+01    9.478480e-01
  2.672275e+01    9.351429e-01
  2.673862e+01    9.285355e-01
  2.675450e+01    9.378207e-01
  2.677037e+01    9.394084e-01
  2.678625e+01    9.326364e-01
  2.680212e+01    9.307445e-01
  2.681800e+01    9.448861e-01
  2.683388e+01    9.597616e-01
  2.684975e+01    9.558430e-01
  2.686563e+01    9.639474e-01
  2.688150e+01    9.395446e-01
  2.689738e+01    9.419652e-01
  2.691325e+01    9.577607e-01
  2.692913e+01    9.696578e-01
  2.694501e+01    9.702513e-01
  2.696088e+01    9.611045e-01
  2.697676e+01    1.003714e+00
  2.699263e+01    1.021026e+00
  2.700851e+01    1.015302e+00
  2.702438e+01    1.018657e+00
  2.704026e+01    1.061596e+00
  2.705613e+01    1.103054e+00
  2.707201e+01    1.151715e+00
  2.708789e+01    1.206089e+00
  2.710376e+01    1.267623e+00
  2.711964e+01    1.341415e+00
  2.713551e+01    1.449253e+00
  2.715139e+01    1.550157e+00
  2.716726e+01    1.674554e+00
  2.718314e+01    1.833885e+00
  2.719901e+01    1.994501e+00
  2.721489e+01    2.179412e+00
  2.723077e+01    2.354158e+00
  2.724664e+01    2.564912e+00
  2.726252e+01    2.637853e+00
  2.727839e+01    2.669679e+00
  2.729427e+01    2.599751e+00
  2.731014e+01    2.460671e+00
  2.732602e+01    2.270766e+00
  2.734189e+01    2.094921e+00
  2.735777e+01    1.884693e+00
  2.737365e+01    1.677207e+00
  2.738952e+01    1.545168e+00
  2.740540e+01    1.426921e+00
  2.742127e+01    1.334205e+00
  2.743715e+01    1.229702e+00
  2.745302e+01    1.178358e+00
  2.746890e+01    1.121211e+00
  2.748477e+01    1.079463e+00
  2.750065e+01    1.043894e+00
  2.751653e+01    1.031966e+00
  2.753240e+01    1.002216e+00
  2.754828e+01    9.742556e-01
  2.756415e+01    9.397122e-01
  2.758003e+01    9.267468e-01
  2.759590e+01    9.312916e-01
  2.761178e+01    9.487678e-01
  2.762765e+01    9.396190e-01
  2.764353e+01    9.155743e-01
  2.765941e+01    8.808141e-01
  2.767528e+01    8.739542e-01
  2.769116e+01    8.545848e-01
  2.770703e+01    8.467313e-01
  2.772291e+01    8.453953e-01
  2.773878e+01    8.772525e-01
  2.775466e+01    8.538206e-01
  2.777054e+01    8.449015e-01
  2.778641e+01    8.699560e-01
  2.780229e+01    8.506780e-01
  2.781816e+01    8.369304e-01
  2.783404e+01    8.514287e-01
  2.784991e+01    8.601481e-01
  2.786579e+01    8.399445e-01
  2.788166e+01    8.261313e-01
  2.789754e+01    8.175913e-01
  2.791342e+01    8.334970e-01
  2.792929e+01    8.167900e-01
  2.794517e+01    8.209143e-01
  2.796104e+01    8.140476e-01
  2.797692e+01    8.134935e-01
  2.799279e+01    8.224688e-01
  2.800867e+01    8.064156e-01
  2.802454e+01    8.101704e-01
  2.804042e+01    8.222730e-01
  2.805630e+01    8.052601e-01
  2.807217e+01    8.094577e-01
  2.808805e+01    8.278656e-01
  2.810392e+01    8.051388e-01
  2.811980e+01    8.091657e-01
  2.813567e+01    8.085005e-01
  2.815155e+01    8.095781e-01
  2.816742e+01    8.093868e-01
  2.818330e+01    8.017245e-01
  2.819918e+01    8.034534e-01
  2.821505e+01    7.948155e-01
  2.823093e+01    7.857350e-01
  2.824680e+01    7.935258e-01
  2.826268e+01    7.933927e-01
  2.827855e+01    7.952094e-01
  2.829443e+01    8.111315e-01
  2.831030e+01    7.972043e-01
  2.832618e+01    7.900174e-01
  2.834206e+01    7.598022e-01
  2.835793e+01    7.850241e-01
  2.837381e+01    8.111994e-01
  2.838968e+01    8.212368e-01
  2.840556e+01    7.982770e-01
  2.842143e+01    7.856627e-01
  2.843731e+01    7.651998e-01
  2.845318e+01    7.726578e-01
  2.846906e+01    7.598407e-01
  2.848494e+01    7.478747e-01
  2.850081e+01    7.697451e-01
  2.851669e+01    7.767116e-01
  2.853256e+01    7.682166e-01
  2.854844e+01    7.989879e-01
  2.856431e+01    7.861753e-01
  2.858019e+01    7.710994e-01
  2.859606e+01    7.959559e-01
  2.861194e+01    7.932262e-01
  2.862782e+01    7.837849e-01
  2.864369e+01    7.681205e-01
  2.865957e+01    7.828061e-01
  2.867544e+01    7.709309e-01
  2.869132e+01    7.629467e-01
  2.870719e+01    7.833489e-01
  2.872307e+01    7.773088e-01
  2.873895e+01    7.723476e-01
  2.875482e+01    7.749953e-01
  2.877070e+01    7.839886e-01
  2.878657e+01    7.679969e-01
  2.880245e+01    7.731957e-01
  2.881832e+01    7.771429e-01
  2.883420e+01    7.960926e-01
  2.885007e+01    7.811255e-01
  2.886595e+01    7.691860e-01
  2.888183e+01    7.657813e-01
  2.889770e+01    7.573396e-01
  2.891358e+01    7.681793e-01
  2.892945e+01    7.502767e-01
  2.894533e+01    7.587685e-01
  2.896120e+01    7.425693e-01
  2.897708e+01    7.497875e-01
  2.899295e+01    7.675490e-01
  2.900883e+01    7.642022e-01
  2.902471e+01    7.635872e-01
  2.904058e+01    7.522982e-01
  2.905646e+01    7.525721e-01
  2.907233e+01    7.538039e-01
  2.908821e+01    7.515286e-01
  2.910408e+01    7.528123e-01
  2.911996e+01    7.501260e-01
  2.913583e+01    7.516672e-01
  2.915171e+01    7.593928e-01
  2.916759e+01    7.432938e-01
  2.918346e+01    7.626746e-01
  2.919934e+01    7.758750e-01
  2.921521e+01    7.552502e-01
  2.923109e+01    7.520432e-01
  2.924696e+01    7.275558e-01
  2.926284e+01    7.403540e-01
  2.927871e+01    7.656223e-01
  2.929459e+01    7.377517e-01
  2.931047e+01    7.270930e-01
  2.932634e+01    7.223232e-01
  2.934222e+01    7.452997e-01
  2.935809e+01    7.792342e-01
  2.937397e+01    7.656373e-01
  2.938984e+01    7.722290e-01
  2.940572e+01    7.531751e-01
  2.942159e+01    7.221941e-01
  2.943747e+01    7.289360e-01
  2.945335e+01    7.331197e-01
  2.946922e+01    7.321413e-01
  2.948510e+01    7.433571e-01
  2.950097e+01    7.512100e-01
  2.951685e+01    7.407625e-01
  2.953272e+01    7.408202e-01
  2.954860e+01    7.398936e-01
  2.956447e+01    7.527134e-01
  2.958035e+01    7.291408e-01
  2.959623e+01    7.576419e-01
  2.961210e+01    7.419185e-01
  2.962798e+01    7.675658e-01
  2.964385e+01    7.357725e-01
  2.965973e+01    7.400405e-01
  2.967560e+01    7.370206e-01
  2.969148e+01    7.446690e-01
  2.970736e+01    7.533786e-01
  2.972323e+01    7.558532e-01
  2.973911e+01    7.317182e-01
  2.975498e+01    7.343162e-01
  2.977086e+01    7.500721e-01
  2.978673e+01    7.416836e-01
  2.980261e+01    7.309133e-01
  2.981848e+01    7.410442e-01
  2.983436e+01    7.311072e-01
  2.985024e+01    7.452047e-01
  2.986611e+01    7.237510e-01
  2.988199e+01    7.187755e-01
  2.989786e+01    7.347729e-01
  2.991374e+01    7.396439e-01
  2.992961e+01    7.405430e-01
  2.994549e+01    7.445229e-01
  2.996136e+01    7.347055e-01
  2.997724e+01    7.344196e-01
  2.999312e+01    7.474672e-01
  3.000899e+01    7.302413e-01
  3.002487e+01    7.435151e-01
  3.004074e+01    7.611400e-01
  3.005662e+01    7.588950e-01
  3.007249e+01    7.690409e-01
  3.008837e+01    7.581886e-01
  3.010424e+01    7.636900e-01
  3.012012e+01    7.453954e-01
  3.013600e+01    7.343176e-01
  3.015187e+01    7.268565e-01
  3.016775e+01    7.438786e-01
  3.018362e+01    7.281957e-01
  3.019950e+01    7.239866e-01
  3.021537e+01    7.154044e-01
  3.023125e+01    7.069607e-01
  3.024712e+01    7.364444e-01
  3.026300e+01    7.457055e-01
  3.027888e+01    7.367750e-01
  3.029475e+01    7.271428e-01
  3.031063e+01    7.538564e-01
  3.032650e+01    7.222399e-01
  3.034238e+01    7.175969e-01
  3.035825e+01    7.343382e-01
  3.037413e+01    7.390078e-01
  3.039000e+01    7.316379e-01
  3.040588e+01    7.380207e-01
  3.042176e+01    7.476687e-01
  3.043763e+01    7.327268e-01
  3.045351e+01    7.525325e-01
  3.046938e+01    7.236964e-01
  3.048526e+01    7.298300e-01
  3.050113e+01    7.281230e-01
  3.051701e+01    6.926050e-01
  3.053288e+01    7.162867e-01
  3.054876e+01    7.262910e-01
  3.056464e+01    7.227021e-01
  3.058051e+01    7.276571e-01
  3.059639e+01    7.173455e-01
  3.061226e+01    7.350556e-01
  3.062814e+01    7.302321e-01
  3.064401e+01    7.384520e-01
  3.065989e+01    7.116233e-01
  3.067577e+01    7.174379e-01
  3.069164e+01    7.155181e-01
  3.070752e+01    7.292332e-01
  3.072339e+01    7.090084e-01
  3.073927e+01    7.123428e-01
  3.075514e+01    7.294641e-01
  3.077102e+01    7.357705e-01
  3.078689e+01    7.306217e-01
  3.080277e+01    7.200929e-01
  3.081865e+01    7.243636e-01
  3.083452e+01    7.321399e-01
  3.085040e+01    7.181654e-01
  3.086627e+01    7.343260e-01
  3.088215e+01    7.296852e-01
  3.089802e+01    7.289983e-01
  3.091390e+01    7.377340e-01
  3.092977e+01    7.563583e-01
  3.094565e+01    7.368537e-01
  3.096153e+01    7.164606e-01
  3.097740e+01    7.243962e-01
  3.099328e+01    7.578076e-01
  3.100915e+01    7.392231e-01
  3.102503e+01    7.563729e-01
  3.104090e+01    7.642084e-01
  3.105678e+01    7.388356e-01
  3.107265e+01    7.313077e-01
  3.108853e+01    7.319388e-01
  3.110441e+01    7.269213e-01
  3.112028e+01    7.357098e-01
  3.113616e+01    7.411796e-01
  3.115203e+01    7.596515e-01
  3.116791e+01    7.587080e-01
  3.118378e+01    7.357637e-01
  3.119966e+01    7.383480e-01
  3.121553e+01    7.523764e-01
  3.123141e+01    7.494568e-01
  3.124729e+01    7.731673e-01
  3.126316e+01    7.535526e-01
  3.127904e+01    7.461453e-01
  3.129491e+01    7.403691e-01
  3.131079e+01    7.333198e-01
  3.132666e+01    7.317070e-01
  3.134254e+01    7.482231e-01
  3.135841e+01    7.404199e-01
  3.137429e+01    7.636585e-01
  3.139017e+01    7.505111e-01
  3.140604e+01    7.576954e-01
  3.142192e+01    7.848203e-01
  3.143779e+01    7.593359e-01
  3.145367e+01    7.502899e-01
  3.146954e+01    7.607002e-01
  3.148542e+01    7.727621e-01
  3.150129e+01    7.761797e-01
  3.151717e+01    7.864785e-01
  3.153305e+01    7.775224e-01
  3.154892e+01    7.922545e-01
  3.156480e+01    7.927511e-01
  3.158067e+01    8.070726e-01
  3.159655e+01    8.167838e-01
  3.161242e+01    8.333321e-01
  3.162830e+01    8.290962e-01
  3.164418e+01    8.424482e-01
  3.166005e+01    8.419369e-01
  3.167593e+01    8.726568e-01
  3.169180e+01    8.985012e-01
  3.170768e+01    9.242122e-01
  3.172355e+01    9.470477e-01
  3.173943e+01    9.895558e-01
  3.175530e+01    1.038974e+00
  3.177118e+01    1.036344e+00
  3.178706e+01    1.112636e+00
  3.180293e+01    1.184971e+00
  3.181881e+01    1.277169e+00
  3.183468e+01    1.331712e+00
  3.185056e+01    1.471813e+00
  3.186643e+01    1.651727e+00
  3.188231e+01    1.806158e+00
  3.189818e+01    1.987016e+00
  3.191406e+01    2.165814e+00
  3.192994e+01    2.393713e+00
  3.194581e+01    2.522776e+00
  3.196169e+01    2.630781e+00
  3.197756e+01    2.631054e+00
  3.199344e+01    2.516284e+00
  3.200931e+01    2.433166e+00
  3.202519e+01    2.272082e+00
  3.204106e+01    2.090447e+00
  3.205694e+01    1.866923e+00
  3.207282e+01    1.648164e+00
  3.208869e+01    1.475381e+00
  3.210457e+01    1.359992e+00
  3.212044e+01    1.258638e+00
  3.213632e+01    1.159010e+00
  3.215219e+01    1.103552e+00
  3.216807e+01    1.022009e+00
  3.218394e+01    9.789455e-01
  3.219982e+01    9.640421e-01
  3.221570e+01    9.091090e-01
  3.223157e+01    8.747362e-01
  3.224745e+01    8.633550e-01
  3.226332e+01    8.371428e-01
  3.227920e+01    8.478687e-01
  3.229507e+01    8.359454e-01
  3.231095e+01    8.157222e-01
  3.232682e+01    8.287272e-01
  3.234270e+01    7.875651e-01
  3.235858e+01    7.661718e-01
  3.237445e+01    7.650100e-01
  3.239033e+01    7.798430e-01
  3.240620e+01    7.810825e-01
  3.242208e+01    7.738048e-01
  3.243795e+01    7.858942e-01
  3.245383e+01    7.813985e-01
  3.246970e+01    7.811329e-01
  3.248558e+01    7.775812e-01
  3.250146e+01    7.330669e-01
  3.251733e+01    7.459372e-01
  3.253321e+01    7.578334e-01
  3.254908e+01    7.584661e-01
