# == pyFAI calibration ==
# Distance Sample to Detector: 0.3999999939076516 m
# PONI: 9.750e-02, 1.135e-01 m
# Rotations: -0.000175 0.000000 -0.000000 rad
# 
# == Fit2d calibration ==
# Distance Sample-beamCenter: 400.000 mm
# Center: x=1514.000, y=1300.000 pix
# Tilt: 0.010 deg  TiltPlanRot: 0.010 deg
# 
# Detector Detector	 Spline= None	 PixelSize= 7.500e-05, 7.500e-05 m
#    Detector has a mask: False 
#    Detector has a dark current: False 
#    detector has a flat field: False 
# 
# Wavelength: 6.888e-11 m
# Mask applied: user provided
# Dark current applied: False
# Flat field applied: False
# Polarization factor: 0.99
# Normalization factor: 1.0
# --> /home/myspot/data/2024_07_Rosario/Ru-CGO-ex/2024-07-27_002_Ru-CGO-ex_Activtation_ramp_000002_data_000188.dat
#       q_nm^-1             I 
  2.003187e-02    0.000000e+00
  3.590745e-02    0.000000e+00
  5.178302e-02    2.671360e-02
  6.765859e-02    1.028294e-01
  8.353417e-02    2.995844e-02
  9.940974e-02    0.000000e+00
  1.152853e-01    2.424119e-02
  1.311609e-01    9.306603e-02
  1.470365e-01    4.734386e-02
  1.629120e-01    3.283910e-02
  1.787876e-01    5.714611e-03
  1.946632e-01    3.745657e-02
  2.105388e-01    5.154136e-02
  2.264143e-01    3.587036e-02
  2.422899e-01    2.203599e-02
  2.581655e-01    3.330408e-02
  2.740411e-01    5.723830e-02
  2.899166e-01    4.393564e-02
  3.057922e-01    2.835788e-02
  3.216678e-01    5.152233e-02
  3.375433e-01    7.621591e-02
  3.534189e-01    7.808016e-02
  3.692945e-01    5.899182e-02
  3.851701e-01    9.999636e-03
  4.010456e-01    3.030713e-02
  4.169212e-01    3.224035e-02
  4.327968e-01    3.115854e-02
  4.486724e-01    6.053368e-02
  4.645479e-01    3.178027e-02
  4.804235e-01    8.944618e-03
  4.962991e-01    2.611032e-02
  5.121747e-01    3.836516e-02
  5.280502e-01    4.768611e-02
  5.439258e-01    5.353220e-02
  5.598014e-01    3.711041e-02
  5.756770e-01    2.493647e-02
  5.915525e-01    4.350252e-02
  6.074281e-01    4.757683e-02
  6.233037e-01    3.202278e-02
  6.391793e-01    3.616045e-02
  6.550548e-01    3.682267e-02
  6.709304e-01    3.981764e-02
  6.868060e-01    4.459606e-02
  7.026815e-01    2.936403e-02
  7.185571e-01    2.750696e-02
  7.344327e-01    3.241082e-02
  7.503083e-01    6.076538e-02
  7.661838e-01    8.721083e-02
  7.820594e-01    7.336261e-02
  7.979350e-01    1.224468e-01
  8.138106e-01    1.920143e-01
  8.296861e-01    2.418564e-01
  8.455617e-01    3.793757e-01
  8.614373e-01    4.010593e-01
  8.773129e-01    4.801360e-01
  8.931884e-01    5.168852e-01
  9.090640e-01    5.636668e-01
  9.249396e-01    6.015063e-01
  9.408152e-01    7.024466e-01
  9.566907e-01    7.758726e-01
  9.725663e-01    9.616069e-01
  9.884419e-01    9.728626e-01
  1.004317e+00    9.305870e-01
  1.020193e+00    9.983571e-01
  1.036069e+00    1.073779e+00
  1.051944e+00    1.158010e+00
  1.067820e+00    1.307145e+00
  1.083695e+00    1.370561e+00
  1.099571e+00    1.307593e+00
  1.115446e+00    1.326830e+00
  1.131322e+00    1.438675e+00
  1.147198e+00    1.526745e+00
  1.163073e+00    1.555077e+00
  1.178949e+00    1.569661e+00
  1.194824e+00    1.610097e+00
  1.210700e+00    1.737797e+00
  1.226575e+00    2.002385e+00
  1.242451e+00    2.178618e+00
  1.258327e+00    2.261913e+00
  1.274202e+00    2.360294e+00
  1.290078e+00    2.413755e+00
  1.305953e+00    2.367155e+00
  1.321829e+00    2.521059e+00
  1.337705e+00    2.514785e+00
  1.353580e+00    2.501890e+00
  1.369456e+00    2.570080e+00
  1.385331e+00    2.588154e+00
  1.401207e+00    2.426896e+00
  1.417082e+00    2.632132e+00
  1.432958e+00    2.497134e+00
  1.448834e+00    2.557216e+00
  1.464709e+00    2.752711e+00
  1.480585e+00    2.769442e+00
  1.496460e+00    2.766195e+00
  1.512336e+00    2.848367e+00
  1.528211e+00    2.800655e+00
  1.544087e+00    2.926167e+00
  1.559963e+00    3.042533e+00
  1.575838e+00    2.872407e+00
  1.591714e+00    2.872945e+00
  1.607589e+00    2.908911e+00
  1.623465e+00    2.724354e+00
  1.639340e+00    2.766584e+00
  1.655216e+00    2.917094e+00
  1.671092e+00    2.709990e+00
  1.686967e+00    2.634161e+00
  1.702843e+00    2.745141e+00
  1.718718e+00    2.891915e+00
  1.734594e+00    2.802408e+00
  1.750469e+00    2.796075e+00
  1.766345e+00    2.769210e+00
  1.782221e+00    2.649546e+00
  1.798096e+00    2.695764e+00
  1.813972e+00    2.774501e+00
  1.829847e+00    2.756266e+00
  1.845723e+00    2.658283e+00
  1.861598e+00    2.629815e+00
  1.877474e+00    2.706651e+00
  1.893350e+00    2.790552e+00
  1.909225e+00    2.786474e+00
  1.925101e+00    2.693198e+00
  1.940976e+00    2.650757e+00
  1.956852e+00    2.620290e+00
  1.972727e+00    2.734333e+00
  1.988603e+00    2.842897e+00
  2.004479e+00    2.771366e+00
  2.020354e+00    2.643479e+00
  2.036230e+00    2.743673e+00
  2.052105e+00    2.809774e+00
  2.067981e+00    2.739932e+00
  2.083856e+00    2.741276e+00
  2.099732e+00    2.734358e+00
  2.115608e+00    2.706487e+00
  2.131483e+00    2.660361e+00
  2.147359e+00    2.783933e+00
  2.163234e+00    2.719755e+00
  2.179110e+00    2.810460e+00
  2.194985e+00    2.772490e+00
  2.210861e+00    2.758528e+00
  2.226737e+00    2.740820e+00
  2.242612e+00    2.585892e+00
  2.258488e+00    2.645864e+00
  2.274363e+00    2.743827e+00
  2.290239e+00    2.739097e+00
  2.306115e+00    2.748544e+00
  2.321990e+00    2.760625e+00
  2.337866e+00    2.808237e+00
  2.353741e+00    2.817184e+00
  2.369617e+00    2.820355e+00
  2.385492e+00    2.777165e+00
  2.401368e+00    2.800268e+00
  2.417244e+00    2.737139e+00
  2.433119e+00    2.755781e+00
  2.448995e+00    2.834615e+00
  2.464870e+00    2.748669e+00
  2.480746e+00    2.732308e+00
  2.496621e+00    2.840724e+00
  2.512497e+00    2.834157e+00
  2.528373e+00    2.781982e+00
  2.544248e+00    2.732008e+00
  2.560124e+00    2.814270e+00
  2.575999e+00    2.825418e+00
  2.591875e+00    2.784835e+00
  2.607750e+00    2.858195e+00
  2.623626e+00    2.763588e+00
  2.639502e+00    2.821988e+00
  2.655377e+00    2.831744e+00
  2.671253e+00    2.774726e+00
  2.687128e+00    2.783644e+00
  2.703004e+00    2.798889e+00
  2.718879e+00    2.754877e+00
  2.734755e+00    2.734258e+00
  2.750631e+00    2.837066e+00
  2.766506e+00    2.826994e+00
  2.782382e+00    2.776231e+00
  2.798257e+00    2.824583e+00
  2.814133e+00    2.789755e+00
  2.830008e+00    2.796796e+00
  2.845884e+00    2.919311e+00
  2.861760e+00    2.911170e+00
  2.877635e+00    2.757590e+00
  2.893511e+00    2.734655e+00
  2.909386e+00    2.716669e+00
  2.925262e+00    2.829568e+00
  2.941137e+00    2.858618e+00
  2.957013e+00    2.893363e+00
  2.972889e+00    2.906212e+00
  2.988764e+00    2.853774e+00
  3.004640e+00    2.919011e+00
  3.020515e+00    2.923145e+00
  3.036391e+00    2.841787e+00
  3.052266e+00    2.931596e+00
  3.068142e+00    2.991094e+00
  3.084018e+00    3.000955e+00
  3.099893e+00    2.842846e+00
  3.115769e+00    2.861783e+00
  3.131644e+00    2.801743e+00
  3.147520e+00    2.845954e+00
  3.163395e+00    2.908055e+00
  3.179271e+00    2.914826e+00
  3.195147e+00    2.863772e+00
  3.211022e+00    2.871919e+00
  3.226898e+00    2.895984e+00
  3.242773e+00    3.009803e+00
  3.258649e+00    2.994625e+00
  3.274525e+00    2.999031e+00
  3.290400e+00    2.945886e+00
  3.306276e+00    2.902166e+00
  3.322151e+00    2.969881e+00
  3.338027e+00    3.058033e+00
  3.353902e+00    2.967185e+00
  3.369778e+00    2.866990e+00
  3.385654e+00    2.955321e+00
  3.401529e+00    2.900661e+00
  3.417405e+00    2.957593e+00
  3.433280e+00    2.943337e+00
  3.449156e+00    2.959016e+00
  3.465031e+00    2.936783e+00
  3.480907e+00    2.937850e+00
  3.496783e+00    2.899668e+00
  3.512658e+00    2.886998e+00
  3.528534e+00    2.910422e+00
  3.544409e+00    2.925492e+00
  3.560285e+00    2.942294e+00
  3.576160e+00    3.046621e+00
  3.592036e+00    2.976655e+00
  3.607912e+00    2.983851e+00
  3.623787e+00    3.113933e+00
  3.639663e+00    3.010512e+00
  3.655538e+00    3.023481e+00
  3.671414e+00    3.046506e+00
  3.687289e+00    3.037134e+00
  3.703165e+00    3.053010e+00
  3.719041e+00    3.025376e+00
  3.734916e+00    3.049320e+00
  3.750792e+00    3.001230e+00
  3.766667e+00    2.989258e+00
  3.782543e+00    2.992701e+00
  3.798418e+00    3.080163e+00
  3.814294e+00    3.039698e+00
  3.830170e+00    3.042338e+00
  3.846045e+00    3.036509e+00
  3.861921e+00    3.030709e+00
  3.877796e+00    2.987993e+00
  3.893672e+00    2.969853e+00
  3.909547e+00    2.950629e+00
  3.925423e+00    3.000087e+00
  3.941299e+00    3.003697e+00
  3.957174e+00    3.012966e+00
  3.973050e+00    3.061633e+00
  3.988925e+00    3.086083e+00
  4.004801e+00    3.094291e+00
  4.020676e+00    3.003308e+00
  4.036552e+00    2.975952e+00
  4.052428e+00    3.078411e+00
  4.068303e+00    3.024139e+00
  4.084179e+00    2.995512e+00
  4.100054e+00    3.063746e+00
  4.115930e+00    3.017372e+00
  4.131806e+00    3.002570e+00
  4.147681e+00    2.956769e+00
  4.163557e+00    2.986011e+00
  4.179432e+00    2.973354e+00
  4.195308e+00    3.009325e+00
  4.211183e+00    3.064070e+00
  4.227059e+00    3.050508e+00
  4.242935e+00    3.098657e+00
  4.258810e+00    3.069886e+00
  4.274686e+00    3.052510e+00
  4.290561e+00    3.071279e+00
  4.306437e+00    3.092849e+00
  4.322312e+00    3.117596e+00
  4.338188e+00    3.153270e+00
  4.354064e+00    3.177162e+00
  4.369939e+00    3.102480e+00
  4.385815e+00    3.048707e+00
  4.401690e+00    3.052603e+00
  4.417566e+00    3.134927e+00
  4.433441e+00    3.161915e+00
  4.449317e+00    3.097969e+00
  4.465193e+00    3.067052e+00
  4.481068e+00    3.091649e+00
  4.496944e+00    3.085521e+00
  4.512819e+00    3.113582e+00
  4.528695e+00    3.024046e+00
  4.544570e+00    3.050694e+00
  4.560446e+00    3.017317e+00
  4.576322e+00    3.054046e+00
  4.592197e+00    3.038579e+00
  4.608073e+00    3.063164e+00
  4.623948e+00    3.051503e+00
  4.639824e+00    3.017172e+00
  4.655699e+00    3.071684e+00
  4.671575e+00    3.020348e+00
  4.687451e+00    3.064805e+00
  4.703326e+00    3.097848e+00
  4.719202e+00    3.113024e+00
  4.735077e+00    3.112834e+00
  4.750953e+00    3.092303e+00
  4.766828e+00    3.213075e+00
  4.782704e+00    3.194181e+00
  4.798580e+00    3.183288e+00
  4.814455e+00    3.148727e+00
  4.830331e+00    3.203372e+00
  4.846206e+00    3.153602e+00
  4.862082e+00    3.126765e+00
  4.877957e+00    3.088474e+00
  4.893833e+00    3.183041e+00
  4.909709e+00    3.210871e+00
  4.925584e+00    3.208347e+00
  4.941460e+00    3.178098e+00
  4.957335e+00    3.121767e+00
  4.973211e+00    3.104333e+00
  4.989086e+00    3.143637e+00
  5.004962e+00    3.130809e+00
  5.020838e+00    3.156712e+00
  5.036713e+00    3.177735e+00
  5.052589e+00    3.075872e+00
  5.068464e+00    3.112744e+00
  5.084340e+00    3.138792e+00
  5.100216e+00    3.168180e+00
  5.116091e+00    3.133687e+00
  5.131967e+00    3.105333e+00
  5.147842e+00    3.173005e+00
  5.163718e+00    3.157343e+00
  5.179593e+00    3.182937e+00
  5.195469e+00    3.153959e+00
  5.211345e+00    3.145777e+00
  5.227220e+00    3.178740e+00
  5.243096e+00    3.154735e+00
  5.258971e+00    3.063083e+00
  5.274847e+00    3.163139e+00
  5.290722e+00    3.245143e+00
  5.306598e+00    3.255786e+00
  5.322474e+00    3.131394e+00
  5.338349e+00    3.086373e+00
  5.354225e+00    3.047017e+00
  5.370100e+00    3.128846e+00
  5.385976e+00    3.126855e+00
  5.401851e+00    3.120637e+00
  5.417727e+00    3.050064e+00
  5.433603e+00    3.045778e+00
  5.449478e+00    3.093547e+00
  5.465354e+00    3.088048e+00
  5.481229e+00    3.022783e+00
  5.497105e+00    3.076298e+00
  5.512980e+00    3.095301e+00
  5.528856e+00    3.186492e+00
  5.544732e+00    3.118776e+00
  5.560607e+00    3.157337e+00
  5.576483e+00    3.134720e+00
  5.592358e+00    3.068818e+00
  5.608234e+00    3.038508e+00
  5.624109e+00    3.101912e+00
  5.639985e+00    3.202776e+00
  5.655861e+00    3.141104e+00
  5.671736e+00    3.045303e+00
  5.687612e+00    3.038988e+00
  5.703487e+00    3.059494e+00
  5.719363e+00    3.111024e+00
  5.735238e+00    3.069716e+00
  5.751114e+00    3.102384e+00
  5.766990e+00    3.093426e+00
  5.782865e+00    3.076339e+00
  5.798741e+00    3.103297e+00
  5.814616e+00    3.171613e+00
  5.830492e+00    3.156233e+00
  5.846367e+00    3.082764e+00
  5.862243e+00    3.054681e+00
  5.878119e+00    3.011662e+00
  5.893994e+00    3.057218e+00
  5.909870e+00    3.069759e+00
  5.925745e+00    3.064183e+00
  5.941621e+00    3.053120e+00
  5.957497e+00    3.074456e+00
  5.973372e+00    2.997948e+00
  5.989248e+00    3.016745e+00
  6.005123e+00    2.962562e+00
  6.020999e+00    3.016845e+00
  6.036874e+00    3.000649e+00
  6.052750e+00    3.068657e+00
  6.068626e+00    3.069389e+00
  6.084501e+00    3.122375e+00
  6.100377e+00    3.092046e+00
  6.116252e+00    3.109794e+00
  6.132128e+00    3.090845e+00
  6.148003e+00    3.077924e+00
  6.163879e+00    3.109991e+00
  6.179755e+00    3.100162e+00
  6.195630e+00    3.075974e+00
  6.211506e+00    3.015364e+00
  6.227381e+00    3.015180e+00
  6.243257e+00    3.021671e+00
  6.259132e+00    3.070210e+00
  6.275008e+00    3.086370e+00
  6.290884e+00    3.036797e+00
  6.306759e+00    3.043403e+00
  6.322635e+00    3.025219e+00
  6.338510e+00    3.044019e+00
  6.354386e+00    3.088379e+00
  6.370261e+00    3.031083e+00
  6.386137e+00    3.029201e+00
  6.402013e+00    3.033079e+00
  6.417888e+00    3.027413e+00
  6.433764e+00    3.047593e+00
  6.449639e+00    2.995240e+00
  6.465515e+00    3.071053e+00
  6.481390e+00    3.050765e+00
  6.497266e+00    3.079461e+00
  6.513142e+00    3.005108e+00
  6.529017e+00    3.049208e+00
  6.544893e+00    3.026056e+00
  6.560768e+00    3.031235e+00
  6.576644e+00    3.024289e+00
  6.592519e+00    3.087046e+00
  6.608395e+00    3.036147e+00
  6.624271e+00    2.977170e+00
  6.640146e+00    3.016796e+00
  6.656022e+00    3.048597e+00
  6.671897e+00    3.064270e+00
  6.687773e+00    3.033188e+00
  6.703648e+00    3.108291e+00
  6.719524e+00    3.077203e+00
  6.735400e+00    3.044796e+00
  6.751275e+00    3.026762e+00
  6.767151e+00    3.042491e+00
  6.783026e+00    2.974103e+00
  6.798902e+00    3.012984e+00
  6.814777e+00    3.061920e+00
  6.830653e+00    3.122303e+00
  6.846529e+00    3.045227e+00
  6.862404e+00    3.028431e+00
  6.878280e+00    3.073439e+00
  6.894155e+00    3.083250e+00
  6.910031e+00    2.987059e+00
  6.925907e+00    3.004346e+00
  6.941782e+00    3.046340e+00
  6.957658e+00    3.067768e+00
  6.973533e+00    3.065660e+00
  6.989409e+00    3.014791e+00
  7.005284e+00    3.021580e+00
  7.021160e+00    2.998127e+00
  7.037036e+00    3.027209e+00
  7.052911e+00    3.061538e+00
  7.068787e+00    3.036041e+00
  7.084662e+00    3.085940e+00
  7.100538e+00    3.002399e+00
  7.116413e+00    3.040244e+00
  7.132289e+00    3.067325e+00
  7.148165e+00    3.055076e+00
  7.164040e+00    3.080940e+00
  7.179916e+00    3.032274e+00
  7.195791e+00    3.079078e+00
  7.211667e+00    3.068765e+00
  7.227542e+00    3.036552e+00
  7.243418e+00    3.067301e+00
  7.259294e+00    3.039803e+00
  7.275169e+00    3.017409e+00
  7.291045e+00    3.075188e+00
  7.306920e+00    3.104978e+00
  7.322796e+00    3.020783e+00
  7.338671e+00    3.021899e+00
  7.354547e+00    2.992889e+00
  7.370423e+00    3.032746e+00
  7.386298e+00    2.969097e+00
  7.402174e+00    2.949731e+00
  7.418049e+00    2.956330e+00
  7.433925e+00    3.004324e+00
  7.449800e+00    2.979177e+00
  7.465676e+00    2.960669e+00
  7.481552e+00    2.954515e+00
  7.497427e+00    2.927126e+00
  7.513303e+00    2.984763e+00
  7.529178e+00    2.972091e+00
  7.545054e+00    3.004861e+00
  7.560929e+00    3.031563e+00
  7.576805e+00    3.003987e+00
  7.592681e+00    3.015053e+00
  7.608556e+00    3.007981e+00
  7.624432e+00    2.986455e+00
  7.640307e+00    3.015176e+00
  7.656183e+00    3.033982e+00
  7.672058e+00    2.993526e+00
  7.687934e+00    2.936190e+00
  7.703810e+00    2.955389e+00
  7.719685e+00    2.945767e+00
  7.735561e+00    2.981294e+00
  7.751436e+00    2.982222e+00
  7.767312e+00    2.916694e+00
  7.783187e+00    2.940559e+00
  7.799063e+00    2.924908e+00
  7.814939e+00    2.856344e+00
  7.830814e+00    2.904579e+00
  7.846690e+00    2.980971e+00
  7.862565e+00    2.934333e+00
  7.878441e+00    2.882014e+00
  7.894317e+00    2.896610e+00
  7.910192e+00    2.948541e+00
  7.926068e+00    2.965853e+00
  7.941943e+00    2.950651e+00
  7.957819e+00    2.922802e+00
  7.973694e+00    2.940042e+00
  7.989570e+00    2.966461e+00
  8.005446e+00    2.911669e+00
  8.021321e+00    2.935239e+00
  8.037197e+00    2.895567e+00
  8.053072e+00    2.920558e+00
  8.068948e+00    2.914582e+00
  8.084823e+00    2.930566e+00
  8.100699e+00    2.989883e+00
  8.116575e+00    3.004333e+00
  8.132450e+00    2.995444e+00
  8.148326e+00    2.988197e+00
  8.164201e+00    2.959973e+00
  8.180077e+00    2.982824e+00
  8.195952e+00    2.931456e+00
  8.211828e+00    2.932306e+00
  8.227704e+00    2.946957e+00
  8.243579e+00    2.953223e+00
  8.259455e+00    2.888481e+00
  8.275330e+00    2.893699e+00
  8.291206e+00    2.960447e+00
  8.307081e+00    2.982469e+00
  8.322957e+00    2.875089e+00
  8.338833e+00    2.900559e+00
  8.354708e+00    2.939304e+00
  8.370584e+00    2.880074e+00
  8.386459e+00    2.856209e+00
  8.402335e+00    2.897645e+00
  8.418210e+00    2.900645e+00
  8.434086e+00    2.910125e+00
  8.449962e+00    2.900181e+00
  8.465837e+00    2.915116e+00
  8.481713e+00    2.931072e+00
  8.497588e+00    2.930222e+00
  8.513464e+00    2.891966e+00
  8.529339e+00    2.828431e+00
  8.545215e+00    2.846593e+00
  8.561091e+00    2.895263e+00
  8.576966e+00    2.823904e+00
  8.592842e+00    2.882093e+00
  8.608717e+00    2.872336e+00
  8.624593e+00    2.892996e+00
  8.640468e+00    2.902267e+00
  8.656344e+00    2.859825e+00
  8.672220e+00    2.847210e+00
  8.688095e+00    2.904579e+00
  8.703971e+00    2.957159e+00
  8.719846e+00    2.863780e+00
  8.735722e+00    2.863977e+00
  8.751598e+00    2.903451e+00
  8.767473e+00    2.888052e+00
  8.783349e+00    2.861544e+00
  8.799224e+00    2.834627e+00
  8.815100e+00    2.818933e+00
  8.830975e+00    2.853945e+00
  8.846851e+00    2.876571e+00
  8.862727e+00    2.812359e+00
  8.878602e+00    2.817499e+00
  8.894478e+00    2.837637e+00
  8.910353e+00    2.838620e+00
  8.926229e+00    2.843767e+00
  8.942104e+00    2.816259e+00
  8.957980e+00    2.816015e+00
  8.973856e+00    2.866069e+00
  8.989731e+00    2.865671e+00
  9.005607e+00    2.850741e+00
  9.021482e+00    2.822570e+00
  9.037358e+00    2.796883e+00
  9.053233e+00    2.837094e+00
  9.069109e+00    2.795987e+00
  9.084985e+00    2.815904e+00
  9.100860e+00    2.874111e+00
  9.116736e+00    2.857373e+00
  9.132611e+00    2.833842e+00
  9.148487e+00    2.832324e+00
  9.164362e+00    2.770350e+00
  9.180238e+00    2.794717e+00
  9.196114e+00    2.794170e+00
  9.211989e+00    2.813943e+00
  9.227865e+00    2.730963e+00
  9.243740e+00    2.810079e+00
  9.259616e+00    2.791021e+00
  9.275491e+00    2.816599e+00
  9.291367e+00    2.830518e+00
  9.307243e+00    2.783516e+00
  9.323118e+00    2.779853e+00
  9.338994e+00    2.750596e+00
  9.354869e+00    2.797134e+00
  9.370745e+00    2.778361e+00
  9.386620e+00    2.703746e+00
  9.402496e+00    2.722352e+00
  9.418372e+00    2.784834e+00
  9.434247e+00    2.793616e+00
  9.450123e+00    2.768455e+00
  9.465998e+00    2.751670e+00
  9.481874e+00    2.734886e+00
  9.497749e+00    2.740862e+00
  9.513625e+00    2.720188e+00
  9.529501e+00    2.745621e+00
  9.545376e+00    2.743840e+00
  9.561252e+00    2.777603e+00
  9.577127e+00    2.769963e+00
  9.593003e+00    2.777696e+00
  9.608878e+00    2.731161e+00
  9.624754e+00    2.716890e+00
  9.640630e+00    2.774876e+00
  9.656505e+00    2.789244e+00
  9.672381e+00    2.758873e+00
  9.688256e+00    2.739146e+00
  9.704132e+00    2.764441e+00
  9.720008e+00    2.710893e+00
  9.735883e+00    2.719995e+00
  9.751759e+00    2.702779e+00
  9.767634e+00    2.743563e+00
  9.783510e+00    2.669997e+00
  9.799385e+00    2.714081e+00
  9.815261e+00    2.761222e+00
  9.831137e+00    2.743312e+00
  9.847012e+00    2.725954e+00
  9.862888e+00    2.723983e+00
  9.878763e+00    2.694500e+00
  9.894639e+00    2.713616e+00
  9.910514e+00    2.690664e+00
  9.926390e+00    2.664825e+00
  9.942266e+00    2.697784e+00
  9.958141e+00    2.664969e+00
  9.974017e+00    2.692031e+00
  9.989892e+00    2.784172e+00
  1.000577e+01    2.729336e+00
  1.002164e+01    2.701848e+00
  1.003752e+01    2.693394e+00
  1.005339e+01    2.717488e+00
  1.006927e+01    2.684606e+00
  1.008515e+01    2.727531e+00
  1.010102e+01    2.759410e+00
  1.011690e+01    2.730956e+00
  1.013277e+01    2.649631e+00
  1.014865e+01    2.637447e+00
  1.016452e+01    2.652345e+00
  1.018040e+01    2.671157e+00
  1.019627e+01    2.653783e+00
  1.021215e+01    2.635063e+00
  1.022803e+01    2.628318e+00
  1.024390e+01    2.629110e+00
  1.025978e+01    2.680600e+00
  1.027565e+01    2.653336e+00
  1.029153e+01    2.632609e+00
  1.030740e+01    2.684777e+00
  1.032328e+01    2.692740e+00
  1.033915e+01    2.628972e+00
  1.035503e+01    2.645195e+00
  1.037091e+01    2.659741e+00
  1.038678e+01    2.658792e+00
  1.040266e+01    2.599479e+00
  1.041853e+01    2.605428e+00
  1.043441e+01    2.609113e+00
  1.045028e+01    2.578567e+00
  1.046616e+01    2.600948e+00
  1.048204e+01    2.598383e+00
  1.049791e+01    2.591611e+00
  1.051379e+01    2.595291e+00
  1.052966e+01    2.583598e+00
  1.054554e+01    2.528741e+00
  1.056141e+01    2.577037e+00
  1.057729e+01    2.606269e+00
  1.059316e+01    2.613581e+00
  1.060904e+01    2.578777e+00
  1.062492e+01    2.548394e+00
  1.064079e+01    2.523510e+00
  1.065667e+01    2.559292e+00
  1.067254e+01    2.621032e+00
  1.068842e+01    2.585840e+00
  1.070429e+01    2.521538e+00
  1.072017e+01    2.532105e+00
  1.073604e+01    2.550941e+00
  1.075192e+01    2.555534e+00
  1.076780e+01    2.573549e+00
  1.078367e+01    2.603354e+00
  1.079955e+01    2.550975e+00
  1.081542e+01    2.490910e+00
  1.083130e+01    2.526584e+00
  1.084717e+01    2.499536e+00
  1.086305e+01    2.493558e+00
  1.087892e+01    2.482624e+00
  1.089480e+01    2.477240e+00
  1.091068e+01    2.489039e+00
  1.092655e+01    2.526093e+00
  1.094243e+01    2.553743e+00
  1.095830e+01    2.535375e+00
  1.097418e+01    2.571528e+00
  1.099005e+01    2.580757e+00
  1.100593e+01    2.554598e+00
  1.102180e+01    2.485543e+00
  1.103768e+01    2.497789e+00
  1.105356e+01    2.518427e+00
  1.106943e+01    2.491616e+00
  1.108531e+01    2.498774e+00
  1.110118e+01    2.458605e+00
  1.111706e+01    2.471973e+00
  1.113293e+01    2.494893e+00
  1.114881e+01    2.478474e+00
  1.116468e+01    2.462922e+00
  1.118056e+01    2.480278e+00
  1.119644e+01    2.484023e+00
  1.121231e+01    2.464415e+00
  1.122819e+01    2.512155e+00
  1.124406e+01    2.446136e+00
  1.125994e+01    2.432907e+00
  1.127581e+01    2.460521e+00
  1.129169e+01    2.457021e+00
  1.130756e+01    2.452917e+00
  1.132344e+01    2.461388e+00
  1.133932e+01    2.435610e+00
  1.135519e+01    2.438756e+00
  1.137107e+01    2.378880e+00
  1.138694e+01    2.418087e+00
  1.140282e+01    2.445280e+00
  1.141869e+01    2.466783e+00
  1.143457e+01    2.424901e+00
  1.145045e+01    2.357173e+00
  1.146632e+01    2.392046e+00
  1.148220e+01    2.445592e+00
  1.149807e+01    2.401212e+00
  1.151395e+01    2.411954e+00
  1.152982e+01    2.426431e+00
  1.154570e+01    2.457973e+00
  1.156157e+01    2.423373e+00
  1.157745e+01    2.364569e+00
  1.159333e+01    2.377982e+00
  1.160920e+01    2.357043e+00
  1.162508e+01    2.426014e+00
  1.164095e+01    2.376293e+00
  1.165683e+01    2.349002e+00
  1.167270e+01    2.373386e+00
  1.168858e+01    2.389584e+00
  1.170445e+01    2.367555e+00
  1.172033e+01    2.377058e+00
  1.173621e+01    2.374631e+00
  1.175208e+01    2.390546e+00
  1.176796e+01    2.388437e+00
  1.178383e+01    2.364239e+00
  1.179971e+01    2.372144e+00
  1.181558e+01    2.405043e+00
  1.183146e+01    2.317777e+00
  1.184733e+01    2.344949e+00
  1.186321e+01    2.342000e+00
  1.187909e+01    2.367553e+00
  1.189496e+01    2.354492e+00
  1.191084e+01    2.327060e+00
  1.192671e+01    2.356737e+00
  1.194259e+01    2.333305e+00
  1.195846e+01    2.359593e+00
  1.197434e+01    2.363242e+00
  1.199021e+01    2.332384e+00
  1.200609e+01    2.340724e+00
  1.202197e+01    2.378474e+00
  1.203784e+01    2.363020e+00
  1.205372e+01    2.350957e+00
  1.206959e+01    2.378606e+00
  1.208547e+01    2.385191e+00
  1.210134e+01    2.344288e+00
  1.211722e+01    2.339209e+00
  1.213309e+01    2.373296e+00
  1.214897e+01    2.360713e+00
  1.216485e+01    2.319223e+00
  1.218072e+01    2.319500e+00
  1.219660e+01    2.342776e+00
  1.221247e+01    2.349491e+00
  1.222835e+01    2.324670e+00
  1.224422e+01    2.338493e+00
  1.226010e+01    2.307927e+00
  1.227597e+01    2.327852e+00
  1.229185e+01    2.344613e+00
  1.230773e+01    2.328086e+00
  1.232360e+01    2.348308e+00
  1.233948e+01    2.327226e+00
  1.235535e+01    2.304711e+00
  1.237123e+01    2.319152e+00
  1.238710e+01    2.337736e+00
  1.240298e+01    2.348910e+00
  1.241886e+01    2.311318e+00
  1.243473e+01    2.316270e+00
  1.245061e+01    2.311878e+00
  1.246648e+01    2.337101e+00
  1.248236e+01    2.358792e+00
  1.249823e+01    2.377523e+00
  1.251411e+01    2.377604e+00
  1.252998e+01    2.373151e+00
  1.254586e+01    2.357798e+00
  1.256174e+01    2.353260e+00
  1.257761e+01    2.391378e+00
  1.259349e+01    2.409780e+00
  1.260936e+01    2.413296e+00
  1.262524e+01    2.464922e+00
  1.264111e+01    2.408278e+00
  1.265699e+01    2.409000e+00
  1.267286e+01    2.470711e+00
  1.268874e+01    2.475635e+00
  1.270462e+01    2.418769e+00
  1.272049e+01    2.421676e+00
  1.273637e+01    2.481746e+00
  1.275224e+01    2.558039e+00
  1.276812e+01    2.562912e+00
  1.278399e+01    2.566729e+00
  1.279987e+01    2.621323e+00
  1.281574e+01    2.741842e+00
  1.283162e+01    2.787848e+00
  1.284750e+01    2.842036e+00
  1.286337e+01    2.868448e+00
  1.287925e+01    2.935039e+00
  1.289512e+01    3.111566e+00
  1.291100e+01    3.298653e+00
  1.292687e+01    3.475755e+00
  1.294275e+01    3.677565e+00
  1.295862e+01    3.973341e+00
  1.297450e+01    4.315855e+00
  1.299038e+01    4.754186e+00
  1.300625e+01    5.342353e+00
  1.302213e+01    6.145637e+00
  1.303800e+01    7.099868e+00
  1.305388e+01    8.124101e+00
  1.306975e+01    9.350325e+00
  1.308563e+01    1.063478e+01
  1.310150e+01    1.181719e+01
  1.311738e+01    1.298541e+01
  1.313326e+01    1.391259e+01
  1.314913e+01    1.483661e+01
  1.316501e+01    1.555565e+01
  1.318088e+01    1.572284e+01
  1.319676e+01    1.520035e+01
  1.321263e+01    1.393077e+01
  1.322851e+01    1.221944e+01
  1.324438e+01    1.039293e+01
  1.326026e+01    8.781781e+00
  1.327614e+01    7.346745e+00
  1.329201e+01    6.275763e+00
  1.330789e+01    5.558171e+00
  1.332376e+01    4.897705e+00
  1.333964e+01    4.417455e+00
  1.335551e+01    4.078230e+00
  1.337139e+01    3.730023e+00
  1.338727e+01    3.474252e+00
  1.340314e+01    3.271921e+00
  1.341902e+01    3.115694e+00
  1.343489e+01    2.961662e+00
  1.345077e+01    2.865766e+00
  1.346664e+01    2.797386e+00
  1.348252e+01    2.713995e+00
  1.349839e+01    2.620269e+00
  1.351427e+01    2.568948e+00
  1.353015e+01    2.517359e+00
  1.354602e+01    2.480920e+00
  1.356190e+01    2.409923e+00
  1.357777e+01    2.421769e+00
  1.359365e+01    2.390566e+00
  1.360952e+01    2.306015e+00
  1.362540e+01    2.278690e+00
  1.364127e+01    2.291162e+00
  1.365715e+01    2.266004e+00
  1.367303e+01    2.263491e+00
  1.368890e+01    2.250850e+00
  1.370478e+01    2.231901e+00
  1.372065e+01    2.197682e+00
  1.373653e+01    2.178748e+00
  1.375240e+01    2.194059e+00
  1.376828e+01    2.172508e+00
  1.378415e+01    2.151416e+00
  1.380003e+01    2.127818e+00
  1.381591e+01    2.138633e+00
  1.383178e+01    2.171609e+00
  1.384766e+01    2.154224e+00
  1.386353e+01    2.113480e+00
  1.387941e+01    2.115784e+00
  1.389528e+01    2.088657e+00
  1.391116e+01    2.062768e+00
  1.392703e+01    2.040991e+00
  1.394291e+01    2.083632e+00
  1.395879e+01    2.069520e+00
  1.397466e+01    2.054767e+00
  1.399054e+01    2.052432e+00
  1.400641e+01    2.017045e+00
  1.402229e+01    2.048193e+00
  1.403816e+01    2.045861e+00
  1.405404e+01    2.026556e+00
  1.406991e+01    1.975966e+00
  1.408579e+01    1.980912e+00
  1.410167e+01    2.042611e+00
  1.411754e+01    2.034567e+00
  1.413342e+01    2.011972e+00
  1.414929e+01    1.998143e+00
  1.416517e+01    2.013848e+00
  1.418104e+01    2.013470e+00
  1.419692e+01    1.990643e+00
  1.421279e+01    1.988572e+00
  1.422867e+01    2.012761e+00
  1.424455e+01    2.009230e+00
  1.426042e+01    1.994812e+00
  1.427630e+01    1.992375e+00
  1.429217e+01    1.993503e+00
  1.430805e+01    1.958902e+00
  1.432392e+01    1.961717e+00
  1.433980e+01    1.973549e+00
  1.435568e+01    1.950548e+00
  1.437155e+01    1.922472e+00
  1.438743e+01    1.889240e+00
  1.440330e+01    1.943731e+00
  1.441918e+01    1.986312e+00
  1.443505e+01    1.991089e+00
  1.445093e+01    1.966172e+00
  1.446680e+01    1.940636e+00
  1.448268e+01    1.891372e+00
  1.449856e+01    1.911587e+00
  1.451443e+01    1.941928e+00
  1.453031e+01    1.943268e+00
  1.454618e+01    1.925517e+00
  1.456206e+01    1.924767e+00
  1.457793e+01    1.869949e+00
  1.459381e+01    1.905386e+00
  1.460968e+01    1.921003e+00
  1.462556e+01    1.917677e+00
  1.464144e+01    1.889241e+00
  1.465731e+01    1.916052e+00
  1.467319e+01    1.927991e+00
  1.468906e+01    1.898996e+00
  1.470494e+01    1.884728e+00
  1.472081e+01    1.873616e+00
  1.473669e+01    1.882293e+00
  1.475256e+01    1.907807e+00
  1.476844e+01    1.921581e+00
  1.478432e+01    1.952932e+00
  1.480019e+01    1.976436e+00
  1.481607e+01    1.963283e+00
  1.483194e+01    1.941779e+00
  1.484782e+01    1.932725e+00
  1.486369e+01    1.948648e+00
  1.487957e+01    1.959404e+00
  1.489544e+01    1.954064e+00
  1.491132e+01    1.994834e+00
  1.492720e+01    2.025803e+00
  1.494307e+01    2.057646e+00
  1.495895e+01    2.038598e+00
  1.497482e+01    2.074885e+00
  1.499070e+01    2.124291e+00
  1.500657e+01    2.158900e+00
  1.502245e+01    2.195550e+00
  1.503832e+01    2.296237e+00
  1.505420e+01    2.427286e+00
  1.507008e+01    2.514433e+00
  1.508595e+01    2.676119e+00
  1.510183e+01    2.901142e+00
  1.511770e+01    3.177020e+00
  1.513358e+01    3.366160e+00
  1.514945e+01    3.712433e+00
  1.516533e+01    4.135314e+00
  1.518120e+01    4.535850e+00
  1.519708e+01    4.750087e+00
  1.521296e+01    5.020381e+00
  1.522883e+01    5.265376e+00
  1.524471e+01    5.423044e+00
  1.526058e+01    5.494500e+00
  1.527646e+01    5.370852e+00
  1.529233e+01    5.170761e+00
  1.530821e+01    4.839249e+00
  1.532409e+01    4.404570e+00
  1.533996e+01    3.945538e+00
  1.535584e+01    3.499509e+00
  1.537171e+01    3.187812e+00
  1.538759e+01    2.864867e+00
  1.540346e+01    2.625029e+00
  1.541934e+01    2.491089e+00
  1.543521e+01    2.365464e+00
  1.545109e+01    2.242488e+00
  1.546697e+01    2.170890e+00
  1.548284e+01    2.099834e+00
  1.549872e+01    2.067824e+00
  1.551459e+01    1.977878e+00
  1.553047e+01    1.932829e+00
  1.554634e+01    1.878487e+00
  1.556222e+01    1.860612e+00
  1.557809e+01    1.839411e+00
  1.559397e+01    1.764236e+00
  1.560985e+01    1.817093e+00
  1.562572e+01    1.845376e+00
  1.564160e+01    1.803760e+00
  1.565747e+01    1.758090e+00
  1.567335e+01    1.759699e+00
  1.568922e+01    1.767246e+00
  1.570510e+01    1.719080e+00
  1.572097e+01    1.719989e+00
  1.573685e+01    1.739533e+00
  1.575273e+01    1.690717e+00
  1.576860e+01    1.666508e+00
  1.578448e+01    1.668256e+00
  1.580035e+01    1.683264e+00
  1.581623e+01    1.667164e+00
  1.583210e+01    1.678537e+00
  1.584798e+01    1.676997e+00
  1.586385e+01    1.671432e+00
  1.587973e+01    1.638077e+00
  1.589561e+01    1.638337e+00
  1.591148e+01    1.668361e+00
  1.592736e+01    1.639197e+00
  1.594323e+01    1.627326e+00
  1.595911e+01    1.629988e+00
  1.597498e+01    1.637722e+00
  1.599086e+01    1.594574e+00
  1.600673e+01    1.580196e+00
  1.602261e+01    1.582670e+00
  1.603849e+01    1.599040e+00
  1.605436e+01    1.585701e+00
  1.607024e+01    1.587339e+00
  1.608611e+01    1.597110e+00
  1.610199e+01    1.589224e+00
  1.611786e+01    1.593246e+00
  1.613374e+01    1.575406e+00
  1.614961e+01    1.546043e+00
  1.616549e+01    1.577013e+00
  1.618137e+01    1.583291e+00
  1.619724e+01    1.609042e+00
  1.621312e+01    1.610359e+00
  1.622899e+01    1.572907e+00
  1.624487e+01    1.565360e+00
  1.626074e+01    1.550112e+00
  1.627662e+01    1.554653e+00
  1.629250e+01    1.537138e+00
  1.630837e+01    1.543177e+00
  1.632425e+01    1.523601e+00
  1.634012e+01    1.564376e+00
  1.635600e+01    1.564309e+00
  1.637187e+01    1.543873e+00
  1.638775e+01    1.535624e+00
  1.640362e+01    1.543305e+00
  1.641950e+01    1.556458e+00
  1.643538e+01    1.539956e+00
  1.645125e+01    1.553275e+00
  1.646713e+01    1.519198e+00
  1.648300e+01    1.519499e+00
  1.649888e+01    1.487721e+00
  1.651475e+01    1.503345e+00
  1.653063e+01    1.532932e+00
  1.654650e+01    1.521870e+00
  1.656238e+01    1.520540e+00
  1.657826e+01    1.526124e+00
  1.659413e+01    1.523502e+00
  1.661001e+01    1.490327e+00
  1.662588e+01    1.469144e+00
  1.664176e+01    1.476036e+00
  1.665763e+01    1.478732e+00
  1.667351e+01    1.474863e+00
  1.668938e+01    1.463944e+00
  1.670526e+01    1.477824e+00
  1.672114e+01    1.476419e+00
  1.673701e+01    1.492432e+00
  1.675289e+01    1.470029e+00
  1.676876e+01    1.482568e+00
  1.678464e+01    1.486436e+00
  1.680051e+01    1.488820e+00
  1.681639e+01    1.445532e+00
  1.683226e+01    1.461659e+00
  1.684814e+01    1.463712e+00
  1.686402e+01    1.472298e+00
  1.687989e+01    1.470725e+00
  1.689577e+01    1.444788e+00
  1.691164e+01    1.424014e+00
  1.692752e+01    1.445793e+00
  1.694339e+01    1.461922e+00
  1.695927e+01    1.471002e+00
  1.697514e+01    1.462929e+00
  1.699102e+01    1.462783e+00
  1.700690e+01    1.433352e+00
  1.702277e+01    1.393602e+00
  1.703865e+01    1.440513e+00
  1.705452e+01    1.453162e+00
  1.707040e+01    1.457833e+00
  1.708627e+01    1.432895e+00
  1.710215e+01    1.459091e+00
  1.711802e+01    1.442196e+00
  1.713390e+01    1.445571e+00
  1.714978e+01    1.418611e+00
  1.716565e+01    1.415841e+00
  1.718153e+01    1.426934e+00
  1.719740e+01    1.415540e+00
  1.721328e+01    1.399264e+00
  1.722915e+01    1.381583e+00
  1.724503e+01    1.377153e+00
  1.726091e+01    1.392152e+00
  1.727678e+01    1.409793e+00
  1.729266e+01    1.399970e+00
  1.730853e+01    1.408800e+00
  1.732441e+01    1.424046e+00
  1.734028e+01    1.417783e+00
  1.735616e+01    1.394200e+00
  1.737203e+01    1.388573e+00
  1.738791e+01    1.413533e+00
  1.740379e+01    1.418558e+00
  1.741966e+01    1.400385e+00
  1.743554e+01    1.374928e+00
  1.745141e+01    1.378680e+00
  1.746729e+01    1.379588e+00
  1.748316e+01    1.374991e+00
  1.749904e+01    1.351777e+00
  1.751491e+01    1.387164e+00
  1.753079e+01    1.374962e+00
  1.754667e+01    1.367644e+00
  1.756254e+01    1.378592e+00
  1.757842e+01    1.387481e+00
  1.759429e+01    1.348398e+00
  1.761017e+01    1.362639e+00
  1.762604e+01    1.358057e+00
  1.764192e+01    1.354509e+00
  1.765779e+01    1.358689e+00
  1.767367e+01    1.370516e+00
  1.768955e+01    1.351618e+00
  1.770542e+01    1.343745e+00
  1.772130e+01    1.342101e+00
  1.773717e+01    1.357758e+00
  1.775305e+01    1.343750e+00
  1.776892e+01    1.320042e+00
  1.778480e+01    1.345685e+00
  1.780067e+01    1.317950e+00
  1.781655e+01    1.321829e+00
  1.783243e+01    1.309990e+00
  1.784830e+01    1.316059e+00
  1.786418e+01    1.323610e+00
  1.788005e+01    1.316279e+00
  1.789593e+01    1.305181e+00
  1.791180e+01    1.326584e+00
  1.792768e+01    1.332417e+00
  1.794355e+01    1.335516e+00
  1.795943e+01    1.332233e+00
  1.797531e+01    1.345379e+00
  1.799118e+01    1.342152e+00
  1.800706e+01    1.299443e+00
  1.802293e+01    1.301336e+00
  1.803881e+01    1.304201e+00
  1.805468e+01    1.286008e+00
  1.807056e+01    1.286225e+00
  1.808643e+01    1.287036e+00
  1.810231e+01    1.281091e+00
  1.811819e+01    1.303545e+00
  1.813406e+01    1.338659e+00
  1.814994e+01    1.301431e+00
  1.816581e+01    1.289349e+00
  1.818169e+01    1.315159e+00
  1.819756e+01    1.311610e+00
  1.821344e+01    1.308233e+00
  1.822932e+01    1.288803e+00
  1.824519e+01    1.290117e+00
  1.826107e+01    1.287019e+00
  1.827694e+01    1.274281e+00
  1.829282e+01    1.279874e+00
  1.830869e+01    1.310849e+00
  1.832457e+01    1.291101e+00
  1.834044e+01    1.253173e+00
  1.835632e+01    1.253096e+00
  1.837220e+01    1.257926e+00
  1.838807e+01    1.265669e+00
  1.840395e+01    1.265240e+00
  1.841982e+01    1.242005e+00
  1.843570e+01    1.251262e+00
  1.845157e+01    1.286629e+00
  1.846745e+01    1.302469e+00
  1.848332e+01    1.299502e+00
  1.849920e+01    1.256678e+00
  1.851508e+01    1.259945e+00
  1.853095e+01    1.229529e+00
  1.854683e+01    1.224815e+00
  1.856270e+01    1.221870e+00
  1.857858e+01    1.233996e+00
  1.859445e+01    1.238186e+00
  1.861033e+01    1.257859e+00
  1.862620e+01    1.246156e+00
  1.864208e+01    1.223085e+00
  1.865796e+01    1.222467e+00
  1.867383e+01    1.219542e+00
  1.868971e+01    1.203684e+00
  1.870558e+01    1.238260e+00
  1.872146e+01    1.259067e+00
  1.873733e+01    1.249767e+00
  1.875321e+01    1.235601e+00
  1.876908e+01    1.214692e+00
  1.878496e+01    1.227251e+00
  1.880084e+01    1.228866e+00
  1.881671e+01    1.229860e+00
  1.883259e+01    1.209729e+00
  1.884846e+01    1.213332e+00
  1.886434e+01    1.209790e+00
  1.888021e+01    1.184244e+00
  1.889609e+01    1.199448e+00
  1.891196e+01    1.190248e+00
  1.892784e+01    1.186837e+00
  1.894372e+01    1.186140e+00
  1.895959e+01    1.183838e+00
  1.897547e+01    1.208682e+00
  1.899134e+01    1.192644e+00
  1.900722e+01    1.202073e+00
  1.902309e+01    1.218911e+00
  1.903897e+01    1.206258e+00
  1.905484e+01    1.212287e+00
  1.907072e+01    1.191870e+00
  1.908660e+01    1.195529e+00
  1.910247e+01    1.195607e+00
  1.911835e+01    1.173462e+00
  1.913422e+01    1.181536e+00
  1.915010e+01    1.214546e+00
  1.916597e+01    1.193731e+00
  1.918185e+01    1.173578e+00
  1.919773e+01    1.180981e+00
  1.921360e+01    1.197981e+00
  1.922948e+01    1.174134e+00
  1.924535e+01    1.178992e+00
  1.926123e+01    1.207045e+00
  1.927710e+01    1.216541e+00
  1.929298e+01    1.202124e+00
  1.930885e+01    1.183957e+00
  1.932473e+01    1.192988e+00
  1.934061e+01    1.168275e+00
  1.935648e+01    1.162743e+00
  1.937236e+01    1.165849e+00
  1.938823e+01    1.166635e+00
  1.940411e+01    1.169421e+00
  1.941998e+01    1.148367e+00
  1.943586e+01    1.144299e+00
  1.945173e+01    1.149776e+00
  1.946761e+01    1.152785e+00
  1.948349e+01    1.170432e+00
  1.949936e+01    1.161029e+00
  1.951524e+01    1.154974e+00
  1.953111e+01    1.150382e+00
  1.954699e+01    1.174923e+00
  1.956286e+01    1.165022e+00
  1.957874e+01    1.140017e+00
  1.959461e+01    1.160212e+00
  1.961049e+01    1.136189e+00
  1.962637e+01    1.115548e+00
  1.964224e+01    1.166065e+00
  1.965812e+01    1.167036e+00
  1.967399e+01    1.161203e+00
  1.968987e+01    1.164738e+00
  1.970574e+01    1.163553e+00
  1.972162e+01    1.172763e+00
  1.973749e+01    1.153778e+00
  1.975337e+01    1.140974e+00
  1.976925e+01    1.150138e+00
  1.978512e+01    1.154718e+00
  1.980100e+01    1.115294e+00
  1.981687e+01    1.144243e+00
  1.983275e+01    1.144307e+00
  1.984862e+01    1.130562e+00
  1.986450e+01    1.136573e+00
  1.988037e+01    1.139627e+00
  1.989625e+01    1.130267e+00
  1.991213e+01    1.131098e+00
  1.992800e+01    1.132193e+00
  1.994388e+01    1.130203e+00
  1.995975e+01    1.141426e+00
  1.997563e+01    1.124187e+00
  1.999150e+01    1.101660e+00
  2.000738e+01    1.125277e+00
  2.002325e+01    1.111601e+00
  2.003913e+01    1.117112e+00
  2.005501e+01    1.099266e+00
  2.007088e+01    1.116129e+00
  2.008676e+01    1.132727e+00
  2.010263e+01    1.092075e+00
  2.011851e+01    1.107417e+00
  2.013438e+01    1.106410e+00
  2.015026e+01    1.088261e+00
  2.016614e+01    1.081391e+00
  2.018201e+01    1.107375e+00
  2.019789e+01    1.075534e+00
  2.021376e+01    1.065669e+00
  2.022964e+01    1.093781e+00
  2.024551e+01    1.086438e+00
  2.026139e+01    1.068775e+00
  2.027726e+01    1.092323e+00
  2.029314e+01    1.090266e+00
  2.030902e+01    1.089372e+00
  2.032489e+01    1.099724e+00
  2.034077e+01    1.085837e+00
  2.035664e+01    1.099900e+00
  2.037252e+01    1.101441e+00
  2.038839e+01    1.101722e+00
  2.040427e+01    1.106768e+00
  2.042014e+01    1.086902e+00
  2.043602e+01    1.092606e+00
  2.045190e+01    1.082008e+00
  2.046777e+01    1.081427e+00
  2.048365e+01    1.074509e+00
  2.049952e+01    1.089066e+00
  2.051540e+01    1.082614e+00
  2.053127e+01    1.106107e+00
  2.054715e+01    1.070486e+00
  2.056302e+01    1.065968e+00
  2.057890e+01    1.089797e+00
  2.059478e+01    1.099138e+00
  2.061065e+01    1.074175e+00
  2.062653e+01    1.069302e+00
  2.064240e+01    1.072799e+00
  2.065828e+01    1.059978e+00
  2.067415e+01    1.053904e+00
  2.069003e+01    1.088308e+00
  2.070590e+01    1.077986e+00
  2.072178e+01    1.053567e+00
  2.073766e+01    1.064310e+00
  2.075353e+01    1.061391e+00
  2.076941e+01    1.092884e+00
  2.078528e+01    1.098858e+00
  2.080116e+01    1.086185e+00
  2.081703e+01    1.072605e+00
  2.083291e+01    1.098430e+00
  2.084878e+01    1.081267e+00
  2.086466e+01    1.055931e+00
  2.088054e+01    1.066249e+00
  2.089641e+01    1.100036e+00
  2.091229e+01    1.093274e+00
  2.092816e+01    1.082453e+00
  2.094404e+01    1.084395e+00
  2.095991e+01    1.099565e+00
  2.097579e+01    1.108154e+00
  2.099166e+01    1.099079e+00
  2.100754e+01    1.090453e+00
  2.102342e+01    1.064885e+00
  2.103929e+01    1.084148e+00
  2.105517e+01    1.080527e+00
  2.107104e+01    1.088201e+00
  2.108692e+01    1.094005e+00
  2.110279e+01    1.070750e+00
  2.111867e+01    1.071967e+00
  2.113455e+01    1.062410e+00
  2.115042e+01    1.085529e+00
  2.116630e+01    1.064349e+00
  2.118217e+01    1.092912e+00
  2.119805e+01    1.109901e+00
  2.121392e+01    1.075921e+00
  2.122980e+01    1.091465e+00
  2.124567e+01    1.086670e+00
  2.126155e+01    1.092554e+00
  2.127743e+01    1.113792e+00
  2.129330e+01    1.115354e+00
  2.130918e+01    1.123048e+00
  2.132505e+01    1.104951e+00
  2.134093e+01    1.114618e+00
  2.135680e+01    1.109373e+00
  2.137268e+01    1.132496e+00
  2.138855e+01    1.157059e+00
  2.140443e+01    1.186530e+00
  2.142031e+01    1.177652e+00
  2.143618e+01    1.205801e+00
  2.145206e+01    1.232456e+00
  2.146793e+01    1.217905e+00
  2.148381e+01    1.217019e+00
  2.149968e+01    1.273088e+00
  2.151556e+01    1.299959e+00
  2.153143e+01    1.343252e+00
  2.154731e+01    1.339955e+00
  2.156319e+01    1.387381e+00
  2.157906e+01    1.482288e+00
  2.159494e+01    1.577952e+00
  2.161081e+01    1.632180e+00
  2.162669e+01    1.698933e+00
  2.164256e+01    1.816764e+00
  2.165844e+01    1.968067e+00
  2.167431e+01    2.089525e+00
  2.169019e+01    2.289249e+00
  2.170607e+01    2.550033e+00
  2.172194e+01    2.891972e+00
  2.173782e+01    3.282937e+00
  2.175369e+01    3.740282e+00
  2.176957e+01    4.287632e+00
  2.178544e+01    4.914649e+00
  2.180132e+01    5.524151e+00
  2.181719e+01    6.140336e+00
  2.183307e+01    6.828363e+00
  2.184895e+01    7.402082e+00
  2.186482e+01    8.023848e+00
  2.188070e+01    8.475959e+00
  2.189657e+01    8.687691e+00
  2.191245e+01    8.582878e+00
  2.192832e+01    8.160142e+00
  2.194420e+01    7.336775e+00
  2.196007e+01    6.447916e+00
  2.197595e+01    5.465848e+00
  2.199183e+01    4.645563e+00
  2.200770e+01    3.983563e+00
  2.202358e+01    3.432164e+00
  2.203945e+01    2.983350e+00
  2.205533e+01    2.625365e+00
  2.207120e+01    2.363517e+00
  2.208708e+01    2.160290e+00
  2.210296e+01    1.979908e+00
  2.211883e+01    1.830286e+00
  2.213471e+01    1.701559e+00
  2.215058e+01    1.652424e+00
  2.216646e+01    1.554383e+00
  2.218233e+01    1.460788e+00
  2.219821e+01    1.382268e+00
  2.221408e+01    1.334326e+00
  2.222996e+01    1.321564e+00
  2.224584e+01    1.275457e+00
  2.226171e+01    1.225829e+00
  2.227759e+01    1.207784e+00
  2.229346e+01    1.205213e+00
  2.230934e+01    1.183494e+00
  2.232521e+01    1.137690e+00
  2.234109e+01    1.117789e+00
  2.235696e+01    1.085398e+00
  2.237284e+01    1.088124e+00
  2.238872e+01    1.080695e+00
  2.240459e+01    1.065783e+00
  2.242047e+01    1.039028e+00
  2.243634e+01    1.036950e+00
  2.245222e+01    1.048502e+00
  2.246809e+01    1.038207e+00
  2.248397e+01    1.002669e+00
  2.249984e+01    1.017524e+00
  2.251572e+01    1.015353e+00
  2.253160e+01    1.002775e+00
  2.254747e+01    1.010507e+00
  2.256335e+01    1.005084e+00
  2.257922e+01    1.000721e+00
  2.259510e+01    9.789521e-01
  2.261097e+01    9.642518e-01
  2.262685e+01    9.642414e-01
  2.264272e+01    9.739316e-01
  2.265860e+01    9.783894e-01
  2.267448e+01    9.573672e-01
  2.269035e+01    9.595824e-01
  2.270623e+01    9.702699e-01
  2.272210e+01    9.568849e-01
  2.273798e+01    9.593843e-01
  2.275385e+01    9.216481e-01
  2.276973e+01    9.188957e-01
  2.278560e+01    9.254978e-01
  2.280148e+01    9.344751e-01
  2.281736e+01    9.088832e-01
  2.283323e+01    9.153643e-01
  2.284911e+01    9.048142e-01
  2.286498e+01    9.014207e-01
  2.288086e+01    9.032039e-01
  2.289673e+01    9.009725e-01
  2.291261e+01    8.775624e-01
  2.292848e+01    8.839080e-01
  2.294436e+01    9.110814e-01
  2.296024e+01    8.961849e-01
  2.297611e+01    8.723195e-01
  2.299199e+01    9.029209e-01
  2.300786e+01    8.966073e-01
  2.302374e+01    8.831216e-01
  2.303961e+01    8.914746e-01
  2.305549e+01    8.892897e-01
  2.307137e+01    8.874142e-01
  2.308724e+01    8.877329e-01
  2.310312e+01    8.757408e-01
  2.311899e+01    8.754577e-01
  2.313487e+01    8.843888e-01
  2.315074e+01    8.689004e-01
  2.316662e+01    8.782369e-01
  2.318249e+01    8.931010e-01
  2.319837e+01    8.878270e-01
  2.321425e+01    8.898328e-01
  2.323012e+01    8.767278e-01
  2.324600e+01    8.669342e-01
  2.326187e+01    8.747584e-01
  2.327775e+01    8.522003e-01
  2.329362e+01    8.565093e-01
  2.330950e+01    8.720829e-01
  2.332537e+01    8.676260e-01
  2.334125e+01    8.554312e-01
  2.335713e+01    8.677069e-01
  2.337300e+01    8.639381e-01
  2.338888e+01    8.377072e-01
  2.340475e+01    8.530189e-01
  2.342063e+01    8.565326e-01
  2.343650e+01    8.519571e-01
  2.345238e+01    8.520576e-01
  2.346825e+01    8.280236e-01
  2.348413e+01    8.525495e-01
  2.350001e+01    8.662190e-01
  2.351588e+01    8.421923e-01
  2.353176e+01    8.387628e-01
  2.354763e+01    8.369645e-01
  2.356351e+01    8.349406e-01
  2.357938e+01    8.454875e-01
  2.359526e+01    8.596280e-01
  2.361113e+01    8.367817e-01
  2.362701e+01    8.439325e-01
  2.364289e+01    8.434643e-01
  2.365876e+01    8.319559e-01
  2.367464e+01    8.190615e-01
  2.369051e+01    8.100592e-01
  2.370639e+01    8.108360e-01
  2.372226e+01    7.992562e-01
  2.373814e+01    8.007656e-01
  2.375401e+01    7.990611e-01
  2.376989e+01    8.348390e-01
  2.378577e+01    8.055991e-01
  2.380164e+01    8.043307e-01
  2.381752e+01    8.196044e-01
  2.383339e+01    8.108926e-01
  2.384927e+01    8.081501e-01
  2.386514e+01    7.920810e-01
  2.388102e+01    8.056643e-01
  2.389689e+01    8.061168e-01
  2.391277e+01    7.888171e-01
  2.392865e+01    8.052264e-01
  2.394452e+01    8.062772e-01
  2.396040e+01    7.949488e-01
  2.397627e+01    7.886342e-01
  2.399215e+01    7.893261e-01
  2.400802e+01    7.697924e-01
  2.402390e+01    7.774248e-01
  2.403978e+01    7.900660e-01
  2.405565e+01    7.829818e-01
  2.407153e+01    7.680991e-01
  2.408740e+01    7.831348e-01
  2.410328e+01    7.952800e-01
  2.411915e+01    7.837166e-01
  2.413503e+01    7.742018e-01
  2.415090e+01    7.955347e-01
  2.416678e+01    7.914695e-01
  2.418266e+01    7.789185e-01
  2.419853e+01    7.830250e-01
  2.421441e+01    7.718045e-01
  2.423028e+01    7.666647e-01
  2.424616e+01    7.828861e-01
  2.426203e+01    7.741591e-01
  2.427791e+01    7.806291e-01
  2.429378e+01    7.791423e-01
  2.430966e+01    7.957520e-01
  2.432554e+01    8.051099e-01
  2.434141e+01    8.053148e-01
  2.435729e+01    7.991600e-01
  2.437316e+01    8.075131e-01
  2.438904e+01    7.889338e-01
  2.440491e+01    7.810453e-01
  2.442079e+01    7.880895e-01
  2.443666e+01    7.849624e-01
  2.445254e+01    7.849625e-01
  2.446842e+01    7.854116e-01
  2.448429e+01    7.701967e-01
  2.450017e+01    7.843434e-01
  2.451604e+01    7.760627e-01
  2.453192e+01    7.911829e-01
  2.454779e+01    7.591913e-01
  2.456367e+01    7.842825e-01
  2.457954e+01    7.966909e-01
  2.459542e+01    7.934484e-01
  2.461130e+01    7.868419e-01
  2.462717e+01    7.661167e-01
  2.464305e+01    7.728370e-01
  2.465892e+01    7.932290e-01
  2.467480e+01    7.883527e-01
  2.469067e+01    7.844907e-01
  2.470655e+01    7.816377e-01
  2.472242e+01    7.722998e-01
  2.473830e+01    7.963961e-01
  2.475418e+01    7.990015e-01
  2.477005e+01    7.856784e-01
  2.478593e+01    7.871096e-01
  2.480180e+01    7.750545e-01
  2.481768e+01    7.946187e-01
  2.483355e+01    7.872612e-01
  2.484943e+01    7.907747e-01
  2.486530e+01    7.989644e-01
  2.488118e+01    8.008737e-01
  2.489706e+01    7.928518e-01
  2.491293e+01    8.021052e-01
  2.492881e+01    8.096213e-01
  2.494468e+01    7.981864e-01
  2.496056e+01    8.089847e-01
  2.497643e+01    7.971098e-01
  2.499231e+01    8.059289e-01
  2.500819e+01    7.683440e-01
  2.502406e+01    7.860552e-01
  2.503994e+01    8.070455e-01
  2.505581e+01    8.000703e-01
  2.507169e+01    7.930859e-01
  2.508756e+01    8.096764e-01
  2.510344e+01    8.099011e-01
  2.511931e+01    8.164986e-01
  2.513519e+01    8.082271e-01
  2.515107e+01    8.016026e-01
  2.516694e+01    8.265424e-01
  2.518282e+01    8.178115e-01
  2.519869e+01    8.159647e-01
  2.521457e+01    8.080449e-01
  2.523044e+01    8.353235e-01
  2.524632e+01    8.468053e-01
  2.526219e+01    8.381898e-01
  2.527807e+01    8.515601e-01
  2.529395e+01    8.641393e-01
  2.530982e+01    8.811224e-01
  2.532570e+01    8.860304e-01
  2.534157e+01    8.805830e-01
  2.535745e+01    8.733840e-01
  2.537332e+01    8.843620e-01
  2.538920e+01    9.122083e-01
  2.540507e+01    9.059751e-01
  2.542095e+01    9.126632e-01
  2.543683e+01    9.073675e-01
  2.545270e+01    8.996712e-01
  2.546858e+01    9.194535e-01
  2.548445e+01    9.539050e-01
  2.550033e+01    9.619707e-01
  2.551620e+01    9.699704e-01
  2.553208e+01    9.840220e-01
  2.554795e+01    1.012348e+00
  2.556383e+01    1.039919e+00
  2.557971e+01    1.070769e+00
  2.559558e+01    1.106093e+00
  2.561146e+01    1.125231e+00
  2.562733e+01    1.146896e+00
  2.564321e+01    1.170342e+00
  2.565908e+01    1.234570e+00
  2.567496e+01    1.313930e+00
  2.569083e+01    1.381860e+00
  2.570671e+01    1.484259e+00
  2.572259e+01    1.591347e+00
  2.573846e+01    1.707061e+00
  2.575434e+01    1.905695e+00
  2.577021e+01    2.094648e+00
  2.578609e+01    2.307680e+00
  2.580196e+01    2.638158e+00
  2.581784e+01    2.994715e+00
  2.583371e+01    3.463343e+00
  2.584959e+01    3.974096e+00
  2.586547e+01    4.450490e+00
  2.588134e+01    5.016453e+00
  2.589722e+01    5.589470e+00
  2.591309e+01    6.145829e+00
  2.592897e+01    6.623878e+00
  2.594484e+01    6.869997e+00
  2.596072e+01    7.072621e+00
  2.597660e+01    6.930851e+00
  2.599247e+01    6.496300e+00
  2.600835e+01    5.949764e+00
  2.602422e+01    5.250084e+00
  2.604010e+01    4.523854e+00
  2.605597e+01    3.844814e+00
  2.607185e+01    3.338330e+00
  2.608772e+01    2.910187e+00
  2.610360e+01    2.565126e+00
  2.611948e+01    2.241521e+00
  2.613535e+01    2.018792e+00
  2.615123e+01    1.831527e+00
  2.616710e+01    1.708952e+00
  2.618298e+01    1.563048e+00
  2.619885e+01    1.434354e+00
  2.621473e+01    1.375171e+00
  2.623060e+01    1.284061e+00
  2.624648e+01    1.226780e+00
  2.626236e+01    1.174170e+00
  2.627823e+01    1.147711e+00
  2.629411e+01    1.108472e+00
  2.630998e+01    1.071848e+00
  2.632586e+01    1.051898e+00
  2.634173e+01    1.025522e+00
  2.635761e+01    9.802334e-01
  2.637348e+01    9.727902e-01
  2.638936e+01    9.696670e-01
  2.640524e+01    9.525114e-01
  2.642111e+01    9.618677e-01
  2.643699e+01    9.346752e-01
  2.645286e+01    9.238074e-01
  2.646874e+01    9.440278e-01
  2.648461e+01    9.142157e-01
  2.650049e+01    9.151685e-01
  2.651636e+01    9.026220e-01
  2.653224e+01    8.956520e-01
  2.654812e+01    8.913327e-01
  2.656399e+01    9.099830e-01
  2.657987e+01    8.716509e-01
  2.659574e+01    8.676117e-01
  2.661162e+01    8.882921e-01
  2.662749e+01    8.902920e-01
  2.664337e+01    8.933128e-01
  2.665924e+01    8.757089e-01
  2.667512e+01    8.636333e-01
  2.669100e+01    8.719039e-01
  2.670687e+01    8.855662e-01
  2.672275e+01    8.777542e-01
  2.673862e+01    8.716875e-01
  2.675450e+01    8.744094e-01
  2.677037e+01    8.958748e-01
  2.678625e+01    8.793512e-01
  2.680212e+01    8.718825e-01
  2.681800e+01    8.649081e-01
  2.683388e+01    8.565971e-01
  2.684975e+01    8.744053e-01
  2.686563e+01    8.777633e-01
  2.688150e+01    8.648979e-01
  2.689738e+01    8.934075e-01
  2.691325e+01    9.145175e-01
  2.692913e+01    9.170668e-01
  2.694501e+01    9.149238e-01
  2.696088e+01    9.398884e-01
  2.697676e+01    9.609327e-01
  2.699263e+01    9.930761e-01
  2.700851e+01    1.011500e+00
  2.702438e+01    1.046017e+00
  2.704026e+01    1.103983e+00
  2.705613e+01    1.164037e+00
  2.707201e+01    1.183080e+00
  2.708789e+01    1.283328e+00
  2.710376e+01    1.394078e+00
  2.711964e+01    1.502977e+00
  2.713551e+01    1.632548e+00
  2.715139e+01    1.765610e+00
  2.716726e+01    1.893169e+00
  2.718314e+01    1.961170e+00
  2.719901e+01    2.062330e+00
  2.721489e+01    2.113644e+00
  2.723077e+01    2.124301e+00
  2.724664e+01    2.075852e+00
  2.726252e+01    1.908275e+00
  2.727839e+01    1.783563e+00
  2.729427e+01    1.640160e+00
  2.731014e+01    1.488228e+00
  2.732602e+01    1.351894e+00
  2.734189e+01    1.260821e+00
  2.735777e+01    1.185581e+00
  2.737365e+01    1.130837e+00
  2.738952e+01    1.082388e+00
  2.740540e+01    1.034306e+00
  2.742127e+01    1.010550e+00
  2.743715e+01    9.371741e-01
  2.745302e+01    9.265483e-01
  2.746890e+01    9.248083e-01
  2.748477e+01    9.020993e-01
  2.750065e+01    8.822744e-01
  2.751653e+01    8.870367e-01
  2.753240e+01    8.853715e-01
  2.754828e+01    8.458982e-01
  2.756415e+01    8.234545e-01
  2.758003e+01    8.283060e-01
  2.759590e+01    8.207974e-01
  2.761178e+01    8.283146e-01
  2.762765e+01    8.274161e-01
  2.764353e+01    8.054635e-01
  2.765941e+01    8.084168e-01
  2.767528e+01    8.164382e-01
  2.769116e+01    7.926040e-01
  2.770703e+01    7.866204e-01
  2.772291e+01    7.908493e-01
  2.773878e+01    7.915105e-01
  2.775466e+01    8.208196e-01
  2.777054e+01    8.010983e-01
  2.778641e+01    7.943042e-01
  2.780229e+01    7.911142e-01
  2.781816e+01    7.812097e-01
  2.783404e+01    7.646731e-01
  2.784991e+01    7.652552e-01
  2.786579e+01    7.785065e-01
  2.788166e+01    7.780201e-01
  2.789754e+01    8.122799e-01
  2.791342e+01    7.853741e-01
  2.792929e+01    7.720867e-01
  2.794517e+01    7.881825e-01
  2.796104e+01    7.892352e-01
  2.797692e+01    7.773820e-01
  2.799279e+01    7.802802e-01
  2.800867e+01    7.827920e-01
  2.802454e+01    7.615627e-01
  2.804042e+01    7.716924e-01
  2.805630e+01    7.847947e-01
  2.807217e+01    7.654610e-01
  2.808805e+01    7.790130e-01
  2.810392e+01    7.866607e-01
  2.811980e+01    7.822044e-01
  2.813567e+01    7.704760e-01
  2.815155e+01    7.671213e-01
  2.816742e+01    7.665420e-01
  2.818330e+01    7.686286e-01
  2.819918e+01    7.798383e-01
  2.821505e+01    7.439014e-01
  2.823093e+01    7.416750e-01
  2.824680e+01    7.768493e-01
  2.826268e+01    7.765779e-01
  2.827855e+01    7.795195e-01
  2.829443e+01    7.722032e-01
  2.831030e+01    7.497979e-01
  2.832618e+01    7.742829e-01
  2.834206e+01    7.816727e-01
  2.835793e+01    7.650436e-01
  2.837381e+01    7.470981e-01
  2.838968e+01    7.597537e-01
  2.840556e+01    7.546991e-01
  2.842143e+01    7.819337e-01
  2.843731e+01    7.673373e-01
  2.845318e+01    7.638468e-01
  2.846906e+01    7.512012e-01
  2.848494e+01    7.585747e-01
  2.850081e+01    7.668824e-01
  2.851669e+01    7.621709e-01
  2.853256e+01    7.605236e-01
  2.854844e+01    7.578201e-01
  2.856431e+01    7.449381e-01
  2.858019e+01    7.560441e-01
  2.859606e+01    7.563182e-01
  2.861194e+01    7.568794e-01
  2.862782e+01    7.547516e-01
  2.864369e+01    7.569287e-01
  2.865957e+01    7.593740e-01
  2.867544e+01    7.353272e-01
  2.869132e+01    7.352512e-01
  2.870719e+01    7.402760e-01
  2.872307e+01    7.380299e-01
  2.873895e+01    7.425511e-01
  2.875482e+01    7.632272e-01
  2.877070e+01    7.355433e-01
  2.878657e+01    7.247099e-01
  2.880245e+01    7.347388e-01
  2.881832e+01    7.202120e-01
  2.883420e+01    7.417580e-01
  2.885007e+01    7.262438e-01
  2.886595e+01    7.290864e-01
  2.888183e+01    7.489629e-01
  2.889770e+01    7.392529e-01
  2.891358e+01    7.341464e-01
  2.892945e+01    7.418652e-01
  2.894533e+01    7.485770e-01
  2.896120e+01    7.603518e-01
  2.897708e+01    7.217766e-01
  2.899295e+01    7.440301e-01
  2.900883e+01    7.324363e-01
  2.902471e+01    7.259405e-01
  2.904058e+01    7.272805e-01
  2.905646e+01    7.338125e-01
  2.907233e+01    7.273089e-01
  2.908821e+01    7.326782e-01
  2.910408e+01    7.276825e-01
  2.911996e+01    7.200413e-01
  2.913583e+01    7.347310e-01
  2.915171e+01    7.385320e-01
  2.916759e+01    7.367129e-01
  2.918346e+01    7.214074e-01
  2.919934e+01    7.131424e-01
  2.921521e+01    7.106221e-01
  2.923109e+01    7.105373e-01
  2.924696e+01    7.228953e-01
  2.926284e+01    7.070242e-01
  2.927871e+01    7.051436e-01
  2.929459e+01    7.196657e-01
  2.931047e+01    7.115999e-01
  2.932634e+01    7.119504e-01
  2.934222e+01    7.214056e-01
  2.935809e+01    7.138237e-01
  2.937397e+01    7.097381e-01
  2.938984e+01    7.138061e-01
  2.940572e+01    7.249758e-01
  2.942159e+01    7.231733e-01
  2.943747e+01    7.035548e-01
  2.945335e+01    7.070755e-01
  2.946922e+01    7.199664e-01
  2.948510e+01    7.289373e-01
  2.950097e+01    7.210805e-01
  2.951685e+01    7.215092e-01
  2.953272e+01    7.249295e-01
  2.954860e+01    7.169770e-01
  2.956447e+01    7.223472e-01
  2.958035e+01    7.354277e-01
  2.959623e+01    7.133895e-01
  2.961210e+01    7.029678e-01
  2.962798e+01    7.051406e-01
  2.964385e+01    7.076576e-01
  2.965973e+01    7.185385e-01
  2.967560e+01    7.094415e-01
  2.969148e+01    6.967785e-01
  2.970736e+01    7.129634e-01
  2.972323e+01    7.146877e-01
  2.973911e+01    7.092358e-01
  2.975498e+01    7.044665e-01
  2.977086e+01    7.083715e-01
  2.978673e+01    7.206860e-01
  2.980261e+01    7.094496e-01
  2.981848e+01    7.199786e-01
  2.983436e+01    7.125880e-01
  2.985024e+01    7.153084e-01
  2.986611e+01    7.003667e-01
  2.988199e+01    7.168080e-01
  2.989786e+01    7.338422e-01
  2.991374e+01    7.060629e-01
  2.992961e+01    6.990514e-01
  2.994549e+01    7.049401e-01
  2.996136e+01    7.189885e-01
  2.997724e+01    7.030106e-01
  2.999312e+01    7.485533e-01
  3.000899e+01    7.418868e-01
  3.002487e+01    7.193298e-01
  3.004074e+01    7.339702e-01
  3.005662e+01    7.190360e-01
  3.007249e+01    7.206811e-01
  3.008837e+01    7.237818e-01
  3.010424e+01    7.321405e-01
  3.012012e+01    7.377725e-01
  3.013600e+01    7.320925e-01
  3.015187e+01    7.089974e-01
  3.016775e+01    7.166436e-01
  3.018362e+01    7.237247e-01
  3.019950e+01    7.108855e-01
  3.021537e+01    7.115989e-01
  3.023125e+01    6.971475e-01
  3.024712e+01    7.072193e-01
  3.026300e+01    7.085036e-01
  3.027888e+01    7.102845e-01
  3.029475e+01    7.104377e-01
  3.031063e+01    6.786323e-01
  3.032650e+01    6.793333e-01
  3.034238e+01    6.798107e-01
  3.035825e+01    6.977356e-01
  3.037413e+01    6.905686e-01
  3.039000e+01    7.127442e-01
  3.040588e+01    7.098913e-01
  3.042176e+01    7.126173e-01
  3.043763e+01    7.016687e-01
  3.045351e+01    7.264361e-01
  3.046938e+01    6.841826e-01
  3.048526e+01    6.660366e-01
  3.050113e+01    6.854286e-01
  3.051701e+01    7.031078e-01
  3.053288e+01    7.067125e-01
  3.054876e+01    7.034732e-01
  3.056464e+01    7.032085e-01
  3.058051e+01    6.770351e-01
  3.059639e+01    7.013513e-01
  3.061226e+01    7.050333e-01
  3.062814e+01    6.976776e-01
  3.064401e+01    7.182145e-01
  3.065989e+01    7.157168e-01
  3.067577e+01    6.968132e-01
  3.069164e+01    6.913056e-01
  3.070752e+01    7.102724e-01
  3.072339e+01    6.961091e-01
  3.073927e+01    7.019919e-01
  3.075514e+01    7.044927e-01
  3.077102e+01    7.002406e-01
  3.078689e+01    7.184145e-01
  3.080277e+01    7.173353e-01
  3.081865e+01    6.935670e-01
  3.083452e+01    6.903522e-01
  3.085040e+01    7.015120e-01
  3.086627e+01    7.031985e-01
  3.088215e+01    7.109578e-01
  3.089802e+01    7.055930e-01
  3.091390e+01    7.119824e-01
  3.092977e+01    7.063736e-01
  3.094565e+01    7.022655e-01
  3.096153e+01    7.019053e-01
  3.097740e+01    7.235447e-01
  3.099328e+01    7.130739e-01
  3.100915e+01    7.000408e-01
  3.102503e+01    7.193881e-01
  3.104090e+01    7.248280e-01
  3.105678e+01    7.131516e-01
  3.107265e+01    7.208776e-01
  3.108853e+01    6.937639e-01
  3.110441e+01    7.180831e-01
  3.112028e+01    7.045493e-01
  3.113616e+01    7.150779e-01
  3.115203e+01    7.198831e-01
  3.116791e+01    7.160503e-01
  3.118378e+01    7.127565e-01
  3.119966e+01    7.144938e-01
  3.121553e+01    7.075374e-01
  3.123141e+01    7.223062e-01
  3.124729e+01    7.243568e-01
  3.126316e+01    7.258133e-01
  3.127904e+01    7.243043e-01
  3.129491e+01    7.058871e-01
  3.131079e+01    7.018130e-01
  3.132666e+01    6.919547e-01
  3.134254e+01    7.133644e-01
  3.135841e+01    7.255877e-01
  3.137429e+01    7.376844e-01
  3.139017e+01    7.325883e-01
  3.140604e+01    7.405101e-01
  3.142192e+01    7.529144e-01
  3.143779e+01    7.539039e-01
  3.145367e+01    7.340115e-01
  3.146954e+01    7.449185e-01
  3.148542e+01    7.419633e-01
  3.150129e+01    7.567931e-01
  3.151717e+01    7.797577e-01
  3.153305e+01    7.543876e-01
  3.154892e+01    7.728515e-01
  3.156480e+01    7.880824e-01
  3.158067e+01    8.110408e-01
  3.159655e+01    8.065490e-01
  3.161242e+01    8.205741e-01
  3.162830e+01    8.301964e-01
  3.164418e+01    8.494487e-01
  3.166005e+01    8.654138e-01
  3.167593e+01    8.998054e-01
  3.169180e+01    9.072085e-01
  3.170768e+01    9.732766e-01
  3.172355e+01    1.020153e+00
  3.173943e+01    1.071564e+00
  3.175530e+01    1.120503e+00
  3.177118e+01    1.183657e+00
  3.178706e+01    1.299791e+00
  3.180293e+01    1.370894e+00
  3.181881e+01    1.523320e+00
  3.183468e+01    1.642252e+00
  3.185056e+01    1.780605e+00
  3.186643e+01    1.875195e+00
  3.188231e+01    2.002497e+00
  3.189818e+01    2.079445e+00
  3.191406e+01    2.124913e+00
  3.192994e+01    2.055268e+00
  3.194581e+01    1.931320e+00
  3.196169e+01    1.791981e+00
  3.197756e+01    1.679851e+00
  3.199344e+01    1.498362e+00
  3.200931e+01    1.373901e+00
  3.202519e+01    1.262037e+00
  3.204106e+01    1.192993e+00
  3.205694e+01    1.100426e+00
  3.207282e+01    1.036311e+00
  3.208869e+01    9.585015e-01
  3.210457e+01    9.370488e-01
  3.212044e+01    8.917032e-01
  3.213632e+01    8.700126e-01
  3.215219e+01    8.546959e-01
  3.216807e+01    8.307569e-01
  3.218394e+01    8.120858e-01
  3.219982e+01    7.861640e-01
  3.221570e+01    7.744281e-01
  3.223157e+01    7.628757e-01
  3.224745e+01    7.666315e-01
  3.226332e+01    7.586007e-01
  3.227920e+01    7.305182e-01
  3.229507e+01    7.446146e-01
  3.231095e+01    7.627293e-01
  3.232682e+01    7.472206e-01
  3.234270e+01    7.322717e-01
  3.235858e+01    7.394831e-01
  3.237445e+01    7.296889e-01
  3.239033e+01    7.198603e-01
  3.240620e+01    7.304896e-01
  3.242208e+01    7.132007e-01
  3.243795e+01    7.029196e-01
  3.245383e+01    6.996010e-01
  3.246970e+01    6.998762e-01
  3.248558e+01    7.003952e-01
  3.250146e+01    6.981358e-01
  3.251733e+01    6.924192e-01
  3.253321e+01    7.144898e-01
  3.254908e+01    7.130858e-01
