# == pyFAI calibration ==
# Distance Sample to Detector: 0.3999999939076516 m
# PONI: 9.750e-02, 1.135e-01 m
# Rotations: -0.000175 0.000000 -0.000000 rad
# 
# == Fit2d calibration ==
# Distance Sample-beamCenter: 400.000 mm
# Center: x=1514.000, y=1300.000 pix
# Tilt: 0.010 deg  TiltPlanRot: 0.010 deg
# 
# Detector Detector	 Spline= None	 PixelSize= 7.500e-05, 7.500e-05 m
#    Detector has a mask: False 
#    Detector has a dark current: False 
#    detector has a flat field: False 
# 
# Wavelength: 6.888e-11 m
# Mask applied: user provided
# Dark current applied: False
# Flat field applied: False
# Polarization factor: 0.99
# Normalization factor: 1.0
# --> /home/myspot/data/2024_07_Rosario/Ru-CGO-ex/2024-07-27_002_Ru-CGO-ex_Activtation_ramp_000002_data_000058.dat
#       q_nm^-1             I 
  2.003187e-02    0.000000e+00
  3.590745e-02    0.000000e+00
  5.178302e-02    0.000000e+00
  6.765859e-02    5.234959e-02
  8.353417e-02    1.295189e-01
  9.940974e-02    2.141953e-02
  1.152853e-01    2.774562e-02
  1.311609e-01    5.035120e-02
  1.470365e-01    4.347399e-02
  1.629120e-01    6.965309e-03
  1.787876e-01    5.610349e-02
  1.946632e-01    3.415963e-02
  2.105388e-01    1.902712e-02
  2.264143e-01    2.923140e-02
  2.422899e-01    5.815528e-02
  2.581655e-01    9.082614e-02
  2.740411e-01    5.640860e-02
  2.899166e-01    3.642430e-02
  3.057922e-01    5.371651e-02
  3.216678e-01    9.102084e-02
  3.375433e-01    4.980373e-02
  3.534189e-01    4.652702e-02
  3.692945e-01    4.202260e-02
  3.851701e-01    5.871885e-02
  4.010456e-01    5.526656e-02
  4.169212e-01    5.316309e-02
  4.327968e-01    1.823884e-02
  4.486724e-01    3.152604e-02
  4.645479e-01    6.713897e-02
  4.804235e-01    4.284799e-02
  4.962991e-01    3.553495e-02
  5.121747e-01    4.058847e-02
  5.280502e-01    3.022700e-02
  5.439258e-01    1.626785e-02
  5.598014e-01    3.444082e-02
  5.756770e-01    4.519412e-02
  5.915525e-01    2.437387e-02
  6.074281e-01    2.689044e-02
  6.233037e-01    6.881096e-02
  6.391793e-01    4.495217e-02
  6.550548e-01    3.851649e-02
  6.709304e-01    3.939079e-02
  6.868060e-01    2.621675e-02
  7.026815e-01    3.099852e-02
  7.185571e-01    3.106467e-02
  7.344327e-01    3.917420e-02
  7.503083e-01    5.541602e-02
  7.661838e-01    9.724867e-02
  7.820594e-01    1.329223e-01
  7.979350e-01    1.720726e-01
  8.138106e-01    1.893194e-01
  8.296861e-01    2.062565e-01
  8.455617e-01    2.717312e-01
  8.614373e-01    3.170786e-01
  8.773129e-01    4.434174e-01
  8.931884e-01    5.895219e-01
  9.090640e-01    7.681881e-01
  9.249396e-01    6.411778e-01
  9.408152e-01    7.055451e-01
  9.566907e-01    8.074971e-01
  9.725663e-01    8.216137e-01
  9.884419e-01    1.036336e+00
  1.004317e+00    1.064378e+00
  1.020193e+00    1.150975e+00
  1.036069e+00    1.198675e+00
  1.051944e+00    1.118146e+00
  1.067820e+00    1.294001e+00
  1.083695e+00    1.422125e+00
  1.099571e+00    1.421934e+00
  1.115446e+00    1.402268e+00
  1.131322e+00    1.378615e+00
  1.147198e+00    1.489731e+00
  1.163073e+00    1.638459e+00
  1.178949e+00    1.559346e+00
  1.194824e+00    1.678582e+00
  1.210700e+00    1.852692e+00
  1.226575e+00    2.012491e+00
  1.242451e+00    2.059898e+00
  1.258327e+00    2.271149e+00
  1.274202e+00    2.500778e+00
  1.290078e+00    2.568772e+00
  1.305953e+00    2.528807e+00
  1.321829e+00    2.578810e+00
  1.337705e+00    2.651155e+00
  1.353580e+00    2.653338e+00
  1.369456e+00    2.649936e+00
  1.385331e+00    2.802070e+00
  1.401207e+00    2.781204e+00
  1.417082e+00    2.617639e+00
  1.432958e+00    2.767210e+00
  1.448834e+00    2.950918e+00
  1.464709e+00    2.821701e+00
  1.480585e+00    2.837026e+00
  1.496460e+00    2.839571e+00
  1.512336e+00    2.949177e+00
  1.528211e+00    3.201415e+00
  1.544087e+00    3.111936e+00
  1.559963e+00    3.215807e+00
  1.575838e+00    3.162026e+00
  1.591714e+00    2.964512e+00
  1.607589e+00    2.738635e+00
  1.623465e+00    2.809190e+00
  1.639340e+00    2.985945e+00
  1.655216e+00    2.919655e+00
  1.671092e+00    2.846654e+00
  1.686967e+00    2.901544e+00
  1.702843e+00    2.774347e+00
  1.718718e+00    2.945815e+00
  1.734594e+00    3.011518e+00
  1.750469e+00    2.906432e+00
  1.766345e+00    2.868982e+00
  1.782221e+00    2.838243e+00
  1.798096e+00    2.814419e+00
  1.813972e+00    2.759958e+00
  1.829847e+00    2.766425e+00
  1.845723e+00    2.870057e+00
  1.861598e+00    2.932674e+00
  1.877474e+00    2.857907e+00
  1.893350e+00    2.838506e+00
  1.909225e+00    2.881386e+00
  1.925101e+00    2.709425e+00
  1.940976e+00    2.777142e+00
  1.956852e+00    2.818006e+00
  1.972727e+00    2.695844e+00
  1.988603e+00    2.759901e+00
  2.004479e+00    2.758317e+00
  2.020354e+00    2.835144e+00
  2.036230e+00    2.893036e+00
  2.052105e+00    2.853587e+00
  2.067981e+00    2.803517e+00
  2.083856e+00    2.803071e+00
  2.099732e+00    2.882810e+00
  2.115608e+00    2.735498e+00
  2.131483e+00    2.678871e+00
  2.147359e+00    2.754596e+00
  2.163234e+00    2.842228e+00
  2.179110e+00    2.865507e+00
  2.194985e+00    2.731021e+00
  2.210861e+00    2.748728e+00
  2.226737e+00    2.726992e+00
  2.242612e+00    2.661141e+00
  2.258488e+00    2.732005e+00
  2.274363e+00    2.788795e+00
  2.290239e+00    2.797154e+00
  2.306115e+00    2.822139e+00
  2.321990e+00    2.867522e+00
  2.337866e+00    2.846830e+00
  2.353741e+00    2.884986e+00
  2.369617e+00    2.842674e+00
  2.385492e+00    2.802866e+00
  2.401368e+00    2.729256e+00
  2.417244e+00    2.710243e+00
  2.433119e+00    2.826317e+00
  2.448995e+00    2.899906e+00
  2.464870e+00    2.918431e+00
  2.480746e+00    2.883339e+00
  2.496621e+00    2.832873e+00
  2.512497e+00    2.766148e+00
  2.528373e+00    2.834469e+00
  2.544248e+00    2.778958e+00
  2.560124e+00    2.808407e+00
  2.575999e+00    2.698639e+00
  2.591875e+00    2.617563e+00
  2.607750e+00    2.752206e+00
  2.623626e+00    2.793408e+00
  2.639502e+00    2.782655e+00
  2.655377e+00    2.768748e+00
  2.671253e+00    2.788001e+00
  2.687128e+00    2.810422e+00
  2.703004e+00    2.818445e+00
  2.718879e+00    2.808549e+00
  2.734755e+00    2.873847e+00
  2.750631e+00    2.809263e+00
  2.766506e+00    2.767897e+00
  2.782382e+00    2.876945e+00
  2.798257e+00    2.920565e+00
  2.814133e+00    2.866900e+00
  2.830008e+00    2.936547e+00
  2.845884e+00    2.925187e+00
  2.861760e+00    2.773721e+00
  2.877635e+00    2.785555e+00
  2.893511e+00    2.913759e+00
  2.909386e+00    2.951986e+00
  2.925262e+00    2.926301e+00
  2.941137e+00    2.831764e+00
  2.957013e+00    2.902097e+00
  2.972889e+00    2.906415e+00
  2.988764e+00    2.863476e+00
  3.004640e+00    2.938270e+00
  3.020515e+00    2.967885e+00
  3.036391e+00    2.986304e+00
  3.052266e+00    2.899748e+00
  3.068142e+00    2.836754e+00
  3.084018e+00    2.839466e+00
  3.099893e+00    2.958844e+00
  3.115769e+00    2.926591e+00
  3.131644e+00    2.931512e+00
  3.147520e+00    2.860060e+00
  3.163395e+00    2.856732e+00
  3.179271e+00    2.895407e+00
  3.195147e+00    2.974736e+00
  3.211022e+00    3.002556e+00
  3.226898e+00    2.981246e+00
  3.242773e+00    2.968042e+00
  3.258649e+00    2.863586e+00
  3.274525e+00    2.939842e+00
  3.290400e+00    2.947561e+00
  3.306276e+00    2.931225e+00
  3.322151e+00    2.906493e+00
  3.338027e+00    2.945963e+00
  3.353902e+00    3.015022e+00
  3.369778e+00    2.891397e+00
  3.385654e+00    2.973759e+00
  3.401529e+00    3.088802e+00
  3.417405e+00    2.960164e+00
  3.433280e+00    2.924565e+00
  3.449156e+00    2.996283e+00
  3.465031e+00    2.938849e+00
  3.480907e+00    2.974270e+00
  3.496783e+00    2.888376e+00
  3.512658e+00    2.833738e+00
  3.528534e+00    2.978481e+00
  3.544409e+00    3.020672e+00
  3.560285e+00    2.994687e+00
  3.576160e+00    2.964425e+00
  3.592036e+00    3.051453e+00
  3.607912e+00    3.019577e+00
  3.623787e+00    2.951486e+00
  3.639663e+00    2.950850e+00
  3.655538e+00    2.965772e+00
  3.671414e+00    2.887016e+00
  3.687289e+00    2.881412e+00
  3.703165e+00    2.905190e+00
  3.719041e+00    3.020003e+00
  3.734916e+00    3.018301e+00
  3.750792e+00    3.017988e+00
  3.766667e+00    3.030260e+00
  3.782543e+00    3.044602e+00
  3.798418e+00    3.011734e+00
  3.814294e+00    2.943692e+00
  3.830170e+00    3.008053e+00
  3.846045e+00    2.998962e+00
  3.861921e+00    3.046487e+00
  3.877796e+00    3.044484e+00
  3.893672e+00    3.135881e+00
  3.909547e+00    3.158571e+00
  3.925423e+00    3.047202e+00
  3.941299e+00    3.061255e+00
  3.957174e+00    3.092032e+00
  3.973050e+00    3.059987e+00
  3.988925e+00    3.053638e+00
  4.004801e+00    2.985119e+00
  4.020676e+00    3.016725e+00
  4.036552e+00    3.077999e+00
  4.052428e+00    3.062282e+00
  4.068303e+00    3.096060e+00
  4.084179e+00    3.116221e+00
  4.100054e+00    3.078827e+00
  4.115930e+00    3.016913e+00
  4.131806e+00    3.069282e+00
  4.147681e+00    2.979220e+00
  4.163557e+00    3.040974e+00
  4.179432e+00    3.083347e+00
  4.195308e+00    3.032415e+00
  4.211183e+00    3.066936e+00
  4.227059e+00    3.054109e+00
  4.242935e+00    3.015536e+00
  4.258810e+00    2.930950e+00
  4.274686e+00    2.930086e+00
  4.290561e+00    3.064940e+00
  4.306437e+00    3.014056e+00
  4.322312e+00    3.019389e+00
  4.338188e+00    3.093287e+00
  4.354064e+00    3.136141e+00
  4.369939e+00    3.071271e+00
  4.385815e+00    3.083541e+00
  4.401690e+00    3.109840e+00
  4.417566e+00    3.089686e+00
  4.433441e+00    3.026753e+00
  4.449317e+00    3.122472e+00
  4.465193e+00    3.090795e+00
  4.481068e+00    3.038274e+00
  4.496944e+00    3.059348e+00
  4.512819e+00    3.024118e+00
  4.528695e+00    3.031282e+00
  4.544570e+00    3.048000e+00
  4.560446e+00    3.058907e+00
  4.576322e+00    3.075488e+00
  4.592197e+00    2.999376e+00
  4.608073e+00    3.025700e+00
  4.623948e+00    3.071512e+00
  4.639824e+00    3.053836e+00
  4.655699e+00    3.116319e+00
  4.671575e+00    3.182724e+00
  4.687451e+00    3.147867e+00
  4.703326e+00    3.045935e+00
  4.719202e+00    3.040970e+00
  4.735077e+00    3.321901e+00
  4.750953e+00    3.216375e+00
  4.766828e+00    3.168905e+00
  4.782704e+00    3.117995e+00
  4.798580e+00    3.080782e+00
  4.814455e+00    3.139789e+00
  4.830331e+00    3.136952e+00
  4.846206e+00    3.138732e+00
  4.862082e+00    3.112637e+00
  4.877957e+00    3.130149e+00
  4.893833e+00    3.203028e+00
  4.909709e+00    3.124988e+00
  4.925584e+00    3.112732e+00
  4.941460e+00    3.116937e+00
  4.957335e+00    3.124144e+00
  4.973211e+00    3.094075e+00
  4.989086e+00    3.054068e+00
  5.004962e+00    3.143388e+00
  5.020838e+00    3.094087e+00
  5.036713e+00    3.071205e+00
  5.052589e+00    3.164959e+00
  5.068464e+00    3.211304e+00
  5.084340e+00    3.091295e+00
  5.100216e+00    3.100039e+00
  5.116091e+00    3.092151e+00
  5.131967e+00    3.119022e+00
  5.147842e+00    3.181209e+00
  5.163718e+00    3.175326e+00
  5.179593e+00    3.118505e+00
  5.195469e+00    3.177184e+00
  5.211345e+00    3.150704e+00
  5.227220e+00    3.109385e+00
  5.243096e+00    3.118339e+00
  5.258971e+00    3.082946e+00
  5.274847e+00    3.122245e+00
  5.290722e+00    3.126578e+00
  5.306598e+00    3.121844e+00
  5.322474e+00    3.158619e+00
  5.338349e+00    3.185266e+00
  5.354225e+00    3.222980e+00
  5.370100e+00    3.162277e+00
  5.385976e+00    3.109819e+00
  5.401851e+00    3.105849e+00
  5.417727e+00    3.115752e+00
  5.433603e+00    3.031438e+00
  5.449478e+00    3.040071e+00
  5.465354e+00    3.054802e+00
  5.481229e+00    3.025412e+00
  5.497105e+00    3.057697e+00
  5.512980e+00    3.051985e+00
  5.528856e+00    3.119687e+00
  5.544732e+00    3.086973e+00
  5.560607e+00    3.065927e+00
  5.576483e+00    3.084442e+00
  5.592358e+00    3.103545e+00
  5.608234e+00    3.161211e+00
  5.624109e+00    3.104876e+00
  5.639985e+00    3.102974e+00
  5.655861e+00    3.064527e+00
  5.671736e+00    3.054908e+00
  5.687612e+00    3.032571e+00
  5.703487e+00    2.979453e+00
  5.719363e+00    3.018764e+00
  5.735238e+00    3.094541e+00
  5.751114e+00    2.997816e+00
  5.766990e+00    3.032807e+00
  5.782865e+00    3.017929e+00
  5.798741e+00    3.077213e+00
  5.814616e+00    3.076432e+00
  5.830492e+00    3.008167e+00
  5.846367e+00    3.015719e+00
  5.862243e+00    2.971814e+00
  5.878119e+00    3.052218e+00
  5.893994e+00    3.030062e+00
  5.909870e+00    3.013058e+00
  5.925745e+00    3.042623e+00
  5.941621e+00    3.060527e+00
  5.957497e+00    3.052988e+00
  5.973372e+00    3.040750e+00
  5.989248e+00    3.060918e+00
  6.005123e+00    3.007793e+00
  6.020999e+00    3.039084e+00
  6.036874e+00    3.090296e+00
  6.052750e+00    3.052267e+00
  6.068626e+00    3.073453e+00
  6.084501e+00    3.104208e+00
  6.100377e+00    3.048949e+00
  6.116252e+00    3.070142e+00
  6.132128e+00    3.080742e+00
  6.148003e+00    3.099985e+00
  6.163879e+00    3.020658e+00
  6.179755e+00    3.014446e+00
  6.195630e+00    3.066308e+00
  6.211506e+00    3.104280e+00
  6.227381e+00    3.003205e+00
  6.243257e+00    3.132467e+00
  6.259132e+00    3.086400e+00
  6.275008e+00    3.026252e+00
  6.290884e+00    2.983375e+00
  6.306759e+00    3.006815e+00
  6.322635e+00    3.063671e+00
  6.338510e+00    3.065204e+00
  6.354386e+00    3.012508e+00
  6.370261e+00    3.038361e+00
  6.386137e+00    3.023304e+00
  6.402013e+00    2.996535e+00
  6.417888e+00    2.985790e+00
  6.433764e+00    3.038309e+00
  6.449639e+00    3.018812e+00
  6.465515e+00    2.982870e+00
  6.481390e+00    3.001506e+00
  6.497266e+00    3.009364e+00
  6.513142e+00    3.099485e+00
  6.529017e+00    3.075277e+00
  6.544893e+00    3.011120e+00
  6.560768e+00    3.045902e+00
  6.576644e+00    3.065560e+00
  6.592519e+00    3.077448e+00
  6.608395e+00    3.095396e+00
  6.624271e+00    3.103870e+00
  6.640146e+00    3.026717e+00
  6.656022e+00    2.999774e+00
  6.671897e+00    3.071845e+00
  6.687773e+00    3.036327e+00
  6.703648e+00    3.078242e+00
  6.719524e+00    3.062399e+00
  6.735400e+00    3.036224e+00
  6.751275e+00    3.050167e+00
  6.767151e+00    3.077974e+00
  6.783026e+00    3.066708e+00
  6.798902e+00    3.146522e+00
  6.814777e+00    3.065113e+00
  6.830653e+00    3.011443e+00
  6.846529e+00    3.031023e+00
  6.862404e+00    2.981177e+00
  6.878280e+00    3.029320e+00
  6.894155e+00    3.052395e+00
  6.910031e+00    3.075879e+00
  6.925907e+00    3.003035e+00
  6.941782e+00    2.965120e+00
  6.957658e+00    2.999905e+00
  6.973533e+00    2.990528e+00
  6.989409e+00    3.047013e+00
  7.005284e+00    3.019150e+00
  7.021160e+00    3.027517e+00
  7.037036e+00    2.996227e+00
  7.052911e+00    3.006510e+00
  7.068787e+00    2.993043e+00
  7.084662e+00    3.086704e+00
  7.100538e+00    3.077489e+00
  7.116413e+00    2.982071e+00
  7.132289e+00    3.011018e+00
  7.148165e+00    3.013278e+00
  7.164040e+00    2.994816e+00
  7.179916e+00    3.019025e+00
  7.195791e+00    3.026840e+00
  7.211667e+00    2.998233e+00
  7.227542e+00    2.995834e+00
  7.243418e+00    3.005565e+00
  7.259294e+00    3.049036e+00
  7.275169e+00    3.012199e+00
  7.291045e+00    3.035513e+00
  7.306920e+00    3.010101e+00
  7.322796e+00    3.022518e+00
  7.338671e+00    3.048556e+00
  7.354547e+00    3.030127e+00
  7.370423e+00    3.056206e+00
  7.386298e+00    3.006786e+00
  7.402174e+00    2.952839e+00
  7.418049e+00    2.993413e+00
  7.433925e+00    3.053335e+00
  7.449800e+00    3.034659e+00
  7.465676e+00    3.010393e+00
  7.481552e+00    2.957422e+00
  7.497427e+00    2.978748e+00
  7.513303e+00    2.967206e+00
  7.529178e+00    2.971630e+00
  7.545054e+00    3.020147e+00
  7.560929e+00    2.981413e+00
  7.576805e+00    2.957283e+00
  7.592681e+00    2.956958e+00
  7.608556e+00    3.010450e+00
  7.624432e+00    3.004489e+00
  7.640307e+00    2.980839e+00
  7.656183e+00    2.962993e+00
  7.672058e+00    2.970196e+00
  7.687934e+00    2.996785e+00
  7.703810e+00    2.947314e+00
  7.719685e+00    2.964249e+00
  7.735561e+00    3.021954e+00
  7.751436e+00    2.956575e+00
  7.767312e+00    2.920327e+00
  7.783187e+00    2.842291e+00
  7.799063e+00    2.924965e+00
  7.814939e+00    2.920786e+00
  7.830814e+00    2.918582e+00
  7.846690e+00    2.992249e+00
  7.862565e+00    2.960987e+00
  7.878441e+00    2.904294e+00
  7.894317e+00    2.884505e+00
  7.910192e+00    2.949074e+00
  7.926068e+00    2.930834e+00
  7.941943e+00    2.958225e+00
  7.957819e+00    2.930441e+00
  7.973694e+00    2.867736e+00
  7.989570e+00    2.934334e+00
  8.005446e+00    2.853295e+00
  8.021321e+00    2.840638e+00
  8.037197e+00    2.888674e+00
  8.053072e+00    2.861872e+00
  8.068948e+00    2.867078e+00
  8.084823e+00    2.921023e+00
  8.100699e+00    2.955167e+00
  8.116575e+00    2.979504e+00
  8.132450e+00    2.971221e+00
  8.148326e+00    2.944171e+00
  8.164201e+00    2.923561e+00
  8.180077e+00    2.955853e+00
  8.195952e+00    2.971473e+00
  8.211828e+00    3.017719e+00
  8.227704e+00    2.940016e+00
  8.243579e+00    2.923708e+00
  8.259455e+00    2.989788e+00
  8.275330e+00    2.968179e+00
  8.291206e+00    2.985520e+00
  8.307081e+00    2.948819e+00
  8.322957e+00    2.896213e+00
  8.338833e+00    2.871536e+00
  8.354708e+00    2.914503e+00
  8.370584e+00    2.907536e+00
  8.386459e+00    2.910069e+00
  8.402335e+00    2.947220e+00
  8.418210e+00    2.891949e+00
  8.434086e+00    2.882173e+00
  8.449962e+00    2.856572e+00
  8.465837e+00    2.868775e+00
  8.481713e+00    2.880229e+00
  8.497588e+00    2.876422e+00
  8.513464e+00    2.900540e+00
  8.529339e+00    2.906532e+00
  8.545215e+00    2.868155e+00
  8.561091e+00    2.924485e+00
  8.576966e+00    2.909829e+00
  8.592842e+00    2.832789e+00
  8.608717e+00    2.852457e+00
  8.624593e+00    2.886837e+00
  8.640468e+00    2.830806e+00
  8.656344e+00    2.839556e+00
  8.672220e+00    2.834634e+00
  8.688095e+00    2.849593e+00
  8.703971e+00    2.777524e+00
  8.719846e+00    2.826254e+00
  8.735722e+00    2.865950e+00
  8.751598e+00    2.867254e+00
  8.767473e+00    2.846670e+00
  8.783349e+00    2.866411e+00
  8.799224e+00    2.889736e+00
  8.815100e+00    2.880001e+00
  8.830975e+00    2.833564e+00
  8.846851e+00    2.830191e+00
  8.862727e+00    2.855853e+00
  8.878602e+00    2.858814e+00
  8.894478e+00    2.867631e+00
  8.910353e+00    2.877888e+00
  8.926229e+00    2.857234e+00
  8.942104e+00    2.794158e+00
  8.957980e+00    2.839962e+00
  8.973856e+00    2.861055e+00
  8.989731e+00    2.799207e+00
  9.005607e+00    2.825418e+00
  9.021482e+00    2.819364e+00
  9.037358e+00    2.786681e+00
  9.053233e+00    2.783303e+00
  9.069109e+00    2.824805e+00
  9.084985e+00    2.815163e+00
  9.100860e+00    2.822714e+00
  9.116736e+00    2.824632e+00
  9.132611e+00    2.743494e+00
  9.148487e+00    2.745311e+00
  9.164362e+00    2.836915e+00
  9.180238e+00    2.810526e+00
  9.196114e+00    2.825259e+00
  9.211989e+00    2.819109e+00
  9.227865e+00    2.836445e+00
  9.243740e+00    2.827924e+00
  9.259616e+00    2.835486e+00
  9.275491e+00    2.873209e+00
  9.291367e+00    2.829298e+00
  9.307243e+00    2.797595e+00
  9.323118e+00    2.797338e+00
  9.338994e+00    2.784527e+00
  9.354869e+00    2.736456e+00
  9.370745e+00    2.748596e+00
  9.386620e+00    2.721955e+00
  9.402496e+00    2.762670e+00
  9.418372e+00    2.756246e+00
  9.434247e+00    2.730610e+00
  9.450123e+00    2.748968e+00
  9.465998e+00    2.743780e+00
  9.481874e+00    2.750890e+00
  9.497749e+00    2.747692e+00
  9.513625e+00    2.773813e+00
  9.529501e+00    2.777730e+00
  9.545376e+00    2.800333e+00
  9.561252e+00    2.774661e+00
  9.577127e+00    2.813814e+00
  9.593003e+00    2.767746e+00
  9.608878e+00    2.753336e+00
  9.624754e+00    2.725145e+00
  9.640630e+00    2.744277e+00
  9.656505e+00    2.771332e+00
  9.672381e+00    2.762684e+00
  9.688256e+00    2.743724e+00
  9.704132e+00    2.784083e+00
  9.720008e+00    2.737683e+00
  9.735883e+00    2.739086e+00
  9.751759e+00    2.706537e+00
  9.767634e+00    2.718251e+00
  9.783510e+00    2.681236e+00
  9.799385e+00    2.680181e+00
  9.815261e+00    2.735765e+00
  9.831137e+00    2.780688e+00
  9.847012e+00    2.751228e+00
  9.862888e+00    2.721243e+00
  9.878763e+00    2.732869e+00
  9.894639e+00    2.705019e+00
  9.910514e+00    2.674869e+00
  9.926390e+00    2.716256e+00
  9.942266e+00    2.698128e+00
  9.958141e+00    2.663310e+00
  9.974017e+00    2.616273e+00
  9.989892e+00    2.691249e+00
  1.000577e+01    2.686431e+00
  1.002164e+01    2.699237e+00
  1.003752e+01    2.704123e+00
  1.005339e+01    2.669362e+00
  1.006927e+01    2.668906e+00
  1.008515e+01    2.682113e+00
  1.010102e+01    2.691583e+00
  1.011690e+01    2.668643e+00
  1.013277e+01    2.659942e+00
  1.014865e+01    2.637135e+00
  1.016452e+01    2.656294e+00
  1.018040e+01    2.646053e+00
  1.019627e+01    2.630678e+00
  1.021215e+01    2.630931e+00
  1.022803e+01    2.658591e+00
  1.024390e+01    2.676440e+00
  1.025978e+01    2.661594e+00
  1.027565e+01    2.631643e+00
  1.029153e+01    2.613892e+00
  1.030740e+01    2.628099e+00
  1.032328e+01    2.630709e+00
  1.033915e+01    2.642437e+00
  1.035503e+01    2.626050e+00
  1.037091e+01    2.693812e+00
  1.038678e+01    2.650989e+00
  1.040266e+01    2.627885e+00
  1.041853e+01    2.610872e+00
  1.043441e+01    2.619311e+00
  1.045028e+01    2.612555e+00
  1.046616e+01    2.587818e+00
  1.048204e+01    2.619550e+00
  1.049791e+01    2.606335e+00
  1.051379e+01    2.624251e+00
  1.052966e+01    2.566383e+00
  1.054554e+01    2.584763e+00
  1.056141e+01    2.598914e+00
  1.057729e+01    2.585981e+00
  1.059316e+01    2.566125e+00
  1.060904e+01    2.532424e+00
  1.062492e+01    2.538816e+00
  1.064079e+01    2.539870e+00
  1.065667e+01    2.565497e+00
  1.067254e+01    2.605885e+00
  1.068842e+01    2.585227e+00
  1.070429e+01    2.619531e+00
  1.072017e+01    2.558936e+00
  1.073604e+01    2.540028e+00
  1.075192e+01    2.526372e+00
  1.076780e+01    2.545134e+00
  1.078367e+01    2.540832e+00
  1.079955e+01    2.506895e+00
  1.081542e+01    2.525365e+00
  1.083130e+01    2.547784e+00
  1.084717e+01    2.472105e+00
  1.086305e+01    2.535146e+00
  1.087892e+01    2.561875e+00
  1.089480e+01    2.533950e+00
  1.091068e+01    2.482445e+00
  1.092655e+01    2.480761e+00
  1.094243e+01    2.510043e+00
  1.095830e+01    2.499427e+00
  1.097418e+01    2.516940e+00
  1.099005e+01    2.544815e+00
  1.100593e+01    2.515824e+00
  1.102180e+01    2.491422e+00
  1.103768e+01    2.536597e+00
  1.105356e+01    2.537622e+00
  1.106943e+01    2.495232e+00
  1.108531e+01    2.472571e+00
  1.110118e+01    2.487730e+00
  1.111706e+01    2.503992e+00
  1.113293e+01    2.507994e+00
  1.114881e+01    2.465480e+00
  1.116468e+01    2.530942e+00
  1.118056e+01    2.525648e+00
  1.119644e+01    2.505640e+00
  1.121231e+01    2.477450e+00
  1.122819e+01    2.447949e+00
  1.124406e+01    2.453660e+00
  1.125994e+01    2.490495e+00
  1.127581e+01    2.466085e+00
  1.129169e+01    2.465390e+00
  1.130756e+01    2.419565e+00
  1.132344e+01    2.373756e+00
  1.133932e+01    2.469297e+00
  1.135519e+01    2.498801e+00
  1.137107e+01    2.464213e+00
  1.138694e+01    2.471928e+00
  1.140282e+01    2.461195e+00
  1.141869e+01    2.496188e+00
  1.143457e+01    2.436810e+00
  1.145045e+01    2.393392e+00
  1.146632e+01    2.401868e+00
  1.148220e+01    2.392038e+00
  1.149807e+01    2.330398e+00
  1.151395e+01    2.419396e+00
  1.152982e+01    2.453038e+00
  1.154570e+01    2.400291e+00
  1.156157e+01    2.391642e+00
  1.157745e+01    2.386398e+00
  1.159333e+01    2.395617e+00
  1.160920e+01    2.425189e+00
  1.162508e+01    2.398027e+00
  1.164095e+01    2.377974e+00
  1.165683e+01    2.423064e+00
  1.167270e+01    2.423130e+00
  1.168858e+01    2.385199e+00
  1.170445e+01    2.384738e+00
  1.172033e+01    2.419706e+00
  1.173621e+01    2.404426e+00
  1.175208e+01    2.335484e+00
  1.176796e+01    2.359994e+00
  1.178383e+01    2.399675e+00
  1.179971e+01    2.404741e+00
  1.181558e+01    2.412970e+00
  1.183146e+01    2.373805e+00
  1.184733e+01    2.391912e+00
  1.186321e+01    2.370552e+00
  1.187909e+01    2.352569e+00
  1.189496e+01    2.349429e+00
  1.191084e+01    2.384988e+00
  1.192671e+01    2.355164e+00
  1.194259e+01    2.351524e+00
  1.195846e+01    2.376013e+00
  1.197434e+01    2.376407e+00
  1.199021e+01    2.410977e+00
  1.200609e+01    2.346784e+00
  1.202197e+01    2.344507e+00
  1.203784e+01    2.322318e+00
  1.205372e+01    2.318673e+00
  1.206959e+01    2.348637e+00
  1.208547e+01    2.349493e+00
  1.210134e+01    2.340560e+00
  1.211722e+01    2.311321e+00
  1.213309e+01    2.348937e+00
  1.214897e+01    2.353377e+00
  1.216485e+01    2.312014e+00
  1.218072e+01    2.311731e+00
  1.219660e+01    2.343090e+00
  1.221247e+01    2.300134e+00
  1.222835e+01    2.315824e+00
  1.224422e+01    2.351984e+00
  1.226010e+01    2.408769e+00
  1.227597e+01    2.319029e+00
  1.229185e+01    2.284425e+00
  1.230773e+01    2.325519e+00
  1.232360e+01    2.334522e+00
  1.233948e+01    2.338021e+00
  1.235535e+01    2.376481e+00
  1.237123e+01    2.315391e+00
  1.238710e+01    2.322526e+00
  1.240298e+01    2.320695e+00
  1.241886e+01    2.353870e+00
  1.243473e+01    2.374098e+00
  1.245061e+01    2.335223e+00
  1.246648e+01    2.320424e+00
  1.248236e+01    2.376591e+00
  1.249823e+01    2.417625e+00
  1.251411e+01    2.392954e+00
  1.252998e+01    2.349687e+00
  1.254586e+01    2.353043e+00
  1.256174e+01    2.391611e+00
  1.257761e+01    2.370302e+00
  1.259349e+01    2.384844e+00
  1.260936e+01    2.426864e+00
  1.262524e+01    2.453962e+00
  1.264111e+01    2.471581e+00
  1.265699e+01    2.442947e+00
  1.267286e+01    2.500473e+00
  1.268874e+01    2.478787e+00
  1.270462e+01    2.490891e+00
  1.272049e+01    2.499676e+00
  1.273637e+01    2.560852e+00
  1.275224e+01    2.603169e+00
  1.276812e+01    2.597836e+00
  1.278399e+01    2.616337e+00
  1.279987e+01    2.672071e+00
  1.281574e+01    2.740642e+00
  1.283162e+01    2.772171e+00
  1.284750e+01    2.862679e+00
  1.286337e+01    2.963005e+00
  1.287925e+01    3.032013e+00
  1.289512e+01    3.148410e+00
  1.291100e+01    3.323501e+00
  1.292687e+01    3.473083e+00
  1.294275e+01    3.647927e+00
  1.295862e+01    4.026032e+00
  1.297450e+01    4.334264e+00
  1.299038e+01    4.758775e+00
  1.300625e+01    5.308245e+00
  1.302213e+01    5.978907e+00
  1.303800e+01    6.821720e+00
  1.305388e+01    7.880388e+00
  1.306975e+01    9.180576e+00
  1.308563e+01    1.073476e+01
  1.310150e+01    1.220058e+01
  1.311738e+01    1.358994e+01
  1.313326e+01    1.496887e+01
  1.314913e+01    1.635579e+01
  1.316501e+01    1.765319e+01
  1.318088e+01    1.863804e+01
  1.319676e+01    1.899717e+01
  1.321263e+01    1.843761e+01
  1.322851e+01    1.699838e+01
  1.324438e+01    1.485406e+01
  1.326026e+01    1.249559e+01
  1.327614e+01    1.053804e+01
  1.329201e+01    8.905463e+00
  1.330789e+01    7.569678e+00
  1.332376e+01    6.444172e+00
  1.333964e+01    5.714052e+00
  1.335551e+01    5.113668e+00
  1.337139e+01    4.539279e+00
  1.338727e+01    4.143559e+00
  1.340314e+01    3.837757e+00
  1.341902e+01    3.587730e+00
  1.343489e+01    3.392549e+00
  1.345077e+01    3.221778e+00
  1.346664e+01    3.056364e+00
  1.348252e+01    3.039635e+00
  1.349839e+01    2.915504e+00
  1.351427e+01    2.768602e+00
  1.353015e+01    2.680341e+00
  1.354602e+01    2.656263e+00
  1.356190e+01    2.599405e+00
  1.357777e+01    2.491004e+00
  1.359365e+01    2.485748e+00
  1.360952e+01    2.458443e+00
  1.362540e+01    2.378406e+00
  1.364127e+01    2.324834e+00
  1.365715e+01    2.326015e+00
  1.367303e+01    2.306439e+00
  1.368890e+01    2.293072e+00
  1.370478e+01    2.272205e+00
  1.372065e+01    2.258530e+00
  1.373653e+01    2.252255e+00
  1.375240e+01    2.253701e+00
  1.376828e+01    2.220324e+00
  1.378415e+01    2.203328e+00
  1.380003e+01    2.163824e+00
  1.381591e+01    2.165277e+00
  1.383178e+01    2.195043e+00
  1.384766e+01    2.166627e+00
  1.386353e+01    2.168225e+00
  1.387941e+01    2.173535e+00
  1.389528e+01    2.158943e+00
  1.391116e+01    2.167875e+00
  1.392703e+01    2.117063e+00
  1.394291e+01    2.103979e+00
  1.395879e+01    2.080274e+00
  1.397466e+01    2.091441e+00
  1.399054e+01    2.106983e+00
  1.400641e+01    2.091880e+00
  1.402229e+01    2.109437e+00
  1.403816e+01    2.091880e+00
  1.405404e+01    2.083470e+00
  1.406991e+01    2.056713e+00
  1.408579e+01    2.032305e+00
  1.410167e+01    2.027285e+00
  1.411754e+01    2.018515e+00
  1.413342e+01    2.031281e+00
  1.414929e+01    1.998059e+00
  1.416517e+01    2.016971e+00
  1.418104e+01    2.015038e+00
  1.419692e+01    2.023220e+00
  1.421279e+01    2.010075e+00
  1.422867e+01    1.983339e+00
  1.424455e+01    1.973575e+00
  1.426042e+01    1.946784e+00
  1.427630e+01    1.951614e+00
  1.429217e+01    2.018238e+00
  1.430805e+01    2.011714e+00
  1.432392e+01    1.982215e+00
  1.433980e+01    1.957034e+00
  1.435568e+01    1.975578e+00
  1.437155e+01    1.948571e+00
  1.438743e+01    1.965356e+00
  1.440330e+01    1.958648e+00
  1.441918e+01    1.964793e+00
  1.443505e+01    1.954873e+00
  1.445093e+01    1.931084e+00
  1.446680e+01    1.936878e+00
  1.448268e+01    1.935472e+00
  1.449856e+01    1.951152e+00
  1.451443e+01    1.933954e+00
  1.453031e+01    1.924678e+00
  1.454618e+01    1.928742e+00
  1.456206e+01    1.925835e+00
  1.457793e+01    1.877781e+00
  1.459381e+01    1.923335e+00
  1.460968e+01    1.939565e+00
  1.462556e+01    1.963153e+00
  1.464144e+01    1.938146e+00
  1.465731e+01    1.931549e+00
  1.467319e+01    1.963286e+00
  1.468906e+01    1.945151e+00
  1.470494e+01    1.953373e+00
  1.472081e+01    1.915602e+00
  1.473669e+01    1.928635e+00
  1.475256e+01    1.949967e+00
  1.476844e+01    1.920274e+00
  1.478432e+01    1.915450e+00
  1.480019e+01    1.984907e+00
  1.481607e+01    1.958641e+00
  1.483194e+01    1.933236e+00
  1.484782e+01    1.944733e+00
  1.486369e+01    1.947075e+00
  1.487957e+01    1.941591e+00
  1.489544e+01    1.979908e+00
  1.491132e+01    1.993829e+00
  1.492720e+01    2.016145e+00
  1.494307e+01    1.992056e+00
  1.495895e+01    2.029314e+00
  1.497482e+01    2.120236e+00
  1.499070e+01    2.128935e+00
  1.500657e+01    2.202707e+00
  1.502245e+01    2.224023e+00
  1.503832e+01    2.280184e+00
  1.505420e+01    2.373428e+00
  1.507008e+01    2.524894e+00
  1.508595e+01    2.641360e+00
  1.510183e+01    2.827790e+00
  1.511770e+01    3.023593e+00
  1.513358e+01    3.325363e+00
  1.514945e+01    3.706377e+00
  1.516533e+01    4.101275e+00
  1.518120e+01    4.541635e+00
  1.519708e+01    4.889367e+00
  1.521296e+01    5.279256e+00
  1.522883e+01    5.640117e+00
  1.524471e+01    5.905478e+00
  1.526058e+01    6.184775e+00
  1.527646e+01    6.469858e+00
  1.529233e+01    6.396135e+00
  1.530821e+01    6.169991e+00
  1.532409e+01    5.803191e+00
  1.533996e+01    5.211744e+00
  1.535584e+01    4.540401e+00
  1.537171e+01    4.052940e+00
  1.538759e+01    3.660103e+00
  1.540346e+01    3.265845e+00
  1.541934e+01    2.962724e+00
  1.543521e+01    2.769475e+00
  1.545109e+01    2.570426e+00
  1.546697e+01    2.400817e+00
  1.548284e+01    2.288195e+00
  1.549872e+01    2.194727e+00
  1.551459e+01    2.132564e+00
  1.553047e+01    2.061978e+00
  1.554634e+01    2.025932e+00
  1.556222e+01    1.997765e+00
  1.557809e+01    1.904153e+00
  1.559397e+01    1.883057e+00
  1.560985e+01    1.877776e+00
  1.562572e+01    1.845729e+00
  1.564160e+01    1.836962e+00
  1.565747e+01    1.795456e+00
  1.567335e+01    1.772184e+00
  1.568922e+01    1.765509e+00
  1.570510e+01    1.722808e+00
  1.572097e+01    1.727786e+00
  1.573685e+01    1.701487e+00
  1.575273e+01    1.701920e+00
  1.576860e+01    1.711218e+00
  1.578448e+01    1.729837e+00
  1.580035e+01    1.700771e+00
  1.581623e+01    1.704852e+00
  1.583210e+01    1.698805e+00
  1.584798e+01    1.697655e+00
  1.586385e+01    1.686340e+00
  1.587973e+01    1.687936e+00
  1.589561e+01    1.685339e+00
  1.591148e+01    1.681695e+00
  1.592736e+01    1.675180e+00
  1.594323e+01    1.630378e+00
  1.595911e+01    1.634732e+00
  1.597498e+01    1.625270e+00
  1.599086e+01    1.606802e+00
  1.600673e+01    1.606812e+00
  1.602261e+01    1.610030e+00
  1.603849e+01    1.607284e+00
  1.605436e+01    1.613558e+00
  1.607024e+01    1.634536e+00
  1.608611e+01    1.604160e+00
  1.610199e+01    1.585449e+00
  1.611786e+01    1.604740e+00
  1.613374e+01    1.579751e+00
  1.614961e+01    1.574429e+00
  1.616549e+01    1.586251e+00
  1.618137e+01    1.610528e+00
  1.619724e+01    1.583823e+00
  1.621312e+01    1.568978e+00
  1.622899e+01    1.560159e+00
  1.624487e+01    1.560370e+00
  1.626074e+01    1.584178e+00
  1.627662e+01    1.558845e+00
  1.629250e+01    1.569599e+00
  1.630837e+01    1.541832e+00
  1.632425e+01    1.573037e+00
  1.634012e+01    1.587456e+00
  1.635600e+01    1.577105e+00
  1.637187e+01    1.560068e+00
  1.638775e+01    1.574405e+00
  1.640362e+01    1.568286e+00
  1.641950e+01    1.553020e+00
  1.643538e+01    1.515605e+00
  1.645125e+01    1.476541e+00
  1.646713e+01    1.480485e+00
  1.648300e+01    1.500858e+00
  1.649888e+01    1.536078e+00
  1.651475e+01    1.538631e+00
  1.653063e+01    1.539999e+00
  1.654650e+01    1.554880e+00
  1.656238e+01    1.537874e+00
  1.657826e+01    1.520515e+00
  1.659413e+01    1.518749e+00
  1.661001e+01    1.467995e+00
  1.662588e+01    1.496407e+00
  1.664176e+01    1.485705e+00
  1.665763e+01    1.481596e+00
  1.667351e+01    1.488639e+00
  1.668938e+01    1.466491e+00
  1.670526e+01    1.471904e+00
  1.672114e+01    1.490049e+00
  1.673701e+01    1.470151e+00
  1.675289e+01    1.483460e+00
  1.676876e+01    1.461440e+00
  1.678464e+01    1.459588e+00
  1.680051e+01    1.467888e+00
  1.681639e+01    1.476893e+00
  1.683226e+01    1.453093e+00
  1.684814e+01    1.463591e+00
  1.686402e+01    1.475156e+00
  1.687989e+01    1.455141e+00
  1.689577e+01    1.464674e+00
  1.691164e+01    1.456474e+00
  1.692752e+01    1.470650e+00
  1.694339e+01    1.468080e+00
  1.695927e+01    1.441749e+00
  1.697514e+01    1.445566e+00
  1.699102e+01    1.466498e+00
  1.700690e+01    1.471222e+00
  1.702277e+01    1.442995e+00
  1.703865e+01    1.430934e+00
  1.705452e+01    1.419416e+00
  1.707040e+01    1.420006e+00
  1.708627e+01    1.403576e+00
  1.710215e+01    1.441155e+00
  1.711802e+01    1.457901e+00
  1.713390e+01    1.421659e+00
  1.714978e+01    1.419785e+00
  1.716565e+01    1.440235e+00
  1.718153e+01    1.449213e+00
  1.719740e+01    1.442378e+00
  1.721328e+01    1.433534e+00
  1.722915e+01    1.416057e+00
  1.724503e+01    1.436389e+00
  1.726091e+01    1.394894e+00
  1.727678e+01    1.386442e+00
  1.729266e+01    1.389858e+00
  1.730853e+01    1.392195e+00
  1.732441e+01    1.420996e+00
  1.734028e+01    1.427070e+00
  1.735616e+01    1.427368e+00
  1.737203e+01    1.400044e+00
  1.738791e+01    1.383761e+00
  1.740379e+01    1.416187e+00
  1.741966e+01    1.396219e+00
  1.743554e+01    1.384465e+00
  1.745141e+01    1.368045e+00
  1.746729e+01    1.355702e+00
  1.748316e+01    1.367533e+00
  1.749904e+01    1.379009e+00
  1.751491e+01    1.403870e+00
  1.753079e+01    1.385931e+00
  1.754667e+01    1.391411e+00
  1.756254e+01    1.363617e+00
  1.757842e+01    1.353655e+00
  1.759429e+01    1.372524e+00
  1.761017e+01    1.371005e+00
  1.762604e+01    1.359037e+00
  1.764192e+01    1.370844e+00
  1.765779e+01    1.375613e+00
  1.767367e+01    1.376085e+00
  1.768955e+01    1.364044e+00
  1.770542e+01    1.345734e+00
  1.772130e+01    1.343633e+00
  1.773717e+01    1.326394e+00
  1.775305e+01    1.347124e+00
  1.776892e+01    1.356482e+00
  1.778480e+01    1.356583e+00
  1.780067e+01    1.351107e+00
  1.781655e+01    1.355891e+00
  1.783243e+01    1.353591e+00
  1.784830e+01    1.358037e+00
  1.786418e+01    1.353585e+00
  1.788005e+01    1.331593e+00
  1.789593e+01    1.331166e+00
  1.791180e+01    1.340023e+00
  1.792768e+01    1.336807e+00
  1.794355e+01    1.293866e+00
  1.795943e+01    1.321089e+00
  1.797531e+01    1.312976e+00
  1.799118e+01    1.307175e+00
  1.800706e+01    1.330117e+00
  1.802293e+01    1.302990e+00
  1.803881e+01    1.288997e+00
  1.805468e+01    1.282012e+00
  1.807056e+01    1.289280e+00
  1.808643e+01    1.309549e+00
  1.810231e+01    1.327902e+00
  1.811819e+01    1.304945e+00
  1.813406e+01    1.306632e+00
  1.814994e+01    1.275770e+00
  1.816581e+01    1.280762e+00
  1.818169e+01    1.306482e+00
  1.819756e+01    1.295530e+00
  1.821344e+01    1.270132e+00
  1.822932e+01    1.262874e+00
  1.824519e+01    1.288995e+00
  1.826107e+01    1.294838e+00
  1.827694e+01    1.278998e+00
  1.829282e+01    1.264810e+00
  1.830869e+01    1.258050e+00
  1.832457e+01    1.268156e+00
  1.834044e+01    1.248841e+00
  1.835632e+01    1.267557e+00
  1.837220e+01    1.274955e+00
  1.838807e+01    1.256768e+00
  1.840395e+01    1.296523e+00
  1.841982e+01    1.283269e+00
  1.843570e+01    1.244851e+00
  1.845157e+01    1.255288e+00
  1.846745e+01    1.279186e+00
  1.848332e+01    1.283424e+00
  1.849920e+01    1.259295e+00
  1.851508e+01    1.253242e+00
  1.853095e+01    1.262201e+00
  1.854683e+01    1.273751e+00
  1.856270e+01    1.270555e+00
  1.857858e+01    1.283248e+00
  1.859445e+01    1.252449e+00
  1.861033e+01    1.240933e+00
  1.862620e+01    1.241820e+00
  1.864208e+01    1.228588e+00
  1.865796e+01    1.217480e+00
  1.867383e+01    1.207495e+00
  1.868971e+01    1.216837e+00
  1.870558e+01    1.223207e+00
  1.872146e+01    1.224910e+00
  1.873733e+01    1.239319e+00
  1.875321e+01    1.225309e+00
  1.876908e+01    1.223122e+00
  1.878496e+01    1.241940e+00
  1.880084e+01    1.217054e+00
  1.881671e+01    1.201371e+00
  1.883259e+01    1.203705e+00
  1.884846e+01    1.209354e+00
  1.886434e+01    1.214316e+00
  1.888021e+01    1.222488e+00
  1.889609e+01    1.228957e+00
  1.891196e+01    1.216145e+00
  1.892784e+01    1.239115e+00
  1.894372e+01    1.201354e+00
  1.895959e+01    1.205764e+00
  1.897547e+01    1.254140e+00
  1.899134e+01    1.211972e+00
  1.900722e+01    1.230768e+00
  1.902309e+01    1.199053e+00
  1.903897e+01    1.183486e+00
  1.905484e+01    1.201608e+00
  1.907072e+01    1.190015e+00
  1.908660e+01    1.188213e+00
  1.910247e+01    1.201650e+00
  1.911835e+01    1.197275e+00
  1.913422e+01    1.211201e+00
  1.915010e+01    1.219175e+00
  1.916597e+01    1.200921e+00
  1.918185e+01    1.176055e+00
  1.919773e+01    1.164179e+00
  1.921360e+01    1.171052e+00
  1.922948e+01    1.195594e+00
  1.924535e+01    1.179941e+00
  1.926123e+01    1.198967e+00
  1.927710e+01    1.207991e+00
  1.929298e+01    1.172398e+00
  1.930885e+01    1.179914e+00
  1.932473e+01    1.198613e+00
  1.934061e+01    1.175483e+00
  1.935648e+01    1.172814e+00
  1.937236e+01    1.159579e+00
  1.938823e+01    1.174000e+00
  1.940411e+01    1.172388e+00
  1.941998e+01    1.192044e+00
  1.943586e+01    1.174226e+00
  1.945173e+01    1.148589e+00
  1.946761e+01    1.176495e+00
  1.948349e+01    1.170265e+00
  1.949936e+01    1.159904e+00
  1.951524e+01    1.179988e+00
  1.953111e+01    1.176173e+00
  1.954699e+01    1.163610e+00
  1.956286e+01    1.164784e+00
  1.957874e+01    1.186821e+00
  1.959461e+01    1.167689e+00
  1.961049e+01    1.129117e+00
  1.962637e+01    1.159250e+00
  1.964224e+01    1.157543e+00
  1.965812e+01    1.153127e+00
  1.967399e+01    1.149697e+00
  1.968987e+01    1.164433e+00
  1.970574e+01    1.153719e+00
  1.972162e+01    1.155755e+00
  1.973749e+01    1.150851e+00
  1.975337e+01    1.156472e+00
  1.976925e+01    1.173044e+00
  1.978512e+01    1.157691e+00
  1.980100e+01    1.157418e+00
  1.981687e+01    1.144053e+00
  1.983275e+01    1.146934e+00
  1.984862e+01    1.145908e+00
  1.986450e+01    1.152398e+00
  1.988037e+01    1.124097e+00
  1.989625e+01    1.114786e+00
  1.991213e+01    1.138334e+00
  1.992800e+01    1.136793e+00
  1.994388e+01    1.129250e+00
  1.995975e+01    1.134750e+00
  1.997563e+01    1.146808e+00
  1.999150e+01    1.133484e+00
  2.000738e+01    1.121415e+00
  2.002325e+01    1.123767e+00
  2.003913e+01    1.145454e+00
  2.005501e+01    1.123261e+00
  2.007088e+01    1.135969e+00
  2.008676e+01    1.114826e+00
  2.010263e+01    1.109011e+00
  2.011851e+01    1.117101e+00
  2.013438e+01    1.119018e+00
  2.015026e+01    1.108748e+00
  2.016614e+01    1.126464e+00
  2.018201e+01    1.134896e+00
  2.019789e+01    1.115541e+00
  2.021376e+01    1.124166e+00
  2.022964e+01    1.104907e+00
  2.024551e+01    1.109333e+00
  2.026139e+01    1.098520e+00
  2.027726e+01    1.103864e+00
  2.029314e+01    1.129187e+00
  2.030902e+01    1.126369e+00
  2.032489e+01    1.113114e+00
  2.034077e+01    1.109648e+00
  2.035664e+01    1.109774e+00
  2.037252e+01    1.104087e+00
  2.038839e+01    1.097447e+00
  2.040427e+01    1.095660e+00
  2.042014e+01    1.101680e+00
  2.043602e+01    1.121087e+00
  2.045190e+01    1.097179e+00
  2.046777e+01    1.071775e+00
  2.048365e+01    1.089604e+00
  2.049952e+01    1.100115e+00
  2.051540e+01    1.114751e+00
  2.053127e+01    1.122206e+00
  2.054715e+01    1.108445e+00
  2.056302e+01    1.110845e+00
  2.057890e+01    1.112865e+00
  2.059478e+01    1.087685e+00
  2.061065e+01    1.103026e+00
  2.062653e+01    1.097265e+00
  2.064240e+01    1.097404e+00
  2.065828e+01    1.093436e+00
  2.067415e+01    1.082206e+00
  2.069003e+01    1.109186e+00
  2.070590e+01    1.097722e+00
  2.072178e+01    1.100797e+00
  2.073766e+01    1.069995e+00
  2.075353e+01    1.082674e+00
  2.076941e+01    1.105501e+00
  2.078528e+01    1.100261e+00
  2.080116e+01    1.089892e+00
  2.081703e+01    1.093733e+00
  2.083291e+01    1.095654e+00
  2.084878e+01    1.110104e+00
  2.086466e+01    1.104035e+00
  2.088054e+01    1.097018e+00
  2.089641e+01    1.091913e+00
  2.091229e+01    1.072898e+00
  2.092816e+01    1.091802e+00
  2.094404e+01    1.101866e+00
  2.095991e+01    1.094959e+00
  2.097579e+01    1.097715e+00
  2.099166e+01    1.086715e+00
  2.100754e+01    1.090160e+00
  2.102342e+01    1.117339e+00
  2.103929e+01    1.097382e+00
  2.105517e+01    1.092179e+00
  2.107104e+01    1.080793e+00
  2.108692e+01    1.077281e+00
  2.110279e+01    1.081430e+00
  2.111867e+01    1.078327e+00
  2.113455e+01    1.079386e+00
  2.115042e+01    1.101093e+00
  2.116630e+01    1.088513e+00
  2.118217e+01    1.098830e+00
  2.119805e+01    1.139492e+00
  2.121392e+01    1.142165e+00
  2.122980e+01    1.132564e+00
  2.124567e+01    1.127012e+00
  2.126155e+01    1.113928e+00
  2.127743e+01    1.125076e+00
  2.129330e+01    1.134056e+00
  2.130918e+01    1.147619e+00
  2.132505e+01    1.135499e+00
  2.134093e+01    1.137034e+00
  2.135680e+01    1.148754e+00
  2.137268e+01    1.176991e+00
  2.138855e+01    1.181049e+00
  2.140443e+01    1.196302e+00
  2.142031e+01    1.181031e+00
  2.143618e+01    1.212324e+00
  2.145206e+01    1.246914e+00
  2.146793e+01    1.255399e+00
  2.148381e+01    1.254994e+00
  2.149968e+01    1.281602e+00
  2.151556e+01    1.306532e+00
  2.153143e+01    1.317210e+00
  2.154731e+01    1.373418e+00
  2.156319e+01    1.422002e+00
  2.157906e+01    1.467385e+00
  2.159494e+01    1.490197e+00
  2.161081e+01    1.569456e+00
  2.162669e+01    1.674383e+00
  2.164256e+01    1.792139e+00
  2.165844e+01    1.878881e+00
  2.167431e+01    2.002484e+00
  2.169019e+01    2.185773e+00
  2.170607e+01    2.417241e+00
  2.172194e+01    2.632877e+00
  2.173782e+01    2.978811e+00
  2.175369e+01    3.373506e+00
  2.176957e+01    3.833894e+00
  2.178544e+01    4.446333e+00
  2.180132e+01    5.105046e+00
  2.181719e+01    5.786436e+00
  2.183307e+01    6.556635e+00
  2.184895e+01    7.353549e+00
  2.186482e+01    8.155779e+00
  2.188070e+01    9.017838e+00
  2.189657e+01    9.735064e+00
  2.191245e+01    1.032946e+01
  2.192832e+01    1.048567e+01
  2.194420e+01    1.023002e+01
  2.196007e+01    9.525554e+00
  2.197595e+01    8.527731e+00
  2.199183e+01    7.429465e+00
  2.200770e+01    6.322370e+00
  2.202358e+01    5.310606e+00
  2.203945e+01    4.485788e+00
  2.205533e+01    3.845785e+00
  2.207120e+01    3.357207e+00
  2.208708e+01    2.931276e+00
  2.210296e+01    2.606654e+00
  2.211883e+01    2.367618e+00
  2.213471e+01    2.188859e+00
  2.215058e+01    2.027223e+00
  2.216646e+01    1.873595e+00
  2.218233e+01    1.742653e+00
  2.219821e+01    1.639251e+00
  2.221408e+01    1.582119e+00
  2.222996e+01    1.496992e+00
  2.224584e+01    1.437229e+00
  2.226171e+01    1.377519e+00
  2.227759e+01    1.293038e+00
  2.229346e+01    1.267603e+00
  2.230934e+01    1.278468e+00
  2.232521e+01    1.237258e+00
  2.234109e+01    1.195952e+00
  2.235696e+01    1.187360e+00
  2.237284e+01    1.156159e+00
  2.238872e+01    1.165327e+00
  2.240459e+01    1.154156e+00
  2.242047e+01    1.124655e+00
  2.243634e+01    1.125695e+00
  2.245222e+01    1.126298e+00
  2.246809e+01    1.095320e+00
  2.248397e+01    1.065293e+00
  2.249984e+01    1.063645e+00
  2.251572e+01    1.062270e+00
  2.253160e+01    1.065741e+00
  2.254747e+01    1.037107e+00
  2.256335e+01    1.008964e+00
  2.257922e+01    1.013481e+00
  2.259510e+01    1.007845e+00
  2.261097e+01    9.921998e-01
  2.262685e+01    9.753406e-01
  2.264272e+01    1.007457e+00
  2.265860e+01    9.821534e-01
  2.267448e+01    9.632280e-01
  2.269035e+01    9.685936e-01
  2.270623e+01    9.710009e-01
  2.272210e+01    9.584203e-01
  2.273798e+01    9.595296e-01
  2.275385e+01    9.537326e-01
  2.276973e+01    9.617774e-01
  2.278560e+01    9.642998e-01
  2.280148e+01    9.464890e-01
  2.281736e+01    9.345696e-01
  2.283323e+01    9.302042e-01
  2.284911e+01    9.518949e-01
  2.286498e+01    9.508443e-01
  2.288086e+01    9.490682e-01
  2.289673e+01    9.404252e-01
  2.291261e+01    9.064490e-01
  2.292848e+01    9.104560e-01
  2.294436e+01    9.327713e-01
  2.296024e+01    9.317030e-01
  2.297611e+01    9.396362e-01
  2.299199e+01    9.159223e-01
  2.300786e+01    8.944277e-01
  2.302374e+01    8.980132e-01
  2.303961e+01    9.259034e-01
  2.305549e+01    9.043568e-01
  2.307137e+01    8.936059e-01
  2.308724e+01    8.990230e-01
  2.310312e+01    9.158178e-01
  2.311899e+01    9.128330e-01
  2.313487e+01    9.036370e-01
  2.315074e+01    8.904527e-01
  2.316662e+01    8.733432e-01
  2.318249e+01    8.870144e-01
  2.319837e+01    8.839622e-01
  2.321425e+01    8.957700e-01
  2.323012e+01    8.862129e-01
  2.324600e+01    8.864953e-01
  2.326187e+01    8.614039e-01
  2.327775e+01    8.735963e-01
  2.329362e+01    8.903682e-01
  2.330950e+01    8.770240e-01
  2.332537e+01    8.614287e-01
  2.334125e+01    8.544647e-01
  2.335713e+01    8.621488e-01
  2.337300e+01    8.656133e-01
  2.338888e+01    8.681840e-01
  2.340475e+01    8.668713e-01
  2.342063e+01    8.592187e-01
  2.343650e+01    8.472326e-01
  2.345238e+01    8.673847e-01
  2.346825e+01    8.670352e-01
  2.348413e+01    8.674607e-01
  2.350001e+01    8.342862e-01
  2.351588e+01    8.409542e-01
  2.353176e+01    8.512498e-01
  2.354763e+01    8.608819e-01
  2.356351e+01    8.488440e-01
  2.357938e+01    8.674871e-01
  2.359526e+01    8.719013e-01
  2.361113e+01    8.663349e-01
  2.362701e+01    8.626578e-01
  2.364289e+01    8.620363e-01
  2.365876e+01    8.668104e-01
  2.367464e+01    8.555294e-01
  2.369051e+01    8.541209e-01
  2.370639e+01    8.465589e-01
  2.372226e+01    8.361726e-01
  2.373814e+01    8.249937e-01
  2.375401e+01    8.253433e-01
  2.376989e+01    8.272769e-01
  2.378577e+01    8.189687e-01
  2.380164e+01    8.287352e-01
  2.381752e+01    8.272467e-01
  2.383339e+01    8.243074e-01
  2.384927e+01    8.053460e-01
  2.386514e+01    7.978973e-01
  2.388102e+01    8.112633e-01
  2.389689e+01    8.030919e-01
  2.391277e+01    8.023645e-01
  2.392865e+01    8.110508e-01
  2.394452e+01    7.997042e-01
  2.396040e+01    7.955742e-01
  2.397627e+01    7.919810e-01
  2.399215e+01    7.793183e-01
  2.400802e+01    7.968248e-01
  2.402390e+01    8.200564e-01
  2.403978e+01    7.982706e-01
  2.405565e+01    7.842915e-01
  2.407153e+01    7.734509e-01
  2.408740e+01    7.801408e-01
  2.410328e+01    7.765635e-01
  2.411915e+01    7.922282e-01
  2.413503e+01    8.125373e-01
  2.415090e+01    7.882496e-01
  2.416678e+01    7.764457e-01
  2.418266e+01    7.703800e-01
  2.419853e+01    7.833818e-01
  2.421441e+01    7.892742e-01
  2.423028e+01    7.816059e-01
  2.424616e+01    7.896233e-01
  2.426203e+01    8.075332e-01
  2.427791e+01    8.145954e-01
  2.429378e+01    8.266631e-01
  2.430966e+01    8.225610e-01
  2.432554e+01    8.041633e-01
  2.434141e+01    8.174238e-01
  2.435729e+01    8.088881e-01
  2.437316e+01    8.105618e-01
  2.438904e+01    8.123779e-01
  2.440491e+01    7.959955e-01
  2.442079e+01    8.097951e-01
  2.443666e+01    8.092944e-01
  2.445254e+01    8.045660e-01
  2.446842e+01    7.915999e-01
  2.448429e+01    7.976514e-01
  2.450017e+01    8.022946e-01
  2.451604e+01    8.021480e-01
  2.453192e+01    8.105000e-01
  2.454779e+01    7.900457e-01
  2.456367e+01    7.905926e-01
  2.457954e+01    7.985905e-01
  2.459542e+01    8.023486e-01
  2.461130e+01    8.112320e-01
  2.462717e+01    8.142433e-01
  2.464305e+01    8.373892e-01
  2.465892e+01    8.173422e-01
  2.467480e+01    7.906590e-01
  2.469067e+01    7.892668e-01
  2.470655e+01    7.895446e-01
  2.472242e+01    8.036990e-01
  2.473830e+01    8.119993e-01
  2.475418e+01    8.125222e-01
  2.477005e+01    7.835306e-01
  2.478593e+01    7.784089e-01
  2.480180e+01    8.013899e-01
  2.481768e+01    8.160380e-01
  2.483355e+01    8.110967e-01
  2.484943e+01    7.998040e-01
  2.486530e+01    7.990277e-01
  2.488118e+01    7.814025e-01
  2.489706e+01    8.078831e-01
  2.491293e+01    8.029326e-01
  2.492881e+01    8.028376e-01
  2.494468e+01    7.908887e-01
  2.496056e+01    8.046513e-01
  2.497643e+01    8.144292e-01
  2.499231e+01    8.056526e-01
  2.500819e+01    8.151296e-01
  2.502406e+01    8.215674e-01
  2.503994e+01    8.305007e-01
  2.505581e+01    8.008443e-01
  2.507169e+01    8.037226e-01
  2.508756e+01    8.126656e-01
  2.510344e+01    8.346300e-01
  2.511931e+01    8.284997e-01
  2.513519e+01    8.317916e-01
  2.515107e+01    8.488132e-01
  2.516694e+01    8.600851e-01
  2.518282e+01    8.287889e-01
  2.519869e+01    8.440267e-01
  2.521457e+01    8.454716e-01
  2.523044e+01    8.526677e-01
  2.524632e+01    8.609169e-01
  2.526219e+01    8.835101e-01
  2.527807e+01    8.697144e-01
  2.529395e+01    8.734384e-01
  2.530982e+01    8.794591e-01
  2.532570e+01    8.689494e-01
  2.534157e+01    8.871236e-01
  2.535745e+01    8.919394e-01
  2.537332e+01    8.981029e-01
  2.538920e+01    9.089524e-01
  2.540507e+01    9.239567e-01
  2.542095e+01    9.226153e-01
  2.543683e+01    9.248672e-01
  2.545270e+01    9.392286e-01
  2.546858e+01    9.557543e-01
  2.548445e+01    9.729028e-01
  2.550033e+01    9.625925e-01
  2.551620e+01    1.000522e+00
  2.553208e+01    1.024359e+00
  2.554795e+01    1.031477e+00
  2.556383e+01    1.057454e+00
  2.557971e+01    1.055520e+00
  2.559558e+01    1.107818e+00
  2.561146e+01    1.112368e+00
  2.562733e+01    1.132730e+00
  2.564321e+01    1.177406e+00
  2.565908e+01    1.237713e+00
  2.567496e+01    1.289620e+00
  2.569083e+01    1.354188e+00
  2.570671e+01    1.405022e+00
  2.572259e+01    1.483999e+00
  2.573846e+01    1.608807e+00
  2.575434e+01    1.727760e+00
  2.577021e+01    1.892998e+00
  2.578609e+01    2.094694e+00
  2.580196e+01    2.311227e+00
  2.581784e+01    2.588923e+00
  2.583371e+01    2.938849e+00
  2.584959e+01    3.389017e+00
  2.586547e+01    3.900078e+00
  2.588134e+01    4.482477e+00
  2.589722e+01    5.140669e+00
  2.591309e+01    5.848374e+00
  2.592897e+01    6.603251e+00
  2.594484e+01    7.316573e+00
  2.596072e+01    7.972801e+00
  2.597660e+01    8.442446e+00
  2.599247e+01    8.676728e+00
  2.600835e+01    8.619823e+00
  2.602422e+01    8.210214e+00
  2.604010e+01    7.454595e+00
  2.605597e+01    6.609227e+00
  2.607185e+01    5.682630e+00
  2.608772e+01    4.837655e+00
  2.610360e+01    4.140867e+00
  2.611948e+01    3.548095e+00
  2.613535e+01    3.075419e+00
  2.615123e+01    2.676371e+00
  2.616710e+01    2.376043e+00
  2.618298e+01    2.150480e+00
  2.619885e+01    1.954634e+00
  2.621473e+01    1.805838e+00
  2.623060e+01    1.678892e+00
  2.624648e+01    1.594732e+00
  2.626236e+01    1.467371e+00
  2.627823e+01    1.388046e+00
  2.629411e+01    1.336550e+00
  2.630998e+01    1.286734e+00
  2.632586e+01    1.218794e+00
  2.634173e+01    1.165991e+00
  2.635761e+01    1.142761e+00
  2.637348e+01    1.115536e+00
  2.638936e+01    1.068029e+00
  2.640524e+01    1.062042e+00
  2.642111e+01    1.026921e+00
  2.643699e+01    1.018955e+00
  2.645286e+01    1.009188e+00
  2.646874e+01    1.026726e+00
  2.648461e+01    1.003181e+00
  2.650049e+01    9.743670e-01
  2.651636e+01    9.867222e-01
  2.653224e+01    1.004814e+00
  2.654812e+01    9.732044e-01
  2.656399e+01    9.768906e-01
  2.657987e+01    9.643756e-01
  2.659574e+01    9.332840e-01
  2.661162e+01    9.406416e-01
  2.662749e+01    9.372753e-01
  2.664337e+01    9.303968e-01
  2.665924e+01    8.979396e-01
  2.667512e+01    9.306991e-01
  2.669100e+01    9.212613e-01
  2.670687e+01    9.002594e-01
  2.672275e+01    9.189319e-01
  2.673862e+01    9.418181e-01
  2.675450e+01    9.146731e-01
  2.677037e+01    9.095381e-01
  2.678625e+01    9.274442e-01
  2.680212e+01    8.970286e-01
  2.681800e+01    8.991407e-01
  2.683388e+01    9.135708e-01
  2.684975e+01    9.304501e-01
  2.686563e+01    9.335911e-01
  2.688150e+01    9.309393e-01
  2.689738e+01    9.250486e-01
  2.691325e+01    9.370226e-01
  2.692913e+01    9.474033e-01
  2.694501e+01    9.490237e-01
  2.696088e+01    9.744300e-01
  2.697676e+01    9.929193e-01
  2.699263e+01    9.977939e-01
  2.700851e+01    9.973277e-01
  2.702438e+01    1.040395e+00
  2.704026e+01    1.053369e+00
  2.705613e+01    1.097863e+00
  2.707201e+01    1.159676e+00
  2.708789e+01    1.231934e+00
  2.710376e+01    1.338423e+00
  2.711964e+01    1.418168e+00
  2.713551e+01    1.508521e+00
  2.715139e+01    1.646169e+00
  2.716726e+01    1.779071e+00
  2.718314e+01    1.952987e+00
  2.719901e+01    2.115459e+00
  2.721489e+01    2.304427e+00
  2.723077e+01    2.430981e+00
  2.724664e+01    2.504578e+00
  2.726252e+01    2.501603e+00
  2.727839e+01    2.453060e+00
  2.729427e+01    2.311604e+00
  2.731014e+01    2.152724e+00
  2.732602e+01    1.900893e+00
  2.734189e+01    1.751921e+00
  2.735777e+01    1.634137e+00
  2.737365e+01    1.497598e+00
  2.738952e+01    1.377326e+00
  2.740540e+01    1.266102e+00
  2.742127e+01    1.183954e+00
  2.743715e+01    1.137264e+00
  2.745302e+01    1.102503e+00
  2.746890e+01    1.044282e+00
  2.748477e+01    1.007728e+00
  2.750065e+01    1.003915e+00
  2.751653e+01    9.799044e-01
  2.753240e+01    9.746040e-01
  2.754828e+01    9.599496e-01
  2.756415e+01    9.234473e-01
  2.758003e+01    9.039680e-01
  2.759590e+01    9.071221e-01
  2.761178e+01    9.029642e-01
  2.762765e+01    8.766087e-01
  2.764353e+01    8.908470e-01
  2.765941e+01    8.794050e-01
  2.767528e+01    8.717089e-01
  2.769116e+01    8.564779e-01
  2.770703e+01    8.464562e-01
  2.772291e+01    8.379018e-01
  2.773878e+01    8.392775e-01
  2.775466e+01    8.392577e-01
  2.777054e+01    8.430794e-01
  2.778641e+01    8.344577e-01
  2.780229e+01    8.293158e-01
  2.781816e+01    8.315234e-01
  2.783404e+01    8.263667e-01
  2.784991e+01    8.184191e-01
  2.786579e+01    8.160753e-01
  2.788166e+01    8.256448e-01
  2.789754e+01    8.248990e-01
  2.791342e+01    7.914641e-01
  2.792929e+01    7.925820e-01
  2.794517e+01    7.838085e-01
  2.796104e+01    7.897617e-01
  2.797692e+01    7.814801e-01
  2.799279e+01    7.990830e-01
  2.800867e+01    8.038726e-01
  2.802454e+01    8.029057e-01
  2.804042e+01    7.767554e-01
  2.805630e+01    7.782182e-01
  2.807217e+01    7.918031e-01
  2.808805e+01    7.908705e-01
  2.810392e+01    7.889935e-01
  2.811980e+01    7.914935e-01
  2.813567e+01    8.001554e-01
  2.815155e+01    7.914644e-01
  2.816742e+01    7.734472e-01
  2.818330e+01    7.924367e-01
  2.819918e+01    7.918459e-01
  2.821505e+01    7.824941e-01
  2.823093e+01    7.948288e-01
  2.824680e+01    7.964554e-01
  2.826268e+01    7.880340e-01
  2.827855e+01    7.581463e-01
  2.829443e+01    7.346095e-01
  2.831030e+01    7.617055e-01
  2.832618e+01    7.755320e-01
  2.834206e+01    7.746692e-01
  2.835793e+01    7.842612e-01
  2.837381e+01    7.768204e-01
  2.838968e+01    7.862382e-01
  2.840556e+01    7.866358e-01
  2.842143e+01    7.695545e-01
  2.843731e+01    7.603239e-01
  2.845318e+01    7.617692e-01
  2.846906e+01    7.543904e-01
  2.848494e+01    7.675341e-01
  2.850081e+01    7.765702e-01
  2.851669e+01    7.745808e-01
  2.853256e+01    7.671606e-01
  2.854844e+01    7.717580e-01
  2.856431e+01    7.647722e-01
  2.858019e+01    7.651995e-01
  2.859606e+01    7.783386e-01
  2.861194e+01    7.709861e-01
  2.862782e+01    7.540337e-01
  2.864369e+01    7.573762e-01
  2.865957e+01    7.636377e-01
  2.867544e+01    7.613105e-01
  2.869132e+01    7.538643e-01
  2.870719e+01    7.643992e-01
  2.872307e+01    7.628856e-01
  2.873895e+01    7.593533e-01
  2.875482e+01    7.755347e-01
  2.877070e+01    7.585418e-01
  2.878657e+01    7.599298e-01
  2.880245e+01    7.474404e-01
  2.881832e+01    7.443258e-01
  2.883420e+01    7.464819e-01
  2.885007e+01    7.421425e-01
  2.886595e+01    7.399174e-01
  2.888183e+01    7.731850e-01
  2.889770e+01    7.537540e-01
  2.891358e+01    7.507174e-01
  2.892945e+01    7.561975e-01
  2.894533e+01    7.655724e-01
  2.896120e+01    7.459116e-01
  2.897708e+01    7.550646e-01
  2.899295e+01    7.621037e-01
  2.900883e+01    7.562596e-01
  2.902471e+01    7.481595e-01
  2.904058e+01    7.570614e-01
  2.905646e+01    7.634262e-01
  2.907233e+01    7.547620e-01
  2.908821e+01    7.390621e-01
  2.910408e+01    7.351002e-01
  2.911996e+01    7.365014e-01
  2.913583e+01    7.340587e-01
  2.915171e+01    7.492976e-01
  2.916759e+01    7.333817e-01
  2.918346e+01    7.442641e-01
  2.919934e+01    7.411031e-01
  2.921521e+01    7.353319e-01
  2.923109e+01    7.407570e-01
  2.924696e+01    7.317030e-01
  2.926284e+01    7.372934e-01
  2.927871e+01    7.317070e-01
  2.929459e+01    7.283204e-01
  2.931047e+01    7.539098e-01
  2.932634e+01    7.550645e-01
  2.934222e+01    7.389490e-01
  2.935809e+01    7.400353e-01
  2.937397e+01    7.423415e-01
  2.938984e+01    7.454600e-01
  2.940572e+01    7.515947e-01
  2.942159e+01    7.433527e-01
  2.943747e+01    7.327181e-01
  2.945335e+01    7.360222e-01
  2.946922e+01    7.456626e-01
  2.948510e+01    7.376207e-01
  2.950097e+01    7.150074e-01
  2.951685e+01    7.253218e-01
  2.953272e+01    7.366551e-01
  2.954860e+01    7.451234e-01
  2.956447e+01    7.363898e-01
  2.958035e+01    7.301109e-01
  2.959623e+01    7.179401e-01
  2.961210e+01    7.118858e-01
  2.962798e+01    7.096611e-01
  2.964385e+01    7.147776e-01
  2.965973e+01    7.185183e-01
  2.967560e+01    7.355172e-01
  2.969148e+01    7.751153e-01
  2.970736e+01    7.372165e-01
  2.972323e+01    7.217356e-01
  2.973911e+01    7.302780e-01
  2.975498e+01    7.335007e-01
  2.977086e+01    7.376014e-01
  2.978673e+01    7.364581e-01
  2.980261e+01    7.369161e-01
  2.981848e+01    7.299716e-01
  2.983436e+01    7.275801e-01
  2.985024e+01    7.243281e-01
  2.986611e+01    7.168577e-01
  2.988199e+01    7.279187e-01
  2.989786e+01    7.427745e-01
  2.991374e+01    7.463384e-01
  2.992961e+01    7.219257e-01
  2.994549e+01    7.177873e-01
  2.996136e+01    7.365227e-01
  2.997724e+01    7.496341e-01
  2.999312e+01    7.496698e-01
  3.000899e+01    7.379287e-01
  3.002487e+01    7.196464e-01
  3.004074e+01    7.492174e-01
  3.005662e+01    7.447453e-01
  3.007249e+01    7.414984e-01
  3.008837e+01    7.424271e-01
  3.010424e+01    7.455744e-01
  3.012012e+01    7.343724e-01
  3.013600e+01    7.331917e-01
  3.015187e+01    7.246411e-01
  3.016775e+01    7.269043e-01
  3.018362e+01    7.229269e-01
  3.019950e+01    7.167185e-01
  3.021537e+01    7.238749e-01
  3.023125e+01    7.084892e-01
  3.024712e+01    6.969929e-01
  3.026300e+01    7.048287e-01
  3.027888e+01    7.277003e-01
  3.029475e+01    7.079530e-01
  3.031063e+01    6.974180e-01
  3.032650e+01    7.202017e-01
  3.034238e+01    7.396583e-01
  3.035825e+01    7.198735e-01
  3.037413e+01    7.190840e-01
  3.039000e+01    7.098057e-01
  3.040588e+01    7.111756e-01
  3.042176e+01    7.207334e-01
  3.043763e+01    7.061211e-01
  3.045351e+01    7.034307e-01
  3.046938e+01    7.307448e-01
  3.048526e+01    7.409686e-01
  3.050113e+01    7.098109e-01
  3.051701e+01    7.218807e-01
  3.053288e+01    7.278760e-01
  3.054876e+01    7.278523e-01
  3.056464e+01    7.252932e-01
  3.058051e+01    6.979206e-01
  3.059639e+01    7.119703e-01
  3.061226e+01    6.897454e-01
  3.062814e+01    7.215199e-01
  3.064401e+01    7.394851e-01
  3.065989e+01    7.215024e-01
  3.067577e+01    7.107752e-01
  3.069164e+01    7.130224e-01
  3.070752e+01    7.070410e-01
  3.072339e+01    7.083882e-01
  3.073927e+01    7.118626e-01
  3.075514e+01    7.282077e-01
  3.077102e+01    7.256153e-01
  3.078689e+01    7.306077e-01
  3.080277e+01    7.161633e-01
  3.081865e+01    7.164649e-01
  3.083452e+01    7.185969e-01
  3.085040e+01    7.458631e-01
  3.086627e+01    7.202293e-01
  3.088215e+01    7.274503e-01
  3.089802e+01    7.203261e-01
  3.091390e+01    7.181683e-01
  3.092977e+01    7.288472e-01
  3.094565e+01    7.187269e-01
  3.096153e+01    7.216188e-01
  3.097740e+01    7.264359e-01
  3.099328e+01    7.374372e-01
  3.100915e+01    7.361621e-01
  3.102503e+01    7.223264e-01
  3.104090e+01    7.217813e-01
  3.105678e+01    7.342278e-01
  3.107265e+01    7.240701e-01
  3.108853e+01    7.139516e-01
  3.110441e+01    7.297659e-01
  3.112028e+01    7.332667e-01
  3.113616e+01    7.148580e-01
  3.115203e+01    7.282583e-01
  3.116791e+01    7.448384e-01
  3.118378e+01    7.403566e-01
  3.119966e+01    7.251524e-01
  3.121553e+01    7.435908e-01
  3.123141e+01    7.289310e-01
  3.124729e+01    7.189502e-01
  3.126316e+01    7.319897e-01
  3.127904e+01    7.376558e-01
  3.129491e+01    7.751892e-01
  3.131079e+01    7.585919e-01
  3.132666e+01    7.535924e-01
  3.134254e+01    7.316051e-01
  3.135841e+01    7.481815e-01
  3.137429e+01    7.627808e-01
  3.139017e+01    7.634104e-01
  3.140604e+01    7.523465e-01
  3.142192e+01    7.727301e-01
  3.143779e+01    7.707396e-01
  3.145367e+01    7.790431e-01
  3.146954e+01    7.759194e-01
  3.148542e+01    7.547238e-01
  3.150129e+01    7.736702e-01
  3.151717e+01    7.652159e-01
  3.153305e+01    7.983603e-01
  3.154892e+01    7.875500e-01
  3.156480e+01    7.808203e-01
  3.158067e+01    8.073061e-01
  3.159655e+01    8.116785e-01
  3.161242e+01    7.993994e-01
  3.162830e+01    8.430061e-01
  3.164418e+01    8.605766e-01
  3.166005e+01    8.265561e-01
  3.167593e+01    8.535008e-01
  3.169180e+01    9.117432e-01
  3.170768e+01    9.468697e-01
  3.172355e+01    9.823719e-01
  3.173943e+01    1.022776e+00
  3.175530e+01    1.017543e+00
  3.177118e+01    1.084317e+00
  3.178706e+01    1.167088e+00
  3.180293e+01    1.263430e+00
  3.181881e+01    1.343338e+00
  3.183468e+01    1.498776e+00
  3.185056e+01    1.620859e+00
  3.186643e+01    1.778613e+00
  3.188231e+01    1.953853e+00
  3.189818e+01    2.090043e+00
  3.191406e+01    2.301662e+00
  3.192994e+01    2.451962e+00
  3.194581e+01    2.479617e+00
  3.196169e+01    2.466452e+00
  3.197756e+01    2.430546e+00
  3.199344e+01    2.258162e+00
  3.200931e+01    2.078727e+00
  3.202519e+01    1.878786e+00
  3.204106e+01    1.717571e+00
  3.205694e+01    1.560693e+00
  3.207282e+01    1.405993e+00
  3.208869e+01    1.273191e+00
  3.210457e+01    1.191586e+00
  3.212044e+01    1.122727e+00
  3.213632e+01    1.057765e+00
  3.215219e+01    9.915494e-01
  3.216807e+01    9.415814e-01
  3.218394e+01    9.288864e-01
  3.219982e+01    8.969120e-01
  3.221570e+01    8.513067e-01
  3.223157e+01    8.296790e-01
  3.224745e+01    8.142781e-01
  3.226332e+01    8.147199e-01
  3.227920e+01    8.012976e-01
  3.229507e+01    8.125560e-01
  3.231095e+01    8.000201e-01
  3.232682e+01    7.909209e-01
  3.234270e+01    7.864442e-01
  3.235858e+01    7.768214e-01
  3.237445e+01    7.806556e-01
  3.239033e+01    7.578326e-01
  3.240620e+01    7.509864e-01
  3.242208e+01    7.401238e-01
  3.243795e+01    7.334470e-01
  3.245383e+01    7.574345e-01
  3.246970e+01    7.422298e-01
  3.248558e+01    7.489702e-01
  3.250146e+01    7.474810e-01
  3.251733e+01    7.353306e-01
  3.253321e+01    7.327303e-01
  3.254908e+01    7.136188e-01
