# == pyFAI calibration ==
# Distance Sample to Detector: 0.3999999939076516 m
# PONI: 9.750e-02, 1.135e-01 m
# Rotations: -0.000175 0.000000 -0.000000 rad
# 
# == Fit2d calibration ==
# Distance Sample-beamCenter: 400.000 mm
# Center: x=1514.000, y=1300.000 pix
# Tilt: 0.010 deg  TiltPlanRot: 0.010 deg
# 
# Detector Detector	 Spline= None	 PixelSize= 7.500e-05, 7.500e-05 m
#    Detector has a mask: False 
#    Detector has a dark current: False 
#    detector has a flat field: False 
# 
# Wavelength: 6.888e-11 m
# Mask applied: user provided
# Dark current applied: False
# Flat field applied: False
# Polarization factor: 0.99
# Normalization factor: 1.0
# --> /home/myspot/data/2024_07_Rosario/Ru-CGO-ex/2024-07-27_002_Ru-CGO-ex_Activtation_ramp_000002_data_000178.dat
#       q_nm^-1             I 
  2.003187e-02    0.000000e+00
  3.590745e-02    3.427850e-02
  5.178302e-02    2.430718e-01
  6.765859e-02    3.681216e-01
  8.353417e-02    2.440660e-01
  9.940974e-02    1.061070e-01
  1.152853e-01    3.654584e-02
  1.311609e-01    1.852748e-02
  1.470365e-01    0.000000e+00
  1.629120e-01    3.535499e-04
  1.787876e-01    4.946055e-02
  1.946632e-01    9.876730e-02
  2.105388e-01    2.845726e-02
  2.264143e-01    1.607964e-02
  2.422899e-01    1.772034e-02
  2.581655e-01    3.099695e-02
  2.740411e-01    3.164070e-02
  2.899166e-01    4.997563e-02
  3.057922e-01    2.251959e-02
  3.216678e-01    3.268963e-02
  3.375433e-01    5.284563e-02
  3.534189e-01    7.336374e-02
  3.692945e-01    4.298978e-02
  3.851701e-01    1.465799e-02
  4.010456e-01    3.399588e-02
  4.169212e-01    6.216631e-02
  4.327968e-01    4.506191e-02
  4.486724e-01    3.520938e-02
  4.645479e-01    3.084466e-02
  4.804235e-01    3.296512e-02
  4.962991e-01    3.493635e-02
  5.121747e-01    5.443949e-02
  5.280502e-01    1.922296e-02
  5.439258e-01    2.986866e-02
  5.598014e-01    5.900678e-02
  5.756770e-01    4.913763e-02
  5.915525e-01    3.080368e-02
  6.074281e-01    4.177136e-02
  6.233037e-01    4.682229e-02
  6.391793e-01    3.832462e-02
  6.550548e-01    6.108490e-02
  6.709304e-01    4.939657e-02
  6.868060e-01    2.622410e-02
  7.026815e-01    3.898454e-02
  7.185571e-01    4.445769e-02
  7.344327e-01    5.409769e-02
  7.503083e-01    5.922377e-02
  7.661838e-01    6.179526e-02
  7.820594e-01    6.333918e-02
  7.979350e-01    1.485676e-01
  8.138106e-01    1.937621e-01
  8.296861e-01    2.194832e-01
  8.455617e-01    3.167991e-01
  8.614373e-01    3.605459e-01
  8.773129e-01    4.071635e-01
  8.931884e-01    4.977897e-01
  9.090640e-01    5.451181e-01
  9.249396e-01    6.659642e-01
  9.408152e-01    6.454536e-01
  9.566907e-01    7.621310e-01
  9.725663e-01    8.722275e-01
  9.884419e-01    9.263432e-01
  1.004317e+00    1.080464e+00
  1.020193e+00    1.101893e+00
  1.036069e+00    1.188489e+00
  1.051944e+00    1.286406e+00
  1.067820e+00    1.308518e+00
  1.083695e+00    1.340326e+00
  1.099571e+00    1.359089e+00
  1.115446e+00    1.414140e+00
  1.131322e+00    1.392946e+00
  1.147198e+00    1.340973e+00
  1.163073e+00    1.383846e+00
  1.178949e+00    1.549968e+00
  1.194824e+00    1.610089e+00
  1.210700e+00    1.765582e+00
  1.226575e+00    2.034538e+00
  1.242451e+00    2.161008e+00
  1.258327e+00    2.243302e+00
  1.274202e+00    2.335554e+00
  1.290078e+00    2.277091e+00
  1.305953e+00    2.424734e+00
  1.321829e+00    2.513138e+00
  1.337705e+00    2.441808e+00
  1.353580e+00    2.477346e+00
  1.369456e+00    2.596904e+00
  1.385331e+00    2.507972e+00
  1.401207e+00    2.499826e+00
  1.417082e+00    2.516441e+00
  1.432958e+00    2.530083e+00
  1.448834e+00    2.661247e+00
  1.464709e+00    2.745909e+00
  1.480585e+00    2.713866e+00
  1.496460e+00    2.727964e+00
  1.512336e+00    2.787329e+00
  1.528211e+00    2.829563e+00
  1.544087e+00    2.843707e+00
  1.559963e+00    2.927252e+00
  1.575838e+00    2.997681e+00
  1.591714e+00    2.890415e+00
  1.607589e+00    2.660000e+00
  1.623465e+00    2.770851e+00
  1.639340e+00    2.930022e+00
  1.655216e+00    2.923527e+00
  1.671092e+00    2.864485e+00
  1.686967e+00    2.877313e+00
  1.702843e+00    2.840175e+00
  1.718718e+00    2.804258e+00
  1.734594e+00    2.847274e+00
  1.750469e+00    2.828925e+00
  1.766345e+00    2.771399e+00
  1.782221e+00    2.851203e+00
  1.798096e+00    2.740686e+00
  1.813972e+00    2.752501e+00
  1.829847e+00    2.711715e+00
  1.845723e+00    2.752491e+00
  1.861598e+00    2.773928e+00
  1.877474e+00    2.717675e+00
  1.893350e+00    2.662852e+00
  1.909225e+00    2.725021e+00
  1.925101e+00    2.706065e+00
  1.940976e+00    2.762314e+00
  1.956852e+00    2.797961e+00
  1.972727e+00    2.706583e+00
  1.988603e+00    2.763018e+00
  2.004479e+00    2.724787e+00
  2.020354e+00    2.815312e+00
  2.036230e+00    2.700660e+00
  2.052105e+00    2.659343e+00
  2.067981e+00    2.681288e+00
  2.083856e+00    2.622504e+00
  2.099732e+00    2.659284e+00
  2.115608e+00    2.766838e+00
  2.131483e+00    2.748177e+00
  2.147359e+00    2.665025e+00
  2.163234e+00    2.629179e+00
  2.179110e+00    2.636770e+00
  2.194985e+00    2.565355e+00
  2.210861e+00    2.649121e+00
  2.226737e+00    2.767460e+00
  2.242612e+00    2.778652e+00
  2.258488e+00    2.680101e+00
  2.274363e+00    2.704650e+00
  2.290239e+00    2.766709e+00
  2.306115e+00    2.770889e+00
  2.321990e+00    2.698141e+00
  2.337866e+00    2.784277e+00
  2.353741e+00    2.798506e+00
  2.369617e+00    2.788026e+00
  2.385492e+00    2.729798e+00
  2.401368e+00    2.708006e+00
  2.417244e+00    2.723290e+00
  2.433119e+00    2.795563e+00
  2.448995e+00    2.760311e+00
  2.464870e+00    2.759862e+00
  2.480746e+00    2.737684e+00
  2.496621e+00    2.689094e+00
  2.512497e+00    2.790463e+00
  2.528373e+00    2.690945e+00
  2.544248e+00    2.681849e+00
  2.560124e+00    2.721021e+00
  2.575999e+00    2.675990e+00
  2.591875e+00    2.831793e+00
  2.607750e+00    2.834408e+00
  2.623626e+00    2.798076e+00
  2.639502e+00    2.836140e+00
  2.655377e+00    2.847720e+00
  2.671253e+00    2.846396e+00
  2.687128e+00    2.868592e+00
  2.703004e+00    2.821131e+00
  2.718879e+00    2.751348e+00
  2.734755e+00    2.781898e+00
  2.750631e+00    2.826644e+00
  2.766506e+00    2.867733e+00
  2.782382e+00    2.904707e+00
  2.798257e+00    2.944885e+00
  2.814133e+00    2.922332e+00
  2.830008e+00    2.924845e+00
  2.845884e+00    2.793192e+00
  2.861760e+00    2.790994e+00
  2.877635e+00    2.837859e+00
  2.893511e+00    2.845914e+00
  2.909386e+00    2.882287e+00
  2.925262e+00    2.923701e+00
  2.941137e+00    2.938345e+00
  2.957013e+00    2.850551e+00
  2.972889e+00    2.805799e+00
  2.988764e+00    2.830051e+00
  3.004640e+00    2.948539e+00
  3.020515e+00    2.869747e+00
  3.036391e+00    2.854547e+00
  3.052266e+00    2.827841e+00
  3.068142e+00    2.880267e+00
  3.084018e+00    2.895648e+00
  3.099893e+00    2.899093e+00
  3.115769e+00    2.860202e+00
  3.131644e+00    2.901730e+00
  3.147520e+00    2.890180e+00
  3.163395e+00    2.826368e+00
  3.179271e+00    2.880787e+00
  3.195147e+00    2.891097e+00
  3.211022e+00    2.911410e+00
  3.226898e+00    2.941087e+00
  3.242773e+00    2.961923e+00
  3.258649e+00    2.895049e+00
  3.274525e+00    2.926565e+00
  3.290400e+00    2.930545e+00
  3.306276e+00    2.924160e+00
  3.322151e+00    3.051159e+00
  3.338027e+00    2.962310e+00
  3.353902e+00    3.025003e+00
  3.369778e+00    2.944394e+00
  3.385654e+00    2.909164e+00
  3.401529e+00    2.982232e+00
  3.417405e+00    2.982284e+00
  3.433280e+00    2.952493e+00
  3.449156e+00    2.992713e+00
  3.465031e+00    3.013051e+00
  3.480907e+00    3.027066e+00
  3.496783e+00    2.943941e+00
  3.512658e+00    3.053445e+00
  3.528534e+00    3.058673e+00
  3.544409e+00    2.941705e+00
  3.560285e+00    2.963007e+00
  3.576160e+00    2.916045e+00
  3.592036e+00    2.944579e+00
  3.607912e+00    2.986077e+00
  3.623787e+00    2.890035e+00
  3.639663e+00    2.925754e+00
  3.655538e+00    3.000751e+00
  3.671414e+00    3.013004e+00
  3.687289e+00    2.952084e+00
  3.703165e+00    2.914181e+00
  3.719041e+00    2.996684e+00
  3.734916e+00    3.022243e+00
  3.750792e+00    2.980038e+00
  3.766667e+00    3.017282e+00
  3.782543e+00    3.060910e+00
  3.798418e+00    3.012725e+00
  3.814294e+00    2.991746e+00
  3.830170e+00    2.985992e+00
  3.846045e+00    2.936459e+00
  3.861921e+00    2.931250e+00
  3.877796e+00    2.941063e+00
  3.893672e+00    2.977013e+00
  3.909547e+00    3.011486e+00
  3.925423e+00    3.058191e+00
  3.941299e+00    3.086544e+00
  3.957174e+00    3.090692e+00
  3.973050e+00    3.048217e+00
  3.988925e+00    3.004869e+00
  4.004801e+00    2.946759e+00
  4.020676e+00    2.985253e+00
  4.036552e+00    3.054704e+00
  4.052428e+00    3.015821e+00
  4.068303e+00    3.125997e+00
  4.084179e+00    3.138933e+00
  4.100054e+00    3.014392e+00
  4.115930e+00    3.054518e+00
  4.131806e+00    3.068882e+00
  4.147681e+00    3.086779e+00
  4.163557e+00    3.087301e+00
  4.179432e+00    3.034806e+00
  4.195308e+00    2.912329e+00
  4.211183e+00    2.961887e+00
  4.227059e+00    3.035731e+00
  4.242935e+00    3.005373e+00
  4.258810e+00    2.959081e+00
  4.274686e+00    2.989752e+00
  4.290561e+00    3.011536e+00
  4.306437e+00    2.998693e+00
  4.322312e+00    3.045633e+00
  4.338188e+00    3.067616e+00
  4.354064e+00    3.111416e+00
  4.369939e+00    3.112936e+00
  4.385815e+00    3.018490e+00
  4.401690e+00    3.085684e+00
  4.417566e+00    3.185690e+00
  4.433441e+00    3.164101e+00
  4.449317e+00    3.114023e+00
  4.465193e+00    3.058125e+00
  4.481068e+00    3.087671e+00
  4.496944e+00    3.149034e+00
  4.512819e+00    3.107110e+00
  4.528695e+00    3.090495e+00
  4.544570e+00    3.094662e+00
  4.560446e+00    3.125319e+00
  4.576322e+00    3.253151e+00
  4.592197e+00    3.233739e+00
  4.608073e+00    3.114327e+00
  4.623948e+00    3.109015e+00
  4.639824e+00    3.139234e+00
  4.655699e+00    3.063499e+00
  4.671575e+00    3.036511e+00
  4.687451e+00    3.058544e+00
  4.703326e+00    3.126039e+00
  4.719202e+00    3.190416e+00
  4.735077e+00    3.197127e+00
  4.750953e+00    3.110099e+00
  4.766828e+00    3.094615e+00
  4.782704e+00    3.124181e+00
  4.798580e+00    3.103731e+00
  4.814455e+00    3.154676e+00
  4.830331e+00    3.225339e+00
  4.846206e+00    3.223828e+00
  4.862082e+00    3.147211e+00
  4.877957e+00    3.139983e+00
  4.893833e+00    3.153152e+00
  4.909709e+00    3.157767e+00
  4.925584e+00    3.159941e+00
  4.941460e+00    3.170091e+00
  4.957335e+00    3.104117e+00
  4.973211e+00    3.159972e+00
  4.989086e+00    3.171781e+00
  5.004962e+00    3.193183e+00
  5.020838e+00    3.154224e+00
  5.036713e+00    3.191860e+00
  5.052589e+00    3.148364e+00
  5.068464e+00    3.185361e+00
  5.084340e+00    3.135036e+00
  5.100216e+00    3.040883e+00
  5.116091e+00    3.050016e+00
  5.131967e+00    3.079854e+00
  5.147842e+00    3.138813e+00
  5.163718e+00    3.131357e+00
  5.179593e+00    3.096971e+00
  5.195469e+00    3.147031e+00
  5.211345e+00    3.063707e+00
  5.227220e+00    3.123335e+00
  5.243096e+00    3.113821e+00
  5.258971e+00    3.028961e+00
  5.274847e+00    3.106884e+00
  5.290722e+00    3.182297e+00
  5.306598e+00    3.161253e+00
  5.322474e+00    3.098488e+00
  5.338349e+00    3.128880e+00
  5.354225e+00    3.180414e+00
  5.370100e+00    3.186711e+00
  5.385976e+00    3.162983e+00
  5.401851e+00    3.156866e+00
  5.417727e+00    3.124066e+00
  5.433603e+00    3.104947e+00
  5.449478e+00    3.135885e+00
  5.465354e+00    3.143481e+00
  5.481229e+00    3.099625e+00
  5.497105e+00    3.087388e+00
  5.512980e+00    3.136111e+00
  5.528856e+00    3.095926e+00
  5.544732e+00    3.082286e+00
  5.560607e+00    3.056331e+00
  5.576483e+00    3.084298e+00
  5.592358e+00    3.060643e+00
  5.608234e+00    3.008412e+00
  5.624109e+00    3.050893e+00
  5.639985e+00    3.075540e+00
  5.655861e+00    3.071233e+00
  5.671736e+00    3.062644e+00
  5.687612e+00    3.075254e+00
  5.703487e+00    3.132531e+00
  5.719363e+00    3.063560e+00
  5.735238e+00    3.044811e+00
  5.751114e+00    3.089308e+00
  5.766990e+00    3.136768e+00
  5.782865e+00    3.109362e+00
  5.798741e+00    3.125365e+00
  5.814616e+00    3.061918e+00
  5.830492e+00    3.025979e+00
  5.846367e+00    3.124153e+00
  5.862243e+00    3.144418e+00
  5.878119e+00    3.107893e+00
  5.893994e+00    3.083944e+00
  5.909870e+00    3.097380e+00
  5.925745e+00    3.074243e+00
  5.941621e+00    3.060151e+00
  5.957497e+00    3.067981e+00
  5.973372e+00    3.004197e+00
  5.989248e+00    2.957948e+00
  6.005123e+00    3.015754e+00
  6.020999e+00    3.062178e+00
  6.036874e+00    2.997344e+00
  6.052750e+00    3.047413e+00
  6.068626e+00    3.049630e+00
  6.084501e+00    3.091319e+00
  6.100377e+00    3.125001e+00
  6.116252e+00    3.120663e+00
  6.132128e+00    3.019234e+00
  6.148003e+00    3.072820e+00
  6.163879e+00    3.106299e+00
  6.179755e+00    3.048836e+00
  6.195630e+00    3.089908e+00
  6.211506e+00    3.097011e+00
  6.227381e+00    3.113789e+00
  6.243257e+00    3.042162e+00
  6.259132e+00    3.095194e+00
  6.275008e+00    3.164673e+00
  6.290884e+00    3.037239e+00
  6.306759e+00    3.029484e+00
  6.322635e+00    3.061717e+00
  6.338510e+00    3.095965e+00
  6.354386e+00    3.104456e+00
  6.370261e+00    3.007563e+00
  6.386137e+00    2.956078e+00
  6.402013e+00    2.961381e+00
  6.417888e+00    3.045518e+00
  6.433764e+00    3.108899e+00
  6.449639e+00    3.060923e+00
  6.465515e+00    2.973578e+00
  6.481390e+00    3.060590e+00
  6.497266e+00    3.077709e+00
  6.513142e+00    3.054203e+00
  6.529017e+00    3.045848e+00
  6.544893e+00    3.043835e+00
  6.560768e+00    2.974125e+00
  6.576644e+00    2.962692e+00
  6.592519e+00    3.040331e+00
  6.608395e+00    3.047755e+00
  6.624271e+00    3.034714e+00
  6.640146e+00    3.004922e+00
  6.656022e+00    3.069621e+00
  6.671897e+00    3.047992e+00
  6.687773e+00    3.062224e+00
  6.703648e+00    3.039130e+00
  6.719524e+00    3.074678e+00
  6.735400e+00    3.162399e+00
  6.751275e+00    3.074628e+00
  6.767151e+00    3.005458e+00
  6.783026e+00    3.050467e+00
  6.798902e+00    3.047342e+00
  6.814777e+00    3.014044e+00
  6.830653e+00    3.112377e+00
  6.846529e+00    3.071761e+00
  6.862404e+00    3.056550e+00
  6.878280e+00    3.106149e+00
  6.894155e+00    3.053794e+00
  6.910031e+00    3.047392e+00
  6.925907e+00    3.080921e+00
  6.941782e+00    3.126316e+00
  6.957658e+00    3.080206e+00
  6.973533e+00    3.041017e+00
  6.989409e+00    3.064456e+00
  7.005284e+00    3.051999e+00
  7.021160e+00    3.011835e+00
  7.037036e+00    3.038943e+00
  7.052911e+00    2.958007e+00
  7.068787e+00    2.952884e+00
  7.084662e+00    2.963610e+00
  7.100538e+00    3.043500e+00
  7.116413e+00    3.016260e+00
  7.132289e+00    3.078465e+00
  7.148165e+00    3.042372e+00
  7.164040e+00    2.989065e+00
  7.179916e+00    2.948035e+00
  7.195791e+00    3.006051e+00
  7.211667e+00    3.009003e+00
  7.227542e+00    2.960363e+00
  7.243418e+00    3.060880e+00
  7.259294e+00    3.039772e+00
  7.275169e+00    3.027180e+00
  7.291045e+00    3.044609e+00
  7.306920e+00    2.996337e+00
  7.322796e+00    3.016483e+00
  7.338671e+00    3.073564e+00
  7.354547e+00    3.113464e+00
  7.370423e+00    2.985908e+00
  7.386298e+00    3.056793e+00
  7.402174e+00    3.034566e+00
  7.418049e+00    3.019158e+00
  7.433925e+00    3.048077e+00
  7.449800e+00    2.975156e+00
  7.465676e+00    3.002523e+00
  7.481552e+00    2.944389e+00
  7.497427e+00    2.979089e+00
  7.513303e+00    2.983770e+00
  7.529178e+00    3.025578e+00
  7.545054e+00    2.999641e+00
  7.560929e+00    2.973385e+00
  7.576805e+00    3.009597e+00
  7.592681e+00    3.026076e+00
  7.608556e+00    2.991070e+00
  7.624432e+00    2.966352e+00
  7.640307e+00    2.960547e+00
  7.656183e+00    2.994750e+00
  7.672058e+00    3.024533e+00
  7.687934e+00    2.983804e+00
  7.703810e+00    3.068260e+00
  7.719685e+00    3.010426e+00
  7.735561e+00    3.031299e+00
  7.751436e+00    3.006396e+00
  7.767312e+00    2.951093e+00
  7.783187e+00    2.909653e+00
  7.799063e+00    2.898665e+00
  7.814939e+00    2.933136e+00
  7.830814e+00    2.976119e+00
  7.846690e+00    2.939009e+00
  7.862565e+00    2.974205e+00
  7.878441e+00    2.902669e+00
  7.894317e+00    2.893474e+00
  7.910192e+00    2.954660e+00
  7.926068e+00    2.973749e+00
  7.941943e+00    2.974412e+00
  7.957819e+00    2.963198e+00
  7.973694e+00    2.929604e+00
  7.989570e+00    2.906549e+00
  8.005446e+00    3.033629e+00
  8.021321e+00    2.989011e+00
  8.037197e+00    2.960634e+00
  8.053072e+00    2.977393e+00
  8.068948e+00    2.942070e+00
  8.084823e+00    2.963400e+00
  8.100699e+00    2.964539e+00
  8.116575e+00    2.970643e+00
  8.132450e+00    2.972847e+00
  8.148326e+00    2.940593e+00
  8.164201e+00    2.918064e+00
  8.180077e+00    2.966125e+00
  8.195952e+00    3.025193e+00
  8.211828e+00    3.032200e+00
  8.227704e+00    2.953713e+00
  8.243579e+00    2.961367e+00
  8.259455e+00    2.947330e+00
  8.275330e+00    2.953148e+00
  8.291206e+00    2.964011e+00
  8.307081e+00    2.982879e+00
  8.322957e+00    2.926163e+00
  8.338833e+00    2.908488e+00
  8.354708e+00    2.929533e+00
  8.370584e+00    2.964153e+00
  8.386459e+00    2.953412e+00
  8.402335e+00    2.926638e+00
  8.418210e+00    2.852726e+00
  8.434086e+00    2.867379e+00
  8.449962e+00    2.857231e+00
  8.465837e+00    2.856575e+00
  8.481713e+00    2.849702e+00
  8.497588e+00    2.919206e+00
  8.513464e+00    2.909784e+00
  8.529339e+00    2.860529e+00
  8.545215e+00    2.913866e+00
  8.561091e+00    2.878196e+00
  8.576966e+00    2.872122e+00
  8.592842e+00    2.882522e+00
  8.608717e+00    2.831385e+00
  8.624593e+00    2.906113e+00
  8.640468e+00    2.909649e+00
  8.656344e+00    2.876852e+00
  8.672220e+00    2.839071e+00
  8.688095e+00    2.937892e+00
  8.703971e+00    2.837811e+00
  8.719846e+00    2.806357e+00
  8.735722e+00    2.875030e+00
  8.751598e+00    2.891204e+00
  8.767473e+00    2.834266e+00
  8.783349e+00    2.880862e+00
  8.799224e+00    2.815989e+00
  8.815100e+00    2.835563e+00
  8.830975e+00    2.868130e+00
  8.846851e+00    2.859811e+00
  8.862727e+00    2.845952e+00
  8.878602e+00    2.882491e+00
  8.894478e+00    2.827675e+00
  8.910353e+00    2.840607e+00
  8.926229e+00    2.833569e+00
  8.942104e+00    2.829971e+00
  8.957980e+00    2.912058e+00
  8.973856e+00    2.793836e+00
  8.989731e+00    2.782047e+00
  9.005607e+00    2.886899e+00
  9.021482e+00    2.874075e+00
  9.037358e+00    2.808534e+00
  9.053233e+00    2.807260e+00
  9.069109e+00    2.838499e+00
  9.084985e+00    2.801549e+00
  9.100860e+00    2.849960e+00
  9.116736e+00    2.878319e+00
  9.132611e+00    2.822743e+00
  9.148487e+00    2.778235e+00
  9.164362e+00    2.859955e+00
  9.180238e+00    2.831892e+00
  9.196114e+00    2.801739e+00
  9.211989e+00    2.770025e+00
  9.227865e+00    2.777476e+00
  9.243740e+00    2.819140e+00
  9.259616e+00    2.833891e+00
  9.275491e+00    2.792365e+00
  9.291367e+00    2.803794e+00
  9.307243e+00    2.826487e+00
  9.323118e+00    2.848051e+00
  9.338994e+00    2.831389e+00
  9.354869e+00    2.811113e+00
  9.370745e+00    2.775320e+00
  9.386620e+00    2.739261e+00
  9.402496e+00    2.742952e+00
  9.418372e+00    2.756745e+00
  9.434247e+00    2.784553e+00
  9.450123e+00    2.791574e+00
  9.465998e+00    2.798440e+00
  9.481874e+00    2.801651e+00
  9.497749e+00    2.810930e+00
  9.513625e+00    2.804665e+00
  9.529501e+00    2.744462e+00
  9.545376e+00    2.793200e+00
  9.561252e+00    2.727762e+00
  9.577127e+00    2.724262e+00
  9.593003e+00    2.756169e+00
  9.608878e+00    2.809674e+00
  9.624754e+00    2.763485e+00
  9.640630e+00    2.737829e+00
  9.656505e+00    2.748437e+00
  9.672381e+00    2.784053e+00
  9.688256e+00    2.793818e+00
  9.704132e+00    2.767121e+00
  9.720008e+00    2.775901e+00
  9.735883e+00    2.750165e+00
  9.751759e+00    2.705257e+00
  9.767634e+00    2.717749e+00
  9.783510e+00    2.773216e+00
  9.799385e+00    2.717554e+00
  9.815261e+00    2.739271e+00
  9.831137e+00    2.770557e+00
  9.847012e+00    2.693536e+00
  9.862888e+00    2.689094e+00
  9.878763e+00    2.733089e+00
  9.894639e+00    2.717130e+00
  9.910514e+00    2.740646e+00
  9.926390e+00    2.705632e+00
  9.942266e+00    2.742099e+00
  9.958141e+00    2.718067e+00
  9.974017e+00    2.708136e+00
  9.989892e+00    2.702556e+00
  1.000577e+01    2.699683e+00
  1.002164e+01    2.678806e+00
  1.003752e+01    2.709391e+00
  1.005339e+01    2.709626e+00
  1.006927e+01    2.691901e+00
  1.008515e+01    2.682809e+00
  1.010102e+01    2.683594e+00
  1.011690e+01    2.685267e+00
  1.013277e+01    2.743082e+00
  1.014865e+01    2.718155e+00
  1.016452e+01    2.708961e+00
  1.018040e+01    2.590611e+00
  1.019627e+01    2.572732e+00
  1.021215e+01    2.618426e+00
  1.022803e+01    2.601237e+00
  1.024390e+01    2.600706e+00
  1.025978e+01    2.610546e+00
  1.027565e+01    2.586545e+00
  1.029153e+01    2.653646e+00
  1.030740e+01    2.659480e+00
  1.032328e+01    2.634804e+00
  1.033915e+01    2.616244e+00
  1.035503e+01    2.634012e+00
  1.037091e+01    2.646810e+00
  1.038678e+01    2.617476e+00
  1.040266e+01    2.601959e+00
  1.041853e+01    2.647667e+00
  1.043441e+01    2.654425e+00
  1.045028e+01    2.597683e+00
  1.046616e+01    2.622886e+00
  1.048204e+01    2.595867e+00
  1.049791e+01    2.585843e+00
  1.051379e+01    2.603425e+00
  1.052966e+01    2.598209e+00
  1.054554e+01    2.608195e+00
  1.056141e+01    2.587009e+00
  1.057729e+01    2.557749e+00
  1.059316e+01    2.609160e+00
  1.060904e+01    2.569803e+00
  1.062492e+01    2.574219e+00
  1.064079e+01    2.602727e+00
  1.065667e+01    2.584212e+00
  1.067254e+01    2.568664e+00
  1.068842e+01    2.559341e+00
  1.070429e+01    2.577479e+00
  1.072017e+01    2.538911e+00
  1.073604e+01    2.533382e+00
  1.075192e+01    2.564499e+00
  1.076780e+01    2.593583e+00
  1.078367e+01    2.532861e+00
  1.079955e+01    2.537044e+00
  1.081542e+01    2.543153e+00
  1.083130e+01    2.555279e+00
  1.084717e+01    2.551976e+00
  1.086305e+01    2.533205e+00
  1.087892e+01    2.498663e+00
  1.089480e+01    2.512134e+00
  1.091068e+01    2.516698e+00
  1.092655e+01    2.548030e+00
  1.094243e+01    2.562077e+00
  1.095830e+01    2.520999e+00
  1.097418e+01    2.551129e+00
  1.099005e+01    2.560519e+00
  1.100593e+01    2.553094e+00
  1.102180e+01    2.539397e+00
  1.103768e+01    2.517814e+00
  1.105356e+01    2.441528e+00
  1.106943e+01    2.483316e+00
  1.108531e+01    2.491359e+00
  1.110118e+01    2.512074e+00
  1.111706e+01    2.508062e+00
  1.113293e+01    2.483759e+00
  1.114881e+01    2.470056e+00
  1.116468e+01    2.466579e+00
  1.118056e+01    2.426296e+00
  1.119644e+01    2.460772e+00
  1.121231e+01    2.471930e+00
  1.122819e+01    2.453910e+00
  1.124406e+01    2.474609e+00
  1.125994e+01    2.459461e+00
  1.127581e+01    2.427679e+00
  1.129169e+01    2.457106e+00
  1.130756e+01    2.457005e+00
  1.132344e+01    2.477639e+00
  1.133932e+01    2.397930e+00
  1.135519e+01    2.407367e+00
  1.137107e+01    2.445405e+00
  1.138694e+01    2.386430e+00
  1.140282e+01    2.455005e+00
  1.141869e+01    2.458594e+00
  1.143457e+01    2.438560e+00
  1.145045e+01    2.445867e+00
  1.146632e+01    2.407722e+00
  1.148220e+01    2.386972e+00
  1.149807e+01    2.389087e+00
  1.151395e+01    2.355991e+00
  1.152982e+01    2.377843e+00
  1.154570e+01    2.375290e+00
  1.156157e+01    2.399525e+00
  1.157745e+01    2.409290e+00
  1.159333e+01    2.376439e+00
  1.160920e+01    2.377165e+00
  1.162508e+01    2.389355e+00
  1.164095e+01    2.356099e+00
  1.165683e+01    2.384442e+00
  1.167270e+01    2.415839e+00
  1.168858e+01    2.379729e+00
  1.170445e+01    2.377708e+00
  1.172033e+01    2.371789e+00
  1.173621e+01    2.323683e+00
  1.175208e+01    2.363992e+00
  1.176796e+01    2.354373e+00
  1.178383e+01    2.370312e+00
  1.179971e+01    2.373515e+00
  1.181558e+01    2.341320e+00
  1.183146e+01    2.363647e+00
  1.184733e+01    2.412125e+00
  1.186321e+01    2.381306e+00
  1.187909e+01    2.299027e+00
  1.189496e+01    2.312333e+00
  1.191084e+01    2.363292e+00
  1.192671e+01    2.341740e+00
  1.194259e+01    2.386186e+00
  1.195846e+01    2.420408e+00
  1.197434e+01    2.376535e+00
  1.199021e+01    2.365257e+00
  1.200609e+01    2.346168e+00
  1.202197e+01    2.359890e+00
  1.203784e+01    2.361270e+00
  1.205372e+01    2.332536e+00
  1.206959e+01    2.354198e+00
  1.208547e+01    2.310087e+00
  1.210134e+01    2.323882e+00
  1.211722e+01    2.332544e+00
  1.213309e+01    2.365681e+00
  1.214897e+01    2.335510e+00
  1.216485e+01    2.332759e+00
  1.218072e+01    2.310624e+00
  1.219660e+01    2.257324e+00
  1.221247e+01    2.341610e+00
  1.222835e+01    2.338440e+00
  1.224422e+01    2.336427e+00
  1.226010e+01    2.338405e+00
  1.227597e+01    2.337792e+00
  1.229185e+01    2.303257e+00
  1.230773e+01    2.337410e+00
  1.232360e+01    2.338155e+00
  1.233948e+01    2.342128e+00
  1.235535e+01    2.283632e+00
  1.237123e+01    2.335536e+00
  1.238710e+01    2.333238e+00
  1.240298e+01    2.291456e+00
  1.241886e+01    2.291274e+00
  1.243473e+01    2.332664e+00
  1.245061e+01    2.322584e+00
  1.246648e+01    2.336844e+00
  1.248236e+01    2.328840e+00
  1.249823e+01    2.337420e+00
  1.251411e+01    2.350981e+00
  1.252998e+01    2.351178e+00
  1.254586e+01    2.408831e+00
  1.256174e+01    2.433156e+00
  1.257761e+01    2.388347e+00
  1.259349e+01    2.405986e+00
  1.260936e+01    2.439764e+00
  1.262524e+01    2.381917e+00
  1.264111e+01    2.404258e+00
  1.265699e+01    2.421535e+00
  1.267286e+01    2.470615e+00
  1.268874e+01    2.474970e+00
  1.270462e+01    2.489138e+00
  1.272049e+01    2.491861e+00
  1.273637e+01    2.475398e+00
  1.275224e+01    2.506976e+00
  1.276812e+01    2.593063e+00
  1.278399e+01    2.628422e+00
  1.279987e+01    2.703087e+00
  1.281574e+01    2.712349e+00
  1.283162e+01    2.794151e+00
  1.284750e+01    2.860658e+00
  1.286337e+01    2.930224e+00
  1.287925e+01    3.019426e+00
  1.289512e+01    3.144299e+00
  1.291100e+01    3.271310e+00
  1.292687e+01    3.516329e+00
  1.294275e+01    3.735288e+00
  1.295862e+01    3.997663e+00
  1.297450e+01    4.332387e+00
  1.299038e+01    4.877681e+00
  1.300625e+01    5.446685e+00
  1.302213e+01    6.167930e+00
  1.303800e+01    7.085063e+00
  1.305388e+01    8.166344e+00
  1.306975e+01    9.392699e+00
  1.308563e+01    1.077164e+01
  1.310150e+01    1.195905e+01
  1.311738e+01    1.305094e+01
  1.313326e+01    1.408173e+01
  1.314913e+01    1.505617e+01
  1.316501e+01    1.579859e+01
  1.318088e+01    1.598588e+01
  1.319676e+01    1.540786e+01
  1.321263e+01    1.414405e+01
  1.322851e+01    1.232929e+01
  1.324438e+01    1.044674e+01
  1.326026e+01    8.804800e+00
  1.327614e+01    7.462378e+00
  1.329201e+01    6.423512e+00
  1.330789e+01    5.576052e+00
  1.332376e+01    4.964923e+00
  1.333964e+01    4.500025e+00
  1.335551e+01    4.086906e+00
  1.337139e+01    3.793357e+00
  1.338727e+01    3.519826e+00
  1.340314e+01    3.278676e+00
  1.341902e+01    3.125752e+00
  1.343489e+01    2.994696e+00
  1.345077e+01    2.883128e+00
  1.346664e+01    2.763301e+00
  1.348252e+01    2.705976e+00
  1.349839e+01    2.622378e+00
  1.351427e+01    2.538222e+00
  1.353015e+01    2.498212e+00
  1.354602e+01    2.466076e+00
  1.356190e+01    2.442973e+00
  1.357777e+01    2.377061e+00
  1.359365e+01    2.374501e+00
  1.360952e+01    2.345059e+00
  1.362540e+01    2.342744e+00
  1.364127e+01    2.319644e+00
  1.365715e+01    2.270104e+00
  1.367303e+01    2.224901e+00
  1.368890e+01    2.245040e+00
  1.370478e+01    2.242082e+00
  1.372065e+01    2.197652e+00
  1.373653e+01    2.217203e+00
  1.375240e+01    2.195236e+00
  1.376828e+01    2.162745e+00
  1.378415e+01    2.173297e+00
  1.380003e+01    2.146285e+00
  1.381591e+01    2.102211e+00
  1.383178e+01    2.139627e+00
  1.384766e+01    2.157400e+00
  1.386353e+01    2.162469e+00
  1.387941e+01    2.145745e+00
  1.389528e+01    2.107905e+00
  1.391116e+01    2.075009e+00
  1.392703e+01    2.096727e+00
  1.394291e+01    2.093787e+00
  1.395879e+01    2.092998e+00
  1.397466e+01    2.088602e+00
  1.399054e+01    2.115735e+00
  1.400641e+01    2.067696e+00
  1.402229e+01    2.055083e+00
  1.403816e+01    2.067843e+00
  1.405404e+01    2.021598e+00
  1.406991e+01    2.035331e+00
  1.408579e+01    2.010274e+00
  1.410167e+01    2.020535e+00
  1.411754e+01    2.022103e+00
  1.413342e+01    2.006191e+00
  1.414929e+01    2.033946e+00
  1.416517e+01    2.017828e+00
  1.418104e+01    2.013475e+00
  1.419692e+01    2.020682e+00
  1.421279e+01    1.997079e+00
  1.422867e+01    1.991392e+00
  1.424455e+01    1.965854e+00
  1.426042e+01    1.994808e+00
  1.427630e+01    1.961649e+00
  1.429217e+01    1.965556e+00
  1.430805e+01    1.975227e+00
  1.432392e+01    1.982411e+00
  1.433980e+01    1.950952e+00
  1.435568e+01    1.949945e+00
  1.437155e+01    1.949930e+00
  1.438743e+01    1.903098e+00
  1.440330e+01    1.941609e+00
  1.441918e+01    1.939001e+00
  1.443505e+01    1.951298e+00
  1.445093e+01    1.946763e+00
  1.446680e+01    1.926315e+00
  1.448268e+01    1.968316e+00
  1.449856e+01    1.940225e+00
  1.451443e+01    1.924937e+00
  1.453031e+01    1.914434e+00
  1.454618e+01    1.919535e+00
  1.456206e+01    1.923526e+00
  1.457793e+01    1.922309e+00
  1.459381e+01    1.897059e+00
  1.460968e+01    1.929588e+00
  1.462556e+01    1.948329e+00
  1.464144e+01    1.953238e+00
  1.465731e+01    1.912658e+00
  1.467319e+01    1.908315e+00
  1.468906e+01    1.915013e+00
  1.470494e+01    1.924120e+00
  1.472081e+01    1.902785e+00
  1.473669e+01    1.906586e+00
  1.475256e+01    1.905835e+00
  1.476844e+01    1.951347e+00
  1.478432e+01    1.945338e+00
  1.480019e+01    1.894807e+00
  1.481607e+01    1.887984e+00
  1.483194e+01    1.955122e+00
  1.484782e+01    1.918053e+00
  1.486369e+01    1.898403e+00
  1.487957e+01    1.917246e+00
  1.489544e+01    1.954062e+00
  1.491132e+01    1.948362e+00
  1.492720e+01    2.001428e+00
  1.494307e+01    2.051154e+00
  1.495895e+01    2.089921e+00
  1.497482e+01    2.128609e+00
  1.499070e+01    2.134505e+00
  1.500657e+01    2.179323e+00
  1.502245e+01    2.247524e+00
  1.503832e+01    2.278496e+00
  1.505420e+01    2.430689e+00
  1.507008e+01    2.533343e+00
  1.508595e+01    2.673470e+00
  1.510183e+01    2.889534e+00
  1.511770e+01    3.187647e+00
  1.513358e+01    3.501967e+00
  1.514945e+01    3.780516e+00
  1.516533e+01    4.173183e+00
  1.518120e+01    4.499140e+00
  1.519708e+01    4.865401e+00
  1.521296e+01    5.124503e+00
  1.522883e+01    5.295972e+00
  1.524471e+01    5.401085e+00
  1.526058e+01    5.517217e+00
  1.527646e+01    5.457542e+00
  1.529233e+01    5.177934e+00
  1.530821e+01    4.854616e+00
  1.532409e+01    4.458028e+00
  1.533996e+01    3.959974e+00
  1.535584e+01    3.521385e+00
  1.537171e+01    3.118726e+00
  1.538759e+01    2.853723e+00
  1.540346e+01    2.659461e+00
  1.541934e+01    2.468140e+00
  1.543521e+01    2.351390e+00
  1.545109e+01    2.211775e+00
  1.546697e+01    2.136431e+00
  1.548284e+01    2.074427e+00
  1.549872e+01    2.032002e+00
  1.551459e+01    1.987155e+00
  1.553047e+01    1.948053e+00
  1.554634e+01    1.939096e+00
  1.556222e+01    1.897156e+00
  1.557809e+01    1.838289e+00
  1.559397e+01    1.821464e+00
  1.560985e+01    1.802573e+00
  1.562572e+01    1.763133e+00
  1.564160e+01    1.774336e+00
  1.565747e+01    1.742423e+00
  1.567335e+01    1.715510e+00
  1.568922e+01    1.737176e+00
  1.570510e+01    1.743661e+00
  1.572097e+01    1.709879e+00
  1.573685e+01    1.697918e+00
  1.575273e+01    1.661394e+00
  1.576860e+01    1.685961e+00
  1.578448e+01    1.708643e+00
  1.580035e+01    1.709020e+00
  1.581623e+01    1.702096e+00
  1.583210e+01    1.669893e+00
  1.584798e+01    1.644951e+00
  1.586385e+01    1.652274e+00
  1.587973e+01    1.654283e+00
  1.589561e+01    1.662644e+00
  1.591148e+01    1.630869e+00
  1.592736e+01    1.643108e+00
  1.594323e+01    1.622163e+00
  1.595911e+01    1.635983e+00
  1.597498e+01    1.634705e+00
  1.599086e+01    1.645922e+00
  1.600673e+01    1.638024e+00
  1.602261e+01    1.637633e+00
  1.603849e+01    1.623799e+00
  1.605436e+01    1.604258e+00
  1.607024e+01    1.598021e+00
  1.608611e+01    1.620171e+00
  1.610199e+01    1.612815e+00
  1.611786e+01    1.576821e+00
  1.613374e+01    1.594020e+00
  1.614961e+01    1.599951e+00
  1.616549e+01    1.534692e+00
  1.618137e+01    1.533532e+00
  1.619724e+01    1.568726e+00
  1.621312e+01    1.561706e+00
  1.622899e+01    1.580486e+00
  1.624487e+01    1.603485e+00
  1.626074e+01    1.572338e+00
  1.627662e+01    1.553072e+00
  1.629250e+01    1.543115e+00
  1.630837e+01    1.563792e+00
  1.632425e+01    1.576137e+00
  1.634012e+01    1.563665e+00
  1.635600e+01    1.530025e+00
  1.637187e+01    1.531244e+00
  1.638775e+01    1.543321e+00
  1.640362e+01    1.553144e+00
  1.641950e+01    1.548824e+00
  1.643538e+01    1.538502e+00
  1.645125e+01    1.548726e+00
  1.646713e+01    1.529090e+00
  1.648300e+01    1.521512e+00
  1.649888e+01    1.504835e+00
  1.651475e+01    1.501181e+00
  1.653063e+01    1.498828e+00
  1.654650e+01    1.519193e+00
  1.656238e+01    1.494568e+00
  1.657826e+01    1.514453e+00
  1.659413e+01    1.522233e+00
  1.661001e+01    1.524748e+00
  1.662588e+01    1.509535e+00
  1.664176e+01    1.493514e+00
  1.665763e+01    1.487420e+00
  1.667351e+01    1.481038e+00
  1.668938e+01    1.484884e+00
  1.670526e+01    1.470283e+00
  1.672114e+01    1.496206e+00
  1.673701e+01    1.488604e+00
  1.675289e+01    1.469555e+00
  1.676876e+01    1.447904e+00
  1.678464e+01    1.457236e+00
  1.680051e+01    1.478933e+00
  1.681639e+01    1.503652e+00
  1.683226e+01    1.482512e+00
  1.684814e+01    1.458052e+00
  1.686402e+01    1.455470e+00
  1.687989e+01    1.442403e+00
  1.689577e+01    1.449601e+00
  1.691164e+01    1.480881e+00
  1.692752e+01    1.466536e+00
  1.694339e+01    1.482319e+00
  1.695927e+01    1.447000e+00
  1.697514e+01    1.450517e+00
  1.699102e+01    1.434158e+00
  1.700690e+01    1.438510e+00
  1.702277e+01    1.428029e+00
  1.703865e+01    1.425783e+00
  1.705452e+01    1.447976e+00
  1.707040e+01    1.462569e+00
  1.708627e+01    1.441628e+00
  1.710215e+01    1.433412e+00
  1.711802e+01    1.432372e+00
  1.713390e+01    1.444706e+00
  1.714978e+01    1.443967e+00
  1.716565e+01    1.446575e+00
  1.718153e+01    1.463193e+00
  1.719740e+01    1.427471e+00
  1.721328e+01    1.422962e+00
  1.722915e+01    1.432779e+00
  1.724503e+01    1.424463e+00
  1.726091e+01    1.423219e+00
  1.727678e+01    1.422591e+00
  1.729266e+01    1.401601e+00
  1.730853e+01    1.386377e+00
  1.732441e+01    1.393551e+00
  1.734028e+01    1.382822e+00
  1.735616e+01    1.368192e+00
  1.737203e+01    1.375925e+00
  1.738791e+01    1.381410e+00
  1.740379e+01    1.391911e+00
  1.741966e+01    1.383755e+00
  1.743554e+01    1.378044e+00
  1.745141e+01    1.400639e+00
  1.746729e+01    1.385075e+00
  1.748316e+01    1.372785e+00
  1.749904e+01    1.364760e+00
  1.751491e+01    1.395259e+00
  1.753079e+01    1.393640e+00
  1.754667e+01    1.389175e+00
  1.756254e+01    1.360692e+00
  1.757842e+01    1.357639e+00
  1.759429e+01    1.326210e+00
  1.761017e+01    1.347008e+00
  1.762604e+01    1.336190e+00
  1.764192e+01    1.362200e+00
  1.765779e+01    1.355241e+00
  1.767367e+01    1.315298e+00
  1.768955e+01    1.300041e+00
  1.770542e+01    1.311326e+00
  1.772130e+01    1.348693e+00
  1.773717e+01    1.358196e+00
  1.775305e+01    1.351651e+00
  1.776892e+01    1.341459e+00
  1.778480e+01    1.309876e+00
  1.780067e+01    1.302387e+00
  1.781655e+01    1.329983e+00
  1.783243e+01    1.347807e+00
  1.784830e+01    1.336516e+00
  1.786418e+01    1.302373e+00
  1.788005e+01    1.319114e+00
  1.789593e+01    1.321721e+00
  1.791180e+01    1.300750e+00
  1.792768e+01    1.309989e+00
  1.794355e+01    1.344274e+00
  1.795943e+01    1.338405e+00
  1.797531e+01    1.307761e+00
  1.799118e+01    1.307669e+00
  1.800706e+01    1.298956e+00
  1.802293e+01    1.297189e+00
  1.803881e+01    1.295023e+00
  1.805468e+01    1.313065e+00
  1.807056e+01    1.312200e+00
  1.808643e+01    1.284098e+00
  1.810231e+01    1.282320e+00
  1.811819e+01    1.277090e+00
  1.813406e+01    1.292807e+00
  1.814994e+01    1.283842e+00
  1.816581e+01    1.291173e+00
  1.818169e+01    1.274344e+00
  1.819756e+01    1.266002e+00
  1.821344e+01    1.265393e+00
  1.822932e+01    1.262019e+00
  1.824519e+01    1.272036e+00
  1.826107e+01    1.304704e+00
  1.827694e+01    1.294126e+00
  1.829282e+01    1.264736e+00
  1.830869e+01    1.273907e+00
  1.832457e+01    1.274412e+00
  1.834044e+01    1.251086e+00
  1.835632e+01    1.242685e+00
  1.837220e+01    1.262379e+00
  1.838807e+01    1.267865e+00
  1.840395e+01    1.255928e+00
  1.841982e+01    1.251081e+00
  1.843570e+01    1.239917e+00
  1.845157e+01    1.256966e+00
  1.846745e+01    1.253637e+00
  1.848332e+01    1.236353e+00
  1.849920e+01    1.231732e+00
  1.851508e+01    1.241612e+00
  1.853095e+01    1.244692e+00
  1.854683e+01    1.235591e+00
  1.856270e+01    1.257200e+00
  1.857858e+01    1.258610e+00
  1.859445e+01    1.269480e+00
  1.861033e+01    1.255960e+00
  1.862620e+01    1.241268e+00
  1.864208e+01    1.210967e+00
  1.865796e+01    1.207988e+00
  1.867383e+01    1.221338e+00
  1.868971e+01    1.262514e+00
  1.870558e+01    1.251906e+00
  1.872146e+01    1.245283e+00
  1.873733e+01    1.226323e+00
  1.875321e+01    1.234859e+00
  1.876908e+01    1.237772e+00
  1.878496e+01    1.229271e+00
  1.880084e+01    1.229768e+00
  1.881671e+01    1.236388e+00
  1.883259e+01    1.222301e+00
  1.884846e+01    1.206053e+00
  1.886434e+01    1.234042e+00
  1.888021e+01    1.255331e+00
  1.889609e+01    1.226866e+00
  1.891196e+01    1.215446e+00
  1.892784e+01    1.225464e+00
  1.894372e+01    1.200049e+00
  1.895959e+01    1.202306e+00
  1.897547e+01    1.198313e+00
  1.899134e+01    1.227688e+00
  1.900722e+01    1.204803e+00
  1.902309e+01    1.218643e+00
  1.903897e+01    1.221576e+00
  1.905484e+01    1.181994e+00
  1.907072e+01    1.177327e+00
  1.908660e+01    1.181445e+00
  1.910247e+01    1.179354e+00
  1.911835e+01    1.163729e+00
  1.913422e+01    1.162101e+00
  1.915010e+01    1.155703e+00
  1.916597e+01    1.192135e+00
  1.918185e+01    1.220975e+00
  1.919773e+01    1.197532e+00
  1.921360e+01    1.177420e+00
  1.922948e+01    1.192923e+00
  1.924535e+01    1.195789e+00
  1.926123e+01    1.208417e+00
  1.927710e+01    1.176198e+00
  1.929298e+01    1.184285e+00
  1.930885e+01    1.197153e+00
  1.932473e+01    1.205896e+00
  1.934061e+01    1.195850e+00
  1.935648e+01    1.179426e+00
  1.937236e+01    1.169722e+00
  1.938823e+01    1.157011e+00
  1.940411e+01    1.168903e+00
  1.941998e+01    1.184708e+00
  1.943586e+01    1.176673e+00
  1.945173e+01    1.174556e+00
  1.946761e+01    1.155668e+00
  1.948349e+01    1.189388e+00
  1.949936e+01    1.165716e+00
  1.951524e+01    1.171554e+00
  1.953111e+01    1.151974e+00
  1.954699e+01    1.176676e+00
  1.956286e+01    1.158515e+00
  1.957874e+01    1.135866e+00
  1.959461e+01    1.159206e+00
  1.961049e+01    1.144507e+00
  1.962637e+01    1.160785e+00
  1.964224e+01    1.138954e+00
  1.965812e+01    1.143833e+00
  1.967399e+01    1.172131e+00
  1.968987e+01    1.159476e+00
  1.970574e+01    1.177944e+00
  1.972162e+01    1.146638e+00
  1.973749e+01    1.119387e+00
  1.975337e+01    1.161677e+00
  1.976925e+01    1.158565e+00
  1.978512e+01    1.148316e+00
  1.980100e+01    1.150256e+00
  1.981687e+01    1.141724e+00
  1.983275e+01    1.148581e+00
  1.984862e+01    1.129394e+00
  1.986450e+01    1.143137e+00
  1.988037e+01    1.127918e+00
  1.989625e+01    1.122057e+00
  1.991213e+01    1.162010e+00
  1.992800e+01    1.133049e+00
  1.994388e+01    1.128635e+00
  1.995975e+01    1.133619e+00
  1.997563e+01    1.119993e+00
  1.999150e+01    1.119983e+00
  2.000738e+01    1.118847e+00
  2.002325e+01    1.125045e+00
  2.003913e+01    1.133497e+00
  2.005501e+01    1.118175e+00
  2.007088e+01    1.112752e+00
  2.008676e+01    1.101098e+00
  2.010263e+01    1.113391e+00
  2.011851e+01    1.114693e+00
  2.013438e+01    1.114913e+00
  2.015026e+01    1.119096e+00
  2.016614e+01    1.110807e+00
  2.018201e+01    1.107671e+00
  2.019789e+01    1.109818e+00
  2.021376e+01    1.088956e+00
  2.022964e+01    1.107353e+00
  2.024551e+01    1.103224e+00
  2.026139e+01    1.089855e+00
  2.027726e+01    1.109326e+00
  2.029314e+01    1.095695e+00
  2.030902e+01    1.072543e+00
  2.032489e+01    1.110721e+00
  2.034077e+01    1.115996e+00
  2.035664e+01    1.088739e+00
  2.037252e+01    1.086949e+00
  2.038839e+01    1.086794e+00
  2.040427e+01    1.106914e+00
  2.042014e+01    1.083086e+00
  2.043602e+01    1.096890e+00
  2.045190e+01    1.108715e+00
  2.046777e+01    1.098261e+00
  2.048365e+01    1.082862e+00
  2.049952e+01    1.087134e+00
  2.051540e+01    1.098695e+00
  2.053127e+01    1.090874e+00
  2.054715e+01    1.073637e+00
  2.056302e+01    1.084711e+00
  2.057890e+01    1.080178e+00
  2.059478e+01    1.074981e+00
  2.061065e+01    1.071410e+00
  2.062653e+01    1.090919e+00
  2.064240e+01    1.084982e+00
  2.065828e+01    1.070989e+00
  2.067415e+01    1.092707e+00
  2.069003e+01    1.086931e+00
  2.070590e+01    1.077487e+00
  2.072178e+01    1.077804e+00
  2.073766e+01    1.067134e+00
  2.075353e+01    1.074491e+00
  2.076941e+01    1.068762e+00
  2.078528e+01    1.078655e+00
  2.080116e+01    1.077285e+00
  2.081703e+01    1.078481e+00
  2.083291e+01    1.081099e+00
  2.084878e+01    1.074996e+00
  2.086466e+01    1.070638e+00
  2.088054e+01    1.080414e+00
  2.089641e+01    1.088892e+00
  2.091229e+01    1.076808e+00
  2.092816e+01    1.073949e+00
  2.094404e+01    1.092667e+00
  2.095991e+01    1.073985e+00
  2.097579e+01    1.091734e+00
  2.099166e+01    1.084798e+00
  2.100754e+01    1.055732e+00
  2.102342e+01    1.082610e+00
  2.103929e+01    1.102150e+00
  2.105517e+01    1.107129e+00
  2.107104e+01    1.078950e+00
  2.108692e+01    1.073180e+00
  2.110279e+01    1.087332e+00
  2.111867e+01    1.075328e+00
  2.113455e+01    1.072614e+00
  2.115042e+01    1.085800e+00
  2.116630e+01    1.115047e+00
  2.118217e+01    1.107071e+00
  2.119805e+01    1.099296e+00
  2.121392e+01    1.070947e+00
  2.122980e+01    1.084718e+00
  2.124567e+01    1.093515e+00
  2.126155e+01    1.105952e+00
  2.127743e+01    1.127113e+00
  2.129330e+01    1.115399e+00
  2.130918e+01    1.136987e+00
  2.132505e+01    1.128433e+00
  2.134093e+01    1.125930e+00
  2.135680e+01    1.153844e+00
  2.137268e+01    1.165589e+00
  2.138855e+01    1.164816e+00
  2.140443e+01    1.206589e+00
  2.142031e+01    1.194877e+00
  2.143618e+01    1.194982e+00
  2.145206e+01    1.206012e+00
  2.146793e+01    1.216715e+00
  2.148381e+01    1.267705e+00
  2.149968e+01    1.298101e+00
  2.151556e+01    1.308960e+00
  2.153143e+01    1.346159e+00
  2.154731e+01    1.365646e+00
  2.156319e+01    1.427181e+00
  2.157906e+01    1.469491e+00
  2.159494e+01    1.520431e+00
  2.161081e+01    1.590660e+00
  2.162669e+01    1.683653e+00
  2.164256e+01    1.790228e+00
  2.165844e+01    1.936345e+00
  2.167431e+01    2.103606e+00
  2.169019e+01    2.344211e+00
  2.170607e+01    2.559514e+00
  2.172194e+01    2.935671e+00
  2.173782e+01    3.337716e+00
  2.175369e+01    3.774812e+00
  2.176957e+01    4.306791e+00
  2.178544e+01    4.943281e+00
  2.180132e+01    5.538888e+00
  2.181719e+01    6.198678e+00
  2.183307e+01    6.854542e+00
  2.184895e+01    7.536306e+00
  2.186482e+01    8.184612e+00
  2.188070e+01    8.646330e+00
  2.189657e+01    8.849898e+00
  2.191245e+01    8.640229e+00
  2.192832e+01    8.133893e+00
  2.194420e+01    7.392676e+00
  2.196007e+01    6.524645e+00
  2.197595e+01    5.571927e+00
  2.199183e+01    4.736469e+00
  2.200770e+01    4.026216e+00
  2.202358e+01    3.449121e+00
  2.203945e+01    3.033380e+00
  2.205533e+01    2.708587e+00
  2.207120e+01    2.405303e+00
  2.208708e+01    2.184194e+00
  2.210296e+01    1.989150e+00
  2.211883e+01    1.863574e+00
  2.213471e+01    1.728260e+00
  2.215058e+01    1.607573e+00
  2.216646e+01    1.499719e+00
  2.218233e+01    1.439028e+00
  2.219821e+01    1.395821e+00
  2.221408e+01    1.356251e+00
  2.222996e+01    1.319068e+00
  2.224584e+01    1.246643e+00
  2.226171e+01    1.208713e+00
  2.227759e+01    1.205461e+00
  2.229346e+01    1.188485e+00
  2.230934e+01    1.190745e+00
  2.232521e+01    1.135014e+00
  2.234109e+01    1.109915e+00
  2.235696e+01    1.104870e+00
  2.237284e+01    1.100878e+00
  2.238872e+01    1.094978e+00
  2.240459e+01    1.080426e+00
  2.242047e+01    1.066822e+00
  2.243634e+01    1.053436e+00
  2.245222e+01    1.035295e+00
  2.246809e+01    1.004574e+00
  2.248397e+01    1.007446e+00
  2.249984e+01    9.996184e-01
  2.251572e+01    1.006723e+00
  2.253160e+01    1.018120e+00
  2.254747e+01    9.934712e-01
  2.256335e+01    9.752014e-01
  2.257922e+01    9.728916e-01
  2.259510e+01    9.884681e-01
  2.261097e+01    9.821132e-01
  2.262685e+01    9.684190e-01
  2.264272e+01    9.712541e-01
  2.265860e+01    9.545775e-01
  2.267448e+01    9.187646e-01
  2.269035e+01    9.277226e-01
  2.270623e+01    9.595551e-01
  2.272210e+01    9.291739e-01
  2.273798e+01    9.210600e-01
  2.275385e+01    9.416410e-01
  2.276973e+01    9.333860e-01
  2.278560e+01    9.369504e-01
  2.280148e+01    9.380221e-01
  2.281736e+01    9.185713e-01
  2.283323e+01    9.113309e-01
  2.284911e+01    9.278516e-01
  2.286498e+01    9.154078e-01
  2.288086e+01    9.178321e-01
  2.289673e+01    9.241509e-01
  2.291261e+01    9.122842e-01
  2.292848e+01    9.052810e-01
  2.294436e+01    9.112057e-01
  2.296024e+01    9.009937e-01
  2.297611e+01    9.054158e-01
  2.299199e+01    8.983222e-01
  2.300786e+01    8.917804e-01
  2.302374e+01    8.946123e-01
  2.303961e+01    8.958629e-01
  2.305549e+01    9.013040e-01
  2.307137e+01    8.815753e-01
  2.308724e+01    8.864758e-01
  2.310312e+01    9.008784e-01
  2.311899e+01    8.765573e-01
  2.313487e+01    8.914241e-01
  2.315074e+01    8.853082e-01
  2.316662e+01    8.750342e-01
  2.318249e+01    8.790323e-01
  2.319837e+01    8.738454e-01
  2.321425e+01    8.764479e-01
  2.323012e+01    8.656403e-01
  2.324600e+01    8.839377e-01
  2.326187e+01    8.578002e-01
  2.327775e+01    8.462943e-01
  2.329362e+01    8.521993e-01
  2.330950e+01    8.795468e-01
  2.332537e+01    8.616940e-01
  2.334125e+01    8.772942e-01
  2.335713e+01    8.755465e-01
  2.337300e+01    8.867336e-01
  2.338888e+01    8.615847e-01
  2.340475e+01    8.456664e-01
  2.342063e+01    8.601915e-01
  2.343650e+01    8.684455e-01
  2.345238e+01    8.484187e-01
  2.346825e+01    8.445817e-01
  2.348413e+01    8.447543e-01
  2.350001e+01    8.557978e-01
  2.351588e+01    8.676654e-01
  2.353176e+01    8.542807e-01
  2.354763e+01    8.506217e-01
  2.356351e+01    8.591814e-01
  2.357938e+01    8.488186e-01
  2.359526e+01    8.230605e-01
  2.361113e+01    8.344908e-01
  2.362701e+01    8.560260e-01
  2.364289e+01    8.543034e-01
  2.365876e+01    8.615248e-01
  2.367464e+01    8.620048e-01
  2.369051e+01    8.497729e-01
  2.370639e+01    8.318115e-01
  2.372226e+01    8.241170e-01
  2.373814e+01    8.138347e-01
  2.375401e+01    8.277115e-01
  2.376989e+01    8.348105e-01
  2.378577e+01    8.342419e-01
  2.380164e+01    8.018535e-01
  2.381752e+01    7.910370e-01
  2.383339e+01    7.953981e-01
  2.384927e+01    7.975928e-01
  2.386514e+01    8.056287e-01
  2.388102e+01    8.117395e-01
  2.389689e+01    8.130330e-01
  2.391277e+01    8.106048e-01
  2.392865e+01    8.143242e-01
  2.394452e+01    8.012864e-01
  2.396040e+01    8.098789e-01
  2.397627e+01    8.050791e-01
  2.399215e+01    7.926902e-01
  2.400802e+01    7.875515e-01
  2.402390e+01    7.799047e-01
  2.403978e+01    7.927295e-01
  2.405565e+01    7.955404e-01
  2.407153e+01    7.843793e-01
  2.408740e+01    7.846759e-01
  2.410328e+01    7.716241e-01
  2.411915e+01    7.896518e-01
  2.413503e+01    7.813007e-01
  2.415090e+01    7.894925e-01
  2.416678e+01    8.040673e-01
  2.418266e+01    7.999958e-01
  2.419853e+01    7.985441e-01
  2.421441e+01    7.736080e-01
  2.423028e+01    7.628185e-01
  2.424616e+01    7.695487e-01
  2.426203e+01    7.809187e-01
  2.427791e+01    7.665162e-01
  2.429378e+01    7.817825e-01
  2.430966e+01    7.777402e-01
  2.432554e+01    8.061984e-01
  2.434141e+01    7.919887e-01
  2.435729e+01    7.918756e-01
  2.437316e+01    7.797398e-01
  2.438904e+01    7.696641e-01
  2.440491e+01    7.750947e-01
  2.442079e+01    7.897849e-01
  2.443666e+01    7.837927e-01
  2.445254e+01    7.929620e-01
  2.446842e+01    7.936099e-01
  2.448429e+01    8.031517e-01
  2.450017e+01    8.124375e-01
  2.451604e+01    7.855135e-01
  2.453192e+01    7.766238e-01
  2.454779e+01    7.739656e-01
  2.456367e+01    7.942949e-01
  2.457954e+01    7.849008e-01
  2.459542e+01    7.813160e-01
  2.461130e+01    7.870542e-01
  2.462717e+01    7.874061e-01
  2.464305e+01    7.792814e-01
  2.465892e+01    7.848421e-01
  2.467480e+01    7.980222e-01
  2.469067e+01    8.078649e-01
  2.470655e+01    8.048400e-01
  2.472242e+01    7.984735e-01
  2.473830e+01    7.969968e-01
  2.475418e+01    7.905564e-01
  2.477005e+01    7.882451e-01
  2.478593e+01    7.849328e-01
  2.480180e+01    7.951272e-01
  2.481768e+01    7.808923e-01
  2.483355e+01    7.876843e-01
  2.484943e+01    7.871028e-01
  2.486530e+01    7.817236e-01
  2.488118e+01    7.995848e-01
  2.489706e+01    7.845727e-01
  2.491293e+01    7.957356e-01
  2.492881e+01    8.197875e-01
  2.494468e+01    8.074595e-01
  2.496056e+01    7.858729e-01
  2.497643e+01    7.912600e-01
  2.499231e+01    7.878948e-01
  2.500819e+01    7.961998e-01
  2.502406e+01    7.937690e-01
  2.503994e+01    8.032377e-01
  2.505581e+01    8.329691e-01
  2.507169e+01    8.163485e-01
  2.508756e+01    8.030743e-01
  2.510344e+01    8.259479e-01
  2.511931e+01    8.133408e-01
  2.513519e+01    8.032061e-01
  2.515107e+01    8.173492e-01
  2.516694e+01    8.227105e-01
  2.518282e+01    8.416511e-01
  2.519869e+01    8.472256e-01
  2.521457e+01    8.409296e-01
  2.523044e+01    8.369149e-01
  2.524632e+01    8.376049e-01
  2.526219e+01    8.365059e-01
  2.527807e+01    8.678628e-01
  2.529395e+01    8.511552e-01
  2.530982e+01    8.440987e-01
  2.532570e+01    8.502058e-01
  2.534157e+01    8.493081e-01
  2.535745e+01    8.694580e-01
  2.537332e+01    8.714581e-01
  2.538920e+01    8.773540e-01
  2.540507e+01    8.899645e-01
  2.542095e+01    9.244314e-01
  2.543683e+01    9.277819e-01
  2.545270e+01    9.278584e-01
  2.546858e+01    9.433772e-01
  2.548445e+01    9.544793e-01
  2.550033e+01    9.686739e-01
  2.551620e+01    9.812858e-01
  2.553208e+01    9.880917e-01
  2.554795e+01    1.029093e+00
  2.556383e+01    1.027395e+00
  2.557971e+01    1.044014e+00
  2.559558e+01    1.087109e+00
  2.561146e+01    1.147857e+00
  2.562733e+01    1.170121e+00
  2.564321e+01    1.200769e+00
  2.565908e+01    1.271073e+00
  2.567496e+01    1.327714e+00
  2.569083e+01    1.397919e+00
  2.570671e+01    1.482940e+00
  2.572259e+01    1.600153e+00
  2.573846e+01    1.747397e+00
  2.575434e+01    1.907189e+00
  2.577021e+01    2.138296e+00
  2.578609e+01    2.384051e+00
  2.580196e+01    2.661595e+00
  2.581784e+01    2.987903e+00
  2.583371e+01    3.449760e+00
  2.584959e+01    3.939347e+00
  2.586547e+01    4.479891e+00
  2.588134e+01    5.030827e+00
  2.589722e+01    5.654943e+00
  2.591309e+01    6.190764e+00
  2.592897e+01    6.657969e+00
  2.594484e+01    6.980057e+00
  2.596072e+01    7.142106e+00
  2.597660e+01    7.073807e+00
  2.599247e+01    6.616224e+00
  2.600835e+01    6.004240e+00
  2.602422e+01    5.278468e+00
  2.604010e+01    4.534067e+00
  2.605597e+01    3.919744e+00
  2.607185e+01    3.350977e+00
  2.608772e+01    2.941238e+00
  2.610360e+01    2.583254e+00
  2.611948e+01    2.273497e+00
  2.613535e+01    2.032448e+00
  2.615123e+01    1.849323e+00
  2.616710e+01    1.712493e+00
  2.618298e+01    1.592222e+00
  2.619885e+01    1.454832e+00
  2.621473e+01    1.389716e+00
  2.623060e+01    1.330723e+00
  2.624648e+01    1.258959e+00
  2.626236e+01    1.207731e+00
  2.627823e+01    1.148687e+00
  2.629411e+01    1.131876e+00
  2.630998e+01    1.122442e+00
  2.632586e+01    1.076334e+00
  2.634173e+01    1.031123e+00
  2.635761e+01    9.948208e-01
  2.637348e+01    9.855624e-01
  2.638936e+01    9.867313e-01
  2.640524e+01    9.579269e-01
  2.642111e+01    9.418018e-01
  2.643699e+01    9.593498e-01
  2.645286e+01    9.328265e-01
  2.646874e+01    9.211470e-01
  2.648461e+01    9.160054e-01
  2.650049e+01    9.046550e-01
  2.651636e+01    8.960955e-01
  2.653224e+01    9.131076e-01
  2.654812e+01    9.048068e-01
  2.656399e+01    9.001402e-01
  2.657987e+01    8.889841e-01
  2.659574e+01    9.157090e-01
  2.661162e+01    8.854471e-01
  2.662749e+01    8.838996e-01
  2.664337e+01    8.868071e-01
  2.665924e+01    8.772554e-01
  2.667512e+01    8.816345e-01
  2.669100e+01    8.852789e-01
  2.670687e+01    8.737744e-01
  2.672275e+01    8.699707e-01
  2.673862e+01    8.773804e-01
  2.675450e+01    8.877521e-01
  2.677037e+01    8.897806e-01
  2.678625e+01    8.921273e-01
  2.680212e+01    9.061376e-01
  2.681800e+01    8.774438e-01
  2.683388e+01    8.890307e-01
  2.684975e+01    8.917900e-01
  2.686563e+01    9.193085e-01
  2.688150e+01    9.147536e-01
  2.689738e+01    8.790262e-01
  2.691325e+01    9.066441e-01
  2.692913e+01    9.128108e-01
  2.694501e+01    9.345157e-01
  2.696088e+01    9.691743e-01
  2.697676e+01    9.838302e-01
  2.699263e+01    9.961259e-01
  2.700851e+01    1.012514e+00
  2.702438e+01    1.066233e+00
  2.704026e+01    1.114822e+00
  2.705613e+01    1.158643e+00
  2.707201e+01    1.224589e+00
  2.708789e+01    1.314149e+00
  2.710376e+01    1.389805e+00
  2.711964e+01    1.497362e+00
  2.713551e+01    1.640672e+00
  2.715139e+01    1.745217e+00
  2.716726e+01    1.879360e+00
  2.718314e+01    2.044441e+00
  2.719901e+01    2.127937e+00
  2.721489e+01    2.155502e+00
  2.723077e+01    2.148461e+00
  2.724664e+01    2.057652e+00
  2.726252e+01    1.913972e+00
  2.727839e+01    1.811852e+00
  2.729427e+01    1.656403e+00
  2.731014e+01    1.528757e+00
  2.732602e+01    1.410257e+00
  2.734189e+01    1.291869e+00
  2.735777e+01    1.214172e+00
  2.737365e+01    1.138982e+00
  2.738952e+01    1.055221e+00
  2.740540e+01    1.042922e+00
  2.742127e+01    1.017163e+00
  2.743715e+01    9.731900e-01
  2.745302e+01    9.417968e-01
  2.746890e+01    9.357203e-01
  2.748477e+01    9.334466e-01
  2.750065e+01    9.104934e-01
  2.751653e+01    9.033427e-01
  2.753240e+01    8.782719e-01
  2.754828e+01    8.784513e-01
  2.756415e+01    8.736230e-01
  2.758003e+01    8.623079e-01
  2.759590e+01    8.761142e-01
  2.761178e+01    8.471254e-01
  2.762765e+01    8.394813e-01
  2.764353e+01    8.141225e-01
  2.765941e+01    8.227262e-01
  2.767528e+01    8.411471e-01
  2.769116e+01    8.270834e-01
  2.770703e+01    7.956638e-01
  2.772291e+01    8.084353e-01
  2.773878e+01    8.044791e-01
  2.775466e+01    8.203320e-01
  2.777054e+01    7.891411e-01
  2.778641e+01    7.886912e-01
  2.780229e+01    8.059859e-01
  2.781816e+01    8.202891e-01
  2.783404e+01    7.892697e-01
  2.784991e+01    8.065562e-01
  2.786579e+01    7.924275e-01
  2.788166e+01    7.934127e-01
  2.789754e+01    7.933997e-01
  2.791342e+01    8.184714e-01
  2.792929e+01    7.809896e-01
  2.794517e+01    7.719094e-01
  2.796104e+01    7.551374e-01
  2.797692e+01    7.658955e-01
  2.799279e+01    7.813497e-01
  2.800867e+01    7.800361e-01
  2.802454e+01    8.021837e-01
  2.804042e+01    7.886399e-01
  2.805630e+01    7.650097e-01
  2.807217e+01    7.745208e-01
  2.808805e+01    7.695084e-01
  2.810392e+01    7.579647e-01
  2.811980e+01    7.558528e-01
  2.813567e+01    7.770895e-01
  2.815155e+01    7.718511e-01
  2.816742e+01    7.621758e-01
  2.818330e+01    7.513556e-01
  2.819918e+01    7.704067e-01
  2.821505e+01    7.536188e-01
  2.823093e+01    7.372020e-01
  2.824680e+01    7.658110e-01
  2.826268e+01    7.583303e-01
  2.827855e+01    7.507017e-01
  2.829443e+01    7.584076e-01
  2.831030e+01    7.567686e-01
  2.832618e+01    7.522895e-01
  2.834206e+01    7.659303e-01
  2.835793e+01    7.674547e-01
  2.837381e+01    7.516977e-01
  2.838968e+01    7.400606e-01
  2.840556e+01    7.629552e-01
  2.842143e+01    7.525780e-01
  2.843731e+01    7.553962e-01
  2.845318e+01    7.598403e-01
  2.846906e+01    7.346432e-01
  2.848494e+01    7.540144e-01
  2.850081e+01    7.688282e-01
  2.851669e+01    7.693252e-01
  2.853256e+01    7.484547e-01
  2.854844e+01    7.299398e-01
  2.856431e+01    7.294983e-01
  2.858019e+01    7.436259e-01
  2.859606e+01    7.401521e-01
  2.861194e+01    7.520633e-01
  2.862782e+01    7.598364e-01
  2.864369e+01    7.481230e-01
  2.865957e+01    7.629715e-01
  2.867544e+01    7.675952e-01
  2.869132e+01    7.376115e-01
  2.870719e+01    7.199208e-01
  2.872307e+01    7.471253e-01
  2.873895e+01    7.366650e-01
  2.875482e+01    7.292086e-01
  2.877070e+01    7.248262e-01
  2.878657e+01    7.383332e-01
  2.880245e+01    7.411057e-01
  2.881832e+01    7.412457e-01
  2.883420e+01    7.610244e-01
  2.885007e+01    7.496743e-01
  2.886595e+01    7.335004e-01
  2.888183e+01    7.321745e-01
  2.889770e+01    7.179254e-01
  2.891358e+01    7.404941e-01
  2.892945e+01    7.358548e-01
  2.894533e+01    7.323759e-01
  2.896120e+01    7.391329e-01
  2.897708e+01    7.412337e-01
  2.899295e+01    7.383114e-01
  2.900883e+01    7.430716e-01
  2.902471e+01    7.358559e-01
  2.904058e+01    7.435210e-01
  2.905646e+01    7.401693e-01
  2.907233e+01    7.213961e-01
  2.908821e+01    7.294268e-01
  2.910408e+01    7.330782e-01
  2.911996e+01    7.279600e-01
  2.913583e+01    7.215896e-01
  2.915171e+01    7.286243e-01
  2.916759e+01    7.496060e-01
  2.918346e+01    7.338030e-01
  2.919934e+01    7.193662e-01
  2.921521e+01    7.252579e-01
  2.923109e+01    7.230050e-01
  2.924696e+01    7.307240e-01
  2.926284e+01    7.187713e-01
  2.927871e+01    7.243263e-01
  2.929459e+01    7.273448e-01
  2.931047e+01    7.158005e-01
  2.932634e+01    7.213246e-01
  2.934222e+01    7.322573e-01
  2.935809e+01    7.267083e-01
  2.937397e+01    7.183255e-01
  2.938984e+01    7.104355e-01
  2.940572e+01    6.959343e-01
  2.942159e+01    7.298526e-01
  2.943747e+01    7.230285e-01
  2.945335e+01    7.161608e-01
  2.946922e+01    7.138137e-01
  2.948510e+01    7.245627e-01
  2.950097e+01    7.034933e-01
  2.951685e+01    6.907768e-01
  2.953272e+01    6.987394e-01
  2.954860e+01    7.101644e-01
  2.956447e+01    7.168055e-01
  2.958035e+01    7.298689e-01
  2.959623e+01    7.225286e-01
  2.961210e+01    7.231494e-01
  2.962798e+01    7.354335e-01
  2.964385e+01    7.317143e-01
  2.965973e+01    7.210436e-01
  2.967560e+01    7.179793e-01
  2.969148e+01    7.280781e-01
  2.970736e+01    7.157924e-01
  2.972323e+01    7.066009e-01
  2.973911e+01    7.159876e-01
  2.975498e+01    6.981111e-01
  2.977086e+01    7.166449e-01
  2.978673e+01    7.404569e-01
  2.980261e+01    7.391034e-01
  2.981848e+01    7.020108e-01
  2.983436e+01    7.003714e-01
  2.985024e+01    7.133937e-01
  2.986611e+01    7.226403e-01
  2.988199e+01    7.125872e-01
  2.989786e+01    7.250136e-01
  2.991374e+01    7.142181e-01
  2.992961e+01    7.457849e-01
  2.994549e+01    7.294772e-01
  2.996136e+01    7.173737e-01
  2.997724e+01    6.903450e-01
  2.999312e+01    7.122434e-01
  3.000899e+01    7.183718e-01
  3.002487e+01    7.258260e-01
  3.004074e+01    7.173982e-01
  3.005662e+01    7.312217e-01
  3.007249e+01    7.377611e-01
  3.008837e+01    7.157086e-01
  3.010424e+01    7.161071e-01
  3.012012e+01    7.339196e-01
  3.013600e+01    7.070616e-01
  3.015187e+01    7.193965e-01
  3.016775e+01    7.266257e-01
  3.018362e+01    7.068985e-01
  3.019950e+01    7.285381e-01
  3.021537e+01    7.282267e-01
  3.023125e+01    7.282996e-01
  3.024712e+01    7.178650e-01
  3.026300e+01    7.206084e-01
  3.027888e+01    7.123241e-01
  3.029475e+01    7.112031e-01
  3.031063e+01    7.163118e-01
  3.032650e+01    6.910889e-01
  3.034238e+01    6.907180e-01
  3.035825e+01    6.993721e-01
  3.037413e+01    7.190824e-01
  3.039000e+01    7.096520e-01
  3.040588e+01    7.074782e-01
  3.042176e+01    7.092949e-01
  3.043763e+01    7.188870e-01
  3.045351e+01    7.500368e-01
  3.046938e+01    7.190367e-01
  3.048526e+01    7.136571e-01
  3.050113e+01    6.869864e-01
  3.051701e+01    6.972080e-01
  3.053288e+01    7.061294e-01
  3.054876e+01    7.015790e-01
  3.056464e+01    6.982366e-01
  3.058051e+01    7.032242e-01
  3.059639e+01    7.095876e-01
  3.061226e+01    7.163528e-01
  3.062814e+01    6.994730e-01
  3.064401e+01    7.221389e-01
  3.065989e+01    7.220138e-01
  3.067577e+01    7.035280e-01
  3.069164e+01    6.927181e-01
  3.070752e+01    6.964616e-01
  3.072339e+01    7.122850e-01
  3.073927e+01    7.070473e-01
  3.075514e+01    7.161517e-01
  3.077102e+01    7.033682e-01
  3.078689e+01    7.064860e-01
  3.080277e+01    7.151303e-01
  3.081865e+01    7.127317e-01
  3.083452e+01    7.150877e-01
  3.085040e+01    7.047997e-01
  3.086627e+01    6.882148e-01
  3.088215e+01    7.035642e-01
  3.089802e+01    7.296247e-01
  3.091390e+01    7.372255e-01
  3.092977e+01    7.108117e-01
  3.094565e+01    7.107376e-01
  3.096153e+01    7.148705e-01
  3.097740e+01    6.930339e-01
  3.099328e+01    7.018226e-01
  3.100915e+01    7.084051e-01
  3.102503e+01    7.014141e-01
  3.104090e+01    7.156082e-01
  3.105678e+01    7.121878e-01
  3.107265e+01    6.872698e-01
  3.108853e+01    6.890644e-01
  3.110441e+01    7.092169e-01
  3.112028e+01    7.249853e-01
  3.113616e+01    7.398532e-01
  3.115203e+01    7.160723e-01
  3.116791e+01    7.105477e-01
  3.118378e+01    7.160830e-01
  3.119966e+01    7.134756e-01
  3.121553e+01    7.071496e-01
  3.123141e+01    7.221064e-01
  3.124729e+01    7.515037e-01
  3.126316e+01    7.239060e-01
  3.127904e+01    7.253075e-01
  3.129491e+01    7.153345e-01
  3.131079e+01    7.031392e-01
  3.132666e+01    7.194049e-01
  3.134254e+01    7.327812e-01
  3.135841e+01    7.373300e-01
  3.137429e+01    7.544643e-01
  3.139017e+01    7.474824e-01
  3.140604e+01    7.355332e-01
  3.142192e+01    7.135558e-01
  3.143779e+01    7.464290e-01
  3.145367e+01    7.437753e-01
  3.146954e+01    7.615392e-01
  3.148542e+01    7.448529e-01
  3.150129e+01    7.428352e-01
  3.151717e+01    7.508160e-01
  3.153305e+01    7.660182e-01
  3.154892e+01    7.854168e-01
  3.156480e+01    7.971362e-01
  3.158067e+01    8.095608e-01
  3.159655e+01    8.217072e-01
  3.161242e+01    8.004559e-01
  3.162830e+01    8.406536e-01
  3.164418e+01    8.618389e-01
  3.166005e+01    8.957231e-01
  3.167593e+01    9.032092e-01
  3.169180e+01    9.593014e-01
  3.170768e+01    9.799289e-01
  3.172355e+01    9.954244e-01
  3.173943e+01    1.068874e+00
  3.175530e+01    1.156294e+00
  3.177118e+01    1.220992e+00
  3.178706e+01    1.317588e+00
  3.180293e+01    1.413170e+00
  3.181881e+01    1.492341e+00
  3.183468e+01    1.664746e+00
  3.185056e+01    1.828994e+00
  3.186643e+01    1.967909e+00
  3.188231e+01    1.996784e+00
  3.189818e+01    2.088743e+00
  3.191406e+01    2.131942e+00
  3.192994e+01    2.066338e+00
  3.194581e+01    1.980842e+00
  3.196169e+01    1.826900e+00
  3.197756e+01    1.658735e+00
  3.199344e+01    1.541803e+00
  3.200931e+01    1.393894e+00
  3.202519e+01    1.257305e+00
  3.204106e+01    1.202898e+00
  3.205694e+01    1.098674e+00
  3.207282e+01    1.014105e+00
  3.208869e+01    9.535790e-01
  3.210457e+01    9.402674e-01
  3.212044e+01    8.869601e-01
  3.213632e+01    8.742931e-01
  3.215219e+01    8.592060e-01
  3.216807e+01    8.447833e-01
  3.218394e+01    8.245122e-01
  3.219982e+01    8.121176e-01
  3.221570e+01    8.157424e-01
  3.223157e+01    7.835355e-01
  3.224745e+01    7.681664e-01
  3.226332e+01    7.494857e-01
  3.227920e+01    7.626755e-01
  3.229507e+01    7.820856e-01
  3.231095e+01    7.650424e-01
  3.232682e+01    7.556525e-01
  3.234270e+01    7.474452e-01
  3.235858e+01    7.591295e-01
  3.237445e+01    7.337466e-01
  3.239033e+01    7.438248e-01
  3.240620e+01    7.160333e-01
  3.242208e+01    7.196079e-01
  3.243795e+01    7.186396e-01
  3.245383e+01    7.167324e-01
  3.246970e+01    7.055511e-01
  3.248558e+01    6.985884e-01
  3.250146e+01    7.033314e-01
  3.251733e+01    7.276487e-01
  3.253321e+01    7.354434e-01
  3.254908e+01    7.306435e-01
