# == pyFAI calibration ==
# Distance Sample to Detector: 0.3999999939076516 m
# PONI: 9.750e-02, 1.135e-01 m
# Rotations: -0.000175 0.000000 -0.000000 rad
# 
# == Fit2d calibration ==
# Distance Sample-beamCenter: 400.000 mm
# Center: x=1514.000, y=1300.000 pix
# Tilt: 0.010 deg  TiltPlanRot: 0.010 deg
# 
# Detector Detector	 Spline= None	 PixelSize= 7.500e-05, 7.500e-05 m
#    Detector has a mask: False 
#    Detector has a dark current: False 
#    detector has a flat field: False 
# 
# Wavelength: 6.888e-11 m
# Mask applied: user provided
# Dark current applied: False
# Flat field applied: False
# Polarization factor: 0.99
# Normalization factor: 1.0
# --> /home/myspot/data/2024_07_Rosario/Ru-CGO-ex/2024-07-27_002_Ru-CGO-ex_Activtation_ramp_000002_data_000126.dat
#       q_nm^-1             I 
  2.003187e-02    0.000000e+00
  3.590745e-02    0.000000e+00
  5.178302e-02    0.000000e+00
  6.765859e-02    1.985502e-02
  8.353417e-02    4.769202e-02
  9.940974e-02    1.730092e-02
  1.152853e-01    7.466205e-02
  1.311609e-01    5.030073e-02
  1.470365e-01    4.956730e-02
  1.629120e-01    4.883087e-02
  1.787876e-01    3.646586e-02
  1.946632e-01    1.627609e-02
  2.105388e-01    5.030093e-02
  2.264143e-01    4.157268e-02
  2.422899e-01    4.843175e-02
  2.581655e-01    5.505991e-02
  2.740411e-01    7.412448e-02
  2.899166e-01    4.296356e-02
  3.057922e-01    6.413957e-02
  3.216678e-01    4.985337e-02
  3.375433e-01    3.837034e-02
  3.534189e-01    3.086845e-02
  3.692945e-01    4.899392e-02
  3.851701e-01    7.441531e-02
  4.010456e-01    3.485361e-02
  4.169212e-01    3.531321e-02
  4.327968e-01    7.538786e-02
  4.486724e-01    5.539117e-02
  4.645479e-01    4.735973e-02
  4.804235e-01    5.247530e-02
  4.962991e-01    4.377523e-02
  5.121747e-01    4.293232e-02
  5.280502e-01    4.670494e-02
  5.439258e-01    4.266585e-02
  5.598014e-01    4.200174e-02
  5.756770e-01    5.872350e-02
  5.915525e-01    5.361859e-02
  6.074281e-01    3.790635e-02
  6.233037e-01    2.536833e-02
  6.391793e-01    4.154220e-02
  6.550548e-01    3.013147e-02
  6.709304e-01    4.247145e-02
  6.868060e-01    4.484809e-02
  7.026815e-01    4.403368e-02
  7.185571e-01    5.707069e-02
  7.344327e-01    5.187646e-02
  7.503083e-01    6.246747e-02
  7.661838e-01    8.382754e-02
  7.820594e-01    9.350514e-02
  7.979350e-01    1.706499e-01
  8.138106e-01    2.016913e-01
  8.296861e-01    2.076031e-01
  8.455617e-01    2.934541e-01
  8.614373e-01    3.143728e-01
  8.773129e-01    4.053676e-01
  8.931884e-01    4.831520e-01
  9.090640e-01    5.318752e-01
  9.249396e-01    6.095949e-01
  9.408152e-01    5.987937e-01
  9.566907e-01    7.410883e-01
  9.725663e-01    8.160250e-01
  9.884419e-01    9.010260e-01
  1.004317e+00    1.030228e+00
  1.020193e+00    1.129631e+00
  1.036069e+00    1.216278e+00
  1.051944e+00    1.240235e+00
  1.067820e+00    1.298614e+00
  1.083695e+00    1.395009e+00
  1.099571e+00    1.377233e+00
  1.115446e+00    1.415328e+00
  1.131322e+00    1.441190e+00
  1.147198e+00    1.416323e+00
  1.163073e+00    1.492641e+00
  1.178949e+00    1.584150e+00
  1.194824e+00    1.635668e+00
  1.210700e+00    1.776430e+00
  1.226575e+00    2.068852e+00
  1.242451e+00    2.163648e+00
  1.258327e+00    2.203620e+00
  1.274202e+00    2.421665e+00
  1.290078e+00    2.440213e+00
  1.305953e+00    2.413655e+00
  1.321829e+00    2.574882e+00
  1.337705e+00    2.644680e+00
  1.353580e+00    2.541579e+00
  1.369456e+00    2.584841e+00
  1.385331e+00    2.590510e+00
  1.401207e+00    2.658953e+00
  1.417082e+00    2.693924e+00
  1.432958e+00    2.598335e+00
  1.448834e+00    2.713963e+00
  1.464709e+00    2.764503e+00
  1.480585e+00    2.730669e+00
  1.496460e+00    2.751889e+00
  1.512336e+00    2.771832e+00
  1.528211e+00    2.781761e+00
  1.544087e+00    2.889735e+00
  1.559963e+00    3.058902e+00
  1.575838e+00    3.026059e+00
  1.591714e+00    2.793866e+00
  1.607589e+00    2.756015e+00
  1.623465e+00    2.810138e+00
  1.639340e+00    2.882789e+00
  1.655216e+00    2.815592e+00
  1.671092e+00    2.821794e+00
  1.686967e+00    2.762334e+00
  1.702843e+00    2.735055e+00
  1.718718e+00    2.750963e+00
  1.734594e+00    2.784250e+00
  1.750469e+00    2.766560e+00
  1.766345e+00    2.775936e+00
  1.782221e+00    2.732990e+00
  1.798096e+00    2.657724e+00
  1.813972e+00    2.763900e+00
  1.829847e+00    2.716693e+00
  1.845723e+00    2.662229e+00
  1.861598e+00    2.742394e+00
  1.877474e+00    2.864004e+00
  1.893350e+00    2.839649e+00
  1.909225e+00    2.845229e+00
  1.925101e+00    2.819629e+00
  1.940976e+00    2.896940e+00
  1.956852e+00    2.793739e+00
  1.972727e+00    2.729593e+00
  1.988603e+00    2.632819e+00
  2.004479e+00    2.575161e+00
  2.020354e+00    2.634677e+00
  2.036230e+00    2.708265e+00
  2.052105e+00    2.748561e+00
  2.067981e+00    2.692969e+00
  2.083856e+00    2.717113e+00
  2.099732e+00    2.788211e+00
  2.115608e+00    2.750775e+00
  2.131483e+00    2.654576e+00
  2.147359e+00    2.782257e+00
  2.163234e+00    2.763631e+00
  2.179110e+00    2.697317e+00
  2.194985e+00    2.747596e+00
  2.210861e+00    2.766618e+00
  2.226737e+00    2.672148e+00
  2.242612e+00    2.626258e+00
  2.258488e+00    2.797054e+00
  2.274363e+00    2.786294e+00
  2.290239e+00    2.718629e+00
  2.306115e+00    2.802324e+00
  2.321990e+00    2.906134e+00
  2.337866e+00    2.901466e+00
  2.353741e+00    2.771460e+00
  2.369617e+00    2.825495e+00
  2.385492e+00    2.804105e+00
  2.401368e+00    2.782716e+00
  2.417244e+00    2.641762e+00
  2.433119e+00    2.773076e+00
  2.448995e+00    2.841885e+00
  2.464870e+00    2.860558e+00
  2.480746e+00    2.853377e+00
  2.496621e+00    2.869153e+00
  2.512497e+00    2.810384e+00
  2.528373e+00    2.765846e+00
  2.544248e+00    2.764970e+00
  2.560124e+00    2.789232e+00
  2.575999e+00    2.734887e+00
  2.591875e+00    2.841156e+00
  2.607750e+00    2.926890e+00
  2.623626e+00    2.855183e+00
  2.639502e+00    2.729729e+00
  2.655377e+00    2.767404e+00
  2.671253e+00    2.739091e+00
  2.687128e+00    2.846140e+00
  2.703004e+00    2.907870e+00
  2.718879e+00    2.814850e+00
  2.734755e+00    2.831061e+00
  2.750631e+00    2.757586e+00
  2.766506e+00    2.626209e+00
  2.782382e+00    2.783974e+00
  2.798257e+00    2.838159e+00
  2.814133e+00    2.735806e+00
  2.830008e+00    2.649897e+00
  2.845884e+00    2.705413e+00
  2.861760e+00    2.837229e+00
  2.877635e+00    2.854822e+00
  2.893511e+00    2.814216e+00
  2.909386e+00    2.900774e+00
  2.925262e+00    2.881167e+00
  2.941137e+00    2.837243e+00
  2.957013e+00    2.876382e+00
  2.972889e+00    2.881941e+00
  2.988764e+00    2.877424e+00
  3.004640e+00    2.814991e+00
  3.020515e+00    2.735503e+00
  3.036391e+00    2.909635e+00
  3.052266e+00    2.925994e+00
  3.068142e+00    2.854077e+00
  3.084018e+00    2.827691e+00
  3.099893e+00    2.799534e+00
  3.115769e+00    2.893284e+00
  3.131644e+00    2.895424e+00
  3.147520e+00    2.826058e+00
  3.163395e+00    2.814438e+00
  3.179271e+00    2.835158e+00
  3.195147e+00    2.984381e+00
  3.211022e+00    3.065151e+00
  3.226898e+00    2.930831e+00
  3.242773e+00    2.859043e+00
  3.258649e+00    2.890710e+00
  3.274525e+00    2.858920e+00
  3.290400e+00    2.849608e+00
  3.306276e+00    2.977484e+00
  3.322151e+00    2.993644e+00
  3.338027e+00    2.958035e+00
  3.353902e+00    2.896098e+00
  3.369778e+00    2.966249e+00
  3.385654e+00    2.913761e+00
  3.401529e+00    2.837195e+00
  3.417405e+00    2.905979e+00
  3.433280e+00    2.986974e+00
  3.449156e+00    2.957922e+00
  3.465031e+00    2.860349e+00
  3.480907e+00    2.907438e+00
  3.496783e+00    2.921643e+00
  3.512658e+00    3.024293e+00
  3.528534e+00    3.036781e+00
  3.544409e+00    2.932941e+00
  3.560285e+00    2.950123e+00
  3.576160e+00    2.944703e+00
  3.592036e+00    2.905181e+00
  3.607912e+00    2.995498e+00
  3.623787e+00    3.001922e+00
  3.639663e+00    2.970741e+00
  3.655538e+00    2.933768e+00
  3.671414e+00    2.965628e+00
  3.687289e+00    3.055461e+00
  3.703165e+00    3.085826e+00
  3.719041e+00    3.075344e+00
  3.734916e+00    2.972109e+00
  3.750792e+00    2.960903e+00
  3.766667e+00    2.938508e+00
  3.782543e+00    2.920747e+00
  3.798418e+00    2.940373e+00
  3.814294e+00    2.883315e+00
  3.830170e+00    2.925113e+00
  3.846045e+00    2.907814e+00
  3.861921e+00    2.919808e+00
  3.877796e+00    3.030906e+00
  3.893672e+00    2.984273e+00
  3.909547e+00    2.919354e+00
  3.925423e+00    2.986567e+00
  3.941299e+00    2.968037e+00
  3.957174e+00    2.970448e+00
  3.973050e+00    3.007384e+00
  3.988925e+00    2.988904e+00
  4.004801e+00    2.954425e+00
  4.020676e+00    2.963558e+00
  4.036552e+00    2.967712e+00
  4.052428e+00    2.927684e+00
  4.068303e+00    2.968435e+00
  4.084179e+00    2.955920e+00
  4.100054e+00    2.908989e+00
  4.115930e+00    2.946025e+00
  4.131806e+00    3.048882e+00
  4.147681e+00    2.945543e+00
  4.163557e+00    2.956115e+00
  4.179432e+00    2.993153e+00
  4.195308e+00    3.035477e+00
  4.211183e+00    3.067204e+00
  4.227059e+00    3.054790e+00
  4.242935e+00    3.045929e+00
  4.258810e+00    3.144862e+00
  4.274686e+00    3.086258e+00
  4.290561e+00    3.014794e+00
  4.306437e+00    2.982369e+00
  4.322312e+00    2.947151e+00
  4.338188e+00    2.922155e+00
  4.354064e+00    2.995883e+00
  4.369939e+00    3.021547e+00
  4.385815e+00    2.972492e+00
  4.401690e+00    3.050992e+00
  4.417566e+00    3.039604e+00
  4.433441e+00    3.151699e+00
  4.449317e+00    3.073533e+00
  4.465193e+00    3.081737e+00
  4.481068e+00    3.160219e+00
  4.496944e+00    3.162396e+00
  4.512819e+00    3.067569e+00
  4.528695e+00    3.041819e+00
  4.544570e+00    3.020457e+00
  4.560446e+00    3.062104e+00
  4.576322e+00    3.028831e+00
  4.592197e+00    3.130978e+00
  4.608073e+00    3.070008e+00
  4.623948e+00    3.078584e+00
  4.639824e+00    3.039605e+00
  4.655699e+00    3.077488e+00
  4.671575e+00    3.148821e+00
  4.687451e+00    3.096216e+00
  4.703326e+00    3.109342e+00
  4.719202e+00    3.186163e+00
  4.735077e+00    3.306637e+00
  4.750953e+00    3.149410e+00
  4.766828e+00    3.095756e+00
  4.782704e+00    3.066564e+00
  4.798580e+00    3.041201e+00
  4.814455e+00    3.084464e+00
  4.830331e+00    3.075208e+00
  4.846206e+00    3.042366e+00
  4.862082e+00    3.072643e+00
  4.877957e+00    3.175122e+00
  4.893833e+00    3.156736e+00
  4.909709e+00    3.022329e+00
  4.925584e+00    3.053113e+00
  4.941460e+00    3.180702e+00
  4.957335e+00    3.190711e+00
  4.973211e+00    3.116179e+00
  4.989086e+00    3.082438e+00
  5.004962e+00    3.031748e+00
  5.020838e+00    3.076736e+00
  5.036713e+00    3.079442e+00
  5.052589e+00    3.083475e+00
  5.068464e+00    3.143437e+00
  5.084340e+00    3.191199e+00
  5.100216e+00    3.052879e+00
  5.116091e+00    3.047206e+00
  5.131967e+00    3.163296e+00
  5.147842e+00    3.237742e+00
  5.163718e+00    3.086006e+00
  5.179593e+00    3.013788e+00
  5.195469e+00    3.086657e+00
  5.211345e+00    3.127545e+00
  5.227220e+00    3.083442e+00
  5.243096e+00    3.084404e+00
  5.258971e+00    3.182329e+00
  5.274847e+00    3.249041e+00
  5.290722e+00    3.100250e+00
  5.306598e+00    3.045339e+00
  5.322474e+00    3.101829e+00
  5.338349e+00    3.131082e+00
  5.354225e+00    3.118084e+00
  5.370100e+00    3.123653e+00
  5.385976e+00    3.136833e+00
  5.401851e+00    3.202366e+00
  5.417727e+00    3.156084e+00
  5.433603e+00    3.116393e+00
  5.449478e+00    3.076026e+00
  5.465354e+00    3.023787e+00
  5.481229e+00    2.978776e+00
  5.497105e+00    2.987837e+00
  5.512980e+00    3.052279e+00
  5.528856e+00    3.049374e+00
  5.544732e+00    3.032532e+00
  5.560607e+00    3.094381e+00
  5.576483e+00    3.118059e+00
  5.592358e+00    3.016709e+00
  5.608234e+00    3.030726e+00
  5.624109e+00    3.058981e+00
  5.639985e+00    2.992450e+00
  5.655861e+00    3.072119e+00
  5.671736e+00    3.100090e+00
  5.687612e+00    3.125674e+00
  5.703487e+00    3.143126e+00
  5.719363e+00    3.025474e+00
  5.735238e+00    2.980136e+00
  5.751114e+00    3.030935e+00
  5.766990e+00    3.044515e+00
  5.782865e+00    3.003476e+00
  5.798741e+00    3.016163e+00
  5.814616e+00    3.036265e+00
  5.830492e+00    3.034552e+00
  5.846367e+00    3.007459e+00
  5.862243e+00    3.002614e+00
  5.878119e+00    2.965326e+00
  5.893994e+00    2.959376e+00
  5.909870e+00    2.954951e+00
  5.925745e+00    2.901747e+00
  5.941621e+00    2.885954e+00
  5.957497e+00    2.933708e+00
  5.973372e+00    2.963163e+00
  5.989248e+00    2.971453e+00
  6.005123e+00    2.999672e+00
  6.020999e+00    3.006494e+00
  6.036874e+00    2.996086e+00
  6.052750e+00    3.031353e+00
  6.068626e+00    3.037218e+00
  6.084501e+00    3.080816e+00
  6.100377e+00    3.038048e+00
  6.116252e+00    3.059578e+00
  6.132128e+00    3.145163e+00
  6.148003e+00    3.113593e+00
  6.163879e+00    3.086076e+00
  6.179755e+00    3.109178e+00
  6.195630e+00    3.059522e+00
  6.211506e+00    3.029804e+00
  6.227381e+00    3.026442e+00
  6.243257e+00    3.082500e+00
  6.259132e+00    3.076786e+00
  6.275008e+00    3.019493e+00
  6.290884e+00    2.976387e+00
  6.306759e+00    3.015465e+00
  6.322635e+00    3.008289e+00
  6.338510e+00    3.024999e+00
  6.354386e+00    2.949018e+00
  6.370261e+00    2.966512e+00
  6.386137e+00    3.026535e+00
  6.402013e+00    3.074719e+00
  6.417888e+00    3.086867e+00
  6.433764e+00    2.983055e+00
  6.449639e+00    3.034708e+00
  6.465515e+00    3.046459e+00
  6.481390e+00    3.027609e+00
  6.497266e+00    3.042474e+00
  6.513142e+00    3.023634e+00
  6.529017e+00    2.964747e+00
  6.544893e+00    2.954427e+00
  6.560768e+00    3.041442e+00
  6.576644e+00    3.010973e+00
  6.592519e+00    2.978288e+00
  6.608395e+00    3.023583e+00
  6.624271e+00    3.055149e+00
  6.640146e+00    3.025739e+00
  6.656022e+00    2.971258e+00
  6.671897e+00    3.014219e+00
  6.687773e+00    2.998017e+00
  6.703648e+00    2.940889e+00
  6.719524e+00    2.946204e+00
  6.735400e+00    2.971925e+00
  6.751275e+00    2.950116e+00
  6.767151e+00    2.969328e+00
  6.783026e+00    2.985996e+00
  6.798902e+00    3.001238e+00
  6.814777e+00    2.987679e+00
  6.830653e+00    2.937587e+00
  6.846529e+00    3.035124e+00
  6.862404e+00    3.075243e+00
  6.878280e+00    3.063457e+00
  6.894155e+00    3.007566e+00
  6.910031e+00    2.991915e+00
  6.925907e+00    2.964852e+00
  6.941782e+00    2.995694e+00
  6.957658e+00    2.983260e+00
  6.973533e+00    3.037125e+00
  6.989409e+00    3.039688e+00
  7.005284e+00    3.062876e+00
  7.021160e+00    2.964916e+00
  7.037036e+00    2.853743e+00
  7.052911e+00    2.912576e+00
  7.068787e+00    2.941258e+00
  7.084662e+00    2.984481e+00
  7.100538e+00    3.006580e+00
  7.116413e+00    2.990277e+00
  7.132289e+00    2.964467e+00
  7.148165e+00    2.995869e+00
  7.164040e+00    3.027322e+00
  7.179916e+00    2.999123e+00
  7.195791e+00    2.948802e+00
  7.211667e+00    2.933753e+00
  7.227542e+00    3.007177e+00
  7.243418e+00    3.031849e+00
  7.259294e+00    2.965124e+00
  7.275169e+00    2.971727e+00
  7.291045e+00    2.969479e+00
  7.306920e+00    2.977802e+00
  7.322796e+00    2.960590e+00
  7.338671e+00    2.951927e+00
  7.354547e+00    2.942742e+00
  7.370423e+00    2.933527e+00
  7.386298e+00    3.001108e+00
  7.402174e+00    2.977109e+00
  7.418049e+00    2.951474e+00
  7.433925e+00    2.896325e+00
  7.449800e+00    2.955983e+00
  7.465676e+00    2.969656e+00
  7.481552e+00    2.931786e+00
  7.497427e+00    2.981869e+00
  7.513303e+00    3.000584e+00
  7.529178e+00    2.940197e+00
  7.545054e+00    2.940406e+00
  7.560929e+00    2.980513e+00
  7.576805e+00    2.900425e+00
  7.592681e+00    2.928221e+00
  7.608556e+00    2.978809e+00
  7.624432e+00    2.995910e+00
  7.640307e+00    2.981222e+00
  7.656183e+00    2.973528e+00
  7.672058e+00    2.902506e+00
  7.687934e+00    2.920534e+00
  7.703810e+00    2.962743e+00
  7.719685e+00    2.951095e+00
  7.735561e+00    2.919181e+00
  7.751436e+00    2.896612e+00
  7.767312e+00    2.905292e+00
  7.783187e+00    2.926830e+00
  7.799063e+00    2.895593e+00
  7.814939e+00    2.881780e+00
  7.830814e+00    2.936831e+00
  7.846690e+00    2.936411e+00
  7.862565e+00    2.893276e+00
  7.878441e+00    2.868644e+00
  7.894317e+00    2.960826e+00
  7.910192e+00    2.895119e+00
  7.926068e+00    2.896032e+00
  7.941943e+00    2.919120e+00
  7.957819e+00    2.841096e+00
  7.973694e+00    2.862731e+00
  7.989570e+00    2.818605e+00
  8.005446e+00    2.914690e+00
  8.021321e+00    2.929002e+00
  8.037197e+00    2.940279e+00
  8.053072e+00    2.895231e+00
  8.068948e+00    2.942728e+00
  8.084823e+00    2.949298e+00
  8.100699e+00    2.899696e+00
  8.116575e+00    2.913892e+00
  8.132450e+00    2.886372e+00
  8.148326e+00    2.848316e+00
  8.164201e+00    2.921041e+00
  8.180077e+00    2.952524e+00
  8.195952e+00    2.899294e+00
  8.211828e+00    2.932040e+00
  8.227704e+00    2.927841e+00
  8.243579e+00    2.985452e+00
  8.259455e+00    2.971245e+00
  8.275330e+00    2.916739e+00
  8.291206e+00    2.915086e+00
  8.307081e+00    2.947459e+00
  8.322957e+00    2.932712e+00
  8.338833e+00    2.877869e+00
  8.354708e+00    2.845265e+00
  8.370584e+00    2.850334e+00
  8.386459e+00    2.913948e+00
  8.402335e+00    2.873992e+00
  8.418210e+00    2.906574e+00
  8.434086e+00    2.857836e+00
  8.449962e+00    2.916317e+00
  8.465837e+00    2.857934e+00
  8.481713e+00    2.831206e+00
  8.497588e+00    2.836999e+00
  8.513464e+00    2.899839e+00
  8.529339e+00    2.902795e+00
  8.545215e+00    2.859529e+00
  8.561091e+00    2.836844e+00
  8.576966e+00    2.832101e+00
  8.592842e+00    2.855124e+00
  8.608717e+00    2.907729e+00
  8.624593e+00    2.908798e+00
  8.640468e+00    2.867625e+00
  8.656344e+00    2.857825e+00
  8.672220e+00    2.833385e+00
  8.688095e+00    2.870596e+00
  8.703971e+00    2.814687e+00
  8.719846e+00    2.812907e+00
  8.735722e+00    2.821030e+00
  8.751598e+00    2.791428e+00
  8.767473e+00    2.839283e+00
  8.783349e+00    2.745002e+00
  8.799224e+00    2.785276e+00
  8.815100e+00    2.844105e+00
  8.830975e+00    2.830193e+00
  8.846851e+00    2.846963e+00
  8.862727e+00    2.788378e+00
  8.878602e+00    2.807752e+00
  8.894478e+00    2.829725e+00
  8.910353e+00    2.869791e+00
  8.926229e+00    2.847263e+00
  8.942104e+00    2.815559e+00
  8.957980e+00    2.768465e+00
  8.973856e+00    2.829834e+00
  8.989731e+00    2.856274e+00
  9.005607e+00    2.780234e+00
  9.021482e+00    2.794380e+00
  9.037358e+00    2.786393e+00
  9.053233e+00    2.795037e+00
  9.069109e+00    2.821073e+00
  9.084985e+00    2.827155e+00
  9.100860e+00    2.808243e+00
  9.116736e+00    2.808290e+00
  9.132611e+00    2.796688e+00
  9.148487e+00    2.722673e+00
  9.164362e+00    2.763935e+00
  9.180238e+00    2.807811e+00
  9.196114e+00    2.775064e+00
  9.211989e+00    2.838717e+00
  9.227865e+00    2.804605e+00
  9.243740e+00    2.766014e+00
  9.259616e+00    2.689865e+00
  9.275491e+00    2.707703e+00
  9.291367e+00    2.711763e+00
  9.307243e+00    2.759902e+00
  9.323118e+00    2.732255e+00
  9.338994e+00    2.760466e+00
  9.354869e+00    2.751272e+00
  9.370745e+00    2.719175e+00
  9.386620e+00    2.678834e+00
  9.402496e+00    2.741837e+00
  9.418372e+00    2.703297e+00
  9.434247e+00    2.701559e+00
  9.450123e+00    2.644886e+00
  9.465998e+00    2.671859e+00
  9.481874e+00    2.668500e+00
  9.497749e+00    2.701662e+00
  9.513625e+00    2.749064e+00
  9.529501e+00    2.774043e+00
  9.545376e+00    2.784188e+00
  9.561252e+00    2.768958e+00
  9.577127e+00    2.732503e+00
  9.593003e+00    2.697265e+00
  9.608878e+00    2.705075e+00
  9.624754e+00    2.741751e+00
  9.640630e+00    2.763094e+00
  9.656505e+00    2.759009e+00
  9.672381e+00    2.746531e+00
  9.688256e+00    2.736547e+00
  9.704132e+00    2.727483e+00
  9.720008e+00    2.712295e+00
  9.735883e+00    2.721848e+00
  9.751759e+00    2.649787e+00
  9.767634e+00    2.679011e+00
  9.783510e+00    2.667776e+00
  9.799385e+00    2.684874e+00
  9.815261e+00    2.651805e+00
  9.831137e+00    2.670435e+00
  9.847012e+00    2.637182e+00
  9.862888e+00    2.636698e+00
  9.878763e+00    2.700681e+00
  9.894639e+00    2.704341e+00
  9.910514e+00    2.685399e+00
  9.926390e+00    2.740684e+00
  9.942266e+00    2.717470e+00
  9.958141e+00    2.689622e+00
  9.974017e+00    2.679184e+00
  9.989892e+00    2.643919e+00
  1.000577e+01    2.619009e+00
  1.002164e+01    2.654576e+00
  1.003752e+01    2.681916e+00
  1.005339e+01    2.621634e+00
  1.006927e+01    2.630769e+00
  1.008515e+01    2.668655e+00
  1.010102e+01    2.643029e+00
  1.011690e+01    2.611542e+00
  1.013277e+01    2.663306e+00
  1.014865e+01    2.688150e+00
  1.016452e+01    2.647823e+00
  1.018040e+01    2.633419e+00
  1.019627e+01    2.579338e+00
  1.021215e+01    2.566486e+00
  1.022803e+01    2.586149e+00
  1.024390e+01    2.610284e+00
  1.025978e+01    2.601415e+00
  1.027565e+01    2.646646e+00
  1.029153e+01    2.585390e+00
  1.030740e+01    2.606256e+00
  1.032328e+01    2.626723e+00
  1.033915e+01    2.591001e+00
  1.035503e+01    2.583267e+00
  1.037091e+01    2.590709e+00
  1.038678e+01    2.586134e+00
  1.040266e+01    2.639216e+00
  1.041853e+01    2.660419e+00
  1.043441e+01    2.584788e+00
  1.045028e+01    2.545105e+00
  1.046616e+01    2.599009e+00
  1.048204e+01    2.581807e+00
  1.049791e+01    2.562477e+00
  1.051379e+01    2.559199e+00
  1.052966e+01    2.576325e+00
  1.054554e+01    2.551494e+00
  1.056141e+01    2.543231e+00
  1.057729e+01    2.569171e+00
  1.059316e+01    2.502185e+00
  1.060904e+01    2.549921e+00
  1.062492e+01    2.522975e+00
  1.064079e+01    2.562076e+00
  1.065667e+01    2.521300e+00
  1.067254e+01    2.492092e+00
  1.068842e+01    2.498549e+00
  1.070429e+01    2.532035e+00
  1.072017e+01    2.488954e+00
  1.073604e+01    2.496667e+00
  1.075192e+01    2.514928e+00
  1.076780e+01    2.483915e+00
  1.078367e+01    2.458897e+00
  1.079955e+01    2.451913e+00
  1.081542e+01    2.505105e+00
  1.083130e+01    2.529622e+00
  1.084717e+01    2.546813e+00
  1.086305e+01    2.547818e+00
  1.087892e+01    2.521121e+00
  1.089480e+01    2.533612e+00
  1.091068e+01    2.506501e+00
  1.092655e+01    2.482022e+00
  1.094243e+01    2.511798e+00
  1.095830e+01    2.545878e+00
  1.097418e+01    2.519297e+00
  1.099005e+01    2.508479e+00
  1.100593e+01    2.438438e+00
  1.102180e+01    2.420918e+00
  1.103768e+01    2.425519e+00
  1.105356e+01    2.457615e+00
  1.106943e+01    2.467439e+00
  1.108531e+01    2.440116e+00
  1.110118e+01    2.444612e+00
  1.111706e+01    2.448688e+00
  1.113293e+01    2.479609e+00
  1.114881e+01    2.442194e+00
  1.116468e+01    2.463276e+00
  1.118056e+01    2.500213e+00
  1.119644e+01    2.481539e+00
  1.121231e+01    2.462740e+00
  1.122819e+01    2.460772e+00
  1.124406e+01    2.456332e+00
  1.125994e+01    2.417941e+00
  1.127581e+01    2.433291e+00
  1.129169e+01    2.463722e+00
  1.130756e+01    2.450671e+00
  1.132344e+01    2.447090e+00
  1.133932e+01    2.404153e+00
  1.135519e+01    2.412997e+00
  1.137107e+01    2.414329e+00
  1.138694e+01    2.411258e+00
  1.140282e+01    2.380215e+00
  1.141869e+01    2.328959e+00
  1.143457e+01    2.361169e+00
  1.145045e+01    2.379787e+00
  1.146632e+01    2.333032e+00
  1.148220e+01    2.325355e+00
  1.149807e+01    2.340357e+00
  1.151395e+01    2.354741e+00
  1.152982e+01    2.352825e+00
  1.154570e+01    2.384957e+00
  1.156157e+01    2.431119e+00
  1.157745e+01    2.397746e+00
  1.159333e+01    2.360749e+00
  1.160920e+01    2.371223e+00
  1.162508e+01    2.386723e+00
  1.164095e+01    2.344848e+00
  1.165683e+01    2.369639e+00
  1.167270e+01    2.353846e+00
  1.168858e+01    2.366381e+00
  1.170445e+01    2.349926e+00
  1.172033e+01    2.319574e+00
  1.173621e+01    2.318943e+00
  1.175208e+01    2.308138e+00
  1.176796e+01    2.337787e+00
  1.178383e+01    2.342007e+00
  1.179971e+01    2.337598e+00
  1.181558e+01    2.346031e+00
  1.183146e+01    2.358010e+00
  1.184733e+01    2.340436e+00
  1.186321e+01    2.297110e+00
  1.187909e+01    2.315117e+00
  1.189496e+01    2.328564e+00
  1.191084e+01    2.310017e+00
  1.192671e+01    2.352237e+00
  1.194259e+01    2.365530e+00
  1.195846e+01    2.311164e+00
  1.197434e+01    2.310924e+00
  1.199021e+01    2.305834e+00
  1.200609e+01    2.283217e+00
  1.202197e+01    2.322782e+00
  1.203784e+01    2.298609e+00
  1.205372e+01    2.318405e+00
  1.206959e+01    2.357142e+00
  1.208547e+01    2.339679e+00
  1.210134e+01    2.305369e+00
  1.211722e+01    2.295272e+00
  1.213309e+01    2.285022e+00
  1.214897e+01    2.309254e+00
  1.216485e+01    2.307736e+00
  1.218072e+01    2.277988e+00
  1.219660e+01    2.263410e+00
  1.221247e+01    2.301419e+00
  1.222835e+01    2.313334e+00
  1.224422e+01    2.310645e+00
  1.226010e+01    2.299540e+00
  1.227597e+01    2.307040e+00
  1.229185e+01    2.305838e+00
  1.230773e+01    2.284129e+00
  1.232360e+01    2.268166e+00
  1.233948e+01    2.341869e+00
  1.235535e+01    2.299809e+00
  1.237123e+01    2.281904e+00
  1.238710e+01    2.292528e+00
  1.240298e+01    2.309572e+00
  1.241886e+01    2.289485e+00
  1.243473e+01    2.286651e+00
  1.245061e+01    2.311215e+00
  1.246648e+01    2.348499e+00
  1.248236e+01    2.328242e+00
  1.249823e+01    2.319937e+00
  1.251411e+01    2.370004e+00
  1.252998e+01    2.377466e+00
  1.254586e+01    2.315717e+00
  1.256174e+01    2.304679e+00
  1.257761e+01    2.328536e+00
  1.259349e+01    2.341028e+00
  1.260936e+01    2.381256e+00
  1.262524e+01    2.362649e+00
  1.264111e+01    2.373963e+00
  1.265699e+01    2.441329e+00
  1.267286e+01    2.462427e+00
  1.268874e+01    2.420749e+00
  1.270462e+01    2.431299e+00
  1.272049e+01    2.482556e+00
  1.273637e+01    2.509091e+00
  1.275224e+01    2.538873e+00
  1.276812e+01    2.606757e+00
  1.278399e+01    2.640638e+00
  1.279987e+01    2.665193e+00
  1.281574e+01    2.677565e+00
  1.283162e+01    2.737748e+00
  1.284750e+01    2.851317e+00
  1.286337e+01    2.889216e+00
  1.287925e+01    3.023070e+00
  1.289512e+01    3.121862e+00
  1.291100e+01    3.265540e+00
  1.292687e+01    3.473629e+00
  1.294275e+01    3.695750e+00
  1.295862e+01    4.033597e+00
  1.297450e+01    4.419909e+00
  1.299038e+01    4.824974e+00
  1.300625e+01    5.374399e+00
  1.302213e+01    6.203591e+00
  1.303800e+01    7.125603e+00
  1.305388e+01    8.257616e+00
  1.306975e+01    9.560350e+00
  1.308563e+01    1.078444e+01
  1.310150e+01    1.204824e+01
  1.311738e+01    1.338310e+01
  1.313326e+01    1.464286e+01
  1.314913e+01    1.572963e+01
  1.316501e+01    1.661841e+01
  1.318088e+01    1.719971e+01
  1.319676e+01    1.706122e+01
  1.321263e+01    1.592025e+01
  1.322851e+01    1.405656e+01
  1.324438e+01    1.205826e+01
  1.326026e+01    1.023720e+01
  1.327614e+01    8.509662e+00
  1.329201e+01    7.222032e+00
  1.330789e+01    6.232996e+00
  1.332376e+01    5.447490e+00
  1.333964e+01    4.872958e+00
  1.335551e+01    4.446202e+00
  1.337139e+01    4.009417e+00
  1.338727e+01    3.738625e+00
  1.340314e+01    3.514263e+00
  1.341902e+01    3.328811e+00
  1.343489e+01    3.086890e+00
  1.345077e+01    3.027216e+00
  1.346664e+01    2.912390e+00
  1.348252e+01    2.814978e+00
  1.349839e+01    2.677127e+00
  1.351427e+01    2.598011e+00
  1.353015e+01    2.519001e+00
  1.354602e+01    2.522748e+00
  1.356190e+01    2.515337e+00
  1.357777e+01    2.473951e+00
  1.359365e+01    2.413321e+00
  1.360952e+01    2.382206e+00
  1.362540e+01    2.348159e+00
  1.364127e+01    2.313418e+00
  1.365715e+01    2.265312e+00
  1.367303e+01    2.292807e+00
  1.368890e+01    2.271948e+00
  1.370478e+01    2.240139e+00
  1.372065e+01    2.192855e+00
  1.373653e+01    2.195333e+00
  1.375240e+01    2.181217e+00
  1.376828e+01    2.201099e+00
  1.378415e+01    2.164295e+00
  1.380003e+01    2.156254e+00
  1.381591e+01    2.145053e+00
  1.383178e+01    2.127227e+00
  1.384766e+01    2.113791e+00
  1.386353e+01    2.102576e+00
  1.387941e+01    2.101608e+00
  1.389528e+01    2.099500e+00
  1.391116e+01    2.068822e+00
  1.392703e+01    2.096125e+00
  1.394291e+01    2.098058e+00
  1.395879e+01    2.021788e+00
  1.397466e+01    2.047164e+00
  1.399054e+01    2.054050e+00
  1.400641e+01    2.036875e+00
  1.402229e+01    1.995380e+00
  1.403816e+01    1.987134e+00
  1.405404e+01    2.040118e+00
  1.406991e+01    2.019621e+00
  1.408579e+01    1.986848e+00
  1.410167e+01    2.037228e+00
  1.411754e+01    2.014556e+00
  1.413342e+01    1.998513e+00
  1.414929e+01    1.979276e+00
  1.416517e+01    2.002471e+00
  1.418104e+01    1.971466e+00
  1.419692e+01    1.940167e+00
  1.421279e+01    1.972376e+00
  1.422867e+01    1.983885e+00
  1.424455e+01    1.963805e+00
  1.426042e+01    1.966004e+00
  1.427630e+01    1.981651e+00
  1.429217e+01    1.961218e+00
  1.430805e+01    1.933238e+00
  1.432392e+01    1.942738e+00
  1.433980e+01    1.929906e+00
  1.435568e+01    1.933231e+00
  1.437155e+01    1.939770e+00
  1.438743e+01    1.890456e+00
  1.440330e+01    1.912244e+00
  1.441918e+01    1.937685e+00
  1.443505e+01    1.912208e+00
  1.445093e+01    1.904318e+00
  1.446680e+01    1.890184e+00
  1.448268e+01    1.868610e+00
  1.449856e+01    1.866192e+00
  1.451443e+01    1.902428e+00
  1.453031e+01    1.962390e+00
  1.454618e+01    1.945327e+00
  1.456206e+01    1.912185e+00
  1.457793e+01    1.920972e+00
  1.459381e+01    1.937511e+00
  1.460968e+01    1.919830e+00
  1.462556e+01    1.884464e+00
  1.464144e+01    1.881305e+00
  1.465731e+01    1.919701e+00
  1.467319e+01    1.920641e+00
  1.468906e+01    1.908184e+00
  1.470494e+01    1.893439e+00
  1.472081e+01    1.877690e+00
  1.473669e+01    1.859044e+00
  1.475256e+01    1.913098e+00
  1.476844e+01    1.924425e+00
  1.478432e+01    1.909300e+00
  1.480019e+01    1.887080e+00
  1.481607e+01    1.884751e+00
  1.483194e+01    1.902035e+00
  1.484782e+01    1.904762e+00
  1.486369e+01    1.916973e+00
  1.487957e+01    1.934034e+00
  1.489544e+01    1.931953e+00
  1.491132e+01    1.952888e+00
  1.492720e+01    1.989253e+00
  1.494307e+01    1.992285e+00
  1.495895e+01    1.998074e+00
  1.497482e+01    2.053564e+00
  1.499070e+01    2.081551e+00
  1.500657e+01    2.107283e+00
  1.502245e+01    2.176210e+00
  1.503832e+01    2.270292e+00
  1.505420e+01    2.407515e+00
  1.507008e+01    2.495132e+00
  1.508595e+01    2.701303e+00
  1.510183e+01    2.846574e+00
  1.511770e+01    3.089272e+00
  1.513358e+01    3.445399e+00
  1.514945e+01    3.842490e+00
  1.516533e+01    4.147368e+00
  1.518120e+01    4.516439e+00
  1.519708e+01    4.886693e+00
  1.521296e+01    5.203826e+00
  1.522883e+01    5.435492e+00
  1.524471e+01    5.704052e+00
  1.526058e+01    5.879451e+00
  1.527646e+01    5.897632e+00
  1.529233e+01    5.705382e+00
  1.530821e+01    5.430755e+00
  1.532409e+01    4.943445e+00
  1.533996e+01    4.337438e+00
  1.535584e+01    3.889534e+00
  1.537171e+01    3.429259e+00
  1.538759e+01    3.098550e+00
  1.540346e+01    2.855796e+00
  1.541934e+01    2.636458e+00
  1.543521e+01    2.461449e+00
  1.545109e+01    2.358665e+00
  1.546697e+01    2.244616e+00
  1.548284e+01    2.161184e+00
  1.549872e+01    2.064425e+00
  1.551459e+01    2.031146e+00
  1.553047e+01    1.968618e+00
  1.554634e+01    1.921695e+00
  1.556222e+01    1.915934e+00
  1.557809e+01    1.840999e+00
  1.559397e+01    1.807099e+00
  1.560985e+01    1.800358e+00
  1.562572e+01    1.791998e+00
  1.564160e+01    1.786100e+00
  1.565747e+01    1.800674e+00
  1.567335e+01    1.750485e+00
  1.568922e+01    1.746714e+00
  1.570510e+01    1.705778e+00
  1.572097e+01    1.695669e+00
  1.573685e+01    1.696123e+00
  1.575273e+01    1.655905e+00
  1.576860e+01    1.685259e+00
  1.578448e+01    1.717111e+00
  1.580035e+01    1.670545e+00
  1.581623e+01    1.657905e+00
  1.583210e+01    1.652408e+00
  1.584798e+01    1.657983e+00
  1.586385e+01    1.658697e+00
  1.587973e+01    1.626923e+00
  1.589561e+01    1.624924e+00
  1.591148e+01    1.622136e+00
  1.592736e+01    1.643297e+00
  1.594323e+01    1.624240e+00
  1.595911e+01    1.579459e+00
  1.597498e+01    1.589924e+00
  1.599086e+01    1.586356e+00
  1.600673e+01    1.568816e+00
  1.602261e+01    1.618287e+00
  1.603849e+01    1.592502e+00
  1.605436e+01    1.586711e+00
  1.607024e+01    1.597752e+00
  1.608611e+01    1.597177e+00
  1.610199e+01    1.582117e+00
  1.611786e+01    1.566351e+00
  1.613374e+01    1.575521e+00
  1.614961e+01    1.557560e+00
  1.616549e+01    1.557423e+00
  1.618137e+01    1.592342e+00
  1.619724e+01    1.566918e+00
  1.621312e+01    1.577239e+00
  1.622899e+01    1.558141e+00
  1.624487e+01    1.532750e+00
  1.626074e+01    1.536898e+00
  1.627662e+01    1.539543e+00
  1.629250e+01    1.569295e+00
  1.630837e+01    1.543999e+00
  1.632425e+01    1.540396e+00
  1.634012e+01    1.535730e+00
  1.635600e+01    1.543836e+00
  1.637187e+01    1.565567e+00
  1.638775e+01    1.524755e+00
  1.640362e+01    1.492276e+00
  1.641950e+01    1.544284e+00
  1.643538e+01    1.518500e+00
  1.645125e+01    1.531472e+00
  1.646713e+01    1.512471e+00
  1.648300e+01    1.487403e+00
  1.649888e+01    1.491340e+00
  1.651475e+01    1.484283e+00
  1.653063e+01    1.486098e+00
  1.654650e+01    1.471140e+00
  1.656238e+01    1.432436e+00
  1.657826e+01    1.490559e+00
  1.659413e+01    1.525359e+00
  1.661001e+01    1.477431e+00
  1.662588e+01    1.473300e+00
  1.664176e+01    1.452370e+00
  1.665763e+01    1.482995e+00
  1.667351e+01    1.484013e+00
  1.668938e+01    1.478039e+00
  1.670526e+01    1.454473e+00
  1.672114e+01    1.452878e+00
  1.673701e+01    1.456345e+00
  1.675289e+01    1.463746e+00
  1.676876e+01    1.446722e+00
  1.678464e+01    1.454074e+00
  1.680051e+01    1.464812e+00
  1.681639e+01    1.457034e+00
  1.683226e+01    1.458895e+00
  1.684814e+01    1.423345e+00
  1.686402e+01    1.396435e+00
  1.687989e+01    1.442077e+00
  1.689577e+01    1.434029e+00
  1.691164e+01    1.442653e+00
  1.692752e+01    1.461269e+00
  1.694339e+01    1.437719e+00
  1.695927e+01    1.437491e+00
  1.697514e+01    1.438493e+00
  1.699102e+01    1.408580e+00
  1.700690e+01    1.420778e+00
  1.702277e+01    1.417737e+00
  1.703865e+01    1.413934e+00
  1.705452e+01    1.450473e+00
  1.707040e+01    1.443810e+00
  1.708627e+01    1.438143e+00
  1.710215e+01    1.415628e+00
  1.711802e+01    1.426265e+00
  1.713390e+01    1.423432e+00
  1.714978e+01    1.397492e+00
  1.716565e+01    1.369521e+00
  1.718153e+01    1.386259e+00
  1.719740e+01    1.418426e+00
  1.721328e+01    1.403271e+00
  1.722915e+01    1.375835e+00
  1.724503e+01    1.397210e+00
  1.726091e+01    1.376550e+00
  1.727678e+01    1.361375e+00
  1.729266e+01    1.364916e+00
  1.730853e+01    1.376798e+00
  1.732441e+01    1.362901e+00
  1.734028e+01    1.373223e+00
  1.735616e+01    1.357094e+00
  1.737203e+01    1.354060e+00
  1.738791e+01    1.365643e+00
  1.740379e+01    1.348457e+00
  1.741966e+01    1.335882e+00
  1.743554e+01    1.359087e+00
  1.745141e+01    1.355023e+00
  1.746729e+01    1.361383e+00
  1.748316e+01    1.358195e+00
  1.749904e+01    1.368712e+00
  1.751491e+01    1.367284e+00
  1.753079e+01    1.357936e+00
  1.754667e+01    1.352015e+00
  1.756254e+01    1.330766e+00
  1.757842e+01    1.355024e+00
  1.759429e+01    1.343188e+00
  1.761017e+01    1.329270e+00
  1.762604e+01    1.338771e+00
  1.764192e+01    1.334010e+00
  1.765779e+01    1.350725e+00
  1.767367e+01    1.342529e+00
  1.768955e+01    1.327265e+00
  1.770542e+01    1.347782e+00
  1.772130e+01    1.354601e+00
  1.773717e+01    1.320192e+00
  1.775305e+01    1.333472e+00
  1.776892e+01    1.341376e+00
  1.778480e+01    1.324273e+00
  1.780067e+01    1.286737e+00
  1.781655e+01    1.304954e+00
  1.783243e+01    1.285936e+00
  1.784830e+01    1.312237e+00
  1.786418e+01    1.300153e+00
  1.788005e+01    1.324716e+00
  1.789593e+01    1.318900e+00
  1.791180e+01    1.299642e+00
  1.792768e+01    1.285064e+00
  1.794355e+01    1.292169e+00
  1.795943e+01    1.272445e+00
  1.797531e+01    1.295459e+00
  1.799118e+01    1.284566e+00
  1.800706e+01    1.309099e+00
  1.802293e+01    1.293106e+00
  1.803881e+01    1.294243e+00
  1.805468e+01    1.300134e+00
  1.807056e+01    1.276881e+00
  1.808643e+01    1.303492e+00
  1.810231e+01    1.278704e+00
  1.811819e+01    1.294615e+00
  1.813406e+01    1.281860e+00
  1.814994e+01    1.277593e+00
  1.816581e+01    1.302320e+00
  1.818169e+01    1.275508e+00
  1.819756e+01    1.248239e+00
  1.821344e+01    1.274841e+00
  1.822932e+01    1.269584e+00
  1.824519e+01    1.245461e+00
  1.826107e+01    1.249836e+00
  1.827694e+01    1.257288e+00
  1.829282e+01    1.279491e+00
  1.830869e+01    1.273168e+00
  1.832457e+01    1.262591e+00
  1.834044e+01    1.238631e+00
  1.835632e+01    1.239867e+00
  1.837220e+01    1.244358e+00
  1.838807e+01    1.283699e+00
  1.840395e+01    1.269320e+00
  1.841982e+01    1.246628e+00
  1.843570e+01    1.234614e+00
  1.845157e+01    1.255283e+00
  1.846745e+01    1.251828e+00
  1.848332e+01    1.249585e+00
  1.849920e+01    1.237178e+00
  1.851508e+01    1.226009e+00
  1.853095e+01    1.240128e+00
  1.854683e+01    1.238801e+00
  1.856270e+01    1.228838e+00
  1.857858e+01    1.227549e+00
  1.859445e+01    1.233512e+00
  1.861033e+01    1.219331e+00
  1.862620e+01    1.238758e+00
  1.864208e+01    1.243395e+00
  1.865796e+01    1.208905e+00
  1.867383e+01    1.179894e+00
  1.868971e+01    1.213817e+00
  1.870558e+01    1.218759e+00
  1.872146e+01    1.213457e+00
  1.873733e+01    1.225860e+00
  1.875321e+01    1.205541e+00
  1.876908e+01    1.212545e+00
  1.878496e+01    1.230466e+00
  1.880084e+01    1.208933e+00
  1.881671e+01    1.177668e+00
  1.883259e+01    1.213976e+00
  1.884846e+01    1.236042e+00
  1.886434e+01    1.196182e+00
  1.888021e+01    1.180003e+00
  1.889609e+01    1.186894e+00
  1.891196e+01    1.183064e+00
  1.892784e+01    1.189087e+00
  1.894372e+01    1.182384e+00
  1.895959e+01    1.188120e+00
  1.897547e+01    1.203702e+00
  1.899134e+01    1.183953e+00
  1.900722e+01    1.179284e+00
  1.902309e+01    1.189139e+00
  1.903897e+01    1.184980e+00
  1.905484e+01    1.180146e+00
  1.907072e+01    1.196014e+00
  1.908660e+01    1.201009e+00
  1.910247e+01    1.205756e+00
  1.911835e+01    1.194056e+00
  1.913422e+01    1.150432e+00
  1.915010e+01    1.170341e+00
  1.916597e+01    1.182243e+00
  1.918185e+01    1.179970e+00
  1.919773e+01    1.183462e+00
  1.921360e+01    1.192665e+00
  1.922948e+01    1.180879e+00
  1.924535e+01    1.175835e+00
  1.926123e+01    1.185612e+00
  1.927710e+01    1.178604e+00
  1.929298e+01    1.178087e+00
  1.930885e+01    1.169476e+00
  1.932473e+01    1.154827e+00
  1.934061e+01    1.142543e+00
  1.935648e+01    1.149797e+00
  1.937236e+01    1.159721e+00
  1.938823e+01    1.143797e+00
  1.940411e+01    1.130759e+00
  1.941998e+01    1.147889e+00
  1.943586e+01    1.167294e+00
  1.945173e+01    1.169600e+00
  1.946761e+01    1.170318e+00
  1.948349e+01    1.156831e+00
  1.949936e+01    1.152834e+00
  1.951524e+01    1.144125e+00
  1.953111e+01    1.142858e+00
  1.954699e+01    1.156578e+00
  1.956286e+01    1.145829e+00
  1.957874e+01    1.160261e+00
  1.959461e+01    1.124316e+00
  1.961049e+01    1.138915e+00
  1.962637e+01    1.170604e+00
  1.964224e+01    1.145458e+00
  1.965812e+01    1.138313e+00
  1.967399e+01    1.155431e+00
  1.968987e+01    1.119485e+00
  1.970574e+01    1.138104e+00
  1.972162e+01    1.147039e+00
  1.973749e+01    1.154646e+00
  1.975337e+01    1.134823e+00
  1.976925e+01    1.131842e+00
  1.978512e+01    1.140522e+00
  1.980100e+01    1.136515e+00
  1.981687e+01    1.117657e+00
  1.983275e+01    1.101282e+00
  1.984862e+01    1.126564e+00
  1.986450e+01    1.129084e+00
  1.988037e+01    1.102299e+00
  1.989625e+01    1.111790e+00
  1.991213e+01    1.087310e+00
  1.992800e+01    1.116590e+00
  1.994388e+01    1.114114e+00
  1.995975e+01    1.105578e+00
  1.997563e+01    1.121688e+00
  1.999150e+01    1.108879e+00
  2.000738e+01    1.131551e+00
  2.002325e+01    1.104421e+00
  2.003913e+01    1.099241e+00
  2.005501e+01    1.113775e+00
  2.007088e+01    1.070278e+00
  2.008676e+01    1.091735e+00
  2.010263e+01    1.125353e+00
  2.011851e+01    1.100856e+00
  2.013438e+01    1.104905e+00
  2.015026e+01    1.105371e+00
  2.016614e+01    1.093156e+00
  2.018201e+01    1.094248e+00
  2.019789e+01    1.087735e+00
  2.021376e+01    1.103122e+00
  2.022964e+01    1.102532e+00
  2.024551e+01    1.079191e+00
  2.026139e+01    1.097704e+00
  2.027726e+01    1.083708e+00
  2.029314e+01    1.072906e+00
  2.030902e+01    1.090604e+00
  2.032489e+01    1.114499e+00
  2.034077e+01    1.101944e+00
  2.035664e+01    1.098737e+00
  2.037252e+01    1.066604e+00
  2.038839e+01    1.096293e+00
  2.040427e+01    1.091358e+00
  2.042014e+01    1.065635e+00
  2.043602e+01    1.084978e+00
  2.045190e+01    1.114457e+00
  2.046777e+01    1.097842e+00
  2.048365e+01    1.080316e+00
  2.049952e+01    1.085203e+00
  2.051540e+01    1.079579e+00
  2.053127e+01    1.081247e+00
  2.054715e+01    1.106421e+00
  2.056302e+01    1.100571e+00
  2.057890e+01    1.090893e+00
  2.059478e+01    1.109491e+00
  2.061065e+01    1.104009e+00
  2.062653e+01    1.095768e+00
  2.064240e+01    1.093509e+00
  2.065828e+01    1.097438e+00
  2.067415e+01    1.099664e+00
  2.069003e+01    1.069663e+00
  2.070590e+01    1.066634e+00
  2.072178e+01    1.082490e+00
  2.073766e+01    1.052851e+00
  2.075353e+01    1.061226e+00
  2.076941e+01    1.061786e+00
  2.078528e+01    1.054078e+00
  2.080116e+01    1.051744e+00
  2.081703e+01    1.062902e+00
  2.083291e+01    1.059716e+00
  2.084878e+01    1.067216e+00
  2.086466e+01    1.060616e+00
  2.088054e+01    1.075843e+00
  2.089641e+01    1.072411e+00
  2.091229e+01    1.062575e+00
  2.092816e+01    1.065856e+00
  2.094404e+01    1.089481e+00
  2.095991e+01    1.087515e+00
  2.097579e+01    1.085291e+00
  2.099166e+01    1.062305e+00
  2.100754e+01    1.064216e+00
  2.102342e+01    1.054019e+00
  2.103929e+01    1.071798e+00
  2.105517e+01    1.067114e+00
  2.107104e+01    1.084477e+00
  2.108692e+01    1.094090e+00
  2.110279e+01    1.086477e+00
  2.111867e+01    1.088144e+00
  2.113455e+01    1.083674e+00
  2.115042e+01    1.085024e+00
  2.116630e+01    1.089936e+00
  2.118217e+01    1.088805e+00
  2.119805e+01    1.100883e+00
  2.121392e+01    1.097604e+00
  2.122980e+01    1.098495e+00
  2.124567e+01    1.088003e+00
  2.126155e+01    1.130705e+00
  2.127743e+01    1.118569e+00
  2.129330e+01    1.110035e+00
  2.130918e+01    1.133085e+00
  2.132505e+01    1.114939e+00
  2.134093e+01    1.115484e+00
  2.135680e+01    1.129414e+00
  2.137268e+01    1.139553e+00
  2.138855e+01    1.174656e+00
  2.140443e+01    1.170659e+00
  2.142031e+01    1.182924e+00
  2.143618e+01    1.180553e+00
  2.145206e+01    1.203370e+00
  2.146793e+01    1.224904e+00
  2.148381e+01    1.244827e+00
  2.149968e+01    1.271830e+00
  2.151556e+01    1.287564e+00
  2.153143e+01    1.325483e+00
  2.154731e+01    1.373222e+00
  2.156319e+01    1.417109e+00
  2.157906e+01    1.455189e+00
  2.159494e+01    1.494101e+00
  2.161081e+01    1.585260e+00
  2.162669e+01    1.670400e+00
  2.164256e+01    1.779734e+00
  2.165844e+01    1.910246e+00
  2.167431e+01    2.077198e+00
  2.169019e+01    2.282767e+00
  2.170607e+01    2.535000e+00
  2.172194e+01    2.818562e+00
  2.173782e+01    3.143775e+00
  2.175369e+01    3.669376e+00
  2.176957e+01    4.194647e+00
  2.178544e+01    4.800273e+00
  2.180132e+01    5.415602e+00
  2.181719e+01    6.062834e+00
  2.183307e+01    6.800128e+00
  2.184895e+01    7.610988e+00
  2.186482e+01    8.290215e+00
  2.188070e+01    8.925576e+00
  2.189657e+01    9.381588e+00
  2.191245e+01    9.498196e+00
  2.192832e+01    9.203365e+00
  2.194420e+01    8.457477e+00
  2.196007e+01    7.527236e+00
  2.197595e+01    6.448548e+00
  2.199183e+01    5.527545e+00
  2.200770e+01    4.670422e+00
  2.202358e+01    4.003769e+00
  2.203945e+01    3.432296e+00
  2.205533e+01    3.030956e+00
  2.207120e+01    2.680372e+00
  2.208708e+01    2.384606e+00
  2.210296e+01    2.157919e+00
  2.211883e+01    2.002695e+00
  2.213471e+01    1.873375e+00
  2.215058e+01    1.752964e+00
  2.216646e+01    1.648298e+00
  2.218233e+01    1.529559e+00
  2.219821e+01    1.450125e+00
  2.221408e+01    1.413460e+00
  2.222996e+01    1.361146e+00
  2.224584e+01    1.329432e+00
  2.226171e+01    1.297132e+00
  2.227759e+01    1.217850e+00
  2.229346e+01    1.202159e+00
  2.230934e+01    1.192755e+00
  2.232521e+01    1.146179e+00
  2.234109e+01    1.140463e+00
  2.235696e+01    1.137080e+00
  2.237284e+01    1.107756e+00
  2.238872e+01    1.060618e+00
  2.240459e+01    1.062108e+00
  2.242047e+01    1.065956e+00
  2.243634e+01    1.043534e+00
  2.245222e+01    1.032139e+00
  2.246809e+01    1.034256e+00
  2.248397e+01    1.024585e+00
  2.249984e+01    1.046303e+00
  2.251572e+01    1.016877e+00
  2.253160e+01    1.019965e+00
  2.254747e+01    1.007168e+00
  2.256335e+01    9.986183e-01
  2.257922e+01    9.617869e-01
  2.259510e+01    9.564978e-01
  2.261097e+01    9.587166e-01
  2.262685e+01    9.600518e-01
  2.264272e+01    9.624121e-01
  2.265860e+01    9.747953e-01
  2.267448e+01    9.804811e-01
  2.269035e+01    9.378379e-01
  2.270623e+01    9.369664e-01
  2.272210e+01    9.592605e-01
  2.273798e+01    9.442425e-01
  2.275385e+01    9.349589e-01
  2.276973e+01    9.328303e-01
  2.278560e+01    9.510740e-01
  2.280148e+01    9.370788e-01
  2.281736e+01    9.481511e-01
  2.283323e+01    9.321967e-01
  2.284911e+01    9.096045e-01
  2.286498e+01    9.318078e-01
  2.288086e+01    9.255581e-01
  2.289673e+01    8.850976e-01
  2.291261e+01    8.869581e-01
  2.292848e+01    8.889430e-01
  2.294436e+01    8.933895e-01
  2.296024e+01    8.988352e-01
  2.297611e+01    9.003935e-01
  2.299199e+01    8.892500e-01
  2.300786e+01    8.936856e-01
  2.302374e+01    8.800287e-01
  2.303961e+01    8.731539e-01
  2.305549e+01    8.925666e-01
  2.307137e+01    9.072323e-01
  2.308724e+01    8.850371e-01
  2.310312e+01    8.792885e-01
  2.311899e+01    8.747036e-01
  2.313487e+01    8.868877e-01
  2.315074e+01    8.934366e-01
  2.316662e+01    9.067194e-01
  2.318249e+01    8.709668e-01
  2.319837e+01    8.710502e-01
  2.321425e+01    8.724813e-01
  2.323012e+01    8.563746e-01
  2.324600e+01    8.665076e-01
  2.326187e+01    8.542486e-01
  2.327775e+01    8.437609e-01
  2.329362e+01    8.605081e-01
  2.330950e+01    8.537120e-01
  2.332537e+01    8.550171e-01
  2.334125e+01    8.515756e-01
  2.335713e+01    8.507887e-01
  2.337300e+01    8.479398e-01
  2.338888e+01    8.339611e-01
  2.340475e+01    8.427621e-01
  2.342063e+01    8.475991e-01
  2.343650e+01    8.655337e-01
  2.345238e+01    8.414126e-01
  2.346825e+01    8.163151e-01
  2.348413e+01    8.359228e-01
  2.350001e+01    8.568878e-01
  2.351588e+01    8.524503e-01
  2.353176e+01    8.458613e-01
  2.354763e+01    8.285151e-01
  2.356351e+01    8.249035e-01
  2.357938e+01    8.201936e-01
  2.359526e+01    8.344436e-01
  2.361113e+01    8.320646e-01
  2.362701e+01    8.274491e-01
  2.364289e+01    8.393488e-01
  2.365876e+01    8.283667e-01
  2.367464e+01    8.335069e-01
  2.369051e+01    8.256897e-01
  2.370639e+01    8.313944e-01
  2.372226e+01    8.129418e-01
  2.373814e+01    7.975990e-01
  2.375401e+01    8.087594e-01
  2.376989e+01    8.172750e-01
  2.378577e+01    8.049460e-01
  2.380164e+01    8.054562e-01
  2.381752e+01    8.282810e-01
  2.383339e+01    7.986878e-01
  2.384927e+01    7.981020e-01
  2.386514e+01    8.111864e-01
  2.388102e+01    7.973464e-01
  2.389689e+01    7.907552e-01
  2.391277e+01    7.791730e-01
  2.392865e+01    7.675839e-01
  2.394452e+01    7.742524e-01
  2.396040e+01    7.909024e-01
  2.397627e+01    8.024813e-01
  2.399215e+01    8.027525e-01
  2.400802e+01    7.817448e-01
  2.402390e+01    7.710613e-01
  2.403978e+01    7.691695e-01
  2.405565e+01    7.729278e-01
  2.407153e+01    7.851785e-01
  2.408740e+01    7.840949e-01
  2.410328e+01    7.738171e-01
  2.411915e+01    7.807433e-01
  2.413503e+01    7.807908e-01
  2.415090e+01    7.814707e-01
  2.416678e+01    7.777916e-01
  2.418266e+01    7.820218e-01
  2.419853e+01    7.708920e-01
  2.421441e+01    7.732604e-01
  2.423028e+01    7.734157e-01
  2.424616e+01    7.622416e-01
  2.426203e+01    7.862012e-01
  2.427791e+01    7.798523e-01
  2.429378e+01    7.736009e-01
  2.430966e+01    7.878749e-01
  2.432554e+01    7.794710e-01
  2.434141e+01    7.579358e-01
  2.435729e+01    7.647281e-01
  2.437316e+01    7.847660e-01
  2.438904e+01    7.849995e-01
  2.440491e+01    7.740268e-01
  2.442079e+01    7.711616e-01
  2.443666e+01    7.762200e-01
  2.445254e+01    7.961579e-01
  2.446842e+01    7.943162e-01
  2.448429e+01    7.874550e-01
  2.450017e+01    7.780707e-01
  2.451604e+01    7.714213e-01
  2.453192e+01    7.899531e-01
  2.454779e+01    7.929283e-01
  2.456367e+01    8.010753e-01
  2.457954e+01    8.092038e-01
  2.459542e+01    7.831029e-01
  2.461130e+01    7.668418e-01
  2.462717e+01    7.926333e-01
  2.464305e+01    7.959477e-01
  2.465892e+01    7.944375e-01
  2.467480e+01    7.939202e-01
  2.469067e+01    7.855070e-01
  2.470655e+01    7.875366e-01
  2.472242e+01    7.970269e-01
  2.473830e+01    7.706410e-01
  2.475418e+01    7.907062e-01
  2.477005e+01    7.940551e-01
  2.478593e+01    7.905572e-01
  2.480180e+01    7.855281e-01
  2.481768e+01    7.980062e-01
  2.483355e+01    7.738832e-01
  2.484943e+01    7.870513e-01
  2.486530e+01    7.872307e-01
  2.488118e+01    7.819232e-01
  2.489706e+01    8.117822e-01
  2.491293e+01    8.097723e-01
  2.492881e+01    7.968634e-01
  2.494468e+01    7.983093e-01
  2.496056e+01    7.875240e-01
  2.497643e+01    8.000656e-01
  2.499231e+01    7.843962e-01
  2.500819e+01    7.883388e-01
  2.502406e+01    7.827201e-01
  2.503994e+01    7.843056e-01
  2.505581e+01    8.070062e-01
  2.507169e+01    8.177154e-01
  2.508756e+01    8.027784e-01
  2.510344e+01    7.865198e-01
  2.511931e+01    8.108371e-01
  2.513519e+01    8.270215e-01
  2.515107e+01    8.096239e-01
  2.516694e+01    8.132409e-01
  2.518282e+01    8.240032e-01
  2.519869e+01    8.365459e-01
  2.521457e+01    8.356807e-01
  2.523044e+01    8.336545e-01
  2.524632e+01    8.327150e-01
  2.526219e+01    8.492010e-01
  2.527807e+01    8.390193e-01
  2.529395e+01    8.571954e-01
  2.530982e+01    8.558226e-01
  2.532570e+01    8.649522e-01
  2.534157e+01    8.763069e-01
  2.535745e+01    9.003636e-01
  2.537332e+01    9.024804e-01
  2.538920e+01    9.104927e-01
  2.540507e+01    9.005882e-01
  2.542095e+01    9.253584e-01
  2.543683e+01    9.253834e-01
  2.545270e+01    9.189195e-01
  2.546858e+01    9.061685e-01
  2.548445e+01    9.232154e-01
  2.550033e+01    9.564848e-01
  2.551620e+01    9.852607e-01
  2.553208e+01    1.000083e+00
  2.554795e+01    1.003778e+00
  2.556383e+01    1.045708e+00
  2.557971e+01    1.049003e+00
  2.559558e+01    1.086486e+00
  2.561146e+01    1.139115e+00
  2.562733e+01    1.189922e+00
  2.564321e+01    1.213905e+00
  2.565908e+01    1.277955e+00
  2.567496e+01    1.334707e+00
  2.569083e+01    1.399854e+00
  2.570671e+01    1.487600e+00
  2.572259e+01    1.591853e+00
  2.573846e+01    1.688824e+00
  2.575434e+01    1.845222e+00
  2.577021e+01    2.038547e+00
  2.578609e+01    2.258034e+00
  2.580196e+01    2.542177e+00
  2.581784e+01    2.911539e+00
  2.583371e+01    3.331698e+00
  2.584959e+01    3.806273e+00
  2.586547e+01    4.338032e+00
  2.588134e+01    4.976495e+00
  2.589722e+01    5.635986e+00
  2.591309e+01    6.295153e+00
  2.592897e+01    6.846608e+00
  2.594484e+01    7.383393e+00
  2.596072e+01    7.699487e+00
  2.597660e+01    7.763678e+00
  2.599247e+01    7.558191e+00
  2.600835e+01    7.044222e+00
  2.602422e+01    6.363440e+00
  2.604010e+01    5.572602e+00
  2.605597e+01    4.802534e+00
  2.607185e+01    4.102807e+00
  2.608772e+01    3.466826e+00
  2.610360e+01    3.017143e+00
  2.611948e+01    2.648654e+00
  2.613535e+01    2.355763e+00
  2.615123e+01    2.116410e+00
  2.616710e+01    1.927150e+00
  2.618298e+01    1.748973e+00
  2.619885e+01    1.606966e+00
  2.621473e+01    1.510357e+00
  2.623060e+01    1.416898e+00
  2.624648e+01    1.352890e+00
  2.626236e+01    1.281025e+00
  2.627823e+01    1.238986e+00
  2.629411e+01    1.193917e+00
  2.630998e+01    1.113734e+00
  2.632586e+01    1.096702e+00
  2.634173e+01    1.070105e+00
  2.635761e+01    1.044678e+00
  2.637348e+01    1.022030e+00
  2.638936e+01    1.010128e+00
  2.640524e+01    9.969367e-01
  2.642111e+01    9.800697e-01
  2.643699e+01    9.599569e-01
  2.645286e+01    9.552954e-01
  2.646874e+01    9.478957e-01
  2.648461e+01    9.352882e-01
  2.650049e+01    9.504201e-01
  2.651636e+01    9.401988e-01
  2.653224e+01    9.273373e-01
  2.654812e+01    9.265890e-01
  2.656399e+01    9.188536e-01
  2.657987e+01    9.099838e-01
  2.659574e+01    9.055763e-01
  2.661162e+01    9.198340e-01
  2.662749e+01    9.011407e-01
  2.664337e+01    8.978533e-01
  2.665924e+01    8.836620e-01
  2.667512e+01    8.783404e-01
  2.669100e+01    9.067328e-01
  2.670687e+01    9.025202e-01
  2.672275e+01    8.903413e-01
  2.673862e+01    8.611945e-01
  2.675450e+01    8.744885e-01
  2.677037e+01    8.788898e-01
  2.678625e+01    8.998249e-01
  2.680212e+01    8.852353e-01
  2.681800e+01    8.870618e-01
  2.683388e+01    8.881562e-01
  2.684975e+01    8.977247e-01
  2.686563e+01    8.886480e-01
  2.688150e+01    8.984580e-01
  2.689738e+01    9.199409e-01
  2.691325e+01    9.112478e-01
  2.692913e+01    9.223664e-01
  2.694501e+01    9.623854e-01
  2.696088e+01    9.664692e-01
  2.697676e+01    9.648050e-01
  2.699263e+01    9.798902e-01
  2.700851e+01    1.020131e+00
  2.702438e+01    1.061716e+00
  2.704026e+01    1.096523e+00
  2.705613e+01    1.142232e+00
  2.707201e+01    1.210455e+00
  2.708789e+01    1.314997e+00
  2.710376e+01    1.392663e+00
  2.711964e+01    1.466867e+00
  2.713551e+01    1.590194e+00
  2.715139e+01    1.744611e+00
  2.716726e+01    1.882190e+00
  2.718314e+01    2.041499e+00
  2.719901e+01    2.169616e+00
  2.721489e+01    2.287048e+00
  2.723077e+01    2.320443e+00
  2.724664e+01    2.271848e+00
  2.726252e+01    2.191213e+00
  2.727839e+01    2.095781e+00
  2.729427e+01    1.907885e+00
  2.731014e+01    1.679673e+00
  2.732602e+01    1.528736e+00
  2.734189e+01    1.422366e+00
  2.735777e+01    1.319624e+00
  2.737365e+01    1.230983e+00
  2.738952e+01    1.165888e+00
  2.740540e+01    1.092188e+00
  2.742127e+01    1.066589e+00
  2.743715e+01    1.028965e+00
  2.745302e+01    1.008809e+00
  2.746890e+01    9.868997e-01
  2.748477e+01    9.586545e-01
  2.750065e+01    9.608870e-01
  2.751653e+01    9.168710e-01
  2.753240e+01    8.999990e-01
  2.754828e+01    8.850341e-01
  2.756415e+01    8.709372e-01
  2.758003e+01    8.691016e-01
  2.759590e+01    8.617589e-01
  2.761178e+01    8.541934e-01
  2.762765e+01    8.581888e-01
  2.764353e+01    8.372157e-01
  2.765941e+01    8.428892e-01
  2.767528e+01    8.312033e-01
  2.769116e+01    8.104363e-01
  2.770703e+01    8.140103e-01
  2.772291e+01    8.217950e-01
  2.773878e+01    8.118003e-01
  2.775466e+01    8.297370e-01
  2.777054e+01    8.373012e-01
  2.778641e+01    8.366139e-01
  2.780229e+01    8.056836e-01
  2.781816e+01    8.157014e-01
  2.783404e+01    8.204767e-01
  2.784991e+01    7.876710e-01
  2.786579e+01    8.060537e-01
  2.788166e+01    8.008457e-01
  2.789754e+01    7.863055e-01
  2.791342e+01    7.870243e-01
  2.792929e+01    7.767423e-01
  2.794517e+01    7.796588e-01
  2.796104e+01    7.962431e-01
  2.797692e+01    7.942672e-01
  2.799279e+01    7.855938e-01
  2.800867e+01    7.710601e-01
  2.802454e+01    7.688152e-01
  2.804042e+01    7.939966e-01
  2.805630e+01    7.994649e-01
  2.807217e+01    7.802255e-01
  2.808805e+01    7.709321e-01
  2.810392e+01    7.732057e-01
  2.811980e+01    7.731600e-01
  2.813567e+01    7.702282e-01
  2.815155e+01    7.653531e-01
  2.816742e+01    7.516290e-01
  2.818330e+01    7.810006e-01
  2.819918e+01    7.675802e-01
  2.821505e+01    7.575670e-01
  2.823093e+01    7.705698e-01
  2.824680e+01    7.700626e-01
  2.826268e+01    7.550811e-01
  2.827855e+01    7.681258e-01
  2.829443e+01    7.527153e-01
  2.831030e+01    7.706572e-01
  2.832618e+01    7.532722e-01
  2.834206e+01    7.867604e-01
  2.835793e+01    7.679112e-01
  2.837381e+01    7.611716e-01
  2.838968e+01    7.616404e-01
  2.840556e+01    7.385854e-01
  2.842143e+01    7.468721e-01
  2.843731e+01    7.316502e-01
  2.845318e+01    7.592703e-01
  2.846906e+01    7.473065e-01
  2.848494e+01    7.640373e-01
  2.850081e+01    7.686923e-01
  2.851669e+01    7.598454e-01
  2.853256e+01    7.448211e-01
  2.854844e+01    7.615155e-01
  2.856431e+01    7.810654e-01
  2.858019e+01    7.809932e-01
  2.859606e+01    7.586846e-01
  2.861194e+01    7.401035e-01
  2.862782e+01    7.388349e-01
  2.864369e+01    7.647494e-01
  2.865957e+01    7.558689e-01
  2.867544e+01    7.379452e-01
  2.869132e+01    7.361031e-01
  2.870719e+01    7.497973e-01
  2.872307e+01    7.455360e-01
  2.873895e+01    7.425624e-01
  2.875482e+01    7.696884e-01
  2.877070e+01    7.545483e-01
  2.878657e+01    7.404760e-01
  2.880245e+01    7.344109e-01
  2.881832e+01    7.284905e-01
  2.883420e+01    7.414235e-01
  2.885007e+01    7.278942e-01
  2.886595e+01    7.262938e-01
  2.888183e+01    7.287230e-01
  2.889770e+01    7.480165e-01
  2.891358e+01    7.390730e-01
  2.892945e+01    7.378441e-01
  2.894533e+01    7.531553e-01
  2.896120e+01    7.380327e-01
  2.897708e+01    7.501100e-01
  2.899295e+01    7.440442e-01
  2.900883e+01    7.224428e-01
  2.902471e+01    7.406051e-01
  2.904058e+01    7.261980e-01
  2.905646e+01    7.440102e-01
  2.907233e+01    7.461083e-01
  2.908821e+01    7.376814e-01
  2.910408e+01    7.425146e-01
  2.911996e+01    7.251607e-01
  2.913583e+01    7.311467e-01
  2.915171e+01    7.419444e-01
  2.916759e+01    7.358158e-01
  2.918346e+01    7.352573e-01
  2.919934e+01    7.351755e-01
  2.921521e+01    7.376009e-01
  2.923109e+01    7.252941e-01
  2.924696e+01    7.270705e-01
  2.926284e+01    7.256445e-01
  2.927871e+01    7.178436e-01
  2.929459e+01    7.081380e-01
  2.931047e+01    7.370625e-01
  2.932634e+01    7.263517e-01
  2.934222e+01    7.244445e-01
  2.935809e+01    7.232844e-01
  2.937397e+01    7.194520e-01
  2.938984e+01    7.166430e-01
  2.940572e+01    7.114529e-01
  2.942159e+01    7.135341e-01
  2.943747e+01    7.132224e-01
  2.945335e+01    7.187152e-01
  2.946922e+01    7.086388e-01
  2.948510e+01    7.356195e-01
  2.950097e+01    7.197980e-01
  2.951685e+01    7.187859e-01
  2.953272e+01    7.208131e-01
  2.954860e+01    7.023821e-01
  2.956447e+01    7.032412e-01
  2.958035e+01    7.113777e-01
  2.959623e+01    7.061819e-01
  2.961210e+01    7.217244e-01
  2.962798e+01    7.247867e-01
  2.964385e+01    7.172913e-01
  2.965973e+01    7.176124e-01
  2.967560e+01    7.289959e-01
  2.969148e+01    7.343324e-01
  2.970736e+01    7.274614e-01
  2.972323e+01    7.338751e-01
  2.973911e+01    6.976820e-01
  2.975498e+01    7.189754e-01
  2.977086e+01    7.207730e-01
  2.978673e+01    7.182088e-01
  2.980261e+01    7.133089e-01
  2.981848e+01    7.308726e-01
  2.983436e+01    7.271080e-01
  2.985024e+01    7.066353e-01
  2.986611e+01    7.078131e-01
  2.988199e+01    7.126136e-01
  2.989786e+01    7.079142e-01
  2.991374e+01    7.077349e-01
  2.992961e+01    7.077394e-01
  2.994549e+01    7.335486e-01
  2.996136e+01    7.248317e-01
  2.997724e+01    7.390373e-01
  2.999312e+01    7.367522e-01
  3.000899e+01    7.240742e-01
  3.002487e+01    7.101237e-01
  3.004074e+01    7.291397e-01
  3.005662e+01    7.348093e-01
  3.007249e+01    7.231339e-01
  3.008837e+01    7.165086e-01
  3.010424e+01    7.261895e-01
  3.012012e+01    7.179947e-01
  3.013600e+01    7.084743e-01
  3.015187e+01    7.123218e-01
  3.016775e+01    7.011137e-01
  3.018362e+01    6.992438e-01
  3.019950e+01    7.084385e-01
  3.021537e+01    6.951877e-01
  3.023125e+01    7.108530e-01
  3.024712e+01    7.284769e-01
  3.026300e+01    7.263088e-01
  3.027888e+01    6.984772e-01
  3.029475e+01    7.045220e-01
  3.031063e+01    7.211363e-01
  3.032650e+01    6.949793e-01
  3.034238e+01    7.060025e-01
  3.035825e+01    7.061285e-01
  3.037413e+01    7.015826e-01
  3.039000e+01    7.079611e-01
  3.040588e+01    6.991954e-01
  3.042176e+01    7.037436e-01
  3.043763e+01    7.065740e-01
  3.045351e+01    7.035747e-01
  3.046938e+01    6.896712e-01
  3.048526e+01    7.054359e-01
  3.050113e+01    7.007652e-01
  3.051701e+01    7.061054e-01
  3.053288e+01    7.051687e-01
  3.054876e+01    7.173376e-01
  3.056464e+01    7.079620e-01
  3.058051e+01    6.887804e-01
  3.059639e+01    6.823652e-01
  3.061226e+01    6.899396e-01
  3.062814e+01    7.104658e-01
  3.064401e+01    7.229236e-01
  3.065989e+01    6.876289e-01
  3.067577e+01    6.992231e-01
  3.069164e+01    6.890013e-01
  3.070752e+01    7.105221e-01
  3.072339e+01    7.111207e-01
  3.073927e+01    7.050713e-01
  3.075514e+01    7.009922e-01
  3.077102e+01    6.886467e-01
  3.078689e+01    7.061573e-01
  3.080277e+01    7.012219e-01
  3.081865e+01    6.826131e-01
  3.083452e+01    7.069296e-01
  3.085040e+01    7.023149e-01
  3.086627e+01    7.242333e-01
  3.088215e+01    7.003550e-01
  3.089802e+01    7.221457e-01
  3.091390e+01    7.163335e-01
  3.092977e+01    6.949868e-01
  3.094565e+01    7.246479e-01
  3.096153e+01    7.149554e-01
  3.097740e+01    7.177544e-01
  3.099328e+01    7.063454e-01
  3.100915e+01    6.985391e-01
  3.102503e+01    6.929097e-01
  3.104090e+01    6.940615e-01
  3.105678e+01    7.161405e-01
  3.107265e+01    7.120982e-01
  3.108853e+01    7.016845e-01
  3.110441e+01    7.339652e-01
  3.112028e+01    7.210356e-01
  3.113616e+01    7.297678e-01
  3.115203e+01    7.438975e-01
  3.116791e+01    7.379116e-01
  3.118378e+01    7.134337e-01
  3.119966e+01    7.215531e-01
  3.121553e+01    7.084481e-01
  3.123141e+01    7.074214e-01
  3.124729e+01    7.120133e-01
  3.126316e+01    7.116766e-01
  3.127904e+01    7.207723e-01
  3.129491e+01    7.476567e-01
  3.131079e+01    7.341107e-01
  3.132666e+01    7.402709e-01
  3.134254e+01    7.284172e-01
  3.135841e+01    7.288243e-01
  3.137429e+01    7.264094e-01
  3.139017e+01    7.398237e-01
  3.140604e+01    7.139301e-01
  3.142192e+01    7.453226e-01
  3.143779e+01    7.722445e-01
  3.145367e+01    7.738919e-01
  3.146954e+01    7.776959e-01
  3.148542e+01    7.662870e-01
  3.150129e+01    7.641506e-01
  3.151717e+01    7.515770e-01
  3.153305e+01    7.738491e-01
  3.154892e+01    7.763550e-01
  3.156480e+01    7.914692e-01
  3.158067e+01    8.080235e-01
  3.159655e+01    8.112472e-01
  3.161242e+01    8.254092e-01
  3.162830e+01    8.286380e-01
  3.164418e+01    8.406262e-01
  3.166005e+01    8.588453e-01
  3.167593e+01    8.864272e-01
  3.169180e+01    9.099742e-01
  3.170768e+01    9.528399e-01
  3.172355e+01    9.850291e-01
  3.173943e+01    1.005605e+00
  3.175530e+01    1.090038e+00
  3.177118e+01    1.150139e+00
  3.178706e+01    1.239148e+00
  3.180293e+01    1.375544e+00
  3.181881e+01    1.518313e+00
  3.183468e+01    1.631809e+00
  3.185056e+01    1.762089e+00
  3.186643e+01    1.923995e+00
  3.188231e+01    2.080369e+00
  3.189818e+01    2.184687e+00
  3.191406e+01    2.256553e+00
  3.192994e+01    2.272183e+00
  3.194581e+01    2.215140e+00
  3.196169e+01    2.083468e+00
  3.197756e+01    1.928522e+00
  3.199344e+01    1.767077e+00
  3.200931e+01    1.584497e+00
  3.202519e+01    1.451872e+00
  3.204106e+01    1.322398e+00
  3.205694e+01    1.222589e+00
  3.207282e+01    1.144889e+00
  3.208869e+01    1.033240e+00
  3.210457e+01    1.000482e+00
  3.212044e+01    9.502550e-01
  3.213632e+01    9.169965e-01
  3.215219e+01    9.062843e-01
  3.216807e+01    8.802639e-01
  3.218394e+01    8.678097e-01
  3.219982e+01    8.387854e-01
  3.221570e+01    8.248749e-01
  3.223157e+01    7.869421e-01
  3.224745e+01    7.732404e-01
  3.226332e+01    7.775286e-01
  3.227920e+01    7.846509e-01
  3.229507e+01    7.698257e-01
  3.231095e+01    7.729945e-01
  3.232682e+01    7.687140e-01
  3.234270e+01    7.767943e-01
  3.235858e+01    7.695028e-01
  3.237445e+01    7.302855e-01
  3.239033e+01    7.511261e-01
  3.240620e+01    7.527190e-01
  3.242208e+01    7.362056e-01
  3.243795e+01    7.273558e-01
  3.245383e+01    7.256073e-01
  3.246970e+01    7.428396e-01
  3.248558e+01    7.079736e-01
  3.250146e+01    7.062781e-01
  3.251733e+01    6.989919e-01
  3.253321e+01    7.082626e-01
  3.254908e+01    7.351834e-01
