# == pyFAI calibration ==
# Distance Sample to Detector: 0.3999999939076516 m
# PONI: 9.750e-02, 1.135e-01 m
# Rotations: -0.000175 0.000000 -0.000000 rad
# 
# == Fit2d calibration ==
# Distance Sample-beamCenter: 400.000 mm
# Center: x=1514.000, y=1300.000 pix
# Tilt: 0.010 deg  TiltPlanRot: 0.010 deg
# 
# Detector Detector	 Spline= None	 PixelSize= 7.500e-05, 7.500e-05 m
#    Detector has a mask: False 
#    Detector has a dark current: False 
#    detector has a flat field: False 
# 
# Wavelength: 6.888e-11 m
# Mask applied: user provided
# Dark current applied: False
# Flat field applied: False
# Polarization factor: 0.99
# Normalization factor: 1.0
# --> /home/myspot/data/2024_07_Rosario/Ru-CGO-ex/2024-07-27_002_Ru-CGO-ex_Activtation_ramp_000002_data_000176.dat
#       q_nm^-1             I 
  2.003187e-02    0.000000e+00
  3.590745e-02    3.427850e-02
  5.178302e-02    1.902766e-01
  6.765859e-02    1.481709e-01
  8.353417e-02    2.528161e-02
  9.940974e-02    3.674974e-02
  1.152853e-01    1.041835e-02
  1.311609e-01    3.712414e-02
  1.470365e-01    3.046184e-02
  1.629120e-01    4.151991e-02
  1.787876e-01    1.017733e-01
  1.946632e-01    5.474582e-02
  2.105388e-01    4.948165e-02
  2.264143e-01    1.168615e-03
  2.422899e-01    1.294252e-02
  2.581655e-01    1.005918e-02
  2.740411e-01    1.670472e-02
  2.899166e-01    2.851589e-02
  3.057922e-01    2.042062e-02
  3.216678e-01    3.846611e-02
  3.375433e-01    5.131491e-02
  3.534189e-01    1.798678e-02
  3.692945e-01    3.300054e-02
  3.851701e-01    1.707368e-02
  4.010456e-01    1.210974e-02
  4.169212e-01    2.247049e-02
  4.327968e-01    1.764460e-02
  4.486724e-01    2.793514e-02
  4.645479e-01    5.575437e-02
  4.804235e-01    8.008177e-02
  4.962991e-01    4.424684e-02
  5.121747e-01    2.294230e-02
  5.280502e-01    5.382597e-02
  5.439258e-01    6.722737e-02
  5.598014e-01    2.868986e-02
  5.756770e-01    3.016182e-02
  5.915525e-01    2.466069e-02
  6.074281e-01    1.722462e-02
  6.233037e-01    8.418414e-03
  6.391793e-01    1.036603e-02
  6.550548e-01    3.123464e-02
  6.709304e-01    2.577176e-02
  6.868060e-01    2.409365e-02
  7.026815e-01    3.675478e-02
  7.185571e-01    5.326478e-02
  7.344327e-01    4.348466e-02
  7.503083e-01    7.088135e-02
  7.661838e-01    9.816317e-02
  7.820594e-01    1.203440e-01
  7.979350e-01    1.572224e-01
  8.138106e-01    1.815284e-01
  8.296861e-01    2.489836e-01
  8.455617e-01    3.242828e-01
  8.614373e-01    4.615768e-01
  8.773129e-01    4.938228e-01
  8.931884e-01    5.475588e-01
  9.090640e-01    5.542239e-01
  9.249396e-01    5.640361e-01
  9.408152e-01    6.900820e-01
  9.566907e-01    8.583511e-01
  9.725663e-01    9.441797e-01
  9.884419e-01    9.689211e-01
  1.004317e+00    9.246632e-01
  1.020193e+00    1.145431e+00
  1.036069e+00    1.241402e+00
  1.051944e+00    1.260514e+00
  1.067820e+00    1.285569e+00
  1.083695e+00    1.429858e+00
  1.099571e+00    1.321455e+00
  1.115446e+00    1.357992e+00
  1.131322e+00    1.370866e+00
  1.147198e+00    1.424743e+00
  1.163073e+00    1.503819e+00
  1.178949e+00    1.488013e+00
  1.194824e+00    1.540034e+00
  1.210700e+00    1.710555e+00
  1.226575e+00    1.981202e+00
  1.242451e+00    2.203446e+00
  1.258327e+00    2.215080e+00
  1.274202e+00    2.293756e+00
  1.290078e+00    2.412237e+00
  1.305953e+00    2.442494e+00
  1.321829e+00    2.459850e+00
  1.337705e+00    2.570372e+00
  1.353580e+00    2.633593e+00
  1.369456e+00    2.496836e+00
  1.385331e+00    2.523746e+00
  1.401207e+00    2.599797e+00
  1.417082e+00    2.563062e+00
  1.432958e+00    2.563373e+00
  1.448834e+00    2.663268e+00
  1.464709e+00    2.651068e+00
  1.480585e+00    2.708217e+00
  1.496460e+00    2.847590e+00
  1.512336e+00    2.879360e+00
  1.528211e+00    2.874547e+00
  1.544087e+00    2.967991e+00
  1.559963e+00    2.924362e+00
  1.575838e+00    2.835847e+00
  1.591714e+00    2.842144e+00
  1.607589e+00    2.880237e+00
  1.623465e+00    2.810295e+00
  1.639340e+00    2.766488e+00
  1.655216e+00    2.756194e+00
  1.671092e+00    2.873911e+00
  1.686967e+00    2.640125e+00
  1.702843e+00    2.693142e+00
  1.718718e+00    2.815364e+00
  1.734594e+00    2.700008e+00
  1.750469e+00    2.667159e+00
  1.766345e+00    2.742229e+00
  1.782221e+00    2.684602e+00
  1.798096e+00    2.715129e+00
  1.813972e+00    2.627510e+00
  1.829847e+00    2.657135e+00
  1.845723e+00    2.692549e+00
  1.861598e+00    2.666508e+00
  1.877474e+00    2.657687e+00
  1.893350e+00    2.711541e+00
  1.909225e+00    2.802185e+00
  1.925101e+00    2.682601e+00
  1.940976e+00    2.643988e+00
  1.956852e+00    2.672174e+00
  1.972727e+00    2.710385e+00
  1.988603e+00    2.733538e+00
  2.004479e+00    2.674782e+00
  2.020354e+00    2.744116e+00
  2.036230e+00    2.717868e+00
  2.052105e+00    2.656660e+00
  2.067981e+00    2.675419e+00
  2.083856e+00    2.537950e+00
  2.099732e+00    2.580576e+00
  2.115608e+00    2.701827e+00
  2.131483e+00    2.726657e+00
  2.147359e+00    2.660705e+00
  2.163234e+00    2.749910e+00
  2.179110e+00    2.711477e+00
  2.194985e+00    2.773908e+00
  2.210861e+00    2.723593e+00
  2.226737e+00    2.742548e+00
  2.242612e+00    2.791536e+00
  2.258488e+00    2.687047e+00
  2.274363e+00    2.726333e+00
  2.290239e+00    2.781739e+00
  2.306115e+00    2.672419e+00
  2.321990e+00    2.657009e+00
  2.337866e+00    2.672270e+00
  2.353741e+00    2.693418e+00
  2.369617e+00    2.727799e+00
  2.385492e+00    2.665689e+00
  2.401368e+00    2.725734e+00
  2.417244e+00    2.709265e+00
  2.433119e+00    2.790538e+00
  2.448995e+00    2.844299e+00
  2.464870e+00    2.796144e+00
  2.480746e+00    2.782117e+00
  2.496621e+00    2.881029e+00
  2.512497e+00    2.741184e+00
  2.528373e+00    2.860317e+00
  2.544248e+00    2.813615e+00
  2.560124e+00    2.694562e+00
  2.575999e+00    2.737487e+00
  2.591875e+00    2.771303e+00
  2.607750e+00    2.773064e+00
  2.623626e+00    2.708745e+00
  2.639502e+00    2.734415e+00
  2.655377e+00    2.765043e+00
  2.671253e+00    2.799565e+00
  2.687128e+00    2.762908e+00
  2.703004e+00    2.812723e+00
  2.718879e+00    2.834896e+00
  2.734755e+00    2.819473e+00
  2.750631e+00    2.895782e+00
  2.766506e+00    2.895423e+00
  2.782382e+00    2.857945e+00
  2.798257e+00    2.768613e+00
  2.814133e+00    2.879692e+00
  2.830008e+00    2.912478e+00
  2.845884e+00    2.878028e+00
  2.861760e+00    2.903823e+00
  2.877635e+00    2.864640e+00
  2.893511e+00    2.883428e+00
  2.909386e+00    2.948154e+00
  2.925262e+00    2.903762e+00
  2.941137e+00    2.855943e+00
  2.957013e+00    2.844666e+00
  2.972889e+00    2.851659e+00
  2.988764e+00    2.758042e+00
  3.004640e+00    2.754148e+00
  3.020515e+00    2.839343e+00
  3.036391e+00    2.792471e+00
  3.052266e+00    2.829534e+00
  3.068142e+00    2.948538e+00
  3.084018e+00    2.956423e+00
  3.099893e+00    2.935361e+00
  3.115769e+00    2.888230e+00
  3.131644e+00    2.879291e+00
  3.147520e+00    2.945856e+00
  3.163395e+00    2.945558e+00
  3.179271e+00    2.864399e+00
  3.195147e+00    2.868536e+00
  3.211022e+00    2.865316e+00
  3.226898e+00    2.924039e+00
  3.242773e+00    2.887642e+00
  3.258649e+00    2.794819e+00
  3.274525e+00    2.833324e+00
  3.290400e+00    2.941697e+00
  3.306276e+00    2.973956e+00
  3.322151e+00    2.917042e+00
  3.338027e+00    2.999509e+00
  3.353902e+00    3.011006e+00
  3.369778e+00    3.040870e+00
  3.385654e+00    2.967968e+00
  3.401529e+00    2.959531e+00
  3.417405e+00    2.990949e+00
  3.433280e+00    2.929121e+00
  3.449156e+00    2.966475e+00
  3.465031e+00    2.917609e+00
  3.480907e+00    2.871513e+00
  3.496783e+00    2.987876e+00
  3.512658e+00    2.961539e+00
  3.528534e+00    2.933309e+00
  3.544409e+00    2.928002e+00
  3.560285e+00    3.021166e+00
  3.576160e+00    2.983424e+00
  3.592036e+00    3.008104e+00
  3.607912e+00    2.959911e+00
  3.623787e+00    2.985602e+00
  3.639663e+00    2.952035e+00
  3.655538e+00    2.956502e+00
  3.671414e+00    3.073410e+00
  3.687289e+00    3.011034e+00
  3.703165e+00    2.996141e+00
  3.719041e+00    3.022789e+00
  3.734916e+00    3.049478e+00
  3.750792e+00    3.073776e+00
  3.766667e+00    3.018636e+00
  3.782543e+00    3.020798e+00
  3.798418e+00    2.986760e+00
  3.814294e+00    2.972177e+00
  3.830170e+00    2.993490e+00
  3.846045e+00    3.010855e+00
  3.861921e+00    3.058574e+00
  3.877796e+00    3.067316e+00
  3.893672e+00    3.003076e+00
  3.909547e+00    3.023724e+00
  3.925423e+00    3.059744e+00
  3.941299e+00    3.064625e+00
  3.957174e+00    2.984316e+00
  3.973050e+00    3.049484e+00
  3.988925e+00    3.047226e+00
  4.004801e+00    3.017611e+00
  4.020676e+00    3.002462e+00
  4.036552e+00    2.915273e+00
  4.052428e+00    2.902844e+00
  4.068303e+00    2.990268e+00
  4.084179e+00    2.994452e+00
  4.100054e+00    2.991085e+00
  4.115930e+00    3.037428e+00
  4.131806e+00    3.073596e+00
  4.147681e+00    2.967324e+00
  4.163557e+00    2.922401e+00
  4.179432e+00    3.019915e+00
  4.195308e+00    3.054976e+00
  4.211183e+00    3.061846e+00
  4.227059e+00    3.083258e+00
  4.242935e+00    3.055700e+00
  4.258810e+00    3.044567e+00
  4.274686e+00    3.025347e+00
  4.290561e+00    3.063482e+00
  4.306437e+00    3.036177e+00
  4.322312e+00    3.072917e+00
  4.338188e+00    3.068394e+00
  4.354064e+00    3.064998e+00
  4.369939e+00    3.140662e+00
  4.385815e+00    3.111249e+00
  4.401690e+00    3.020298e+00
  4.417566e+00    3.064743e+00
  4.433441e+00    3.052781e+00
  4.449317e+00    2.993024e+00
  4.465193e+00    2.997803e+00
  4.481068e+00    3.019788e+00
  4.496944e+00    3.048595e+00
  4.512819e+00    3.040136e+00
  4.528695e+00    3.051040e+00
  4.544570e+00    3.068225e+00
  4.560446e+00    3.110668e+00
  4.576322e+00    3.186031e+00
  4.592197e+00    3.065231e+00
  4.608073e+00    3.038297e+00
  4.623948e+00    3.091595e+00
  4.639824e+00    3.070204e+00
  4.655699e+00    3.063998e+00
  4.671575e+00    3.099200e+00
  4.687451e+00    3.144516e+00
  4.703326e+00    3.130997e+00
  4.719202e+00    3.109386e+00
  4.735077e+00    3.265501e+00
  4.750953e+00    3.165115e+00
  4.766828e+00    3.153462e+00
  4.782704e+00    3.069182e+00
  4.798580e+00    3.096846e+00
  4.814455e+00    3.198223e+00
  4.830331e+00    3.236793e+00
  4.846206e+00    3.232245e+00
  4.862082e+00    3.138306e+00
  4.877957e+00    3.136300e+00
  4.893833e+00    3.142651e+00
  4.909709e+00    3.102052e+00
  4.925584e+00    3.158144e+00
  4.941460e+00    3.162668e+00
  4.957335e+00    3.126614e+00
  4.973211e+00    3.191252e+00
  4.989086e+00    3.109424e+00
  5.004962e+00    3.140561e+00
  5.020838e+00    3.146833e+00
  5.036713e+00    3.116990e+00
  5.052589e+00    3.133406e+00
  5.068464e+00    3.168346e+00
  5.084340e+00    3.170299e+00
  5.100216e+00    3.169151e+00
  5.116091e+00    3.129251e+00
  5.131967e+00    3.149728e+00
  5.147842e+00    3.168739e+00
  5.163718e+00    3.182143e+00
  5.179593e+00    3.157098e+00
  5.195469e+00    3.131760e+00
  5.211345e+00    3.106996e+00
  5.227220e+00    3.135823e+00
  5.243096e+00    3.151330e+00
  5.258971e+00    3.141524e+00
  5.274847e+00    3.171692e+00
  5.290722e+00    3.160955e+00
  5.306598e+00    3.134224e+00
  5.322474e+00    3.142510e+00
  5.338349e+00    3.119776e+00
  5.354225e+00    3.098211e+00
  5.370100e+00    3.089654e+00
  5.385976e+00    3.109152e+00
  5.401851e+00    3.100406e+00
  5.417727e+00    3.135458e+00
  5.433603e+00    3.163146e+00
  5.449478e+00    3.172717e+00
  5.465354e+00    3.043534e+00
  5.481229e+00    3.046222e+00
  5.497105e+00    3.076735e+00
  5.512980e+00    2.985249e+00
  5.528856e+00    3.000123e+00
  5.544732e+00    3.017592e+00
  5.560607e+00    3.093797e+00
  5.576483e+00    3.062620e+00
  5.592358e+00    3.081357e+00
  5.608234e+00    3.043413e+00
  5.624109e+00    3.106927e+00
  5.639985e+00    3.128895e+00
  5.655861e+00    3.141711e+00
  5.671736e+00    3.130268e+00
  5.687612e+00    3.103988e+00
  5.703487e+00    3.111276e+00
  5.719363e+00    3.144555e+00
  5.735238e+00    3.066586e+00
  5.751114e+00    3.060334e+00
  5.766990e+00    3.029475e+00
  5.782865e+00    3.077504e+00
  5.798741e+00    3.051860e+00
  5.814616e+00    3.012414e+00
  5.830492e+00    3.088399e+00
  5.846367e+00    3.038959e+00
  5.862243e+00    2.990700e+00
  5.878119e+00    3.021279e+00
  5.893994e+00    3.049374e+00
  5.909870e+00    3.080066e+00
  5.925745e+00    2.978445e+00
  5.941621e+00    2.964263e+00
  5.957497e+00    3.057719e+00
  5.973372e+00    3.104461e+00
  5.989248e+00    3.044769e+00
  6.005123e+00    3.013569e+00
  6.020999e+00    2.994165e+00
  6.036874e+00    3.037864e+00
  6.052750e+00    3.112911e+00
  6.068626e+00    3.021231e+00
  6.084501e+00    3.070691e+00
  6.100377e+00    3.105686e+00
  6.116252e+00    3.068669e+00
  6.132128e+00    3.052811e+00
  6.148003e+00    3.086493e+00
  6.163879e+00    3.057843e+00
  6.179755e+00    3.004693e+00
  6.195630e+00    3.098174e+00
  6.211506e+00    3.125333e+00
  6.227381e+00    3.103425e+00
  6.243257e+00    3.099708e+00
  6.259132e+00    3.104456e+00
  6.275008e+00    3.091577e+00
  6.290884e+00    3.007890e+00
  6.306759e+00    3.058072e+00
  6.322635e+00    3.076194e+00
  6.338510e+00    2.964188e+00
  6.354386e+00    2.999004e+00
  6.370261e+00    3.002053e+00
  6.386137e+00    3.012437e+00
  6.402013e+00    3.050415e+00
  6.417888e+00    3.080505e+00
  6.433764e+00    3.035600e+00
  6.449639e+00    3.078539e+00
  6.465515e+00    3.093971e+00
  6.481390e+00    3.030894e+00
  6.497266e+00    3.005641e+00
  6.513142e+00    3.124186e+00
  6.529017e+00    3.046670e+00
  6.544893e+00    2.972116e+00
  6.560768e+00    3.020154e+00
  6.576644e+00    3.068558e+00
  6.592519e+00    3.015203e+00
  6.608395e+00    3.094607e+00
  6.624271e+00    3.085822e+00
  6.640146e+00    3.051409e+00
  6.656022e+00    3.063361e+00
  6.671897e+00    3.036109e+00
  6.687773e+00    3.018372e+00
  6.703648e+00    2.991636e+00
  6.719524e+00    2.980579e+00
  6.735400e+00    2.990345e+00
  6.751275e+00    3.053562e+00
  6.767151e+00    3.062083e+00
  6.783026e+00    3.057219e+00
  6.798902e+00    3.056787e+00
  6.814777e+00    3.000279e+00
  6.830653e+00    3.056011e+00
  6.846529e+00    3.091164e+00
  6.862404e+00    3.038285e+00
  6.878280e+00    3.006120e+00
  6.894155e+00    2.997963e+00
  6.910031e+00    3.037212e+00
  6.925907e+00    3.020359e+00
  6.941782e+00    3.043581e+00
  6.957658e+00    3.012401e+00
  6.973533e+00    2.993492e+00
  6.989409e+00    2.987446e+00
  7.005284e+00    2.939825e+00
  7.021160e+00    2.954350e+00
  7.037036e+00    2.957187e+00
  7.052911e+00    2.978580e+00
  7.068787e+00    3.047927e+00
  7.084662e+00    3.078765e+00
  7.100538e+00    3.052106e+00
  7.116413e+00    3.072222e+00
  7.132289e+00    2.963682e+00
  7.148165e+00    2.957621e+00
  7.164040e+00    3.003028e+00
  7.179916e+00    2.978738e+00
  7.195791e+00    2.955397e+00
  7.211667e+00    2.962188e+00
  7.227542e+00    3.017797e+00
  7.243418e+00    3.057575e+00
  7.259294e+00    2.976100e+00
  7.275169e+00    2.971515e+00
  7.291045e+00    2.996907e+00
  7.306920e+00    3.012139e+00
  7.322796e+00    3.045174e+00
  7.338671e+00    3.114276e+00
  7.354547e+00    3.040054e+00
  7.370423e+00    3.002655e+00
  7.386298e+00    3.028711e+00
  7.402174e+00    3.020140e+00
  7.418049e+00    3.027684e+00
  7.433925e+00    3.060264e+00
  7.449800e+00    2.991506e+00
  7.465676e+00    3.010831e+00
  7.481552e+00    2.949665e+00
  7.497427e+00    2.920513e+00
  7.513303e+00    2.940081e+00
  7.529178e+00    2.955465e+00
  7.545054e+00    2.989906e+00
  7.560929e+00    2.995173e+00
  7.576805e+00    2.977793e+00
  7.592681e+00    2.985465e+00
  7.608556e+00    2.960730e+00
  7.624432e+00    2.935099e+00
  7.640307e+00    2.943055e+00
  7.656183e+00    2.976789e+00
  7.672058e+00    2.987555e+00
  7.687934e+00    3.014323e+00
  7.703810e+00    2.904988e+00
  7.719685e+00    2.876018e+00
  7.735561e+00    2.966933e+00
  7.751436e+00    2.981892e+00
  7.767312e+00    2.943834e+00
  7.783187e+00    2.915061e+00
  7.799063e+00    2.914395e+00
  7.814939e+00    3.019516e+00
  7.830814e+00    2.957340e+00
  7.846690e+00    2.884055e+00
  7.862565e+00    2.913270e+00
  7.878441e+00    2.970417e+00
  7.894317e+00    2.947930e+00
  7.910192e+00    2.898739e+00
  7.926068e+00    2.858180e+00
  7.941943e+00    2.883840e+00
  7.957819e+00    2.940890e+00
  7.973694e+00    2.950205e+00
  7.989570e+00    2.979612e+00
  8.005446e+00    2.914922e+00
  8.021321e+00    2.924383e+00
  8.037197e+00    2.918389e+00
  8.053072e+00    2.966179e+00
  8.068948e+00    2.910110e+00
  8.084823e+00    2.874826e+00
  8.100699e+00    2.893926e+00
  8.116575e+00    2.923739e+00
  8.132450e+00    2.961281e+00
  8.148326e+00    2.958560e+00
  8.164201e+00    2.944514e+00
  8.180077e+00    2.946670e+00
  8.195952e+00    2.930412e+00
  8.211828e+00    2.976308e+00
  8.227704e+00    2.967283e+00
  8.243579e+00    2.931969e+00
  8.259455e+00    2.960277e+00
  8.275330e+00    2.965925e+00
  8.291206e+00    2.983965e+00
  8.307081e+00    2.948418e+00
  8.322957e+00    2.898492e+00
  8.338833e+00    2.877961e+00
  8.354708e+00    2.882558e+00
  8.370584e+00    2.900720e+00
  8.386459e+00    2.925023e+00
  8.402335e+00    2.887187e+00
  8.418210e+00    2.838839e+00
  8.434086e+00    2.907348e+00
  8.449962e+00    2.912599e+00
  8.465837e+00    2.881824e+00
  8.481713e+00    2.917626e+00
  8.497588e+00    2.868730e+00
  8.513464e+00    2.862046e+00
  8.529339e+00    2.892880e+00
  8.545215e+00    2.917825e+00
  8.561091e+00    2.882480e+00
  8.576966e+00    2.834695e+00
  8.592842e+00    2.856000e+00
  8.608717e+00    2.879916e+00
  8.624593e+00    2.891968e+00
  8.640468e+00    2.866645e+00
  8.656344e+00    2.906230e+00
  8.672220e+00    2.844715e+00
  8.688095e+00    2.820607e+00
  8.703971e+00    2.840034e+00
  8.719846e+00    2.855569e+00
  8.735722e+00    2.828890e+00
  8.751598e+00    2.820501e+00
  8.767473e+00    2.790053e+00
  8.783349e+00    2.817693e+00
  8.799224e+00    2.895366e+00
  8.815100e+00    2.886802e+00
  8.830975e+00    2.855842e+00
  8.846851e+00    2.851672e+00
  8.862727e+00    2.761562e+00
  8.878602e+00    2.811310e+00
  8.894478e+00    2.812819e+00
  8.910353e+00    2.777256e+00
  8.926229e+00    2.801172e+00
  8.942104e+00    2.823648e+00
  8.957980e+00    2.826777e+00
  8.973856e+00    2.789161e+00
  8.989731e+00    2.802572e+00
  9.005607e+00    2.775181e+00
  9.021482e+00    2.812739e+00
  9.037358e+00    2.881389e+00
  9.053233e+00    2.871195e+00
  9.069109e+00    2.873163e+00
  9.084985e+00    2.819376e+00
  9.100860e+00    2.790765e+00
  9.116736e+00    2.771616e+00
  9.132611e+00    2.780407e+00
  9.148487e+00    2.851361e+00
  9.164362e+00    2.857669e+00
  9.180238e+00    2.799510e+00
  9.196114e+00    2.757857e+00
  9.211989e+00    2.784316e+00
  9.227865e+00    2.833938e+00
  9.243740e+00    2.794255e+00
  9.259616e+00    2.813529e+00
  9.275491e+00    2.774088e+00
  9.291367e+00    2.768261e+00
  9.307243e+00    2.765066e+00
  9.323118e+00    2.772171e+00
  9.338994e+00    2.763215e+00
  9.354869e+00    2.784641e+00
  9.370745e+00    2.790077e+00
  9.386620e+00    2.724545e+00
  9.402496e+00    2.728533e+00
  9.418372e+00    2.731270e+00
  9.434247e+00    2.792631e+00
  9.450123e+00    2.824286e+00
  9.465998e+00    2.774034e+00
  9.481874e+00    2.747597e+00
  9.497749e+00    2.741175e+00
  9.513625e+00    2.753335e+00
  9.529501e+00    2.752989e+00
  9.545376e+00    2.801881e+00
  9.561252e+00    2.718293e+00
  9.577127e+00    2.768730e+00
  9.593003e+00    2.768601e+00
  9.608878e+00    2.764847e+00
  9.624754e+00    2.751655e+00
  9.640630e+00    2.701718e+00
  9.656505e+00    2.766559e+00
  9.672381e+00    2.728063e+00
  9.688256e+00    2.692857e+00
  9.704132e+00    2.680346e+00
  9.720008e+00    2.747366e+00
  9.735883e+00    2.733949e+00
  9.751759e+00    2.688993e+00
  9.767634e+00    2.708934e+00
  9.783510e+00    2.754242e+00
  9.799385e+00    2.747063e+00
  9.815261e+00    2.722816e+00
  9.831137e+00    2.703608e+00
  9.847012e+00    2.699326e+00
  9.862888e+00    2.687364e+00
  9.878763e+00    2.683982e+00
  9.894639e+00    2.666315e+00
  9.910514e+00    2.697102e+00
  9.926390e+00    2.643595e+00
  9.942266e+00    2.708358e+00
  9.958141e+00    2.730239e+00
  9.974017e+00    2.694022e+00
  9.989892e+00    2.608735e+00
  1.000577e+01    2.643679e+00
  1.002164e+01    2.704260e+00
  1.003752e+01    2.660746e+00
  1.005339e+01    2.674206e+00
  1.006927e+01    2.666572e+00
  1.008515e+01    2.682602e+00
  1.010102e+01    2.673702e+00
  1.011690e+01    2.601119e+00
  1.013277e+01    2.593925e+00
  1.014865e+01    2.615605e+00
  1.016452e+01    2.688873e+00
  1.018040e+01    2.651428e+00
  1.019627e+01    2.604135e+00
  1.021215e+01    2.640579e+00
  1.022803e+01    2.641442e+00
  1.024390e+01    2.676397e+00
  1.025978e+01    2.633437e+00
  1.027565e+01    2.607406e+00
  1.029153e+01    2.636502e+00
  1.030740e+01    2.648060e+00
  1.032328e+01    2.649329e+00
  1.033915e+01    2.608802e+00
  1.035503e+01    2.646826e+00
  1.037091e+01    2.651953e+00
  1.038678e+01    2.646761e+00
  1.040266e+01    2.588209e+00
  1.041853e+01    2.590061e+00
  1.043441e+01    2.558074e+00
  1.045028e+01    2.559278e+00
  1.046616e+01    2.601877e+00
  1.048204e+01    2.613114e+00
  1.049791e+01    2.550692e+00
  1.051379e+01    2.621967e+00
  1.052966e+01    2.587967e+00
  1.054554e+01    2.545275e+00
  1.056141e+01    2.560884e+00
  1.057729e+01    2.599501e+00
  1.059316e+01    2.560743e+00
  1.060904e+01    2.523162e+00
  1.062492e+01    2.549487e+00
  1.064079e+01    2.565764e+00
  1.065667e+01    2.573329e+00
  1.067254e+01    2.556924e+00
  1.068842e+01    2.578263e+00
  1.070429e+01    2.552487e+00
  1.072017e+01    2.509427e+00
  1.073604e+01    2.529841e+00
  1.075192e+01    2.536954e+00
  1.076780e+01    2.515662e+00
  1.078367e+01    2.530721e+00
  1.079955e+01    2.570116e+00
  1.081542e+01    2.495775e+00
  1.083130e+01    2.457401e+00
  1.084717e+01    2.442710e+00
  1.086305e+01    2.500989e+00
  1.087892e+01    2.547556e+00
  1.089480e+01    2.539999e+00
  1.091068e+01    2.512267e+00
  1.092655e+01    2.525676e+00
  1.094243e+01    2.473765e+00
  1.095830e+01    2.466941e+00
  1.097418e+01    2.487062e+00
  1.099005e+01    2.482703e+00
  1.100593e+01    2.513501e+00
  1.102180e+01    2.465344e+00
  1.103768e+01    2.480303e+00
  1.105356e+01    2.475617e+00
  1.106943e+01    2.432245e+00
  1.108531e+01    2.462610e+00
  1.110118e+01    2.492336e+00
  1.111706e+01    2.474890e+00
  1.113293e+01    2.497239e+00
  1.114881e+01    2.502797e+00
  1.116468e+01    2.480319e+00
  1.118056e+01    2.459519e+00
  1.119644e+01    2.432868e+00
  1.121231e+01    2.452704e+00
  1.122819e+01    2.454439e+00
  1.124406e+01    2.469246e+00
  1.125994e+01    2.428961e+00
  1.127581e+01    2.402597e+00
  1.129169e+01    2.411220e+00
  1.130756e+01    2.423171e+00
  1.132344e+01    2.434780e+00
  1.133932e+01    2.475779e+00
  1.135519e+01    2.443105e+00
  1.137107e+01    2.390112e+00
  1.138694e+01    2.386857e+00
  1.140282e+01    2.378662e+00
  1.141869e+01    2.394401e+00
  1.143457e+01    2.435076e+00
  1.145045e+01    2.393457e+00
  1.146632e+01    2.350352e+00
  1.148220e+01    2.381426e+00
  1.149807e+01    2.407625e+00
  1.151395e+01    2.431680e+00
  1.152982e+01    2.451651e+00
  1.154570e+01    2.424945e+00
  1.156157e+01    2.380233e+00
  1.157745e+01    2.400675e+00
  1.159333e+01    2.411206e+00
  1.160920e+01    2.372363e+00
  1.162508e+01    2.346577e+00
  1.164095e+01    2.321230e+00
  1.165683e+01    2.351920e+00
  1.167270e+01    2.361166e+00
  1.168858e+01    2.361787e+00
  1.170445e+01    2.397556e+00
  1.172033e+01    2.419437e+00
  1.173621e+01    2.423250e+00
  1.175208e+01    2.385487e+00
  1.176796e+01    2.350020e+00
  1.178383e+01    2.379444e+00
  1.179971e+01    2.363757e+00
  1.181558e+01    2.327198e+00
  1.183146e+01    2.353149e+00
  1.184733e+01    2.324138e+00
  1.186321e+01    2.331695e+00
  1.187909e+01    2.322471e+00
  1.189496e+01    2.327921e+00
  1.191084e+01    2.365007e+00
  1.192671e+01    2.336922e+00
  1.194259e+01    2.340068e+00
  1.195846e+01    2.340825e+00
  1.197434e+01    2.329422e+00
  1.199021e+01    2.355119e+00
  1.200609e+01    2.327538e+00
  1.202197e+01    2.316566e+00
  1.203784e+01    2.290874e+00
  1.205372e+01    2.336742e+00
  1.206959e+01    2.323222e+00
  1.208547e+01    2.300392e+00
  1.210134e+01    2.275557e+00
  1.211722e+01    2.336364e+00
  1.213309e+01    2.324053e+00
  1.214897e+01    2.315591e+00
  1.216485e+01    2.342812e+00
  1.218072e+01    2.319289e+00
  1.219660e+01    2.335897e+00
  1.221247e+01    2.344259e+00
  1.222835e+01    2.317023e+00
  1.224422e+01    2.302586e+00
  1.226010e+01    2.352086e+00
  1.227597e+01    2.285210e+00
  1.229185e+01    2.292750e+00
  1.230773e+01    2.353971e+00
  1.232360e+01    2.328183e+00
  1.233948e+01    2.306740e+00
  1.235535e+01    2.311566e+00
  1.237123e+01    2.331175e+00
  1.238710e+01    2.304047e+00
  1.240298e+01    2.344160e+00
  1.241886e+01    2.381922e+00
  1.243473e+01    2.302766e+00
  1.245061e+01    2.297479e+00
  1.246648e+01    2.330098e+00
  1.248236e+01    2.346886e+00
  1.249823e+01    2.356198e+00
  1.251411e+01    2.340739e+00
  1.252998e+01    2.377506e+00
  1.254586e+01    2.376256e+00
  1.256174e+01    2.389921e+00
  1.257761e+01    2.414334e+00
  1.259349e+01    2.367569e+00
  1.260936e+01    2.393082e+00
  1.262524e+01    2.392299e+00
  1.264111e+01    2.379631e+00
  1.265699e+01    2.392677e+00
  1.267286e+01    2.404964e+00
  1.268874e+01    2.468025e+00
  1.270462e+01    2.442387e+00
  1.272049e+01    2.439192e+00
  1.273637e+01    2.524532e+00
  1.275224e+01    2.571752e+00
  1.276812e+01    2.561637e+00
  1.278399e+01    2.619344e+00
  1.279987e+01    2.661623e+00
  1.281574e+01    2.729850e+00
  1.283162e+01    2.705922e+00
  1.284750e+01    2.780892e+00
  1.286337e+01    2.906552e+00
  1.287925e+01    3.026355e+00
  1.289512e+01    3.131534e+00
  1.291100e+01    3.267119e+00
  1.292687e+01    3.479338e+00
  1.294275e+01    3.679799e+00
  1.295862e+01    3.989141e+00
  1.297450e+01    4.390876e+00
  1.299038e+01    4.890384e+00
  1.300625e+01    5.505005e+00
  1.302213e+01    6.276772e+00
  1.303800e+01    7.210661e+00
  1.305388e+01    8.372186e+00
  1.306975e+01    9.538442e+00
  1.308563e+01    1.074549e+01
  1.310150e+01    1.200671e+01
  1.311738e+01    1.313540e+01
  1.313326e+01    1.415784e+01
  1.314913e+01    1.504019e+01
  1.316501e+01    1.584416e+01
  1.318088e+01    1.595778e+01
  1.319676e+01    1.543251e+01
  1.321263e+01    1.406744e+01
  1.322851e+01    1.229907e+01
  1.324438e+01    1.042846e+01
  1.326026e+01    8.750673e+00
  1.327614e+01    7.449637e+00
  1.329201e+01    6.395486e+00
  1.330789e+01    5.618469e+00
  1.332376e+01    4.961845e+00
  1.333964e+01    4.454622e+00
  1.335551e+01    4.070593e+00
  1.337139e+01    3.769970e+00
  1.338727e+01    3.443947e+00
  1.340314e+01    3.243103e+00
  1.341902e+01    3.143305e+00
  1.343489e+01    2.992573e+00
  1.345077e+01    2.851321e+00
  1.346664e+01    2.751361e+00
  1.348252e+01    2.685616e+00
  1.349839e+01    2.599708e+00
  1.351427e+01    2.515826e+00
  1.353015e+01    2.493483e+00
  1.354602e+01    2.441923e+00
  1.356190e+01    2.361629e+00
  1.357777e+01    2.363328e+00
  1.359365e+01    2.361342e+00
  1.360952e+01    2.320064e+00
  1.362540e+01    2.321147e+00
  1.364127e+01    2.266802e+00
  1.365715e+01    2.280722e+00
  1.367303e+01    2.276706e+00
  1.368890e+01    2.251215e+00
  1.370478e+01    2.208263e+00
  1.372065e+01    2.198188e+00
  1.373653e+01    2.180056e+00
  1.375240e+01    2.190968e+00
  1.376828e+01    2.190485e+00
  1.378415e+01    2.181404e+00
  1.380003e+01    2.154811e+00
  1.381591e+01    2.144067e+00
  1.383178e+01    2.141824e+00
  1.384766e+01    2.134265e+00
  1.386353e+01    2.102227e+00
  1.387941e+01    2.108585e+00
  1.389528e+01    2.099270e+00
  1.391116e+01    2.080194e+00
  1.392703e+01    2.080064e+00
  1.394291e+01    2.066570e+00
  1.395879e+01    2.095514e+00
  1.397466e+01    2.069385e+00
  1.399054e+01    2.035152e+00
  1.400641e+01    2.056898e+00
  1.402229e+01    2.027998e+00
  1.403816e+01    2.028024e+00
  1.405404e+01    2.053165e+00
  1.406991e+01    2.058956e+00
  1.408579e+01    2.028480e+00
  1.410167e+01    2.014752e+00
  1.411754e+01    1.978712e+00
  1.413342e+01    2.022144e+00
  1.414929e+01    2.010345e+00
  1.416517e+01    1.987120e+00
  1.418104e+01    2.019581e+00
  1.419692e+01    1.972876e+00
  1.421279e+01    1.959902e+00
  1.422867e+01    1.954934e+00
  1.424455e+01    1.976418e+00
  1.426042e+01    1.981297e+00
  1.427630e+01    1.984829e+00
  1.429217e+01    1.959284e+00
  1.430805e+01    1.965170e+00
  1.432392e+01    1.986856e+00
  1.433980e+01    1.981982e+00
  1.435568e+01    1.959053e+00
  1.437155e+01    1.976359e+00
  1.438743e+01    1.966643e+00
  1.440330e+01    1.978759e+00
  1.441918e+01    1.960348e+00
  1.443505e+01    1.936726e+00
  1.445093e+01    1.945667e+00
  1.446680e+01    1.922737e+00
  1.448268e+01    1.947787e+00
  1.449856e+01    1.927746e+00
  1.451443e+01    1.930388e+00
  1.453031e+01    1.968079e+00
  1.454618e+01    1.921073e+00
  1.456206e+01    1.918140e+00
  1.457793e+01    1.913625e+00
  1.459381e+01    1.924474e+00
  1.460968e+01    1.911798e+00
  1.462556e+01    1.914733e+00
  1.464144e+01    1.937710e+00
  1.465731e+01    1.937163e+00
  1.467319e+01    1.900268e+00
  1.468906e+01    1.886360e+00
  1.470494e+01    1.888826e+00
  1.472081e+01    1.934929e+00
  1.473669e+01    1.911191e+00
  1.475256e+01    1.912110e+00
  1.476844e+01    1.926441e+00
  1.478432e+01    1.934071e+00
  1.480019e+01    1.894845e+00
  1.481607e+01    1.934526e+00
  1.483194e+01    1.910427e+00
  1.484782e+01    1.929375e+00
  1.486369e+01    1.967555e+00
  1.487957e+01    1.941053e+00
  1.489544e+01    1.956203e+00
  1.491132e+01    1.977003e+00
  1.492720e+01    1.982008e+00
  1.494307e+01    2.000269e+00
  1.495895e+01    2.042920e+00
  1.497482e+01    2.058088e+00
  1.499070e+01    2.101701e+00
  1.500657e+01    2.145669e+00
  1.502245e+01    2.205122e+00
  1.503832e+01    2.311613e+00
  1.505420e+01    2.421074e+00
  1.507008e+01    2.570086e+00
  1.508595e+01    2.705475e+00
  1.510183e+01    2.900872e+00
  1.511770e+01    3.169382e+00
  1.513358e+01    3.477986e+00
  1.514945e+01    3.837889e+00
  1.516533e+01    4.194703e+00
  1.518120e+01    4.572121e+00
  1.519708e+01    4.823627e+00
  1.521296e+01    5.046035e+00
  1.522883e+01    5.267404e+00
  1.524471e+01    5.403604e+00
  1.526058e+01    5.561312e+00
  1.527646e+01    5.427268e+00
  1.529233e+01    5.255279e+00
  1.530821e+01    4.853258e+00
  1.532409e+01    4.367420e+00
  1.533996e+01    3.898580e+00
  1.535584e+01    3.452028e+00
  1.537171e+01    3.159970e+00
  1.538759e+01    2.839041e+00
  1.540346e+01    2.581566e+00
  1.541934e+01    2.464037e+00
  1.543521e+01    2.330456e+00
  1.545109e+01    2.251935e+00
  1.546697e+01    2.146322e+00
  1.548284e+01    2.084019e+00
  1.549872e+01    2.025249e+00
  1.551459e+01    1.962637e+00
  1.553047e+01    1.904847e+00
  1.554634e+01    1.908408e+00
  1.556222e+01    1.923734e+00
  1.557809e+01    1.887984e+00
  1.559397e+01    1.859026e+00
  1.560985e+01    1.833195e+00
  1.562572e+01    1.800712e+00
  1.564160e+01    1.748539e+00
  1.565747e+01    1.756257e+00
  1.567335e+01    1.769796e+00
  1.568922e+01    1.752380e+00
  1.570510e+01    1.747015e+00
  1.572097e+01    1.740589e+00
  1.573685e+01    1.733678e+00
  1.575273e+01    1.719764e+00
  1.576860e+01    1.674366e+00
  1.578448e+01    1.682765e+00
  1.580035e+01    1.670074e+00
  1.581623e+01    1.654470e+00
  1.583210e+01    1.662711e+00
  1.584798e+01    1.685122e+00
  1.586385e+01    1.653994e+00
  1.587973e+01    1.657690e+00
  1.589561e+01    1.649488e+00
  1.591148e+01    1.632087e+00
  1.592736e+01    1.625983e+00
  1.594323e+01    1.628968e+00
  1.595911e+01    1.620193e+00
  1.597498e+01    1.631023e+00
  1.599086e+01    1.599766e+00
  1.600673e+01    1.572073e+00
  1.602261e+01    1.584654e+00
  1.603849e+01    1.590154e+00
  1.605436e+01    1.624304e+00
  1.607024e+01    1.586267e+00
  1.608611e+01    1.526125e+00
  1.610199e+01    1.589754e+00
  1.611786e+01    1.593597e+00
  1.613374e+01    1.577239e+00
  1.614961e+01    1.577444e+00
  1.616549e+01    1.573497e+00
  1.618137e+01    1.592493e+00
  1.619724e+01    1.550460e+00
  1.621312e+01    1.558969e+00
  1.622899e+01    1.551700e+00
  1.624487e+01    1.563551e+00
  1.626074e+01    1.578590e+00
  1.627662e+01    1.521685e+00
  1.629250e+01    1.532029e+00
  1.630837e+01    1.520987e+00
  1.632425e+01    1.526832e+00
  1.634012e+01    1.543996e+00
  1.635600e+01    1.556018e+00
  1.637187e+01    1.550862e+00
  1.638775e+01    1.544685e+00
  1.640362e+01    1.552743e+00
  1.641950e+01    1.542139e+00
  1.643538e+01    1.501271e+00
  1.645125e+01    1.511598e+00
  1.646713e+01    1.492354e+00
  1.648300e+01    1.510912e+00
  1.649888e+01    1.477477e+00
  1.651475e+01    1.482269e+00
  1.653063e+01    1.504940e+00
  1.654650e+01    1.517218e+00
  1.656238e+01    1.520885e+00
  1.657826e+01    1.474147e+00
  1.659413e+01    1.468793e+00
  1.661001e+01    1.495160e+00
  1.662588e+01    1.475263e+00
  1.664176e+01    1.494067e+00
  1.665763e+01    1.490557e+00
  1.667351e+01    1.497914e+00
  1.668938e+01    1.464307e+00
  1.670526e+01    1.464608e+00
  1.672114e+01    1.520762e+00
  1.673701e+01    1.494738e+00
  1.675289e+01    1.496147e+00
  1.676876e+01    1.489174e+00
  1.678464e+01    1.458895e+00
  1.680051e+01    1.480900e+00
  1.681639e+01    1.483729e+00
  1.683226e+01    1.460080e+00
  1.684814e+01    1.469824e+00
  1.686402e+01    1.460871e+00
  1.687989e+01    1.454463e+00
  1.689577e+01    1.457116e+00
  1.691164e+01    1.473192e+00
  1.692752e+01    1.423756e+00
  1.694339e+01    1.420286e+00
  1.695927e+01    1.444479e+00
  1.697514e+01    1.444835e+00
  1.699102e+01    1.439132e+00
  1.700690e+01    1.435163e+00
  1.702277e+01    1.455367e+00
  1.703865e+01    1.435207e+00
  1.705452e+01    1.424930e+00
  1.707040e+01    1.421599e+00
  1.708627e+01    1.423968e+00
  1.710215e+01    1.429660e+00
  1.711802e+01    1.405926e+00
  1.713390e+01    1.423119e+00
  1.714978e+01    1.448148e+00
  1.716565e+01    1.383627e+00
  1.718153e+01    1.416750e+00
  1.719740e+01    1.425336e+00
  1.721328e+01    1.414091e+00
  1.722915e+01    1.421561e+00
  1.724503e+01    1.407153e+00
  1.726091e+01    1.398637e+00
  1.727678e+01    1.406522e+00
  1.729266e+01    1.386540e+00
  1.730853e+01    1.372660e+00
  1.732441e+01    1.377068e+00
  1.734028e+01    1.377712e+00
  1.735616e+01    1.379644e+00
  1.737203e+01    1.385348e+00
  1.738791e+01    1.369095e+00
  1.740379e+01    1.366502e+00
  1.741966e+01    1.376544e+00
  1.743554e+01    1.359647e+00
  1.745141e+01    1.380911e+00
  1.746729e+01    1.367599e+00
  1.748316e+01    1.378127e+00
  1.749904e+01    1.379122e+00
  1.751491e+01    1.355170e+00
  1.753079e+01    1.345391e+00
  1.754667e+01    1.346717e+00
  1.756254e+01    1.386003e+00
  1.757842e+01    1.370303e+00
  1.759429e+01    1.369435e+00
  1.761017e+01    1.360587e+00
  1.762604e+01    1.370179e+00
  1.764192e+01    1.348713e+00
  1.765779e+01    1.374097e+00
  1.767367e+01    1.363181e+00
  1.768955e+01    1.336557e+00
  1.770542e+01    1.342489e+00
  1.772130e+01    1.338674e+00
  1.773717e+01    1.362252e+00
  1.775305e+01    1.334961e+00
  1.776892e+01    1.364842e+00
  1.778480e+01    1.352521e+00
  1.780067e+01    1.329505e+00
  1.781655e+01    1.338459e+00
  1.783243e+01    1.323819e+00
  1.784830e+01    1.319063e+00
  1.786418e+01    1.322547e+00
  1.788005e+01    1.322574e+00
  1.789593e+01    1.311805e+00
  1.791180e+01    1.297561e+00
  1.792768e+01    1.320958e+00
  1.794355e+01    1.329709e+00
  1.795943e+01    1.333927e+00
  1.797531e+01    1.338683e+00
  1.799118e+01    1.316707e+00
  1.800706e+01    1.310866e+00
  1.802293e+01    1.315701e+00
  1.803881e+01    1.317599e+00
  1.805468e+01    1.298435e+00
  1.807056e+01    1.298728e+00
  1.808643e+01    1.307238e+00
  1.810231e+01    1.279262e+00
  1.811819e+01    1.290244e+00
  1.813406e+01    1.305408e+00
  1.814994e+01    1.286623e+00
  1.816581e+01    1.291618e+00
  1.818169e+01    1.304598e+00
  1.819756e+01    1.270595e+00
  1.821344e+01    1.273400e+00
  1.822932e+01    1.296745e+00
  1.824519e+01    1.265783e+00
  1.826107e+01    1.243128e+00
  1.827694e+01    1.265376e+00
  1.829282e+01    1.247726e+00
  1.830869e+01    1.243906e+00
  1.832457e+01    1.244806e+00
  1.834044e+01    1.254608e+00
  1.835632e+01    1.266387e+00
  1.837220e+01    1.252396e+00
  1.838807e+01    1.254514e+00
  1.840395e+01    1.246579e+00
  1.841982e+01    1.235729e+00
  1.843570e+01    1.238200e+00
  1.845157e+01    1.235746e+00
  1.846745e+01    1.237152e+00
  1.848332e+01    1.237323e+00
  1.849920e+01    1.244743e+00
  1.851508e+01    1.228903e+00
  1.853095e+01    1.207617e+00
  1.854683e+01    1.247494e+00
  1.856270e+01    1.274933e+00
  1.857858e+01    1.238671e+00
  1.859445e+01    1.205717e+00
  1.861033e+01    1.232474e+00
  1.862620e+01    1.241523e+00
  1.864208e+01    1.236543e+00
  1.865796e+01    1.230909e+00
  1.867383e+01    1.226102e+00
  1.868971e+01    1.264354e+00
  1.870558e+01    1.223109e+00
  1.872146e+01    1.220633e+00
  1.873733e+01    1.212754e+00
  1.875321e+01    1.212982e+00
  1.876908e+01    1.201831e+00
  1.878496e+01    1.215112e+00
  1.880084e+01    1.222612e+00
  1.881671e+01    1.198468e+00
  1.883259e+01    1.216328e+00
  1.884846e+01    1.214821e+00
  1.886434e+01    1.223011e+00
  1.888021e+01    1.220246e+00
  1.889609e+01    1.228805e+00
  1.891196e+01    1.217205e+00
  1.892784e+01    1.217822e+00
  1.894372e+01    1.199522e+00
  1.895959e+01    1.187257e+00
  1.897547e+01    1.173273e+00
  1.899134e+01    1.190415e+00
  1.900722e+01    1.200251e+00
  1.902309e+01    1.193292e+00
  1.903897e+01    1.192347e+00
  1.905484e+01    1.171029e+00
  1.907072e+01    1.181264e+00
  1.908660e+01    1.192097e+00
  1.910247e+01    1.183150e+00
  1.911835e+01    1.167875e+00
  1.913422e+01    1.197657e+00
  1.915010e+01    1.191412e+00
  1.916597e+01    1.173944e+00
  1.918185e+01    1.168849e+00
  1.919773e+01    1.170690e+00
  1.921360e+01    1.189618e+00
  1.922948e+01    1.184476e+00
  1.924535e+01    1.178694e+00
  1.926123e+01    1.167683e+00
  1.927710e+01    1.172444e+00
  1.929298e+01    1.191075e+00
  1.930885e+01    1.173879e+00
  1.932473e+01    1.149945e+00
  1.934061e+01    1.144679e+00
  1.935648e+01    1.163145e+00
  1.937236e+01    1.155338e+00
  1.938823e+01    1.168344e+00
  1.940411e+01    1.177185e+00
  1.941998e+01    1.150819e+00
  1.943586e+01    1.155230e+00
  1.945173e+01    1.163902e+00
  1.946761e+01    1.146991e+00
  1.948349e+01    1.168097e+00
  1.949936e+01    1.180264e+00
  1.951524e+01    1.175005e+00
  1.953111e+01    1.139488e+00
  1.954699e+01    1.136713e+00
  1.956286e+01    1.131436e+00
  1.957874e+01    1.144419e+00
  1.959461e+01    1.138549e+00
  1.961049e+01    1.148469e+00
  1.962637e+01    1.148887e+00
  1.964224e+01    1.150104e+00
  1.965812e+01    1.151944e+00
  1.967399e+01    1.117470e+00
  1.968987e+01    1.129942e+00
  1.970574e+01    1.140768e+00
  1.972162e+01    1.148526e+00
  1.973749e+01    1.140236e+00
  1.975337e+01    1.123500e+00
  1.976925e+01    1.116903e+00
  1.978512e+01    1.124478e+00
  1.980100e+01    1.136774e+00
  1.981687e+01    1.129667e+00
  1.983275e+01    1.149119e+00
  1.984862e+01    1.129540e+00
  1.986450e+01    1.108240e+00
  1.988037e+01    1.112169e+00
  1.989625e+01    1.114549e+00
  1.991213e+01    1.130821e+00
  1.992800e+01    1.127236e+00
  1.994388e+01    1.146056e+00
  1.995975e+01    1.133752e+00
  1.997563e+01    1.132096e+00
  1.999150e+01    1.139678e+00
  2.000738e+01    1.127424e+00
  2.002325e+01    1.111862e+00
  2.003913e+01    1.111333e+00
  2.005501e+01    1.104094e+00
  2.007088e+01    1.111858e+00
  2.008676e+01    1.095274e+00
  2.010263e+01    1.114411e+00
  2.011851e+01    1.106211e+00
  2.013438e+01    1.098384e+00
  2.015026e+01    1.104935e+00
  2.016614e+01    1.109108e+00
  2.018201e+01    1.104664e+00
  2.019789e+01    1.106160e+00
  2.021376e+01    1.128266e+00
  2.022964e+01    1.123703e+00
  2.024551e+01    1.109556e+00
  2.026139e+01    1.077995e+00
  2.027726e+01    1.096003e+00
  2.029314e+01    1.098028e+00
  2.030902e+01    1.096857e+00
  2.032489e+01    1.069557e+00
  2.034077e+01    1.088045e+00
  2.035664e+01    1.095141e+00
  2.037252e+01    1.100458e+00
  2.038839e+01    1.089454e+00
  2.040427e+01    1.084706e+00
  2.042014e+01    1.092193e+00
  2.043602e+01    1.093311e+00
  2.045190e+01    1.079649e+00
  2.046777e+01    1.094107e+00
  2.048365e+01    1.096466e+00
  2.049952e+01    1.086449e+00
  2.051540e+01    1.109793e+00
  2.053127e+01    1.110485e+00
  2.054715e+01    1.100121e+00
  2.056302e+01    1.077554e+00
  2.057890e+01    1.081220e+00
  2.059478e+01    1.075843e+00
  2.061065e+01    1.080982e+00
  2.062653e+01    1.089977e+00
  2.064240e+01    1.073037e+00
  2.065828e+01    1.079787e+00
  2.067415e+01    1.080590e+00
  2.069003e+01    1.067471e+00
  2.070590e+01    1.075484e+00
  2.072178e+01    1.089068e+00
  2.073766e+01    1.071480e+00
  2.075353e+01    1.069261e+00
  2.076941e+01    1.071573e+00
  2.078528e+01    1.082713e+00
  2.080116e+01    1.089848e+00
  2.081703e+01    1.036623e+00
  2.083291e+01    1.064400e+00
  2.084878e+01    1.070206e+00
  2.086466e+01    1.073294e+00
  2.088054e+01    1.087019e+00
  2.089641e+01    1.063289e+00
  2.091229e+01    1.079483e+00
  2.092816e+01    1.073321e+00
  2.094404e+01    1.064242e+00
  2.095991e+01    1.077340e+00
  2.097579e+01    1.075484e+00
  2.099166e+01    1.065915e+00
  2.100754e+01    1.094879e+00
  2.102342e+01    1.086805e+00
  2.103929e+01    1.069208e+00
  2.105517e+01    1.076160e+00
  2.107104e+01    1.080118e+00
  2.108692e+01    1.070018e+00
  2.110279e+01    1.083083e+00
  2.111867e+01    1.055885e+00
  2.113455e+01    1.077350e+00
  2.115042e+01    1.110635e+00
  2.116630e+01    1.083670e+00
  2.118217e+01    1.092599e+00
  2.119805e+01    1.081176e+00
  2.121392e+01    1.060191e+00
  2.122980e+01    1.087530e+00
  2.124567e+01    1.101250e+00
  2.126155e+01    1.107608e+00
  2.127743e+01    1.104840e+00
  2.129330e+01    1.116431e+00
  2.130918e+01    1.116136e+00
  2.132505e+01    1.151089e+00
  2.134093e+01    1.168511e+00
  2.135680e+01    1.149360e+00
  2.137268e+01    1.128985e+00
  2.138855e+01    1.158505e+00
  2.140443e+01    1.157857e+00
  2.142031e+01    1.175840e+00
  2.143618e+01    1.192077e+00
  2.145206e+01    1.205676e+00
  2.146793e+01    1.227187e+00
  2.148381e+01    1.271000e+00
  2.149968e+01    1.285724e+00
  2.151556e+01    1.284003e+00
  2.153143e+01    1.337404e+00
  2.154731e+01    1.379660e+00
  2.156319e+01    1.425973e+00
  2.157906e+01    1.467464e+00
  2.159494e+01    1.517166e+00
  2.161081e+01    1.611778e+00
  2.162669e+01    1.719420e+00
  2.164256e+01    1.826653e+00
  2.165844e+01    2.007133e+00
  2.167431e+01    2.153343e+00
  2.169019e+01    2.385277e+00
  2.170607e+01    2.645555e+00
  2.172194e+01    2.922477e+00
  2.173782e+01    3.350670e+00
  2.175369e+01    3.851861e+00
  2.176957e+01    4.410708e+00
  2.178544e+01    4.971245e+00
  2.180132e+01    5.564311e+00
  2.181719e+01    6.247850e+00
  2.183307e+01    6.958851e+00
  2.184895e+01    7.611430e+00
  2.186482e+01    8.194881e+00
  2.188070e+01    8.645664e+00
  2.189657e+01    8.798825e+00
  2.191245e+01    8.697656e+00
  2.192832e+01    8.187236e+00
  2.194420e+01    7.306906e+00
  2.196007e+01    6.397797e+00
  2.197595e+01    5.437230e+00
  2.199183e+01    4.617276e+00
  2.200770e+01    3.899355e+00
  2.202358e+01    3.375221e+00
  2.203945e+01    2.957251e+00
  2.205533e+01    2.635164e+00
  2.207120e+01    2.369096e+00
  2.208708e+01    2.129886e+00
  2.210296e+01    1.969114e+00
  2.211883e+01    1.866958e+00
  2.213471e+01    1.711406e+00
  2.215058e+01    1.610986e+00
  2.216646e+01    1.529010e+00
  2.218233e+01    1.445435e+00
  2.219821e+01    1.397897e+00
  2.221408e+01    1.343682e+00
  2.222996e+01    1.308993e+00
  2.224584e+01    1.257002e+00
  2.226171e+01    1.230943e+00
  2.227759e+01    1.217727e+00
  2.229346e+01    1.201819e+00
  2.230934e+01    1.176317e+00
  2.232521e+01    1.142730e+00
  2.234109e+01    1.104295e+00
  2.235696e+01    1.089516e+00
  2.237284e+01    1.095005e+00
  2.238872e+01    1.072659e+00
  2.240459e+01    1.078218e+00
  2.242047e+01    1.063298e+00
  2.243634e+01    1.035910e+00
  2.245222e+01    1.036862e+00
  2.246809e+01    1.019271e+00
  2.248397e+01    1.024607e+00
  2.249984e+01    1.030239e+00
  2.251572e+01    1.023429e+00
  2.253160e+01    1.009023e+00
  2.254747e+01    9.970186e-01
  2.256335e+01    9.909479e-01
  2.257922e+01    9.669608e-01
  2.259510e+01    9.553190e-01
  2.261097e+01    9.854192e-01
  2.262685e+01    9.589675e-01
  2.264272e+01    9.597431e-01
  2.265860e+01    9.542965e-01
  2.267448e+01    9.411913e-01
  2.269035e+01    9.430676e-01
  2.270623e+01    9.488441e-01
  2.272210e+01    9.453279e-01
  2.273798e+01    9.342581e-01
  2.275385e+01    9.137197e-01
  2.276973e+01    9.377539e-01
  2.278560e+01    9.185461e-01
  2.280148e+01    9.329262e-01
  2.281736e+01    9.205965e-01
  2.283323e+01    9.009345e-01
  2.284911e+01    9.179254e-01
  2.286498e+01    9.321636e-01
  2.288086e+01    9.196637e-01
  2.289673e+01    8.923325e-01
  2.291261e+01    8.959232e-01
  2.292848e+01    9.144028e-01
  2.294436e+01    8.955604e-01
  2.296024e+01    8.964196e-01
  2.297611e+01    8.852943e-01
  2.299199e+01    8.896489e-01
  2.300786e+01    9.013876e-01
  2.302374e+01    8.995968e-01
  2.303961e+01    8.825796e-01
  2.305549e+01    8.781121e-01
  2.307137e+01    8.835980e-01
  2.308724e+01    8.820531e-01
  2.310312e+01    8.748034e-01
  2.311899e+01    8.847459e-01
  2.313487e+01    8.725135e-01
  2.315074e+01    8.651289e-01
  2.316662e+01    8.823113e-01
  2.318249e+01    8.924515e-01
  2.319837e+01    8.882451e-01
  2.321425e+01    8.742092e-01
  2.323012e+01    8.883026e-01
  2.324600e+01    8.628787e-01
  2.326187e+01    8.654724e-01
  2.327775e+01    8.769220e-01
  2.329362e+01    8.653404e-01
  2.330950e+01    8.595662e-01
  2.332537e+01    8.816016e-01
  2.334125e+01    8.620306e-01
  2.335713e+01    8.507260e-01
  2.337300e+01    8.423855e-01
  2.338888e+01    8.595679e-01
  2.340475e+01    8.679232e-01
  2.342063e+01    8.767767e-01
  2.343650e+01    8.662897e-01
  2.345238e+01    8.572831e-01
  2.346825e+01    8.581599e-01
  2.348413e+01    8.555536e-01
  2.350001e+01    8.596731e-01
  2.351588e+01    8.828510e-01
  2.353176e+01    8.454587e-01
  2.354763e+01    8.260702e-01
  2.356351e+01    8.429425e-01
  2.357938e+01    8.323936e-01
  2.359526e+01    8.379126e-01
  2.361113e+01    8.514495e-01
  2.362701e+01    8.492298e-01
  2.364289e+01    8.277407e-01
  2.365876e+01    8.307762e-01
  2.367464e+01    8.300703e-01
  2.369051e+01    8.375458e-01
  2.370639e+01    8.415226e-01
  2.372226e+01    8.145605e-01
  2.373814e+01    8.100180e-01
  2.375401e+01    8.201585e-01
  2.376989e+01    8.136694e-01
  2.378577e+01    7.992917e-01
  2.380164e+01    8.007902e-01
  2.381752e+01    8.083174e-01
  2.383339e+01    8.081681e-01
  2.384927e+01    7.938167e-01
  2.386514e+01    8.052811e-01
  2.388102e+01    8.125970e-01
  2.389689e+01    7.950747e-01
  2.391277e+01    7.833591e-01
  2.392865e+01    8.009965e-01
  2.394452e+01    7.913074e-01
  2.396040e+01    7.914456e-01
  2.397627e+01    7.910864e-01
  2.399215e+01    7.959259e-01
  2.400802e+01    7.788446e-01
  2.402390e+01    7.724872e-01
  2.403978e+01    7.782215e-01
  2.405565e+01    7.863722e-01
  2.407153e+01    7.843030e-01
  2.408740e+01    7.985882e-01
  2.410328e+01    7.797347e-01
  2.411915e+01    7.658989e-01
  2.413503e+01    7.943703e-01
  2.415090e+01    7.838060e-01
  2.416678e+01    7.734051e-01
  2.418266e+01    7.849404e-01
  2.419853e+01    7.854148e-01
  2.421441e+01    7.549269e-01
  2.423028e+01    7.522036e-01
  2.424616e+01    7.851810e-01
  2.426203e+01    8.052001e-01
  2.427791e+01    8.172576e-01
  2.429378e+01    7.901902e-01
  2.430966e+01    7.804049e-01
  2.432554e+01    7.878421e-01
  2.434141e+01    7.786582e-01
  2.435729e+01    7.774978e-01
  2.437316e+01    7.946324e-01
  2.438904e+01    7.799785e-01
  2.440491e+01    7.818025e-01
  2.442079e+01    7.843724e-01
  2.443666e+01    7.803160e-01
  2.445254e+01    7.864006e-01
  2.446842e+01    7.984797e-01
  2.448429e+01    7.851870e-01
  2.450017e+01    7.731901e-01
  2.451604e+01    7.847601e-01
  2.453192e+01    8.061368e-01
  2.454779e+01    7.911391e-01
  2.456367e+01    7.843124e-01
  2.457954e+01    7.887610e-01
  2.459542e+01    7.724610e-01
  2.461130e+01    7.794284e-01
  2.462717e+01    7.797638e-01
  2.464305e+01    7.674654e-01
  2.465892e+01    7.881641e-01
  2.467480e+01    7.823101e-01
  2.469067e+01    7.813318e-01
  2.470655e+01    7.863823e-01
  2.472242e+01    7.853428e-01
  2.473830e+01    7.924836e-01
  2.475418e+01    7.813141e-01
  2.477005e+01    7.966315e-01
  2.478593e+01    7.997914e-01
  2.480180e+01    7.817134e-01
  2.481768e+01    7.878628e-01
  2.483355e+01    8.012126e-01
  2.484943e+01    7.874810e-01
  2.486530e+01    7.986441e-01
  2.488118e+01    8.103126e-01
  2.489706e+01    7.911087e-01
  2.491293e+01    7.629794e-01
  2.492881e+01    7.824785e-01
  2.494468e+01    7.938901e-01
  2.496056e+01    7.869148e-01
  2.497643e+01    7.770286e-01
  2.499231e+01    7.867928e-01
  2.500819e+01    7.843867e-01
  2.502406e+01    8.009279e-01
  2.503994e+01    7.907616e-01
  2.505581e+01    7.828378e-01
  2.507169e+01    8.043367e-01
  2.508756e+01    8.054542e-01
  2.510344e+01    8.028928e-01
  2.511931e+01    8.019382e-01
  2.513519e+01    8.125430e-01
  2.515107e+01    8.108576e-01
  2.516694e+01    8.085237e-01
  2.518282e+01    8.271806e-01
  2.519869e+01    8.211954e-01
  2.521457e+01    8.496346e-01
  2.523044e+01    8.527213e-01
  2.524632e+01    8.525881e-01
  2.526219e+01    8.396919e-01
  2.527807e+01    8.534734e-01
  2.529395e+01    8.707548e-01
  2.530982e+01    8.728883e-01
  2.532570e+01    8.658573e-01
  2.534157e+01    8.683865e-01
  2.535745e+01    8.721880e-01
  2.537332e+01    8.826188e-01
  2.538920e+01    8.854345e-01
  2.540507e+01    9.049242e-01
  2.542095e+01    9.311518e-01
  2.543683e+01    9.057342e-01
  2.545270e+01    9.177298e-01
  2.546858e+01    9.237293e-01
  2.548445e+01    9.444076e-01
  2.550033e+01    9.577549e-01
  2.551620e+01    9.771427e-01
  2.553208e+01    9.918703e-01
  2.554795e+01    1.015415e+00
  2.556383e+01    1.044056e+00
  2.557971e+01    1.079248e+00
  2.559558e+01    1.099694e+00
  2.561146e+01    1.127359e+00
  2.562733e+01    1.171614e+00
  2.564321e+01    1.224695e+00
  2.565908e+01    1.267738e+00
  2.567496e+01    1.340275e+00
  2.569083e+01    1.429003e+00
  2.570671e+01    1.514502e+00
  2.572259e+01    1.610034e+00
  2.573846e+01    1.757679e+00
  2.575434e+01    1.932677e+00
  2.577021e+01    2.142054e+00
  2.578609e+01    2.415503e+00
  2.580196e+01    2.746379e+00
  2.581784e+01    3.092939e+00
  2.583371e+01    3.502544e+00
  2.584959e+01    4.014681e+00
  2.586547e+01    4.587787e+00
  2.588134e+01    5.168568e+00
  2.589722e+01    5.745493e+00
  2.591309e+01    6.299326e+00
  2.592897e+01    6.716979e+00
  2.594484e+01    6.995763e+00
  2.596072e+01    7.069436e+00
  2.597660e+01    6.959396e+00
  2.599247e+01    6.559689e+00
  2.600835e+01    5.949303e+00
  2.602422e+01    5.254296e+00
  2.604010e+01    4.516692e+00
  2.605597e+01    3.866515e+00
  2.607185e+01    3.298131e+00
  2.608772e+01    2.883180e+00
  2.610360e+01    2.557295e+00
  2.611948e+01    2.213349e+00
  2.613535e+01    2.003715e+00
  2.615123e+01    1.854865e+00
  2.616710e+01    1.706021e+00
  2.618298e+01    1.542281e+00
  2.619885e+01    1.473436e+00
  2.621473e+01    1.389420e+00
  2.623060e+01    1.318510e+00
  2.624648e+01    1.246491e+00
  2.626236e+01    1.183564e+00
  2.627823e+01    1.130546e+00
  2.629411e+01    1.107136e+00
  2.630998e+01    1.065982e+00
  2.632586e+01    1.063666e+00
  2.634173e+01    1.022031e+00
  2.635761e+01    9.816981e-01
  2.637348e+01    9.849362e-01
  2.638936e+01    9.904714e-01
  2.640524e+01    9.607286e-01
  2.642111e+01    9.253389e-01
  2.643699e+01    9.316812e-01
  2.645286e+01    9.338085e-01
  2.646874e+01    9.433417e-01
  2.648461e+01    9.205658e-01
  2.650049e+01    9.011858e-01
  2.651636e+01    8.938082e-01
  2.653224e+01    9.010937e-01
  2.654812e+01    8.995569e-01
  2.656399e+01    8.970002e-01
  2.657987e+01    8.761811e-01
  2.659574e+01    8.721955e-01
  2.661162e+01    8.883983e-01
  2.662749e+01    8.785847e-01
  2.664337e+01    8.806382e-01
  2.665924e+01    8.740598e-01
  2.667512e+01    8.739625e-01
  2.669100e+01    8.635650e-01
  2.670687e+01    8.507036e-01
  2.672275e+01    8.582642e-01
  2.673862e+01    8.657325e-01
  2.675450e+01    8.632930e-01
  2.677037e+01    8.766462e-01
  2.678625e+01    8.764550e-01
  2.680212e+01    8.568475e-01
  2.681800e+01    8.642572e-01
  2.683388e+01    8.784105e-01
  2.684975e+01    9.026431e-01
  2.686563e+01    8.930098e-01
  2.688150e+01    9.018021e-01
  2.689738e+01    9.063936e-01
  2.691325e+01    9.206308e-01
  2.692913e+01    9.136301e-01
  2.694501e+01    8.994619e-01
  2.696088e+01    9.467235e-01
  2.697676e+01    9.812853e-01
  2.699263e+01    9.890278e-01
  2.700851e+01    1.034402e+00
  2.702438e+01    1.060670e+00
  2.704026e+01    1.103498e+00
  2.705613e+01    1.177816e+00
  2.707201e+01    1.247369e+00
  2.708789e+01    1.351276e+00
  2.710376e+01    1.417918e+00
  2.711964e+01    1.539590e+00
  2.713551e+01    1.650415e+00
  2.715139e+01    1.733113e+00
  2.716726e+01    1.901867e+00
  2.718314e+01    2.052528e+00
  2.719901e+01    2.100468e+00
  2.721489e+01    2.154846e+00
  2.723077e+01    2.121661e+00
  2.724664e+01    2.036888e+00
  2.726252e+01    1.940287e+00
  2.727839e+01    1.806808e+00
  2.729427e+01    1.637135e+00
  2.731014e+01    1.507515e+00
  2.732602e+01    1.378132e+00
  2.734189e+01    1.277352e+00
  2.735777e+01    1.228014e+00
  2.737365e+01    1.117841e+00
  2.738952e+01    1.062635e+00
  2.740540e+01    1.034265e+00
  2.742127e+01    9.828305e-01
  2.743715e+01    9.559770e-01
  2.745302e+01    9.538366e-01
  2.746890e+01    9.352135e-01
  2.748477e+01    9.039447e-01
  2.750065e+01    8.773870e-01
  2.751653e+01    8.771108e-01
  2.753240e+01    8.909108e-01
  2.754828e+01    8.680307e-01
  2.756415e+01    8.542572e-01
  2.758003e+01    8.506545e-01
  2.759590e+01    8.538999e-01
  2.761178e+01    8.405167e-01
  2.762765e+01    8.275906e-01
  2.764353e+01    8.324781e-01
  2.765941e+01    8.491976e-01
  2.767528e+01    8.036091e-01
  2.769116e+01    8.375063e-01
  2.770703e+01    8.063684e-01
  2.772291e+01    7.885159e-01
  2.773878e+01    8.002472e-01
  2.775466e+01    7.806914e-01
  2.777054e+01    7.723185e-01
  2.778641e+01    7.944407e-01
  2.780229e+01    8.011860e-01
  2.781816e+01    7.852693e-01
  2.783404e+01    7.875312e-01
  2.784991e+01    7.948323e-01
  2.786579e+01    7.807553e-01
  2.788166e+01    7.741498e-01
  2.789754e+01    7.829514e-01
  2.791342e+01    7.694634e-01
  2.792929e+01    7.962781e-01
  2.794517e+01    7.905614e-01
  2.796104e+01    7.719009e-01
  2.797692e+01    7.708249e-01
  2.799279e+01    7.785277e-01
  2.800867e+01    7.939191e-01
  2.802454e+01    7.833509e-01
  2.804042e+01    7.721544e-01
  2.805630e+01    7.855808e-01
  2.807217e+01    7.865642e-01
  2.808805e+01    7.696081e-01
  2.810392e+01    7.683340e-01
  2.811980e+01    7.665572e-01
  2.813567e+01    7.747123e-01
  2.815155e+01    7.551946e-01
  2.816742e+01    7.640750e-01
  2.818330e+01    7.653633e-01
  2.819918e+01    7.517491e-01
  2.821505e+01    7.683919e-01
  2.823093e+01    7.672358e-01
  2.824680e+01    7.505749e-01
  2.826268e+01    7.611404e-01
  2.827855e+01    7.581850e-01
  2.829443e+01    7.642220e-01
  2.831030e+01    7.706559e-01
  2.832618e+01    7.732377e-01
  2.834206e+01    7.717583e-01
  2.835793e+01    7.566115e-01
  2.837381e+01    7.633091e-01
  2.838968e+01    7.748438e-01
  2.840556e+01    7.648076e-01
  2.842143e+01    7.546096e-01
  2.843731e+01    7.737955e-01
  2.845318e+01    7.681054e-01
  2.846906e+01    7.463205e-01
  2.848494e+01    7.579750e-01
  2.850081e+01    7.615019e-01
  2.851669e+01    7.464875e-01
  2.853256e+01    7.532150e-01
  2.854844e+01    7.651024e-01
  2.856431e+01    7.652788e-01
  2.858019e+01    7.554274e-01
  2.859606e+01    7.527474e-01
  2.861194e+01    7.402617e-01
  2.862782e+01    7.449831e-01
  2.864369e+01    7.389524e-01
  2.865957e+01    7.489918e-01
  2.867544e+01    7.477970e-01
  2.869132e+01    7.592456e-01
  2.870719e+01    7.452258e-01
  2.872307e+01    7.292479e-01
  2.873895e+01    7.340515e-01
  2.875482e+01    7.491659e-01
  2.877070e+01    7.555555e-01
  2.878657e+01    7.380539e-01
  2.880245e+01    7.367719e-01
  2.881832e+01    7.451915e-01
  2.883420e+01    7.504694e-01
  2.885007e+01    7.384825e-01
  2.886595e+01    7.407649e-01
  2.888183e+01    7.581157e-01
  2.889770e+01    7.438630e-01
  2.891358e+01    7.533678e-01
  2.892945e+01    7.384392e-01
  2.894533e+01    7.324692e-01
  2.896120e+01    7.407312e-01
  2.897708e+01    7.356950e-01
  2.899295e+01    7.309213e-01
  2.900883e+01    7.449219e-01
  2.902471e+01    7.551156e-01
  2.904058e+01    7.408878e-01
  2.905646e+01    7.337978e-01
  2.907233e+01    7.179728e-01
  2.908821e+01    7.082172e-01
  2.910408e+01    7.168147e-01
  2.911996e+01    7.044048e-01
  2.913583e+01    7.102309e-01
  2.915171e+01    7.425636e-01
  2.916759e+01    7.511189e-01
  2.918346e+01    7.331598e-01
  2.919934e+01    7.194862e-01
  2.921521e+01    7.331660e-01
  2.923109e+01    7.178282e-01
  2.924696e+01    7.200387e-01
  2.926284e+01    7.197359e-01
  2.927871e+01    7.171906e-01
  2.929459e+01    7.271438e-01
  2.931047e+01    7.245619e-01
  2.932634e+01    7.131399e-01
  2.934222e+01    7.327781e-01
  2.935809e+01    7.320813e-01
  2.937397e+01    7.239904e-01
  2.938984e+01    7.029546e-01
  2.940572e+01    7.051023e-01
  2.942159e+01    7.229204e-01
  2.943747e+01    7.401050e-01
  2.945335e+01    7.414448e-01
  2.946922e+01    7.234750e-01
  2.948510e+01    7.317418e-01
  2.950097e+01    7.404434e-01
  2.951685e+01    7.141259e-01
  2.953272e+01    7.136183e-01
  2.954860e+01    7.133473e-01
  2.956447e+01    7.179040e-01
  2.958035e+01    7.221507e-01
  2.959623e+01    7.324198e-01
  2.961210e+01    7.208655e-01
  2.962798e+01    7.062770e-01
  2.964385e+01    7.226409e-01
  2.965973e+01    7.098356e-01
  2.967560e+01    7.138518e-01
  2.969148e+01    7.269998e-01
  2.970736e+01    7.082074e-01
  2.972323e+01    7.055166e-01
  2.973911e+01    7.228587e-01
  2.975498e+01    7.122068e-01
  2.977086e+01    7.116216e-01
  2.978673e+01    7.111833e-01
  2.980261e+01    6.998566e-01
  2.981848e+01    6.959343e-01
  2.983436e+01    7.120542e-01
  2.985024e+01    6.944975e-01
  2.986611e+01    7.025970e-01
  2.988199e+01    7.077486e-01
  2.989786e+01    7.129807e-01
  2.991374e+01    7.181910e-01
  2.992961e+01    7.129191e-01
  2.994549e+01    6.974239e-01
  2.996136e+01    7.177384e-01
  2.997724e+01    7.159213e-01
  2.999312e+01    7.224446e-01
  3.000899e+01    7.269422e-01
  3.002487e+01    7.207566e-01
  3.004074e+01    7.303630e-01
  3.005662e+01    7.334834e-01
  3.007249e+01    7.150354e-01
  3.008837e+01    7.106050e-01
  3.010424e+01    7.136269e-01
  3.012012e+01    7.144757e-01
  3.013600e+01    7.219840e-01
  3.015187e+01    7.104438e-01
  3.016775e+01    6.935860e-01
  3.018362e+01    6.959762e-01
  3.019950e+01    7.083245e-01
  3.021537e+01    7.120346e-01
  3.023125e+01    7.190500e-01
  3.024712e+01    7.214817e-01
  3.026300e+01    7.181976e-01
  3.027888e+01    7.052515e-01
  3.029475e+01    7.166713e-01
  3.031063e+01    7.042905e-01
  3.032650e+01    7.032267e-01
  3.034238e+01    7.239755e-01
  3.035825e+01    7.241861e-01
  3.037413e+01    6.978449e-01
  3.039000e+01    7.089772e-01
  3.040588e+01    6.984944e-01
  3.042176e+01    6.920846e-01
  3.043763e+01    6.809668e-01
  3.045351e+01    6.966903e-01
  3.046938e+01    7.013422e-01
  3.048526e+01    6.955440e-01
  3.050113e+01    7.185656e-01
  3.051701e+01    7.074276e-01
  3.053288e+01    7.147435e-01
  3.054876e+01    7.125560e-01
  3.056464e+01    7.013494e-01
  3.058051e+01    7.159619e-01
  3.059639e+01    7.226331e-01
  3.061226e+01    7.189243e-01
  3.062814e+01    7.137311e-01
  3.064401e+01    6.966629e-01
  3.065989e+01    7.038668e-01
  3.067577e+01    7.120782e-01
  3.069164e+01    6.970106e-01
  3.070752e+01    6.952712e-01
  3.072339e+01    6.865061e-01
  3.073927e+01    7.151828e-01
  3.075514e+01    7.324301e-01
  3.077102e+01    7.214454e-01
  3.078689e+01    7.154561e-01
  3.080277e+01    6.940890e-01
  3.081865e+01    6.933292e-01
  3.083452e+01    6.993235e-01
  3.085040e+01    7.204671e-01
  3.086627e+01    7.059284e-01
  3.088215e+01    7.117781e-01
  3.089802e+01    7.037032e-01
  3.091390e+01    6.924155e-01
  3.092977e+01    7.180631e-01
  3.094565e+01    7.067733e-01
  3.096153e+01    6.980441e-01
  3.097740e+01    7.242968e-01
  3.099328e+01    7.296656e-01
  3.100915e+01    7.085038e-01
  3.102503e+01    7.191250e-01
  3.104090e+01    7.148085e-01
  3.105678e+01    7.124447e-01
  3.107265e+01    7.077277e-01
  3.108853e+01    7.085856e-01
  3.110441e+01    7.019132e-01
  3.112028e+01    7.031786e-01
  3.113616e+01    7.248102e-01
  3.115203e+01    7.196830e-01
  3.116791e+01    6.939543e-01
  3.118378e+01    6.992061e-01
  3.119966e+01    7.179155e-01
  3.121553e+01    7.213989e-01
  3.123141e+01    7.175639e-01
  3.124729e+01    7.178091e-01
  3.126316e+01    7.023464e-01
  3.127904e+01    7.201459e-01
  3.129491e+01    7.318147e-01
  3.131079e+01    7.363219e-01
  3.132666e+01    7.365596e-01
  3.134254e+01    7.216264e-01
  3.135841e+01    7.290694e-01
  3.137429e+01    7.492070e-01
  3.139017e+01    7.484821e-01
  3.140604e+01    7.425094e-01
  3.142192e+01    7.483038e-01
  3.143779e+01    7.510221e-01
  3.145367e+01    7.529190e-01
  3.146954e+01    7.502550e-01
  3.148542e+01    7.598754e-01
  3.150129e+01    7.521987e-01
  3.151717e+01    7.503950e-01
  3.153305e+01    7.870533e-01
  3.154892e+01    7.719910e-01
  3.156480e+01    7.728101e-01
  3.158067e+01    7.816679e-01
  3.159655e+01    7.933813e-01
  3.161242e+01    8.091347e-01
  3.162830e+01    8.257841e-01
  3.164418e+01    8.542391e-01
  3.166005e+01    8.712646e-01
  3.167593e+01    8.771550e-01
  3.169180e+01    9.250057e-01
  3.170768e+01    9.649920e-01
  3.172355e+01    1.027407e+00
  3.173943e+01    1.055037e+00
  3.175530e+01    1.143912e+00
  3.177118e+01    1.218000e+00
  3.178706e+01    1.318052e+00
  3.180293e+01    1.442411e+00
  3.181881e+01    1.558353e+00
  3.183468e+01    1.709773e+00
  3.185056e+01    1.851122e+00
  3.186643e+01    1.962392e+00
  3.188231e+01    2.050097e+00
  3.189818e+01    2.108734e+00
  3.191406e+01    2.112698e+00
  3.192994e+01    2.043761e+00
  3.194581e+01    1.948296e+00
  3.196169e+01    1.827319e+00
  3.197756e+01    1.674416e+00
  3.199344e+01    1.499239e+00
  3.200931e+01    1.348849e+00
  3.202519e+01    1.240951e+00
  3.204106e+01    1.150276e+00
  3.205694e+01    1.089064e+00
  3.207282e+01    1.000100e+00
  3.208869e+01    9.422314e-01
  3.210457e+01    9.300403e-01
  3.212044e+01    8.915986e-01
  3.213632e+01    8.484626e-01
  3.215219e+01    8.712583e-01
  3.216807e+01    8.363734e-01
  3.218394e+01    8.081622e-01
  3.219982e+01    7.694950e-01
  3.221570e+01    7.895014e-01
  3.223157e+01    7.732183e-01
  3.224745e+01    7.708654e-01
  3.226332e+01    7.609458e-01
  3.227920e+01    7.391294e-01
  3.229507e+01    7.601041e-01
  3.231095e+01    7.568248e-01
  3.232682e+01    7.662768e-01
  3.234270e+01    7.467216e-01
  3.235858e+01    7.429456e-01
  3.237445e+01    7.146556e-01
  3.239033e+01    7.198356e-01
  3.240620e+01    7.103091e-01
  3.242208e+01    7.279541e-01
  3.243795e+01    7.144315e-01
  3.245383e+01    7.178741e-01
  3.246970e+01    7.196857e-01
  3.248558e+01    7.101286e-01
  3.250146e+01    7.288163e-01
  3.251733e+01    7.231140e-01
  3.253321e+01    6.987528e-01
  3.254908e+01    7.085871e-01
