# == pyFAI calibration ==
# Distance Sample to Detector: 0.3999999939076516 m
# PONI: 9.750e-02, 1.135e-01 m
# Rotations: -0.000175 0.000000 -0.000000 rad
# 
# == Fit2d calibration ==
# Distance Sample-beamCenter: 400.000 mm
# Center: x=1514.000, y=1300.000 pix
# Tilt: 0.010 deg  TiltPlanRot: 0.010 deg
# 
# Detector Detector	 Spline= None	 PixelSize= 7.500e-05, 7.500e-05 m
#    Detector has a mask: False 
#    Detector has a dark current: False 
#    detector has a flat field: False 
# 
# Wavelength: 6.888e-11 m
# Mask applied: user provided
# Dark current applied: False
# Flat field applied: False
# Polarization factor: 0.99
# Normalization factor: 1.0
# --> /home/myspot/data/2024_07_Rosario/Ru-CGO-ex/2024-07-27_002_Ru-CGO-ex_Activtation_ramp_000002_data_000168.dat
#       q_nm^-1             I 
  2.003187e-02    7.711996e-02
  3.590745e-02    1.701063e-01
  5.178302e-02    1.183982e-01
  6.765859e-02    1.158532e-01
  8.353417e-02    1.945359e-01
  9.940974e-02    1.021657e-01
  1.152853e-01    7.232372e-02
  1.311609e-01    1.626193e-02
  1.470365e-01    1.571496e-02
  1.629120e-01    4.000806e-02
  1.787876e-01    1.442434e-02
  1.946632e-01    9.237427e-03
  2.105388e-01    2.554342e-02
  2.264143e-01    6.670310e-02
  2.422899e-01    2.596704e-02
  2.581655e-01    3.125221e-02
  2.740411e-01    5.202651e-02
  2.899166e-01    2.635629e-02
  3.057922e-01    2.353705e-02
  3.216678e-01    3.945324e-02
  3.375433e-01    4.387087e-02
  3.534189e-01    3.258283e-02
  3.692945e-01    4.243547e-02
  3.851701e-01    3.328905e-02
  4.010456e-01    2.519139e-02
  4.169212e-01    6.995776e-03
  4.327968e-01    2.468981e-02
  4.486724e-01    3.555141e-02
  4.645479e-01    2.398865e-02
  4.804235e-01    1.316408e-02
  4.962991e-01    2.682516e-02
  5.121747e-01    4.929094e-02
  5.280502e-01    1.109728e-02
  5.439258e-01    8.638329e-03
  5.598014e-01    1.723016e-02
  5.756770e-01    4.786726e-02
  5.915525e-01    5.313940e-02
  6.074281e-01    4.430915e-02
  6.233037e-01    6.344323e-02
  6.391793e-01    2.944332e-02
  6.550548e-01    2.348364e-02
  6.709304e-01    3.774886e-02
  6.868060e-01    4.449159e-02
  7.026815e-01    2.286317e-02
  7.185571e-01    2.638412e-02
  7.344327e-01    3.891618e-02
  7.503083e-01    3.536769e-02
  7.661838e-01    3.578622e-02
  7.820594e-01    8.326886e-02
  7.979350e-01    1.408770e-01
  8.138106e-01    1.686970e-01
  8.296861e-01    2.309875e-01
  8.455617e-01    3.357910e-01
  8.614373e-01    4.162904e-01
  8.773129e-01    4.034855e-01
  8.931884e-01    5.145603e-01
  9.090640e-01    6.098213e-01
  9.249396e-01    6.419572e-01
  9.408152e-01    7.516844e-01
  9.566907e-01    8.264449e-01
  9.725663e-01    8.578679e-01
  9.884419e-01    9.544564e-01
  1.004317e+00    1.057645e+00
  1.020193e+00    1.134963e+00
  1.036069e+00    1.105319e+00
  1.051944e+00    1.135642e+00
  1.067820e+00    1.180178e+00
  1.083695e+00    1.261325e+00
  1.099571e+00    1.271568e+00
  1.115446e+00    1.424571e+00
  1.131322e+00    1.389143e+00
  1.147198e+00    1.506737e+00
  1.163073e+00    1.518430e+00
  1.178949e+00    1.496005e+00
  1.194824e+00    1.489001e+00
  1.210700e+00    1.641918e+00
  1.226575e+00    1.849846e+00
  1.242451e+00    2.040383e+00
  1.258327e+00    2.204628e+00
  1.274202e+00    2.259465e+00
  1.290078e+00    2.473804e+00
  1.305953e+00    2.522865e+00
  1.321829e+00    2.654458e+00
  1.337705e+00    2.594235e+00
  1.353580e+00    2.564590e+00
  1.369456e+00    2.561982e+00
  1.385331e+00    2.553690e+00
  1.401207e+00    2.548573e+00
  1.417082e+00    2.768833e+00
  1.432958e+00    2.662224e+00
  1.448834e+00    2.595384e+00
  1.464709e+00    2.761896e+00
  1.480585e+00    2.782492e+00
  1.496460e+00    2.847205e+00
  1.512336e+00    2.791073e+00
  1.528211e+00    2.939695e+00
  1.544087e+00    2.972078e+00
  1.559963e+00    2.868052e+00
  1.575838e+00    3.006962e+00
  1.591714e+00    3.111497e+00
  1.607589e+00    2.943237e+00
  1.623465e+00    2.888726e+00
  1.639340e+00    2.819222e+00
  1.655216e+00    2.793976e+00
  1.671092e+00    2.727307e+00
  1.686967e+00    2.724658e+00
  1.702843e+00    2.767750e+00
  1.718718e+00    2.810721e+00
  1.734594e+00    2.788258e+00
  1.750469e+00    2.777259e+00
  1.766345e+00    2.769133e+00
  1.782221e+00    2.647713e+00
  1.798096e+00    2.637336e+00
  1.813972e+00    2.680633e+00
  1.829847e+00    2.634000e+00
  1.845723e+00    2.667088e+00
  1.861598e+00    2.755202e+00
  1.877474e+00    2.817570e+00
  1.893350e+00    2.749564e+00
  1.909225e+00    2.723021e+00
  1.925101e+00    2.692074e+00
  1.940976e+00    2.685522e+00
  1.956852e+00    2.604865e+00
  1.972727e+00    2.684457e+00
  1.988603e+00    2.730660e+00
  2.004479e+00    2.722752e+00
  2.020354e+00    2.672807e+00
  2.036230e+00    2.590229e+00
  2.052105e+00    2.586834e+00
  2.067981e+00    2.608841e+00
  2.083856e+00    2.660276e+00
  2.099732e+00    2.650216e+00
  2.115608e+00    2.665707e+00
  2.131483e+00    2.706113e+00
  2.147359e+00    2.759616e+00
  2.163234e+00    2.743897e+00
  2.179110e+00    2.739013e+00
  2.194985e+00    2.749875e+00
  2.210861e+00    2.761073e+00
  2.226737e+00    2.754319e+00
  2.242612e+00    2.768182e+00
  2.258488e+00    2.761958e+00
  2.274363e+00    2.792259e+00
  2.290239e+00    2.675924e+00
  2.306115e+00    2.745713e+00
  2.321990e+00    2.828238e+00
  2.337866e+00    2.704812e+00
  2.353741e+00    2.794358e+00
  2.369617e+00    2.715611e+00
  2.385492e+00    2.696993e+00
  2.401368e+00    2.646709e+00
  2.417244e+00    2.681704e+00
  2.433119e+00    2.738538e+00
  2.448995e+00    2.719588e+00
  2.464870e+00    2.714290e+00
  2.480746e+00    2.786396e+00
  2.496621e+00    2.797210e+00
  2.512497e+00    2.751723e+00
  2.528373e+00    2.814868e+00
  2.544248e+00    2.809663e+00
  2.560124e+00    2.747819e+00
  2.575999e+00    2.803597e+00
  2.591875e+00    2.709610e+00
  2.607750e+00    2.756709e+00
  2.623626e+00    2.865420e+00
  2.639502e+00    2.843227e+00
  2.655377e+00    2.782401e+00
  2.671253e+00    2.866761e+00
  2.687128e+00    2.859350e+00
  2.703004e+00    2.697646e+00
  2.718879e+00    2.789539e+00
  2.734755e+00    2.733520e+00
  2.750631e+00    2.739648e+00
  2.766506e+00    2.774450e+00
  2.782382e+00    2.800929e+00
  2.798257e+00    2.851885e+00
  2.814133e+00    2.797042e+00
  2.830008e+00    2.832759e+00
  2.845884e+00    2.858991e+00
  2.861760e+00    2.768115e+00
  2.877635e+00    2.782881e+00
  2.893511e+00    2.817052e+00
  2.909386e+00    2.766995e+00
  2.925262e+00    2.843238e+00
  2.941137e+00    2.911213e+00
  2.957013e+00    2.806115e+00
  2.972889e+00    2.826938e+00
  2.988764e+00    2.965480e+00
  3.004640e+00    2.868377e+00
  3.020515e+00    2.819337e+00
  3.036391e+00    2.810208e+00
  3.052266e+00    2.888468e+00
  3.068142e+00    2.971013e+00
  3.084018e+00    2.852351e+00
  3.099893e+00    2.826815e+00
  3.115769e+00    2.851741e+00
  3.131644e+00    2.891929e+00
  3.147520e+00    3.006853e+00
  3.163395e+00    2.943216e+00
  3.179271e+00    2.882641e+00
  3.195147e+00    2.991623e+00
  3.211022e+00    3.082703e+00
  3.226898e+00    3.043031e+00
  3.242773e+00    2.911104e+00
  3.258649e+00    2.981329e+00
  3.274525e+00    2.979018e+00
  3.290400e+00    2.918975e+00
  3.306276e+00    2.923815e+00
  3.322151e+00    3.056065e+00
  3.338027e+00    3.007579e+00
  3.353902e+00    2.986757e+00
  3.369778e+00    3.040376e+00
  3.385654e+00    3.069997e+00
  3.401529e+00    3.060901e+00
  3.417405e+00    3.048013e+00
  3.433280e+00    3.023105e+00
  3.449156e+00    3.016135e+00
  3.465031e+00    2.985030e+00
  3.480907e+00    2.893786e+00
  3.496783e+00    2.956620e+00
  3.512658e+00    2.975203e+00
  3.528534e+00    2.994576e+00
  3.544409e+00    3.113887e+00
  3.560285e+00    2.980229e+00
  3.576160e+00    2.999242e+00
  3.592036e+00    2.989423e+00
  3.607912e+00    2.865099e+00
  3.623787e+00    2.897942e+00
  3.639663e+00    2.945174e+00
  3.655538e+00    2.906388e+00
  3.671414e+00    2.996385e+00
  3.687289e+00    3.023881e+00
  3.703165e+00    3.065192e+00
  3.719041e+00    3.025405e+00
  3.734916e+00    3.105414e+00
  3.750792e+00    3.049095e+00
  3.766667e+00    3.006276e+00
  3.782543e+00    2.996119e+00
  3.798418e+00    3.033938e+00
  3.814294e+00    3.079300e+00
  3.830170e+00    3.041820e+00
  3.846045e+00    3.046102e+00
  3.861921e+00    3.040941e+00
  3.877796e+00    3.012611e+00
  3.893672e+00    2.962350e+00
  3.909547e+00    2.998455e+00
  3.925423e+00    3.096161e+00
  3.941299e+00    3.185206e+00
  3.957174e+00    3.074703e+00
  3.973050e+00    3.063046e+00
  3.988925e+00    3.111365e+00
  4.004801e+00    3.051454e+00
  4.020676e+00    3.006268e+00
  4.036552e+00    2.979660e+00
  4.052428e+00    3.059601e+00
  4.068303e+00    3.016106e+00
  4.084179e+00    3.019592e+00
  4.100054e+00    3.056849e+00
  4.115930e+00    3.010406e+00
  4.131806e+00    2.922200e+00
  4.147681e+00    2.937943e+00
  4.163557e+00    2.983398e+00
  4.179432e+00    3.016967e+00
  4.195308e+00    3.069499e+00
  4.211183e+00    3.019079e+00
  4.227059e+00    3.006258e+00
  4.242935e+00    3.028068e+00
  4.258810e+00    3.021114e+00
  4.274686e+00    3.051525e+00
  4.290561e+00    3.106419e+00
  4.306437e+00    3.104701e+00
  4.322312e+00    3.162134e+00
  4.338188e+00    2.997911e+00
  4.354064e+00    2.943813e+00
  4.369939e+00    3.002289e+00
  4.385815e+00    2.995258e+00
  4.401690e+00    2.994916e+00
  4.417566e+00    3.082009e+00
  4.433441e+00    3.064537e+00
  4.449317e+00    3.002023e+00
  4.465193e+00    3.092791e+00
  4.481068e+00    3.093759e+00
  4.496944e+00    3.139166e+00
  4.512819e+00    3.064238e+00
  4.528695e+00    3.083015e+00
  4.544570e+00    3.075117e+00
  4.560446e+00    3.084803e+00
  4.576322e+00    3.077571e+00
  4.592197e+00    3.142390e+00
  4.608073e+00    3.105809e+00
  4.623948e+00    3.125324e+00
  4.639824e+00    3.221520e+00
  4.655699e+00    3.177773e+00
  4.671575e+00    3.012071e+00
  4.687451e+00    3.055445e+00
  4.703326e+00    3.054038e+00
  4.719202e+00    3.111263e+00
  4.735077e+00    3.140207e+00
  4.750953e+00    3.153016e+00
  4.766828e+00    3.105824e+00
  4.782704e+00    3.178970e+00
  4.798580e+00    3.193068e+00
  4.814455e+00    3.212504e+00
  4.830331e+00    3.218972e+00
  4.846206e+00    3.176054e+00
  4.862082e+00    3.067394e+00
  4.877957e+00    3.074605e+00
  4.893833e+00    3.145917e+00
  4.909709e+00    3.153259e+00
  4.925584e+00    3.173327e+00
  4.941460e+00    3.182393e+00
  4.957335e+00    3.175929e+00
  4.973211e+00    3.150671e+00
  4.989086e+00    3.115296e+00
  5.004962e+00    3.100912e+00
  5.020838e+00    3.133832e+00
  5.036713e+00    3.122225e+00
  5.052589e+00    3.162397e+00
  5.068464e+00    3.095256e+00
  5.084340e+00    3.091067e+00
  5.100216e+00    3.125486e+00
  5.116091e+00    3.097112e+00
  5.131967e+00    3.110877e+00
  5.147842e+00    3.127827e+00
  5.163718e+00    3.178377e+00
  5.179593e+00    3.158341e+00
  5.195469e+00    3.243003e+00
  5.211345e+00    3.252413e+00
  5.227220e+00    3.191391e+00
  5.243096e+00    3.116140e+00
  5.258971e+00    3.143967e+00
  5.274847e+00    3.126698e+00
  5.290722e+00    3.061433e+00
  5.306598e+00    3.141866e+00
  5.322474e+00    3.134687e+00
  5.338349e+00    3.177317e+00
  5.354225e+00    3.063912e+00
  5.370100e+00    3.106944e+00
  5.385976e+00    3.099882e+00
  5.401851e+00    3.088964e+00
  5.417727e+00    3.153548e+00
  5.433603e+00    3.081241e+00
  5.449478e+00    3.168953e+00
  5.465354e+00    3.171627e+00
  5.481229e+00    3.099175e+00
  5.497105e+00    3.113337e+00
  5.512980e+00    3.126806e+00
  5.528856e+00    3.065356e+00
  5.544732e+00    3.024133e+00
  5.560607e+00    3.091572e+00
  5.576483e+00    3.087880e+00
  5.592358e+00    3.109981e+00
  5.608234e+00    3.155721e+00
  5.624109e+00    3.135808e+00
  5.639985e+00    3.128710e+00
  5.655861e+00    3.067553e+00
  5.671736e+00    3.032246e+00
  5.687612e+00    3.139403e+00
  5.703487e+00    3.146515e+00
  5.719363e+00    3.119777e+00
  5.735238e+00    3.037381e+00
  5.751114e+00    3.060938e+00
  5.766990e+00    3.058928e+00
  5.782865e+00    3.043140e+00
  5.798741e+00    3.044650e+00
  5.814616e+00    2.930119e+00
  5.830492e+00    2.964221e+00
  5.846367e+00    3.042670e+00
  5.862243e+00    3.020813e+00
  5.878119e+00    3.028048e+00
  5.893994e+00    3.148308e+00
  5.909870e+00    3.116482e+00
  5.925745e+00    3.097913e+00
  5.941621e+00    3.070777e+00
  5.957497e+00    3.040065e+00
  5.973372e+00    3.018652e+00
  5.989248e+00    2.976427e+00
  6.005123e+00    3.015811e+00
  6.020999e+00    3.033842e+00
  6.036874e+00    3.069276e+00
  6.052750e+00    3.105203e+00
  6.068626e+00    3.071420e+00
  6.084501e+00    3.087556e+00
  6.100377e+00    3.111499e+00
  6.116252e+00    3.089327e+00
  6.132128e+00    3.070935e+00
  6.148003e+00    3.040187e+00
  6.163879e+00    3.107259e+00
  6.179755e+00    3.050018e+00
  6.195630e+00    3.061342e+00
  6.211506e+00    3.028454e+00
  6.227381e+00    3.021266e+00
  6.243257e+00    3.078591e+00
  6.259132e+00    3.110841e+00
  6.275008e+00    3.102879e+00
  6.290884e+00    3.102051e+00
  6.306759e+00    3.031847e+00
  6.322635e+00    3.037847e+00
  6.338510e+00    3.060090e+00
  6.354386e+00    3.069912e+00
  6.370261e+00    3.020773e+00
  6.386137e+00    3.053326e+00
  6.402013e+00    3.013059e+00
  6.417888e+00    3.036677e+00
  6.433764e+00    3.087892e+00
  6.449639e+00    3.065470e+00
  6.465515e+00    3.045855e+00
  6.481390e+00    3.032774e+00
  6.497266e+00    3.087259e+00
  6.513142e+00    3.119197e+00
  6.529017e+00    3.086202e+00
  6.544893e+00    3.066332e+00
  6.560768e+00    3.039125e+00
  6.576644e+00    3.048351e+00
  6.592519e+00    3.070835e+00
  6.608395e+00    3.122349e+00
  6.624271e+00    3.054664e+00
  6.640146e+00    3.064269e+00
  6.656022e+00    3.070434e+00
  6.671897e+00    3.049003e+00
  6.687773e+00    3.049369e+00
  6.703648e+00    3.068977e+00
  6.719524e+00    3.032380e+00
  6.735400e+00    3.007326e+00
  6.751275e+00    3.035880e+00
  6.767151e+00    3.002308e+00
  6.783026e+00    3.037471e+00
  6.798902e+00    3.018420e+00
  6.814777e+00    3.045660e+00
  6.830653e+00    3.031451e+00
  6.846529e+00    3.050781e+00
  6.862404e+00    3.069679e+00
  6.878280e+00    3.081814e+00
  6.894155e+00    2.994112e+00
  6.910031e+00    3.019825e+00
  6.925907e+00    3.031590e+00
  6.941782e+00    3.040487e+00
  6.957658e+00    3.003514e+00
  6.973533e+00    2.989845e+00
  6.989409e+00    2.985910e+00
  7.005284e+00    3.067986e+00
  7.021160e+00    3.001542e+00
  7.037036e+00    3.027467e+00
  7.052911e+00    3.048163e+00
  7.068787e+00    2.986943e+00
  7.084662e+00    2.995247e+00
  7.100538e+00    2.977778e+00
  7.116413e+00    2.975632e+00
  7.132289e+00    2.991104e+00
  7.148165e+00    3.000180e+00
  7.164040e+00    3.008738e+00
  7.179916e+00    3.038345e+00
  7.195791e+00    3.012489e+00
  7.211667e+00    3.005769e+00
  7.227542e+00    3.063815e+00
  7.243418e+00    3.049505e+00
  7.259294e+00    3.034111e+00
  7.275169e+00    3.007295e+00
  7.291045e+00    3.066980e+00
  7.306920e+00    3.069681e+00
  7.322796e+00    3.034863e+00
  7.338671e+00    3.031572e+00
  7.354547e+00    3.013183e+00
  7.370423e+00    3.038494e+00
  7.386298e+00    3.042805e+00
  7.402174e+00    3.002857e+00
  7.418049e+00    3.031556e+00
  7.433925e+00    2.980640e+00
  7.449800e+00    2.991379e+00
  7.465676e+00    3.047122e+00
  7.481552e+00    3.035335e+00
  7.497427e+00    3.028057e+00
  7.513303e+00    2.978932e+00
  7.529178e+00    2.969591e+00
  7.545054e+00    3.001255e+00
  7.560929e+00    2.965061e+00
  7.576805e+00    2.933934e+00
  7.592681e+00    2.990934e+00
  7.608556e+00    2.972681e+00
  7.624432e+00    2.985916e+00
  7.640307e+00    2.963021e+00
  7.656183e+00    3.023096e+00
  7.672058e+00    2.977495e+00
  7.687934e+00    2.951485e+00
  7.703810e+00    2.982433e+00
  7.719685e+00    2.964578e+00
  7.735561e+00    2.965689e+00
  7.751436e+00    2.948773e+00
  7.767312e+00    2.950775e+00
  7.783187e+00    2.947636e+00
  7.799063e+00    2.913081e+00
  7.814939e+00    2.953952e+00
  7.830814e+00    2.943290e+00
  7.846690e+00    2.903123e+00
  7.862565e+00    2.846145e+00
  7.878441e+00    2.907891e+00
  7.894317e+00    2.939820e+00
  7.910192e+00    2.957365e+00
  7.926068e+00    2.967908e+00
  7.941943e+00    2.950914e+00
  7.957819e+00    2.913337e+00
  7.973694e+00    2.925343e+00
  7.989570e+00    2.934696e+00
  8.005446e+00    2.970219e+00
  8.021321e+00    2.991242e+00
  8.037197e+00    2.976200e+00
  8.053072e+00    2.925958e+00
  8.068948e+00    2.944328e+00
  8.084823e+00    2.951117e+00
  8.100699e+00    2.968655e+00
  8.116575e+00    2.994286e+00
  8.132450e+00    2.945812e+00
  8.148326e+00    2.970832e+00
  8.164201e+00    3.058756e+00
  8.180077e+00    3.002098e+00
  8.195952e+00    2.957694e+00
  8.211828e+00    2.982237e+00
  8.227704e+00    3.017142e+00
  8.243579e+00    2.949557e+00
  8.259455e+00    2.976509e+00
  8.275330e+00    2.910884e+00
  8.291206e+00    2.936754e+00
  8.307081e+00    2.920002e+00
  8.322957e+00    2.941145e+00
  8.338833e+00    2.841203e+00
  8.354708e+00    2.831558e+00
  8.370584e+00    2.892598e+00
  8.386459e+00    2.959613e+00
  8.402335e+00    2.865779e+00
  8.418210e+00    2.879443e+00
  8.434086e+00    2.905249e+00
  8.449962e+00    2.911572e+00
  8.465837e+00    2.868564e+00
  8.481713e+00    2.837035e+00
  8.497588e+00    2.878329e+00
  8.513464e+00    2.921436e+00
  8.529339e+00    2.917580e+00
  8.545215e+00    2.894170e+00
  8.561091e+00    2.874277e+00
  8.576966e+00    2.873529e+00
  8.592842e+00    2.826979e+00
  8.608717e+00    2.876651e+00
  8.624593e+00    2.876725e+00
  8.640468e+00    2.872960e+00
  8.656344e+00    2.812605e+00
  8.672220e+00    2.881621e+00
  8.688095e+00    2.895641e+00
  8.703971e+00    2.876090e+00
  8.719846e+00    2.874881e+00
  8.735722e+00    2.927180e+00
  8.751598e+00    2.903178e+00
  8.767473e+00    2.878328e+00
  8.783349e+00    2.844421e+00
  8.799224e+00    2.855713e+00
  8.815100e+00    2.852550e+00
  8.830975e+00    2.845739e+00
  8.846851e+00    2.852429e+00
  8.862727e+00    2.820056e+00
  8.878602e+00    2.806406e+00
  8.894478e+00    2.803019e+00
  8.910353e+00    2.842921e+00
  8.926229e+00    2.830736e+00
  8.942104e+00    2.860075e+00
  8.957980e+00    2.854816e+00
  8.973856e+00    2.788308e+00
  8.989731e+00    2.816769e+00
  9.005607e+00    2.822917e+00
  9.021482e+00    2.834634e+00
  9.037358e+00    2.783587e+00
  9.053233e+00    2.796416e+00
  9.069109e+00    2.798960e+00
  9.084985e+00    2.830405e+00
  9.100860e+00    2.806557e+00
  9.116736e+00    2.864185e+00
  9.132611e+00    2.880682e+00
  9.148487e+00    2.831476e+00
  9.164362e+00    2.794243e+00
  9.180238e+00    2.810018e+00
  9.196114e+00    2.757831e+00
  9.211989e+00    2.820655e+00
  9.227865e+00    2.839235e+00
  9.243740e+00    2.801945e+00
  9.259616e+00    2.778957e+00
  9.275491e+00    2.808256e+00
  9.291367e+00    2.743535e+00
  9.307243e+00    2.800814e+00
  9.323118e+00    2.801928e+00
  9.338994e+00    2.849946e+00
  9.354869e+00    2.834312e+00
  9.370745e+00    2.820548e+00
  9.386620e+00    2.764560e+00
  9.402496e+00    2.782963e+00
  9.418372e+00    2.750615e+00
  9.434247e+00    2.773151e+00
  9.450123e+00    2.802833e+00
  9.465998e+00    2.766948e+00
  9.481874e+00    2.751432e+00
  9.497749e+00    2.761375e+00
  9.513625e+00    2.756489e+00
  9.529501e+00    2.793508e+00
  9.545376e+00    2.794988e+00
  9.561252e+00    2.818190e+00
  9.577127e+00    2.828847e+00
  9.593003e+00    2.767599e+00
  9.608878e+00    2.726243e+00
  9.624754e+00    2.762773e+00
  9.640630e+00    2.798845e+00
  9.656505e+00    2.735969e+00
  9.672381e+00    2.748166e+00
  9.688256e+00    2.783083e+00
  9.704132e+00    2.727055e+00
  9.720008e+00    2.750744e+00
  9.735883e+00    2.759236e+00
  9.751759e+00    2.741039e+00
  9.767634e+00    2.724687e+00
  9.783510e+00    2.766667e+00
  9.799385e+00    2.723507e+00
  9.815261e+00    2.698691e+00
  9.831137e+00    2.691017e+00
  9.847012e+00    2.690685e+00
  9.862888e+00    2.720592e+00
  9.878763e+00    2.699301e+00
  9.894639e+00    2.683732e+00
  9.910514e+00    2.705697e+00
  9.926390e+00    2.722590e+00
  9.942266e+00    2.714554e+00
  9.958141e+00    2.750684e+00
  9.974017e+00    2.719962e+00
  9.989892e+00    2.706362e+00
  1.000577e+01    2.721839e+00
  1.002164e+01    2.710891e+00
  1.003752e+01    2.725941e+00
  1.005339e+01    2.715999e+00
  1.006927e+01    2.706814e+00
  1.008515e+01    2.690413e+00
  1.010102e+01    2.713931e+00
  1.011690e+01    2.729502e+00
  1.013277e+01    2.714135e+00
  1.014865e+01    2.641916e+00
  1.016452e+01    2.631967e+00
  1.018040e+01    2.625183e+00
  1.019627e+01    2.641504e+00
  1.021215e+01    2.638345e+00
  1.022803e+01    2.634024e+00
  1.024390e+01    2.621848e+00
  1.025978e+01    2.655078e+00
  1.027565e+01    2.633648e+00
  1.029153e+01    2.607224e+00
  1.030740e+01    2.652349e+00
  1.032328e+01    2.640627e+00
  1.033915e+01    2.631143e+00
  1.035503e+01    2.657128e+00
  1.037091e+01    2.620130e+00
  1.038678e+01    2.621409e+00
  1.040266e+01    2.614044e+00
  1.041853e+01    2.600706e+00
  1.043441e+01    2.636211e+00
  1.045028e+01    2.593791e+00
  1.046616e+01    2.570218e+00
  1.048204e+01    2.571340e+00
  1.049791e+01    2.581310e+00
  1.051379e+01    2.582709e+00
  1.052966e+01    2.575869e+00
  1.054554e+01    2.584963e+00
  1.056141e+01    2.628232e+00
  1.057729e+01    2.618243e+00
  1.059316e+01    2.604796e+00
  1.060904e+01    2.600132e+00
  1.062492e+01    2.593140e+00
  1.064079e+01    2.590795e+00
  1.065667e+01    2.584734e+00
  1.067254e+01    2.533874e+00
  1.068842e+01    2.550850e+00
  1.070429e+01    2.603127e+00
  1.072017e+01    2.550324e+00
  1.073604e+01    2.537720e+00
  1.075192e+01    2.558743e+00
  1.076780e+01    2.549330e+00
  1.078367e+01    2.514529e+00
  1.079955e+01    2.545303e+00
  1.081542e+01    2.556124e+00
  1.083130e+01    2.488822e+00
  1.084717e+01    2.524105e+00
  1.086305e+01    2.494322e+00
  1.087892e+01    2.529328e+00
  1.089480e+01    2.540047e+00
  1.091068e+01    2.519597e+00
  1.092655e+01    2.506129e+00
  1.094243e+01    2.547161e+00
  1.095830e+01    2.496819e+00
  1.097418e+01    2.492782e+00
  1.099005e+01    2.480079e+00
  1.100593e+01    2.495511e+00
  1.102180e+01    2.486469e+00
  1.103768e+01    2.490283e+00
  1.105356e+01    2.470129e+00
  1.106943e+01    2.479341e+00
  1.108531e+01    2.521670e+00
  1.110118e+01    2.515354e+00
  1.111706e+01    2.502175e+00
  1.113293e+01    2.490594e+00
  1.114881e+01    2.467371e+00
  1.116468e+01    2.513633e+00
  1.118056e+01    2.504091e+00
  1.119644e+01    2.467554e+00
  1.121231e+01    2.501828e+00
  1.122819e+01    2.520388e+00
  1.124406e+01    2.471298e+00
  1.125994e+01    2.453559e+00
  1.127581e+01    2.473595e+00
  1.129169e+01    2.460020e+00
  1.130756e+01    2.471358e+00
  1.132344e+01    2.470775e+00
  1.133932e+01    2.462012e+00
  1.135519e+01    2.403501e+00
  1.137107e+01    2.398658e+00
  1.138694e+01    2.407399e+00
  1.140282e+01    2.437860e+00
  1.141869e+01    2.418664e+00
  1.143457e+01    2.359136e+00
  1.145045e+01    2.350434e+00
  1.146632e+01    2.424310e+00
  1.148220e+01    2.436441e+00
  1.149807e+01    2.426533e+00
  1.151395e+01    2.428350e+00
  1.152982e+01    2.399397e+00
  1.154570e+01    2.409991e+00
  1.156157e+01    2.404249e+00
  1.157745e+01    2.447700e+00
  1.159333e+01    2.385014e+00
  1.160920e+01    2.401739e+00
  1.162508e+01    2.419342e+00
  1.164095e+01    2.406720e+00
  1.165683e+01    2.388647e+00
  1.167270e+01    2.389091e+00
  1.168858e+01    2.398474e+00
  1.170445e+01    2.403998e+00
  1.172033e+01    2.388415e+00
  1.173621e+01    2.355425e+00
  1.175208e+01    2.362769e+00
  1.176796e+01    2.403668e+00
  1.178383e+01    2.410536e+00
  1.179971e+01    2.379417e+00
  1.181558e+01    2.345047e+00
  1.183146e+01    2.344796e+00
  1.184733e+01    2.333919e+00
  1.186321e+01    2.362425e+00
  1.187909e+01    2.315109e+00
  1.189496e+01    2.339052e+00
  1.191084e+01    2.291876e+00
  1.192671e+01    2.316518e+00
  1.194259e+01    2.341892e+00
  1.195846e+01    2.356509e+00
  1.197434e+01    2.343784e+00
  1.199021e+01    2.341413e+00
  1.200609e+01    2.300879e+00
  1.202197e+01    2.288309e+00
  1.203784e+01    2.346852e+00
  1.205372e+01    2.354398e+00
  1.206959e+01    2.324434e+00
  1.208547e+01    2.308901e+00
  1.210134e+01    2.330451e+00
  1.211722e+01    2.375146e+00
  1.213309e+01    2.338806e+00
  1.214897e+01    2.295874e+00
  1.216485e+01    2.263536e+00
  1.218072e+01    2.292058e+00
  1.219660e+01    2.346190e+00
  1.221247e+01    2.306413e+00
  1.222835e+01    2.309034e+00
  1.224422e+01    2.349009e+00
  1.226010e+01    2.325321e+00
  1.227597e+01    2.321615e+00
  1.229185e+01    2.281090e+00
  1.230773e+01    2.305935e+00
  1.232360e+01    2.334943e+00
  1.233948e+01    2.291994e+00
  1.235535e+01    2.337799e+00
  1.237123e+01    2.328668e+00
  1.238710e+01    2.321774e+00
  1.240298e+01    2.332253e+00
  1.241886e+01    2.325772e+00
  1.243473e+01    2.354987e+00
  1.245061e+01    2.373703e+00
  1.246648e+01    2.336198e+00
  1.248236e+01    2.321084e+00
  1.249823e+01    2.318475e+00
  1.251411e+01    2.374579e+00
  1.252998e+01    2.389623e+00
  1.254586e+01    2.358645e+00
  1.256174e+01    2.383416e+00
  1.257761e+01    2.362943e+00
  1.259349e+01    2.375511e+00
  1.260936e+01    2.424298e+00
  1.262524e+01    2.441742e+00
  1.264111e+01    2.454224e+00
  1.265699e+01    2.473921e+00
  1.267286e+01    2.455963e+00
  1.268874e+01    2.475102e+00
  1.270462e+01    2.484514e+00
  1.272049e+01    2.485130e+00
  1.273637e+01    2.464708e+00
  1.275224e+01    2.506210e+00
  1.276812e+01    2.576433e+00
  1.278399e+01    2.610034e+00
  1.279987e+01    2.603684e+00
  1.281574e+01    2.683518e+00
  1.283162e+01    2.795013e+00
  1.284750e+01    2.848972e+00
  1.286337e+01    2.887717e+00
  1.287925e+01    3.040827e+00
  1.289512e+01    3.142837e+00
  1.291100e+01    3.263822e+00
  1.292687e+01    3.492010e+00
  1.294275e+01    3.783854e+00
  1.295862e+01    3.997040e+00
  1.297450e+01    4.367460e+00
  1.299038e+01    4.886289e+00
  1.300625e+01    5.508645e+00
  1.302213e+01    6.220733e+00
  1.303800e+01    7.145204e+00
  1.305388e+01    8.312881e+00
  1.306975e+01    9.521776e+00
  1.308563e+01    1.076273e+01
  1.310150e+01    1.199477e+01
  1.311738e+01    1.321344e+01
  1.313326e+01    1.433189e+01
  1.314913e+01    1.519789e+01
  1.316501e+01    1.603290e+01
  1.318088e+01    1.630951e+01
  1.319676e+01    1.568654e+01
  1.321263e+01    1.422228e+01
  1.322851e+01    1.241448e+01
  1.324438e+01    1.056882e+01
  1.326026e+01    8.921291e+00
  1.327614e+01    7.568273e+00
  1.329201e+01    6.483041e+00
  1.330789e+01    5.641665e+00
  1.332376e+01    5.002014e+00
  1.333964e+01    4.493288e+00
  1.335551e+01    4.150194e+00
  1.337139e+01    3.797721e+00
  1.338727e+01    3.506506e+00
  1.340314e+01    3.302395e+00
  1.341902e+01    3.158690e+00
  1.343489e+01    2.981371e+00
  1.345077e+01    2.869521e+00
  1.346664e+01    2.787752e+00
  1.348252e+01    2.685198e+00
  1.349839e+01    2.600776e+00
  1.351427e+01    2.586755e+00
  1.353015e+01    2.554461e+00
  1.354602e+01    2.519209e+00
  1.356190e+01    2.448422e+00
  1.357777e+01    2.442267e+00
  1.359365e+01    2.408543e+00
  1.360952e+01    2.386045e+00
  1.362540e+01    2.325308e+00
  1.364127e+01    2.278574e+00
  1.365715e+01    2.248031e+00
  1.367303e+01    2.296371e+00
  1.368890e+01    2.254196e+00
  1.370478e+01    2.223390e+00
  1.372065e+01    2.210006e+00
  1.373653e+01    2.244079e+00
  1.375240e+01    2.220940e+00
  1.376828e+01    2.207121e+00
  1.378415e+01    2.191543e+00
  1.380003e+01    2.185510e+00
  1.381591e+01    2.185885e+00
  1.383178e+01    2.180133e+00
  1.384766e+01    2.144297e+00
  1.386353e+01    2.130005e+00
  1.387941e+01    2.119967e+00
  1.389528e+01    2.117316e+00
  1.391116e+01    2.090154e+00
  1.392703e+01    2.097242e+00
  1.394291e+01    2.067823e+00
  1.395879e+01    2.062702e+00
  1.397466e+01    2.053891e+00
  1.399054e+01    2.076319e+00
  1.400641e+01    2.068419e+00
  1.402229e+01    2.019481e+00
  1.403816e+01    2.052104e+00
  1.405404e+01    2.042608e+00
  1.406991e+01    2.026141e+00
  1.408579e+01    2.001923e+00
  1.410167e+01    2.017281e+00
  1.411754e+01    2.026517e+00
  1.413342e+01    1.971616e+00
  1.414929e+01    1.972042e+00
  1.416517e+01    2.001953e+00
  1.418104e+01    2.010312e+00
  1.419692e+01    1.972156e+00
  1.421279e+01    1.987161e+00
  1.422867e+01    2.004995e+00
  1.424455e+01    2.025096e+00
  1.426042e+01    1.991239e+00
  1.427630e+01    1.988847e+00
  1.429217e+01    1.962906e+00
  1.430805e+01    1.984228e+00
  1.432392e+01    2.013482e+00
  1.433980e+01    2.009166e+00
  1.435568e+01    1.993339e+00
  1.437155e+01    1.964514e+00
  1.438743e+01    1.964070e+00
  1.440330e+01    1.951742e+00
  1.441918e+01    1.922024e+00
  1.443505e+01    1.945929e+00
  1.445093e+01    1.947413e+00
  1.446680e+01    1.928420e+00
  1.448268e+01    1.949721e+00
  1.449856e+01    1.945904e+00
  1.451443e+01    1.899162e+00
  1.453031e+01    1.894108e+00
  1.454618e+01    1.928815e+00
  1.456206e+01    1.914586e+00
  1.457793e+01    1.907260e+00
  1.459381e+01    1.905354e+00
  1.460968e+01    1.887578e+00
  1.462556e+01    1.892295e+00
  1.464144e+01    1.911735e+00
  1.465731e+01    1.929762e+00
  1.467319e+01    1.949064e+00
  1.468906e+01    1.968565e+00
  1.470494e+01    1.953149e+00
  1.472081e+01    1.905632e+00
  1.473669e+01    1.893923e+00
  1.475256e+01    1.892552e+00
  1.476844e+01    1.889190e+00
  1.478432e+01    1.926012e+00
  1.480019e+01    1.878282e+00
  1.481607e+01    1.908291e+00
  1.483194e+01    1.941585e+00
  1.484782e+01    1.907654e+00
  1.486369e+01    1.955652e+00
  1.487957e+01    1.990518e+00
  1.489544e+01    1.952147e+00
  1.491132e+01    1.976486e+00
  1.492720e+01    2.001401e+00
  1.494307e+01    2.026184e+00
  1.495895e+01    2.053587e+00
  1.497482e+01    2.028759e+00
  1.499070e+01    2.066063e+00
  1.500657e+01    2.126752e+00
  1.502245e+01    2.207461e+00
  1.503832e+01    2.305880e+00
  1.505420e+01    2.432424e+00
  1.507008e+01    2.542297e+00
  1.508595e+01    2.688921e+00
  1.510183e+01    2.893663e+00
  1.511770e+01    3.150491e+00
  1.513358e+01    3.455603e+00
  1.514945e+01    3.802775e+00
  1.516533e+01    4.235759e+00
  1.518120e+01    4.589412e+00
  1.519708e+01    4.798761e+00
  1.521296e+01    5.084850e+00
  1.522883e+01    5.220486e+00
  1.524471e+01    5.434998e+00
  1.526058e+01    5.554873e+00
  1.527646e+01    5.565177e+00
  1.529233e+01    5.381486e+00
  1.530821e+01    4.970870e+00
  1.532409e+01    4.496566e+00
  1.533996e+01    3.960538e+00
  1.535584e+01    3.511308e+00
  1.537171e+01    3.209175e+00
  1.538759e+01    2.965522e+00
  1.540346e+01    2.679143e+00
  1.541934e+01    2.505637e+00
  1.543521e+01    2.377593e+00
  1.545109e+01    2.242488e+00
  1.546697e+01    2.153155e+00
  1.548284e+01    2.050172e+00
  1.549872e+01    2.022091e+00
  1.551459e+01    2.014677e+00
  1.553047e+01    1.965662e+00
  1.554634e+01    1.872057e+00
  1.556222e+01    1.849075e+00
  1.557809e+01    1.873553e+00
  1.559397e+01    1.854005e+00
  1.560985e+01    1.807746e+00
  1.562572e+01    1.806222e+00
  1.564160e+01    1.776594e+00
  1.565747e+01    1.762397e+00
  1.567335e+01    1.735753e+00
  1.568922e+01    1.720582e+00
  1.570510e+01    1.741516e+00
  1.572097e+01    1.729172e+00
  1.573685e+01    1.732850e+00
  1.575273e+01    1.710821e+00
  1.576860e+01    1.696585e+00
  1.578448e+01    1.665244e+00
  1.580035e+01    1.641942e+00
  1.581623e+01    1.683486e+00
  1.583210e+01    1.705886e+00
  1.584798e+01    1.678651e+00
  1.586385e+01    1.652519e+00
  1.587973e+01    1.647267e+00
  1.589561e+01    1.646294e+00
  1.591148e+01    1.619153e+00
  1.592736e+01    1.620182e+00
  1.594323e+01    1.597278e+00
  1.595911e+01    1.642877e+00
  1.597498e+01    1.636238e+00
  1.599086e+01    1.599875e+00
  1.600673e+01    1.600304e+00
  1.602261e+01    1.603387e+00
  1.603849e+01    1.627503e+00
  1.605436e+01    1.609347e+00
  1.607024e+01    1.619146e+00
  1.608611e+01    1.591578e+00
  1.610199e+01    1.588770e+00
  1.611786e+01    1.607749e+00
  1.613374e+01    1.568811e+00
  1.614961e+01    1.564255e+00
  1.616549e+01    1.570981e+00
  1.618137e+01    1.570119e+00
  1.619724e+01    1.560626e+00
  1.621312e+01    1.566128e+00
  1.622899e+01    1.559543e+00
  1.624487e+01    1.561916e+00
  1.626074e+01    1.542829e+00
  1.627662e+01    1.587594e+00
  1.629250e+01    1.566278e+00
  1.630837e+01    1.570656e+00
  1.632425e+01    1.532792e+00
  1.634012e+01    1.525507e+00
  1.635600e+01    1.539250e+00
  1.637187e+01    1.512852e+00
  1.638775e+01    1.524470e+00
  1.640362e+01    1.509040e+00
  1.641950e+01    1.497180e+00
  1.643538e+01    1.514892e+00
  1.645125e+01    1.536859e+00
  1.646713e+01    1.516754e+00
  1.648300e+01    1.488875e+00
  1.649888e+01    1.508604e+00
  1.651475e+01    1.489700e+00
  1.653063e+01    1.503433e+00
  1.654650e+01    1.516590e+00
  1.656238e+01    1.496320e+00
  1.657826e+01    1.513112e+00
  1.659413e+01    1.519671e+00
  1.661001e+01    1.508052e+00
  1.662588e+01    1.486386e+00
  1.664176e+01    1.489637e+00
  1.665763e+01    1.471853e+00
  1.667351e+01    1.484569e+00
  1.668938e+01    1.465778e+00
  1.670526e+01    1.480439e+00
  1.672114e+01    1.497991e+00
  1.673701e+01    1.518654e+00
  1.675289e+01    1.496176e+00
  1.676876e+01    1.522274e+00
  1.678464e+01    1.490560e+00
  1.680051e+01    1.465281e+00
  1.681639e+01    1.479807e+00
  1.683226e+01    1.460767e+00
  1.684814e+01    1.473947e+00
  1.686402e+01    1.473270e+00
  1.687989e+01    1.450663e+00
  1.689577e+01    1.435910e+00
  1.691164e+01    1.440139e+00
  1.692752e+01    1.416010e+00
  1.694339e+01    1.437085e+00
  1.695927e+01    1.446123e+00
  1.697514e+01    1.450551e+00
  1.699102e+01    1.433674e+00
  1.700690e+01    1.460304e+00
  1.702277e+01    1.442334e+00
  1.703865e+01    1.446363e+00
  1.705452e+01    1.424958e+00
  1.707040e+01    1.457708e+00
  1.708627e+01    1.429270e+00
  1.710215e+01    1.422039e+00
  1.711802e+01    1.406708e+00
  1.713390e+01    1.406701e+00
  1.714978e+01    1.402469e+00
  1.716565e+01    1.394052e+00
  1.718153e+01    1.428001e+00
  1.719740e+01    1.421159e+00
  1.721328e+01    1.419435e+00
  1.722915e+01    1.395683e+00
  1.724503e+01    1.399633e+00
  1.726091e+01    1.407509e+00
  1.727678e+01    1.372828e+00
  1.729266e+01    1.364823e+00
  1.730853e+01    1.381145e+00
  1.732441e+01    1.397621e+00
  1.734028e+01    1.394699e+00
  1.735616e+01    1.367704e+00
  1.737203e+01    1.397490e+00
  1.738791e+01    1.412071e+00
  1.740379e+01    1.363342e+00
  1.741966e+01    1.335979e+00
  1.743554e+01    1.359413e+00
  1.745141e+01    1.358529e+00
  1.746729e+01    1.381385e+00
  1.748316e+01    1.381903e+00
  1.749904e+01    1.364912e+00
  1.751491e+01    1.373474e+00
  1.753079e+01    1.372472e+00
  1.754667e+01    1.355001e+00
  1.756254e+01    1.342558e+00
  1.757842e+01    1.361872e+00
  1.759429e+01    1.340677e+00
  1.761017e+01    1.354866e+00
  1.762604e+01    1.358460e+00
  1.764192e+01    1.353909e+00
  1.765779e+01    1.343982e+00
  1.767367e+01    1.348883e+00
  1.768955e+01    1.345698e+00
  1.770542e+01    1.326372e+00
  1.772130e+01    1.343035e+00
  1.773717e+01    1.334494e+00
  1.775305e+01    1.340485e+00
  1.776892e+01    1.315133e+00
  1.778480e+01    1.304658e+00
  1.780067e+01    1.305397e+00
  1.781655e+01    1.322441e+00
  1.783243e+01    1.322127e+00
  1.784830e+01    1.306969e+00
  1.786418e+01    1.324647e+00
  1.788005e+01    1.318548e+00
  1.789593e+01    1.306640e+00
  1.791180e+01    1.300303e+00
  1.792768e+01    1.336029e+00
  1.794355e+01    1.330028e+00
  1.795943e+01    1.328277e+00
  1.797531e+01    1.307594e+00
  1.799118e+01    1.308327e+00
  1.800706e+01    1.348889e+00
  1.802293e+01    1.327508e+00
  1.803881e+01    1.320040e+00
  1.805468e+01    1.299863e+00
  1.807056e+01    1.293352e+00
  1.808643e+01    1.293994e+00
  1.810231e+01    1.310044e+00
  1.811819e+01    1.321087e+00
  1.813406e+01    1.307040e+00
  1.814994e+01    1.297408e+00
  1.816581e+01    1.291427e+00
  1.818169e+01    1.301889e+00
  1.819756e+01    1.281744e+00
  1.821344e+01    1.285906e+00
  1.822932e+01    1.308115e+00
  1.824519e+01    1.293116e+00
  1.826107e+01    1.268977e+00
  1.827694e+01    1.253304e+00
  1.829282e+01    1.251632e+00
  1.830869e+01    1.257416e+00
  1.832457e+01    1.259726e+00
  1.834044e+01    1.284282e+00
  1.835632e+01    1.269107e+00
  1.837220e+01    1.248351e+00
  1.838807e+01    1.263237e+00
  1.840395e+01    1.257736e+00
  1.841982e+01    1.259324e+00
  1.843570e+01    1.242991e+00
  1.845157e+01    1.261228e+00
  1.846745e+01    1.284242e+00
  1.848332e+01    1.252911e+00
  1.849920e+01    1.239655e+00
  1.851508e+01    1.243671e+00
  1.853095e+01    1.234970e+00
  1.854683e+01    1.253520e+00
  1.856270e+01    1.246326e+00
  1.857858e+01    1.265041e+00
  1.859445e+01    1.270143e+00
  1.861033e+01    1.250963e+00
  1.862620e+01    1.249016e+00
  1.864208e+01    1.244159e+00
  1.865796e+01    1.227852e+00
  1.867383e+01    1.235369e+00
  1.868971e+01    1.244021e+00
  1.870558e+01    1.248980e+00
  1.872146e+01    1.259474e+00
  1.873733e+01    1.235912e+00
  1.875321e+01    1.226242e+00
  1.876908e+01    1.207127e+00
  1.878496e+01    1.213972e+00
  1.880084e+01    1.202186e+00
  1.881671e+01    1.209017e+00
  1.883259e+01    1.201612e+00
  1.884846e+01    1.220259e+00
  1.886434e+01    1.240834e+00
  1.888021e+01    1.237545e+00
  1.889609e+01    1.219286e+00
  1.891196e+01    1.219934e+00
  1.892784e+01    1.187203e+00
  1.894372e+01    1.200099e+00
  1.895959e+01    1.182861e+00
  1.897547e+01    1.194822e+00
  1.899134e+01    1.194239e+00
  1.900722e+01    1.192601e+00
  1.902309e+01    1.187504e+00
  1.903897e+01    1.209700e+00
  1.905484e+01    1.208611e+00
  1.907072e+01    1.195910e+00
  1.908660e+01    1.178496e+00
  1.910247e+01    1.203676e+00
  1.911835e+01    1.199645e+00
  1.913422e+01    1.201726e+00
  1.915010e+01    1.217178e+00
  1.916597e+01    1.197708e+00
  1.918185e+01    1.199451e+00
  1.919773e+01    1.221908e+00
  1.921360e+01    1.178894e+00
  1.922948e+01    1.191587e+00
  1.924535e+01    1.173591e+00
  1.926123e+01    1.189958e+00
  1.927710e+01    1.169231e+00
  1.929298e+01    1.190263e+00
  1.930885e+01    1.204288e+00
  1.932473e+01    1.188860e+00
  1.934061e+01    1.164293e+00
  1.935648e+01    1.145350e+00
  1.937236e+01    1.172419e+00
  1.938823e+01    1.179153e+00
  1.940411e+01    1.166921e+00
  1.941998e+01    1.161572e+00
  1.943586e+01    1.165266e+00
  1.945173e+01    1.187211e+00
  1.946761e+01    1.159435e+00
  1.948349e+01    1.163492e+00
  1.949936e+01    1.173820e+00
  1.951524e+01    1.160962e+00
  1.953111e+01    1.145561e+00
  1.954699e+01    1.147522e+00
  1.956286e+01    1.157793e+00
  1.957874e+01    1.160444e+00
  1.959461e+01    1.166578e+00
  1.961049e+01    1.159660e+00
  1.962637e+01    1.118292e+00
  1.964224e+01    1.145637e+00
  1.965812e+01    1.160422e+00
  1.967399e+01    1.164267e+00
  1.968987e+01    1.169917e+00
  1.970574e+01    1.165004e+00
  1.972162e+01    1.129558e+00
  1.973749e+01    1.146590e+00
  1.975337e+01    1.130913e+00
  1.976925e+01    1.104346e+00
  1.978512e+01    1.127843e+00
  1.980100e+01    1.139152e+00
  1.981687e+01    1.137293e+00
  1.983275e+01    1.146299e+00
  1.984862e+01    1.149923e+00
  1.986450e+01    1.132865e+00
  1.988037e+01    1.116850e+00
  1.989625e+01    1.121214e+00
  1.991213e+01    1.107049e+00
  1.992800e+01    1.113114e+00
  1.994388e+01    1.120127e+00
  1.995975e+01    1.100640e+00
  1.997563e+01    1.105708e+00
  1.999150e+01    1.092032e+00
  2.000738e+01    1.113005e+00
  2.002325e+01    1.120215e+00
  2.003913e+01    1.127647e+00
  2.005501e+01    1.112063e+00
  2.007088e+01    1.107839e+00
  2.008676e+01    1.106289e+00
  2.010263e+01    1.125117e+00
  2.011851e+01    1.120000e+00
  2.013438e+01    1.091866e+00
  2.015026e+01    1.101141e+00
  2.016614e+01    1.123261e+00
  2.018201e+01    1.122014e+00
  2.019789e+01    1.117816e+00
  2.021376e+01    1.102344e+00
  2.022964e+01    1.083031e+00
  2.024551e+01    1.095184e+00
  2.026139e+01    1.098630e+00
  2.027726e+01    1.111570e+00
  2.029314e+01    1.097120e+00
  2.030902e+01    1.071869e+00
  2.032489e+01    1.071951e+00
  2.034077e+01    1.076091e+00
  2.035664e+01    1.100175e+00
  2.037252e+01    1.096583e+00
  2.038839e+01    1.119860e+00
  2.040427e+01    1.096674e+00
  2.042014e+01    1.079322e+00
  2.043602e+01    1.074408e+00
  2.045190e+01    1.097430e+00
  2.046777e+01    1.102163e+00
  2.048365e+01    1.091374e+00
  2.049952e+01    1.088187e+00
  2.051540e+01    1.071376e+00
  2.053127e+01    1.090669e+00
  2.054715e+01    1.054388e+00
  2.056302e+01    1.059067e+00
  2.057890e+01    1.083357e+00
  2.059478e+01    1.063378e+00
  2.061065e+01    1.075833e+00
  2.062653e+01    1.065145e+00
  2.064240e+01    1.090633e+00
  2.065828e+01    1.090379e+00
  2.067415e+01    1.079331e+00
  2.069003e+01    1.089253e+00
  2.070590e+01    1.087751e+00
  2.072178e+01    1.095752e+00
  2.073766e+01    1.100209e+00
  2.075353e+01    1.090851e+00
  2.076941e+01    1.081880e+00
  2.078528e+01    1.086144e+00
  2.080116e+01    1.085141e+00
  2.081703e+01    1.081780e+00
  2.083291e+01    1.085775e+00
  2.084878e+01    1.081446e+00
  2.086466e+01    1.064643e+00
  2.088054e+01    1.083138e+00
  2.089641e+01    1.089332e+00
  2.091229e+01    1.075547e+00
  2.092816e+01    1.070228e+00
  2.094404e+01    1.069006e+00
  2.095991e+01    1.086176e+00
  2.097579e+01    1.078454e+00
  2.099166e+01    1.062952e+00
  2.100754e+01    1.076777e+00
  2.102342e+01    1.075093e+00
  2.103929e+01    1.071444e+00
  2.105517e+01    1.114792e+00
  2.107104e+01    1.118371e+00
  2.108692e+01    1.097824e+00
  2.110279e+01    1.083201e+00
  2.111867e+01    1.075354e+00
  2.113455e+01    1.088567e+00
  2.115042e+01    1.067747e+00
  2.116630e+01    1.067015e+00
  2.118217e+01    1.072709e+00
  2.119805e+01    1.063268e+00
  2.121392e+01    1.081975e+00
  2.122980e+01    1.128505e+00
  2.124567e+01    1.116274e+00
  2.126155e+01    1.103657e+00
  2.127743e+01    1.110116e+00
  2.129330e+01    1.112623e+00
  2.130918e+01    1.113934e+00
  2.132505e+01    1.119505e+00
  2.134093e+01    1.139967e+00
  2.135680e+01    1.127914e+00
  2.137268e+01    1.144430e+00
  2.138855e+01    1.144426e+00
  2.140443e+01    1.159605e+00
  2.142031e+01    1.204472e+00
  2.143618e+01    1.221030e+00
  2.145206e+01    1.228535e+00
  2.146793e+01    1.223177e+00
  2.148381e+01    1.244169e+00
  2.149968e+01    1.293475e+00
  2.151556e+01    1.346525e+00
  2.153143e+01    1.368258e+00
  2.154731e+01    1.380094e+00
  2.156319e+01    1.406360e+00
  2.157906e+01    1.454995e+00
  2.159494e+01    1.545391e+00
  2.161081e+01    1.621348e+00
  2.162669e+01    1.718832e+00
  2.164256e+01    1.848635e+00
  2.165844e+01    1.984302e+00
  2.167431e+01    2.139007e+00
  2.169019e+01    2.346713e+00
  2.170607e+01    2.624543e+00
  2.172194e+01    2.945503e+00
  2.173782e+01    3.364856e+00
  2.175369e+01    3.852144e+00
  2.176957e+01    4.390749e+00
  2.178544e+01    4.953896e+00
  2.180132e+01    5.619935e+00
  2.181719e+01    6.269332e+00
  2.183307e+01    6.948779e+00
  2.184895e+01    7.628683e+00
  2.186482e+01    8.220862e+00
  2.188070e+01    8.675893e+00
  2.189657e+01    8.932716e+00
  2.191245e+01    8.761500e+00
  2.192832e+01    8.266392e+00
  2.194420e+01    7.493917e+00
  2.196007e+01    6.526181e+00
  2.197595e+01    5.587732e+00
  2.199183e+01    4.723128e+00
  2.200770e+01    4.039034e+00
  2.202358e+01    3.522509e+00
  2.203945e+01    3.072939e+00
  2.205533e+01    2.668524e+00
  2.207120e+01    2.389091e+00
  2.208708e+01    2.158112e+00
  2.210296e+01    2.036212e+00
  2.211883e+01    1.883728e+00
  2.213471e+01    1.727513e+00
  2.215058e+01    1.618591e+00
  2.216646e+01    1.555590e+00
  2.218233e+01    1.480306e+00
  2.219821e+01    1.389182e+00
  2.221408e+01    1.348662e+00
  2.222996e+01    1.307503e+00
  2.224584e+01    1.272032e+00
  2.226171e+01    1.248220e+00
  2.227759e+01    1.221308e+00
  2.229346e+01    1.200792e+00
  2.230934e+01    1.182322e+00
  2.232521e+01    1.154466e+00
  2.234109e+01    1.138462e+00
  2.235696e+01    1.115922e+00
  2.237284e+01    1.116253e+00
  2.238872e+01    1.098480e+00
  2.240459e+01    1.067368e+00
  2.242047e+01    1.074271e+00
  2.243634e+01    1.056428e+00
  2.245222e+01    1.041867e+00
  2.246809e+01    1.035921e+00
  2.248397e+01    1.034115e+00
  2.249984e+01    1.015385e+00
  2.251572e+01    1.006190e+00
  2.253160e+01    9.868487e-01
  2.254747e+01    9.937223e-01
  2.256335e+01    9.873047e-01
  2.257922e+01    9.716330e-01
  2.259510e+01    9.871768e-01
  2.261097e+01    9.679093e-01
  2.262685e+01    9.739735e-01
  2.264272e+01    9.791701e-01
  2.265860e+01    9.730715e-01
  2.267448e+01    9.473406e-01
  2.269035e+01    9.345663e-01
  2.270623e+01    9.536652e-01
  2.272210e+01    9.605348e-01
  2.273798e+01    9.360511e-01
  2.275385e+01    9.364868e-01
  2.276973e+01    9.499978e-01
  2.278560e+01    9.247460e-01
  2.280148e+01    9.047508e-01
  2.281736e+01    9.022387e-01
  2.283323e+01    9.042782e-01
  2.284911e+01    9.132171e-01
  2.286498e+01    9.207122e-01
  2.288086e+01    9.025014e-01
  2.289673e+01    9.184383e-01
  2.291261e+01    9.167483e-01
  2.292848e+01    9.099200e-01
  2.294436e+01    9.031746e-01
  2.296024e+01    9.150294e-01
  2.297611e+01    9.105612e-01
  2.299199e+01    9.134473e-01
  2.300786e+01    9.060192e-01
  2.302374e+01    8.682041e-01
  2.303961e+01    8.846701e-01
  2.305549e+01    9.045523e-01
  2.307137e+01    8.929023e-01
  2.308724e+01    8.744795e-01
  2.310312e+01    8.849695e-01
  2.311899e+01    8.777760e-01
  2.313487e+01    8.863889e-01
  2.315074e+01    8.734108e-01
  2.316662e+01    8.830549e-01
  2.318249e+01    8.742669e-01
  2.319837e+01    8.678290e-01
  2.321425e+01    8.719225e-01
  2.323012e+01    8.724902e-01
  2.324600e+01    8.766059e-01
  2.326187e+01    8.709862e-01
  2.327775e+01    8.592374e-01
  2.329362e+01    8.687272e-01
  2.330950e+01    8.762478e-01
  2.332537e+01    8.578534e-01
  2.334125e+01    8.653849e-01
  2.335713e+01    8.603278e-01
  2.337300e+01    8.518949e-01
  2.338888e+01    8.518222e-01
  2.340475e+01    8.522227e-01
  2.342063e+01    8.554916e-01
  2.343650e+01    8.493521e-01
  2.345238e+01    8.557356e-01
  2.346825e+01    8.265063e-01
  2.348413e+01    8.328059e-01
  2.350001e+01    8.470140e-01
  2.351588e+01    8.521439e-01
  2.353176e+01    8.548657e-01
  2.354763e+01    8.393466e-01
  2.356351e+01    8.272325e-01
  2.357938e+01    8.263343e-01
  2.359526e+01    8.410817e-01
  2.361113e+01    8.383402e-01
  2.362701e+01    8.229557e-01
  2.364289e+01    8.355470e-01
  2.365876e+01    8.436459e-01
  2.367464e+01    8.390850e-01
  2.369051e+01    8.390340e-01
  2.370639e+01    8.435976e-01
  2.372226e+01    8.349578e-01
  2.373814e+01    8.224527e-01
  2.375401e+01    8.115521e-01
  2.376989e+01    8.168755e-01
  2.378577e+01    8.456200e-01
  2.380164e+01    8.214226e-01
  2.381752e+01    8.033071e-01
  2.383339e+01    7.892110e-01
  2.384927e+01    8.091254e-01
  2.386514e+01    8.052686e-01
  2.388102e+01    7.963480e-01
  2.389689e+01    8.056231e-01
  2.391277e+01    7.950324e-01
  2.392865e+01    7.997859e-01
  2.394452e+01    7.887182e-01
  2.396040e+01    8.002226e-01
  2.397627e+01    8.190300e-01
  2.399215e+01    8.049667e-01
  2.400802e+01    8.043880e-01
  2.402390e+01    7.924784e-01
  2.403978e+01    7.829420e-01
  2.405565e+01    8.023016e-01
  2.407153e+01    7.863444e-01
  2.408740e+01    7.839172e-01
  2.410328e+01    7.939588e-01
  2.411915e+01    8.025720e-01
  2.413503e+01    7.695561e-01
  2.415090e+01    7.818357e-01
  2.416678e+01    7.787637e-01
  2.418266e+01    7.521243e-01
  2.419853e+01    7.599062e-01
  2.421441e+01    7.684903e-01
  2.423028e+01    7.790065e-01
  2.424616e+01    7.859960e-01
  2.426203e+01    7.828544e-01
  2.427791e+01    8.036407e-01
  2.429378e+01    7.745709e-01
  2.430966e+01    7.924932e-01
  2.432554e+01    7.835321e-01
  2.434141e+01    7.928562e-01
  2.435729e+01    7.913980e-01
  2.437316e+01    8.111752e-01
  2.438904e+01    7.808534e-01
  2.440491e+01    7.966380e-01
  2.442079e+01    7.853361e-01
  2.443666e+01    7.838650e-01
  2.445254e+01    7.891343e-01
  2.446842e+01    7.827917e-01
  2.448429e+01    7.923019e-01
  2.450017e+01    7.783166e-01
  2.451604e+01    7.879814e-01
  2.453192e+01    8.001264e-01
  2.454779e+01    7.993271e-01
  2.456367e+01    7.931336e-01
  2.457954e+01    7.875124e-01
  2.459542e+01    7.747645e-01
  2.461130e+01    7.940186e-01
  2.462717e+01    7.997112e-01
  2.464305e+01    7.953091e-01
  2.465892e+01    7.832130e-01
  2.467480e+01    7.806282e-01
  2.469067e+01    7.871766e-01
  2.470655e+01    8.067555e-01
  2.472242e+01    7.811085e-01
  2.473830e+01    7.804967e-01
  2.475418e+01    7.814772e-01
  2.477005e+01    8.089318e-01
  2.478593e+01    8.123270e-01
  2.480180e+01    7.794083e-01
  2.481768e+01    7.860212e-01
  2.483355e+01    7.987136e-01
  2.484943e+01    7.894771e-01
  2.486530e+01    7.743372e-01
  2.488118e+01    7.918662e-01
  2.489706e+01    8.027837e-01
  2.491293e+01    8.214170e-01
  2.492881e+01    8.099964e-01
  2.494468e+01    8.002652e-01
  2.496056e+01    7.912253e-01
  2.497643e+01    7.918485e-01
  2.499231e+01    7.973831e-01
  2.500819e+01    7.937866e-01
  2.502406e+01    8.030382e-01
  2.503994e+01    8.052099e-01
  2.505581e+01    7.831349e-01
  2.507169e+01    8.049959e-01
  2.508756e+01    8.118271e-01
  2.510344e+01    7.982633e-01
  2.511931e+01    8.074614e-01
  2.513519e+01    8.054366e-01
  2.515107e+01    8.149198e-01
  2.516694e+01    8.268682e-01
  2.518282e+01    8.294772e-01
  2.519869e+01    8.280346e-01
  2.521457e+01    8.486206e-01
  2.523044e+01    8.367504e-01
  2.524632e+01    8.442514e-01
  2.526219e+01    8.263623e-01
  2.527807e+01    8.542322e-01
  2.529395e+01    8.773296e-01
  2.530982e+01    8.461791e-01
  2.532570e+01    8.635333e-01
  2.534157e+01    8.822749e-01
  2.535745e+01    8.884280e-01
  2.537332e+01    8.992226e-01
  2.538920e+01    9.059653e-01
  2.540507e+01    8.836623e-01
  2.542095e+01    8.998511e-01
  2.543683e+01    9.368862e-01
  2.545270e+01    9.337764e-01
  2.546858e+01    9.301119e-01
  2.548445e+01    9.405719e-01
  2.550033e+01    9.695573e-01
  2.551620e+01    9.765463e-01
  2.553208e+01    1.010682e+00
  2.554795e+01    1.031406e+00
  2.556383e+01    1.033193e+00
  2.557971e+01    1.070328e+00
  2.559558e+01    1.105811e+00
  2.561146e+01    1.140357e+00
  2.562733e+01    1.174068e+00
  2.564321e+01    1.213404e+00
  2.565908e+01    1.283671e+00
  2.567496e+01    1.338078e+00
  2.569083e+01    1.411175e+00
  2.570671e+01    1.504589e+00
  2.572259e+01    1.632489e+00
  2.573846e+01    1.746454e+00
  2.575434e+01    1.932338e+00
  2.577021e+01    2.182997e+00
  2.578609e+01    2.411311e+00
  2.580196e+01    2.687276e+00
  2.581784e+01    3.055289e+00
  2.583371e+01    3.485062e+00
  2.584959e+01    3.984734e+00
  2.586547e+01    4.514910e+00
  2.588134e+01    5.070017e+00
  2.589722e+01    5.676854e+00
  2.591309e+01    6.302804e+00
  2.592897e+01    6.800945e+00
  2.594484e+01    7.086997e+00
  2.596072e+01    7.181540e+00
  2.597660e+01    7.090490e+00
  2.599247e+01    6.702808e+00
  2.600835e+01    6.101681e+00
  2.602422e+01    5.374332e+00
  2.604010e+01    4.617926e+00
  2.605597e+01    3.990522e+00
  2.607185e+01    3.419738e+00
  2.608772e+01    2.922000e+00
  2.610360e+01    2.560675e+00
  2.611948e+01    2.284435e+00
  2.613535e+01    2.046500e+00
  2.615123e+01    1.850022e+00
  2.616710e+01    1.719369e+00
  2.618298e+01    1.593451e+00
  2.619885e+01    1.482851e+00
  2.621473e+01    1.385300e+00
  2.623060e+01    1.284625e+00
  2.624648e+01    1.247984e+00
  2.626236e+01    1.196652e+00
  2.627823e+01    1.141684e+00
  2.629411e+01    1.118788e+00
  2.630998e+01    1.086288e+00
  2.632586e+01    1.038259e+00
  2.634173e+01    1.025573e+00
  2.635761e+01    1.018690e+00
  2.637348e+01    9.948077e-01
  2.638936e+01    9.854131e-01
  2.640524e+01    9.547201e-01
  2.642111e+01    9.451481e-01
  2.643699e+01    9.487694e-01
  2.645286e+01    9.498919e-01
  2.646874e+01    9.417537e-01
  2.648461e+01    9.056467e-01
  2.650049e+01    9.221194e-01
  2.651636e+01    9.234205e-01
  2.653224e+01    9.188300e-01
  2.654812e+01    9.023087e-01
  2.656399e+01    8.872455e-01
  2.657987e+01    8.990208e-01
  2.659574e+01    8.905786e-01
  2.661162e+01    8.886290e-01
  2.662749e+01    8.728817e-01
  2.664337e+01    8.886414e-01
  2.665924e+01    8.662807e-01
  2.667512e+01    8.712989e-01
  2.669100e+01    8.918201e-01
  2.670687e+01    8.814670e-01
  2.672275e+01    8.833294e-01
  2.673862e+01    9.108672e-01
  2.675450e+01    8.936549e-01
  2.677037e+01    8.816475e-01
  2.678625e+01    8.971723e-01
  2.680212e+01    8.836900e-01
  2.681800e+01    8.695945e-01
  2.683388e+01    8.886348e-01
  2.684975e+01    9.180776e-01
  2.686563e+01    8.904713e-01
  2.688150e+01    9.144896e-01
  2.689738e+01    9.272653e-01
  2.691325e+01    9.229599e-01
  2.692913e+01    9.452440e-01
  2.694501e+01    9.631310e-01
  2.696088e+01    9.663407e-01
  2.697676e+01    9.734144e-01
  2.699263e+01    1.008796e+00
  2.700851e+01    1.041925e+00
  2.702438e+01    1.061022e+00
  2.704026e+01    1.110594e+00
  2.705613e+01    1.142245e+00
  2.707201e+01    1.204872e+00
  2.708789e+01    1.297019e+00
  2.710376e+01    1.385004e+00
  2.711964e+01    1.510625e+00
  2.713551e+01    1.632048e+00
  2.715139e+01    1.766756e+00
  2.716726e+01    1.929271e+00
  2.718314e+01    2.050334e+00
  2.719901e+01    2.131016e+00
  2.721489e+01    2.158574e+00
  2.723077e+01    2.172768e+00
  2.724664e+01    2.083708e+00
  2.726252e+01    1.979066e+00
  2.727839e+01    1.831202e+00
  2.729427e+01    1.669599e+00
  2.731014e+01    1.541788e+00
  2.732602e+01    1.414665e+00
  2.734189e+01    1.254429e+00
  2.735777e+01    1.190260e+00
  2.737365e+01    1.126678e+00
  2.738952e+01    1.085301e+00
  2.740540e+01    1.040653e+00
  2.742127e+01    9.897928e-01
  2.743715e+01    9.845340e-01
  2.745302e+01    9.662989e-01
  2.746890e+01    9.304121e-01
  2.748477e+01    9.113187e-01
  2.750065e+01    8.966892e-01
  2.751653e+01    9.080316e-01
  2.753240e+01    8.830306e-01
  2.754828e+01    8.552082e-01
  2.756415e+01    8.665749e-01
  2.758003e+01    8.660860e-01
  2.759590e+01    8.771239e-01
  2.761178e+01    8.344424e-01
  2.762765e+01    8.228240e-01
  2.764353e+01    8.194860e-01
  2.765941e+01    8.319695e-01
  2.767528e+01    8.003693e-01
  2.769116e+01    7.953824e-01
  2.770703e+01    8.077030e-01
  2.772291e+01    8.116613e-01
  2.773878e+01    8.149257e-01
  2.775466e+01    8.179348e-01
  2.777054e+01    8.155865e-01
  2.778641e+01    8.290236e-01
  2.780229e+01    8.102661e-01
  2.781816e+01    8.087503e-01
  2.783404e+01    8.052120e-01
  2.784991e+01    8.056408e-01
  2.786579e+01    7.993718e-01
  2.788166e+01    7.809703e-01
  2.789754e+01    7.687796e-01
  2.791342e+01    7.982815e-01
  2.792929e+01    7.992807e-01
  2.794517e+01    7.933395e-01
  2.796104e+01    7.867841e-01
  2.797692e+01    7.978061e-01
  2.799279e+01    7.773379e-01
  2.800867e+01    7.960309e-01
  2.802454e+01    7.931280e-01
  2.804042e+01    7.713689e-01
  2.805630e+01    7.987505e-01
  2.807217e+01    7.874804e-01
  2.808805e+01    7.802384e-01
  2.810392e+01    7.833529e-01
  2.811980e+01    7.835764e-01
  2.813567e+01    7.877173e-01
  2.815155e+01    7.724863e-01
  2.816742e+01    7.660758e-01
  2.818330e+01    7.690778e-01
  2.819918e+01    7.769905e-01
  2.821505e+01    7.612566e-01
  2.823093e+01    7.577121e-01
  2.824680e+01    7.388114e-01
  2.826268e+01    7.490696e-01
  2.827855e+01    7.618294e-01
  2.829443e+01    7.817537e-01
  2.831030e+01    7.616952e-01
  2.832618e+01    7.620175e-01
  2.834206e+01    7.681522e-01
  2.835793e+01    7.708508e-01
  2.837381e+01    7.740805e-01
  2.838968e+01    7.632429e-01
  2.840556e+01    7.565374e-01
  2.842143e+01    7.574817e-01
  2.843731e+01    7.485851e-01
  2.845318e+01    7.496082e-01
  2.846906e+01    7.385207e-01
  2.848494e+01    7.481029e-01
  2.850081e+01    7.767466e-01
  2.851669e+01    7.483638e-01
  2.853256e+01    7.279197e-01
  2.854844e+01    7.632949e-01
  2.856431e+01    7.672077e-01
  2.858019e+01    7.478839e-01
  2.859606e+01    7.393606e-01
  2.861194e+01    7.383170e-01
  2.862782e+01    7.574261e-01
  2.864369e+01    7.509145e-01
  2.865957e+01    7.425426e-01
  2.867544e+01    7.380547e-01
  2.869132e+01    7.400419e-01
  2.870719e+01    7.366585e-01
  2.872307e+01    7.240683e-01
  2.873895e+01    7.423150e-01
  2.875482e+01    7.431532e-01
  2.877070e+01    7.604582e-01
  2.878657e+01    7.383838e-01
  2.880245e+01    7.195268e-01
  2.881832e+01    7.376120e-01
  2.883420e+01    7.482205e-01
  2.885007e+01    7.339234e-01
  2.886595e+01    7.405102e-01
  2.888183e+01    7.469807e-01
  2.889770e+01    7.462346e-01
  2.891358e+01    7.333091e-01
  2.892945e+01    7.489187e-01
  2.894533e+01    7.402394e-01
  2.896120e+01    7.549544e-01
  2.897708e+01    7.435963e-01
  2.899295e+01    7.368208e-01
  2.900883e+01    7.151089e-01
  2.902471e+01    7.161368e-01
  2.904058e+01    7.451859e-01
  2.905646e+01    7.513371e-01
  2.907233e+01    7.437461e-01
  2.908821e+01    7.218159e-01
  2.910408e+01    6.983957e-01
  2.911996e+01    7.127128e-01
  2.913583e+01    7.184702e-01
  2.915171e+01    7.212753e-01
  2.916759e+01    7.351374e-01
  2.918346e+01    7.480136e-01
  2.919934e+01    7.312228e-01
  2.921521e+01    7.323501e-01
  2.923109e+01    7.322536e-01
  2.924696e+01    7.328617e-01
  2.926284e+01    7.386818e-01
  2.927871e+01    7.227191e-01
  2.929459e+01    7.206076e-01
  2.931047e+01    7.095038e-01
  2.932634e+01    7.239593e-01
  2.934222e+01    7.524912e-01
  2.935809e+01    7.295843e-01
  2.937397e+01    7.303395e-01
  2.938984e+01    7.477326e-01
  2.940572e+01    6.964911e-01
  2.942159e+01    7.229014e-01
  2.943747e+01    7.090958e-01
  2.945335e+01    7.121238e-01
  2.946922e+01    7.096875e-01
  2.948510e+01    7.212080e-01
  2.950097e+01    7.113551e-01
  2.951685e+01    7.102017e-01
  2.953272e+01    7.185498e-01
  2.954860e+01    7.296606e-01
  2.956447e+01    7.291914e-01
  2.958035e+01    7.236683e-01
  2.959623e+01    7.491308e-01
  2.961210e+01    7.272018e-01
  2.962798e+01    7.216873e-01
  2.964385e+01    7.266678e-01
  2.965973e+01    7.013502e-01
  2.967560e+01    7.336590e-01
  2.969148e+01    7.242585e-01
  2.970736e+01    7.202145e-01
  2.972323e+01    7.158346e-01
  2.973911e+01    7.223348e-01
  2.975498e+01    7.223594e-01
  2.977086e+01    7.160531e-01
  2.978673e+01    7.222488e-01
  2.980261e+01    7.421598e-01
  2.981848e+01    7.319644e-01
  2.983436e+01    7.039756e-01
  2.985024e+01    7.116308e-01
  2.986611e+01    7.252452e-01
  2.988199e+01    7.256658e-01
  2.989786e+01    7.258127e-01
  2.991374e+01    7.373868e-01
  2.992961e+01    7.183587e-01
  2.994549e+01    7.074140e-01
  2.996136e+01    7.096980e-01
  2.997724e+01    7.143754e-01
  2.999312e+01    7.269058e-01
  3.000899e+01    7.271054e-01
  3.002487e+01    7.340455e-01
  3.004074e+01    7.183766e-01
  3.005662e+01    7.444949e-01
  3.007249e+01    7.183534e-01
  3.008837e+01    7.251360e-01
  3.010424e+01    7.321765e-01
  3.012012e+01    7.292815e-01
  3.013600e+01    7.018189e-01
  3.015187e+01    6.964034e-01
  3.016775e+01    7.029799e-01
  3.018362e+01    7.230361e-01
  3.019950e+01    7.268522e-01
  3.021537e+01    7.142956e-01
  3.023125e+01    7.076191e-01
  3.024712e+01    7.093212e-01
  3.026300e+01    7.111351e-01
  3.027888e+01    7.053750e-01
  3.029475e+01    7.241137e-01
  3.031063e+01    7.113029e-01
  3.032650e+01    7.038963e-01
  3.034238e+01    7.052473e-01
  3.035825e+01    6.988430e-01
  3.037413e+01    7.177830e-01
  3.039000e+01    6.878682e-01
  3.040588e+01    6.904306e-01
  3.042176e+01    7.129804e-01
  3.043763e+01    7.061465e-01
  3.045351e+01    6.996029e-01
  3.046938e+01    7.125614e-01
  3.048526e+01    6.984969e-01
  3.050113e+01    7.094887e-01
  3.051701e+01    7.158924e-01
  3.053288e+01    7.390707e-01
  3.054876e+01    7.250763e-01
  3.056464e+01    7.098887e-01
  3.058051e+01    6.982122e-01
  3.059639e+01    6.939410e-01
  3.061226e+01    6.820217e-01
  3.062814e+01    6.985773e-01
  3.064401e+01    7.054260e-01
  3.065989e+01    7.018859e-01
  3.067577e+01    7.081827e-01
  3.069164e+01    7.080188e-01
  3.070752e+01    6.863126e-01
  3.072339e+01    6.990876e-01
  3.073927e+01    7.117670e-01
  3.075514e+01    7.160569e-01
  3.077102e+01    7.179992e-01
  3.078689e+01    7.163399e-01
  3.080277e+01    7.052899e-01
  3.081865e+01    7.000280e-01
  3.083452e+01    7.007991e-01
  3.085040e+01    6.856556e-01
  3.086627e+01    6.920699e-01
  3.088215e+01    7.070799e-01
  3.089802e+01    7.213922e-01
  3.091390e+01    7.410943e-01
  3.092977e+01    7.259755e-01
  3.094565e+01    7.209988e-01
  3.096153e+01    7.274891e-01
  3.097740e+01    7.084048e-01
  3.099328e+01    6.989722e-01
  3.100915e+01    7.195380e-01
  3.102503e+01    7.303330e-01
  3.104090e+01    7.249577e-01
  3.105678e+01    7.204858e-01
  3.107265e+01    7.163417e-01
  3.108853e+01    7.128190e-01
  3.110441e+01    7.283041e-01
  3.112028e+01    7.261700e-01
  3.113616e+01    7.216007e-01
  3.115203e+01    6.944138e-01
  3.116791e+01    7.191867e-01
  3.118378e+01    7.249449e-01
  3.119966e+01    7.353812e-01
  3.121553e+01    7.305608e-01
  3.123141e+01    7.269319e-01
  3.124729e+01    7.152507e-01
  3.126316e+01    7.238739e-01
  3.127904e+01    7.364857e-01
  3.129491e+01    7.121521e-01
  3.131079e+01    7.264711e-01
  3.132666e+01    7.099626e-01
  3.134254e+01    7.319942e-01
  3.135841e+01    7.453324e-01
  3.137429e+01    7.218317e-01
  3.139017e+01    7.295684e-01
  3.140604e+01    7.326763e-01
  3.142192e+01    7.288731e-01
  3.143779e+01    7.806548e-01
  3.145367e+01    7.710217e-01
  3.146954e+01    7.656552e-01
  3.148542e+01    7.565392e-01
  3.150129e+01    7.782367e-01
  3.151717e+01    7.840669e-01
  3.153305e+01    7.847590e-01
  3.154892e+01    7.922924e-01
  3.156480e+01    7.999011e-01
  3.158067e+01    8.041556e-01
  3.159655e+01    8.229626e-01
  3.161242e+01    8.136878e-01
  3.162830e+01    8.430452e-01
  3.164418e+01    8.371175e-01
  3.166005e+01    8.671489e-01
  3.167593e+01    8.984644e-01
  3.169180e+01    9.376846e-01
  3.170768e+01    9.831833e-01
  3.172355e+01    1.022113e+00
  3.173943e+01    1.091194e+00
  3.175530e+01    1.132769e+00
  3.177118e+01    1.197193e+00
  3.178706e+01    1.316431e+00
  3.180293e+01    1.423043e+00
  3.181881e+01    1.562867e+00
  3.183468e+01    1.696590e+00
  3.185056e+01    1.817711e+00
  3.186643e+01    1.971293e+00
  3.188231e+01    2.052605e+00
  3.189818e+01    2.103011e+00
  3.191406e+01    2.130611e+00
  3.192994e+01    2.028002e+00
  3.194581e+01    1.943956e+00
  3.196169e+01    1.821227e+00
  3.197756e+01    1.697631e+00
  3.199344e+01    1.543695e+00
  3.200931e+01    1.408959e+00
  3.202519e+01    1.290312e+00
  3.204106e+01    1.194798e+00
  3.205694e+01    1.095159e+00
  3.207282e+01    1.052525e+00
  3.208869e+01    1.005926e+00
  3.210457e+01    9.581991e-01
  3.212044e+01    8.882585e-01
  3.213632e+01    8.745435e-01
  3.215219e+01    8.551850e-01
  3.216807e+01    8.425952e-01
  3.218394e+01    8.434943e-01
  3.219982e+01    8.005592e-01
  3.221570e+01    7.940058e-01
  3.223157e+01    8.110222e-01
  3.224745e+01    7.913968e-01
  3.226332e+01    7.613527e-01
  3.227920e+01    7.627242e-01
  3.229507e+01    7.643646e-01
  3.231095e+01    7.515808e-01
  3.232682e+01    7.413518e-01
  3.234270e+01    7.405809e-01
  3.235858e+01    7.458104e-01
  3.237445e+01    7.457319e-01
  3.239033e+01    7.281349e-01
  3.240620e+01    6.935755e-01
  3.242208e+01    7.183371e-01
  3.243795e+01    7.244607e-01
  3.245383e+01    7.248878e-01
  3.246970e+01    6.996975e-01
  3.248558e+01    7.020091e-01
  3.250146e+01    7.234519e-01
  3.251733e+01    7.164214e-01
  3.253321e+01    7.283747e-01
  3.254908e+01    7.399566e-01
