# == pyFAI calibration ==
# Distance Sample to Detector: 0.3999999939076516 m
# PONI: 9.750e-02, 1.135e-01 m
# Rotations: -0.000175 0.000000 -0.000000 rad
# 
# == Fit2d calibration ==
# Distance Sample-beamCenter: 400.000 mm
# Center: x=1514.000, y=1300.000 pix
# Tilt: 0.010 deg  TiltPlanRot: 0.010 deg
# 
# Detector Detector	 Spline= None	 PixelSize= 7.500e-05, 7.500e-05 m
#    Detector has a mask: False 
#    Detector has a dark current: False 
#    detector has a flat field: False 
# 
# Wavelength: 6.888e-11 m
# Mask applied: user provided
# Dark current applied: False
# Flat field applied: False
# Polarization factor: 0.99
# Normalization factor: 1.0
# --> /home/myspot/data/2024_07_Rosario/Ru-CGO-ex/2024-07-27_002_Ru-CGO-ex_Activtation_ramp_000002_data_000140.dat
#       q_nm^-1             I 
  2.003187e-02    9.939744e-02
  3.590745e-02    1.560977e-01
  5.178302e-02    1.910478e-02
  6.765859e-02    0.000000e+00
  8.353417e-02    3.909057e-02
  9.940974e-02    9.195670e-02
  1.152853e-01    7.040652e-02
  1.311609e-01    4.298056e-02
  1.470365e-01    2.787448e-02
  1.629120e-01    2.108857e-02
  1.787876e-01    4.237584e-02
  1.946632e-01    6.621221e-02
  2.105388e-01    3.109180e-02
  2.264143e-01    1.844119e-02
  2.422899e-01    3.339208e-02
  2.581655e-01    3.679993e-02
  2.740411e-01    2.972651e-02
  2.899166e-01    4.661158e-02
  3.057922e-01    5.710402e-02
  3.216678e-01    4.253141e-02
  3.375433e-01    3.159947e-02
  3.534189e-01    3.320926e-02
  3.692945e-01    1.327448e-02
  3.851701e-01    8.542124e-03
  4.010456e-01    2.882039e-02
  4.169212e-01    2.845050e-02
  4.327968e-01    3.593087e-02
  4.486724e-01    2.504270e-02
  4.645479e-01    2.585135e-02
  4.804235e-01    2.489768e-02
  4.962991e-01    3.419477e-02
  5.121747e-01    4.434018e-02
  5.280502e-01    3.859291e-02
  5.439258e-01    1.654364e-02
  5.598014e-01    1.870423e-02
  5.756770e-01    1.431955e-02
  5.915525e-01    6.625773e-04
  6.074281e-01    3.472797e-03
  6.233037e-01    1.390817e-02
  6.391793e-01    2.180840e-02
  6.550548e-01    3.927392e-02
  6.709304e-01    4.620148e-02
  6.868060e-01    4.218122e-02
  7.026815e-01    4.883241e-02
  7.185571e-01    4.971439e-02
  7.344327e-01    2.882159e-02
  7.503083e-01    3.125348e-02
  7.661838e-01    7.225958e-02
  7.820594e-01    1.052612e-01
  7.979350e-01    1.473579e-01
  8.138106e-01    1.733664e-01
  8.296861e-01    2.269725e-01
  8.455617e-01    2.869069e-01
  8.614373e-01    3.770686e-01
  8.773129e-01    4.094240e-01
  8.931884e-01    4.953799e-01
  9.090640e-01    5.594980e-01
  9.249396e-01    6.498127e-01
  9.408152e-01    7.360860e-01
  9.566907e-01    7.579949e-01
  9.725663e-01    8.916507e-01
  9.884419e-01    1.003746e+00
  1.004317e+00    1.032328e+00
  1.020193e+00    1.105644e+00
  1.036069e+00    1.138352e+00
  1.051944e+00    1.306520e+00
  1.067820e+00    1.325112e+00
  1.083695e+00    1.331680e+00
  1.099571e+00    1.464421e+00
  1.115446e+00    1.486238e+00
  1.131322e+00    1.394673e+00
  1.147198e+00    1.443820e+00
  1.163073e+00    1.537654e+00
  1.178949e+00    1.497253e+00
  1.194824e+00    1.596772e+00
  1.210700e+00    1.754064e+00
  1.226575e+00    2.014759e+00
  1.242451e+00    2.098725e+00
  1.258327e+00    2.343140e+00
  1.274202e+00    2.312247e+00
  1.290078e+00    2.313544e+00
  1.305953e+00    2.483564e+00
  1.321829e+00    2.531249e+00
  1.337705e+00    2.604849e+00
  1.353580e+00    2.676892e+00
  1.369456e+00    2.613708e+00
  1.385331e+00    2.551857e+00
  1.401207e+00    2.549054e+00
  1.417082e+00    2.486733e+00
  1.432958e+00    2.568180e+00
  1.448834e+00    2.691733e+00
  1.464709e+00    2.614895e+00
  1.480585e+00    2.701110e+00
  1.496460e+00    2.881614e+00
  1.512336e+00    2.795903e+00
  1.528211e+00    2.753471e+00
  1.544087e+00    2.891851e+00
  1.559963e+00    2.839518e+00
  1.575838e+00    2.834336e+00
  1.591714e+00    2.785002e+00
  1.607589e+00    2.841046e+00
  1.623465e+00    2.922962e+00
  1.639340e+00    2.807998e+00
  1.655216e+00    2.714863e+00
  1.671092e+00    2.804094e+00
  1.686967e+00    2.825869e+00
  1.702843e+00    2.725920e+00
  1.718718e+00    2.742874e+00
  1.734594e+00    2.670952e+00
  1.750469e+00    2.787891e+00
  1.766345e+00    2.809180e+00
  1.782221e+00    2.786759e+00
  1.798096e+00    2.891407e+00
  1.813972e+00    2.803447e+00
  1.829847e+00    2.774297e+00
  1.845723e+00    2.818624e+00
  1.861598e+00    2.732684e+00
  1.877474e+00    2.640166e+00
  1.893350e+00    2.566166e+00
  1.909225e+00    2.660611e+00
  1.925101e+00    2.662930e+00
  1.940976e+00    2.634747e+00
  1.956852e+00    2.669112e+00
  1.972727e+00    2.683614e+00
  1.988603e+00    2.578641e+00
  2.004479e+00    2.517472e+00
  2.020354e+00    2.661825e+00
  2.036230e+00    2.725189e+00
  2.052105e+00    2.666357e+00
  2.067981e+00    2.732914e+00
  2.083856e+00    2.720130e+00
  2.099732e+00    2.687590e+00
  2.115608e+00    2.692258e+00
  2.131483e+00    2.704496e+00
  2.147359e+00    2.660181e+00
  2.163234e+00    2.699628e+00
  2.179110e+00    2.677157e+00
  2.194985e+00    2.710906e+00
  2.210861e+00    2.783949e+00
  2.226737e+00    2.700578e+00
  2.242612e+00    2.671618e+00
  2.258488e+00    2.726317e+00
  2.274363e+00    2.792324e+00
  2.290239e+00    2.791304e+00
  2.306115e+00    2.806954e+00
  2.321990e+00    2.743643e+00
  2.337866e+00    2.719324e+00
  2.353741e+00    2.659803e+00
  2.369617e+00    2.748760e+00
  2.385492e+00    2.758562e+00
  2.401368e+00    2.640244e+00
  2.417244e+00    2.711002e+00
  2.433119e+00    2.837068e+00
  2.448995e+00    2.817679e+00
  2.464870e+00    2.720946e+00
  2.480746e+00    2.732752e+00
  2.496621e+00    2.633990e+00
  2.512497e+00    2.659286e+00
  2.528373e+00    2.656086e+00
  2.544248e+00    2.656061e+00
  2.560124e+00    2.712265e+00
  2.575999e+00    2.716450e+00
  2.591875e+00    2.750628e+00
  2.607750e+00    2.799897e+00
  2.623626e+00    2.795874e+00
  2.639502e+00    2.733154e+00
  2.655377e+00    2.786174e+00
  2.671253e+00    2.849980e+00
  2.687128e+00    2.849493e+00
  2.703004e+00    2.826651e+00
  2.718879e+00    2.800998e+00
  2.734755e+00    2.829750e+00
  2.750631e+00    2.751172e+00
  2.766506e+00    2.678662e+00
  2.782382e+00    2.737668e+00
  2.798257e+00    2.834656e+00
  2.814133e+00    2.780482e+00
  2.830008e+00    2.782142e+00
  2.845884e+00    2.814713e+00
  2.861760e+00    2.783757e+00
  2.877635e+00    2.786361e+00
  2.893511e+00    2.884978e+00
  2.909386e+00    2.826700e+00
  2.925262e+00    2.919621e+00
  2.941137e+00    2.868405e+00
  2.957013e+00    2.876261e+00
  2.972889e+00    2.844569e+00
  2.988764e+00    2.794763e+00
  3.004640e+00    2.783899e+00
  3.020515e+00    2.842257e+00
  3.036391e+00    2.765083e+00
  3.052266e+00    2.886217e+00
  3.068142e+00    2.850080e+00
  3.084018e+00    2.882430e+00
  3.099893e+00    2.955625e+00
  3.115769e+00    2.863557e+00
  3.131644e+00    2.775346e+00
  3.147520e+00    2.799705e+00
  3.163395e+00    2.839813e+00
  3.179271e+00    2.818377e+00
  3.195147e+00    2.805048e+00
  3.211022e+00    2.874269e+00
  3.226898e+00    2.873467e+00
  3.242773e+00    2.817469e+00
  3.258649e+00    2.841736e+00
  3.274525e+00    2.886798e+00
  3.290400e+00    2.885885e+00
  3.306276e+00    2.868882e+00
  3.322151e+00    2.844390e+00
  3.338027e+00    2.922204e+00
  3.353902e+00    2.963066e+00
  3.369778e+00    2.944638e+00
  3.385654e+00    2.886075e+00
  3.401529e+00    2.840772e+00
  3.417405e+00    2.819155e+00
  3.433280e+00    2.924386e+00
  3.449156e+00    2.866677e+00
  3.465031e+00    2.874474e+00
  3.480907e+00    3.018966e+00
  3.496783e+00    2.909418e+00
  3.512658e+00    2.959032e+00
  3.528534e+00    2.889889e+00
  3.544409e+00    2.879372e+00
  3.560285e+00    2.890162e+00
  3.576160e+00    2.893416e+00
  3.592036e+00    2.835279e+00
  3.607912e+00    2.933077e+00
  3.623787e+00    2.917235e+00
  3.639663e+00    2.954805e+00
  3.655538e+00    2.975361e+00
  3.671414e+00    2.982333e+00
  3.687289e+00    2.928834e+00
  3.703165e+00    2.923550e+00
  3.719041e+00    2.968701e+00
  3.734916e+00    2.981914e+00
  3.750792e+00    2.957921e+00
  3.766667e+00    2.965937e+00
  3.782543e+00    2.882845e+00
  3.798418e+00    2.886127e+00
  3.814294e+00    2.979810e+00
  3.830170e+00    2.936332e+00
  3.846045e+00    2.944323e+00
  3.861921e+00    2.969008e+00
  3.877796e+00    2.949189e+00
  3.893672e+00    3.009511e+00
  3.909547e+00    3.003570e+00
  3.925423e+00    3.058998e+00
  3.941299e+00    3.050062e+00
  3.957174e+00    2.928586e+00
  3.973050e+00    2.929647e+00
  3.988925e+00    2.958633e+00
  4.004801e+00    2.922977e+00
  4.020676e+00    2.904708e+00
  4.036552e+00    2.924574e+00
  4.052428e+00    2.926411e+00
  4.068303e+00    2.964341e+00
  4.084179e+00    3.038653e+00
  4.100054e+00    3.033629e+00
  4.115930e+00    3.042716e+00
  4.131806e+00    2.971823e+00
  4.147681e+00    2.943894e+00
  4.163557e+00    2.986344e+00
  4.179432e+00    2.979493e+00
  4.195308e+00    2.940184e+00
  4.211183e+00    2.952383e+00
  4.227059e+00    3.010024e+00
  4.242935e+00    3.055986e+00
  4.258810e+00    3.054253e+00
  4.274686e+00    3.036522e+00
  4.290561e+00    3.051213e+00
  4.306437e+00    3.083424e+00
  4.322312e+00    3.110774e+00
  4.338188e+00    3.039531e+00
  4.354064e+00    3.018560e+00
  4.369939e+00    3.022400e+00
  4.385815e+00    2.935666e+00
  4.401690e+00    2.998651e+00
  4.417566e+00    2.990560e+00
  4.433441e+00    3.008431e+00
  4.449317e+00    3.125775e+00
  4.465193e+00    3.065203e+00
  4.481068e+00    2.989228e+00
  4.496944e+00    3.110250e+00
  4.512819e+00    3.125239e+00
  4.528695e+00    3.072343e+00
  4.544570e+00    3.005873e+00
  4.560446e+00    3.058086e+00
  4.576322e+00    3.026827e+00
  4.592197e+00    3.073959e+00
  4.608073e+00    3.080637e+00
  4.623948e+00    3.135102e+00
  4.639824e+00    3.047726e+00
  4.655699e+00    3.009635e+00
  4.671575e+00    3.044788e+00
  4.687451e+00    2.982677e+00
  4.703326e+00    3.121019e+00
  4.719202e+00    3.150713e+00
  4.735077e+00    3.111028e+00
  4.750953e+00    3.097158e+00
  4.766828e+00    3.046833e+00
  4.782704e+00    3.015249e+00
  4.798580e+00    3.048257e+00
  4.814455e+00    3.107971e+00
  4.830331e+00    3.091572e+00
  4.846206e+00    3.085173e+00
  4.862082e+00    3.061845e+00
  4.877957e+00    3.170120e+00
  4.893833e+00    3.166515e+00
  4.909709e+00    3.153075e+00
  4.925584e+00    3.125376e+00
  4.941460e+00    3.049395e+00
  4.957335e+00    3.047747e+00
  4.973211e+00    3.063656e+00
  4.989086e+00    3.091398e+00
  5.004962e+00    3.102918e+00
  5.020838e+00    3.056264e+00
  5.036713e+00    3.067166e+00
  5.052589e+00    3.005452e+00
  5.068464e+00    2.962008e+00
  5.084340e+00    3.048210e+00
  5.100216e+00    3.058157e+00
  5.116091e+00    3.060474e+00
  5.131967e+00    3.082669e+00
  5.147842e+00    3.075716e+00
  5.163718e+00    3.025946e+00
  5.179593e+00    3.095726e+00
  5.195469e+00    3.103688e+00
  5.211345e+00    3.056409e+00
  5.227220e+00    3.073509e+00
  5.243096e+00    3.119616e+00
  5.258971e+00    3.148419e+00
  5.274847e+00    3.101204e+00
  5.290722e+00    3.040623e+00
  5.306598e+00    3.132045e+00
  5.322474e+00    3.206031e+00
  5.338349e+00    3.129510e+00
  5.354225e+00    3.101376e+00
  5.370100e+00    3.139267e+00
  5.385976e+00    3.114399e+00
  5.401851e+00    3.054064e+00
  5.417727e+00    3.006939e+00
  5.433603e+00    2.876424e+00
  5.449478e+00    2.975072e+00
  5.465354e+00    3.098663e+00
  5.481229e+00    3.111230e+00
  5.497105e+00    3.090938e+00
  5.512980e+00    3.105286e+00
  5.528856e+00    3.129464e+00
  5.544732e+00    3.097266e+00
  5.560607e+00    3.091661e+00
  5.576483e+00    3.095487e+00
  5.592358e+00    3.093725e+00
  5.608234e+00    2.990719e+00
  5.624109e+00    3.015569e+00
  5.639985e+00    3.008631e+00
  5.655861e+00    3.067212e+00
  5.671736e+00    3.063980e+00
  5.687612e+00    3.047112e+00
  5.703487e+00    2.972507e+00
  5.719363e+00    2.920695e+00
  5.735238e+00    2.977645e+00
  5.751114e+00    3.018042e+00
  5.766990e+00    3.008803e+00
  5.782865e+00    2.967535e+00
  5.798741e+00    3.006798e+00
  5.814616e+00    2.993495e+00
  5.830492e+00    3.051704e+00
  5.846367e+00    2.952885e+00
  5.862243e+00    2.985004e+00
  5.878119e+00    2.969433e+00
  5.893994e+00    2.959700e+00
  5.909870e+00    2.937618e+00
  5.925745e+00    2.927551e+00
  5.941621e+00    2.960119e+00
  5.957497e+00    3.008156e+00
  5.973372e+00    3.039024e+00
  5.989248e+00    3.060461e+00
  6.005123e+00    3.069820e+00
  6.020999e+00    2.962976e+00
  6.036874e+00    2.962962e+00
  6.052750e+00    2.963725e+00
  6.068626e+00    2.971655e+00
  6.084501e+00    3.055124e+00
  6.100377e+00    3.018371e+00
  6.116252e+00    3.032501e+00
  6.132128e+00    3.086792e+00
  6.148003e+00    3.024379e+00
  6.163879e+00    3.095774e+00
  6.179755e+00    3.121169e+00
  6.195630e+00    2.968563e+00
  6.211506e+00    2.993621e+00
  6.227381e+00    2.992540e+00
  6.243257e+00    3.028513e+00
  6.259132e+00    3.054678e+00
  6.275008e+00    3.021524e+00
  6.290884e+00    3.051002e+00
  6.306759e+00    3.050152e+00
  6.322635e+00    3.037991e+00
  6.338510e+00    2.988759e+00
  6.354386e+00    3.010113e+00
  6.370261e+00    3.002142e+00
  6.386137e+00    2.976827e+00
  6.402013e+00    2.971166e+00
  6.417888e+00    2.940425e+00
  6.433764e+00    3.039275e+00
  6.449639e+00    3.069365e+00
  6.465515e+00    2.958727e+00
  6.481390e+00    3.008622e+00
  6.497266e+00    3.029533e+00
  6.513142e+00    2.973495e+00
  6.529017e+00    3.000045e+00
  6.544893e+00    3.032186e+00
  6.560768e+00    3.015583e+00
  6.576644e+00    2.969200e+00
  6.592519e+00    2.929844e+00
  6.608395e+00    2.989073e+00
  6.624271e+00    2.936746e+00
  6.640146e+00    2.973692e+00
  6.656022e+00    2.946064e+00
  6.671897e+00    3.043327e+00
  6.687773e+00    3.091290e+00
  6.703648e+00    3.019205e+00
  6.719524e+00    3.047491e+00
  6.735400e+00    3.062712e+00
  6.751275e+00    2.979677e+00
  6.767151e+00    3.045881e+00
  6.783026e+00    3.012345e+00
  6.798902e+00    2.972347e+00
  6.814777e+00    2.936647e+00
  6.830653e+00    2.969268e+00
  6.846529e+00    2.972621e+00
  6.862404e+00    3.027300e+00
  6.878280e+00    3.006315e+00
  6.894155e+00    2.977188e+00
  6.910031e+00    2.969889e+00
  6.925907e+00    2.952549e+00
  6.941782e+00    2.952338e+00
  6.957658e+00    3.006553e+00
  6.973533e+00    2.943836e+00
  6.989409e+00    2.967028e+00
  7.005284e+00    2.903595e+00
  7.021160e+00    3.009435e+00
  7.037036e+00    3.064963e+00
  7.052911e+00    3.098995e+00
  7.068787e+00    2.997716e+00
  7.084662e+00    2.928881e+00
  7.100538e+00    2.908247e+00
  7.116413e+00    2.993161e+00
  7.132289e+00    2.995568e+00
  7.148165e+00    2.909382e+00
  7.164040e+00    2.925408e+00
  7.179916e+00    2.993556e+00
  7.195791e+00    3.020062e+00
  7.211667e+00    3.012112e+00
  7.227542e+00    2.970549e+00
  7.243418e+00    2.967554e+00
  7.259294e+00    2.946286e+00
  7.275169e+00    2.957540e+00
  7.291045e+00    2.972242e+00
  7.306920e+00    2.972273e+00
  7.322796e+00    2.941535e+00
  7.338671e+00    2.913468e+00
  7.354547e+00    2.906579e+00
  7.370423e+00    2.956936e+00
  7.386298e+00    3.005526e+00
  7.402174e+00    3.009907e+00
  7.418049e+00    2.944376e+00
  7.433925e+00    2.921571e+00
  7.449800e+00    2.931722e+00
  7.465676e+00    2.945632e+00
  7.481552e+00    3.004918e+00
  7.497427e+00    2.991844e+00
  7.513303e+00    3.018036e+00
  7.529178e+00    3.042950e+00
  7.545054e+00    2.995217e+00
  7.560929e+00    2.926417e+00
  7.576805e+00    2.927529e+00
  7.592681e+00    2.867065e+00
  7.608556e+00    2.894570e+00
  7.624432e+00    2.931020e+00
  7.640307e+00    2.936172e+00
  7.656183e+00    2.924013e+00
  7.672058e+00    2.913507e+00
  7.687934e+00    2.929627e+00
  7.703810e+00    2.975036e+00
  7.719685e+00    2.920448e+00
  7.735561e+00    2.896713e+00
  7.751436e+00    2.844435e+00
  7.767312e+00    2.908355e+00
  7.783187e+00    2.961304e+00
  7.799063e+00    2.956482e+00
  7.814939e+00    2.903693e+00
  7.830814e+00    2.913270e+00
  7.846690e+00    2.953398e+00
  7.862565e+00    2.920938e+00
  7.878441e+00    2.905221e+00
  7.894317e+00    2.896817e+00
  7.910192e+00    2.909446e+00
  7.926068e+00    2.897745e+00
  7.941943e+00    2.897233e+00
  7.957819e+00    2.904437e+00
  7.973694e+00    2.908364e+00
  7.989570e+00    2.886522e+00
  8.005446e+00    2.866272e+00
  8.021321e+00    2.829892e+00
  8.037197e+00    2.887964e+00
  8.053072e+00    2.896192e+00
  8.068948e+00    2.864840e+00
  8.084823e+00    2.930291e+00
  8.100699e+00    2.928007e+00
  8.116575e+00    2.888335e+00
  8.132450e+00    2.956166e+00
  8.148326e+00    2.969120e+00
  8.164201e+00    2.902270e+00
  8.180077e+00    2.945786e+00
  8.195952e+00    2.958559e+00
  8.211828e+00    3.024533e+00
  8.227704e+00    3.000616e+00
  8.243579e+00    2.973229e+00
  8.259455e+00    2.913911e+00
  8.275330e+00    2.887629e+00
  8.291206e+00    2.875981e+00
  8.307081e+00    2.881918e+00
  8.322957e+00    2.879817e+00
  8.338833e+00    2.876551e+00
  8.354708e+00    2.909516e+00
  8.370584e+00    2.960822e+00
  8.386459e+00    2.888223e+00
  8.402335e+00    2.877133e+00
  8.418210e+00    2.894175e+00
  8.434086e+00    2.882177e+00
  8.449962e+00    2.858218e+00
  8.465837e+00    2.840928e+00
  8.481713e+00    2.833744e+00
  8.497588e+00    2.853221e+00
  8.513464e+00    2.856077e+00
  8.529339e+00    2.914933e+00
  8.545215e+00    2.912409e+00
  8.561091e+00    2.886232e+00
  8.576966e+00    2.839527e+00
  8.592842e+00    2.825188e+00
  8.608717e+00    2.861660e+00
  8.624593e+00    2.827687e+00
  8.640468e+00    2.826514e+00
  8.656344e+00    2.821551e+00
  8.672220e+00    2.833262e+00
  8.688095e+00    2.819870e+00
  8.703971e+00    2.848900e+00
  8.719846e+00    2.796709e+00
  8.735722e+00    2.802133e+00
  8.751598e+00    2.856494e+00
  8.767473e+00    2.883955e+00
  8.783349e+00    2.780315e+00
  8.799224e+00    2.778869e+00
  8.815100e+00    2.827396e+00
  8.830975e+00    2.810995e+00
  8.846851e+00    2.815693e+00
  8.862727e+00    2.787573e+00
  8.878602e+00    2.807225e+00
  8.894478e+00    2.759168e+00
  8.910353e+00    2.764075e+00
  8.926229e+00    2.822379e+00
  8.942104e+00    2.815229e+00
  8.957980e+00    2.814459e+00
  8.973856e+00    2.826284e+00
  8.989731e+00    2.771703e+00
  9.005607e+00    2.764253e+00
  9.021482e+00    2.747355e+00
  9.037358e+00    2.726986e+00
  9.053233e+00    2.754845e+00
  9.069109e+00    2.769310e+00
  9.084985e+00    2.803635e+00
  9.100860e+00    2.760550e+00
  9.116736e+00    2.801089e+00
  9.132611e+00    2.779936e+00
  9.148487e+00    2.778308e+00
  9.164362e+00    2.755547e+00
  9.180238e+00    2.755998e+00
  9.196114e+00    2.728376e+00
  9.211989e+00    2.765470e+00
  9.227865e+00    2.737512e+00
  9.243740e+00    2.747790e+00
  9.259616e+00    2.727107e+00
  9.275491e+00    2.744726e+00
  9.291367e+00    2.764684e+00
  9.307243e+00    2.778948e+00
  9.323118e+00    2.752368e+00
  9.338994e+00    2.733033e+00
  9.354869e+00    2.736189e+00
  9.370745e+00    2.757135e+00
  9.386620e+00    2.756840e+00
  9.402496e+00    2.734392e+00
  9.418372e+00    2.700107e+00
  9.434247e+00    2.652542e+00
  9.450123e+00    2.672534e+00
  9.465998e+00    2.727068e+00
  9.481874e+00    2.760917e+00
  9.497749e+00    2.713710e+00
  9.513625e+00    2.697196e+00
  9.529501e+00    2.707334e+00
  9.545376e+00    2.718412e+00
  9.561252e+00    2.750044e+00
  9.577127e+00    2.789540e+00
  9.593003e+00    2.741291e+00
  9.608878e+00    2.702385e+00
  9.624754e+00    2.724026e+00
  9.640630e+00    2.748142e+00
  9.656505e+00    2.839064e+00
  9.672381e+00    2.799426e+00
  9.688256e+00    2.708715e+00
  9.704132e+00    2.702677e+00
  9.720008e+00    2.709752e+00
  9.735883e+00    2.734611e+00
  9.751759e+00    2.733512e+00
  9.767634e+00    2.717805e+00
  9.783510e+00    2.722798e+00
  9.799385e+00    2.662095e+00
  9.815261e+00    2.681283e+00
  9.831137e+00    2.706231e+00
  9.847012e+00    2.667568e+00
  9.862888e+00    2.659034e+00
  9.878763e+00    2.642268e+00
  9.894639e+00    2.685854e+00
  9.910514e+00    2.708897e+00
  9.926390e+00    2.661766e+00
  9.942266e+00    2.650962e+00
  9.958141e+00    2.657690e+00
  9.974017e+00    2.654981e+00
  9.989892e+00    2.626014e+00
  1.000577e+01    2.661235e+00
  1.002164e+01    2.643467e+00
  1.003752e+01    2.661011e+00
  1.005339e+01    2.652740e+00
  1.006927e+01    2.694974e+00
  1.008515e+01    2.719337e+00
  1.010102e+01    2.622909e+00
  1.011690e+01    2.540141e+00
  1.013277e+01    2.588188e+00
  1.014865e+01    2.650955e+00
  1.016452e+01    2.637549e+00
  1.018040e+01    2.636044e+00
  1.019627e+01    2.596373e+00
  1.021215e+01    2.579978e+00
  1.022803e+01    2.630281e+00
  1.024390e+01    2.669144e+00
  1.025978e+01    2.639333e+00
  1.027565e+01    2.636415e+00
  1.029153e+01    2.654436e+00
  1.030740e+01    2.627229e+00
  1.032328e+01    2.612025e+00
  1.033915e+01    2.632302e+00
  1.035503e+01    2.648447e+00
  1.037091e+01    2.608787e+00
  1.038678e+01    2.625719e+00
  1.040266e+01    2.612602e+00
  1.041853e+01    2.591984e+00
  1.043441e+01    2.583433e+00
  1.045028e+01    2.605370e+00
  1.046616e+01    2.563981e+00
  1.048204e+01    2.555218e+00
  1.049791e+01    2.567195e+00
  1.051379e+01    2.580403e+00
  1.052966e+01    2.587018e+00
  1.054554e+01    2.563583e+00
  1.056141e+01    2.513863e+00
  1.057729e+01    2.513034e+00
  1.059316e+01    2.498555e+00
  1.060904e+01    2.538329e+00
  1.062492e+01    2.496607e+00
  1.064079e+01    2.529309e+00
  1.065667e+01    2.540756e+00
  1.067254e+01    2.593527e+00
  1.068842e+01    2.573452e+00
  1.070429e+01    2.529812e+00
  1.072017e+01    2.519052e+00
  1.073604e+01    2.486364e+00
  1.075192e+01    2.507467e+00
  1.076780e+01    2.496322e+00
  1.078367e+01    2.509434e+00
  1.079955e+01    2.535600e+00
  1.081542e+01    2.520196e+00
  1.083130e+01    2.500633e+00
  1.084717e+01    2.454493e+00
  1.086305e+01    2.491771e+00
  1.087892e+01    2.486092e+00
  1.089480e+01    2.496944e+00
  1.091068e+01    2.459304e+00
  1.092655e+01    2.486667e+00
  1.094243e+01    2.452083e+00
  1.095830e+01    2.467490e+00
  1.097418e+01    2.419218e+00
  1.099005e+01    2.416776e+00
  1.100593e+01    2.440520e+00
  1.102180e+01    2.535971e+00
  1.103768e+01    2.509053e+00
  1.105356e+01    2.495799e+00
  1.106943e+01    2.480489e+00
  1.108531e+01    2.492725e+00
  1.110118e+01    2.463065e+00
  1.111706e+01    2.488406e+00
  1.113293e+01    2.444846e+00
  1.114881e+01    2.447041e+00
  1.116468e+01    2.483632e+00
  1.118056e+01    2.470338e+00
  1.119644e+01    2.448358e+00
  1.121231e+01    2.420751e+00
  1.122819e+01    2.408471e+00
  1.124406e+01    2.420482e+00
  1.125994e+01    2.429467e+00
  1.127581e+01    2.440241e+00
  1.129169e+01    2.415789e+00
  1.130756e+01    2.383447e+00
  1.132344e+01    2.412510e+00
  1.133932e+01    2.410955e+00
  1.135519e+01    2.398143e+00
  1.137107e+01    2.374011e+00
  1.138694e+01    2.394591e+00
  1.140282e+01    2.427761e+00
  1.141869e+01    2.371333e+00
  1.143457e+01    2.377241e+00
  1.145045e+01    2.352994e+00
  1.146632e+01    2.396116e+00
  1.148220e+01    2.433509e+00
  1.149807e+01    2.372920e+00
  1.151395e+01    2.343932e+00
  1.152982e+01    2.306820e+00
  1.154570e+01    2.390455e+00
  1.156157e+01    2.408532e+00
  1.157745e+01    2.349211e+00
  1.159333e+01    2.343274e+00
  1.160920e+01    2.340736e+00
  1.162508e+01    2.361565e+00
  1.164095e+01    2.341623e+00
  1.165683e+01    2.331631e+00
  1.167270e+01    2.341089e+00
  1.168858e+01    2.291781e+00
  1.170445e+01    2.322015e+00
  1.172033e+01    2.318053e+00
  1.173621e+01    2.372874e+00
  1.175208e+01    2.376814e+00
  1.176796e+01    2.331829e+00
  1.178383e+01    2.362903e+00
  1.179971e+01    2.360281e+00
  1.181558e+01    2.298607e+00
  1.183146e+01    2.330333e+00
  1.184733e+01    2.331130e+00
  1.186321e+01    2.324161e+00
  1.187909e+01    2.305559e+00
  1.189496e+01    2.307965e+00
  1.191084e+01    2.300015e+00
  1.192671e+01    2.334728e+00
  1.194259e+01    2.359869e+00
  1.195846e+01    2.340052e+00
  1.197434e+01    2.337637e+00
  1.199021e+01    2.339582e+00
  1.200609e+01    2.313086e+00
  1.202197e+01    2.309431e+00
  1.203784e+01    2.340909e+00
  1.205372e+01    2.385598e+00
  1.206959e+01    2.318422e+00
  1.208547e+01    2.323367e+00
  1.210134e+01    2.306859e+00
  1.211722e+01    2.304800e+00
  1.213309e+01    2.354860e+00
  1.214897e+01    2.346070e+00
  1.216485e+01    2.299948e+00
  1.218072e+01    2.307342e+00
  1.219660e+01    2.330290e+00
  1.221247e+01    2.322537e+00
  1.222835e+01    2.323603e+00
  1.224422e+01    2.299805e+00
  1.226010e+01    2.270923e+00
  1.227597e+01    2.283823e+00
  1.229185e+01    2.300011e+00
  1.230773e+01    2.332661e+00
  1.232360e+01    2.324533e+00
  1.233948e+01    2.281830e+00
  1.235535e+01    2.328706e+00
  1.237123e+01    2.322412e+00
  1.238710e+01    2.263572e+00
  1.240298e+01    2.281008e+00
  1.241886e+01    2.280450e+00
  1.243473e+01    2.290450e+00
  1.245061e+01    2.294230e+00
  1.246648e+01    2.354915e+00
  1.248236e+01    2.342411e+00
  1.249823e+01    2.286027e+00
  1.251411e+01    2.279703e+00
  1.252998e+01    2.274209e+00
  1.254586e+01    2.299807e+00
  1.256174e+01    2.302476e+00
  1.257761e+01    2.346672e+00
  1.259349e+01    2.398880e+00
  1.260936e+01    2.378572e+00
  1.262524e+01    2.409883e+00
  1.264111e+01    2.431702e+00
  1.265699e+01    2.431577e+00
  1.267286e+01    2.392545e+00
  1.268874e+01    2.409454e+00
  1.270462e+01    2.461093e+00
  1.272049e+01    2.476315e+00
  1.273637e+01    2.479412e+00
  1.275224e+01    2.488595e+00
  1.276812e+01    2.508487e+00
  1.278399e+01    2.578434e+00
  1.279987e+01    2.644473e+00
  1.281574e+01    2.723188e+00
  1.283162e+01    2.741557e+00
  1.284750e+01    2.751588e+00
  1.286337e+01    2.842401e+00
  1.287925e+01    2.958088e+00
  1.289512e+01    3.104764e+00
  1.291100e+01    3.282653e+00
  1.292687e+01    3.447172e+00
  1.294275e+01    3.682045e+00
  1.295862e+01    4.008902e+00
  1.297450e+01    4.343872e+00
  1.299038e+01    4.841774e+00
  1.300625e+01    5.411235e+00
  1.302213e+01    6.222982e+00
  1.303800e+01    7.078286e+00
  1.305388e+01    8.270526e+00
  1.306975e+01    9.569785e+00
  1.308563e+01    1.087200e+01
  1.310150e+01    1.207612e+01
  1.311738e+01    1.334866e+01
  1.313326e+01    1.447816e+01
  1.314913e+01    1.569489e+01
  1.316501e+01    1.654534e+01
  1.318088e+01    1.683933e+01
  1.319676e+01    1.649599e+01
  1.321263e+01    1.530851e+01
  1.322851e+01    1.352764e+01
  1.324438e+01    1.146817e+01
  1.326026e+01    9.663203e+00
  1.327614e+01    8.193816e+00
  1.329201e+01    7.014950e+00
  1.330789e+01    6.042206e+00
  1.332376e+01    5.272990e+00
  1.333964e+01    4.693682e+00
  1.335551e+01    4.292558e+00
  1.337139e+01    3.927331e+00
  1.338727e+01    3.618479e+00
  1.340314e+01    3.435506e+00
  1.341902e+01    3.232254e+00
  1.343489e+01    3.052330e+00
  1.345077e+01    2.936010e+00
  1.346664e+01    2.870490e+00
  1.348252e+01    2.731821e+00
  1.349839e+01    2.677978e+00
  1.351427e+01    2.618521e+00
  1.353015e+01    2.542907e+00
  1.354602e+01    2.469068e+00
  1.356190e+01    2.467419e+00
  1.357777e+01    2.428313e+00
  1.359365e+01    2.368697e+00
  1.360952e+01    2.337210e+00
  1.362540e+01    2.343053e+00
  1.364127e+01    2.319654e+00
  1.365715e+01    2.291026e+00
  1.367303e+01    2.249645e+00
  1.368890e+01    2.217023e+00
  1.370478e+01    2.230088e+00
  1.372065e+01    2.191488e+00
  1.373653e+01    2.165918e+00
  1.375240e+01    2.185945e+00
  1.376828e+01    2.164028e+00
  1.378415e+01    2.130181e+00
  1.380003e+01    2.161699e+00
  1.381591e+01    2.183062e+00
  1.383178e+01    2.150357e+00
  1.384766e+01    2.116985e+00
  1.386353e+01    2.105963e+00
  1.387941e+01    2.092376e+00
  1.389528e+01    2.081701e+00
  1.391116e+01    2.053248e+00
  1.392703e+01    2.066374e+00
  1.394291e+01    2.088856e+00
  1.395879e+01    2.086241e+00
  1.397466e+01    2.104728e+00
  1.399054e+01    2.061911e+00
  1.400641e+01    2.035725e+00
  1.402229e+01    2.078303e+00
  1.403816e+01    2.048118e+00
  1.405404e+01    2.035633e+00
  1.406991e+01    2.004600e+00
  1.408579e+01    1.975357e+00
  1.410167e+01    1.968899e+00
  1.411754e+01    1.986649e+00
  1.413342e+01    1.986033e+00
  1.414929e+01    1.954871e+00
  1.416517e+01    1.976637e+00
  1.418104e+01    2.011823e+00
  1.419692e+01    1.963203e+00
  1.421279e+01    1.925130e+00
  1.422867e+01    1.914829e+00
  1.424455e+01    1.952363e+00
  1.426042e+01    1.929803e+00
  1.427630e+01    1.927472e+00
  1.429217e+01    1.906150e+00
  1.430805e+01    1.921801e+00
  1.432392e+01    1.938817e+00
  1.433980e+01    1.915700e+00
  1.435568e+01    1.924372e+00
  1.437155e+01    1.916657e+00
  1.438743e+01    1.911157e+00
  1.440330e+01    1.918928e+00
  1.441918e+01    1.912540e+00
  1.443505e+01    1.949020e+00
  1.445093e+01    1.945904e+00
  1.446680e+01    1.918771e+00
  1.448268e+01    1.885030e+00
  1.449856e+01    1.880704e+00
  1.451443e+01    1.905558e+00
  1.453031e+01    1.941024e+00
  1.454618e+01    1.914282e+00
  1.456206e+01    1.887018e+00
  1.457793e+01    1.886958e+00
  1.459381e+01    1.907776e+00
  1.460968e+01    1.915115e+00
  1.462556e+01    1.915161e+00
  1.464144e+01    1.926886e+00
  1.465731e+01    1.943455e+00
  1.467319e+01    1.866893e+00
  1.468906e+01    1.900577e+00
  1.470494e+01    1.903424e+00
  1.472081e+01    1.896839e+00
  1.473669e+01    1.914391e+00
  1.475256e+01    1.882171e+00
  1.476844e+01    1.881917e+00
  1.478432e+01    1.927402e+00
  1.480019e+01    1.899395e+00
  1.481607e+01    1.888330e+00
  1.483194e+01    1.894893e+00
  1.484782e+01    1.928852e+00
  1.486369e+01    1.942598e+00
  1.487957e+01    1.916671e+00
  1.489544e+01    1.941870e+00
  1.491132e+01    1.957423e+00
  1.492720e+01    1.976249e+00
  1.494307e+01    1.995011e+00
  1.495895e+01    1.996510e+00
  1.497482e+01    2.045118e+00
  1.499070e+01    2.097744e+00
  1.500657e+01    2.150786e+00
  1.502245e+01    2.208475e+00
  1.503832e+01    2.299242e+00
  1.505420e+01    2.425143e+00
  1.507008e+01    2.531207e+00
  1.508595e+01    2.682111e+00
  1.510183e+01    2.836672e+00
  1.511770e+01    3.054531e+00
  1.513358e+01    3.392606e+00
  1.514945e+01    3.822130e+00
  1.516533e+01    4.226778e+00
  1.518120e+01    4.609270e+00
  1.519708e+01    4.905285e+00
  1.521296e+01    5.142753e+00
  1.522883e+01    5.405404e+00
  1.524471e+01    5.621303e+00
  1.526058e+01    5.789346e+00
  1.527646e+01    5.763950e+00
  1.529233e+01    5.542139e+00
  1.530821e+01    5.203492e+00
  1.532409e+01    4.755194e+00
  1.533996e+01    4.241642e+00
  1.535584e+01    3.750428e+00
  1.537171e+01    3.361620e+00
  1.538759e+01    3.029938e+00
  1.540346e+01    2.764612e+00
  1.541934e+01    2.542127e+00
  1.543521e+01    2.352119e+00
  1.545109e+01    2.259584e+00
  1.546697e+01    2.187360e+00
  1.548284e+01    2.128802e+00
  1.549872e+01    2.034161e+00
  1.551459e+01    1.969002e+00
  1.553047e+01    1.907289e+00
  1.554634e+01    1.898337e+00
  1.556222e+01    1.908552e+00
  1.557809e+01    1.844617e+00
  1.559397e+01    1.814925e+00
  1.560985e+01    1.800441e+00
  1.562572e+01    1.775965e+00
  1.564160e+01    1.769182e+00
  1.565747e+01    1.770051e+00
  1.567335e+01    1.711723e+00
  1.568922e+01    1.709137e+00
  1.570510e+01    1.706404e+00
  1.572097e+01    1.704381e+00
  1.573685e+01    1.723050e+00
  1.575273e+01    1.696652e+00
  1.576860e+01    1.681771e+00
  1.578448e+01    1.658892e+00
  1.580035e+01    1.662186e+00
  1.581623e+01    1.612708e+00
  1.583210e+01    1.621433e+00
  1.584798e+01    1.662480e+00
  1.586385e+01    1.631445e+00
  1.587973e+01    1.613003e+00
  1.589561e+01    1.598238e+00
  1.591148e+01    1.589533e+00
  1.592736e+01    1.625714e+00
  1.594323e+01    1.599178e+00
  1.595911e+01    1.585536e+00
  1.597498e+01    1.624059e+00
  1.599086e+01    1.627299e+00
  1.600673e+01    1.590853e+00
  1.602261e+01    1.565671e+00
  1.603849e+01    1.591254e+00
  1.605436e+01    1.594623e+00
  1.607024e+01    1.568785e+00
  1.608611e+01    1.550057e+00
  1.610199e+01    1.538917e+00
  1.611786e+01    1.598877e+00
  1.613374e+01    1.604688e+00
  1.614961e+01    1.576368e+00
  1.616549e+01    1.547916e+00
  1.618137e+01    1.540614e+00
  1.619724e+01    1.535506e+00
  1.621312e+01    1.552605e+00
  1.622899e+01    1.532002e+00
  1.624487e+01    1.532883e+00
  1.626074e+01    1.540647e+00
  1.627662e+01    1.565046e+00
  1.629250e+01    1.579601e+00
  1.630837e+01    1.595064e+00
  1.632425e+01    1.554684e+00
  1.634012e+01    1.507122e+00
  1.635600e+01    1.493461e+00
  1.637187e+01    1.525760e+00
  1.638775e+01    1.500077e+00
  1.640362e+01    1.477842e+00
  1.641950e+01    1.486893e+00
  1.643538e+01    1.457178e+00
  1.645125e+01    1.466058e+00
  1.646713e+01    1.494831e+00
  1.648300e+01    1.461534e+00
  1.649888e+01    1.452258e+00
  1.651475e+01    1.492808e+00
  1.653063e+01    1.506399e+00
  1.654650e+01    1.474321e+00
  1.656238e+01    1.494714e+00
  1.657826e+01    1.508438e+00
  1.659413e+01    1.506323e+00
  1.661001e+01    1.479726e+00
  1.662588e+01    1.488315e+00
  1.664176e+01    1.517992e+00
  1.665763e+01    1.475317e+00
  1.667351e+01    1.451386e+00
  1.668938e+01    1.448925e+00
  1.670526e+01    1.445285e+00
  1.672114e+01    1.439492e+00
  1.673701e+01    1.458594e+00
  1.675289e+01    1.472811e+00
  1.676876e+01    1.461244e+00
  1.678464e+01    1.431497e+00
  1.680051e+01    1.433372e+00
  1.681639e+01    1.450667e+00
  1.683226e+01    1.454860e+00
  1.684814e+01    1.454814e+00
  1.686402e+01    1.448571e+00
  1.687989e+01    1.428706e+00
  1.689577e+01    1.438779e+00
  1.691164e+01    1.420375e+00
  1.692752e+01    1.425706e+00
  1.694339e+01    1.423800e+00
  1.695927e+01    1.420006e+00
  1.697514e+01    1.436448e+00
  1.699102e+01    1.445183e+00
  1.700690e+01    1.478596e+00
  1.702277e+01    1.431558e+00
  1.703865e+01    1.442114e+00
  1.705452e+01    1.390876e+00
  1.707040e+01    1.358308e+00
  1.708627e+01    1.397214e+00
  1.710215e+01    1.431432e+00
  1.711802e+01    1.429229e+00
  1.713390e+01    1.389032e+00
  1.714978e+01    1.408531e+00
  1.716565e+01    1.412540e+00
  1.718153e+01    1.394082e+00
  1.719740e+01    1.396190e+00
  1.721328e+01    1.414065e+00
  1.722915e+01    1.411012e+00
  1.724503e+01    1.387839e+00
  1.726091e+01    1.374271e+00
  1.727678e+01    1.369395e+00
  1.729266e+01    1.363642e+00
  1.730853e+01    1.374740e+00
  1.732441e+01    1.362075e+00
  1.734028e+01    1.343364e+00
  1.735616e+01    1.349052e+00
  1.737203e+01    1.342936e+00
  1.738791e+01    1.354795e+00
  1.740379e+01    1.386575e+00
  1.741966e+01    1.364241e+00
  1.743554e+01    1.351908e+00
  1.745141e+01    1.376759e+00
  1.746729e+01    1.357360e+00
  1.748316e+01    1.352372e+00
  1.749904e+01    1.378315e+00
  1.751491e+01    1.351444e+00
  1.753079e+01    1.345432e+00
  1.754667e+01    1.359502e+00
  1.756254e+01    1.349675e+00
  1.757842e+01    1.354307e+00
  1.759429e+01    1.360123e+00
  1.761017e+01    1.353573e+00
  1.762604e+01    1.332840e+00
  1.764192e+01    1.328957e+00
  1.765779e+01    1.355166e+00
  1.767367e+01    1.317182e+00
  1.768955e+01    1.306190e+00
  1.770542e+01    1.328095e+00
  1.772130e+01    1.343975e+00
  1.773717e+01    1.321285e+00
  1.775305e+01    1.316825e+00
  1.776892e+01    1.319273e+00
  1.778480e+01    1.324180e+00
  1.780067e+01    1.329121e+00
  1.781655e+01    1.325949e+00
  1.783243e+01    1.325514e+00
  1.784830e+01    1.306581e+00
  1.786418e+01    1.293682e+00
  1.788005e+01    1.299163e+00
  1.789593e+01    1.330164e+00
  1.791180e+01    1.311033e+00
  1.792768e+01    1.303325e+00
  1.794355e+01    1.267641e+00
  1.795943e+01    1.292998e+00
  1.797531e+01    1.300196e+00
  1.799118e+01    1.294892e+00
  1.800706e+01    1.290476e+00
  1.802293e+01    1.291072e+00
  1.803881e+01    1.284907e+00
  1.805468e+01    1.274953e+00
  1.807056e+01    1.259874e+00
  1.808643e+01    1.277590e+00
  1.810231e+01    1.294477e+00
  1.811819e+01    1.312740e+00
  1.813406e+01    1.278135e+00
  1.814994e+01    1.278307e+00
  1.816581e+01    1.269473e+00
  1.818169e+01    1.277533e+00
  1.819756e+01    1.260897e+00
  1.821344e+01    1.269217e+00
  1.822932e+01    1.302942e+00
  1.824519e+01    1.264550e+00
  1.826107e+01    1.240222e+00
  1.827694e+01    1.276451e+00
  1.829282e+01    1.273585e+00
  1.830869e+01    1.265950e+00
  1.832457e+01    1.252261e+00
  1.834044e+01    1.242394e+00
  1.835632e+01    1.220170e+00
  1.837220e+01    1.223819e+00
  1.838807e+01    1.231499e+00
  1.840395e+01    1.250607e+00
  1.841982e+01    1.250358e+00
  1.843570e+01    1.250111e+00
  1.845157e+01    1.250207e+00
  1.846745e+01    1.257502e+00
  1.848332e+01    1.264456e+00
  1.849920e+01    1.253106e+00
  1.851508e+01    1.226666e+00
  1.853095e+01    1.217517e+00
  1.854683e+01    1.240740e+00
  1.856270e+01    1.252749e+00
  1.857858e+01    1.257049e+00
  1.859445e+01    1.227572e+00
  1.861033e+01    1.249028e+00
  1.862620e+01    1.216875e+00
  1.864208e+01    1.192221e+00
  1.865796e+01    1.205396e+00
  1.867383e+01    1.221882e+00
  1.868971e+01    1.226218e+00
  1.870558e+01    1.226000e+00
  1.872146e+01    1.254881e+00
  1.873733e+01    1.237566e+00
  1.875321e+01    1.222815e+00
  1.876908e+01    1.205750e+00
  1.878496e+01    1.209999e+00
  1.880084e+01    1.200121e+00
  1.881671e+01    1.205003e+00
  1.883259e+01    1.194162e+00
  1.884846e+01    1.201058e+00
  1.886434e+01    1.204797e+00
  1.888021e+01    1.190364e+00
  1.889609e+01    1.178739e+00
  1.891196e+01    1.187137e+00
  1.892784e+01    1.208661e+00
  1.894372e+01    1.188356e+00
  1.895959e+01    1.181340e+00
  1.897547e+01    1.180617e+00
  1.899134e+01    1.185837e+00
  1.900722e+01    1.224257e+00
  1.902309e+01    1.206862e+00
  1.903897e+01    1.180096e+00
  1.905484e+01    1.184423e+00
  1.907072e+01    1.197685e+00
  1.908660e+01    1.201144e+00
  1.910247e+01    1.211592e+00
  1.911835e+01    1.209840e+00
  1.913422e+01    1.206991e+00
  1.915010e+01    1.187721e+00
  1.916597e+01    1.160162e+00
  1.918185e+01    1.202066e+00
  1.919773e+01    1.192746e+00
  1.921360e+01    1.167374e+00
  1.922948e+01    1.194018e+00
  1.924535e+01    1.179663e+00
  1.926123e+01    1.173798e+00
  1.927710e+01    1.143584e+00
  1.929298e+01    1.175805e+00
  1.930885e+01    1.163198e+00
  1.932473e+01    1.150122e+00
  1.934061e+01    1.169252e+00
  1.935648e+01    1.151537e+00
  1.937236e+01    1.161373e+00
  1.938823e+01    1.181266e+00
  1.940411e+01    1.144783e+00
  1.941998e+01    1.152807e+00
  1.943586e+01    1.157438e+00
  1.945173e+01    1.142771e+00
  1.946761e+01    1.144984e+00
  1.948349e+01    1.168184e+00
  1.949936e+01    1.173976e+00
  1.951524e+01    1.171511e+00
  1.953111e+01    1.144979e+00
  1.954699e+01    1.137016e+00
  1.956286e+01    1.147205e+00
  1.957874e+01    1.151065e+00
  1.959461e+01    1.155639e+00
  1.961049e+01    1.160600e+00
  1.962637e+01    1.172055e+00
  1.964224e+01    1.147156e+00
  1.965812e+01    1.114835e+00
  1.967399e+01    1.123941e+00
  1.968987e+01    1.122845e+00
  1.970574e+01    1.124443e+00
  1.972162e+01    1.131193e+00
  1.973749e+01    1.160592e+00
  1.975337e+01    1.165022e+00
  1.976925e+01    1.133380e+00
  1.978512e+01    1.129145e+00
  1.980100e+01    1.126286e+00
  1.981687e+01    1.154510e+00
  1.983275e+01    1.127278e+00
  1.984862e+01    1.104290e+00
  1.986450e+01    1.117132e+00
  1.988037e+01    1.105652e+00
  1.989625e+01    1.090281e+00
  1.991213e+01    1.103461e+00
  1.992800e+01    1.105939e+00
  1.994388e+01    1.111970e+00
  1.995975e+01    1.102796e+00
  1.997563e+01    1.108921e+00
  1.999150e+01    1.096904e+00
  2.000738e+01    1.086442e+00
  2.002325e+01    1.095766e+00
  2.003913e+01    1.102473e+00
  2.005501e+01    1.102594e+00
  2.007088e+01    1.084535e+00
  2.008676e+01    1.113979e+00
  2.010263e+01    1.117808e+00
  2.011851e+01    1.102046e+00
  2.013438e+01    1.126584e+00
  2.015026e+01    1.107674e+00
  2.016614e+01    1.103214e+00
  2.018201e+01    1.117230e+00
  2.019789e+01    1.098617e+00
  2.021376e+01    1.088191e+00
  2.022964e+01    1.093520e+00
  2.024551e+01    1.108031e+00
  2.026139e+01    1.100912e+00
  2.027726e+01    1.089111e+00
  2.029314e+01    1.093970e+00
  2.030902e+01    1.102714e+00
  2.032489e+01    1.115620e+00
  2.034077e+01    1.088120e+00
  2.035664e+01    1.074881e+00
  2.037252e+01    1.093590e+00
  2.038839e+01    1.073294e+00
  2.040427e+01    1.055519e+00
  2.042014e+01    1.084683e+00
  2.043602e+01    1.081518e+00
  2.045190e+01    1.057937e+00
  2.046777e+01    1.063925e+00
  2.048365e+01    1.071584e+00
  2.049952e+01    1.082244e+00
  2.051540e+01    1.082839e+00
  2.053127e+01    1.088238e+00
  2.054715e+01    1.082696e+00
  2.056302e+01    1.065884e+00
  2.057890e+01    1.054234e+00
  2.059478e+01    1.045746e+00
  2.061065e+01    1.090390e+00
  2.062653e+01    1.056479e+00
  2.064240e+01    1.064261e+00
  2.065828e+01    1.079837e+00
  2.067415e+01    1.084403e+00
  2.069003e+01    1.085204e+00
  2.070590e+01    1.065565e+00
  2.072178e+01    1.072098e+00
  2.073766e+01    1.065875e+00
  2.075353e+01    1.079909e+00
  2.076941e+01    1.065772e+00
  2.078528e+01    1.045594e+00
  2.080116e+01    1.065503e+00
  2.081703e+01    1.082177e+00
  2.083291e+01    1.068026e+00
  2.084878e+01    1.067984e+00
  2.086466e+01    1.085323e+00
  2.088054e+01    1.084359e+00
  2.089641e+01    1.077755e+00
  2.091229e+01    1.059971e+00
  2.092816e+01    1.049863e+00
  2.094404e+01    1.097628e+00
  2.095991e+01    1.066913e+00
  2.097579e+01    1.056694e+00
  2.099166e+01    1.081962e+00
  2.100754e+01    1.049731e+00
  2.102342e+01    1.081351e+00
  2.103929e+01    1.099575e+00
  2.105517e+01    1.089315e+00
  2.107104e+01    1.053764e+00
  2.108692e+01    1.044950e+00
  2.110279e+01    1.064114e+00
  2.111867e+01    1.079923e+00
  2.113455e+01    1.067903e+00
  2.115042e+01    1.078785e+00
  2.116630e+01    1.075803e+00
  2.118217e+01    1.090457e+00
  2.119805e+01    1.083929e+00
  2.121392e+01    1.096728e+00
  2.122980e+01    1.096438e+00
  2.124567e+01    1.100049e+00
  2.126155e+01    1.090361e+00
  2.127743e+01    1.118214e+00
  2.129330e+01    1.112829e+00
  2.130918e+01    1.118373e+00
  2.132505e+01    1.139749e+00
  2.134093e+01    1.112844e+00
  2.135680e+01    1.127844e+00
  2.137268e+01    1.140730e+00
  2.138855e+01    1.151029e+00
  2.140443e+01    1.149726e+00
  2.142031e+01    1.171677e+00
  2.143618e+01    1.184916e+00
  2.145206e+01    1.211068e+00
  2.146793e+01    1.228093e+00
  2.148381e+01    1.237433e+00
  2.149968e+01    1.278919e+00
  2.151556e+01    1.312956e+00
  2.153143e+01    1.330230e+00
  2.154731e+01    1.374308e+00
  2.156319e+01    1.391962e+00
  2.157906e+01    1.467843e+00
  2.159494e+01    1.545244e+00
  2.161081e+01    1.603884e+00
  2.162669e+01    1.693901e+00
  2.164256e+01    1.809629e+00
  2.165844e+01    1.931576e+00
  2.167431e+01    2.105531e+00
  2.169019e+01    2.308859e+00
  2.170607e+01    2.528280e+00
  2.172194e+01    2.854930e+00
  2.173782e+01    3.233020e+00
  2.175369e+01    3.698567e+00
  2.176957e+01    4.299133e+00
  2.178544e+01    4.851264e+00
  2.180132e+01    5.521380e+00
  2.181719e+01    6.257382e+00
  2.183307e+01    6.947263e+00
  2.184895e+01    7.575276e+00
  2.186482e+01    8.315064e+00
  2.188070e+01    8.875682e+00
  2.189657e+01    9.156410e+00
  2.191245e+01    9.196639e+00
  2.192832e+01    8.854117e+00
  2.194420e+01    8.090310e+00
  2.196007e+01    7.178603e+00
  2.197595e+01    6.149871e+00
  2.199183e+01    5.144881e+00
  2.200770e+01    4.419399e+00
  2.202358e+01    3.798492e+00
  2.203945e+01    3.280010e+00
  2.205533e+01    2.871263e+00
  2.207120e+01    2.558667e+00
  2.208708e+01    2.308337e+00
  2.210296e+01    2.115319e+00
  2.211883e+01    1.938479e+00
  2.213471e+01    1.792184e+00
  2.215058e+01    1.687830e+00
  2.216646e+01    1.566692e+00
  2.218233e+01    1.507347e+00
  2.219821e+01    1.443427e+00
  2.221408e+01    1.384765e+00
  2.222996e+01    1.343338e+00
  2.224584e+01    1.306429e+00
  2.226171e+01    1.248984e+00
  2.227759e+01    1.194345e+00
  2.229346e+01    1.181230e+00
  2.230934e+01    1.152289e+00
  2.232521e+01    1.147816e+00
  2.234109e+01    1.112240e+00
  2.235696e+01    1.118954e+00
  2.237284e+01    1.102488e+00
  2.238872e+01    1.076974e+00
  2.240459e+01    1.068808e+00
  2.242047e+01    1.064269e+00
  2.243634e+01    1.050356e+00
  2.245222e+01    1.039895e+00
  2.246809e+01    1.050242e+00
  2.248397e+01    1.023115e+00
  2.249984e+01    9.910249e-01
  2.251572e+01    9.839776e-01
  2.253160e+01    1.001475e+00
  2.254747e+01    1.007909e+00
  2.256335e+01    9.936175e-01
  2.257922e+01    9.887662e-01
  2.259510e+01    9.697937e-01
  2.261097e+01    9.636402e-01
  2.262685e+01    9.507518e-01
  2.264272e+01    9.451790e-01
  2.265860e+01    9.518512e-01
  2.267448e+01    9.671988e-01
  2.269035e+01    9.642997e-01
  2.270623e+01    9.515916e-01
  2.272210e+01    9.420571e-01
  2.273798e+01    9.492128e-01
  2.275385e+01    9.466681e-01
  2.276973e+01    9.260291e-01
  2.278560e+01    9.291101e-01
  2.280148e+01    9.220740e-01
  2.281736e+01    9.144374e-01
  2.283323e+01    9.290064e-01
  2.284911e+01    9.410686e-01
  2.286498e+01    9.060207e-01
  2.288086e+01    8.749274e-01
  2.289673e+01    8.880633e-01
  2.291261e+01    9.056762e-01
  2.292848e+01    9.100369e-01
  2.294436e+01    8.940249e-01
  2.296024e+01    9.067928e-01
  2.297611e+01    8.811541e-01
  2.299199e+01    8.775958e-01
  2.300786e+01    8.744156e-01
  2.302374e+01    8.860760e-01
  2.303961e+01    9.103445e-01
  2.305549e+01    9.144894e-01
  2.307137e+01    8.913312e-01
  2.308724e+01    8.662583e-01
  2.310312e+01    8.756883e-01
  2.311899e+01    8.752596e-01
  2.313487e+01    8.806576e-01
  2.315074e+01    8.894903e-01
  2.316662e+01    8.802590e-01
  2.318249e+01    8.720884e-01
  2.319837e+01    8.503116e-01
  2.321425e+01    8.560524e-01
  2.323012e+01    8.718593e-01
  2.324600e+01    8.611915e-01
  2.326187e+01    8.973775e-01
  2.327775e+01    8.834157e-01
  2.329362e+01    8.591934e-01
  2.330950e+01    8.611386e-01
  2.332537e+01    8.502716e-01
  2.334125e+01    8.571239e-01
  2.335713e+01    8.525531e-01
  2.337300e+01    8.529945e-01
  2.338888e+01    8.583533e-01
  2.340475e+01    8.539516e-01
  2.342063e+01    8.500657e-01
  2.343650e+01    8.520772e-01
  2.345238e+01    8.604504e-01
  2.346825e+01    8.328666e-01
  2.348413e+01    8.360008e-01
  2.350001e+01    8.358382e-01
  2.351588e+01    8.207961e-01
  2.353176e+01    8.251991e-01
  2.354763e+01    8.515248e-01
  2.356351e+01    8.373553e-01
  2.357938e+01    8.269813e-01
  2.359526e+01    8.405945e-01
  2.361113e+01    8.353304e-01
  2.362701e+01    8.296666e-01
  2.364289e+01    8.396220e-01
  2.365876e+01    8.259230e-01
  2.367464e+01    8.250471e-01
  2.369051e+01    8.035387e-01
  2.370639e+01    8.109538e-01
  2.372226e+01    8.060718e-01
  2.373814e+01    8.223914e-01
  2.375401e+01    8.237304e-01
  2.376989e+01    8.014718e-01
  2.378577e+01    8.089101e-01
  2.380164e+01    8.151690e-01
  2.381752e+01    8.091638e-01
  2.383339e+01    8.095260e-01
  2.384927e+01    8.041174e-01
  2.386514e+01    7.983637e-01
  2.388102e+01    7.959741e-01
  2.389689e+01    7.946270e-01
  2.391277e+01    8.212902e-01
  2.392865e+01    7.889358e-01
  2.394452e+01    7.953928e-01
  2.396040e+01    7.893997e-01
  2.397627e+01    7.765158e-01
  2.399215e+01    7.986460e-01
  2.400802e+01    8.143761e-01
  2.402390e+01    7.966419e-01
  2.403978e+01    7.997864e-01
  2.405565e+01    7.742855e-01
  2.407153e+01    7.731763e-01
  2.408740e+01    7.719343e-01
  2.410328e+01    7.820987e-01
  2.411915e+01    7.861263e-01
  2.413503e+01    7.886116e-01
  2.415090e+01    7.714612e-01
  2.416678e+01    7.732503e-01
  2.418266e+01    7.635815e-01
  2.419853e+01    7.659895e-01
  2.421441e+01    7.895509e-01
  2.423028e+01    7.615157e-01
  2.424616e+01    7.618056e-01
  2.426203e+01    7.715212e-01
  2.427791e+01    7.888387e-01
  2.429378e+01    7.814546e-01
  2.430966e+01    7.551541e-01
  2.432554e+01    7.767648e-01
  2.434141e+01    7.635877e-01
  2.435729e+01    7.679738e-01
  2.437316e+01    7.783073e-01
  2.438904e+01    7.965432e-01
  2.440491e+01    7.914283e-01
  2.442079e+01    7.687755e-01
  2.443666e+01    7.878262e-01
  2.445254e+01    7.732500e-01
  2.446842e+01    7.827148e-01
  2.448429e+01    8.019399e-01
  2.450017e+01    7.734396e-01
  2.451604e+01    7.620253e-01
  2.453192e+01    7.740383e-01
  2.454779e+01    7.726708e-01
  2.456367e+01    7.913843e-01
  2.457954e+01    7.851847e-01
  2.459542e+01    8.002562e-01
  2.461130e+01    7.887676e-01
  2.462717e+01    7.855290e-01
  2.464305e+01    7.608750e-01
  2.465892e+01    7.783373e-01
  2.467480e+01    7.907853e-01
  2.469067e+01    7.915046e-01
  2.470655e+01    8.013291e-01
  2.472242e+01    7.824811e-01
  2.473830e+01    7.844882e-01
  2.475418e+01    7.891775e-01
  2.477005e+01    7.601712e-01
  2.478593e+01    7.648132e-01
  2.480180e+01    7.870167e-01
  2.481768e+01    7.726057e-01
  2.483355e+01    7.964855e-01
  2.484943e+01    7.910561e-01
  2.486530e+01    7.911776e-01
  2.488118e+01    7.933667e-01
  2.489706e+01    7.786246e-01
  2.491293e+01    7.822856e-01
  2.492881e+01    7.816992e-01
  2.494468e+01    8.006119e-01
  2.496056e+01    8.140695e-01
  2.497643e+01    8.095180e-01
  2.499231e+01    8.081263e-01
  2.500819e+01    7.938390e-01
  2.502406e+01    8.020718e-01
  2.503994e+01    7.859295e-01
  2.505581e+01    7.927245e-01
  2.507169e+01    7.976874e-01
  2.508756e+01    7.898308e-01
  2.510344e+01    7.933887e-01
  2.511931e+01    8.047706e-01
  2.513519e+01    7.945169e-01
  2.515107e+01    8.149885e-01
  2.516694e+01    8.349425e-01
  2.518282e+01    8.287730e-01
  2.519869e+01    8.273810e-01
  2.521457e+01    8.467088e-01
  2.523044e+01    8.279172e-01
  2.524632e+01    8.446419e-01
  2.526219e+01    8.663728e-01
  2.527807e+01    8.466583e-01
  2.529395e+01    8.656396e-01
  2.530982e+01    8.632707e-01
  2.532570e+01    8.673340e-01
  2.534157e+01    8.589746e-01
  2.535745e+01    8.571516e-01
  2.537332e+01    8.759515e-01
  2.538920e+01    8.947691e-01
  2.540507e+01    9.036918e-01
  2.542095e+01    9.098951e-01
  2.543683e+01    9.246013e-01
  2.545270e+01    9.450777e-01
  2.546858e+01    9.384399e-01
  2.548445e+01    9.378628e-01
  2.550033e+01    9.465205e-01
  2.551620e+01    9.541674e-01
  2.553208e+01    9.989420e-01
  2.554795e+01    1.019750e+00
  2.556383e+01    1.027522e+00
  2.557971e+01    1.062886e+00
  2.559558e+01    1.096202e+00
  2.561146e+01    1.139694e+00
  2.562733e+01    1.182104e+00
  2.564321e+01    1.217604e+00
  2.565908e+01    1.277827e+00
  2.567496e+01    1.321402e+00
  2.569083e+01    1.383346e+00
  2.570671e+01    1.482540e+00
  2.572259e+01    1.565361e+00
  2.573846e+01    1.686407e+00
  2.575434e+01    1.865069e+00
  2.577021e+01    2.067131e+00
  2.578609e+01    2.302844e+00
  2.580196e+01    2.591660e+00
  2.581784e+01    2.956580e+00
  2.583371e+01    3.383888e+00
  2.584959e+01    3.832209e+00
  2.586547e+01    4.371647e+00
  2.588134e+01    5.033037e+00
  2.589722e+01    5.646872e+00
  2.591309e+01    6.300162e+00
  2.592897e+01    6.867584e+00
  2.594484e+01    7.303753e+00
  2.596072e+01    7.529339e+00
  2.597660e+01    7.573267e+00
  2.599247e+01    7.192324e+00
  2.600835e+01    6.635771e+00
  2.602422e+01    6.014327e+00
  2.604010e+01    5.206839e+00
  2.605597e+01    4.398911e+00
  2.607185e+01    3.826283e+00
  2.608772e+01    3.271921e+00
  2.610360e+01    2.825489e+00
  2.611948e+01    2.478967e+00
  2.613535e+01    2.218117e+00
  2.615123e+01    2.006544e+00
  2.616710e+01    1.842693e+00
  2.618298e+01    1.687914e+00
  2.619885e+01    1.583763e+00
  2.621473e+01    1.473117e+00
  2.623060e+01    1.386889e+00
  2.624648e+01    1.316306e+00
  2.626236e+01    1.234014e+00
  2.627823e+01    1.191921e+00
  2.629411e+01    1.159488e+00
  2.630998e+01    1.122019e+00
  2.632586e+01    1.103781e+00
  2.634173e+01    1.076010e+00
  2.635761e+01    1.035301e+00
  2.637348e+01    1.012647e+00
  2.638936e+01    9.906090e-01
  2.640524e+01    9.749182e-01
  2.642111e+01    9.617839e-01
  2.643699e+01    9.556407e-01
  2.645286e+01    9.745066e-01
  2.646874e+01    9.484990e-01
  2.648461e+01    9.297346e-01
  2.650049e+01    9.252100e-01
  2.651636e+01    9.187129e-01
  2.653224e+01    8.973892e-01
  2.654812e+01    8.991444e-01
  2.656399e+01    9.028662e-01
  2.657987e+01    9.087870e-01
  2.659574e+01    8.838496e-01
  2.661162e+01    8.973091e-01
  2.662749e+01    8.784409e-01
  2.664337e+01    8.799541e-01
  2.665924e+01    8.734746e-01
  2.667512e+01    8.911602e-01
  2.669100e+01    8.970314e-01
  2.670687e+01    8.592280e-01
  2.672275e+01    8.805625e-01
  2.673862e+01    8.946777e-01
  2.675450e+01    8.866754e-01
  2.677037e+01    8.924754e-01
  2.678625e+01    9.103236e-01
  2.680212e+01    8.911393e-01
  2.681800e+01    8.962309e-01
  2.683388e+01    9.111975e-01
  2.684975e+01    9.242252e-01
  2.686563e+01    9.301358e-01
  2.688150e+01    9.048166e-01
  2.689738e+01    9.067902e-01
  2.691325e+01    9.069582e-01
  2.692913e+01    9.281654e-01
  2.694501e+01    9.420149e-01
  2.696088e+01    9.446847e-01
  2.697676e+01    9.623926e-01
  2.699263e+01    1.000844e+00
  2.700851e+01    1.018175e+00
  2.702438e+01    1.060850e+00
  2.704026e+01    1.092311e+00
  2.705613e+01    1.176005e+00
  2.707201e+01    1.229480e+00
  2.708789e+01    1.275465e+00
  2.710376e+01    1.344520e+00
  2.711964e+01    1.473478e+00
  2.713551e+01    1.605912e+00
  2.715139e+01    1.766115e+00
  2.716726e+01    1.921212e+00
  2.718314e+01    2.033920e+00
  2.719901e+01    2.194136e+00
  2.721489e+01    2.235401e+00
  2.723077e+01    2.209262e+00
  2.724664e+01    2.171603e+00
  2.726252e+01    2.112851e+00
  2.727839e+01    1.959884e+00
  2.729427e+01    1.786114e+00
  2.731014e+01    1.642017e+00
  2.732602e+01    1.488573e+00
  2.734189e+01    1.355552e+00
  2.735777e+01    1.274317e+00
  2.737365e+01    1.196757e+00
  2.738952e+01    1.128183e+00
  2.740540e+01    1.062495e+00
  2.742127e+01    1.036384e+00
  2.743715e+01    9.943023e-01
  2.745302e+01    9.573191e-01
  2.746890e+01    9.403197e-01
  2.748477e+01    9.284670e-01
  2.750065e+01    9.159132e-01
  2.751653e+01    8.898833e-01
  2.753240e+01    9.037175e-01
  2.754828e+01    8.962033e-01
  2.756415e+01    8.702890e-01
  2.758003e+01    8.615340e-01
  2.759590e+01    8.455800e-01
  2.761178e+01    8.498943e-01
  2.762765e+01    8.310644e-01
  2.764353e+01    8.413077e-01
  2.765941e+01    8.333777e-01
  2.767528e+01    8.257531e-01
  2.769116e+01    8.240348e-01
  2.770703e+01    8.019670e-01
  2.772291e+01    8.040962e-01
  2.773878e+01    7.956083e-01
  2.775466e+01    7.979469e-01
  2.777054e+01    8.074893e-01
  2.778641e+01    8.110234e-01
  2.780229e+01    8.214130e-01
  2.781816e+01    7.975425e-01
  2.783404e+01    7.816486e-01
  2.784991e+01    7.994309e-01
  2.786579e+01    7.972649e-01
  2.788166e+01    8.006552e-01
  2.789754e+01    7.659587e-01
  2.791342e+01    7.807680e-01
  2.792929e+01    7.759536e-01
  2.794517e+01    7.981487e-01
  2.796104e+01    8.075365e-01
  2.797692e+01    7.865182e-01
  2.799279e+01    7.817968e-01
  2.800867e+01    7.785051e-01
  2.802454e+01    7.691042e-01
  2.804042e+01    7.518989e-01
  2.805630e+01    7.745759e-01
  2.807217e+01    7.772835e-01
  2.808805e+01    7.735142e-01
  2.810392e+01    7.714815e-01
  2.811980e+01    7.780840e-01
  2.813567e+01    7.624530e-01
  2.815155e+01    7.734808e-01
  2.816742e+01    7.501544e-01
  2.818330e+01    7.591726e-01
  2.819918e+01    7.685342e-01
  2.821505e+01    7.759828e-01
  2.823093e+01    7.792914e-01
  2.824680e+01    7.601163e-01
  2.826268e+01    7.666643e-01
  2.827855e+01    7.641066e-01
  2.829443e+01    7.612649e-01
  2.831030e+01    7.725866e-01
  2.832618e+01    7.853328e-01
  2.834206e+01    7.727148e-01
  2.835793e+01    7.708525e-01
  2.837381e+01    7.479531e-01
  2.838968e+01    7.557688e-01
  2.840556e+01    7.419355e-01
  2.842143e+01    7.341385e-01
  2.843731e+01    7.575821e-01
  2.845318e+01    7.579564e-01
  2.846906e+01    7.524343e-01
  2.848494e+01    7.493882e-01
  2.850081e+01    7.390839e-01
  2.851669e+01    7.413324e-01
  2.853256e+01    7.445464e-01
  2.854844e+01    7.454044e-01
  2.856431e+01    7.225223e-01
  2.858019e+01    7.355118e-01
  2.859606e+01    7.527787e-01
  2.861194e+01    7.218644e-01
  2.862782e+01    7.234392e-01
  2.864369e+01    7.085524e-01
  2.865957e+01    7.439614e-01
  2.867544e+01    7.486153e-01
  2.869132e+01    7.298854e-01
  2.870719e+01    7.392433e-01
  2.872307e+01    7.453134e-01
  2.873895e+01    7.380784e-01
  2.875482e+01    7.421732e-01
  2.877070e+01    7.490848e-01
  2.878657e+01    7.416035e-01
  2.880245e+01    7.318292e-01
  2.881832e+01    7.248598e-01
  2.883420e+01    7.409441e-01
  2.885007e+01    7.457305e-01
  2.886595e+01    7.345078e-01
  2.888183e+01    7.356531e-01
  2.889770e+01    7.242321e-01
  2.891358e+01    7.406606e-01
  2.892945e+01    7.350710e-01
  2.894533e+01    7.381243e-01
  2.896120e+01    7.348080e-01
  2.897708e+01    7.074735e-01
  2.899295e+01    7.164876e-01
  2.900883e+01    7.504074e-01
  2.902471e+01    7.461677e-01
  2.904058e+01    7.474287e-01
  2.905646e+01    7.266771e-01
  2.907233e+01    7.299765e-01
  2.908821e+01    7.350783e-01
  2.910408e+01    7.445363e-01
  2.911996e+01    7.535321e-01
  2.913583e+01    7.405612e-01
  2.915171e+01    7.259563e-01
  2.916759e+01    7.264159e-01
  2.918346e+01    7.304545e-01
  2.919934e+01    7.320138e-01
  2.921521e+01    7.201228e-01
  2.923109e+01    7.094586e-01
  2.924696e+01    7.347942e-01
  2.926284e+01    7.349340e-01
  2.927871e+01    7.364640e-01
  2.929459e+01    7.268938e-01
  2.931047e+01    7.271097e-01
  2.932634e+01    7.205274e-01
  2.934222e+01    7.251177e-01
  2.935809e+01    7.501065e-01
  2.937397e+01    7.444290e-01
  2.938984e+01    7.085030e-01
  2.940572e+01    7.132856e-01
  2.942159e+01    7.106714e-01
  2.943747e+01    7.131859e-01
  2.945335e+01    7.118395e-01
  2.946922e+01    7.132565e-01
  2.948510e+01    7.125401e-01
  2.950097e+01    7.152130e-01
  2.951685e+01    6.992854e-01
  2.953272e+01    7.032046e-01
  2.954860e+01    7.172438e-01
  2.956447e+01    7.115172e-01
  2.958035e+01    7.085617e-01
  2.959623e+01    7.024216e-01
  2.961210e+01    7.040104e-01
  2.962798e+01    7.082884e-01
  2.964385e+01    7.041478e-01
  2.965973e+01    7.058749e-01
  2.967560e+01    7.088346e-01
  2.969148e+01    7.178018e-01
  2.970736e+01    7.013282e-01
  2.972323e+01    7.169271e-01
  2.973911e+01    7.260014e-01
  2.975498e+01    7.189264e-01
  2.977086e+01    7.104803e-01
  2.978673e+01    7.116817e-01
  2.980261e+01    7.194776e-01
  2.981848e+01    7.077371e-01
  2.983436e+01    6.959838e-01
  2.985024e+01    6.936186e-01
  2.986611e+01    7.027438e-01
  2.988199e+01    7.280607e-01
  2.989786e+01    7.032811e-01
  2.991374e+01    7.067373e-01
  2.992961e+01    7.184029e-01
  2.994549e+01    7.043445e-01
  2.996136e+01    7.019558e-01
  2.997724e+01    7.210364e-01
  2.999312e+01    7.240803e-01
  3.000899e+01    7.267475e-01
  3.002487e+01    7.439201e-01
  3.004074e+01    7.360279e-01
  3.005662e+01    7.051806e-01
  3.007249e+01    7.233157e-01
  3.008837e+01    7.324831e-01
  3.010424e+01    7.192391e-01
  3.012012e+01    7.194161e-01
  3.013600e+01    7.088183e-01
  3.015187e+01    7.029000e-01
  3.016775e+01    6.837817e-01
  3.018362e+01    6.878983e-01
  3.019950e+01    7.115016e-01
  3.021537e+01    7.161061e-01
  3.023125e+01    7.252837e-01
  3.024712e+01    7.233285e-01
  3.026300e+01    7.222943e-01
  3.027888e+01    7.170300e-01
  3.029475e+01    7.032228e-01
  3.031063e+01    6.896186e-01
  3.032650e+01    6.836416e-01
  3.034238e+01    7.168333e-01
  3.035825e+01    7.046146e-01
  3.037413e+01    6.953421e-01
  3.039000e+01    6.878809e-01
  3.040588e+01    7.068799e-01
  3.042176e+01    7.262200e-01
  3.043763e+01    7.288845e-01
  3.045351e+01    7.199419e-01
  3.046938e+01    7.274448e-01
  3.048526e+01    7.227386e-01
  3.050113e+01    7.106158e-01
  3.051701e+01    7.147271e-01
  3.053288e+01    7.323222e-01
  3.054876e+01    7.124200e-01
  3.056464e+01    6.897721e-01
  3.058051e+01    7.064198e-01
  3.059639e+01    7.175086e-01
  3.061226e+01    7.281073e-01
  3.062814e+01    7.106549e-01
  3.064401e+01    7.117197e-01
  3.065989e+01    6.838754e-01
  3.067577e+01    7.001553e-01
  3.069164e+01    7.008717e-01
  3.070752e+01    7.004154e-01
  3.072339e+01    7.098328e-01
  3.073927e+01    7.170038e-01
  3.075514e+01    7.091901e-01
  3.077102e+01    6.742713e-01
  3.078689e+01    7.149288e-01
  3.080277e+01    7.199207e-01
  3.081865e+01    7.255453e-01
  3.083452e+01    7.160332e-01
  3.085040e+01    7.179057e-01
  3.086627e+01    7.267952e-01
  3.088215e+01    7.010229e-01
  3.089802e+01    7.045115e-01
  3.091390e+01    7.187664e-01
  3.092977e+01    7.210003e-01
  3.094565e+01    7.073261e-01
  3.096153e+01    6.980606e-01
  3.097740e+01    6.982833e-01
  3.099328e+01    7.157500e-01
  3.100915e+01    7.191275e-01
  3.102503e+01    7.114823e-01
  3.104090e+01    7.199781e-01
  3.105678e+01    7.253602e-01
  3.107265e+01    7.215677e-01
  3.108853e+01    7.314274e-01
  3.110441e+01    7.325827e-01
  3.112028e+01    7.148740e-01
  3.113616e+01    7.145708e-01
  3.115203e+01    7.015613e-01
  3.116791e+01    7.147371e-01
  3.118378e+01    7.161583e-01
  3.119966e+01    7.300247e-01
  3.121553e+01    7.207309e-01
  3.123141e+01    7.256235e-01
  3.124729e+01    7.365620e-01
  3.126316e+01    7.307252e-01
  3.127904e+01    7.181156e-01
  3.129491e+01    7.270018e-01
  3.131079e+01    7.109425e-01
  3.132666e+01    7.353553e-01
  3.134254e+01    7.224458e-01
  3.135841e+01    7.255747e-01
  3.137429e+01    7.368150e-01
  3.139017e+01    7.374982e-01
  3.140604e+01    7.557175e-01
  3.142192e+01    7.499540e-01
  3.143779e+01    7.466444e-01
  3.145367e+01    7.531124e-01
  3.146954e+01    7.477934e-01
  3.148542e+01    7.479378e-01
  3.150129e+01    7.557226e-01
  3.151717e+01    7.671227e-01
  3.153305e+01    7.692118e-01
  3.154892e+01    7.868347e-01
  3.156480e+01    7.841444e-01
  3.158067e+01    7.886306e-01
  3.159655e+01    7.868292e-01
  3.161242e+01    8.191583e-01
  3.162830e+01    8.413562e-01
  3.164418e+01    8.568022e-01
  3.166005e+01    8.904994e-01
  3.167593e+01    8.951792e-01
  3.169180e+01    9.290168e-01
  3.170768e+01    9.545395e-01
  3.172355e+01    9.828225e-01
  3.173943e+01    1.029370e+00
  3.175530e+01    1.108695e+00
  3.177118e+01    1.197957e+00
  3.178706e+01    1.273128e+00
  3.180293e+01    1.361515e+00
  3.181881e+01    1.482023e+00
  3.183468e+01    1.609616e+00
  3.185056e+01    1.800290e+00
  3.186643e+01    1.925078e+00
  3.188231e+01    2.072922e+00
  3.189818e+01    2.191564e+00
  3.191406e+01    2.241952e+00
  3.192994e+01    2.175579e+00
  3.194581e+01    2.125884e+00
  3.196169e+01    1.983122e+00
  3.197756e+01    1.866534e+00
  3.199344e+01    1.693157e+00
  3.200931e+01    1.521246e+00
  3.202519e+01    1.411151e+00
  3.204106e+01    1.305048e+00
  3.205694e+01    1.189175e+00
  3.207282e+01    1.086950e+00
  3.208869e+01    1.025636e+00
  3.210457e+01    9.830468e-01
  3.212044e+01    9.683830e-01
  3.213632e+01    9.173976e-01
  3.215219e+01    8.780634e-01
  3.216807e+01    8.482792e-01
  3.218394e+01    8.244653e-01
  3.219982e+01    8.022293e-01
  3.221570e+01    8.234672e-01
  3.223157e+01    7.879667e-01
  3.224745e+01    7.849352e-01
  3.226332e+01    7.642680e-01
  3.227920e+01    7.587309e-01
  3.229507e+01    7.709274e-01
  3.231095e+01    7.559401e-01
  3.232682e+01    7.396538e-01
  3.234270e+01    7.493975e-01
  3.235858e+01    7.446768e-01
  3.237445e+01    7.488101e-01
  3.239033e+01    7.477616e-01
  3.240620e+01    7.469033e-01
  3.242208e+01    7.382140e-01
  3.243795e+01    7.334628e-01
  3.245383e+01    7.260411e-01
  3.246970e+01    7.377688e-01
  3.248558e+01    7.375783e-01
  3.250146e+01    7.115966e-01
  3.251733e+01    7.076036e-01
  3.253321e+01    7.282450e-01
  3.254908e+01    7.232604e-01
