# == pyFAI calibration ==
# Distance Sample to Detector: 0.3999999939076516 m
# PONI: 9.750e-02, 1.135e-01 m
# Rotations: -0.000175 0.000000 -0.000000 rad
# 
# == Fit2d calibration ==
# Distance Sample-beamCenter: 400.000 mm
# Center: x=1514.000, y=1300.000 pix
# Tilt: 0.010 deg  TiltPlanRot: 0.010 deg
# 
# Detector Detector	 Spline= None	 PixelSize= 7.500e-05, 7.500e-05 m
#    Detector has a mask: False 
#    Detector has a dark current: False 
#    detector has a flat field: False 
# 
# Wavelength: 6.888e-11 m
# Mask applied: user provided
# Dark current applied: False
# Flat field applied: False
# Polarization factor: 0.99
# Normalization factor: 1.0
# --> /home/myspot/data/2024_07_Rosario/Ru-CGO-ex/2024-07-27_002_Ru-CGO-ex_Activtation_ramp_000002_data_000083.dat
#       q_nm^-1             I 
  2.003187e-02    1.542397e-01
  3.590745e-02    2.716260e-01
  5.178302e-02    9.964318e-02
  6.765859e-02    0.000000e+00
  8.353417e-02    5.694376e-02
  9.940974e-02    6.150454e-02
  1.152853e-01    5.944990e-02
  1.311609e-01    9.971549e-02
  1.470365e-01    8.612618e-02
  1.629120e-01    4.260296e-02
  1.787876e-01    3.730134e-02
  1.946632e-01    2.055956e-02
  2.105388e-01    5.757108e-03
  2.264143e-01    5.152688e-02
  2.422899e-01    5.232165e-02
  2.581655e-01    4.086023e-02
  2.740411e-01    3.694131e-02
  2.899166e-01    2.605758e-02
  3.057922e-01    3.486883e-02
  3.216678e-01    4.132104e-02
  3.375433e-01    5.030562e-02
  3.534189e-01    1.890371e-02
  3.692945e-01    4.355178e-02
  3.851701e-01    4.724694e-02
  4.010456e-01    2.295049e-02
  4.169212e-01    1.228931e-02
  4.327968e-01    1.308988e-02
  4.486724e-01    4.545575e-02
  4.645479e-01    7.570352e-02
  4.804235e-01    2.475726e-02
  4.962991e-01    2.225876e-02
  5.121747e-01    3.001991e-02
  5.280502e-01    4.810770e-02
  5.439258e-01    4.778300e-02
  5.598014e-01    4.728797e-02
  5.756770e-01    7.609896e-02
  5.915525e-01    4.612887e-02
  6.074281e-01    2.331771e-02
  6.233037e-01    3.865598e-02
  6.391793e-01    5.114009e-02
  6.550548e-01    2.910962e-02
  6.709304e-01    4.745262e-02
  6.868060e-01    3.735994e-02
  7.026815e-01    2.277305e-02
  7.185571e-01    2.662681e-02
  7.344327e-01    1.282119e-02
  7.503083e-01    2.050926e-02
  7.661838e-01    6.108182e-02
  7.820594e-01    1.176945e-01
  7.979350e-01    1.191940e-01
  8.138106e-01    1.495994e-01
  8.296861e-01    2.583840e-01
  8.455617e-01    3.589191e-01
  8.614373e-01    3.849426e-01
  8.773129e-01    4.519958e-01
  8.931884e-01    5.082878e-01
  9.090640e-01    4.974098e-01
  9.249396e-01    5.375389e-01
  9.408152e-01    7.182513e-01
  9.566907e-01    8.068269e-01
  9.725663e-01    8.781598e-01
  9.884419e-01    9.427290e-01
  1.004317e+00    1.001817e+00
  1.020193e+00    1.034061e+00
  1.036069e+00    1.017882e+00
  1.051944e+00    1.199400e+00
  1.067820e+00    1.263987e+00
  1.083695e+00    1.316099e+00
  1.099571e+00    1.373734e+00
  1.115446e+00    1.359388e+00
  1.131322e+00    1.349344e+00
  1.147198e+00    1.403603e+00
  1.163073e+00    1.384948e+00
  1.178949e+00    1.452248e+00
  1.194824e+00    1.525756e+00
  1.210700e+00    1.683536e+00
  1.226575e+00    1.961162e+00
  1.242451e+00    2.149780e+00
  1.258327e+00    2.299462e+00
  1.274202e+00    2.451362e+00
  1.290078e+00    2.452036e+00
  1.305953e+00    2.478695e+00
  1.321829e+00    2.488198e+00
  1.337705e+00    2.614091e+00
  1.353580e+00    2.609610e+00
  1.369456e+00    2.731222e+00
  1.385331e+00    2.689960e+00
  1.401207e+00    2.791661e+00
  1.417082e+00    2.650862e+00
  1.432958e+00    2.587716e+00
  1.448834e+00    2.680168e+00
  1.464709e+00    2.837656e+00
  1.480585e+00    2.869702e+00
  1.496460e+00    2.836998e+00
  1.512336e+00    2.900440e+00
  1.528211e+00    2.948068e+00
  1.544087e+00    3.044914e+00
  1.559963e+00    2.953573e+00
  1.575838e+00    2.991790e+00
  1.591714e+00    2.922259e+00
  1.607589e+00    3.015267e+00
  1.623465e+00    2.889670e+00
  1.639340e+00    2.836012e+00
  1.655216e+00    2.816561e+00
  1.671092e+00    2.835232e+00
  1.686967e+00    2.851718e+00
  1.702843e+00    2.706838e+00
  1.718718e+00    2.709675e+00
  1.734594e+00    2.674250e+00
  1.750469e+00    2.762844e+00
  1.766345e+00    2.720710e+00
  1.782221e+00    2.795592e+00
  1.798096e+00    2.856886e+00
  1.813972e+00    2.822710e+00
  1.829847e+00    2.784837e+00
  1.845723e+00    2.786168e+00
  1.861598e+00    2.736479e+00
  1.877474e+00    2.754038e+00
  1.893350e+00    2.754745e+00
  1.909225e+00    2.711257e+00
  1.925101e+00    2.722939e+00
  1.940976e+00    2.621968e+00
  1.956852e+00    2.736537e+00
  1.972727e+00    2.778107e+00
  1.988603e+00    2.917061e+00
  2.004479e+00    2.860490e+00
  2.020354e+00    2.767434e+00
  2.036230e+00    2.843435e+00
  2.052105e+00    2.843894e+00
  2.067981e+00    2.807367e+00
  2.083856e+00    2.761165e+00
  2.099732e+00    2.801149e+00
  2.115608e+00    2.716547e+00
  2.131483e+00    2.797885e+00
  2.147359e+00    2.774173e+00
  2.163234e+00    2.738463e+00
  2.179110e+00    2.788702e+00
  2.194985e+00    2.758703e+00
  2.210861e+00    2.676419e+00
  2.226737e+00    2.716352e+00
  2.242612e+00    2.765624e+00
  2.258488e+00    2.759148e+00
  2.274363e+00    2.730872e+00
  2.290239e+00    2.711201e+00
  2.306115e+00    2.720358e+00
  2.321990e+00    2.673907e+00
  2.337866e+00    2.647735e+00
  2.353741e+00    2.776021e+00
  2.369617e+00    2.800776e+00
  2.385492e+00    2.743162e+00
  2.401368e+00    2.812237e+00
  2.417244e+00    2.788538e+00
  2.433119e+00    2.742736e+00
  2.448995e+00    2.761430e+00
  2.464870e+00    2.786880e+00
  2.480746e+00    2.813212e+00
  2.496621e+00    2.769855e+00
  2.512497e+00    2.879869e+00
  2.528373e+00    2.889581e+00
  2.544248e+00    2.862269e+00
  2.560124e+00    2.797545e+00
  2.575999e+00    2.733341e+00
  2.591875e+00    2.753754e+00
  2.607750e+00    2.675591e+00
  2.623626e+00    2.835743e+00
  2.639502e+00    2.756539e+00
  2.655377e+00    2.760101e+00
  2.671253e+00    2.734495e+00
  2.687128e+00    2.778020e+00
  2.703004e+00    2.806418e+00
  2.718879e+00    2.856199e+00
  2.734755e+00    2.708448e+00
  2.750631e+00    2.610474e+00
  2.766506e+00    2.744227e+00
  2.782382e+00    2.714030e+00
  2.798257e+00    2.794063e+00
  2.814133e+00    2.892009e+00
  2.830008e+00    2.811666e+00
  2.845884e+00    2.810921e+00
  2.861760e+00    2.821155e+00
  2.877635e+00    2.794344e+00
  2.893511e+00    2.814189e+00
  2.909386e+00    2.767591e+00
  2.925262e+00    2.784743e+00
  2.941137e+00    2.762776e+00
  2.957013e+00    2.726509e+00
  2.972889e+00    2.826853e+00
  2.988764e+00    2.888850e+00
  3.004640e+00    2.813217e+00
  3.020515e+00    2.781988e+00
  3.036391e+00    2.850689e+00
  3.052266e+00    2.876669e+00
  3.068142e+00    2.852110e+00
  3.084018e+00    2.881133e+00
  3.099893e+00    2.846385e+00
  3.115769e+00    2.798853e+00
  3.131644e+00    2.775295e+00
  3.147520e+00    2.833974e+00
  3.163395e+00    2.882216e+00
  3.179271e+00    2.865939e+00
  3.195147e+00    2.822307e+00
  3.211022e+00    2.844656e+00
  3.226898e+00    2.895518e+00
  3.242773e+00    2.894372e+00
  3.258649e+00    2.881049e+00
  3.274525e+00    2.847951e+00
  3.290400e+00    2.853100e+00
  3.306276e+00    2.898072e+00
  3.322151e+00    2.957180e+00
  3.338027e+00    2.875523e+00
  3.353902e+00    2.925983e+00
  3.369778e+00    2.864894e+00
  3.385654e+00    2.900385e+00
  3.401529e+00    2.912529e+00
  3.417405e+00    2.997661e+00
  3.433280e+00    2.980936e+00
  3.449156e+00    2.906686e+00
  3.465031e+00    2.876723e+00
  3.480907e+00    2.854876e+00
  3.496783e+00    2.890898e+00
  3.512658e+00    2.958357e+00
  3.528534e+00    3.051524e+00
  3.544409e+00    2.954330e+00
  3.560285e+00    2.963036e+00
  3.576160e+00    2.942706e+00
  3.592036e+00    2.957304e+00
  3.607912e+00    2.952967e+00
  3.623787e+00    2.925786e+00
  3.639663e+00    2.941272e+00
  3.655538e+00    2.953121e+00
  3.671414e+00    2.911246e+00
  3.687289e+00    3.005952e+00
  3.703165e+00    2.928745e+00
  3.719041e+00    2.950111e+00
  3.734916e+00    2.999249e+00
  3.750792e+00    3.013650e+00
  3.766667e+00    2.996798e+00
  3.782543e+00    2.943496e+00
  3.798418e+00    2.960169e+00
  3.814294e+00    2.978378e+00
  3.830170e+00    2.968915e+00
  3.846045e+00    2.953336e+00
  3.861921e+00    2.940355e+00
  3.877796e+00    3.007633e+00
  3.893672e+00    2.922053e+00
  3.909547e+00    2.988474e+00
  3.925423e+00    2.976288e+00
  3.941299e+00    2.985827e+00
  3.957174e+00    2.991249e+00
  3.973050e+00    3.036477e+00
  3.988925e+00    2.987578e+00
  4.004801e+00    3.154963e+00
  4.020676e+00    2.996731e+00
  4.036552e+00    2.996843e+00
  4.052428e+00    2.999779e+00
  4.068303e+00    2.935447e+00
  4.084179e+00    2.975013e+00
  4.100054e+00    3.049793e+00
  4.115930e+00    3.076410e+00
  4.131806e+00    2.979982e+00
  4.147681e+00    2.924088e+00
  4.163557e+00    2.931549e+00
  4.179432e+00    2.994172e+00
  4.195308e+00    3.007530e+00
  4.211183e+00    2.966018e+00
  4.227059e+00    2.976572e+00
  4.242935e+00    3.007708e+00
  4.258810e+00    2.974239e+00
  4.274686e+00    2.998598e+00
  4.290561e+00    2.946715e+00
  4.306437e+00    2.998285e+00
  4.322312e+00    2.988563e+00
  4.338188e+00    2.928626e+00
  4.354064e+00    3.012770e+00
  4.369939e+00    3.067270e+00
  4.385815e+00    3.055564e+00
  4.401690e+00    3.075520e+00
  4.417566e+00    2.970218e+00
  4.433441e+00    2.993440e+00
  4.449317e+00    3.051592e+00
  4.465193e+00    3.030249e+00
  4.481068e+00    3.012586e+00
  4.496944e+00    2.996737e+00
  4.512819e+00    3.019516e+00
  4.528695e+00    3.097703e+00
  4.544570e+00    3.106999e+00
  4.560446e+00    3.046500e+00
  4.576322e+00    3.126177e+00
  4.592197e+00    3.111390e+00
  4.608073e+00    3.058828e+00
  4.623948e+00    3.114381e+00
  4.639824e+00    3.072683e+00
  4.655699e+00    3.023888e+00
  4.671575e+00    3.042749e+00
  4.687451e+00    3.036965e+00
  4.703326e+00    3.075676e+00
  4.719202e+00    3.084216e+00
  4.735077e+00    3.037679e+00
  4.750953e+00    3.025862e+00
  4.766828e+00    3.145255e+00
  4.782704e+00    3.133937e+00
  4.798580e+00    3.088191e+00
  4.814455e+00    3.105110e+00
  4.830331e+00    3.148494e+00
  4.846206e+00    3.044311e+00
  4.862082e+00    3.094278e+00
  4.877957e+00    3.069506e+00
  4.893833e+00    3.077577e+00
  4.909709e+00    3.060262e+00
  4.925584e+00    3.021633e+00
  4.941460e+00    3.120348e+00
  4.957335e+00    3.143965e+00
  4.973211e+00    3.080471e+00
  4.989086e+00    3.025558e+00
  5.004962e+00    3.075366e+00
  5.020838e+00    3.083610e+00
  5.036713e+00    3.078898e+00
  5.052589e+00    3.074638e+00
  5.068464e+00    3.093484e+00
  5.084340e+00    3.061106e+00
  5.100216e+00    3.073945e+00
  5.116091e+00    3.063723e+00
  5.131967e+00    3.054532e+00
  5.147842e+00    3.100924e+00
  5.163718e+00    3.097159e+00
  5.179593e+00    3.073145e+00
  5.195469e+00    3.099456e+00
  5.211345e+00    3.116763e+00
  5.227220e+00    3.103806e+00
  5.243096e+00    3.055051e+00
  5.258971e+00    3.095273e+00
  5.274847e+00    3.103450e+00
  5.290722e+00    3.062582e+00
  5.306598e+00    3.052684e+00
  5.322474e+00    3.069849e+00
  5.338349e+00    3.082012e+00
  5.354225e+00    3.131004e+00
  5.370100e+00    3.099515e+00
  5.385976e+00    3.012828e+00
  5.401851e+00    3.019928e+00
  5.417727e+00    3.023895e+00
  5.433603e+00    3.081030e+00
  5.449478e+00    3.061672e+00
  5.465354e+00    3.068996e+00
  5.481229e+00    3.073935e+00
  5.497105e+00    3.045585e+00
  5.512980e+00    3.086018e+00
  5.528856e+00    3.041937e+00
  5.544732e+00    3.010985e+00
  5.560607e+00    3.008457e+00
  5.576483e+00    3.067351e+00
  5.592358e+00    2.990967e+00
  5.608234e+00    3.044221e+00
  5.624109e+00    3.071769e+00
  5.639985e+00    3.025790e+00
  5.655861e+00    2.996859e+00
  5.671736e+00    2.928349e+00
  5.687612e+00    2.942038e+00
  5.703487e+00    2.960558e+00
  5.719363e+00    2.987268e+00
  5.735238e+00    3.048320e+00
  5.751114e+00    3.103722e+00
  5.766990e+00    3.041498e+00
  5.782865e+00    3.023811e+00
  5.798741e+00    3.074085e+00
  5.814616e+00    3.023218e+00
  5.830492e+00    3.002808e+00
  5.846367e+00    3.013560e+00
  5.862243e+00    3.008509e+00
  5.878119e+00    3.023533e+00
  5.893994e+00    3.069232e+00
  5.909870e+00    3.019886e+00
  5.925745e+00    3.034666e+00
  5.941621e+00    2.981545e+00
  5.957497e+00    2.974432e+00
  5.973372e+00    2.974745e+00
  5.989248e+00    2.959036e+00
  6.005123e+00    2.995621e+00
  6.020999e+00    2.984282e+00
  6.036874e+00    3.005816e+00
  6.052750e+00    3.046519e+00
  6.068626e+00    3.061948e+00
  6.084501e+00    3.068599e+00
  6.100377e+00    3.149420e+00
  6.116252e+00    3.054706e+00
  6.132128e+00    3.042468e+00
  6.148003e+00    3.015944e+00
  6.163879e+00    3.030397e+00
  6.179755e+00    3.004631e+00
  6.195630e+00    2.995526e+00
  6.211506e+00    3.000392e+00
  6.227381e+00    3.016110e+00
  6.243257e+00    3.058135e+00
  6.259132e+00    3.025263e+00
  6.275008e+00    2.976638e+00
  6.290884e+00    3.042830e+00
  6.306759e+00    3.077234e+00
  6.322635e+00    2.999259e+00
  6.338510e+00    2.940601e+00
  6.354386e+00    2.961709e+00
  6.370261e+00    2.984483e+00
  6.386137e+00    3.017281e+00
  6.402013e+00    3.005357e+00
  6.417888e+00    2.953254e+00
  6.433764e+00    2.930045e+00
  6.449639e+00    2.998656e+00
  6.465515e+00    3.041979e+00
  6.481390e+00    3.035581e+00
  6.497266e+00    3.035158e+00
  6.513142e+00    2.982575e+00
  6.529017e+00    2.997455e+00
  6.544893e+00    3.030537e+00
  6.560768e+00    2.967825e+00
  6.576644e+00    2.965629e+00
  6.592519e+00    3.046226e+00
  6.608395e+00    3.026742e+00
  6.624271e+00    2.938025e+00
  6.640146e+00    2.953611e+00
  6.656022e+00    2.985313e+00
  6.671897e+00    2.950970e+00
  6.687773e+00    2.962356e+00
  6.703648e+00    2.971485e+00
  6.719524e+00    3.023481e+00
  6.735400e+00    3.034181e+00
  6.751275e+00    2.958931e+00
  6.767151e+00    2.884063e+00
  6.783026e+00    3.004274e+00
  6.798902e+00    3.070410e+00
  6.814777e+00    3.019359e+00
  6.830653e+00    3.028948e+00
  6.846529e+00    2.998217e+00
  6.862404e+00    2.993320e+00
  6.878280e+00    2.951063e+00
  6.894155e+00    2.889014e+00
  6.910031e+00    2.946050e+00
  6.925907e+00    2.958871e+00
  6.941782e+00    2.969337e+00
  6.957658e+00    2.971516e+00
  6.973533e+00    2.935881e+00
  6.989409e+00    2.922432e+00
  7.005284e+00    2.972872e+00
  7.021160e+00    2.967382e+00
  7.037036e+00    2.995643e+00
  7.052911e+00    3.047342e+00
  7.068787e+00    3.084990e+00
  7.084662e+00    3.035568e+00
  7.100538e+00    2.976408e+00
  7.116413e+00    3.043999e+00
  7.132289e+00    2.975732e+00
  7.148165e+00    3.009017e+00
  7.164040e+00    3.016607e+00
  7.179916e+00    2.955315e+00
  7.195791e+00    2.913063e+00
  7.211667e+00    2.952332e+00
  7.227542e+00    2.942544e+00
  7.243418e+00    2.924941e+00
  7.259294e+00    2.926057e+00
  7.275169e+00    2.921629e+00
  7.291045e+00    2.967311e+00
  7.306920e+00    2.958412e+00
  7.322796e+00    2.911217e+00
  7.338671e+00    2.963922e+00
  7.354547e+00    2.939867e+00
  7.370423e+00    2.930637e+00
  7.386298e+00    2.913992e+00
  7.402174e+00    2.902915e+00
  7.418049e+00    2.903479e+00
  7.433925e+00    2.924232e+00
  7.449800e+00    2.903469e+00
  7.465676e+00    2.968704e+00
  7.481552e+00    2.888590e+00
  7.497427e+00    3.005105e+00
  7.513303e+00    2.939928e+00
  7.529178e+00    2.947001e+00
  7.545054e+00    2.961522e+00
  7.560929e+00    2.968766e+00
  7.576805e+00    2.942318e+00
  7.592681e+00    2.955021e+00
  7.608556e+00    2.938629e+00
  7.624432e+00    2.904875e+00
  7.640307e+00    2.962862e+00
  7.656183e+00    2.990915e+00
  7.672058e+00    2.900506e+00
  7.687934e+00    2.895659e+00
  7.703810e+00    2.952026e+00
  7.719685e+00    2.965594e+00
  7.735561e+00    2.959157e+00
  7.751436e+00    2.923827e+00
  7.767312e+00    2.910933e+00
  7.783187e+00    2.904740e+00
  7.799063e+00    2.934258e+00
  7.814939e+00    2.899405e+00
  7.830814e+00    2.889347e+00
  7.846690e+00    2.879453e+00
  7.862565e+00    2.877909e+00
  7.878441e+00    2.875913e+00
  7.894317e+00    2.864069e+00
  7.910192e+00    2.906122e+00
  7.926068e+00    2.977008e+00
  7.941943e+00    2.882974e+00
  7.957819e+00    2.918483e+00
  7.973694e+00    2.965219e+00
  7.989570e+00    2.896103e+00
  8.005446e+00    2.909966e+00
  8.021321e+00    2.878213e+00
  8.037197e+00    2.873998e+00
  8.053072e+00    2.859502e+00
  8.068948e+00    2.851876e+00
  8.084823e+00    2.831022e+00
  8.100699e+00    2.893856e+00
  8.116575e+00    2.940957e+00
  8.132450e+00    2.909491e+00
  8.148326e+00    2.941200e+00
  8.164201e+00    2.946964e+00
  8.180077e+00    2.871201e+00
  8.195952e+00    2.904849e+00
  8.211828e+00    2.902991e+00
  8.227704e+00    2.930625e+00
  8.243579e+00    2.926248e+00
  8.259455e+00    2.890810e+00
  8.275330e+00    2.854157e+00
  8.291206e+00    2.892941e+00
  8.307081e+00    2.887792e+00
  8.322957e+00    2.861176e+00
  8.338833e+00    2.867782e+00
  8.354708e+00    2.890481e+00
  8.370584e+00    2.846281e+00
  8.386459e+00    2.852413e+00
  8.402335e+00    2.808927e+00
  8.418210e+00    2.853743e+00
  8.434086e+00    2.892516e+00
  8.449962e+00    2.866616e+00
  8.465837e+00    2.836895e+00
  8.481713e+00    2.861953e+00
  8.497588e+00    2.922444e+00
  8.513464e+00    2.931060e+00
  8.529339e+00    2.888059e+00
  8.545215e+00    2.861327e+00
  8.561091e+00    2.791520e+00
  8.576966e+00    2.831452e+00
  8.592842e+00    2.838786e+00
  8.608717e+00    2.872733e+00
  8.624593e+00    2.835136e+00
  8.640468e+00    2.811965e+00
  8.656344e+00    2.838158e+00
  8.672220e+00    2.774514e+00
  8.688095e+00    2.815664e+00
  8.703971e+00    2.912192e+00
  8.719846e+00    2.852453e+00
  8.735722e+00    2.817525e+00
  8.751598e+00    2.900434e+00
  8.767473e+00    2.841258e+00
  8.783349e+00    2.812493e+00
  8.799224e+00    2.829510e+00
  8.815100e+00    2.827638e+00
  8.830975e+00    2.884212e+00
  8.846851e+00    2.843682e+00
  8.862727e+00    2.814353e+00
  8.878602e+00    2.853523e+00
  8.894478e+00    2.796571e+00
  8.910353e+00    2.830153e+00
  8.926229e+00    2.766915e+00
  8.942104e+00    2.780489e+00
  8.957980e+00    2.752440e+00
  8.973856e+00    2.729644e+00
  8.989731e+00    2.775579e+00
  9.005607e+00    2.792222e+00
  9.021482e+00    2.764715e+00
  9.037358e+00    2.785334e+00
  9.053233e+00    2.822073e+00
  9.069109e+00    2.808105e+00
  9.084985e+00    2.794109e+00
  9.100860e+00    2.738877e+00
  9.116736e+00    2.799016e+00
  9.132611e+00    2.821341e+00
  9.148487e+00    2.776953e+00
  9.164362e+00    2.764959e+00
  9.180238e+00    2.779628e+00
  9.196114e+00    2.823834e+00
  9.211989e+00    2.770111e+00
  9.227865e+00    2.758382e+00
  9.243740e+00    2.748218e+00
  9.259616e+00    2.754342e+00
  9.275491e+00    2.799860e+00
  9.291367e+00    2.746529e+00
  9.307243e+00    2.707451e+00
  9.323118e+00    2.682791e+00
  9.338994e+00    2.765476e+00
  9.354869e+00    2.763423e+00
  9.370745e+00    2.686406e+00
  9.386620e+00    2.727606e+00
  9.402496e+00    2.784051e+00
  9.418372e+00    2.771525e+00
  9.434247e+00    2.801387e+00
  9.450123e+00    2.765407e+00
  9.465998e+00    2.720114e+00
  9.481874e+00    2.711984e+00
  9.497749e+00    2.747609e+00
  9.513625e+00    2.765938e+00
  9.529501e+00    2.747527e+00
  9.545376e+00    2.735521e+00
  9.561252e+00    2.740109e+00
  9.577127e+00    2.710258e+00
  9.593003e+00    2.690466e+00
  9.608878e+00    2.667918e+00
  9.624754e+00    2.744881e+00
  9.640630e+00    2.718716e+00
  9.656505e+00    2.716636e+00
  9.672381e+00    2.685359e+00
  9.688256e+00    2.707104e+00
  9.704132e+00    2.739293e+00
  9.720008e+00    2.710291e+00
  9.735883e+00    2.706674e+00
  9.751759e+00    2.736983e+00
  9.767634e+00    2.685131e+00
  9.783510e+00    2.696146e+00
  9.799385e+00    2.721116e+00
  9.815261e+00    2.713847e+00
  9.831137e+00    2.702442e+00
  9.847012e+00    2.703090e+00
  9.862888e+00    2.709882e+00
  9.878763e+00    2.698611e+00
  9.894639e+00    2.661247e+00
  9.910514e+00    2.686397e+00
  9.926390e+00    2.677211e+00
  9.942266e+00    2.639871e+00
  9.958141e+00    2.657306e+00
  9.974017e+00    2.651682e+00
  9.989892e+00    2.642810e+00
  1.000577e+01    2.670607e+00
  1.002164e+01    2.617387e+00
  1.003752e+01    2.610886e+00
  1.005339e+01    2.682323e+00
  1.006927e+01    2.655672e+00
  1.008515e+01    2.608118e+00
  1.010102e+01    2.596191e+00
  1.011690e+01    2.586232e+00
  1.013277e+01    2.600060e+00
  1.014865e+01    2.635340e+00
  1.016452e+01    2.611927e+00
  1.018040e+01    2.587600e+00
  1.019627e+01    2.615090e+00
  1.021215e+01    2.624544e+00
  1.022803e+01    2.600465e+00
  1.024390e+01    2.589700e+00
  1.025978e+01    2.603735e+00
  1.027565e+01    2.626358e+00
  1.029153e+01    2.635651e+00
  1.030740e+01    2.636915e+00
  1.032328e+01    2.592001e+00
  1.033915e+01    2.617041e+00
  1.035503e+01    2.571564e+00
  1.037091e+01    2.575467e+00
  1.038678e+01    2.610777e+00
  1.040266e+01    2.623925e+00
  1.041853e+01    2.636977e+00
  1.043441e+01    2.611851e+00
  1.045028e+01    2.591944e+00
  1.046616e+01    2.571603e+00
  1.048204e+01    2.576926e+00
  1.049791e+01    2.579311e+00
  1.051379e+01    2.564253e+00
  1.052966e+01    2.529758e+00
  1.054554e+01    2.577405e+00
  1.056141e+01    2.541978e+00
  1.057729e+01    2.559389e+00
  1.059316e+01    2.543610e+00
  1.060904e+01    2.565492e+00
  1.062492e+01    2.567053e+00
  1.064079e+01    2.571701e+00
  1.065667e+01    2.618306e+00
  1.067254e+01    2.580124e+00
  1.068842e+01    2.492836e+00
  1.070429e+01    2.503410e+00
  1.072017e+01    2.523729e+00
  1.073604e+01    2.528699e+00
  1.075192e+01    2.528364e+00
  1.076780e+01    2.500277e+00
  1.078367e+01    2.505369e+00
  1.079955e+01    2.495414e+00
  1.081542e+01    2.496980e+00
  1.083130e+01    2.550210e+00
  1.084717e+01    2.515949e+00
  1.086305e+01    2.538001e+00
  1.087892e+01    2.537081e+00
  1.089480e+01    2.495007e+00
  1.091068e+01    2.521803e+00
  1.092655e+01    2.512303e+00
  1.094243e+01    2.496390e+00
  1.095830e+01    2.474336e+00
  1.097418e+01    2.475684e+00
  1.099005e+01    2.412107e+00
  1.100593e+01    2.460376e+00
  1.102180e+01    2.449149e+00
  1.103768e+01    2.474109e+00
  1.105356e+01    2.468466e+00
  1.106943e+01    2.442998e+00
  1.108531e+01    2.479542e+00
  1.110118e+01    2.454741e+00
  1.111706e+01    2.444586e+00
  1.113293e+01    2.446635e+00
  1.114881e+01    2.423398e+00
  1.116468e+01    2.432203e+00
  1.118056e+01    2.441380e+00
  1.119644e+01    2.428828e+00
  1.121231e+01    2.429847e+00
  1.122819e+01    2.465610e+00
  1.124406e+01    2.445442e+00
  1.125994e+01    2.418844e+00
  1.127581e+01    2.471657e+00
  1.129169e+01    2.414978e+00
  1.130756e+01    2.394297e+00
  1.132344e+01    2.416442e+00
  1.133932e+01    2.396419e+00
  1.135519e+01    2.379569e+00
  1.137107e+01    2.425624e+00
  1.138694e+01    2.384393e+00
  1.140282e+01    2.396686e+00
  1.141869e+01    2.396804e+00
  1.143457e+01    2.400094e+00
  1.145045e+01    2.345119e+00
  1.146632e+01    2.378612e+00
  1.148220e+01    2.366446e+00
  1.149807e+01    2.384577e+00
  1.151395e+01    2.378277e+00
  1.152982e+01    2.351210e+00
  1.154570e+01    2.350739e+00
  1.156157e+01    2.370968e+00
  1.157745e+01    2.397401e+00
  1.159333e+01    2.380923e+00
  1.160920e+01    2.365438e+00
  1.162508e+01    2.367352e+00
  1.164095e+01    2.387599e+00
  1.165683e+01    2.354065e+00
  1.167270e+01    2.351038e+00
  1.168858e+01    2.378230e+00
  1.170445e+01    2.361935e+00
  1.172033e+01    2.297287e+00
  1.173621e+01    2.314065e+00
  1.175208e+01    2.391459e+00
  1.176796e+01    2.350294e+00
  1.178383e+01    2.313422e+00
  1.179971e+01    2.303191e+00
  1.181558e+01    2.334485e+00
  1.183146e+01    2.345896e+00
  1.184733e+01    2.346706e+00
  1.186321e+01    2.287249e+00
  1.187909e+01    2.286957e+00
  1.189496e+01    2.334571e+00
  1.191084e+01    2.345370e+00
  1.192671e+01    2.320642e+00
  1.194259e+01    2.317492e+00
  1.195846e+01    2.288706e+00
  1.197434e+01    2.290578e+00
  1.199021e+01    2.295539e+00
  1.200609e+01    2.248574e+00
  1.202197e+01    2.275484e+00
  1.203784e+01    2.309536e+00
  1.205372e+01    2.328654e+00
  1.206959e+01    2.336790e+00
  1.208547e+01    2.291645e+00
  1.210134e+01    2.262329e+00
  1.211722e+01    2.296796e+00
  1.213309e+01    2.304951e+00
  1.214897e+01    2.305550e+00
  1.216485e+01    2.270015e+00
  1.218072e+01    2.252412e+00
  1.219660e+01    2.280002e+00
  1.221247e+01    2.335279e+00
  1.222835e+01    2.298862e+00
  1.224422e+01    2.266255e+00
  1.226010e+01    2.313674e+00
  1.227597e+01    2.321086e+00
  1.229185e+01    2.307652e+00
  1.230773e+01    2.341926e+00
  1.232360e+01    2.305521e+00
  1.233948e+01    2.327541e+00
  1.235535e+01    2.352201e+00
  1.237123e+01    2.341479e+00
  1.238710e+01    2.354043e+00
  1.240298e+01    2.307913e+00
  1.241886e+01    2.302735e+00
  1.243473e+01    2.311547e+00
  1.245061e+01    2.338103e+00
  1.246648e+01    2.310004e+00
  1.248236e+01    2.336003e+00
  1.249823e+01    2.338944e+00
  1.251411e+01    2.339093e+00
  1.252998e+01    2.350017e+00
  1.254586e+01    2.375365e+00
  1.256174e+01    2.374281e+00
  1.257761e+01    2.323945e+00
  1.259349e+01    2.330367e+00
  1.260936e+01    2.375344e+00
  1.262524e+01    2.382209e+00
  1.264111e+01    2.362733e+00
  1.265699e+01    2.392045e+00
  1.267286e+01    2.419414e+00
  1.268874e+01    2.434140e+00
  1.270462e+01    2.449941e+00
  1.272049e+01    2.490440e+00
  1.273637e+01    2.539652e+00
  1.275224e+01    2.571912e+00
  1.276812e+01    2.550340e+00
  1.278399e+01    2.538021e+00
  1.279987e+01    2.586424e+00
  1.281574e+01    2.684721e+00
  1.283162e+01    2.761105e+00
  1.284750e+01    2.847307e+00
  1.286337e+01    2.933915e+00
  1.287925e+01    2.952014e+00
  1.289512e+01    3.098180e+00
  1.291100e+01    3.265332e+00
  1.292687e+01    3.451185e+00
  1.294275e+01    3.676097e+00
  1.295862e+01    3.895371e+00
  1.297450e+01    4.268948e+00
  1.299038e+01    4.662297e+00
  1.300625e+01    5.264795e+00
  1.302213e+01    5.949214e+00
  1.303800e+01    6.854802e+00
  1.305388e+01    7.905185e+00
  1.306975e+01    9.191626e+00
  1.308563e+01    1.061339e+01
  1.310150e+01    1.209700e+01
  1.311738e+01    1.349144e+01
  1.313326e+01    1.480766e+01
  1.314913e+01    1.608030e+01
  1.316501e+01    1.712814e+01
  1.318088e+01    1.800289e+01
  1.319676e+01    1.816342e+01
  1.321263e+01    1.743109e+01
  1.322851e+01    1.592764e+01
  1.324438e+01    1.383208e+01
  1.326026e+01    1.163741e+01
  1.327614e+01    9.719685e+00
  1.329201e+01    8.168333e+00
  1.330789e+01    7.018756e+00
  1.332376e+01    6.130032e+00
  1.333964e+01    5.379293e+00
  1.335551e+01    4.789393e+00
  1.337139e+01    4.360767e+00
  1.338727e+01    3.948655e+00
  1.340314e+01    3.653158e+00
  1.341902e+01    3.502060e+00
  1.343489e+01    3.292023e+00
  1.345077e+01    3.067525e+00
  1.346664e+01    2.961400e+00
  1.348252e+01    2.881596e+00
  1.349839e+01    2.807204e+00
  1.351427e+01    2.715776e+00
  1.353015e+01    2.623811e+00
  1.354602e+01    2.555560e+00
  1.356190e+01    2.538331e+00
  1.357777e+01    2.494534e+00
  1.359365e+01    2.448093e+00
  1.360952e+01    2.456122e+00
  1.362540e+01    2.372266e+00
  1.364127e+01    2.343266e+00
  1.365715e+01    2.313346e+00
  1.367303e+01    2.294845e+00
  1.368890e+01    2.270447e+00
  1.370478e+01    2.249005e+00
  1.372065e+01    2.242073e+00
  1.373653e+01    2.195103e+00
  1.375240e+01    2.189650e+00
  1.376828e+01    2.195996e+00
  1.378415e+01    2.176282e+00
  1.380003e+01    2.137193e+00
  1.381591e+01    2.110396e+00
  1.383178e+01    2.081777e+00
  1.384766e+01    2.104290e+00
  1.386353e+01    2.099550e+00
  1.387941e+01    2.117201e+00
  1.389528e+01    2.096334e+00
  1.391116e+01    2.106387e+00
  1.392703e+01    2.099061e+00
  1.394291e+01    2.093155e+00
  1.395879e+01    2.064681e+00
  1.397466e+01    2.041670e+00
  1.399054e+01    2.041878e+00
  1.400641e+01    2.035384e+00
  1.402229e+01    2.014887e+00
  1.403816e+01    2.007659e+00
  1.405404e+01    1.998151e+00
  1.406991e+01    1.967632e+00
  1.408579e+01    1.979539e+00
  1.410167e+01    1.980544e+00
  1.411754e+01    2.012315e+00
  1.413342e+01    1.979500e+00
  1.414929e+01    1.933459e+00
  1.416517e+01    1.956918e+00
  1.418104e+01    1.967728e+00
  1.419692e+01    1.963479e+00
  1.421279e+01    1.972809e+00
  1.422867e+01    1.954981e+00
  1.424455e+01    1.969763e+00
  1.426042e+01    1.976833e+00
  1.427630e+01    1.932542e+00
  1.429217e+01    1.951852e+00
  1.430805e+01    1.953245e+00
  1.432392e+01    1.930628e+00
  1.433980e+01    1.965585e+00
  1.435568e+01    1.939894e+00
  1.437155e+01    1.937378e+00
  1.438743e+01    1.934821e+00
  1.440330e+01    1.926056e+00
  1.441918e+01    1.888191e+00
  1.443505e+01    1.909357e+00
  1.445093e+01    1.914848e+00
  1.446680e+01    1.919979e+00
  1.448268e+01    1.894549e+00
  1.449856e+01    1.876192e+00
  1.451443e+01    1.911894e+00
  1.453031e+01    1.906144e+00
  1.454618e+01    1.905936e+00
  1.456206e+01    1.948898e+00
  1.457793e+01    1.926383e+00
  1.459381e+01    1.906538e+00
  1.460968e+01    1.890173e+00
  1.462556e+01    1.838508e+00
  1.464144e+01    1.865882e+00
  1.465731e+01    1.892131e+00
  1.467319e+01    1.903091e+00
  1.468906e+01    1.877910e+00
  1.470494e+01    1.839118e+00
  1.472081e+01    1.855847e+00
  1.473669e+01    1.878425e+00
  1.475256e+01    1.882619e+00
  1.476844e+01    1.911263e+00
  1.478432e+01    1.916034e+00
  1.480019e+01    1.892360e+00
  1.481607e+01    1.888019e+00
  1.483194e+01    1.904074e+00
  1.484782e+01    1.905308e+00
  1.486369e+01    1.866824e+00
  1.487957e+01    1.901835e+00
  1.489544e+01    1.942881e+00
  1.491132e+01    1.964301e+00
  1.492720e+01    1.949561e+00
  1.494307e+01    1.963645e+00
  1.495895e+01    1.986838e+00
  1.497482e+01    2.015129e+00
  1.499070e+01    2.074310e+00
  1.500657e+01    2.100909e+00
  1.502245e+01    2.176693e+00
  1.503832e+01    2.235742e+00
  1.505420e+01    2.324036e+00
  1.507008e+01    2.456742e+00
  1.508595e+01    2.591443e+00
  1.510183e+01    2.730508e+00
  1.511770e+01    3.048228e+00
  1.513358e+01    3.338871e+00
  1.514945e+01    3.621978e+00
  1.516533e+01    4.050416e+00
  1.518120e+01    4.481152e+00
  1.519708e+01    4.880241e+00
  1.521296e+01    5.185974e+00
  1.522883e+01    5.562630e+00
  1.524471e+01    5.875834e+00
  1.526058e+01    6.020963e+00
  1.527646e+01    6.162099e+00
  1.529233e+01    6.048585e+00
  1.530821e+01    5.854155e+00
  1.532409e+01    5.455795e+00
  1.533996e+01    4.885093e+00
  1.535584e+01    4.322600e+00
  1.537171e+01    3.823057e+00
  1.538759e+01    3.436603e+00
  1.540346e+01    3.073298e+00
  1.541934e+01    2.812130e+00
  1.543521e+01    2.632444e+00
  1.545109e+01    2.444987e+00
  1.546697e+01    2.300013e+00
  1.548284e+01    2.286400e+00
  1.549872e+01    2.179675e+00
  1.551459e+01    2.067833e+00
  1.553047e+01    2.032093e+00
  1.554634e+01    1.986881e+00
  1.556222e+01    1.929328e+00
  1.557809e+01    1.897527e+00
  1.559397e+01    1.871526e+00
  1.560985e+01    1.817463e+00
  1.562572e+01    1.799000e+00
  1.564160e+01    1.776716e+00
  1.565747e+01    1.757436e+00
  1.567335e+01    1.750357e+00
  1.568922e+01    1.756898e+00
  1.570510e+01    1.713906e+00
  1.572097e+01    1.688862e+00
  1.573685e+01    1.718921e+00
  1.575273e+01    1.707511e+00
  1.576860e+01    1.705605e+00
  1.578448e+01    1.700688e+00
  1.580035e+01    1.668213e+00
  1.581623e+01    1.675257e+00
  1.583210e+01    1.694137e+00
  1.584798e+01    1.657329e+00
  1.586385e+01    1.642840e+00
  1.587973e+01    1.656884e+00
  1.589561e+01    1.642715e+00
  1.591148e+01    1.638471e+00
  1.592736e+01    1.595643e+00
  1.594323e+01    1.614125e+00
  1.595911e+01    1.620884e+00
  1.597498e+01    1.635234e+00
  1.599086e+01    1.634042e+00
  1.600673e+01    1.634503e+00
  1.602261e+01    1.606450e+00
  1.603849e+01    1.615008e+00
  1.605436e+01    1.602255e+00
  1.607024e+01    1.549886e+00
  1.608611e+01    1.571323e+00
  1.610199e+01    1.614756e+00
  1.611786e+01    1.634402e+00
  1.613374e+01    1.603149e+00
  1.614961e+01    1.590160e+00
  1.616549e+01    1.585370e+00
  1.618137e+01    1.558976e+00
  1.619724e+01    1.550966e+00
  1.621312e+01    1.531323e+00
  1.622899e+01    1.551564e+00
  1.624487e+01    1.524397e+00
  1.626074e+01    1.532319e+00
  1.627662e+01    1.530547e+00
  1.629250e+01    1.552595e+00
  1.630837e+01    1.552945e+00
  1.632425e+01    1.559512e+00
  1.634012e+01    1.553813e+00
  1.635600e+01    1.534230e+00
  1.637187e+01    1.518176e+00
  1.638775e+01    1.517056e+00
  1.640362e+01    1.532159e+00
  1.641950e+01    1.505433e+00
  1.643538e+01    1.522324e+00
  1.645125e+01    1.516851e+00
  1.646713e+01    1.501133e+00
  1.648300e+01    1.500938e+00
  1.649888e+01    1.492399e+00
  1.651475e+01    1.495806e+00
  1.653063e+01    1.469653e+00
  1.654650e+01    1.478350e+00
  1.656238e+01    1.511318e+00
  1.657826e+01    1.493526e+00
  1.659413e+01    1.474619e+00
  1.661001e+01    1.494145e+00
  1.662588e+01    1.480003e+00
  1.664176e+01    1.480478e+00
  1.665763e+01    1.469505e+00
  1.667351e+01    1.475312e+00
  1.668938e+01    1.452187e+00
  1.670526e+01    1.449703e+00
  1.672114e+01    1.500134e+00
  1.673701e+01    1.487320e+00
  1.675289e+01    1.437448e+00
  1.676876e+01    1.452749e+00
  1.678464e+01    1.450045e+00
  1.680051e+01    1.421958e+00
  1.681639e+01    1.438849e+00
  1.683226e+01    1.445120e+00
  1.684814e+01    1.449862e+00
  1.686402e+01    1.465601e+00
  1.687989e+01    1.454185e+00
  1.689577e+01    1.425269e+00
  1.691164e+01    1.443433e+00
  1.692752e+01    1.436857e+00
  1.694339e+01    1.416734e+00
  1.695927e+01    1.440163e+00
  1.697514e+01    1.437531e+00
  1.699102e+01    1.432596e+00
  1.700690e+01    1.450140e+00
  1.702277e+01    1.424351e+00
  1.703865e+01    1.429713e+00
  1.705452e+01    1.433694e+00
  1.707040e+01    1.409309e+00
  1.708627e+01    1.405934e+00
  1.710215e+01    1.387334e+00
  1.711802e+01    1.388709e+00
  1.713390e+01    1.381536e+00
  1.714978e+01    1.380575e+00
  1.716565e+01    1.369640e+00
  1.718153e+01    1.395135e+00
  1.719740e+01    1.394546e+00
  1.721328e+01    1.383302e+00
  1.722915e+01    1.384719e+00
  1.724503e+01    1.404363e+00
  1.726091e+01    1.380064e+00
  1.727678e+01    1.385350e+00
  1.729266e+01    1.371584e+00
  1.730853e+01    1.381143e+00
  1.732441e+01    1.355566e+00
  1.734028e+01    1.388963e+00
  1.735616e+01    1.358976e+00
  1.737203e+01    1.340616e+00
  1.738791e+01    1.359300e+00
  1.740379e+01    1.353167e+00
  1.741966e+01    1.334649e+00
  1.743554e+01    1.348508e+00
  1.745141e+01    1.331907e+00
  1.746729e+01    1.381679e+00
  1.748316e+01    1.367131e+00
  1.749904e+01    1.369881e+00
  1.751491e+01    1.340060e+00
  1.753079e+01    1.340506e+00
  1.754667e+01    1.374911e+00
  1.756254e+01    1.335849e+00
  1.757842e+01    1.340720e+00
  1.759429e+01    1.371788e+00
  1.761017e+01    1.332155e+00
  1.762604e+01    1.337163e+00
  1.764192e+01    1.333680e+00
  1.765779e+01    1.324027e+00
  1.767367e+01    1.316828e+00
  1.768955e+01    1.283925e+00
  1.770542e+01    1.314772e+00
  1.772130e+01    1.320856e+00
  1.773717e+01    1.325819e+00
  1.775305e+01    1.327279e+00
  1.776892e+01    1.326558e+00
  1.778480e+01    1.321335e+00
  1.780067e+01    1.329207e+00
  1.781655e+01    1.321958e+00
  1.783243e+01    1.336373e+00
  1.784830e+01    1.309660e+00
  1.786418e+01    1.299972e+00
  1.788005e+01    1.302967e+00
  1.789593e+01    1.320176e+00
  1.791180e+01    1.315012e+00
  1.792768e+01    1.336539e+00
  1.794355e+01    1.324635e+00
  1.795943e+01    1.302930e+00
  1.797531e+01    1.299818e+00
  1.799118e+01    1.296264e+00
  1.800706e+01    1.297513e+00
  1.802293e+01    1.302127e+00
  1.803881e+01    1.274222e+00
  1.805468e+01    1.293067e+00
  1.807056e+01    1.292099e+00
  1.808643e+01    1.295578e+00
  1.810231e+01    1.281098e+00
  1.811819e+01    1.257895e+00
  1.813406e+01    1.292946e+00
  1.814994e+01    1.296750e+00
  1.816581e+01    1.289898e+00
  1.818169e+01    1.312772e+00
  1.819756e+01    1.300886e+00
  1.821344e+01    1.288415e+00
  1.822932e+01    1.267981e+00
  1.824519e+01    1.241592e+00
  1.826107e+01    1.255428e+00
  1.827694e+01    1.283064e+00
  1.829282e+01    1.273467e+00
  1.830869e+01    1.219784e+00
  1.832457e+01    1.240317e+00
  1.834044e+01    1.269755e+00
  1.835632e+01    1.265284e+00
  1.837220e+01    1.248457e+00
  1.838807e+01    1.225407e+00
  1.840395e+01    1.251276e+00
  1.841982e+01    1.258502e+00
  1.843570e+01    1.277000e+00
  1.845157e+01    1.247916e+00
  1.846745e+01    1.241772e+00
  1.848332e+01    1.255830e+00
  1.849920e+01    1.234594e+00
  1.851508e+01    1.242571e+00
  1.853095e+01    1.225854e+00
  1.854683e+01    1.265040e+00
  1.856270e+01    1.270119e+00
  1.857858e+01    1.203562e+00
  1.859445e+01    1.235605e+00
  1.861033e+01    1.196359e+00
  1.862620e+01    1.198042e+00
  1.864208e+01    1.231828e+00
  1.865796e+01    1.236409e+00
  1.867383e+01    1.229115e+00
  1.868971e+01    1.212896e+00
  1.870558e+01    1.206184e+00
  1.872146e+01    1.223711e+00
  1.873733e+01    1.220677e+00
  1.875321e+01    1.223517e+00
  1.876908e+01    1.199032e+00
  1.878496e+01    1.206797e+00
  1.880084e+01    1.204588e+00
  1.881671e+01    1.210495e+00
  1.883259e+01    1.185302e+00
  1.884846e+01    1.191956e+00
  1.886434e+01    1.218467e+00
  1.888021e+01    1.215031e+00
  1.889609e+01    1.209029e+00
  1.891196e+01    1.204002e+00
  1.892784e+01    1.199175e+00
  1.894372e+01    1.201270e+00
  1.895959e+01    1.218227e+00
  1.897547e+01    1.205730e+00
  1.899134e+01    1.196121e+00
  1.900722e+01    1.194659e+00
  1.902309e+01    1.193644e+00
  1.903897e+01    1.204715e+00
  1.905484e+01    1.187535e+00
  1.907072e+01    1.187157e+00
  1.908660e+01    1.176197e+00
  1.910247e+01    1.175717e+00
  1.911835e+01    1.202948e+00
  1.913422e+01    1.173835e+00
  1.915010e+01    1.167799e+00
  1.916597e+01    1.190728e+00
  1.918185e+01    1.188931e+00
  1.919773e+01    1.194246e+00
  1.921360e+01    1.194632e+00
  1.922948e+01    1.171787e+00
  1.924535e+01    1.132969e+00
  1.926123e+01    1.148889e+00
  1.927710e+01    1.145475e+00
  1.929298e+01    1.161717e+00
  1.930885e+01    1.179137e+00
  1.932473e+01    1.160364e+00
  1.934061e+01    1.182579e+00
  1.935648e+01    1.188355e+00
  1.937236e+01    1.160991e+00
  1.938823e+01    1.133949e+00
  1.940411e+01    1.151493e+00
  1.941998e+01    1.142821e+00
  1.943586e+01    1.160034e+00
  1.945173e+01    1.167280e+00
  1.946761e+01    1.136466e+00
  1.948349e+01    1.115499e+00
  1.949936e+01    1.147508e+00
  1.951524e+01    1.164198e+00
  1.953111e+01    1.158740e+00
  1.954699e+01    1.159566e+00
  1.956286e+01    1.152871e+00
  1.957874e+01    1.174039e+00
  1.959461e+01    1.165966e+00
  1.961049e+01    1.197461e+00
  1.962637e+01    1.164379e+00
  1.964224e+01    1.145877e+00
  1.965812e+01    1.142809e+00
  1.967399e+01    1.125833e+00
  1.968987e+01    1.132352e+00
  1.970574e+01    1.126890e+00
  1.972162e+01    1.142161e+00
  1.973749e+01    1.136254e+00
  1.975337e+01    1.130693e+00
  1.976925e+01    1.114552e+00
  1.978512e+01    1.140546e+00
  1.980100e+01    1.107210e+00
  1.981687e+01    1.131218e+00
  1.983275e+01    1.136512e+00
  1.984862e+01    1.124652e+00
  1.986450e+01    1.131277e+00
  1.988037e+01    1.123988e+00
  1.989625e+01    1.122966e+00
  1.991213e+01    1.140468e+00
  1.992800e+01    1.126358e+00
  1.994388e+01    1.110973e+00
  1.995975e+01    1.102696e+00
  1.997563e+01    1.096648e+00
  1.999150e+01    1.100836e+00
  2.000738e+01    1.108179e+00
  2.002325e+01    1.094648e+00
  2.003913e+01    1.112416e+00
  2.005501e+01    1.119243e+00
  2.007088e+01    1.112147e+00
  2.008676e+01    1.097376e+00
  2.010263e+01    1.117069e+00
  2.011851e+01    1.093400e+00
  2.013438e+01    1.105369e+00
  2.015026e+01    1.126830e+00
  2.016614e+01    1.130961e+00
  2.018201e+01    1.096553e+00
  2.019789e+01    1.076941e+00
  2.021376e+01    1.086343e+00
  2.022964e+01    1.073155e+00
  2.024551e+01    1.081025e+00
  2.026139e+01    1.105662e+00
  2.027726e+01    1.086016e+00
  2.029314e+01    1.081240e+00
  2.030902e+01    1.072054e+00
  2.032489e+01    1.098038e+00
  2.034077e+01    1.094922e+00
  2.035664e+01    1.083752e+00
  2.037252e+01    1.082401e+00
  2.038839e+01    1.083825e+00
  2.040427e+01    1.102707e+00
  2.042014e+01    1.088262e+00
  2.043602e+01    1.058080e+00
  2.045190e+01    1.089713e+00
  2.046777e+01    1.086524e+00
  2.048365e+01    1.091302e+00
  2.049952e+01    1.075807e+00
  2.051540e+01    1.083957e+00
  2.053127e+01    1.107199e+00
  2.054715e+01    1.086596e+00
  2.056302e+01    1.049860e+00
  2.057890e+01    1.053653e+00
  2.059478e+01    1.082811e+00
  2.061065e+01    1.088582e+00
  2.062653e+01    1.120731e+00
  2.064240e+01    1.086045e+00
  2.065828e+01    1.055108e+00
  2.067415e+01    1.078140e+00
  2.069003e+01    1.065137e+00
  2.070590e+01    1.065522e+00
  2.072178e+01    1.075856e+00
  2.073766e+01    1.071517e+00
  2.075353e+01    1.108017e+00
  2.076941e+01    1.092925e+00
  2.078528e+01    1.071428e+00
  2.080116e+01    1.070972e+00
  2.081703e+01    1.070799e+00
  2.083291e+01    1.068509e+00
  2.084878e+01    1.070739e+00
  2.086466e+01    1.059488e+00
  2.088054e+01    1.056322e+00
  2.089641e+01    1.051219e+00
  2.091229e+01    1.090618e+00
  2.092816e+01    1.082418e+00
  2.094404e+01    1.065968e+00
  2.095991e+01    1.058319e+00
  2.097579e+01    1.059962e+00
  2.099166e+01    1.077316e+00
  2.100754e+01    1.085632e+00
  2.102342e+01    1.063536e+00
  2.103929e+01    1.055947e+00
  2.105517e+01    1.087529e+00
  2.107104e+01    1.053429e+00
  2.108692e+01    1.065959e+00
  2.110279e+01    1.098246e+00
  2.111867e+01    1.082681e+00
  2.113455e+01    1.102455e+00
  2.115042e+01    1.087968e+00
  2.116630e+01    1.106218e+00
  2.118217e+01    1.099856e+00
  2.119805e+01    1.086582e+00
  2.121392e+01    1.086347e+00
  2.122980e+01    1.082467e+00
  2.124567e+01    1.069714e+00
  2.126155e+01    1.100339e+00
  2.127743e+01    1.110900e+00
  2.129330e+01    1.110535e+00
  2.130918e+01    1.117278e+00
  2.132505e+01    1.113541e+00
  2.134093e+01    1.116097e+00
  2.135680e+01    1.123978e+00
  2.137268e+01    1.141001e+00
  2.138855e+01    1.147357e+00
  2.140443e+01    1.150553e+00
  2.142031e+01    1.146708e+00
  2.143618e+01    1.187086e+00
  2.145206e+01    1.230219e+00
  2.146793e+01    1.240777e+00
  2.148381e+01    1.246055e+00
  2.149968e+01    1.290591e+00
  2.151556e+01    1.278341e+00
  2.153143e+01    1.291369e+00
  2.154731e+01    1.349741e+00
  2.156319e+01    1.373168e+00
  2.157906e+01    1.439325e+00
  2.159494e+01    1.509098e+00
  2.161081e+01    1.548056e+00
  2.162669e+01    1.662454e+00
  2.164256e+01    1.759814e+00
  2.165844e+01    1.819155e+00
  2.167431e+01    2.000571e+00
  2.169019e+01    2.170358e+00
  2.170607e+01    2.406518e+00
  2.172194e+01    2.678365e+00
  2.173782e+01    2.995396e+00
  2.175369e+01    3.421513e+00
  2.176957e+01    3.878643e+00
  2.178544e+01    4.450100e+00
  2.180132e+01    5.176438e+00
  2.181719e+01    5.860081e+00
  2.183307e+01    6.605396e+00
  2.184895e+01    7.352496e+00
  2.186482e+01    8.187598e+00
  2.188070e+01    9.021759e+00
  2.189657e+01    9.636271e+00
  2.191245e+01    1.009518e+01
  2.192832e+01    1.013016e+01
  2.194420e+01    9.687319e+00
  2.196007e+01    8.881776e+00
  2.197595e+01    7.908931e+00
  2.199183e+01    6.707204e+00
  2.200770e+01    5.673676e+00
  2.202358e+01    4.830027e+00
  2.203945e+01    4.104207e+00
  2.205533e+01    3.519975e+00
  2.207120e+01    3.063259e+00
  2.208708e+01    2.714321e+00
  2.210296e+01    2.418757e+00
  2.211883e+01    2.177259e+00
  2.213471e+01    1.998393e+00
  2.215058e+01    1.874152e+00
  2.216646e+01    1.742706e+00
  2.218233e+01    1.656306e+00
  2.219821e+01    1.567146e+00
  2.221408e+01    1.482586e+00
  2.222996e+01    1.415913e+00
  2.224584e+01    1.361604e+00
  2.226171e+01    1.343949e+00
  2.227759e+01    1.322917e+00
  2.229346e+01    1.268560e+00
  2.230934e+01    1.220273e+00
  2.232521e+01    1.173378e+00
  2.234109e+01    1.172440e+00
  2.235696e+01    1.166633e+00
  2.237284e+01    1.133725e+00
  2.238872e+01    1.111324e+00
  2.240459e+01    1.104087e+00
  2.242047e+01    1.092401e+00
  2.243634e+01    1.075895e+00
  2.245222e+01    1.055071e+00
  2.246809e+01    1.027698e+00
  2.248397e+01    1.034809e+00
  2.249984e+01    1.035311e+00
  2.251572e+01    1.037448e+00
  2.253160e+01    1.034633e+00
  2.254747e+01    1.024764e+00
  2.256335e+01    1.018720e+00
  2.257922e+01    1.013418e+00
  2.259510e+01    1.016070e+00
  2.261097e+01    9.903204e-01
  2.262685e+01    9.703715e-01
  2.264272e+01    9.802188e-01
  2.265860e+01    9.641393e-01
  2.267448e+01    9.577070e-01
  2.269035e+01    9.872589e-01
  2.270623e+01    9.626520e-01
  2.272210e+01    9.324780e-01
  2.273798e+01    9.534295e-01
  2.275385e+01    9.590217e-01
  2.276973e+01    9.321848e-01
  2.278560e+01    9.439483e-01
  2.280148e+01    9.343556e-01
  2.281736e+01    9.283799e-01
  2.283323e+01    9.300377e-01
  2.284911e+01    9.295157e-01
  2.286498e+01    9.170265e-01
  2.288086e+01    9.191782e-01
  2.289673e+01    9.205143e-01
  2.291261e+01    9.057120e-01
  2.292848e+01    9.014138e-01
  2.294436e+01    9.018041e-01
  2.296024e+01    8.837370e-01
  2.297611e+01    9.030975e-01
  2.299199e+01    8.909879e-01
  2.300786e+01    8.977218e-01
  2.302374e+01    8.972783e-01
  2.303961e+01    8.622419e-01
  2.305549e+01    8.736739e-01
  2.307137e+01    8.830113e-01
  2.308724e+01    8.768857e-01
  2.310312e+01    8.733785e-01
  2.311899e+01    8.732264e-01
  2.313487e+01    8.631806e-01
  2.315074e+01    8.645025e-01
  2.316662e+01    8.832678e-01
  2.318249e+01    8.618571e-01
  2.319837e+01    8.665827e-01
  2.321425e+01    8.775967e-01
  2.323012e+01    8.956352e-01
  2.324600e+01    8.909760e-01
  2.326187e+01    8.532935e-01
  2.327775e+01    8.485536e-01
  2.329362e+01    8.603190e-01
  2.330950e+01    8.746116e-01
  2.332537e+01    8.653040e-01
  2.334125e+01    8.636546e-01
  2.335713e+01    8.544362e-01
  2.337300e+01    8.701530e-01
  2.338888e+01    8.654499e-01
  2.340475e+01    8.496790e-01
  2.342063e+01    8.533513e-01
  2.343650e+01    8.341341e-01
  2.345238e+01    8.388329e-01
  2.346825e+01    8.577419e-01
  2.348413e+01    8.560866e-01
  2.350001e+01    8.548047e-01
  2.351588e+01    8.513973e-01
  2.353176e+01    8.482808e-01
  2.354763e+01    8.528425e-01
  2.356351e+01    8.443892e-01
  2.357938e+01    8.506595e-01
  2.359526e+01    8.400075e-01
  2.361113e+01    8.485462e-01
  2.362701e+01    8.630316e-01
  2.364289e+01    8.497525e-01
  2.365876e+01    8.530924e-01
  2.367464e+01    8.379140e-01
  2.369051e+01    8.196957e-01
  2.370639e+01    8.149763e-01
  2.372226e+01    7.955880e-01
  2.373814e+01    8.256469e-01
  2.375401e+01    8.360032e-01
  2.376989e+01    8.213567e-01
  2.378577e+01    8.086942e-01
  2.380164e+01    8.043515e-01
  2.381752e+01    7.956066e-01
  2.383339e+01    7.986753e-01
  2.384927e+01    8.087636e-01
  2.386514e+01    8.040372e-01
  2.388102e+01    8.074611e-01
  2.389689e+01    8.098784e-01
  2.391277e+01    7.969118e-01
  2.392865e+01    7.924418e-01
  2.394452e+01    7.920896e-01
  2.396040e+01    7.975802e-01
  2.397627e+01    7.799184e-01
  2.399215e+01    7.948686e-01
  2.400802e+01    7.968478e-01
  2.402390e+01    8.053161e-01
  2.403978e+01    7.943295e-01
  2.405565e+01    7.881427e-01
  2.407153e+01    7.970513e-01
  2.408740e+01    7.756131e-01
  2.410328e+01    7.613281e-01
  2.411915e+01    7.779489e-01
  2.413503e+01    7.838296e-01
  2.415090e+01    7.826911e-01
  2.416678e+01    7.876039e-01
  2.418266e+01    7.709767e-01
  2.419853e+01    7.761105e-01
  2.421441e+01    7.879276e-01
  2.423028e+01    7.768989e-01
  2.424616e+01    7.616030e-01
  2.426203e+01    7.805471e-01
  2.427791e+01    7.999180e-01
  2.429378e+01    7.938837e-01
  2.430966e+01    7.964096e-01
  2.432554e+01    8.048773e-01
  2.434141e+01    7.888600e-01
  2.435729e+01    7.895918e-01
  2.437316e+01    8.102950e-01
  2.438904e+01    7.985402e-01
  2.440491e+01    7.814977e-01
  2.442079e+01    7.694478e-01
  2.443666e+01    7.817671e-01
  2.445254e+01    7.855908e-01
  2.446842e+01    7.755392e-01
  2.448429e+01    7.808921e-01
  2.450017e+01    7.781622e-01
  2.451604e+01    8.056101e-01
  2.453192e+01    8.114111e-01
  2.454779e+01    7.882239e-01
  2.456367e+01    7.796123e-01
  2.457954e+01    7.739602e-01
  2.459542e+01    7.744966e-01
  2.461130e+01    7.848465e-01
  2.462717e+01    7.706290e-01
  2.464305e+01    7.739651e-01
  2.465892e+01    7.753246e-01
  2.467480e+01    7.956592e-01
  2.469067e+01    7.991873e-01
  2.470655e+01    7.755858e-01
  2.472242e+01    7.823571e-01
  2.473830e+01    7.973481e-01
  2.475418e+01    7.892939e-01
  2.477005e+01    7.881657e-01
  2.478593e+01    7.840313e-01
  2.480180e+01    7.859475e-01
  2.481768e+01    7.754256e-01
  2.483355e+01    7.928752e-01
  2.484943e+01    8.082665e-01
  2.486530e+01    7.913740e-01
  2.488118e+01    7.863942e-01
  2.489706e+01    7.934180e-01
  2.491293e+01    7.934374e-01
  2.492881e+01    7.909103e-01
  2.494468e+01    8.061911e-01
  2.496056e+01    7.965483e-01
  2.497643e+01    7.931100e-01
  2.499231e+01    7.883442e-01
  2.500819e+01    7.925071e-01
  2.502406e+01    7.871542e-01
  2.503994e+01    7.952306e-01
  2.505581e+01    8.068599e-01
  2.507169e+01    8.281334e-01
  2.508756e+01    8.201247e-01
  2.510344e+01    8.170161e-01
  2.511931e+01    8.283518e-01
  2.513519e+01    8.253525e-01
  2.515107e+01    8.218079e-01
  2.516694e+01    8.096709e-01
  2.518282e+01    8.044086e-01
  2.519869e+01    8.181168e-01
  2.521457e+01    8.269416e-01
  2.523044e+01    8.261480e-01
  2.524632e+01    8.218577e-01
  2.526219e+01    8.380233e-01
  2.527807e+01    8.470985e-01
  2.529395e+01    8.641440e-01
  2.530982e+01    8.630578e-01
  2.532570e+01    9.002994e-01
  2.534157e+01    9.021511e-01
  2.535745e+01    8.800908e-01
  2.537332e+01    8.891533e-01
  2.538920e+01    8.838189e-01
  2.540507e+01    9.160134e-01
  2.542095e+01    9.040148e-01
  2.543683e+01    9.036505e-01
  2.545270e+01    9.315991e-01
  2.546858e+01    9.532873e-01
  2.548445e+01    9.601146e-01
  2.550033e+01    9.535569e-01
  2.551620e+01    9.474238e-01
  2.553208e+01    9.824240e-01
  2.554795e+01    1.016078e+00
  2.556383e+01    1.041101e+00
  2.557971e+01    1.053512e+00
  2.559558e+01    1.061466e+00
  2.561146e+01    1.106880e+00
  2.562733e+01    1.133180e+00
  2.564321e+01    1.168333e+00
  2.565908e+01    1.216356e+00
  2.567496e+01    1.283757e+00
  2.569083e+01    1.349782e+00
  2.570671e+01    1.413071e+00
  2.572259e+01    1.509944e+00
  2.573846e+01    1.625250e+00
  2.575434e+01    1.770333e+00
  2.577021e+01    1.932647e+00
  2.578609e+01    2.119254e+00
  2.580196e+01    2.361902e+00
  2.581784e+01    2.669900e+00
  2.583371e+01    3.037219e+00
  2.584959e+01    3.468263e+00
  2.586547e+01    3.934919e+00
  2.588134e+01    4.547701e+00
  2.589722e+01    5.224236e+00
  2.591309e+01    5.913802e+00
  2.592897e+01    6.642761e+00
  2.594484e+01    7.355718e+00
  2.596072e+01    7.927921e+00
  2.597660e+01    8.252738e+00
  2.599247e+01    8.304385e+00
  2.600835e+01    8.075955e+00
  2.602422e+01    7.500341e+00
  2.604010e+01    6.783805e+00
  2.605597e+01    5.981305e+00
  2.607185e+01    5.112971e+00
  2.608772e+01    4.355953e+00
  2.610360e+01    3.747110e+00
  2.611948e+01    3.201584e+00
  2.613535e+01    2.759963e+00
  2.615123e+01    2.472971e+00
  2.616710e+01    2.199269e+00
  2.618298e+01    1.996655e+00
  2.619885e+01    1.816570e+00
  2.621473e+01    1.680814e+00
  2.623060e+01    1.563801e+00
  2.624648e+01    1.484090e+00
  2.626236e+01    1.410748e+00
  2.627823e+01    1.322230e+00
  2.629411e+01    1.267855e+00
  2.630998e+01    1.203165e+00
  2.632586e+01    1.137979e+00
  2.634173e+01    1.142744e+00
  2.635761e+01    1.107647e+00
  2.637348e+01    1.044814e+00
  2.638936e+01    1.038609e+00
  2.640524e+01    1.008007e+00
  2.642111e+01    1.002464e+00
  2.643699e+01    1.005740e+00
  2.645286e+01    9.961108e-01
  2.646874e+01    9.825905e-01
  2.648461e+01    9.692545e-01
  2.650049e+01    9.692061e-01
  2.651636e+01    9.221088e-01
  2.653224e+01    9.448567e-01
  2.654812e+01    9.380295e-01
  2.656399e+01    9.307216e-01
  2.657987e+01    9.114437e-01
  2.659574e+01    8.988072e-01
  2.661162e+01    9.265022e-01
  2.662749e+01    9.352647e-01
  2.664337e+01    9.099247e-01
  2.665924e+01    9.050429e-01
  2.667512e+01    9.173306e-01
  2.669100e+01    8.891180e-01
  2.670687e+01    8.994559e-01
  2.672275e+01    8.941560e-01
  2.673862e+01    8.813226e-01
  2.675450e+01    8.941886e-01
  2.677037e+01    8.975914e-01
  2.678625e+01    8.803293e-01
  2.680212e+01    8.763061e-01
  2.681800e+01    8.923846e-01
  2.683388e+01    8.947755e-01
  2.684975e+01    9.066726e-01
  2.686563e+01    8.957776e-01
  2.688150e+01    9.157261e-01
  2.689738e+01    9.353673e-01
  2.691325e+01    9.191518e-01
  2.692913e+01    9.064488e-01
  2.694501e+01    9.414850e-01
  2.696088e+01    9.350942e-01
  2.697676e+01    9.590032e-01
  2.699263e+01    9.737840e-01
  2.700851e+01    9.987488e-01
  2.702438e+01    1.025157e+00
  2.704026e+01    1.078195e+00
  2.705613e+01    1.122041e+00
  2.707201e+01    1.149750e+00
  2.708789e+01    1.220467e+00
  2.710376e+01    1.320268e+00
  2.711964e+01    1.397535e+00
  2.713551e+01    1.537707e+00
  2.715139e+01    1.682998e+00
  2.716726e+01    1.815723e+00
  2.718314e+01    1.970529e+00
  2.719901e+01    2.136098e+00
  2.721489e+01    2.272971e+00
  2.723077e+01    2.359859e+00
  2.724664e+01    2.405607e+00
  2.726252e+01    2.393913e+00
  2.727839e+01    2.334055e+00
  2.729427e+01    2.158834e+00
  2.731014e+01    2.013246e+00
  2.732602e+01    1.827837e+00
  2.734189e+01    1.629777e+00
  2.735777e+01    1.492011e+00
  2.737365e+01    1.374517e+00
  2.738952e+01    1.258231e+00
  2.740540e+01    1.181040e+00
  2.742127e+01    1.127954e+00
  2.743715e+01    1.096867e+00
  2.745302e+01    1.030482e+00
  2.746890e+01    9.953974e-01
  2.748477e+01    1.000309e+00
  2.750065e+01    9.593363e-01
  2.751653e+01    9.388291e-01
  2.753240e+01    9.186612e-01
  2.754828e+01    8.948662e-01
  2.756415e+01    8.801530e-01
  2.758003e+01    8.813420e-01
  2.759590e+01    8.891296e-01
  2.761178e+01    8.796723e-01
  2.762765e+01    8.758348e-01
  2.764353e+01    8.365845e-01
  2.765941e+01    8.434942e-01
  2.767528e+01    8.492725e-01
  2.769116e+01    8.235735e-01
  2.770703e+01    8.362474e-01
  2.772291e+01    8.390141e-01
  2.773878e+01    8.381929e-01
  2.775466e+01    8.050190e-01
  2.777054e+01    7.924926e-01
  2.778641e+01    8.106039e-01
  2.780229e+01    8.007555e-01
  2.781816e+01    8.002468e-01
  2.783404e+01    7.995650e-01
  2.784991e+01    8.082585e-01
  2.786579e+01    8.082178e-01
  2.788166e+01    7.876220e-01
  2.789754e+01    7.886855e-01
  2.791342e+01    7.986472e-01
  2.792929e+01    8.178096e-01
  2.794517e+01    7.918247e-01
  2.796104e+01    7.894686e-01
  2.797692e+01    8.132022e-01
  2.799279e+01    7.921885e-01
  2.800867e+01    7.851392e-01
  2.802454e+01    8.013396e-01
  2.804042e+01    7.957554e-01
  2.805630e+01    7.804997e-01
  2.807217e+01    7.942246e-01
  2.808805e+01    7.947484e-01
  2.810392e+01    7.806748e-01
  2.811980e+01    7.881340e-01
  2.813567e+01    7.952445e-01
  2.815155e+01    7.711117e-01
  2.816742e+01    7.754654e-01
  2.818330e+01    7.818789e-01
  2.819918e+01    7.842166e-01
  2.821505e+01    7.878817e-01
  2.823093e+01    7.754856e-01
  2.824680e+01    7.794058e-01
  2.826268e+01    7.967905e-01
  2.827855e+01    7.930738e-01
  2.829443e+01    7.717573e-01
  2.831030e+01    7.498028e-01
  2.832618e+01    7.438337e-01
  2.834206e+01    7.692845e-01
  2.835793e+01    7.615671e-01
  2.837381e+01    7.734929e-01
  2.838968e+01    7.767119e-01
  2.840556e+01    7.508351e-01
  2.842143e+01    7.473336e-01
  2.843731e+01    7.540848e-01
  2.845318e+01    7.504710e-01
  2.846906e+01    7.462299e-01
  2.848494e+01    7.633762e-01
  2.850081e+01    7.594935e-01
  2.851669e+01    7.484246e-01
  2.853256e+01    7.525541e-01
  2.854844e+01    7.517746e-01
  2.856431e+01    7.577103e-01
  2.858019e+01    7.487736e-01
  2.859606e+01    7.441322e-01
  2.861194e+01    7.600933e-01
  2.862782e+01    7.695560e-01
  2.864369e+01    7.556876e-01
  2.865957e+01    7.526215e-01
  2.867544e+01    7.671331e-01
  2.869132e+01    7.626694e-01
  2.870719e+01    7.421281e-01
  2.872307e+01    7.511143e-01
  2.873895e+01    7.398571e-01
  2.875482e+01    7.332386e-01
  2.877070e+01    7.402763e-01
  2.878657e+01    7.306329e-01
  2.880245e+01    7.442794e-01
  2.881832e+01    7.449310e-01
  2.883420e+01    7.446527e-01
  2.885007e+01    7.332034e-01
  2.886595e+01    7.287580e-01
  2.888183e+01    7.398146e-01
  2.889770e+01    7.345492e-01
  2.891358e+01    7.393751e-01
  2.892945e+01    7.452580e-01
  2.894533e+01    7.560965e-01
  2.896120e+01    7.485081e-01
  2.897708e+01    7.484761e-01
  2.899295e+01    7.109177e-01
  2.900883e+01    7.148134e-01
  2.902471e+01    7.184993e-01
  2.904058e+01    7.294747e-01
  2.905646e+01    7.017101e-01
  2.907233e+01    7.294555e-01
  2.908821e+01    7.299495e-01
  2.910408e+01    7.495340e-01
  2.911996e+01    7.514093e-01
  2.913583e+01    7.284424e-01
  2.915171e+01    7.370669e-01
  2.916759e+01    7.280090e-01
  2.918346e+01    7.591307e-01
  2.919934e+01    7.462566e-01
  2.921521e+01    7.376705e-01
  2.923109e+01    7.400059e-01
  2.924696e+01    7.336611e-01
  2.926284e+01    7.326892e-01
  2.927871e+01    7.472035e-01
  2.929459e+01    7.448999e-01
  2.931047e+01    7.325148e-01
  2.932634e+01    7.426977e-01
  2.934222e+01    7.430032e-01
  2.935809e+01    7.285687e-01
  2.937397e+01    7.336112e-01
  2.938984e+01    7.393847e-01
  2.940572e+01    7.228786e-01
  2.942159e+01    6.969612e-01
  2.943747e+01    7.292622e-01
  2.945335e+01    7.412116e-01
  2.946922e+01    7.147261e-01
  2.948510e+01    7.114403e-01
  2.950097e+01    7.291943e-01
  2.951685e+01    7.285708e-01
  2.953272e+01    7.147624e-01
  2.954860e+01    7.228550e-01
  2.956447e+01    7.299039e-01
  2.958035e+01    7.316803e-01
  2.959623e+01    7.334474e-01
  2.961210e+01    7.278447e-01
  2.962798e+01    7.141592e-01
  2.964385e+01    7.192082e-01
  2.965973e+01    7.116885e-01
  2.967560e+01    7.217386e-01
  2.969148e+01    7.222160e-01
  2.970736e+01    7.219267e-01
  2.972323e+01    7.164969e-01
  2.973911e+01    7.173337e-01
  2.975498e+01    7.150762e-01
  2.977086e+01    7.243717e-01
  2.978673e+01    7.246135e-01
  2.980261e+01    7.201424e-01
  2.981848e+01    7.188967e-01
  2.983436e+01    7.105467e-01
  2.985024e+01    7.176848e-01
  2.986611e+01    7.223873e-01
  2.988199e+01    7.066807e-01
  2.989786e+01    7.093517e-01
  2.991374e+01    7.259643e-01
  2.992961e+01    7.189668e-01
  2.994549e+01    7.141856e-01
  2.996136e+01    7.116088e-01
  2.997724e+01    7.128127e-01
  2.999312e+01    7.183962e-01
  3.000899e+01    7.280221e-01
  3.002487e+01    7.420390e-01
  3.004074e+01    7.306514e-01
  3.005662e+01    7.147326e-01
  3.007249e+01    7.185319e-01
  3.008837e+01    7.289890e-01
  3.010424e+01    7.108785e-01
  3.012012e+01    7.170911e-01
  3.013600e+01    6.885146e-01
  3.015187e+01    7.065215e-01
  3.016775e+01    7.279277e-01
  3.018362e+01    7.254980e-01
  3.019950e+01    7.201580e-01
  3.021537e+01    7.082131e-01
  3.023125e+01    7.177002e-01
  3.024712e+01    7.097893e-01
  3.026300e+01    7.295333e-01
  3.027888e+01    7.131155e-01
  3.029475e+01    7.045436e-01
  3.031063e+01    7.229583e-01
  3.032650e+01    7.229403e-01
  3.034238e+01    7.094113e-01
  3.035825e+01    7.213117e-01
  3.037413e+01    7.197853e-01
  3.039000e+01    7.174304e-01
  3.040588e+01    7.242295e-01
  3.042176e+01    7.135767e-01
  3.043763e+01    7.098871e-01
  3.045351e+01    6.924372e-01
  3.046938e+01    7.037987e-01
  3.048526e+01    7.103018e-01
  3.050113e+01    7.059773e-01
  3.051701e+01    7.223514e-01
  3.053288e+01    7.167554e-01
  3.054876e+01    7.115346e-01
  3.056464e+01    6.969888e-01
  3.058051e+01    7.038373e-01
  3.059639e+01    7.223526e-01
  3.061226e+01    7.020251e-01
  3.062814e+01    6.883547e-01
  3.064401e+01    7.059651e-01
  3.065989e+01    7.065494e-01
  3.067577e+01    7.083889e-01
  3.069164e+01    7.124000e-01
  3.070752e+01    7.111123e-01
  3.072339e+01    7.112328e-01
  3.073927e+01    7.202291e-01
  3.075514e+01    7.056289e-01
  3.077102e+01    6.830966e-01
  3.078689e+01    6.961639e-01
  3.080277e+01    6.921647e-01
  3.081865e+01    6.972517e-01
  3.083452e+01    7.134017e-01
  3.085040e+01    7.297148e-01
  3.086627e+01    7.238779e-01
  3.088215e+01    7.056796e-01
  3.089802e+01    7.115269e-01
  3.091390e+01    7.170093e-01
  3.092977e+01    7.079775e-01
  3.094565e+01    7.215506e-01
  3.096153e+01    7.029873e-01
  3.097740e+01    7.068028e-01
  3.099328e+01    7.009354e-01
  3.100915e+01    7.271555e-01
  3.102503e+01    7.031002e-01
  3.104090e+01    7.080515e-01
  3.105678e+01    7.188160e-01
  3.107265e+01    7.187058e-01
  3.108853e+01    7.095634e-01
  3.110441e+01    7.230088e-01
  3.112028e+01    7.354393e-01
  3.113616e+01    7.131884e-01
  3.115203e+01    6.885334e-01
  3.116791e+01    7.160573e-01
  3.118378e+01    7.244754e-01
  3.119966e+01    7.302518e-01
  3.121553e+01    7.167537e-01
  3.123141e+01    7.406578e-01
  3.124729e+01    7.255555e-01
  3.126316e+01    7.306602e-01
  3.127904e+01    7.519409e-01
  3.129491e+01    7.471226e-01
  3.131079e+01    7.043959e-01
  3.132666e+01    7.128396e-01
  3.134254e+01    7.314289e-01
  3.135841e+01    7.325933e-01
  3.137429e+01    7.357062e-01
  3.139017e+01    7.358178e-01
  3.140604e+01    7.640279e-01
  3.142192e+01    7.561841e-01
  3.143779e+01    7.507700e-01
  3.145367e+01    7.630867e-01
  3.146954e+01    7.529631e-01
  3.148542e+01    7.575956e-01
  3.150129e+01    7.689406e-01
  3.151717e+01    7.748001e-01
  3.153305e+01    7.855223e-01
  3.154892e+01    7.648421e-01
  3.156480e+01    7.838066e-01
  3.158067e+01    7.809894e-01
  3.159655e+01    8.145525e-01
  3.161242e+01    8.181829e-01
  3.162830e+01    8.128312e-01
  3.164418e+01    8.461670e-01
  3.166005e+01    8.908944e-01
  3.167593e+01    8.993757e-01
  3.169180e+01    8.778579e-01
  3.170768e+01    9.170170e-01
  3.172355e+01    9.541525e-01
  3.173943e+01    1.012315e+00
  3.175530e+01    1.028939e+00
  3.177118e+01    1.102537e+00
  3.178706e+01    1.160548e+00
  3.180293e+01    1.255358e+00
  3.181881e+01    1.382977e+00
  3.183468e+01    1.520960e+00
  3.185056e+01    1.620664e+00
  3.186643e+01    1.794736e+00
  3.188231e+01    1.956364e+00
  3.189818e+01    2.121341e+00
  3.191406e+01    2.289518e+00
  3.192994e+01    2.411632e+00
  3.194581e+01    2.453105e+00
  3.196169e+01    2.356578e+00
  3.197756e+01    2.261773e+00
  3.199344e+01    2.112948e+00
  3.200931e+01    1.920227e+00
  3.202519e+01    1.722058e+00
  3.204106e+01    1.557903e+00
  3.205694e+01    1.422398e+00
  3.207282e+01    1.297012e+00
  3.208869e+01    1.181363e+00
  3.210457e+01    1.103757e+00
  3.212044e+01    1.049794e+00
  3.213632e+01    1.011671e+00
  3.215219e+01    9.708388e-01
  3.216807e+01    9.219208e-01
  3.218394e+01    9.162325e-01
  3.219982e+01    8.751572e-01
  3.221570e+01    8.404460e-01
  3.223157e+01    8.399156e-01
  3.224745e+01    8.205958e-01
  3.226332e+01    8.096710e-01
  3.227920e+01    7.767394e-01
  3.229507e+01    7.752222e-01
  3.231095e+01    7.922416e-01
  3.232682e+01    7.901562e-01
  3.234270e+01    7.618591e-01
  3.235858e+01    7.385825e-01
  3.237445e+01    7.691612e-01
  3.239033e+01    7.973026e-01
  3.240620e+01    7.607623e-01
  3.242208e+01    7.364182e-01
  3.243795e+01    7.395646e-01
  3.245383e+01    7.566299e-01
  3.246970e+01    7.350168e-01
  3.248558e+01    7.333052e-01
  3.250146e+01    7.382317e-01
  3.251733e+01    7.184731e-01
  3.253321e+01    7.203241e-01
  3.254908e+01    7.380908e-01
