# == pyFAI calibration ==
# Distance Sample to Detector: 0.3999999939076516 m
# PONI: 9.750e-02, 1.135e-01 m
# Rotations: -0.000175 0.000000 -0.000000 rad
# 
# == Fit2d calibration ==
# Distance Sample-beamCenter: 400.000 mm
# Center: x=1514.000, y=1300.000 pix
# Tilt: 0.010 deg  TiltPlanRot: 0.010 deg
# 
# Detector Detector	 Spline= None	 PixelSize= 7.500e-05, 7.500e-05 m
#    Detector has a mask: False 
#    Detector has a dark current: False 
#    detector has a flat field: False 
# 
# Wavelength: 6.888e-11 m
# Mask applied: user provided
# Dark current applied: False
# Flat field applied: False
# Polarization factor: 0.99
# Normalization factor: 1.0
# --> /home/myspot/data/2024_07_Rosario/Ru-CGO-ex/2024-07-27_002_Ru-CGO-ex_Activtation_ramp_000002_data_000097.dat
#       q_nm^-1             I 
  2.003187e-02    1.542450e-01
  3.590745e-02    1.284296e-01
  5.178302e-02    8.012769e-02
  6.765859e-02    2.527648e-01
  8.353417e-02    1.908065e-01
  9.940974e-02    6.311157e-02
  1.152853e-01    1.883849e-03
  1.311609e-01    0.000000e+00
  1.470365e-01    1.543290e-02
  1.629120e-01    2.109132e-02
  1.787876e-01    0.000000e+00
  1.946632e-01    0.000000e+00
  2.105388e-01    3.203745e-02
  2.264143e-01    5.413298e-02
  2.422899e-01    7.735296e-02
  2.581655e-01    5.972563e-02
  2.740411e-01    2.517503e-02
  2.899166e-01    3.124884e-02
  3.057922e-01    2.181759e-02
  3.216678e-01    3.386828e-02
  3.375433e-01    4.999303e-02
  3.534189e-01    6.712979e-02
  3.692945e-01    2.103501e-02
  3.851701e-01    1.500859e-02
  4.010456e-01    9.314859e-03
  4.169212e-01    2.448750e-02
  4.327968e-01    4.204744e-02
  4.486724e-01    4.844837e-02
  4.645479e-01    6.384125e-02
  4.804235e-01    8.136968e-02
  4.962991e-01    5.576066e-02
  5.121747e-01    5.108894e-02
  5.280502e-01    4.729300e-02
  5.439258e-01    3.610966e-02
  5.598014e-01    3.365066e-02
  5.756770e-01    3.360832e-02
  5.915525e-01    4.265363e-02
  6.074281e-01    3.498229e-02
  6.233037e-01    4.470254e-02
  6.391793e-01    5.829646e-02
  6.550548e-01    3.467230e-02
  6.709304e-01    2.848483e-02
  6.868060e-01    4.925935e-02
  7.026815e-01    5.742791e-02
  7.185571e-01    4.795190e-02
  7.344327e-01    2.666756e-02
  7.503083e-01    2.082705e-02
  7.661838e-01    5.253300e-02
  7.820594e-01    1.132318e-01
  7.979350e-01    1.462342e-01
  8.138106e-01    1.831902e-01
  8.296861e-01    1.628615e-01
  8.455617e-01    2.413022e-01
  8.614373e-01    3.201039e-01
  8.773129e-01    3.750207e-01
  8.931884e-01    4.404278e-01
  9.090640e-01    5.332735e-01
  9.249396e-01    6.103292e-01
  9.408152e-01    7.410733e-01
  9.566907e-01    7.839466e-01
  9.725663e-01    7.779880e-01
  9.884419e-01    9.276910e-01
  1.004317e+00    1.050582e+00
  1.020193e+00    1.119013e+00
  1.036069e+00    1.179793e+00
  1.051944e+00    1.252032e+00
  1.067820e+00    1.226137e+00
  1.083695e+00    1.185156e+00
  1.099571e+00    1.198061e+00
  1.115446e+00    1.301757e+00
  1.131322e+00    1.421277e+00
  1.147198e+00    1.566010e+00
  1.163073e+00    1.486126e+00
  1.178949e+00    1.525870e+00
  1.194824e+00    1.701390e+00
  1.210700e+00    1.878272e+00
  1.226575e+00    2.104928e+00
  1.242451e+00    2.218883e+00
  1.258327e+00    2.241979e+00
  1.274202e+00    2.373764e+00
  1.290078e+00    2.372154e+00
  1.305953e+00    2.467916e+00
  1.321829e+00    2.607388e+00
  1.337705e+00    2.434273e+00
  1.353580e+00    2.426309e+00
  1.369456e+00    2.537055e+00
  1.385331e+00    2.506461e+00
  1.401207e+00    2.490494e+00
  1.417082e+00    2.515875e+00
  1.432958e+00    2.629261e+00
  1.448834e+00    2.715243e+00
  1.464709e+00    2.931379e+00
  1.480585e+00    2.964339e+00
  1.496460e+00    2.834228e+00
  1.512336e+00    2.963632e+00
  1.528211e+00    3.019171e+00
  1.544087e+00    2.891429e+00
  1.559963e+00    2.910514e+00
  1.575838e+00    2.902718e+00
  1.591714e+00    2.785192e+00
  1.607589e+00    2.900946e+00
  1.623465e+00    2.878398e+00
  1.639340e+00    2.944854e+00
  1.655216e+00    2.964525e+00
  1.671092e+00    2.973232e+00
  1.686967e+00    2.933213e+00
  1.702843e+00    2.834321e+00
  1.718718e+00    2.795261e+00
  1.734594e+00    2.700808e+00
  1.750469e+00    2.771763e+00
  1.766345e+00    2.845808e+00
  1.782221e+00    2.687721e+00
  1.798096e+00    2.791155e+00
  1.813972e+00    2.676608e+00
  1.829847e+00    2.693458e+00
  1.845723e+00    2.767287e+00
  1.861598e+00    2.724488e+00
  1.877474e+00    2.677230e+00
  1.893350e+00    2.766025e+00
  1.909225e+00    2.714562e+00
  1.925101e+00    2.768788e+00
  1.940976e+00    2.766898e+00
  1.956852e+00    2.772148e+00
  1.972727e+00    2.716280e+00
  1.988603e+00    2.713080e+00
  2.004479e+00    2.812795e+00
  2.020354e+00    2.774884e+00
  2.036230e+00    2.761041e+00
  2.052105e+00    2.734330e+00
  2.067981e+00    2.702474e+00
  2.083856e+00    2.699919e+00
  2.099732e+00    2.693148e+00
  2.115608e+00    2.672392e+00
  2.131483e+00    2.633248e+00
  2.147359e+00    2.677698e+00
  2.163234e+00    2.660623e+00
  2.179110e+00    2.802707e+00
  2.194985e+00    2.733693e+00
  2.210861e+00    2.706913e+00
  2.226737e+00    2.653651e+00
  2.242612e+00    2.727616e+00
  2.258488e+00    2.733012e+00
  2.274363e+00    2.718765e+00
  2.290239e+00    2.670078e+00
  2.306115e+00    2.546706e+00
  2.321990e+00    2.656468e+00
  2.337866e+00    2.698721e+00
  2.353741e+00    2.778338e+00
  2.369617e+00    2.760411e+00
  2.385492e+00    2.766415e+00
  2.401368e+00    2.798287e+00
  2.417244e+00    2.710279e+00
  2.433119e+00    2.735892e+00
  2.448995e+00    2.801286e+00
  2.464870e+00    2.724680e+00
  2.480746e+00    2.721588e+00
  2.496621e+00    2.713866e+00
  2.512497e+00    2.699352e+00
  2.528373e+00    2.693934e+00
  2.544248e+00    2.742663e+00
  2.560124e+00    2.809253e+00
  2.575999e+00    2.769270e+00
  2.591875e+00    2.803592e+00
  2.607750e+00    2.706507e+00
  2.623626e+00    2.801351e+00
  2.639502e+00    2.794823e+00
  2.655377e+00    2.698023e+00
  2.671253e+00    2.677343e+00
  2.687128e+00    2.700258e+00
  2.703004e+00    2.805096e+00
  2.718879e+00    2.823790e+00
  2.734755e+00    2.823389e+00
  2.750631e+00    2.829074e+00
  2.766506e+00    2.833354e+00
  2.782382e+00    2.739222e+00
  2.798257e+00    2.817323e+00
  2.814133e+00    2.886546e+00
  2.830008e+00    2.786478e+00
  2.845884e+00    2.819373e+00
  2.861760e+00    2.845901e+00
  2.877635e+00    2.923972e+00
  2.893511e+00    2.855643e+00
  2.909386e+00    2.804617e+00
  2.925262e+00    2.807359e+00
  2.941137e+00    2.993214e+00
  2.957013e+00    2.910598e+00
  2.972889e+00    2.872077e+00
  2.988764e+00    2.842602e+00
  3.004640e+00    2.882397e+00
  3.020515e+00    2.866202e+00
  3.036391e+00    2.815296e+00
  3.052266e+00    2.846010e+00
  3.068142e+00    2.901530e+00
  3.084018e+00    2.919081e+00
  3.099893e+00    2.913128e+00
  3.115769e+00    2.851005e+00
  3.131644e+00    2.905577e+00
  3.147520e+00    2.910604e+00
  3.163395e+00    2.867611e+00
  3.179271e+00    2.862952e+00
  3.195147e+00    2.802967e+00
  3.211022e+00    2.871584e+00
  3.226898e+00    2.973763e+00
  3.242773e+00    2.921299e+00
  3.258649e+00    2.910018e+00
  3.274525e+00    2.954412e+00
  3.290400e+00    2.882069e+00
  3.306276e+00    2.909764e+00
  3.322151e+00    2.929219e+00
  3.338027e+00    2.909445e+00
  3.353902e+00    2.897176e+00
  3.369778e+00    2.881320e+00
  3.385654e+00    2.833771e+00
  3.401529e+00    2.859360e+00
  3.417405e+00    2.874391e+00
  3.433280e+00    2.901090e+00
  3.449156e+00    2.954556e+00
  3.465031e+00    2.949703e+00
  3.480907e+00    2.932752e+00
  3.496783e+00    2.927230e+00
  3.512658e+00    2.875984e+00
  3.528534e+00    2.893329e+00
  3.544409e+00    2.888481e+00
  3.560285e+00    2.940276e+00
  3.576160e+00    2.927363e+00
  3.592036e+00    2.856642e+00
  3.607912e+00    2.897665e+00
  3.623787e+00    2.892133e+00
  3.639663e+00    2.853590e+00
  3.655538e+00    2.913163e+00
  3.671414e+00    2.980207e+00
  3.687289e+00    2.988695e+00
  3.703165e+00    2.890146e+00
  3.719041e+00    2.959933e+00
  3.734916e+00    2.953561e+00
  3.750792e+00    2.931405e+00
  3.766667e+00    2.935193e+00
  3.782543e+00    3.024408e+00
  3.798418e+00    2.976222e+00
  3.814294e+00    2.933882e+00
  3.830170e+00    2.959513e+00
  3.846045e+00    2.973907e+00
  3.861921e+00    3.015924e+00
  3.877796e+00    3.014033e+00
  3.893672e+00    3.007626e+00
  3.909547e+00    2.983602e+00
  3.925423e+00    2.997159e+00
  3.941299e+00    2.973103e+00
  3.957174e+00    2.923553e+00
  3.973050e+00    2.915451e+00
  3.988925e+00    3.097526e+00
  4.004801e+00    2.987060e+00
  4.020676e+00    3.035192e+00
  4.036552e+00    3.048155e+00
  4.052428e+00    3.021383e+00
  4.068303e+00    2.972576e+00
  4.084179e+00    2.960019e+00
  4.100054e+00    3.016445e+00
  4.115930e+00    2.978788e+00
  4.131806e+00    2.964197e+00
  4.147681e+00    2.964050e+00
  4.163557e+00    2.990912e+00
  4.179432e+00    3.109622e+00
  4.195308e+00    3.043991e+00
  4.211183e+00    2.940669e+00
  4.227059e+00    2.940732e+00
  4.242935e+00    2.979617e+00
  4.258810e+00    3.006751e+00
  4.274686e+00    3.029896e+00
  4.290561e+00    3.035693e+00
  4.306437e+00    3.055083e+00
  4.322312e+00    3.060488e+00
  4.338188e+00    3.007703e+00
  4.354064e+00    3.055175e+00
  4.369939e+00    2.980572e+00
  4.385815e+00    3.005461e+00
  4.401690e+00    3.016158e+00
  4.417566e+00    2.953815e+00
  4.433441e+00    2.998213e+00
  4.449317e+00    3.049934e+00
  4.465193e+00    3.033099e+00
  4.481068e+00    2.987308e+00
  4.496944e+00    2.960524e+00
  4.512819e+00    3.045885e+00
  4.528695e+00    3.067491e+00
  4.544570e+00    3.020511e+00
  4.560446e+00    3.021014e+00
  4.576322e+00    3.003386e+00
  4.592197e+00    2.981362e+00
  4.608073e+00    3.078823e+00
  4.623948e+00    3.085019e+00
  4.639824e+00    3.020110e+00
  4.655699e+00    3.079204e+00
  4.671575e+00    3.147496e+00
  4.687451e+00    3.153157e+00
  4.703326e+00    3.079757e+00
  4.719202e+00    3.085186e+00
  4.735077e+00    3.239606e+00
  4.750953e+00    3.188114e+00
  4.766828e+00    3.040226e+00
  4.782704e+00    3.054885e+00
  4.798580e+00    3.086325e+00
  4.814455e+00    3.121665e+00
  4.830331e+00    3.114002e+00
  4.846206e+00    3.053198e+00
  4.862082e+00    3.018889e+00
  4.877957e+00    3.062304e+00
  4.893833e+00    3.172194e+00
  4.909709e+00    3.122712e+00
  4.925584e+00    3.123164e+00
  4.941460e+00    3.007440e+00
  4.957335e+00    3.056381e+00
  4.973211e+00    3.105684e+00
  4.989086e+00    3.181006e+00
  5.004962e+00    3.107622e+00
  5.020838e+00    3.079059e+00
  5.036713e+00    3.060655e+00
  5.052589e+00    3.037586e+00
  5.068464e+00    2.989238e+00
  5.084340e+00    2.959510e+00
  5.100216e+00    3.081171e+00
  5.116091e+00    3.127903e+00
  5.131967e+00    3.121884e+00
  5.147842e+00    3.077775e+00
  5.163718e+00    3.129383e+00
  5.179593e+00    3.100516e+00
  5.195469e+00    3.030573e+00
  5.211345e+00    3.129707e+00
  5.227220e+00    3.131747e+00
  5.243096e+00    3.070544e+00
  5.258971e+00    3.093652e+00
  5.274847e+00    3.122861e+00
  5.290722e+00    3.096068e+00
  5.306598e+00    3.057858e+00
  5.322474e+00    3.129140e+00
  5.338349e+00    3.151309e+00
  5.354225e+00    3.076196e+00
  5.370100e+00    3.056989e+00
  5.385976e+00    3.059936e+00
  5.401851e+00    3.020289e+00
  5.417727e+00    3.032357e+00
  5.433603e+00    3.084475e+00
  5.449478e+00    3.082917e+00
  5.465354e+00    3.067379e+00
  5.481229e+00    2.945657e+00
  5.497105e+00    3.060936e+00
  5.512980e+00    3.049706e+00
  5.528856e+00    3.010397e+00
  5.544732e+00    2.965432e+00
  5.560607e+00    3.014429e+00
  5.576483e+00    3.070095e+00
  5.592358e+00    2.950861e+00
  5.608234e+00    2.976545e+00
  5.624109e+00    2.997489e+00
  5.639985e+00    2.996635e+00
  5.655861e+00    3.094790e+00
  5.671736e+00    3.111083e+00
  5.687612e+00    3.016621e+00
  5.703487e+00    2.933161e+00
  5.719363e+00    3.066967e+00
  5.735238e+00    3.142587e+00
  5.751114e+00    3.095796e+00
  5.766990e+00    3.138775e+00
  5.782865e+00    3.100898e+00
  5.798741e+00    3.011614e+00
  5.814616e+00    2.958139e+00
  5.830492e+00    2.970682e+00
  5.846367e+00    3.007381e+00
  5.862243e+00    3.039850e+00
  5.878119e+00    2.991743e+00
  5.893994e+00    2.996140e+00
  5.909870e+00    2.955158e+00
  5.925745e+00    2.947656e+00
  5.941621e+00    2.986624e+00
  5.957497e+00    3.017720e+00
  5.973372e+00    2.981479e+00
  5.989248e+00    3.020806e+00
  6.005123e+00    2.965679e+00
  6.020999e+00    2.947338e+00
  6.036874e+00    2.939759e+00
  6.052750e+00    2.991950e+00
  6.068626e+00    3.038733e+00
  6.084501e+00    3.014180e+00
  6.100377e+00    3.087772e+00
  6.116252e+00    3.058123e+00
  6.132128e+00    2.997082e+00
  6.148003e+00    3.032512e+00
  6.163879e+00    3.041812e+00
  6.179755e+00    3.048088e+00
  6.195630e+00    3.002717e+00
  6.211506e+00    2.982135e+00
  6.227381e+00    2.984300e+00
  6.243257e+00    3.016982e+00
  6.259132e+00    2.919750e+00
  6.275008e+00    2.996333e+00
  6.290884e+00    3.058300e+00
  6.306759e+00    3.029901e+00
  6.322635e+00    2.932915e+00
  6.338510e+00    2.872337e+00
  6.354386e+00    2.931108e+00
  6.370261e+00    2.979801e+00
  6.386137e+00    2.962097e+00
  6.402013e+00    2.989719e+00
  6.417888e+00    2.997233e+00
  6.433764e+00    3.051921e+00
  6.449639e+00    3.013106e+00
  6.465515e+00    2.954741e+00
  6.481390e+00    2.960479e+00
  6.497266e+00    2.928676e+00
  6.513142e+00    2.938967e+00
  6.529017e+00    3.017546e+00
  6.544893e+00    2.980587e+00
  6.560768e+00    2.968791e+00
  6.576644e+00    2.913495e+00
  6.592519e+00    2.950070e+00
  6.608395e+00    3.040860e+00
  6.624271e+00    3.001980e+00
  6.640146e+00    2.978231e+00
  6.656022e+00    2.965932e+00
  6.671897e+00    2.889651e+00
  6.687773e+00    2.957581e+00
  6.703648e+00    3.010366e+00
  6.719524e+00    2.977973e+00
  6.735400e+00    3.027776e+00
  6.751275e+00    3.033959e+00
  6.767151e+00    2.941033e+00
  6.783026e+00    2.915907e+00
  6.798902e+00    2.969784e+00
  6.814777e+00    2.983553e+00
  6.830653e+00    2.951114e+00
  6.846529e+00    3.009457e+00
  6.862404e+00    2.975291e+00
  6.878280e+00    3.023961e+00
  6.894155e+00    2.967612e+00
  6.910031e+00    2.936283e+00
  6.925907e+00    3.009437e+00
  6.941782e+00    3.003186e+00
  6.957658e+00    2.987609e+00
  6.973533e+00    2.991790e+00
  6.989409e+00    2.976188e+00
  7.005284e+00    2.977413e+00
  7.021160e+00    2.917413e+00
  7.037036e+00    3.037338e+00
  7.052911e+00    2.978591e+00
  7.068787e+00    2.962789e+00
  7.084662e+00    2.977238e+00
  7.100538e+00    2.937833e+00
  7.116413e+00    2.915947e+00
  7.132289e+00    3.009917e+00
  7.148165e+00    2.967423e+00
  7.164040e+00    2.914990e+00
  7.179916e+00    2.945174e+00
  7.195791e+00    2.928244e+00
  7.211667e+00    2.920962e+00
  7.227542e+00    2.890732e+00
  7.243418e+00    2.938887e+00
  7.259294e+00    2.983680e+00
  7.275169e+00    2.984267e+00
  7.291045e+00    2.942427e+00
  7.306920e+00    2.949824e+00
  7.322796e+00    2.937931e+00
  7.338671e+00    2.952607e+00
  7.354547e+00    2.985469e+00
  7.370423e+00    2.920229e+00
  7.386298e+00    2.989807e+00
  7.402174e+00    3.011743e+00
  7.418049e+00    2.924345e+00
  7.433925e+00    2.898598e+00
  7.449800e+00    2.928833e+00
  7.465676e+00    2.925012e+00
  7.481552e+00    2.924417e+00
  7.497427e+00    2.957371e+00
  7.513303e+00    2.959247e+00
  7.529178e+00    2.897706e+00
  7.545054e+00    2.939660e+00
  7.560929e+00    2.998856e+00
  7.576805e+00    2.979387e+00
  7.592681e+00    2.966784e+00
  7.608556e+00    2.973563e+00
  7.624432e+00    2.953098e+00
  7.640307e+00    2.998073e+00
  7.656183e+00    2.967307e+00
  7.672058e+00    2.933692e+00
  7.687934e+00    2.955287e+00
  7.703810e+00    2.945777e+00
  7.719685e+00    2.927069e+00
  7.735561e+00    2.871302e+00
  7.751436e+00    2.924546e+00
  7.767312e+00    2.952694e+00
  7.783187e+00    2.896859e+00
  7.799063e+00    2.870486e+00
  7.814939e+00    2.889458e+00
  7.830814e+00    2.879150e+00
  7.846690e+00    2.912765e+00
  7.862565e+00    2.918001e+00
  7.878441e+00    2.835220e+00
  7.894317e+00    2.898978e+00
  7.910192e+00    2.986428e+00
  7.926068e+00    2.914537e+00
  7.941943e+00    2.887409e+00
  7.957819e+00    2.861895e+00
  7.973694e+00    2.886761e+00
  7.989570e+00    2.947435e+00
  8.005446e+00    2.934475e+00
  8.021321e+00    2.895016e+00
  8.037197e+00    2.915399e+00
  8.053072e+00    2.910393e+00
  8.068948e+00    2.881077e+00
  8.084823e+00    2.796127e+00
  8.100699e+00    2.846588e+00
  8.116575e+00    2.983277e+00
  8.132450e+00    2.965014e+00
  8.148326e+00    2.932423e+00
  8.164201e+00    2.923591e+00
  8.180077e+00    2.958795e+00
  8.195952e+00    2.987451e+00
  8.211828e+00    2.947078e+00
  8.227704e+00    2.918472e+00
  8.243579e+00    2.903424e+00
  8.259455e+00    2.937968e+00
  8.275330e+00    2.839633e+00
  8.291206e+00    2.870191e+00
  8.307081e+00    2.881767e+00
  8.322957e+00    2.891365e+00
  8.338833e+00    2.917400e+00
  8.354708e+00    2.850736e+00
  8.370584e+00    2.800869e+00
  8.386459e+00    2.807208e+00
  8.402335e+00    2.901168e+00
  8.418210e+00    2.913897e+00
  8.434086e+00    2.855597e+00
  8.449962e+00    2.857780e+00
  8.465837e+00    2.881466e+00
  8.481713e+00    2.809320e+00
  8.497588e+00    2.907513e+00
  8.513464e+00    2.864989e+00
  8.529339e+00    2.841545e+00
  8.545215e+00    2.810837e+00
  8.561091e+00    2.806589e+00
  8.576966e+00    2.851684e+00
  8.592842e+00    2.845134e+00
  8.608717e+00    2.829592e+00
  8.624593e+00    2.764884e+00
  8.640468e+00    2.818354e+00
  8.656344e+00    2.791052e+00
  8.672220e+00    2.839469e+00
  8.688095e+00    2.833091e+00
  8.703971e+00    2.800188e+00
  8.719846e+00    2.816896e+00
  8.735722e+00    2.849591e+00
  8.751598e+00    2.838726e+00
  8.767473e+00    2.815228e+00
  8.783349e+00    2.773826e+00
  8.799224e+00    2.790647e+00
  8.815100e+00    2.862757e+00
  8.830975e+00    2.843606e+00
  8.846851e+00    2.807110e+00
  8.862727e+00    2.788541e+00
  8.878602e+00    2.855233e+00
  8.894478e+00    2.832284e+00
  8.910353e+00    2.809765e+00
  8.926229e+00    2.736431e+00
  8.942104e+00    2.762731e+00
  8.957980e+00    2.750461e+00
  8.973856e+00    2.768784e+00
  8.989731e+00    2.786953e+00
  9.005607e+00    2.783996e+00
  9.021482e+00    2.763633e+00
  9.037358e+00    2.773077e+00
  9.053233e+00    2.739943e+00
  9.069109e+00    2.720003e+00
  9.084985e+00    2.764514e+00
  9.100860e+00    2.763315e+00
  9.116736e+00    2.775194e+00
  9.132611e+00    2.850882e+00
  9.148487e+00    2.832471e+00
  9.164362e+00    2.842224e+00
  9.180238e+00    2.793351e+00
  9.196114e+00    2.788460e+00
  9.211989e+00    2.735188e+00
  9.227865e+00    2.707807e+00
  9.243740e+00    2.734158e+00
  9.259616e+00    2.785675e+00
  9.275491e+00    2.752294e+00
  9.291367e+00    2.719292e+00
  9.307243e+00    2.727510e+00
  9.323118e+00    2.765889e+00
  9.338994e+00    2.738409e+00
  9.354869e+00    2.762141e+00
  9.370745e+00    2.756789e+00
  9.386620e+00    2.686471e+00
  9.402496e+00    2.752838e+00
  9.418372e+00    2.744272e+00
  9.434247e+00    2.698974e+00
  9.450123e+00    2.751352e+00
  9.465998e+00    2.761741e+00
  9.481874e+00    2.778821e+00
  9.497749e+00    2.771708e+00
  9.513625e+00    2.750784e+00
  9.529501e+00    2.699672e+00
  9.545376e+00    2.710603e+00
  9.561252e+00    2.746897e+00
  9.577127e+00    2.765198e+00
  9.593003e+00    2.727713e+00
  9.608878e+00    2.767098e+00
  9.624754e+00    2.828043e+00
  9.640630e+00    2.764666e+00
  9.656505e+00    2.716756e+00
  9.672381e+00    2.700955e+00
  9.688256e+00    2.737978e+00
  9.704132e+00    2.693553e+00
  9.720008e+00    2.695139e+00
  9.735883e+00    2.734195e+00
  9.751759e+00    2.681401e+00
  9.767634e+00    2.646261e+00
  9.783510e+00    2.645041e+00
  9.799385e+00    2.632377e+00
  9.815261e+00    2.643437e+00
  9.831137e+00    2.696846e+00
  9.847012e+00    2.686248e+00
  9.862888e+00    2.661891e+00
  9.878763e+00    2.702476e+00
  9.894639e+00    2.716644e+00
  9.910514e+00    2.689796e+00
  9.926390e+00    2.662011e+00
  9.942266e+00    2.684076e+00
  9.958141e+00    2.680949e+00
  9.974017e+00    2.687555e+00
  9.989892e+00    2.661712e+00
  1.000577e+01    2.663666e+00
  1.002164e+01    2.642717e+00
  1.003752e+01    2.678985e+00
  1.005339e+01    2.656890e+00
  1.006927e+01    2.627226e+00
  1.008515e+01    2.613327e+00
  1.010102e+01    2.641762e+00
  1.011690e+01    2.613653e+00
  1.013277e+01    2.614134e+00
  1.014865e+01    2.624969e+00
  1.016452e+01    2.623249e+00
  1.018040e+01    2.615164e+00
  1.019627e+01    2.569370e+00
  1.021215e+01    2.545537e+00
  1.022803e+01    2.603487e+00
  1.024390e+01    2.641579e+00
  1.025978e+01    2.614644e+00
  1.027565e+01    2.549925e+00
  1.029153e+01    2.520293e+00
  1.030740e+01    2.586495e+00
  1.032328e+01    2.547607e+00
  1.033915e+01    2.567615e+00
  1.035503e+01    2.569752e+00
  1.037091e+01    2.588083e+00
  1.038678e+01    2.599872e+00
  1.040266e+01    2.601459e+00
  1.041853e+01    2.610507e+00
  1.043441e+01    2.541916e+00
  1.045028e+01    2.625744e+00
  1.046616e+01    2.585634e+00
  1.048204e+01    2.544265e+00
  1.049791e+01    2.520223e+00
  1.051379e+01    2.519077e+00
  1.052966e+01    2.518257e+00
  1.054554e+01    2.475400e+00
  1.056141e+01    2.552133e+00
  1.057729e+01    2.618345e+00
  1.059316e+01    2.610644e+00
  1.060904e+01    2.538729e+00
  1.062492e+01    2.519592e+00
  1.064079e+01    2.510652e+00
  1.065667e+01    2.529662e+00
  1.067254e+01    2.527509e+00
  1.068842e+01    2.546996e+00
  1.070429e+01    2.514762e+00
  1.072017e+01    2.518086e+00
  1.073604e+01    2.496189e+00
  1.075192e+01    2.500118e+00
  1.076780e+01    2.553433e+00
  1.078367e+01    2.533493e+00
  1.079955e+01    2.516882e+00
  1.081542e+01    2.500950e+00
  1.083130e+01    2.546998e+00
  1.084717e+01    2.520892e+00
  1.086305e+01    2.476783e+00
  1.087892e+01    2.462359e+00
  1.089480e+01    2.463307e+00
  1.091068e+01    2.520237e+00
  1.092655e+01    2.531475e+00
  1.094243e+01    2.528445e+00
  1.095830e+01    2.483225e+00
  1.097418e+01    2.499691e+00
  1.099005e+01    2.478244e+00
  1.100593e+01    2.458419e+00
  1.102180e+01    2.463271e+00
  1.103768e+01    2.466960e+00
  1.105356e+01    2.446225e+00
  1.106943e+01    2.471779e+00
  1.108531e+01    2.485611e+00
  1.110118e+01    2.480586e+00
  1.111706e+01    2.459400e+00
  1.113293e+01    2.472272e+00
  1.114881e+01    2.445787e+00
  1.116468e+01    2.451173e+00
  1.118056e+01    2.415725e+00
  1.119644e+01    2.410182e+00
  1.121231e+01    2.433420e+00
  1.122819e+01    2.437082e+00
  1.124406e+01    2.431285e+00
  1.125994e+01    2.444128e+00
  1.127581e+01    2.467364e+00
  1.129169e+01    2.423015e+00
  1.130756e+01    2.419803e+00
  1.132344e+01    2.399982e+00
  1.133932e+01    2.352058e+00
  1.135519e+01    2.398622e+00
  1.137107e+01    2.398827e+00
  1.138694e+01    2.359212e+00
  1.140282e+01    2.387945e+00
  1.141869e+01    2.380295e+00
  1.143457e+01    2.385107e+00
  1.145045e+01    2.392915e+00
  1.146632e+01    2.392174e+00
  1.148220e+01    2.345371e+00
  1.149807e+01    2.418685e+00
  1.151395e+01    2.432266e+00
  1.152982e+01    2.315369e+00
  1.154570e+01    2.330542e+00
  1.156157e+01    2.365293e+00
  1.157745e+01    2.349881e+00
  1.159333e+01    2.366642e+00
  1.160920e+01    2.363757e+00
  1.162508e+01    2.323743e+00
  1.164095e+01    2.362657e+00
  1.165683e+01    2.399089e+00
  1.167270e+01    2.377907e+00
  1.168858e+01    2.378259e+00
  1.170445e+01    2.277136e+00
  1.172033e+01    2.255593e+00
  1.173621e+01    2.317520e+00
  1.175208e+01    2.302915e+00
  1.176796e+01    2.294811e+00
  1.178383e+01    2.362712e+00
  1.179971e+01    2.355544e+00
  1.181558e+01    2.323281e+00
  1.183146e+01    2.358823e+00
  1.184733e+01    2.345812e+00
  1.186321e+01    2.344022e+00
  1.187909e+01    2.314045e+00
  1.189496e+01    2.312641e+00
  1.191084e+01    2.294116e+00
  1.192671e+01    2.305865e+00
  1.194259e+01    2.304062e+00
  1.195846e+01    2.311997e+00
  1.197434e+01    2.289597e+00
  1.199021e+01    2.275419e+00
  1.200609e+01    2.291725e+00
  1.202197e+01    2.319091e+00
  1.203784e+01    2.275656e+00
  1.205372e+01    2.319295e+00
  1.206959e+01    2.304325e+00
  1.208547e+01    2.301334e+00
  1.210134e+01    2.304713e+00
  1.211722e+01    2.298193e+00
  1.213309e+01    2.324595e+00
  1.214897e+01    2.280563e+00
  1.216485e+01    2.295687e+00
  1.218072e+01    2.291277e+00
  1.219660e+01    2.270680e+00
  1.221247e+01    2.299389e+00
  1.222835e+01    2.325273e+00
  1.224422e+01    2.322971e+00
  1.226010e+01    2.275360e+00
  1.227597e+01    2.318127e+00
  1.229185e+01    2.343483e+00
  1.230773e+01    2.293600e+00
  1.232360e+01    2.286861e+00
  1.233948e+01    2.312236e+00
  1.235535e+01    2.289897e+00
  1.237123e+01    2.294389e+00
  1.238710e+01    2.317340e+00
  1.240298e+01    2.334707e+00
  1.241886e+01    2.370539e+00
  1.243473e+01    2.356289e+00
  1.245061e+01    2.316470e+00
  1.246648e+01    2.312528e+00
  1.248236e+01    2.316119e+00
  1.249823e+01    2.333786e+00
  1.251411e+01    2.341416e+00
  1.252998e+01    2.372324e+00
  1.254586e+01    2.332147e+00
  1.256174e+01    2.324533e+00
  1.257761e+01    2.386836e+00
  1.259349e+01    2.365601e+00
  1.260936e+01    2.357733e+00
  1.262524e+01    2.366714e+00
  1.264111e+01    2.395837e+00
  1.265699e+01    2.372482e+00
  1.267286e+01    2.427539e+00
  1.268874e+01    2.495878e+00
  1.270462e+01    2.493250e+00
  1.272049e+01    2.494772e+00
  1.273637e+01    2.468521e+00
  1.275224e+01    2.512697e+00
  1.276812e+01    2.565223e+00
  1.278399e+01    2.572593e+00
  1.279987e+01    2.647531e+00
  1.281574e+01    2.703673e+00
  1.283162e+01    2.711098e+00
  1.284750e+01    2.780071e+00
  1.286337e+01    2.889333e+00
  1.287925e+01    2.954211e+00
  1.289512e+01    3.160515e+00
  1.291100e+01    3.269784e+00
  1.292687e+01    3.508356e+00
  1.294275e+01    3.697196e+00
  1.295862e+01    3.951919e+00
  1.297450e+01    4.294496e+00
  1.299038e+01    4.749619e+00
  1.300625e+01    5.319371e+00
  1.302213e+01    5.996946e+00
  1.303800e+01    6.938729e+00
  1.305388e+01    8.138527e+00
  1.306975e+01    9.438054e+00
  1.308563e+01    1.085544e+01
  1.310150e+01    1.227343e+01
  1.311738e+01    1.355863e+01
  1.313326e+01    1.479622e+01
  1.314913e+01    1.593668e+01
  1.316501e+01    1.704178e+01
  1.318088e+01    1.772697e+01
  1.319676e+01    1.779300e+01
  1.321263e+01    1.682024e+01
  1.322851e+01    1.510308e+01
  1.324438e+01    1.300246e+01
  1.326026e+01    1.090727e+01
  1.327614e+01    9.114034e+00
  1.329201e+01    7.713342e+00
  1.330789e+01    6.592908e+00
  1.332376e+01    5.806073e+00
  1.333964e+01    5.154900e+00
  1.335551e+01    4.672276e+00
  1.337139e+01    4.216751e+00
  1.338727e+01    3.877423e+00
  1.340314e+01    3.606954e+00
  1.341902e+01    3.409239e+00
  1.343489e+01    3.212366e+00
  1.345077e+01    3.091561e+00
  1.346664e+01    2.930238e+00
  1.348252e+01    2.813056e+00
  1.349839e+01    2.734299e+00
  1.351427e+01    2.691825e+00
  1.353015e+01    2.603857e+00
  1.354602e+01    2.582747e+00
  1.356190e+01    2.528500e+00
  1.357777e+01    2.454786e+00
  1.359365e+01    2.401300e+00
  1.360952e+01    2.389604e+00
  1.362540e+01    2.358095e+00
  1.364127e+01    2.315044e+00
  1.365715e+01    2.271440e+00
  1.367303e+01    2.314958e+00
  1.368890e+01    2.281045e+00
  1.370478e+01    2.259678e+00
  1.372065e+01    2.215347e+00
  1.373653e+01    2.194690e+00
  1.375240e+01    2.209678e+00
  1.376828e+01    2.250339e+00
  1.378415e+01    2.203500e+00
  1.380003e+01    2.183157e+00
  1.381591e+01    2.171162e+00
  1.383178e+01    2.143870e+00
  1.384766e+01    2.128917e+00
  1.386353e+01    2.069919e+00
  1.387941e+01    2.100580e+00
  1.389528e+01    2.064872e+00
  1.391116e+01    2.115133e+00
  1.392703e+01    2.062712e+00
  1.394291e+01    2.049150e+00
  1.395879e+01    2.072376e+00
  1.397466e+01    2.050963e+00
  1.399054e+01    2.031136e+00
  1.400641e+01    2.023985e+00
  1.402229e+01    2.008940e+00
  1.403816e+01    1.996104e+00
  1.405404e+01    1.995665e+00
  1.406991e+01    2.037907e+00
  1.408579e+01    2.015970e+00
  1.410167e+01    1.962014e+00
  1.411754e+01    1.989882e+00
  1.413342e+01    1.979958e+00
  1.414929e+01    1.951589e+00
  1.416517e+01    1.953570e+00
  1.418104e+01    1.975971e+00
  1.419692e+01    1.963452e+00
  1.421279e+01    1.976131e+00
  1.422867e+01    1.980863e+00
  1.424455e+01    1.962076e+00
  1.426042e+01    1.968852e+00
  1.427630e+01    1.972580e+00
  1.429217e+01    1.934470e+00
  1.430805e+01    1.952830e+00
  1.432392e+01    1.950175e+00
  1.433980e+01    1.932016e+00
  1.435568e+01    1.944929e+00
  1.437155e+01    1.929932e+00
  1.438743e+01    1.945143e+00
  1.440330e+01    1.940791e+00
  1.441918e+01    1.953771e+00
  1.443505e+01    1.939412e+00
  1.445093e+01    1.941219e+00
  1.446680e+01    1.941137e+00
  1.448268e+01    1.934367e+00
  1.449856e+01    1.926838e+00
  1.451443e+01    1.920911e+00
  1.453031e+01    1.906620e+00
  1.454618e+01    1.898224e+00
  1.456206e+01    1.898661e+00
  1.457793e+01    1.882583e+00
  1.459381e+01    1.872629e+00
  1.460968e+01    1.933001e+00
  1.462556e+01    1.968440e+00
  1.464144e+01    1.910318e+00
  1.465731e+01    1.892401e+00
  1.467319e+01    1.880921e+00
  1.468906e+01    1.873376e+00
  1.470494e+01    1.908736e+00
  1.472081e+01    1.897653e+00
  1.473669e+01    1.862231e+00
  1.475256e+01    1.897743e+00
  1.476844e+01    1.913449e+00
  1.478432e+01    1.935901e+00
  1.480019e+01    1.929204e+00
  1.481607e+01    1.903735e+00
  1.483194e+01    1.921023e+00
  1.484782e+01    1.883011e+00
  1.486369e+01    1.870004e+00
  1.487957e+01    1.900569e+00
  1.489544e+01    1.989014e+00
  1.491132e+01    2.004156e+00
  1.492720e+01    1.977580e+00
  1.494307e+01    1.988763e+00
  1.495895e+01    1.979962e+00
  1.497482e+01    2.020550e+00
  1.499070e+01    2.098963e+00
  1.500657e+01    2.162127e+00
  1.502245e+01    2.205532e+00
  1.503832e+01    2.237949e+00
  1.505420e+01    2.303010e+00
  1.507008e+01    2.444245e+00
  1.508595e+01    2.640203e+00
  1.510183e+01    2.813518e+00
  1.511770e+01    3.065953e+00
  1.513358e+01    3.404828e+00
  1.514945e+01    3.739120e+00
  1.516533e+01    4.125902e+00
  1.518120e+01    4.509169e+00
  1.519708e+01    4.877745e+00
  1.521296e+01    5.211496e+00
  1.522883e+01    5.585004e+00
  1.524471e+01    5.796189e+00
  1.526058e+01    6.008225e+00
  1.527646e+01    6.059922e+00
  1.529233e+01    5.929034e+00
  1.530821e+01    5.683682e+00
  1.532409e+01    5.272478e+00
  1.533996e+01    4.662952e+00
  1.535584e+01    4.097858e+00
  1.537171e+01    3.581983e+00
  1.538759e+01    3.209395e+00
  1.540346e+01    2.989402e+00
  1.541934e+01    2.711093e+00
  1.543521e+01    2.533504e+00
  1.545109e+01    2.374631e+00
  1.546697e+01    2.271385e+00
  1.548284e+01    2.185985e+00
  1.549872e+01    2.098239e+00
  1.551459e+01    1.988452e+00
  1.553047e+01    1.987233e+00
  1.554634e+01    1.995503e+00
  1.556222e+01    1.941321e+00
  1.557809e+01    1.869452e+00
  1.559397e+01    1.881216e+00
  1.560985e+01    1.830745e+00
  1.562572e+01    1.796185e+00
  1.564160e+01    1.787859e+00
  1.565747e+01    1.752364e+00
  1.567335e+01    1.760999e+00
  1.568922e+01    1.718772e+00
  1.570510e+01    1.738988e+00
  1.572097e+01    1.716064e+00
  1.573685e+01    1.704093e+00
  1.575273e+01    1.713985e+00
  1.576860e+01    1.655351e+00
  1.578448e+01    1.689714e+00
  1.580035e+01    1.698309e+00
  1.581623e+01    1.688488e+00
  1.583210e+01    1.682861e+00
  1.584798e+01    1.682956e+00
  1.586385e+01    1.638951e+00
  1.587973e+01    1.642532e+00
  1.589561e+01    1.649154e+00
  1.591148e+01    1.607289e+00
  1.592736e+01    1.593761e+00
  1.594323e+01    1.572575e+00
  1.595911e+01    1.601000e+00
  1.597498e+01    1.592585e+00
  1.599086e+01    1.597743e+00
  1.600673e+01    1.610383e+00
  1.602261e+01    1.604384e+00
  1.603849e+01    1.596615e+00
  1.605436e+01    1.595739e+00
  1.607024e+01    1.596792e+00
  1.608611e+01    1.574810e+00
  1.610199e+01    1.583134e+00
  1.611786e+01    1.582026e+00
  1.613374e+01    1.575580e+00
  1.614961e+01    1.550615e+00
  1.616549e+01    1.552553e+00
  1.618137e+01    1.562890e+00
  1.619724e+01    1.565960e+00
  1.621312e+01    1.548086e+00
  1.622899e+01    1.558190e+00
  1.624487e+01    1.562261e+00
  1.626074e+01    1.554573e+00
  1.627662e+01    1.569552e+00
  1.629250e+01    1.553809e+00
  1.630837e+01    1.550825e+00
  1.632425e+01    1.582355e+00
  1.634012e+01    1.540239e+00
  1.635600e+01    1.532009e+00
  1.637187e+01    1.487045e+00
  1.638775e+01    1.527717e+00
  1.640362e+01    1.512735e+00
  1.641950e+01    1.505743e+00
  1.643538e+01    1.527328e+00
  1.645125e+01    1.520868e+00
  1.646713e+01    1.510278e+00
  1.648300e+01    1.536933e+00
  1.649888e+01    1.508734e+00
  1.651475e+01    1.482584e+00
  1.653063e+01    1.483733e+00
  1.654650e+01    1.514760e+00
  1.656238e+01    1.496763e+00
  1.657826e+01    1.469864e+00
  1.659413e+01    1.492211e+00
  1.661001e+01    1.480297e+00
  1.662588e+01    1.448894e+00
  1.664176e+01    1.446605e+00
  1.665763e+01    1.469095e+00
  1.667351e+01    1.468068e+00
  1.668938e+01    1.475464e+00
  1.670526e+01    1.504908e+00
  1.672114e+01    1.476046e+00
  1.673701e+01    1.462947e+00
  1.675289e+01    1.488734e+00
  1.676876e+01    1.468319e+00
  1.678464e+01    1.442433e+00
  1.680051e+01    1.440640e+00
  1.681639e+01    1.449226e+00
  1.683226e+01    1.453756e+00
  1.684814e+01    1.449381e+00
  1.686402e+01    1.461385e+00
  1.687989e+01    1.436886e+00
  1.689577e+01    1.412195e+00
  1.691164e+01    1.420093e+00
  1.692752e+01    1.445182e+00
  1.694339e+01    1.427296e+00
  1.695927e+01    1.436461e+00
  1.697514e+01    1.424731e+00
  1.699102e+01    1.433855e+00
  1.700690e+01    1.433647e+00
  1.702277e+01    1.426414e+00
  1.703865e+01    1.433877e+00
  1.705452e+01    1.446713e+00
  1.707040e+01    1.431646e+00
  1.708627e+01    1.409748e+00
  1.710215e+01    1.405749e+00
  1.711802e+01    1.401558e+00
  1.713390e+01    1.393697e+00
  1.714978e+01    1.414202e+00
  1.716565e+01    1.414813e+00
  1.718153e+01    1.386777e+00
  1.719740e+01    1.378923e+00
  1.721328e+01    1.373762e+00
  1.722915e+01    1.362861e+00
  1.724503e+01    1.371606e+00
  1.726091e+01    1.410376e+00
  1.727678e+01    1.390553e+00
  1.729266e+01    1.353769e+00
  1.730853e+01    1.392948e+00
  1.732441e+01    1.378341e+00
  1.734028e+01    1.398745e+00
  1.735616e+01    1.336655e+00
  1.737203e+01    1.321461e+00
  1.738791e+01    1.343288e+00
  1.740379e+01    1.348620e+00
  1.741966e+01    1.331838e+00
  1.743554e+01    1.364299e+00
  1.745141e+01    1.367422e+00
  1.746729e+01    1.359700e+00
  1.748316e+01    1.345516e+00
  1.749904e+01    1.359496e+00
  1.751491e+01    1.338125e+00
  1.753079e+01    1.360920e+00
  1.754667e+01    1.342402e+00
  1.756254e+01    1.337027e+00
  1.757842e+01    1.336085e+00
  1.759429e+01    1.361559e+00
  1.761017e+01    1.371322e+00
  1.762604e+01    1.388136e+00
  1.764192e+01    1.389849e+00
  1.765779e+01    1.331974e+00
  1.767367e+01    1.316485e+00
  1.768955e+01    1.333069e+00
  1.770542e+01    1.341198e+00
  1.772130e+01    1.337183e+00
  1.773717e+01    1.363697e+00
  1.775305e+01    1.343538e+00
  1.776892e+01    1.308744e+00
  1.778480e+01    1.325017e+00
  1.780067e+01    1.305055e+00
  1.781655e+01    1.295889e+00
  1.783243e+01    1.311942e+00
  1.784830e+01    1.308426e+00
  1.786418e+01    1.314202e+00
  1.788005e+01    1.286428e+00
  1.789593e+01    1.306733e+00
  1.791180e+01    1.329123e+00
  1.792768e+01    1.326352e+00
  1.794355e+01    1.292012e+00
  1.795943e+01    1.281640e+00
  1.797531e+01    1.311394e+00
  1.799118e+01    1.290773e+00
  1.800706e+01    1.284216e+00
  1.802293e+01    1.284950e+00
  1.803881e+01    1.291345e+00
  1.805468e+01    1.289995e+00
  1.807056e+01    1.268492e+00
  1.808643e+01    1.280117e+00
  1.810231e+01    1.277146e+00
  1.811819e+01    1.265423e+00
  1.813406e+01    1.263649e+00
  1.814994e+01    1.269273e+00
  1.816581e+01    1.272814e+00
  1.818169e+01    1.277354e+00
  1.819756e+01    1.282114e+00
  1.821344e+01    1.279780e+00
  1.822932e+01    1.251036e+00
  1.824519e+01    1.269941e+00
  1.826107e+01    1.283073e+00
  1.827694e+01    1.259785e+00
  1.829282e+01    1.257029e+00
  1.830869e+01    1.278012e+00
  1.832457e+01    1.273318e+00
  1.834044e+01    1.286144e+00
  1.835632e+01    1.253649e+00
  1.837220e+01    1.268955e+00
  1.838807e+01    1.250525e+00
  1.840395e+01    1.207769e+00
  1.841982e+01    1.248512e+00
  1.843570e+01    1.254925e+00
  1.845157e+01    1.229941e+00
  1.846745e+01    1.231399e+00
  1.848332e+01    1.225927e+00
  1.849920e+01    1.219290e+00
  1.851508e+01    1.202000e+00
  1.853095e+01    1.229150e+00
  1.854683e+01    1.244119e+00
  1.856270e+01    1.240149e+00
  1.857858e+01    1.203840e+00
  1.859445e+01    1.240373e+00
  1.861033e+01    1.243417e+00
  1.862620e+01    1.234874e+00
  1.864208e+01    1.228294e+00
  1.865796e+01    1.211101e+00
  1.867383e+01    1.197653e+00
  1.868971e+01    1.209461e+00
  1.870558e+01    1.210922e+00
  1.872146e+01    1.215214e+00
  1.873733e+01    1.198451e+00
  1.875321e+01    1.214048e+00
  1.876908e+01    1.220223e+00
  1.878496e+01    1.196585e+00
  1.880084e+01    1.193264e+00
  1.881671e+01    1.187349e+00
  1.883259e+01    1.212084e+00
  1.884846e+01    1.203502e+00
  1.886434e+01    1.187378e+00
  1.888021e+01    1.194939e+00
  1.889609e+01    1.204116e+00
  1.891196e+01    1.182221e+00
  1.892784e+01    1.203312e+00
  1.894372e+01    1.195053e+00
  1.895959e+01    1.182982e+00
  1.897547e+01    1.221041e+00
  1.899134e+01    1.185694e+00
  1.900722e+01    1.160760e+00
  1.902309e+01    1.199268e+00
  1.903897e+01    1.204143e+00
  1.905484e+01    1.218277e+00
  1.907072e+01    1.200683e+00
  1.908660e+01    1.187214e+00
  1.910247e+01    1.178324e+00
  1.911835e+01    1.209018e+00
  1.913422e+01    1.209133e+00
  1.915010e+01    1.181005e+00
  1.916597e+01    1.164023e+00
  1.918185e+01    1.181183e+00
  1.919773e+01    1.195234e+00
  1.921360e+01    1.203668e+00
  1.922948e+01    1.174657e+00
  1.924535e+01    1.193060e+00
  1.926123e+01    1.190015e+00
  1.927710e+01    1.149038e+00
  1.929298e+01    1.152620e+00
  1.930885e+01    1.176291e+00
  1.932473e+01    1.189265e+00
  1.934061e+01    1.160495e+00
  1.935648e+01    1.149481e+00
  1.937236e+01    1.153000e+00
  1.938823e+01    1.176510e+00
  1.940411e+01    1.151688e+00
  1.941998e+01    1.165842e+00
  1.943586e+01    1.156653e+00
  1.945173e+01    1.160887e+00
  1.946761e+01    1.169236e+00
  1.948349e+01    1.131407e+00
  1.949936e+01    1.159075e+00
  1.951524e+01    1.168315e+00
  1.953111e+01    1.149665e+00
  1.954699e+01    1.154156e+00
  1.956286e+01    1.148354e+00
  1.957874e+01    1.145481e+00
  1.959461e+01    1.133824e+00
  1.961049e+01    1.132747e+00
  1.962637e+01    1.136198e+00
  1.964224e+01    1.133694e+00
  1.965812e+01    1.155159e+00
  1.967399e+01    1.164979e+00
  1.968987e+01    1.138732e+00
  1.970574e+01    1.142144e+00
  1.972162e+01    1.157907e+00
  1.973749e+01    1.150533e+00
  1.975337e+01    1.140695e+00
  1.976925e+01    1.118151e+00
  1.978512e+01    1.128165e+00
  1.980100e+01    1.147649e+00
  1.981687e+01    1.131269e+00
  1.983275e+01    1.103883e+00
  1.984862e+01    1.101912e+00
  1.986450e+01    1.127807e+00
  1.988037e+01    1.127347e+00
  1.989625e+01    1.104439e+00
  1.991213e+01    1.108329e+00
  1.992800e+01    1.099578e+00
  1.994388e+01    1.120533e+00
  1.995975e+01    1.128265e+00
  1.997563e+01    1.104547e+00
  1.999150e+01    1.092262e+00
  2.000738e+01    1.110013e+00
  2.002325e+01    1.126954e+00
  2.003913e+01    1.140954e+00
  2.005501e+01    1.118539e+00
  2.007088e+01    1.095887e+00
  2.008676e+01    1.106560e+00
  2.010263e+01    1.104508e+00
  2.011851e+01    1.115851e+00
  2.013438e+01    1.109858e+00
  2.015026e+01    1.081890e+00
  2.016614e+01    1.116926e+00
  2.018201e+01    1.140480e+00
  2.019789e+01    1.092546e+00
  2.021376e+01    1.081182e+00
  2.022964e+01    1.084916e+00
  2.024551e+01    1.094801e+00
  2.026139e+01    1.063787e+00
  2.027726e+01    1.070495e+00
  2.029314e+01    1.096756e+00
  2.030902e+01    1.087850e+00
  2.032489e+01    1.066052e+00
  2.034077e+01    1.075164e+00
  2.035664e+01    1.086938e+00
  2.037252e+01    1.091188e+00
  2.038839e+01    1.097289e+00
  2.040427e+01    1.078918e+00
  2.042014e+01    1.076316e+00
  2.043602e+01    1.102589e+00
  2.045190e+01    1.071382e+00
  2.046777e+01    1.054840e+00
  2.048365e+01    1.075977e+00
  2.049952e+01    1.079746e+00
  2.051540e+01    1.067298e+00
  2.053127e+01    1.060091e+00
  2.054715e+01    1.071841e+00
  2.056302e+01    1.084996e+00
  2.057890e+01    1.093411e+00
  2.059478e+01    1.089415e+00
  2.061065e+01    1.062240e+00
  2.062653e+01    1.059132e+00
  2.064240e+01    1.073439e+00
  2.065828e+01    1.089685e+00
  2.067415e+01    1.067291e+00
  2.069003e+01    1.063630e+00
  2.070590e+01    1.059893e+00
  2.072178e+01    1.086293e+00
  2.073766e+01    1.062549e+00
  2.075353e+01    1.059762e+00
  2.076941e+01    1.054565e+00
  2.078528e+01    1.064638e+00
  2.080116e+01    1.056654e+00
  2.081703e+01    1.062986e+00
  2.083291e+01    1.062749e+00
  2.084878e+01    1.082687e+00
  2.086466e+01    1.070516e+00
  2.088054e+01    1.067299e+00
  2.089641e+01    1.068923e+00
  2.091229e+01    1.074304e+00
  2.092816e+01    1.081196e+00
  2.094404e+01    1.071921e+00
  2.095991e+01    1.079761e+00
  2.097579e+01    1.068766e+00
  2.099166e+01    1.078668e+00
  2.100754e+01    1.071612e+00
  2.102342e+01    1.066937e+00
  2.103929e+01    1.078418e+00
  2.105517e+01    1.067374e+00
  2.107104e+01    1.068712e+00
  2.108692e+01    1.050746e+00
  2.110279e+01    1.061537e+00
  2.111867e+01    1.073320e+00
  2.113455e+01    1.088413e+00
  2.115042e+01    1.092598e+00
  2.116630e+01    1.096693e+00
  2.118217e+01    1.093647e+00
  2.119805e+01    1.074095e+00
  2.121392e+01    1.064036e+00
  2.122980e+01    1.099821e+00
  2.124567e+01    1.118710e+00
  2.126155e+01    1.109575e+00
  2.127743e+01    1.125226e+00
  2.129330e+01    1.116373e+00
  2.130918e+01    1.116269e+00
  2.132505e+01    1.124335e+00
  2.134093e+01    1.115679e+00
  2.135680e+01    1.154265e+00
  2.137268e+01    1.145637e+00
  2.138855e+01    1.131962e+00
  2.140443e+01    1.150399e+00
  2.142031e+01    1.160323e+00
  2.143618e+01    1.189242e+00
  2.145206e+01    1.193475e+00
  2.146793e+01    1.230155e+00
  2.148381e+01    1.234642e+00
  2.149968e+01    1.266100e+00
  2.151556e+01    1.312481e+00
  2.153143e+01    1.334011e+00
  2.154731e+01    1.381221e+00
  2.156319e+01    1.387186e+00
  2.157906e+01    1.417101e+00
  2.159494e+01    1.469708e+00
  2.161081e+01    1.588002e+00
  2.162669e+01    1.683445e+00
  2.164256e+01    1.781105e+00
  2.165844e+01    1.915727e+00
  2.167431e+01    2.056087e+00
  2.169019e+01    2.250560e+00
  2.170607e+01    2.460108e+00
  2.172194e+01    2.718071e+00
  2.173782e+01    3.088383e+00
  2.175369e+01    3.562156e+00
  2.176957e+01    4.109906e+00
  2.178544e+01    4.719318e+00
  2.180132e+01    5.344785e+00
  2.181719e+01    6.005380e+00
  2.183307e+01    6.793501e+00
  2.184895e+01    7.592005e+00
  2.186482e+01    8.356971e+00
  2.188070e+01    9.056472e+00
  2.189657e+01    9.571968e+00
  2.191245e+01    9.854172e+00
  2.192832e+01    9.739350e+00
  2.194420e+01    9.142626e+00
  2.196007e+01    8.232951e+00
  2.197595e+01    7.201573e+00
  2.199183e+01    6.139968e+00
  2.200770e+01    5.180449e+00
  2.202358e+01    4.354169e+00
  2.203945e+01    3.752394e+00
  2.205533e+01    3.275910e+00
  2.207120e+01    2.870672e+00
  2.208708e+01    2.555789e+00
  2.210296e+01    2.289797e+00
  2.211883e+01    2.116593e+00
  2.213471e+01    1.942453e+00
  2.215058e+01    1.815214e+00
  2.216646e+01    1.704824e+00
  2.218233e+01    1.583672e+00
  2.219821e+01    1.515307e+00
  2.221408e+01    1.467737e+00
  2.222996e+01    1.387282e+00
  2.224584e+01    1.344447e+00
  2.226171e+01    1.282147e+00
  2.227759e+01    1.276178e+00
  2.229346e+01    1.256757e+00
  2.230934e+01    1.206444e+00
  2.232521e+01    1.196606e+00
  2.234109e+01    1.167643e+00
  2.235696e+01    1.138212e+00
  2.237284e+01    1.136404e+00
  2.238872e+01    1.107382e+00
  2.240459e+01    1.106639e+00
  2.242047e+01    1.070161e+00
  2.243634e+01    1.071677e+00
  2.245222e+01    1.069363e+00
  2.246809e+01    1.041216e+00
  2.248397e+01    1.027484e+00
  2.249984e+01    1.036038e+00
  2.251572e+01    1.029352e+00
  2.253160e+01    1.004336e+00
  2.254747e+01    9.914001e-01
  2.256335e+01    9.805246e-01
  2.257922e+01    1.006285e+00
  2.259510e+01    9.939654e-01
  2.261097e+01    9.839166e-01
  2.262685e+01    9.792492e-01
  2.264272e+01    9.920146e-01
  2.265860e+01    9.854776e-01
  2.267448e+01    9.425653e-01
  2.269035e+01    9.327662e-01
  2.270623e+01    9.476482e-01
  2.272210e+01    9.524184e-01
  2.273798e+01    9.529635e-01
  2.275385e+01    9.310476e-01
  2.276973e+01    9.341946e-01
  2.278560e+01    9.468699e-01
  2.280148e+01    9.326975e-01
  2.281736e+01    9.289546e-01
  2.283323e+01    9.324564e-01
  2.284911e+01    9.467865e-01
  2.286498e+01    9.334320e-01
  2.288086e+01    9.140812e-01
  2.289673e+01    9.106094e-01
  2.291261e+01    9.239728e-01
  2.292848e+01    9.149808e-01
  2.294436e+01    9.133693e-01
  2.296024e+01    9.362360e-01
  2.297611e+01    9.281431e-01
  2.299199e+01    9.113924e-01
  2.300786e+01    9.178635e-01
  2.302374e+01    8.866911e-01
  2.303961e+01    8.873029e-01
  2.305549e+01    8.842111e-01
  2.307137e+01    8.697169e-01
  2.308724e+01    8.807167e-01
  2.310312e+01    8.874269e-01
  2.311899e+01    8.885979e-01
  2.313487e+01    8.750445e-01
  2.315074e+01    8.797752e-01
  2.316662e+01    8.857604e-01
  2.318249e+01    8.949665e-01
  2.319837e+01    8.677351e-01
  2.321425e+01    8.840760e-01
  2.323012e+01    8.696942e-01
  2.324600e+01    8.578092e-01
  2.326187e+01    8.664290e-01
  2.327775e+01    8.418199e-01
  2.329362e+01    8.565572e-01
  2.330950e+01    8.755811e-01
  2.332537e+01    8.401763e-01
  2.334125e+01    8.628720e-01
  2.335713e+01    8.678752e-01
  2.337300e+01    8.670218e-01
  2.338888e+01    8.637175e-01
  2.340475e+01    8.536525e-01
  2.342063e+01    8.376074e-01
  2.343650e+01    8.381751e-01
  2.345238e+01    8.560910e-01
  2.346825e+01    8.488408e-01
  2.348413e+01    8.338278e-01
  2.350001e+01    8.368825e-01
  2.351588e+01    8.567947e-01
  2.353176e+01    8.348607e-01
  2.354763e+01    8.301215e-01
  2.356351e+01    8.217109e-01
  2.357938e+01    8.190573e-01
  2.359526e+01    8.391207e-01
  2.361113e+01    8.623853e-01
  2.362701e+01    8.642840e-01
  2.364289e+01    8.456200e-01
  2.365876e+01    8.260642e-01
  2.367464e+01    8.147238e-01
  2.369051e+01    8.172545e-01
  2.370639e+01    8.068920e-01
  2.372226e+01    8.028098e-01
  2.373814e+01    8.098425e-01
  2.375401e+01    8.231539e-01
  2.376989e+01    8.166906e-01
  2.378577e+01    8.210494e-01
  2.380164e+01    8.291557e-01
  2.381752e+01    8.225636e-01
  2.383339e+01    8.118718e-01
  2.384927e+01    8.000005e-01
  2.386514e+01    7.885540e-01
  2.388102e+01    8.224590e-01
  2.389689e+01    8.234993e-01
  2.391277e+01    7.968809e-01
  2.392865e+01    7.868119e-01
  2.394452e+01    7.914968e-01
  2.396040e+01    8.072037e-01
  2.397627e+01    7.981935e-01
  2.399215e+01    7.941286e-01
  2.400802e+01    7.976470e-01
  2.402390e+01    7.904508e-01
  2.403978e+01    7.714865e-01
  2.405565e+01    7.645216e-01
  2.407153e+01    7.711327e-01
  2.408740e+01    7.829154e-01
  2.410328e+01    7.861220e-01
  2.411915e+01    7.913283e-01
  2.413503e+01    7.712818e-01
  2.415090e+01    7.953048e-01
  2.416678e+01    7.888213e-01
  2.418266e+01    7.797421e-01
  2.419853e+01    7.787578e-01
  2.421441e+01    7.816563e-01
  2.423028e+01    7.902879e-01
  2.424616e+01    7.848641e-01
  2.426203e+01    7.882371e-01
  2.427791e+01    7.725630e-01
  2.429378e+01    7.745193e-01
  2.430966e+01    7.765650e-01
  2.432554e+01    7.783876e-01
  2.434141e+01    7.829831e-01
  2.435729e+01    7.969212e-01
  2.437316e+01    7.895814e-01
  2.438904e+01    7.720572e-01
  2.440491e+01    7.698577e-01
  2.442079e+01    7.836159e-01
  2.443666e+01    8.003638e-01
  2.445254e+01    7.895438e-01
  2.446842e+01    7.797921e-01
  2.448429e+01    7.883690e-01
  2.450017e+01    8.029391e-01
  2.451604e+01    7.942843e-01
  2.453192e+01    7.850155e-01
  2.454779e+01    8.026395e-01
  2.456367e+01    7.824156e-01
  2.457954e+01    7.922786e-01
  2.459542e+01    7.779238e-01
  2.461130e+01    7.672242e-01
  2.462717e+01    7.972117e-01
  2.464305e+01    7.828391e-01
  2.465892e+01    7.659497e-01
  2.467480e+01    7.757470e-01
  2.469067e+01    7.905479e-01
  2.470655e+01    7.872917e-01
  2.472242e+01    7.965099e-01
  2.473830e+01    7.888705e-01
  2.475418e+01    7.712895e-01
  2.477005e+01    7.926509e-01
  2.478593e+01    7.922531e-01
  2.480180e+01    7.848377e-01
  2.481768e+01    7.889207e-01
  2.483355e+01    7.772523e-01
  2.484943e+01    7.738821e-01
  2.486530e+01    7.877820e-01
  2.488118e+01    7.841719e-01
  2.489706e+01    7.862160e-01
  2.491293e+01    7.766017e-01
  2.492881e+01    7.876492e-01
  2.494468e+01    7.941680e-01
  2.496056e+01    8.084860e-01
  2.497643e+01    8.167701e-01
  2.499231e+01    8.166763e-01
  2.500819e+01    8.095159e-01
  2.502406e+01    8.073514e-01
  2.503994e+01    8.027191e-01
  2.505581e+01    8.112734e-01
  2.507169e+01    7.903572e-01
  2.508756e+01    8.046047e-01
  2.510344e+01    8.151605e-01
  2.511931e+01    8.057573e-01
  2.513519e+01    8.176951e-01
  2.515107e+01    8.367571e-01
  2.516694e+01    8.397175e-01
  2.518282e+01    8.328902e-01
  2.519869e+01    8.356273e-01
  2.521457e+01    8.408112e-01
  2.523044e+01    8.396166e-01
  2.524632e+01    8.401110e-01
  2.526219e+01    8.433283e-01
  2.527807e+01    8.473318e-01
  2.529395e+01    8.567632e-01
  2.530982e+01    8.480042e-01
  2.532570e+01    8.855654e-01
  2.534157e+01    8.906916e-01
  2.535745e+01    8.595433e-01
  2.537332e+01    8.692207e-01
  2.538920e+01    8.820882e-01
  2.540507e+01    9.135633e-01
  2.542095e+01    9.150532e-01
  2.543683e+01    9.277390e-01
  2.545270e+01    9.333107e-01
  2.546858e+01    9.335691e-01
  2.548445e+01    9.458442e-01
  2.550033e+01    9.731066e-01
  2.551620e+01    9.979146e-01
  2.553208e+01    1.020522e+00
  2.554795e+01    1.012341e+00
  2.556383e+01    1.038489e+00
  2.557971e+01    1.070526e+00
  2.559558e+01    1.091326e+00
  2.561146e+01    1.112943e+00
  2.562733e+01    1.141813e+00
  2.564321e+01    1.192833e+00
  2.565908e+01    1.263519e+00
  2.567496e+01    1.281418e+00
  2.569083e+01    1.395498e+00
  2.570671e+01    1.451514e+00
  2.572259e+01    1.546469e+00
  2.573846e+01    1.670242e+00
  2.575434e+01    1.802761e+00
  2.577021e+01    1.969675e+00
  2.578609e+01    2.180223e+00
  2.580196e+01    2.441417e+00
  2.581784e+01    2.784932e+00
  2.583371e+01    3.217387e+00
  2.584959e+01    3.654605e+00
  2.586547e+01    4.179018e+00
  2.588134e+01    4.789576e+00
  2.589722e+01    5.439697e+00
  2.591309e+01    6.211848e+00
  2.592897e+01    6.818434e+00
  2.594484e+01    7.377007e+00
  2.596072e+01    7.882062e+00
  2.597660e+01    8.114203e+00
  2.599247e+01    8.059881e+00
  2.600835e+01    7.696680e+00
  2.602422e+01    7.041481e+00
  2.604010e+01    6.263210e+00
  2.605597e+01    5.382145e+00
  2.607185e+01    4.583910e+00
  2.608772e+01    3.901046e+00
  2.610360e+01    3.345200e+00
  2.611948e+01    2.886268e+00
  2.613535e+01    2.583547e+00
  2.615123e+01    2.297265e+00
  2.616710e+01    2.084530e+00
  2.618298e+01    1.905057e+00
  2.619885e+01    1.732855e+00
  2.621473e+01    1.602134e+00
  2.623060e+01    1.501516e+00
  2.624648e+01    1.407258e+00
  2.626236e+01    1.330372e+00
  2.627823e+01    1.270937e+00
  2.629411e+01    1.228895e+00
  2.630998e+01    1.189666e+00
  2.632586e+01    1.142414e+00
  2.634173e+01    1.123213e+00
  2.635761e+01    1.091281e+00
  2.637348e+01    1.052478e+00
  2.638936e+01    1.036669e+00
  2.640524e+01    1.004650e+00
  2.642111e+01    9.879672e-01
  2.643699e+01    9.974658e-01
  2.645286e+01    9.736866e-01
  2.646874e+01    9.632697e-01
  2.648461e+01    9.759133e-01
  2.650049e+01    9.612775e-01
  2.651636e+01    9.365318e-01
  2.653224e+01    9.237162e-01
  2.654812e+01    9.068328e-01
  2.656399e+01    9.272818e-01
  2.657987e+01    9.154848e-01
  2.659574e+01    8.951012e-01
  2.661162e+01    8.840294e-01
  2.662749e+01    8.882373e-01
  2.664337e+01    9.026397e-01
  2.665924e+01    8.986622e-01
  2.667512e+01    9.329754e-01
  2.669100e+01    8.972389e-01
  2.670687e+01    9.028635e-01
  2.672275e+01    9.223785e-01
  2.673862e+01    8.855626e-01
  2.675450e+01    8.975428e-01
  2.677037e+01    9.018990e-01
  2.678625e+01    8.822736e-01
  2.680212e+01    8.976133e-01
  2.681800e+01    9.166173e-01
  2.683388e+01    9.036039e-01
  2.684975e+01    8.854347e-01
  2.686563e+01    8.944764e-01
  2.688150e+01    8.933254e-01
  2.689738e+01    9.186954e-01
  2.691325e+01    9.207154e-01
  2.692913e+01    9.377560e-01
  2.694501e+01    9.753202e-01
  2.696088e+01    9.706217e-01
  2.697676e+01    9.828704e-01
  2.699263e+01    1.002235e+00
  2.700851e+01    1.006586e+00
  2.702438e+01    1.052235e+00
  2.704026e+01    1.105662e+00
  2.705613e+01    1.147638e+00
  2.707201e+01    1.177886e+00
  2.708789e+01    1.236862e+00
  2.710376e+01    1.351060e+00
  2.711964e+01    1.437653e+00
  2.713551e+01    1.558720e+00
  2.715139e+01    1.744245e+00
  2.716726e+01    1.870859e+00
  2.718314e+01    2.024862e+00
  2.719901e+01    2.152991e+00
  2.721489e+01    2.281534e+00
  2.723077e+01    2.348206e+00
  2.724664e+01    2.361730e+00
  2.726252e+01    2.307407e+00
  2.727839e+01    2.214197e+00
  2.729427e+01    2.057435e+00
  2.731014e+01    1.884281e+00
  2.732602e+01    1.682316e+00
  2.734189e+01    1.535080e+00
  2.735777e+01    1.418680e+00
  2.737365e+01    1.328425e+00
  2.738952e+01    1.223846e+00
  2.740540e+01    1.128488e+00
  2.742127e+01    1.104607e+00
  2.743715e+01    1.087682e+00
  2.745302e+01    1.031354e+00
  2.746890e+01    1.002949e+00
  2.748477e+01    9.777605e-01
  2.750065e+01    9.326645e-01
  2.751653e+01    9.014092e-01
  2.753240e+01    8.924174e-01
  2.754828e+01    8.884066e-01
  2.756415e+01    8.930244e-01
  2.758003e+01    8.755288e-01
  2.759590e+01    8.677311e-01
  2.761178e+01    8.687550e-01
  2.762765e+01    8.371905e-01
  2.764353e+01    8.198419e-01
  2.765941e+01    8.308470e-01
  2.767528e+01    8.406307e-01
  2.769116e+01    8.283507e-01
  2.770703e+01    8.355146e-01
  2.772291e+01    8.321158e-01
  2.773878e+01    8.245562e-01
  2.775466e+01    8.237126e-01
  2.777054e+01    8.361660e-01
  2.778641e+01    8.198620e-01
  2.780229e+01    7.934959e-01
  2.781816e+01    8.014442e-01
  2.783404e+01    8.091439e-01
  2.784991e+01    7.843219e-01
  2.786579e+01    7.862380e-01
  2.788166e+01    8.034226e-01
  2.789754e+01    7.949924e-01
  2.791342e+01    8.000795e-01
  2.792929e+01    8.135015e-01
  2.794517e+01    7.967696e-01
  2.796104e+01    7.863677e-01
  2.797692e+01    7.810087e-01
  2.799279e+01    7.938650e-01
  2.800867e+01    7.962849e-01
  2.802454e+01    7.849018e-01
  2.804042e+01    7.727222e-01
  2.805630e+01    7.724378e-01
  2.807217e+01    7.711477e-01
  2.808805e+01    7.741318e-01
  2.810392e+01    7.845186e-01
  2.811980e+01    8.004954e-01
  2.813567e+01    7.808557e-01
  2.815155e+01    7.747975e-01
  2.816742e+01    7.703862e-01
  2.818330e+01    7.668875e-01
  2.819918e+01    7.619888e-01
  2.821505e+01    7.812580e-01
  2.823093e+01    7.829892e-01
  2.824680e+01    7.706383e-01
  2.826268e+01    7.816428e-01
  2.827855e+01    7.670150e-01
  2.829443e+01    7.688776e-01
  2.831030e+01    7.683154e-01
  2.832618e+01    7.784662e-01
  2.834206e+01    7.751730e-01
  2.835793e+01    7.699836e-01
  2.837381e+01    7.565888e-01
  2.838968e+01    7.723694e-01
  2.840556e+01    7.649820e-01
  2.842143e+01    7.617312e-01
  2.843731e+01    7.851077e-01
  2.845318e+01    7.683744e-01
  2.846906e+01    7.649809e-01
  2.848494e+01    7.502307e-01
  2.850081e+01    7.497694e-01
  2.851669e+01    7.615746e-01
  2.853256e+01    7.435184e-01
  2.854844e+01    7.478984e-01
  2.856431e+01    7.431953e-01
  2.858019e+01    7.497803e-01
  2.859606e+01    7.436559e-01
  2.861194e+01    7.665543e-01
  2.862782e+01    7.791741e-01
  2.864369e+01    7.797781e-01
  2.865957e+01    7.517496e-01
  2.867544e+01    7.305881e-01
  2.869132e+01    7.521130e-01
  2.870719e+01    7.519156e-01
  2.872307e+01    7.477757e-01
  2.873895e+01    7.605889e-01
  2.875482e+01    7.739562e-01
  2.877070e+01    7.386224e-01
  2.878657e+01    7.326475e-01
  2.880245e+01    7.504601e-01
  2.881832e+01    7.608353e-01
  2.883420e+01    7.508374e-01
  2.885007e+01    7.327066e-01
  2.886595e+01    7.485827e-01
  2.888183e+01    7.311751e-01
  2.889770e+01    7.445652e-01
  2.891358e+01    7.369032e-01
  2.892945e+01    7.429960e-01
  2.894533e+01    7.358031e-01
  2.896120e+01    7.415748e-01
  2.897708e+01    7.199405e-01
  2.899295e+01    7.374318e-01
  2.900883e+01    7.381974e-01
  2.902471e+01    7.366226e-01
  2.904058e+01    7.468898e-01
  2.905646e+01    7.397642e-01
  2.907233e+01    7.477964e-01
  2.908821e+01    7.328533e-01
  2.910408e+01    7.290975e-01
  2.911996e+01    7.552302e-01
  2.913583e+01    7.330780e-01
  2.915171e+01    7.221230e-01
  2.916759e+01    7.539355e-01
  2.918346e+01    7.143154e-01
  2.919934e+01    7.262294e-01
  2.921521e+01    7.350647e-01
  2.923109e+01    7.393904e-01
  2.924696e+01    7.218673e-01
  2.926284e+01    7.265744e-01
  2.927871e+01    7.419198e-01
  2.929459e+01    7.323765e-01
  2.931047e+01    7.244319e-01
  2.932634e+01    7.258634e-01
  2.934222e+01    7.407377e-01
  2.935809e+01    7.413979e-01
  2.937397e+01    7.501048e-01
  2.938984e+01    7.318938e-01
  2.940572e+01    7.308953e-01
  2.942159e+01    7.350529e-01
  2.943747e+01    7.092272e-01
  2.945335e+01    7.175005e-01
  2.946922e+01    7.146726e-01
  2.948510e+01    7.165298e-01
  2.950097e+01    7.169008e-01
  2.951685e+01    7.058047e-01
  2.953272e+01    7.245435e-01
  2.954860e+01    7.071636e-01
  2.956447e+01    7.161822e-01
  2.958035e+01    7.298145e-01
  2.959623e+01    7.181186e-01
  2.961210e+01    7.034050e-01
  2.962798e+01    7.233530e-01
  2.964385e+01    7.357067e-01
  2.965973e+01    7.253895e-01
  2.967560e+01    7.381296e-01
  2.969148e+01    7.295786e-01
  2.970736e+01    7.083080e-01
  2.972323e+01    7.269368e-01
  2.973911e+01    7.338240e-01
  2.975498e+01    7.069224e-01
  2.977086e+01    7.196250e-01
  2.978673e+01    7.297245e-01
  2.980261e+01    7.187339e-01
  2.981848e+01    7.140201e-01
  2.983436e+01    7.214555e-01
  2.985024e+01    7.267345e-01
  2.986611e+01    7.220477e-01
  2.988199e+01    7.237759e-01
  2.989786e+01    7.118135e-01
  2.991374e+01    7.063079e-01
  2.992961e+01    7.104191e-01
  2.994549e+01    7.126088e-01
  2.996136e+01    7.079102e-01
  2.997724e+01    7.275540e-01
  2.999312e+01    7.340567e-01
  3.000899e+01    7.145908e-01
  3.002487e+01    7.327884e-01
  3.004074e+01    7.401283e-01
  3.005662e+01    7.231362e-01
  3.007249e+01    7.274760e-01
  3.008837e+01    7.437537e-01
  3.010424e+01    7.309152e-01
  3.012012e+01    7.231371e-01
  3.013600e+01    7.161435e-01
  3.015187e+01    6.943615e-01
  3.016775e+01    7.031723e-01
  3.018362e+01    7.132742e-01
  3.019950e+01    7.097414e-01
  3.021537e+01    7.030854e-01
  3.023125e+01    6.946777e-01
  3.024712e+01    7.224463e-01
  3.026300e+01    7.264409e-01
  3.027888e+01    7.088474e-01
  3.029475e+01    7.221274e-01
  3.031063e+01    7.365312e-01
  3.032650e+01    7.051271e-01
  3.034238e+01    6.960980e-01
  3.035825e+01    6.930845e-01
  3.037413e+01    7.064167e-01
  3.039000e+01    7.104809e-01
  3.040588e+01    7.032700e-01
  3.042176e+01    6.927703e-01
  3.043763e+01    7.097493e-01
  3.045351e+01    6.963339e-01
  3.046938e+01    7.008886e-01
  3.048526e+01    7.079010e-01
  3.050113e+01    7.058729e-01
  3.051701e+01    6.972306e-01
  3.053288e+01    7.131350e-01
  3.054876e+01    7.145669e-01
  3.056464e+01    7.142885e-01
  3.058051e+01    6.971915e-01
  3.059639e+01    7.129480e-01
  3.061226e+01    7.172505e-01
  3.062814e+01    7.164468e-01
  3.064401e+01    7.090919e-01
  3.065989e+01    7.023260e-01
  3.067577e+01    7.147555e-01
  3.069164e+01    6.996538e-01
  3.070752e+01    6.992288e-01
  3.072339e+01    7.075636e-01
  3.073927e+01    6.889529e-01
  3.075514e+01    7.200983e-01
  3.077102e+01    7.225146e-01
  3.078689e+01    7.199591e-01
  3.080277e+01    7.190844e-01
  3.081865e+01    7.041123e-01
  3.083452e+01    7.100689e-01
  3.085040e+01    7.278064e-01
  3.086627e+01    7.152931e-01
  3.088215e+01    7.132708e-01
  3.089802e+01    7.019358e-01
  3.091390e+01    6.985804e-01
  3.092977e+01    7.163092e-01
  3.094565e+01    7.291604e-01
  3.096153e+01    7.041696e-01
  3.097740e+01    7.151629e-01
  3.099328e+01    7.325327e-01
  3.100915e+01    7.166293e-01
  3.102503e+01    7.224849e-01
  3.104090e+01    7.288031e-01
  3.105678e+01    7.201802e-01
  3.107265e+01    7.216188e-01
  3.108853e+01    7.136841e-01
  3.110441e+01    7.238448e-01
  3.112028e+01    7.312601e-01
  3.113616e+01    7.140880e-01
  3.115203e+01    7.234626e-01
  3.116791e+01    7.095850e-01
  3.118378e+01    7.318905e-01
  3.119966e+01    7.431365e-01
  3.121553e+01    7.226417e-01
  3.123141e+01    7.170389e-01
  3.124729e+01    7.245574e-01
  3.126316e+01    7.219250e-01
  3.127904e+01    7.291191e-01
  3.129491e+01    7.256893e-01
  3.131079e+01    7.355121e-01
  3.132666e+01    7.218382e-01
  3.134254e+01    7.253273e-01
  3.135841e+01    7.170117e-01
  3.137429e+01    7.280710e-01
  3.139017e+01    7.350723e-01
  3.140604e+01    7.400672e-01
  3.142192e+01    7.277446e-01
  3.143779e+01    7.379148e-01
  3.145367e+01    7.555798e-01
  3.146954e+01    7.619450e-01
  3.148542e+01    7.580894e-01
  3.150129e+01    7.613121e-01
  3.151717e+01    7.648973e-01
  3.153305e+01    7.433630e-01
  3.154892e+01    7.738776e-01
  3.156480e+01    7.773921e-01
  3.158067e+01    7.997193e-01
  3.159655e+01    8.069357e-01
  3.161242e+01    8.212264e-01
  3.162830e+01    8.289441e-01
  3.164418e+01    8.315705e-01
  3.166005e+01    8.825118e-01
  3.167593e+01    9.006462e-01
  3.169180e+01    9.102020e-01
  3.170768e+01    9.358604e-01
  3.172355e+01    9.694399e-01
  3.173943e+01    1.019889e+00
  3.175530e+01    1.066125e+00
  3.177118e+01    1.138208e+00
  3.178706e+01    1.217336e+00
  3.180293e+01    1.335258e+00
  3.181881e+01    1.419624e+00
  3.183468e+01    1.562376e+00
  3.185056e+01    1.716986e+00
  3.186643e+01    1.879934e+00
  3.188231e+01    2.040636e+00
  3.189818e+01    2.195538e+00
  3.191406e+01    2.306616e+00
  3.192994e+01    2.356449e+00
  3.194581e+01    2.375804e+00
  3.196169e+01    2.250386e+00
  3.197756e+01    2.100954e+00
  3.199344e+01    1.924176e+00
  3.200931e+01    1.788229e+00
  3.202519e+01    1.619292e+00
  3.204106e+01    1.441465e+00
  3.205694e+01    1.358693e+00
  3.207282e+01    1.220757e+00
  3.208869e+01    1.127992e+00
  3.210457e+01    1.051834e+00
  3.212044e+01    1.021413e+00
  3.213632e+01    9.701456e-01
  3.215219e+01    9.188441e-01
  3.216807e+01    8.818098e-01
  3.218394e+01    8.481194e-01
  3.219982e+01    8.404323e-01
  3.221570e+01    8.309186e-01
  3.223157e+01    8.204297e-01
  3.224745e+01    7.851410e-01
  3.226332e+01    7.645110e-01
  3.227920e+01    7.798421e-01
  3.229507e+01    7.900354e-01
  3.231095e+01    7.663862e-01
  3.232682e+01    7.599965e-01
  3.234270e+01    7.620443e-01
  3.235858e+01    7.326735e-01
  3.237445e+01    7.430831e-01
  3.239033e+01    7.498109e-01
  3.240620e+01    7.299819e-01
  3.242208e+01    7.431218e-01
  3.243795e+01    7.243034e-01
  3.245383e+01    7.373468e-01
  3.246970e+01    7.036296e-01
  3.248558e+01    7.114515e-01
  3.250146e+01    6.927667e-01
  3.251733e+01    6.963640e-01
  3.253321e+01    7.189458e-01
  3.254908e+01    7.233160e-01
