# == pyFAI calibration ==
# Distance Sample to Detector: 0.3999999939076516 m
# PONI: 9.750e-02, 1.135e-01 m
# Rotations: -0.000175 0.000000 -0.000000 rad
# 
# == Fit2d calibration ==
# Distance Sample-beamCenter: 400.000 mm
# Center: x=1514.000, y=1300.000 pix
# Tilt: 0.010 deg  TiltPlanRot: 0.010 deg
# 
# Detector Detector	 Spline= None	 PixelSize= 7.500e-05, 7.500e-05 m
#    Detector has a mask: False 
#    Detector has a dark current: False 
#    detector has a flat field: False 
# 
# Wavelength: 6.888e-11 m
# Mask applied: user provided
# Dark current applied: False
# Flat field applied: False
# Polarization factor: 0.99
# Normalization factor: 1.0
# --> /home/myspot/data/2024_07_Rosario/Ru-CGO-ex/2024-07-27_002_Ru-CGO-ex_Activtation_ramp_000002_data_000114.dat
#       q_nm^-1             I 
  2.003187e-02    2.195909e-01
  3.590745e-02    6.421112e-02
  5.178302e-02    7.388126e-02
  6.765859e-02    1.458778e-01
  8.353417e-02    2.995875e-02
  9.940974e-02    1.569103e-02
  1.152853e-01    4.591928e-02
  1.311609e-01    9.779201e-02
  1.470365e-01    8.626983e-02
  1.629120e-01    2.367618e-02
  1.787876e-01    3.108660e-02
  1.946632e-01    3.249910e-02
  2.105388e-01    1.369764e-02
  2.264143e-01    0.000000e+00
  2.422899e-01    1.402389e-02
  2.581655e-01    7.116198e-02
  2.740411e-01    4.619609e-02
  2.899166e-01    2.862174e-02
  3.057922e-01    3.462438e-02
  3.216678e-01    6.014970e-02
  3.375433e-01    6.793576e-02
  3.534189e-01    2.301210e-02
  3.692945e-01    3.708297e-04
  3.851701e-01    1.952843e-02
  4.010456e-01    4.267870e-02
  4.169212e-01    2.308687e-02
  4.327968e-01    3.084704e-02
  4.486724e-01    5.142395e-02
  4.645479e-01    5.420608e-02
  4.804235e-01    4.082367e-02
  4.962991e-01    4.147929e-02
  5.121747e-01    4.342225e-02
  5.280502e-01    1.980691e-02
  5.439258e-01    1.511104e-02
  5.598014e-01    4.690860e-02
  5.756770e-01    5.299187e-02
  5.915525e-01    3.572107e-02
  6.074281e-01    5.257333e-02
  6.233037e-01    6.235314e-02
  6.391793e-01    4.497853e-02
  6.550548e-01    5.868443e-02
  6.709304e-01    6.738214e-02
  6.868060e-01    3.593352e-02
  7.026815e-01    2.495630e-02
  7.185571e-01    2.552427e-02
  7.344327e-01    2.671028e-02
  7.503083e-01    5.889273e-02
  7.661838e-01    6.454434e-02
  7.820594e-01    9.970365e-02
  7.979350e-01    1.454208e-01
  8.138106e-01    1.863680e-01
  8.296861e-01    2.264417e-01
  8.455617e-01    2.494760e-01
  8.614373e-01    3.533010e-01
  8.773129e-01    4.146714e-01
  8.931884e-01    4.736440e-01
  9.090640e-01    5.800999e-01
  9.249396e-01    6.156014e-01
  9.408152e-01    7.051419e-01
  9.566907e-01    7.810979e-01
  9.725663e-01    1.017231e+00
  9.884419e-01    1.080591e+00
  1.004317e+00    1.147733e+00
  1.020193e+00    1.092812e+00
  1.036069e+00    1.107299e+00
  1.051944e+00    1.191409e+00
  1.067820e+00    1.313118e+00
  1.083695e+00    1.324662e+00
  1.099571e+00    1.367826e+00
  1.115446e+00    1.410138e+00
  1.131322e+00    1.471896e+00
  1.147198e+00    1.421087e+00
  1.163073e+00    1.439188e+00
  1.178949e+00    1.371487e+00
  1.194824e+00    1.689517e+00
  1.210700e+00    1.939730e+00
  1.226575e+00    2.180082e+00
  1.242451e+00    2.204573e+00
  1.258327e+00    2.341027e+00
  1.274202e+00    2.480923e+00
  1.290078e+00    2.454641e+00
  1.305953e+00    2.422835e+00
  1.321829e+00    2.425353e+00
  1.337705e+00    2.496465e+00
  1.353580e+00    2.599477e+00
  1.369456e+00    2.605866e+00
  1.385331e+00    2.580503e+00
  1.401207e+00    2.585799e+00
  1.417082e+00    2.470279e+00
  1.432958e+00    2.421244e+00
  1.448834e+00    2.617627e+00
  1.464709e+00    2.781246e+00
  1.480585e+00    2.812286e+00
  1.496460e+00    2.887890e+00
  1.512336e+00    2.950865e+00
  1.528211e+00    2.865535e+00
  1.544087e+00    2.884411e+00
  1.559963e+00    2.896988e+00
  1.575838e+00    2.892605e+00
  1.591714e+00    2.810824e+00
  1.607589e+00    2.848907e+00
  1.623465e+00    2.888398e+00
  1.639340e+00    2.901893e+00
  1.655216e+00    2.816847e+00
  1.671092e+00    2.806041e+00
  1.686967e+00    2.781385e+00
  1.702843e+00    2.780829e+00
  1.718718e+00    2.797829e+00
  1.734594e+00    2.784767e+00
  1.750469e+00    2.805960e+00
  1.766345e+00    2.881033e+00
  1.782221e+00    2.873546e+00
  1.798096e+00    2.799068e+00
  1.813972e+00    2.703594e+00
  1.829847e+00    2.590540e+00
  1.845723e+00    2.571142e+00
  1.861598e+00    2.794594e+00
  1.877474e+00    2.694309e+00
  1.893350e+00    2.730995e+00
  1.909225e+00    2.809496e+00
  1.925101e+00    2.756483e+00
  1.940976e+00    2.680888e+00
  1.956852e+00    2.682838e+00
  1.972727e+00    2.684696e+00
  1.988603e+00    2.710232e+00
  2.004479e+00    2.653261e+00
  2.020354e+00    2.670232e+00
  2.036230e+00    2.734289e+00
  2.052105e+00    2.674849e+00
  2.067981e+00    2.689360e+00
  2.083856e+00    2.589424e+00
  2.099732e+00    2.593914e+00
  2.115608e+00    2.723073e+00
  2.131483e+00    2.804104e+00
  2.147359e+00    2.711962e+00
  2.163234e+00    2.732930e+00
  2.179110e+00    2.785625e+00
  2.194985e+00    2.794486e+00
  2.210861e+00    2.766057e+00
  2.226737e+00    2.710319e+00
  2.242612e+00    2.674894e+00
  2.258488e+00    2.662960e+00
  2.274363e+00    2.717110e+00
  2.290239e+00    2.697972e+00
  2.306115e+00    2.751936e+00
  2.321990e+00    2.727163e+00
  2.337866e+00    2.723927e+00
  2.353741e+00    2.708048e+00
  2.369617e+00    2.756008e+00
  2.385492e+00    2.631927e+00
  2.401368e+00    2.691845e+00
  2.417244e+00    2.745497e+00
  2.433119e+00    2.762233e+00
  2.448995e+00    2.731073e+00
  2.464870e+00    2.684556e+00
  2.480746e+00    2.692711e+00
  2.496621e+00    2.714193e+00
  2.512497e+00    2.677465e+00
  2.528373e+00    2.674371e+00
  2.544248e+00    2.734646e+00
  2.560124e+00    2.806836e+00
  2.575999e+00    2.794815e+00
  2.591875e+00    2.774684e+00
  2.607750e+00    2.788156e+00
  2.623626e+00    2.756813e+00
  2.639502e+00    2.716132e+00
  2.655377e+00    2.779408e+00
  2.671253e+00    2.825646e+00
  2.687128e+00    2.736181e+00
  2.703004e+00    2.793372e+00
  2.718879e+00    2.723234e+00
  2.734755e+00    2.760427e+00
  2.750631e+00    2.753547e+00
  2.766506e+00    2.769865e+00
  2.782382e+00    2.784221e+00
  2.798257e+00    2.753646e+00
  2.814133e+00    2.707628e+00
  2.830008e+00    2.779775e+00
  2.845884e+00    2.713289e+00
  2.861760e+00    2.776359e+00
  2.877635e+00    2.814473e+00
  2.893511e+00    2.765040e+00
  2.909386e+00    2.786700e+00
  2.925262e+00    2.853991e+00
  2.941137e+00    2.858057e+00
  2.957013e+00    2.894540e+00
  2.972889e+00    2.871009e+00
  2.988764e+00    2.877538e+00
  3.004640e+00    2.835646e+00
  3.020515e+00    2.702207e+00
  3.036391e+00    2.736120e+00
  3.052266e+00    2.747972e+00
  3.068142e+00    2.794230e+00
  3.084018e+00    2.784667e+00
  3.099893e+00    2.813419e+00
  3.115769e+00    2.833351e+00
  3.131644e+00    2.893383e+00
  3.147520e+00    2.802108e+00
  3.163395e+00    2.789391e+00
  3.179271e+00    2.848026e+00
  3.195147e+00    2.903448e+00
  3.211022e+00    2.854549e+00
  3.226898e+00    2.869414e+00
  3.242773e+00    2.972349e+00
  3.258649e+00    2.908945e+00
  3.274525e+00    2.812376e+00
  3.290400e+00    2.916752e+00
  3.306276e+00    2.916960e+00
  3.322151e+00    2.911058e+00
  3.338027e+00    2.901845e+00
  3.353902e+00    2.857965e+00
  3.369778e+00    2.862503e+00
  3.385654e+00    2.831266e+00
  3.401529e+00    2.815844e+00
  3.417405e+00    2.951710e+00
  3.433280e+00    2.854477e+00
  3.449156e+00    2.941613e+00
  3.465031e+00    2.882195e+00
  3.480907e+00    2.872819e+00
  3.496783e+00    2.860045e+00
  3.512658e+00    2.890521e+00
  3.528534e+00    2.882778e+00
  3.544409e+00    2.896105e+00
  3.560285e+00    2.952784e+00
  3.576160e+00    2.948207e+00
  3.592036e+00    2.811943e+00
  3.607912e+00    2.911189e+00
  3.623787e+00    2.930187e+00
  3.639663e+00    2.920008e+00
  3.655538e+00    2.876806e+00
  3.671414e+00    2.899606e+00
  3.687289e+00    2.955533e+00
  3.703165e+00    2.961729e+00
  3.719041e+00    2.901931e+00
  3.734916e+00    2.966076e+00
  3.750792e+00    2.871919e+00
  3.766667e+00    2.882237e+00
  3.782543e+00    2.943947e+00
  3.798418e+00    2.915216e+00
  3.814294e+00    2.964095e+00
  3.830170e+00    2.972965e+00
  3.846045e+00    2.929509e+00
  3.861921e+00    3.003530e+00
  3.877796e+00    2.918838e+00
  3.893672e+00    2.968236e+00
  3.909547e+00    2.896605e+00
  3.925423e+00    2.823875e+00
  3.941299e+00    2.952859e+00
  3.957174e+00    3.065207e+00
  3.973050e+00    2.932903e+00
  3.988925e+00    2.934119e+00
  4.004801e+00    2.968429e+00
  4.020676e+00    3.014413e+00
  4.036552e+00    2.959545e+00
  4.052428e+00    2.963659e+00
  4.068303e+00    2.976954e+00
  4.084179e+00    2.986972e+00
  4.100054e+00    2.947219e+00
  4.115930e+00    2.960035e+00
  4.131806e+00    3.000445e+00
  4.147681e+00    2.931959e+00
  4.163557e+00    2.925692e+00
  4.179432e+00    2.937115e+00
  4.195308e+00    3.018610e+00
  4.211183e+00    2.989763e+00
  4.227059e+00    3.064146e+00
  4.242935e+00    3.049661e+00
  4.258810e+00    2.998797e+00
  4.274686e+00    3.009399e+00
  4.290561e+00    3.071314e+00
  4.306437e+00    3.074036e+00
  4.322312e+00    3.028681e+00
  4.338188e+00    3.004661e+00
  4.354064e+00    2.987293e+00
  4.369939e+00    2.965165e+00
  4.385815e+00    2.930609e+00
  4.401690e+00    2.934757e+00
  4.417566e+00    2.971647e+00
  4.433441e+00    3.060706e+00
  4.449317e+00    3.010199e+00
  4.465193e+00    3.013441e+00
  4.481068e+00    3.043848e+00
  4.496944e+00    2.985885e+00
  4.512819e+00    2.992898e+00
  4.528695e+00    3.030602e+00
  4.544570e+00    3.032836e+00
  4.560446e+00    2.994889e+00
  4.576322e+00    3.015696e+00
  4.592197e+00    3.038881e+00
  4.608073e+00    3.022390e+00
  4.623948e+00    2.931909e+00
  4.639824e+00    2.914222e+00
  4.655699e+00    3.014533e+00
  4.671575e+00    3.004122e+00
  4.687451e+00    3.079031e+00
  4.703326e+00    3.006767e+00
  4.719202e+00    3.062299e+00
  4.735077e+00    3.243651e+00
  4.750953e+00    3.136576e+00
  4.766828e+00    2.972644e+00
  4.782704e+00    2.999686e+00
  4.798580e+00    3.080483e+00
  4.814455e+00    3.108733e+00
  4.830331e+00    3.031558e+00
  4.846206e+00    3.051993e+00
  4.862082e+00    3.049182e+00
  4.877957e+00    3.061244e+00
  4.893833e+00    3.070172e+00
  4.909709e+00    3.105454e+00
  4.925584e+00    3.093118e+00
  4.941460e+00    3.103402e+00
  4.957335e+00    3.081941e+00
  4.973211e+00    2.993441e+00
  4.989086e+00    3.011760e+00
  5.004962e+00    3.062794e+00
  5.020838e+00    3.046484e+00
  5.036713e+00    3.102318e+00
  5.052589e+00    3.118860e+00
  5.068464e+00    3.136807e+00
  5.084340e+00    3.074170e+00
  5.100216e+00    3.095594e+00
  5.116091e+00    3.135341e+00
  5.131967e+00    3.133387e+00
  5.147842e+00    3.194798e+00
  5.163718e+00    3.085315e+00
  5.179593e+00    2.993926e+00
  5.195469e+00    3.004476e+00
  5.211345e+00    3.071912e+00
  5.227220e+00    3.060458e+00
  5.243096e+00    3.020373e+00
  5.258971e+00    3.048833e+00
  5.274847e+00    3.070526e+00
  5.290722e+00    3.015916e+00
  5.306598e+00    2.945854e+00
  5.322474e+00    3.079106e+00
  5.338349e+00    3.144130e+00
  5.354225e+00    3.096714e+00
  5.370100e+00    3.088075e+00
  5.385976e+00    3.078694e+00
  5.401851e+00    3.062644e+00
  5.417727e+00    3.123925e+00
  5.433603e+00    3.026543e+00
  5.449478e+00    2.934301e+00
  5.465354e+00    3.005162e+00
  5.481229e+00    2.987017e+00
  5.497105e+00    2.955403e+00
  5.512980e+00    3.020624e+00
  5.528856e+00    2.987763e+00
  5.544732e+00    3.042351e+00
  5.560607e+00    3.031905e+00
  5.576483e+00    2.980805e+00
  5.592358e+00    3.048552e+00
  5.608234e+00    3.075734e+00
  5.624109e+00    2.979401e+00
  5.639985e+00    3.007091e+00
  5.655861e+00    3.073296e+00
  5.671736e+00    3.123275e+00
  5.687612e+00    3.070554e+00
  5.703487e+00    2.981454e+00
  5.719363e+00    3.110117e+00
  5.735238e+00    3.117714e+00
  5.751114e+00    3.014708e+00
  5.766990e+00    2.976100e+00
  5.782865e+00    3.000496e+00
  5.798741e+00    2.889402e+00
  5.814616e+00    2.940019e+00
  5.830492e+00    2.970446e+00
  5.846367e+00    2.988290e+00
  5.862243e+00    2.954362e+00
  5.878119e+00    2.978245e+00
  5.893994e+00    2.933956e+00
  5.909870e+00    2.920076e+00
  5.925745e+00    2.964799e+00
  5.941621e+00    2.996982e+00
  5.957497e+00    3.026680e+00
  5.973372e+00    2.950679e+00
  5.989248e+00    2.958074e+00
  6.005123e+00    2.953937e+00
  6.020999e+00    2.916258e+00
  6.036874e+00    2.974261e+00
  6.052750e+00    3.014907e+00
  6.068626e+00    2.941077e+00
  6.084501e+00    2.963654e+00
  6.100377e+00    3.037716e+00
  6.116252e+00    3.011581e+00
  6.132128e+00    3.050727e+00
  6.148003e+00    3.017364e+00
  6.163879e+00    2.983856e+00
  6.179755e+00    3.037874e+00
  6.195630e+00    2.989295e+00
  6.211506e+00    2.931013e+00
  6.227381e+00    2.950285e+00
  6.243257e+00    2.993667e+00
  6.259132e+00    3.066129e+00
  6.275008e+00    2.996793e+00
  6.290884e+00    2.986041e+00
  6.306759e+00    2.977889e+00
  6.322635e+00    3.010913e+00
  6.338510e+00    2.971158e+00
  6.354386e+00    3.038218e+00
  6.370261e+00    3.061674e+00
  6.386137e+00    3.051719e+00
  6.402013e+00    2.953895e+00
  6.417888e+00    2.954085e+00
  6.433764e+00    3.076610e+00
  6.449639e+00    3.137136e+00
  6.465515e+00    3.016078e+00
  6.481390e+00    2.999066e+00
  6.497266e+00    3.012825e+00
  6.513142e+00    3.023273e+00
  6.529017e+00    2.977657e+00
  6.544893e+00    2.971678e+00
  6.560768e+00    2.978529e+00
  6.576644e+00    2.994380e+00
  6.592519e+00    2.972521e+00
  6.608395e+00    2.900213e+00
  6.624271e+00    2.888224e+00
  6.640146e+00    2.896267e+00
  6.656022e+00    2.995823e+00
  6.671897e+00    3.033122e+00
  6.687773e+00    3.012300e+00
  6.703648e+00    2.972027e+00
  6.719524e+00    2.914494e+00
  6.735400e+00    2.925124e+00
  6.751275e+00    2.985140e+00
  6.767151e+00    2.961110e+00
  6.783026e+00    3.013386e+00
  6.798902e+00    2.950658e+00
  6.814777e+00    2.922858e+00
  6.830653e+00    2.960668e+00
  6.846529e+00    2.966761e+00
  6.862404e+00    2.934850e+00
  6.878280e+00    2.972910e+00
  6.894155e+00    2.908520e+00
  6.910031e+00    2.914035e+00
  6.925907e+00    2.923549e+00
  6.941782e+00    2.972955e+00
  6.957658e+00    3.041606e+00
  6.973533e+00    3.033672e+00
  6.989409e+00    2.915817e+00
  7.005284e+00    2.912097e+00
  7.021160e+00    2.904544e+00
  7.037036e+00    2.961064e+00
  7.052911e+00    2.936109e+00
  7.068787e+00    2.921418e+00
  7.084662e+00    2.934683e+00
  7.100538e+00    2.882173e+00
  7.116413e+00    2.865486e+00
  7.132289e+00    2.852988e+00
  7.148165e+00    2.895315e+00
  7.164040e+00    2.937596e+00
  7.179916e+00    2.944762e+00
  7.195791e+00    2.990492e+00
  7.211667e+00    2.990708e+00
  7.227542e+00    2.984819e+00
  7.243418e+00    2.972994e+00
  7.259294e+00    2.927176e+00
  7.275169e+00    2.903811e+00
  7.291045e+00    2.966028e+00
  7.306920e+00    2.959554e+00
  7.322796e+00    2.975025e+00
  7.338671e+00    2.953027e+00
  7.354547e+00    2.970146e+00
  7.370423e+00    2.934709e+00
  7.386298e+00    2.907015e+00
  7.402174e+00    2.943246e+00
  7.418049e+00    2.959800e+00
  7.433925e+00    2.938149e+00
  7.449800e+00    2.923528e+00
  7.465676e+00    2.940004e+00
  7.481552e+00    2.898070e+00
  7.497427e+00    2.890015e+00
  7.513303e+00    2.951655e+00
  7.529178e+00    2.861863e+00
  7.545054e+00    2.836744e+00
  7.560929e+00    2.944282e+00
  7.576805e+00    2.950523e+00
  7.592681e+00    2.954242e+00
  7.608556e+00    2.853062e+00
  7.624432e+00    2.926377e+00
  7.640307e+00    2.957238e+00
  7.656183e+00    2.955162e+00
  7.672058e+00    2.946838e+00
  7.687934e+00    2.934101e+00
  7.703810e+00    2.918297e+00
  7.719685e+00    2.903455e+00
  7.735561e+00    2.904303e+00
  7.751436e+00    2.868303e+00
  7.767312e+00    2.842645e+00
  7.783187e+00    2.885772e+00
  7.799063e+00    2.911120e+00
  7.814939e+00    2.824882e+00
  7.830814e+00    2.849252e+00
  7.846690e+00    2.870327e+00
  7.862565e+00    2.830651e+00
  7.878441e+00    2.881086e+00
  7.894317e+00    2.924870e+00
  7.910192e+00    2.902725e+00
  7.926068e+00    2.854820e+00
  7.941943e+00    2.897332e+00
  7.957819e+00    2.848416e+00
  7.973694e+00    2.807010e+00
  7.989570e+00    2.789893e+00
  8.005446e+00    2.843512e+00
  8.021321e+00    2.903755e+00
  8.037197e+00    2.890743e+00
  8.053072e+00    2.862088e+00
  8.068948e+00    2.904325e+00
  8.084823e+00    2.869070e+00
  8.100699e+00    2.883746e+00
  8.116575e+00    2.882744e+00
  8.132450e+00    2.846870e+00
  8.148326e+00    2.870005e+00
  8.164201e+00    2.849351e+00
  8.180077e+00    2.877983e+00
  8.195952e+00    2.902013e+00
  8.211828e+00    2.909099e+00
  8.227704e+00    2.903778e+00
  8.243579e+00    2.869965e+00
  8.259455e+00    2.789922e+00
  8.275330e+00    2.818845e+00
  8.291206e+00    2.807145e+00
  8.307081e+00    2.863630e+00
  8.322957e+00    2.810579e+00
  8.338833e+00    2.826237e+00
  8.354708e+00    2.790553e+00
  8.370584e+00    2.826878e+00
  8.386459e+00    2.864339e+00
  8.402335e+00    2.870315e+00
  8.418210e+00    2.875630e+00
  8.434086e+00    2.878634e+00
  8.449962e+00    2.801137e+00
  8.465837e+00    2.896585e+00
  8.481713e+00    2.955923e+00
  8.497588e+00    2.884272e+00
  8.513464e+00    2.811595e+00
  8.529339e+00    2.740643e+00
  8.545215e+00    2.759475e+00
  8.561091e+00    2.824749e+00
  8.576966e+00    2.835089e+00
  8.592842e+00    2.826976e+00
  8.608717e+00    2.845495e+00
  8.624593e+00    2.815281e+00
  8.640468e+00    2.803253e+00
  8.656344e+00    2.794463e+00
  8.672220e+00    2.823061e+00
  8.688095e+00    2.861382e+00
  8.703971e+00    2.857731e+00
  8.719846e+00    2.815680e+00
  8.735722e+00    2.772825e+00
  8.751598e+00    2.780560e+00
  8.767473e+00    2.798814e+00
  8.783349e+00    2.809704e+00
  8.799224e+00    2.815580e+00
  8.815100e+00    2.797440e+00
  8.830975e+00    2.848246e+00
  8.846851e+00    2.819015e+00
  8.862727e+00    2.771295e+00
  8.878602e+00    2.777073e+00
  8.894478e+00    2.807284e+00
  8.910353e+00    2.743872e+00
  8.926229e+00    2.772879e+00
  8.942104e+00    2.789413e+00
  8.957980e+00    2.761724e+00
  8.973856e+00    2.783068e+00
  8.989731e+00    2.685876e+00
  9.005607e+00    2.666300e+00
  9.021482e+00    2.732135e+00
  9.037358e+00    2.778627e+00
  9.053233e+00    2.813367e+00
  9.069109e+00    2.780070e+00
  9.084985e+00    2.767877e+00
  9.100860e+00    2.752074e+00
  9.116736e+00    2.767173e+00
  9.132611e+00    2.749164e+00
  9.148487e+00    2.752209e+00
  9.164362e+00    2.765248e+00
  9.180238e+00    2.761489e+00
  9.196114e+00    2.718808e+00
  9.211989e+00    2.721430e+00
  9.227865e+00    2.758661e+00
  9.243740e+00    2.709091e+00
  9.259616e+00    2.734405e+00
  9.275491e+00    2.745578e+00
  9.291367e+00    2.635328e+00
  9.307243e+00    2.667652e+00
  9.323118e+00    2.740331e+00
  9.338994e+00    2.751041e+00
  9.354869e+00    2.772021e+00
  9.370745e+00    2.727063e+00
  9.386620e+00    2.711786e+00
  9.402496e+00    2.770790e+00
  9.418372e+00    2.759051e+00
  9.434247e+00    2.685643e+00
  9.450123e+00    2.726588e+00
  9.465998e+00    2.700012e+00
  9.481874e+00    2.718912e+00
  9.497749e+00    2.710290e+00
  9.513625e+00    2.725913e+00
  9.529501e+00    2.745721e+00
  9.545376e+00    2.742918e+00
  9.561252e+00    2.739824e+00
  9.577127e+00    2.698980e+00
  9.593003e+00    2.672656e+00
  9.608878e+00    2.714640e+00
  9.624754e+00    2.723923e+00
  9.640630e+00    2.691478e+00
  9.656505e+00    2.773071e+00
  9.672381e+00    2.738315e+00
  9.688256e+00    2.691098e+00
  9.704132e+00    2.663156e+00
  9.720008e+00    2.696585e+00
  9.735883e+00    2.638443e+00
  9.751759e+00    2.640346e+00
  9.767634e+00    2.665667e+00
  9.783510e+00    2.670642e+00
  9.799385e+00    2.644365e+00
  9.815261e+00    2.670535e+00
  9.831137e+00    2.646094e+00
  9.847012e+00    2.625135e+00
  9.862888e+00    2.578979e+00
  9.878763e+00    2.641235e+00
  9.894639e+00    2.582947e+00
  9.910514e+00    2.601551e+00
  9.926390e+00    2.599289e+00
  9.942266e+00    2.660466e+00
  9.958141e+00    2.653718e+00
  9.974017e+00    2.632509e+00
  9.989892e+00    2.631637e+00
  1.000577e+01    2.604717e+00
  1.002164e+01    2.609030e+00
  1.003752e+01    2.673440e+00
  1.005339e+01    2.665821e+00
  1.006927e+01    2.610970e+00
  1.008515e+01    2.649352e+00
  1.010102e+01    2.667788e+00
  1.011690e+01    2.577327e+00
  1.013277e+01    2.564277e+00
  1.014865e+01    2.582982e+00
  1.016452e+01    2.602314e+00
  1.018040e+01    2.624641e+00
  1.019627e+01    2.606876e+00
  1.021215e+01    2.590604e+00
  1.022803e+01    2.582313e+00
  1.024390e+01    2.555573e+00
  1.025978e+01    2.562059e+00
  1.027565e+01    2.559818e+00
  1.029153e+01    2.569557e+00
  1.030740e+01    2.578130e+00
  1.032328e+01    2.582305e+00
  1.033915e+01    2.536954e+00
  1.035503e+01    2.543948e+00
  1.037091e+01    2.518600e+00
  1.038678e+01    2.525190e+00
  1.040266e+01    2.552485e+00
  1.041853e+01    2.531168e+00
  1.043441e+01    2.492757e+00
  1.045028e+01    2.481798e+00
  1.046616e+01    2.554795e+00
  1.048204e+01    2.599363e+00
  1.049791e+01    2.557832e+00
  1.051379e+01    2.564690e+00
  1.052966e+01    2.534782e+00
  1.054554e+01    2.501055e+00
  1.056141e+01    2.564970e+00
  1.057729e+01    2.603128e+00
  1.059316e+01    2.553556e+00
  1.060904e+01    2.496684e+00
  1.062492e+01    2.523922e+00
  1.064079e+01    2.562930e+00
  1.065667e+01    2.555427e+00
  1.067254e+01    2.478972e+00
  1.068842e+01    2.521472e+00
  1.070429e+01    2.531153e+00
  1.072017e+01    2.515516e+00
  1.073604e+01    2.472991e+00
  1.075192e+01    2.506653e+00
  1.076780e+01    2.485123e+00
  1.078367e+01    2.487051e+00
  1.079955e+01    2.562228e+00
  1.081542e+01    2.537250e+00
  1.083130e+01    2.480755e+00
  1.084717e+01    2.431667e+00
  1.086305e+01    2.432118e+00
  1.087892e+01    2.456039e+00
  1.089480e+01    2.450112e+00
  1.091068e+01    2.448434e+00
  1.092655e+01    2.440202e+00
  1.094243e+01    2.439541e+00
  1.095830e+01    2.473742e+00
  1.097418e+01    2.499852e+00
  1.099005e+01    2.445894e+00
  1.100593e+01    2.479456e+00
  1.102180e+01    2.458249e+00
  1.103768e+01    2.461684e+00
  1.105356e+01    2.453782e+00
  1.106943e+01    2.443087e+00
  1.108531e+01    2.422655e+00
  1.110118e+01    2.444358e+00
  1.111706e+01    2.423632e+00
  1.113293e+01    2.416419e+00
  1.114881e+01    2.412895e+00
  1.116468e+01    2.386670e+00
  1.118056e+01    2.400202e+00
  1.119644e+01    2.447990e+00
  1.121231e+01    2.495471e+00
  1.122819e+01    2.516750e+00
  1.124406e+01    2.416863e+00
  1.125994e+01    2.396369e+00
  1.127581e+01    2.444817e+00
  1.129169e+01    2.426983e+00
  1.130756e+01    2.442534e+00
  1.132344e+01    2.415611e+00
  1.133932e+01    2.379767e+00
  1.135519e+01    2.380667e+00
  1.137107e+01    2.351569e+00
  1.138694e+01    2.371208e+00
  1.140282e+01    2.388587e+00
  1.141869e+01    2.382288e+00
  1.143457e+01    2.339753e+00
  1.145045e+01    2.380350e+00
  1.146632e+01    2.396645e+00
  1.148220e+01    2.365158e+00
  1.149807e+01    2.355161e+00
  1.151395e+01    2.365767e+00
  1.152982e+01    2.357625e+00
  1.154570e+01    2.389542e+00
  1.156157e+01    2.389069e+00
  1.157745e+01    2.363496e+00
  1.159333e+01    2.284648e+00
  1.160920e+01    2.309975e+00
  1.162508e+01    2.335251e+00
  1.164095e+01    2.342856e+00
  1.165683e+01    2.336020e+00
  1.167270e+01    2.360502e+00
  1.168858e+01    2.365918e+00
  1.170445e+01    2.363544e+00
  1.172033e+01    2.312494e+00
  1.173621e+01    2.305135e+00
  1.175208e+01    2.331672e+00
  1.176796e+01    2.318850e+00
  1.178383e+01    2.331644e+00
  1.179971e+01    2.347710e+00
  1.181558e+01    2.303832e+00
  1.183146e+01    2.327905e+00
  1.184733e+01    2.335057e+00
  1.186321e+01    2.338934e+00
  1.187909e+01    2.310492e+00
  1.189496e+01    2.274026e+00
  1.191084e+01    2.267837e+00
  1.192671e+01    2.252112e+00
  1.194259e+01    2.256030e+00
  1.195846e+01    2.284206e+00
  1.197434e+01    2.282454e+00
  1.199021e+01    2.291400e+00
  1.200609e+01    2.275586e+00
  1.202197e+01    2.288308e+00
  1.203784e+01    2.284961e+00
  1.205372e+01    2.308403e+00
  1.206959e+01    2.246619e+00
  1.208547e+01    2.275245e+00
  1.210134e+01    2.318051e+00
  1.211722e+01    2.319879e+00
  1.213309e+01    2.280199e+00
  1.214897e+01    2.268327e+00
  1.216485e+01    2.257353e+00
  1.218072e+01    2.271495e+00
  1.219660e+01    2.310854e+00
  1.221247e+01    2.272361e+00
  1.222835e+01    2.266398e+00
  1.224422e+01    2.258485e+00
  1.226010e+01    2.255721e+00
  1.227597e+01    2.310233e+00
  1.229185e+01    2.273097e+00
  1.230773e+01    2.279547e+00
  1.232360e+01    2.315707e+00
  1.233948e+01    2.272359e+00
  1.235535e+01    2.258901e+00
  1.237123e+01    2.274549e+00
  1.238710e+01    2.253732e+00
  1.240298e+01    2.277479e+00
  1.241886e+01    2.315745e+00
  1.243473e+01    2.300803e+00
  1.245061e+01    2.348776e+00
  1.246648e+01    2.303393e+00
  1.248236e+01    2.298300e+00
  1.249823e+01    2.310685e+00
  1.251411e+01    2.265535e+00
  1.252998e+01    2.332472e+00
  1.254586e+01    2.289644e+00
  1.256174e+01    2.345850e+00
  1.257761e+01    2.372190e+00
  1.259349e+01    2.383189e+00
  1.260936e+01    2.373842e+00
  1.262524e+01    2.354280e+00
  1.264111e+01    2.363430e+00
  1.265699e+01    2.407167e+00
  1.267286e+01    2.426495e+00
  1.268874e+01    2.399515e+00
  1.270462e+01    2.427214e+00
  1.272049e+01    2.474502e+00
  1.273637e+01    2.492750e+00
  1.275224e+01    2.479943e+00
  1.276812e+01    2.496381e+00
  1.278399e+01    2.572726e+00
  1.279987e+01    2.590738e+00
  1.281574e+01    2.678277e+00
  1.283162e+01    2.740587e+00
  1.284750e+01    2.788239e+00
  1.286337e+01    2.861943e+00
  1.287925e+01    2.990072e+00
  1.289512e+01    3.108101e+00
  1.291100e+01    3.228672e+00
  1.292687e+01    3.425224e+00
  1.294275e+01    3.671843e+00
  1.295862e+01    3.913481e+00
  1.297450e+01    4.287151e+00
  1.299038e+01    4.731163e+00
  1.300625e+01    5.249728e+00
  1.302213e+01    5.975967e+00
  1.303800e+01    6.920148e+00
  1.305388e+01    8.018600e+00
  1.306975e+01    9.330569e+00
  1.308563e+01    1.071020e+01
  1.310150e+01    1.198856e+01
  1.311738e+01    1.325093e+01
  1.313326e+01    1.442832e+01
  1.314913e+01    1.570757e+01
  1.316501e+01    1.669270e+01
  1.318088e+01    1.728082e+01
  1.319676e+01    1.717062e+01
  1.321263e+01    1.616654e+01
  1.322851e+01    1.450305e+01
  1.324438e+01    1.238235e+01
  1.326026e+01    1.038696e+01
  1.327614e+01    8.735087e+00
  1.329201e+01    7.395362e+00
  1.330789e+01    6.468764e+00
  1.332376e+01    5.572906e+00
  1.333964e+01    4.884159e+00
  1.335551e+01    4.401959e+00
  1.337139e+01    4.060477e+00
  1.338727e+01    3.788809e+00
  1.340314e+01    3.477471e+00
  1.341902e+01    3.266242e+00
  1.343489e+01    3.114933e+00
  1.345077e+01    3.004331e+00
  1.346664e+01    2.914943e+00
  1.348252e+01    2.824709e+00
  1.349839e+01    2.697937e+00
  1.351427e+01    2.633768e+00
  1.353015e+01    2.522964e+00
  1.354602e+01    2.468221e+00
  1.356190e+01    2.479126e+00
  1.357777e+01    2.420501e+00
  1.359365e+01    2.391641e+00
  1.360952e+01    2.372744e+00
  1.362540e+01    2.348084e+00
  1.364127e+01    2.294975e+00
  1.365715e+01    2.274588e+00
  1.367303e+01    2.219750e+00
  1.368890e+01    2.230653e+00
  1.370478e+01    2.191254e+00
  1.372065e+01    2.180584e+00
  1.373653e+01    2.184017e+00
  1.375240e+01    2.133506e+00
  1.376828e+01    2.155798e+00
  1.378415e+01    2.150602e+00
  1.380003e+01    2.121005e+00
  1.381591e+01    2.098646e+00
  1.383178e+01    2.100727e+00
  1.384766e+01    2.089450e+00
  1.386353e+01    2.102694e+00
  1.387941e+01    2.092604e+00
  1.389528e+01    2.079574e+00
  1.391116e+01    2.035171e+00
  1.392703e+01    2.014996e+00
  1.394291e+01    2.044661e+00
  1.395879e+01    2.019193e+00
  1.397466e+01    2.045420e+00
  1.399054e+01    2.037162e+00
  1.400641e+01    2.044755e+00
  1.402229e+01    2.024198e+00
  1.403816e+01    1.997628e+00
  1.405404e+01    1.992179e+00
  1.406991e+01    1.970022e+00
  1.408579e+01    1.944637e+00
  1.410167e+01    2.011077e+00
  1.411754e+01    2.020155e+00
  1.413342e+01    2.016228e+00
  1.414929e+01    1.968367e+00
  1.416517e+01    1.949588e+00
  1.418104e+01    1.945742e+00
  1.419692e+01    1.954620e+00
  1.421279e+01    1.951134e+00
  1.422867e+01    1.923992e+00
  1.424455e+01    1.972304e+00
  1.426042e+01    1.974545e+00
  1.427630e+01    1.974915e+00
  1.429217e+01    1.906750e+00
  1.430805e+01    1.933406e+00
  1.432392e+01    1.932736e+00
  1.433980e+01    1.900101e+00
  1.435568e+01    1.943173e+00
  1.437155e+01    1.915621e+00
  1.438743e+01    1.906830e+00
  1.440330e+01    1.916689e+00
  1.441918e+01    1.870222e+00
  1.443505e+01    1.876716e+00
  1.445093e+01    1.880016e+00
  1.446680e+01    1.879681e+00
  1.448268e+01    1.877362e+00
  1.449856e+01    1.899978e+00
  1.451443e+01    1.903713e+00
  1.453031e+01    1.877783e+00
  1.454618e+01    1.893475e+00
  1.456206e+01    1.887800e+00
  1.457793e+01    1.891104e+00
  1.459381e+01    1.857682e+00
  1.460968e+01    1.882130e+00
  1.462556e+01    1.874603e+00
  1.464144e+01    1.904949e+00
  1.465731e+01    1.908400e+00
  1.467319e+01    1.903030e+00
  1.468906e+01    1.869041e+00
  1.470494e+01    1.866385e+00
  1.472081e+01    1.864377e+00
  1.473669e+01    1.856206e+00
  1.475256e+01    1.877646e+00
  1.476844e+01    1.886186e+00
  1.478432e+01    1.877633e+00
  1.480019e+01    1.877172e+00
  1.481607e+01    1.882660e+00
  1.483194e+01    1.896754e+00
  1.484782e+01    1.894557e+00
  1.486369e+01    1.928988e+00
  1.487957e+01    1.908539e+00
  1.489544e+01    1.909711e+00
  1.491132e+01    1.920677e+00
  1.492720e+01    1.879228e+00
  1.494307e+01    1.932545e+00
  1.495895e+01    1.982723e+00
  1.497482e+01    2.055433e+00
  1.499070e+01    2.064976e+00
  1.500657e+01    2.114014e+00
  1.502245e+01    2.160998e+00
  1.503832e+01    2.274075e+00
  1.505420e+01    2.355850e+00
  1.507008e+01    2.433511e+00
  1.508595e+01    2.613270e+00
  1.510183e+01    2.802816e+00
  1.511770e+01    3.036902e+00
  1.513358e+01    3.396895e+00
  1.514945e+01    3.702236e+00
  1.516533e+01    4.126990e+00
  1.518120e+01    4.505726e+00
  1.519708e+01    4.827147e+00
  1.521296e+01    5.153180e+00
  1.522883e+01    5.381603e+00
  1.524471e+01    5.663188e+00
  1.526058e+01    5.891271e+00
  1.527646e+01    5.948674e+00
  1.529233e+01    5.808986e+00
  1.530821e+01    5.513052e+00
  1.532409e+01    5.036889e+00
  1.533996e+01    4.481598e+00
  1.535584e+01    3.925417e+00
  1.537171e+01    3.504584e+00
  1.538759e+01    3.171166e+00
  1.540346e+01    2.872201e+00
  1.541934e+01    2.646783e+00
  1.543521e+01    2.474451e+00
  1.545109e+01    2.329254e+00
  1.546697e+01    2.200973e+00
  1.548284e+01    2.136134e+00
  1.549872e+01    2.061284e+00
  1.551459e+01    1.995871e+00
  1.553047e+01    1.975034e+00
  1.554634e+01    1.928700e+00
  1.556222e+01    1.866304e+00
  1.557809e+01    1.840594e+00
  1.559397e+01    1.828025e+00
  1.560985e+01    1.793630e+00
  1.562572e+01    1.803747e+00
  1.564160e+01    1.793337e+00
  1.565747e+01    1.770179e+00
  1.567335e+01    1.738275e+00
  1.568922e+01    1.733765e+00
  1.570510e+01    1.716049e+00
  1.572097e+01    1.710842e+00
  1.573685e+01    1.698301e+00
  1.575273e+01    1.689887e+00
  1.576860e+01    1.652044e+00
  1.578448e+01    1.647645e+00
  1.580035e+01    1.668417e+00
  1.581623e+01    1.651478e+00
  1.583210e+01    1.659180e+00
  1.584798e+01    1.625662e+00
  1.586385e+01    1.640628e+00
  1.587973e+01    1.642045e+00
  1.589561e+01    1.594767e+00
  1.591148e+01    1.606955e+00
  1.592736e+01    1.632066e+00
  1.594323e+01    1.561636e+00
  1.595911e+01    1.585911e+00
  1.597498e+01    1.567495e+00
  1.599086e+01    1.570856e+00
  1.600673e+01    1.577703e+00
  1.602261e+01    1.597371e+00
  1.603849e+01    1.600606e+00
  1.605436e+01    1.553381e+00
  1.607024e+01    1.549670e+00
  1.608611e+01    1.569334e+00
  1.610199e+01    1.583268e+00
  1.611786e+01    1.604830e+00
  1.613374e+01    1.588850e+00
  1.614961e+01    1.562169e+00
  1.616549e+01    1.571399e+00
  1.618137e+01    1.548446e+00
  1.619724e+01    1.560840e+00
  1.621312e+01    1.539331e+00
  1.622899e+01    1.551685e+00
  1.624487e+01    1.522984e+00
  1.626074e+01    1.538522e+00
  1.627662e+01    1.527688e+00
  1.629250e+01    1.512491e+00
  1.630837e+01    1.490734e+00
  1.632425e+01    1.480201e+00
  1.634012e+01    1.511380e+00
  1.635600e+01    1.512367e+00
  1.637187e+01    1.531103e+00
  1.638775e+01    1.525894e+00
  1.640362e+01    1.539864e+00
  1.641950e+01    1.517836e+00
  1.643538e+01    1.524249e+00
  1.645125e+01    1.501672e+00
  1.646713e+01    1.496240e+00
  1.648300e+01    1.532906e+00
  1.649888e+01    1.483420e+00
  1.651475e+01    1.456859e+00
  1.653063e+01    1.475933e+00
  1.654650e+01    1.490690e+00
  1.656238e+01    1.471591e+00
  1.657826e+01    1.455937e+00
  1.659413e+01    1.477623e+00
  1.661001e+01    1.460729e+00
  1.662588e+01    1.503897e+00
  1.664176e+01    1.488416e+00
  1.665763e+01    1.465235e+00
  1.667351e+01    1.473401e+00
  1.668938e+01    1.484018e+00
  1.670526e+01    1.445312e+00
  1.672114e+01    1.461187e+00
  1.673701e+01    1.452519e+00
  1.675289e+01    1.421577e+00
  1.676876e+01    1.416081e+00
  1.678464e+01    1.443469e+00
  1.680051e+01    1.467113e+00
  1.681639e+01    1.467236e+00
  1.683226e+01    1.413072e+00
  1.684814e+01    1.408178e+00
  1.686402e+01    1.430440e+00
  1.687989e+01    1.442082e+00
  1.689577e+01    1.394805e+00
  1.691164e+01    1.436309e+00
  1.692752e+01    1.439961e+00
  1.694339e+01    1.434012e+00
  1.695927e+01    1.430861e+00
  1.697514e+01    1.441051e+00
  1.699102e+01    1.427112e+00
  1.700690e+01    1.416776e+00
  1.702277e+01    1.425303e+00
  1.703865e+01    1.412683e+00
  1.705452e+01    1.386043e+00
  1.707040e+01    1.389441e+00
  1.708627e+01    1.407795e+00
  1.710215e+01    1.407068e+00
  1.711802e+01    1.400793e+00
  1.713390e+01    1.418556e+00
  1.714978e+01    1.415953e+00
  1.716565e+01    1.402073e+00
  1.718153e+01    1.400340e+00
  1.719740e+01    1.396221e+00
  1.721328e+01    1.383462e+00
  1.722915e+01    1.368610e+00
  1.724503e+01    1.351306e+00
  1.726091e+01    1.368227e+00
  1.727678e+01    1.377952e+00
  1.729266e+01    1.389595e+00
  1.730853e+01    1.379604e+00
  1.732441e+01    1.368219e+00
  1.734028e+01    1.363820e+00
  1.735616e+01    1.375516e+00
  1.737203e+01    1.370242e+00
  1.738791e+01    1.342677e+00
  1.740379e+01    1.342529e+00
  1.741966e+01    1.390646e+00
  1.743554e+01    1.370893e+00
  1.745141e+01    1.357861e+00
  1.746729e+01    1.330321e+00
  1.748316e+01    1.350212e+00
  1.749904e+01    1.345457e+00
  1.751491e+01    1.327837e+00
  1.753079e+01    1.339998e+00
  1.754667e+01    1.359687e+00
  1.756254e+01    1.356435e+00
  1.757842e+01    1.343200e+00
  1.759429e+01    1.336178e+00
  1.761017e+01    1.310328e+00
  1.762604e+01    1.313451e+00
  1.764192e+01    1.342240e+00
  1.765779e+01    1.333264e+00
  1.767367e+01    1.307976e+00
  1.768955e+01    1.340369e+00
  1.770542e+01    1.353848e+00
  1.772130e+01    1.336064e+00
  1.773717e+01    1.299228e+00
  1.775305e+01    1.318540e+00
  1.776892e+01    1.320438e+00
  1.778480e+01    1.336268e+00
  1.780067e+01    1.329273e+00
  1.781655e+01    1.299774e+00
  1.783243e+01    1.285226e+00
  1.784830e+01    1.298640e+00
  1.786418e+01    1.319466e+00
  1.788005e+01    1.303516e+00
  1.789593e+01    1.269165e+00
  1.791180e+01    1.283651e+00
  1.792768e+01    1.291080e+00
  1.794355e+01    1.267521e+00
  1.795943e+01    1.287845e+00
  1.797531e+01    1.319754e+00
  1.799118e+01    1.315861e+00
  1.800706e+01    1.298733e+00
  1.802293e+01    1.270279e+00
  1.803881e+01    1.295935e+00
  1.805468e+01    1.286469e+00
  1.807056e+01    1.259935e+00
  1.808643e+01    1.276443e+00
  1.810231e+01    1.268470e+00
  1.811819e+01    1.270128e+00
  1.813406e+01    1.294401e+00
  1.814994e+01    1.271534e+00
  1.816581e+01    1.256422e+00
  1.818169e+01    1.247274e+00
  1.819756e+01    1.283410e+00
  1.821344e+01    1.256387e+00
  1.822932e+01    1.257664e+00
  1.824519e+01    1.247131e+00
  1.826107e+01    1.233946e+00
  1.827694e+01    1.254016e+00
  1.829282e+01    1.237071e+00
  1.830869e+01    1.239052e+00
  1.832457e+01    1.235759e+00
  1.834044e+01    1.266378e+00
  1.835632e+01    1.255202e+00
  1.837220e+01    1.240087e+00
  1.838807e+01    1.255311e+00
  1.840395e+01    1.228691e+00
  1.841982e+01    1.243829e+00
  1.843570e+01    1.239856e+00
  1.845157e+01    1.241494e+00
  1.846745e+01    1.246815e+00
  1.848332e+01    1.261320e+00
  1.849920e+01    1.260634e+00
  1.851508e+01    1.234684e+00
  1.853095e+01    1.212584e+00
  1.854683e+01    1.246383e+00
  1.856270e+01    1.223957e+00
  1.857858e+01    1.202433e+00
  1.859445e+01    1.218917e+00
  1.861033e+01    1.206088e+00
  1.862620e+01    1.216980e+00
  1.864208e+01    1.228799e+00
  1.865796e+01    1.214840e+00
  1.867383e+01    1.208776e+00
  1.868971e+01    1.225506e+00
  1.870558e+01    1.213094e+00
  1.872146e+01    1.215927e+00
  1.873733e+01    1.191548e+00
  1.875321e+01    1.185479e+00
  1.876908e+01    1.199282e+00
  1.878496e+01    1.212187e+00
  1.880084e+01    1.225111e+00
  1.881671e+01    1.223481e+00
  1.883259e+01    1.192806e+00
  1.884846e+01    1.179416e+00
  1.886434e+01    1.203110e+00
  1.888021e+01    1.203924e+00
  1.889609e+01    1.193609e+00
  1.891196e+01    1.211594e+00
  1.892784e+01    1.189058e+00
  1.894372e+01    1.188003e+00
  1.895959e+01    1.227032e+00
  1.897547e+01    1.202795e+00
  1.899134e+01    1.203571e+00
  1.900722e+01    1.183256e+00
  1.902309e+01    1.188986e+00
  1.903897e+01    1.178092e+00
  1.905484e+01    1.187452e+00
  1.907072e+01    1.190501e+00
  1.908660e+01    1.172882e+00
  1.910247e+01    1.156986e+00
  1.911835e+01    1.162398e+00
  1.913422e+01    1.169184e+00
  1.915010e+01    1.187772e+00
  1.916597e+01    1.183610e+00
  1.918185e+01    1.169774e+00
  1.919773e+01    1.168289e+00
  1.921360e+01    1.171274e+00
  1.922948e+01    1.167873e+00
  1.924535e+01    1.158361e+00
  1.926123e+01    1.166270e+00
  1.927710e+01    1.174906e+00
  1.929298e+01    1.177406e+00
  1.930885e+01    1.168613e+00
  1.932473e+01    1.170444e+00
  1.934061e+01    1.146675e+00
  1.935648e+01    1.157549e+00
  1.937236e+01    1.153756e+00
  1.938823e+01    1.155567e+00
  1.940411e+01    1.139018e+00
  1.941998e+01    1.147950e+00
  1.943586e+01    1.143906e+00
  1.945173e+01    1.155454e+00
  1.946761e+01    1.153343e+00
  1.948349e+01    1.154299e+00
  1.949936e+01    1.127787e+00
  1.951524e+01    1.116411e+00
  1.953111e+01    1.127448e+00
  1.954699e+01    1.127120e+00
  1.956286e+01    1.133022e+00
  1.957874e+01    1.139099e+00
  1.959461e+01    1.140100e+00
  1.961049e+01    1.116948e+00
  1.962637e+01    1.116268e+00
  1.964224e+01    1.126086e+00
  1.965812e+01    1.112032e+00
  1.967399e+01    1.140234e+00
  1.968987e+01    1.111377e+00
  1.970574e+01    1.107280e+00
  1.972162e+01    1.124129e+00
  1.973749e+01    1.114229e+00
  1.975337e+01    1.102682e+00
  1.976925e+01    1.108404e+00
  1.978512e+01    1.128387e+00
  1.980100e+01    1.110570e+00
  1.981687e+01    1.102931e+00
  1.983275e+01    1.123272e+00
  1.984862e+01    1.126466e+00
  1.986450e+01    1.103725e+00
  1.988037e+01    1.123962e+00
  1.989625e+01    1.097064e+00
  1.991213e+01    1.083720e+00
  1.992800e+01    1.108929e+00
  1.994388e+01    1.110914e+00
  1.995975e+01    1.085932e+00
  1.997563e+01    1.097060e+00
  1.999150e+01    1.107973e+00
  2.000738e+01    1.105604e+00
  2.002325e+01    1.123925e+00
  2.003913e+01    1.100592e+00
  2.005501e+01    1.096675e+00
  2.007088e+01    1.092277e+00
  2.008676e+01    1.099231e+00
  2.010263e+01    1.094420e+00
  2.011851e+01    1.088572e+00
  2.013438e+01    1.094626e+00
  2.015026e+01    1.078256e+00
  2.016614e+01    1.057189e+00
  2.018201e+01    1.097832e+00
  2.019789e+01    1.076735e+00
  2.021376e+01    1.054186e+00
  2.022964e+01    1.065464e+00
  2.024551e+01    1.062102e+00
  2.026139e+01    1.074682e+00
  2.027726e+01    1.065856e+00
  2.029314e+01    1.081125e+00
  2.030902e+01    1.110227e+00
  2.032489e+01    1.100476e+00
  2.034077e+01    1.089844e+00
  2.035664e+01    1.115526e+00
  2.037252e+01    1.110235e+00
  2.038839e+01    1.081004e+00
  2.040427e+01    1.068901e+00
  2.042014e+01    1.064767e+00
  2.043602e+01    1.077053e+00
  2.045190e+01    1.067590e+00
  2.046777e+01    1.077187e+00
  2.048365e+01    1.072369e+00
  2.049952e+01    1.062770e+00
  2.051540e+01    1.067556e+00
  2.053127e+01    1.077475e+00
  2.054715e+01    1.054811e+00
  2.056302e+01    1.050503e+00
  2.057890e+01    1.064748e+00
  2.059478e+01    1.078140e+00
  2.061065e+01    1.045073e+00
  2.062653e+01    1.077937e+00
  2.064240e+01    1.090290e+00
  2.065828e+01    1.084410e+00
  2.067415e+01    1.073019e+00
  2.069003e+01    1.077652e+00
  2.070590e+01    1.052065e+00
  2.072178e+01    1.013550e+00
  2.073766e+01    1.042226e+00
  2.075353e+01    1.058095e+00
  2.076941e+01    1.056441e+00
  2.078528e+01    1.084439e+00
  2.080116e+01    1.059016e+00
  2.081703e+01    1.039191e+00
  2.083291e+01    1.031011e+00
  2.084878e+01    1.069587e+00
  2.086466e+01    1.075902e+00
  2.088054e+01    1.081608e+00
  2.089641e+01    1.089689e+00
  2.091229e+01    1.067746e+00
  2.092816e+01    1.055442e+00
  2.094404e+01    1.065339e+00
  2.095991e+01    1.073545e+00
  2.097579e+01    1.060966e+00
  2.099166e+01    1.055841e+00
  2.100754e+01    1.061021e+00
  2.102342e+01    1.072080e+00
  2.103929e+01    1.089643e+00
  2.105517e+01    1.079776e+00
  2.107104e+01    1.043753e+00
  2.108692e+01    1.059032e+00
  2.110279e+01    1.057055e+00
  2.111867e+01    1.051443e+00
  2.113455e+01    1.073933e+00
  2.115042e+01    1.084738e+00
  2.116630e+01    1.089787e+00
  2.118217e+01    1.051329e+00
  2.119805e+01    1.085049e+00
  2.121392e+01    1.087372e+00
  2.122980e+01    1.077336e+00
  2.124567e+01    1.098494e+00
  2.126155e+01    1.097669e+00
  2.127743e+01    1.089474e+00
  2.129330e+01    1.101416e+00
  2.130918e+01    1.113215e+00
  2.132505e+01    1.113272e+00
  2.134093e+01    1.133817e+00
  2.135680e+01    1.136952e+00
  2.137268e+01    1.098189e+00
  2.138855e+01    1.120520e+00
  2.140443e+01    1.153775e+00
  2.142031e+01    1.155162e+00
  2.143618e+01    1.157296e+00
  2.145206e+01    1.191143e+00
  2.146793e+01    1.212701e+00
  2.148381e+01    1.203533e+00
  2.149968e+01    1.251648e+00
  2.151556e+01    1.280636e+00
  2.153143e+01    1.347429e+00
  2.154731e+01    1.363971e+00
  2.156319e+01    1.403084e+00
  2.157906e+01    1.462132e+00
  2.159494e+01    1.508681e+00
  2.161081e+01    1.582944e+00
  2.162669e+01    1.678616e+00
  2.164256e+01    1.752457e+00
  2.165844e+01    1.879981e+00
  2.167431e+01    2.034544e+00
  2.169019e+01    2.226209e+00
  2.170607e+01    2.471517e+00
  2.172194e+01    2.741731e+00
  2.173782e+01    3.126783e+00
  2.175369e+01    3.527591e+00
  2.176957e+01    4.020249e+00
  2.178544e+01    4.654847e+00
  2.180132e+01    5.291233e+00
  2.181719e+01    6.002167e+00
  2.183307e+01    6.778134e+00
  2.184895e+01    7.508986e+00
  2.186482e+01    8.283638e+00
  2.188070e+01    8.916208e+00
  2.189657e+01    9.347904e+00
  2.191245e+01    9.561116e+00
  2.192832e+01    9.344090e+00
  2.194420e+01    8.751109e+00
  2.196007e+01    7.880174e+00
  2.197595e+01    6.786734e+00
  2.199183e+01    5.786324e+00
  2.200770e+01    4.895597e+00
  2.202358e+01    4.138557e+00
  2.203945e+01    3.603365e+00
  2.205533e+01    3.134742e+00
  2.207120e+01    2.759259e+00
  2.208708e+01    2.472681e+00
  2.210296e+01    2.202786e+00
  2.211883e+01    2.006583e+00
  2.213471e+01    1.877911e+00
  2.215058e+01    1.729109e+00
  2.216646e+01    1.626409e+00
  2.218233e+01    1.553739e+00
  2.219821e+01    1.447154e+00
  2.221408e+01    1.405685e+00
  2.222996e+01    1.361116e+00
  2.224584e+01    1.313047e+00
  2.226171e+01    1.275188e+00
  2.227759e+01    1.228469e+00
  2.229346e+01    1.211200e+00
  2.230934e+01    1.186039e+00
  2.232521e+01    1.144947e+00
  2.234109e+01    1.145401e+00
  2.235696e+01    1.118477e+00
  2.237284e+01    1.083656e+00
  2.238872e+01    1.076563e+00
  2.240459e+01    1.066778e+00
  2.242047e+01    1.077897e+00
  2.243634e+01    1.065451e+00
  2.245222e+01    1.042572e+00
  2.246809e+01    1.025363e+00
  2.248397e+01    1.021066e+00
  2.249984e+01    1.006589e+00
  2.251572e+01    1.013116e+00
  2.253160e+01    1.008690e+00
  2.254747e+01    9.968507e-01
  2.256335e+01    9.826871e-01
  2.257922e+01    9.689952e-01
  2.259510e+01    9.609725e-01
  2.261097e+01    9.580110e-01
  2.262685e+01    9.686887e-01
  2.264272e+01    9.769666e-01
  2.265860e+01    9.578190e-01
  2.267448e+01    9.593450e-01
  2.269035e+01    9.496905e-01
  2.270623e+01    9.469299e-01
  2.272210e+01    9.323277e-01
  2.273798e+01    9.329585e-01
  2.275385e+01    9.348516e-01
  2.276973e+01    9.285882e-01
  2.278560e+01    9.355506e-01
  2.280148e+01    9.023012e-01
  2.281736e+01    9.215412e-01
  2.283323e+01    9.152538e-01
  2.284911e+01    9.259346e-01
  2.286498e+01    9.158192e-01
  2.288086e+01    9.094464e-01
  2.289673e+01    9.063423e-01
  2.291261e+01    8.811265e-01
  2.292848e+01    8.834131e-01
  2.294436e+01    8.773767e-01
  2.296024e+01    9.030140e-01
  2.297611e+01    9.046304e-01
  2.299199e+01    9.171191e-01
  2.300786e+01    8.978747e-01
  2.302374e+01    8.746753e-01
  2.303961e+01    8.832400e-01
  2.305549e+01    8.771381e-01
  2.307137e+01    8.885093e-01
  2.308724e+01    8.843073e-01
  2.310312e+01    8.665105e-01
  2.311899e+01    8.536186e-01
  2.313487e+01    8.623694e-01
  2.315074e+01    8.936366e-01
  2.316662e+01    8.856237e-01
  2.318249e+01    8.663792e-01
  2.319837e+01    8.619630e-01
  2.321425e+01    8.678120e-01
  2.323012e+01    8.662257e-01
  2.324600e+01    8.544582e-01
  2.326187e+01    8.667657e-01
  2.327775e+01    8.447220e-01
  2.329362e+01    8.315527e-01
  2.330950e+01    8.449032e-01
  2.332537e+01    8.559813e-01
  2.334125e+01    8.485526e-01
  2.335713e+01    8.440748e-01
  2.337300e+01    8.324099e-01
  2.338888e+01    8.276123e-01
  2.340475e+01    8.431382e-01
  2.342063e+01    8.357272e-01
  2.343650e+01    8.145587e-01
  2.345238e+01    8.328422e-01
  2.346825e+01    8.382512e-01
  2.348413e+01    8.369567e-01
  2.350001e+01    8.356672e-01
  2.351588e+01    8.283095e-01
  2.353176e+01    8.223867e-01
  2.354763e+01    8.372343e-01
  2.356351e+01    8.476036e-01
  2.357938e+01    8.398541e-01
  2.359526e+01    8.342611e-01
  2.361113e+01    8.246186e-01
  2.362701e+01    8.165132e-01
  2.364289e+01    8.381885e-01
  2.365876e+01    8.491670e-01
  2.367464e+01    8.301886e-01
  2.369051e+01    8.045838e-01
  2.370639e+01    8.180262e-01
  2.372226e+01    8.214368e-01
  2.373814e+01    8.172490e-01
  2.375401e+01    8.231677e-01
  2.376989e+01    7.945403e-01
  2.378577e+01    7.959329e-01
  2.380164e+01    7.993625e-01
  2.381752e+01    8.079407e-01
  2.383339e+01    8.009286e-01
  2.384927e+01    7.886499e-01
  2.386514e+01    8.001015e-01
  2.388102e+01    7.869672e-01
  2.389689e+01    7.944973e-01
  2.391277e+01    7.912544e-01
  2.392865e+01    7.713911e-01
  2.394452e+01    7.768288e-01
  2.396040e+01    7.874537e-01
  2.397627e+01    7.881511e-01
  2.399215e+01    7.728291e-01
  2.400802e+01    7.896175e-01
  2.402390e+01    7.754871e-01
  2.403978e+01    7.862772e-01
  2.405565e+01    7.785898e-01
  2.407153e+01    7.857335e-01
  2.408740e+01    7.956214e-01
  2.410328e+01    7.750040e-01
  2.411915e+01    7.797652e-01
  2.413503e+01    7.796519e-01
  2.415090e+01    7.827348e-01
  2.416678e+01    7.721012e-01
  2.418266e+01    7.669426e-01
  2.419853e+01    7.828107e-01
  2.421441e+01    7.688108e-01
  2.423028e+01    7.610419e-01
  2.424616e+01    7.662807e-01
  2.426203e+01    7.891951e-01
  2.427791e+01    7.779286e-01
  2.429378e+01    7.870744e-01
  2.430966e+01    7.851763e-01
  2.432554e+01    7.766255e-01
  2.434141e+01    7.713903e-01
  2.435729e+01    7.577119e-01
  2.437316e+01    7.643719e-01
  2.438904e+01    7.785452e-01
  2.440491e+01    7.781048e-01
  2.442079e+01    7.805491e-01
  2.443666e+01    7.928985e-01
  2.445254e+01    8.099002e-01
  2.446842e+01    8.218572e-01
  2.448429e+01    8.053228e-01
  2.450017e+01    8.038543e-01
  2.451604e+01    7.924173e-01
  2.453192e+01    7.780498e-01
  2.454779e+01    7.812625e-01
  2.456367e+01    7.878894e-01
  2.457954e+01    7.862540e-01
  2.459542e+01    7.790671e-01
  2.461130e+01    7.820291e-01
  2.462717e+01    7.706985e-01
  2.464305e+01    7.680137e-01
  2.465892e+01    7.649524e-01
  2.467480e+01    7.748238e-01
  2.469067e+01    7.696815e-01
  2.470655e+01    7.743344e-01
  2.472242e+01    7.701468e-01
  2.473830e+01    7.837799e-01
  2.475418e+01    7.936862e-01
  2.477005e+01    8.041598e-01
  2.478593e+01    7.911402e-01
  2.480180e+01    7.719228e-01
  2.481768e+01    7.811755e-01
  2.483355e+01    7.917572e-01
  2.484943e+01    7.888821e-01
  2.486530e+01    7.882946e-01
  2.488118e+01    7.873308e-01
  2.489706e+01    7.897767e-01
  2.491293e+01    7.882068e-01
  2.492881e+01    7.896703e-01
  2.494468e+01    8.009269e-01
  2.496056e+01    7.891827e-01
  2.497643e+01    7.761333e-01
  2.499231e+01    7.796327e-01
  2.500819e+01    7.893021e-01
  2.502406e+01    7.857274e-01
  2.503994e+01    7.856820e-01
  2.505581e+01    7.867801e-01
  2.507169e+01    8.028814e-01
  2.508756e+01    7.763529e-01
  2.510344e+01    7.922018e-01
  2.511931e+01    8.063645e-01
  2.513519e+01    7.893922e-01
  2.515107e+01    7.976758e-01
  2.516694e+01    8.071244e-01
  2.518282e+01    8.261417e-01
  2.519869e+01    8.150373e-01
  2.521457e+01    8.101282e-01
  2.523044e+01    8.336872e-01
  2.524632e+01    8.409265e-01
  2.526219e+01    8.547016e-01
  2.527807e+01    8.479663e-01
  2.529395e+01    8.479927e-01
  2.530982e+01    8.497572e-01
  2.532570e+01    8.610806e-01
  2.534157e+01    8.664829e-01
  2.535745e+01    8.874879e-01
  2.537332e+01    8.681504e-01
  2.538920e+01    8.956800e-01
  2.540507e+01    9.040985e-01
  2.542095e+01    8.967190e-01
  2.543683e+01    9.155299e-01
  2.545270e+01    9.278405e-01
  2.546858e+01    9.160418e-01
  2.548445e+01    9.591941e-01
  2.550033e+01    9.605926e-01
  2.551620e+01    9.834847e-01
  2.553208e+01    9.971426e-01
  2.554795e+01    1.018043e+00
  2.556383e+01    1.039619e+00
  2.557971e+01    1.076357e+00
  2.559558e+01    1.092768e+00
  2.561146e+01    1.119303e+00
  2.562733e+01    1.144271e+00
  2.564321e+01    1.182268e+00
  2.565908e+01    1.225517e+00
  2.567496e+01    1.305561e+00
  2.569083e+01    1.388022e+00
  2.570671e+01    1.436238e+00
  2.572259e+01    1.529081e+00
  2.573846e+01    1.642119e+00
  2.575434e+01    1.804673e+00
  2.577021e+01    1.975070e+00
  2.578609e+01    2.175227e+00
  2.580196e+01    2.475242e+00
  2.581784e+01    2.808417e+00
  2.583371e+01    3.188133e+00
  2.584959e+01    3.635039e+00
  2.586547e+01    4.191351e+00
  2.588134e+01    4.766921e+00
  2.589722e+01    5.415295e+00
  2.591309e+01    6.126474e+00
  2.592897e+01    6.717380e+00
  2.594484e+01    7.311146e+00
  2.596072e+01    7.684992e+00
  2.597660e+01    7.904116e+00
  2.599247e+01    7.780871e+00
  2.600835e+01    7.323195e+00
  2.602422e+01    6.640431e+00
  2.604010e+01    5.806912e+00
  2.605597e+01    4.997729e+00
  2.607185e+01    4.315872e+00
  2.608772e+01    3.666270e+00
  2.610360e+01    3.162886e+00
  2.611948e+01    2.805129e+00
  2.613535e+01    2.459290e+00
  2.615123e+01    2.195498e+00
  2.616710e+01    2.012226e+00
  2.618298e+01    1.804403e+00
  2.619885e+01    1.663837e+00
  2.621473e+01    1.534909e+00
  2.623060e+01    1.470684e+00
  2.624648e+01    1.352377e+00
  2.626236e+01    1.281726e+00
  2.627823e+01    1.235849e+00
  2.629411e+01    1.192434e+00
  2.630998e+01    1.156695e+00
  2.632586e+01    1.123961e+00
  2.634173e+01    1.063352e+00
  2.635761e+01    1.074719e+00
  2.637348e+01    1.068930e+00
  2.638936e+01    1.041440e+00
  2.640524e+01    1.018509e+00
  2.642111e+01    9.706255e-01
  2.643699e+01    9.526829e-01
  2.645286e+01    9.661215e-01
  2.646874e+01    9.555724e-01
  2.648461e+01    9.472486e-01
  2.650049e+01    9.081832e-01
  2.651636e+01    8.985732e-01
  2.653224e+01    9.213767e-01
  2.654812e+01    9.089279e-01
  2.656399e+01    9.144658e-01
  2.657987e+01    9.091086e-01
  2.659574e+01    9.139043e-01
  2.661162e+01    9.036209e-01
  2.662749e+01    9.254068e-01
  2.664337e+01    9.086275e-01
  2.665924e+01    8.939590e-01
  2.667512e+01    8.694482e-01
  2.669100e+01    8.568398e-01
  2.670687e+01    8.712205e-01
  2.672275e+01    8.754161e-01
  2.673862e+01    8.777189e-01
  2.675450e+01    8.911338e-01
  2.677037e+01    8.909376e-01
  2.678625e+01    8.899580e-01
  2.680212e+01    8.881739e-01
  2.681800e+01    8.897272e-01
  2.683388e+01    8.620018e-01
  2.684975e+01    8.886052e-01
  2.686563e+01    9.157379e-01
  2.688150e+01    9.159787e-01
  2.689738e+01    9.004455e-01
  2.691325e+01    9.114459e-01
  2.692913e+01    9.071969e-01
  2.694501e+01    9.111195e-01
  2.696088e+01    9.568497e-01
  2.697676e+01    9.780707e-01
  2.699263e+01    9.886335e-01
  2.700851e+01    1.001035e+00
  2.702438e+01    1.044356e+00
  2.704026e+01    1.072902e+00
  2.705613e+01    1.129403e+00
  2.707201e+01    1.180767e+00
  2.708789e+01    1.245726e+00
  2.710376e+01    1.343145e+00
  2.711964e+01    1.427273e+00
  2.713551e+01    1.528117e+00
  2.715139e+01    1.705374e+00
  2.716726e+01    1.865649e+00
  2.718314e+01    2.027502e+00
  2.719901e+01    2.178262e+00
  2.721489e+01    2.254695e+00
  2.723077e+01    2.289376e+00
  2.724664e+01    2.276896e+00
  2.726252e+01    2.259778e+00
  2.727839e+01    2.109040e+00
  2.729427e+01    1.943294e+00
  2.731014e+01    1.785635e+00
  2.732602e+01    1.651736e+00
  2.734189e+01    1.481122e+00
  2.735777e+01    1.364629e+00
  2.737365e+01    1.262291e+00
  2.738952e+01    1.185519e+00
  2.740540e+01    1.104440e+00
  2.742127e+01    1.060337e+00
  2.743715e+01    1.032362e+00
  2.745302e+01    9.968184e-01
  2.746890e+01    9.516950e-01
  2.748477e+01    9.543203e-01
  2.750065e+01    9.513334e-01
  2.751653e+01    9.374956e-01
  2.753240e+01    9.043043e-01
  2.754828e+01    8.961815e-01
  2.756415e+01    8.812532e-01
  2.758003e+01    8.559403e-01
  2.759590e+01    8.540375e-01
  2.761178e+01    8.490139e-01
  2.762765e+01    8.436807e-01
  2.764353e+01    8.368323e-01
  2.765941e+01    8.486822e-01
  2.767528e+01    8.162154e-01
  2.769116e+01    8.156316e-01
  2.770703e+01    8.347527e-01
  2.772291e+01    8.334215e-01
  2.773878e+01    7.983685e-01
  2.775466e+01    7.956207e-01
  2.777054e+01    8.189936e-01
  2.778641e+01    8.039027e-01
  2.780229e+01    7.977303e-01
  2.781816e+01    8.002713e-01
  2.783404e+01    7.920097e-01
  2.784991e+01    8.049498e-01
  2.786579e+01    8.022900e-01
  2.788166e+01    7.923976e-01
  2.789754e+01    7.917172e-01
  2.791342e+01    7.898043e-01
  2.792929e+01    7.972788e-01
  2.794517e+01    7.718663e-01
  2.796104e+01    7.717077e-01
  2.797692e+01    7.840161e-01
  2.799279e+01    7.774225e-01
  2.800867e+01    7.593936e-01
  2.802454e+01    7.708613e-01
  2.804042e+01    7.731864e-01
  2.805630e+01    7.730950e-01
  2.807217e+01    7.783441e-01
  2.808805e+01    7.552310e-01
  2.810392e+01    7.445424e-01
  2.811980e+01    7.547786e-01
  2.813567e+01    7.588820e-01
  2.815155e+01    7.579880e-01
  2.816742e+01    7.604772e-01
  2.818330e+01    7.536662e-01
  2.819918e+01    7.540680e-01
  2.821505e+01    7.654135e-01
  2.823093e+01    7.654680e-01
  2.824680e+01    7.694864e-01
  2.826268e+01    7.638136e-01
  2.827855e+01    7.526736e-01
  2.829443e+01    7.554188e-01
  2.831030e+01    7.603085e-01
  2.832618e+01    7.647026e-01
  2.834206e+01    7.654816e-01
  2.835793e+01    7.553882e-01
  2.837381e+01    7.452311e-01
  2.838968e+01    7.623577e-01
  2.840556e+01    7.722740e-01
  2.842143e+01    7.486247e-01
  2.843731e+01    7.419880e-01
  2.845318e+01    7.414317e-01
  2.846906e+01    7.417119e-01
  2.848494e+01    7.516615e-01
  2.850081e+01    7.434224e-01
  2.851669e+01    7.397248e-01
  2.853256e+01    7.298309e-01
  2.854844e+01    7.461156e-01
  2.856431e+01    7.577044e-01
  2.858019e+01    7.483971e-01
  2.859606e+01    7.296492e-01
  2.861194e+01    7.681368e-01
  2.862782e+01    7.449871e-01
  2.864369e+01    7.419916e-01
  2.865957e+01    7.508628e-01
  2.867544e+01    7.406066e-01
  2.869132e+01    7.270288e-01
  2.870719e+01    7.149572e-01
  2.872307e+01    7.318004e-01
  2.873895e+01    7.628983e-01
  2.875482e+01    7.515134e-01
  2.877070e+01    7.415341e-01
  2.878657e+01    7.348295e-01
  2.880245e+01    7.347837e-01
  2.881832e+01    7.314450e-01
  2.883420e+01    7.101352e-01
  2.885007e+01    7.187853e-01
  2.886595e+01    7.427876e-01
  2.888183e+01    7.259879e-01
  2.889770e+01    7.328090e-01
  2.891358e+01    7.283903e-01
  2.892945e+01    7.320651e-01
  2.894533e+01    7.373688e-01
  2.896120e+01    7.034147e-01
  2.897708e+01    7.178366e-01
  2.899295e+01    7.295152e-01
  2.900883e+01    7.326428e-01
  2.902471e+01    7.222998e-01
  2.904058e+01    7.320064e-01
  2.905646e+01    7.298449e-01
  2.907233e+01    7.299693e-01
  2.908821e+01    7.214795e-01
  2.910408e+01    7.259963e-01
  2.911996e+01    7.190717e-01
  2.913583e+01    7.353864e-01
  2.915171e+01    7.314714e-01
  2.916759e+01    7.195204e-01
  2.918346e+01    7.124729e-01
  2.919934e+01    7.230139e-01
  2.921521e+01    7.074505e-01
  2.923109e+01    7.296842e-01
  2.924696e+01    7.399066e-01
  2.926284e+01    7.466782e-01
  2.927871e+01    7.348938e-01
  2.929459e+01    7.154910e-01
  2.931047e+01    7.191201e-01
  2.932634e+01    7.231486e-01
  2.934222e+01    7.205521e-01
  2.935809e+01    7.318798e-01
  2.937397e+01    7.310517e-01
  2.938984e+01    7.375743e-01
  2.940572e+01    7.296906e-01
  2.942159e+01    7.195879e-01
  2.943747e+01    6.987975e-01
  2.945335e+01    6.993042e-01
  2.946922e+01    6.984480e-01
  2.948510e+01    7.128350e-01
  2.950097e+01    6.972626e-01
  2.951685e+01    7.072608e-01
  2.953272e+01    7.126426e-01
  2.954860e+01    7.076591e-01
  2.956447e+01    7.128978e-01
  2.958035e+01    7.195442e-01
  2.959623e+01    6.998339e-01
  2.961210e+01    7.142325e-01
  2.962798e+01    7.277245e-01
  2.964385e+01    7.440766e-01
  2.965973e+01    7.315834e-01
  2.967560e+01    7.300833e-01
  2.969148e+01    7.178398e-01
  2.970736e+01    7.130780e-01
  2.972323e+01    6.998582e-01
  2.973911e+01    7.034456e-01
  2.975498e+01    7.132220e-01
  2.977086e+01    6.843731e-01
  2.978673e+01    6.846954e-01
  2.980261e+01    7.222391e-01
  2.981848e+01    7.266772e-01
  2.983436e+01    7.091458e-01
  2.985024e+01    7.285539e-01
  2.986611e+01    7.267899e-01
  2.988199e+01    7.047634e-01
  2.989786e+01    7.123016e-01
  2.991374e+01    7.095866e-01
  2.992961e+01    7.076743e-01
  2.994549e+01    7.016641e-01
  2.996136e+01    7.202400e-01
  2.997724e+01    7.050799e-01
  2.999312e+01    7.251193e-01
  3.000899e+01    7.114972e-01
  3.002487e+01    7.133692e-01
  3.004074e+01    7.364315e-01
  3.005662e+01    7.190396e-01
  3.007249e+01    7.076288e-01
  3.008837e+01    7.178836e-01
  3.010424e+01    7.192240e-01
  3.012012e+01    7.195922e-01
  3.013600e+01    7.063529e-01
  3.015187e+01    6.676984e-01
  3.016775e+01    6.799645e-01
  3.018362e+01    7.115248e-01
  3.019950e+01    7.185737e-01
  3.021537e+01    7.117683e-01
  3.023125e+01    6.949620e-01
  3.024712e+01    7.079305e-01
  3.026300e+01    7.168030e-01
  3.027888e+01    7.122683e-01
  3.029475e+01    7.005800e-01
  3.031063e+01    7.091510e-01
  3.032650e+01    7.028838e-01
  3.034238e+01    7.119067e-01
  3.035825e+01    7.104408e-01
  3.037413e+01    7.055166e-01
  3.039000e+01    6.979365e-01
  3.040588e+01    6.944561e-01
  3.042176e+01    6.698678e-01
  3.043763e+01    7.077292e-01
  3.045351e+01    7.143922e-01
  3.046938e+01    6.864092e-01
  3.048526e+01    7.057571e-01
  3.050113e+01    6.977172e-01
  3.051701e+01    6.957899e-01
  3.053288e+01    7.043476e-01
  3.054876e+01    7.094290e-01
  3.056464e+01    7.235430e-01
  3.058051e+01    7.037371e-01
  3.059639e+01    7.175987e-01
  3.061226e+01    7.061471e-01
  3.062814e+01    7.127169e-01
  3.064401e+01    7.038145e-01
  3.065989e+01    6.764290e-01
  3.067577e+01    6.984374e-01
  3.069164e+01    7.048829e-01
  3.070752e+01    6.909350e-01
  3.072339e+01    7.060619e-01
  3.073927e+01    7.082907e-01
  3.075514e+01    6.898025e-01
  3.077102e+01    6.969135e-01
  3.078689e+01    6.894321e-01
  3.080277e+01    7.051537e-01
  3.081865e+01    7.056729e-01
  3.083452e+01    6.967976e-01
  3.085040e+01    6.991515e-01
  3.086627e+01    6.920381e-01
  3.088215e+01    7.014973e-01
  3.089802e+01    7.192607e-01
  3.091390e+01    7.202355e-01
  3.092977e+01    7.217669e-01
  3.094565e+01    7.136795e-01
  3.096153e+01    7.083193e-01
  3.097740e+01    7.075379e-01
  3.099328e+01    7.023574e-01
  3.100915e+01    7.013946e-01
  3.102503e+01    6.925254e-01
  3.104090e+01    7.036717e-01
  3.105678e+01    7.150274e-01
  3.107265e+01    7.030137e-01
  3.108853e+01    6.948084e-01
  3.110441e+01    7.038035e-01
  3.112028e+01    6.982344e-01
  3.113616e+01    7.183562e-01
  3.115203e+01    7.197127e-01
  3.116791e+01    7.009367e-01
  3.118378e+01    7.103798e-01
  3.119966e+01    7.215483e-01
  3.121553e+01    6.991196e-01
  3.123141e+01    7.011994e-01
  3.124729e+01    7.127582e-01
  3.126316e+01    7.277529e-01
  3.127904e+01    7.016101e-01
  3.129491e+01    6.947057e-01
  3.131079e+01    7.207290e-01
  3.132666e+01    7.170355e-01
  3.134254e+01    7.117772e-01
  3.135841e+01    7.170502e-01
  3.137429e+01    7.438691e-01
  3.139017e+01    7.397847e-01
  3.140604e+01    7.400146e-01
  3.142192e+01    7.396479e-01
  3.143779e+01    7.607234e-01
  3.145367e+01    7.564587e-01
  3.146954e+01    7.727447e-01
  3.148542e+01    7.658730e-01
  3.150129e+01    7.821209e-01
  3.151717e+01    7.765711e-01
  3.153305e+01    7.665898e-01
  3.154892e+01    7.855653e-01
  3.156480e+01    7.961736e-01
  3.158067e+01    8.086868e-01
  3.159655e+01    8.090259e-01
  3.161242e+01    8.159171e-01
  3.162830e+01    8.301202e-01
  3.164418e+01    8.399955e-01
  3.166005e+01    8.509277e-01
  3.167593e+01    8.593210e-01
  3.169180e+01    8.928419e-01
  3.170768e+01    9.459285e-01
  3.172355e+01    9.708930e-01
  3.173943e+01    1.024562e+00
  3.175530e+01    1.076147e+00
  3.177118e+01    1.150456e+00
  3.178706e+01    1.245317e+00
  3.180293e+01    1.336311e+00
  3.181881e+01    1.425485e+00
  3.183468e+01    1.561705e+00
  3.185056e+01    1.700500e+00
  3.186643e+01    1.857512e+00
  3.188231e+01    2.019812e+00
  3.189818e+01    2.165129e+00
  3.191406e+01    2.228385e+00
  3.192994e+01    2.274779e+00
  3.194581e+01    2.257555e+00
  3.196169e+01    2.109686e+00
  3.197756e+01    1.982103e+00
  3.199344e+01    1.846833e+00
  3.200931e+01    1.683758e+00
  3.202519e+01    1.533257e+00
  3.204106e+01    1.404431e+00
  3.205694e+01    1.262916e+00
  3.207282e+01    1.149666e+00
  3.208869e+01    1.090165e+00
  3.210457e+01    1.014824e+00
  3.212044e+01    9.725572e-01
  3.213632e+01    9.395035e-01
  3.215219e+01    8.875443e-01
  3.216807e+01    8.850471e-01
  3.218394e+01    8.724176e-01
  3.219982e+01    8.322945e-01
  3.221570e+01    8.089519e-01
  3.223157e+01    8.180502e-01
  3.224745e+01    8.304726e-01
  3.226332e+01    8.047516e-01
  3.227920e+01    7.794576e-01
  3.229507e+01    7.728133e-01
  3.231095e+01    7.596079e-01
  3.232682e+01    7.322843e-01
  3.234270e+01    7.441752e-01
  3.235858e+01    7.631446e-01
  3.237445e+01    7.453437e-01
  3.239033e+01    7.229009e-01
  3.240620e+01    7.328731e-01
  3.242208e+01    7.179899e-01
  3.243795e+01    7.350104e-01
  3.245383e+01    7.151788e-01
  3.246970e+01    7.370104e-01
  3.248558e+01    7.376752e-01
  3.250146e+01    7.155242e-01
  3.251733e+01    7.206498e-01
  3.253321e+01    7.170913e-01
  3.254908e+01    7.441795e-01
