# == pyFAI calibration ==
# Distance Sample to Detector: 0.3999999939076516 m
# PONI: 9.750e-02, 1.135e-01 m
# Rotations: -0.000175 0.000000 -0.000000 rad
# 
# == Fit2d calibration ==
# Distance Sample-beamCenter: 400.000 mm
# Center: x=1514.000, y=1300.000 pix
# Tilt: 0.010 deg  TiltPlanRot: 0.010 deg
# 
# Detector Detector	 Spline= None	 PixelSize= 7.500e-05, 7.500e-05 m
#    Detector has a mask: False 
#    Detector has a dark current: False 
#    detector has a flat field: False 
# 
# Wavelength: 6.888e-11 m
# Mask applied: user provided
# Dark current applied: False
# Flat field applied: False
# Polarization factor: 0.99
# Normalization factor: 1.0
# --> /home/myspot/data/2024_07_Rosario/Ru-CGO-ex/2024-07-27_002_Ru-CGO-ex_Activtation_ramp_000002_data_000015.dat
#       q_nm^-1             I 
  2.003187e-02    0.000000e+00
  3.590745e-02    0.000000e+00
  5.178302e-02    4.781393e-02
  6.765859e-02    1.192965e-01
  8.353417e-02    1.183333e-01
  9.940974e-02    1.385350e-02
  1.152853e-01    4.834687e-02
  1.311609e-01    7.569604e-02
  1.470365e-01    3.511650e-02
  1.629120e-01    1.193912e-02
  1.787876e-01    0.000000e+00
  1.946632e-01    2.098279e-02
  2.105388e-01    7.288326e-02
  2.264143e-01    1.119466e-01
  2.422899e-01    2.733315e-02
  2.581655e-01    2.284897e-02
  2.740411e-01    6.595297e-02
  2.899166e-01    3.090083e-02
  3.057922e-01    8.191653e-02
  3.216678e-01    8.437604e-02
  3.375433e-01    7.257890e-02
  3.534189e-01    7.159500e-02
  3.692945e-01    9.589381e-03
  3.851701e-01    4.111966e-02
  4.010456e-01    7.191680e-02
  4.169212e-01    4.734763e-02
  4.327968e-01    4.031768e-02
  4.486724e-01    6.215864e-02
  4.645479e-01    6.975046e-02
  4.804235e-01    3.231160e-02
  4.962991e-01    8.845121e-03
  5.121747e-01    0.000000e+00
  5.280502e-01    8.328391e-03
  5.439258e-01    3.345877e-02
  5.598014e-01    5.554394e-02
  5.756770e-01    5.618352e-02
  5.915525e-01    3.134955e-02
  6.074281e-01    3.918106e-02
  6.233037e-01    3.267030e-02
  6.391793e-01    6.476866e-02
  6.550548e-01    3.910206e-02
  6.709304e-01    3.643948e-02
  6.868060e-01    2.749482e-02
  7.026815e-01    5.579485e-02
  7.185571e-01    2.805406e-02
  7.344327e-01    2.284309e-02
  7.503083e-01    4.704924e-02
  7.661838e-01    5.550370e-02
  7.820594e-01    5.812565e-02
  7.979350e-01    1.335030e-01
  8.138106e-01    2.067302e-01
  8.296861e-01    2.349659e-01
  8.455617e-01    2.763636e-01
  8.614373e-01    4.031029e-01
  8.773129e-01    5.139565e-01
  8.931884e-01    5.825236e-01
  9.090640e-01    6.351907e-01
  9.249396e-01    6.540604e-01
  9.408152e-01    7.145670e-01
  9.566907e-01    8.637142e-01
  9.725663e-01    9.273120e-01
  9.884419e-01    8.814657e-01
  1.004317e+00    1.027710e+00
  1.020193e+00    1.042101e+00
  1.036069e+00    1.088501e+00
  1.051944e+00    1.255434e+00
  1.067820e+00    1.310665e+00
  1.083695e+00    1.337134e+00
  1.099571e+00    1.392592e+00
  1.115446e+00    1.338440e+00
  1.131322e+00    1.392613e+00
  1.147198e+00    1.507989e+00
  1.163073e+00    1.495669e+00
  1.178949e+00    1.571802e+00
  1.194824e+00    1.659033e+00
  1.210700e+00    1.817686e+00
  1.226575e+00    2.031585e+00
  1.242451e+00    2.300148e+00
  1.258327e+00    2.346621e+00
  1.274202e+00    2.447110e+00
  1.290078e+00    2.653329e+00
  1.305953e+00    2.741638e+00
  1.321829e+00    2.524947e+00
  1.337705e+00    2.507924e+00
  1.353580e+00    2.579222e+00
  1.369456e+00    2.621694e+00
  1.385331e+00    2.611627e+00
  1.401207e+00    2.626425e+00
  1.417082e+00    2.604811e+00
  1.432958e+00    2.558858e+00
  1.448834e+00    2.754152e+00
  1.464709e+00    2.786268e+00
  1.480585e+00    2.952277e+00
  1.496460e+00    2.996065e+00
  1.512336e+00    3.039093e+00
  1.528211e+00    3.068752e+00
  1.544087e+00    3.148471e+00
  1.559963e+00    3.081573e+00
  1.575838e+00    3.084120e+00
  1.591714e+00    3.005007e+00
  1.607589e+00    2.974440e+00
  1.623465e+00    2.909354e+00
  1.639340e+00    3.052456e+00
  1.655216e+00    3.127689e+00
  1.671092e+00    2.917636e+00
  1.686967e+00    2.953054e+00
  1.702843e+00    2.877059e+00
  1.718718e+00    3.059991e+00
  1.734594e+00    2.883411e+00
  1.750469e+00    2.924134e+00
  1.766345e+00    2.811516e+00
  1.782221e+00    2.837896e+00
  1.798096e+00    2.900995e+00
  1.813972e+00    2.829259e+00
  1.829847e+00    2.906713e+00
  1.845723e+00    2.837167e+00
  1.861598e+00    2.751077e+00
  1.877474e+00    2.762735e+00
  1.893350e+00    2.912508e+00
  1.909225e+00    2.938164e+00
  1.925101e+00    2.819187e+00
  1.940976e+00    2.803581e+00
  1.956852e+00    2.786564e+00
  1.972727e+00    2.770840e+00
  1.988603e+00    2.751326e+00
  2.004479e+00    2.808547e+00
  2.020354e+00    2.846261e+00
  2.036230e+00    2.782871e+00
  2.052105e+00    2.718167e+00
  2.067981e+00    2.753089e+00
  2.083856e+00    2.771979e+00
  2.099732e+00    2.735480e+00
  2.115608e+00    2.803795e+00
  2.131483e+00    2.816073e+00
  2.147359e+00    2.693960e+00
  2.163234e+00    2.808085e+00
  2.179110e+00    2.860155e+00
  2.194985e+00    2.727827e+00
  2.210861e+00    2.806502e+00
  2.226737e+00    2.937688e+00
  2.242612e+00    2.807799e+00
  2.258488e+00    2.772235e+00
  2.274363e+00    2.728010e+00
  2.290239e+00    2.781746e+00
  2.306115e+00    2.709098e+00
  2.321990e+00    2.784569e+00
  2.337866e+00    2.793725e+00
  2.353741e+00    2.795330e+00
  2.369617e+00    2.912104e+00
  2.385492e+00    2.860108e+00
  2.401368e+00    2.752845e+00
  2.417244e+00    2.839694e+00
  2.433119e+00    2.945500e+00
  2.448995e+00    2.984219e+00
  2.464870e+00    2.892352e+00
  2.480746e+00    2.774045e+00
  2.496621e+00    2.867094e+00
  2.512497e+00    2.849568e+00
  2.528373e+00    2.788040e+00
  2.544248e+00    2.778961e+00
  2.560124e+00    2.779224e+00
  2.575999e+00    2.816131e+00
  2.591875e+00    2.899247e+00
  2.607750e+00    2.833863e+00
  2.623626e+00    2.941484e+00
  2.639502e+00    2.963583e+00
  2.655377e+00    2.819597e+00
  2.671253e+00    2.870269e+00
  2.687128e+00    2.802300e+00
  2.703004e+00    2.761893e+00
  2.718879e+00    2.868929e+00
  2.734755e+00    2.879845e+00
  2.750631e+00    2.862568e+00
  2.766506e+00    2.820697e+00
  2.782382e+00    2.867474e+00
  2.798257e+00    2.879442e+00
  2.814133e+00    2.867264e+00
  2.830008e+00    2.897655e+00
  2.845884e+00    2.843265e+00
  2.861760e+00    2.838114e+00
  2.877635e+00    2.934340e+00
  2.893511e+00    2.974791e+00
  2.909386e+00    3.006376e+00
  2.925262e+00    2.922437e+00
  2.941137e+00    2.940823e+00
  2.957013e+00    2.938377e+00
  2.972889e+00    2.891106e+00
  2.988764e+00    3.039582e+00
  3.004640e+00    2.985672e+00
  3.020515e+00    2.902703e+00
  3.036391e+00    2.864845e+00
  3.052266e+00    2.972420e+00
  3.068142e+00    2.896705e+00
  3.084018e+00    2.956182e+00
  3.099893e+00    3.020659e+00
  3.115769e+00    2.956652e+00
  3.131644e+00    2.884418e+00
  3.147520e+00    2.872925e+00
  3.163395e+00    2.911224e+00
  3.179271e+00    2.913890e+00
  3.195147e+00    2.928747e+00
  3.211022e+00    2.966191e+00
  3.226898e+00    2.897787e+00
  3.242773e+00    2.972943e+00
  3.258649e+00    2.970560e+00
  3.274525e+00    2.967918e+00
  3.290400e+00    3.010198e+00
  3.306276e+00    2.974068e+00
  3.322151e+00    2.920242e+00
  3.338027e+00    2.955143e+00
  3.353902e+00    2.955657e+00
  3.369778e+00    2.908581e+00
  3.385654e+00    2.955391e+00
  3.401529e+00    2.931152e+00
  3.417405e+00    2.934301e+00
  3.433280e+00    3.059175e+00
  3.449156e+00    2.976468e+00
  3.465031e+00    3.044743e+00
  3.480907e+00    2.974465e+00
  3.496783e+00    3.023856e+00
  3.512658e+00    3.023050e+00
  3.528534e+00    2.979500e+00
  3.544409e+00    2.939018e+00
  3.560285e+00    2.926250e+00
  3.576160e+00    2.920434e+00
  3.592036e+00    2.995353e+00
  3.607912e+00    3.039647e+00
  3.623787e+00    2.977668e+00
  3.639663e+00    3.036355e+00
  3.655538e+00    3.097356e+00
  3.671414e+00    3.114297e+00
  3.687289e+00    2.986670e+00
  3.703165e+00    2.928388e+00
  3.719041e+00    2.990891e+00
  3.734916e+00    3.007037e+00
  3.750792e+00    2.991963e+00
  3.766667e+00    3.056060e+00
  3.782543e+00    3.056392e+00
  3.798418e+00    3.049277e+00
  3.814294e+00    3.041838e+00
  3.830170e+00    3.070894e+00
  3.846045e+00    3.073181e+00
  3.861921e+00    2.977337e+00
  3.877796e+00    2.971924e+00
  3.893672e+00    2.978580e+00
  3.909547e+00    3.026717e+00
  3.925423e+00    2.967237e+00
  3.941299e+00    3.047307e+00
  3.957174e+00    3.115535e+00
  3.973050e+00    3.068176e+00
  3.988925e+00    3.066125e+00
  4.004801e+00    3.009957e+00
  4.020676e+00    3.048845e+00
  4.036552e+00    3.132750e+00
  4.052428e+00    3.017959e+00
  4.068303e+00    3.027694e+00
  4.084179e+00    3.081841e+00
  4.100054e+00    3.095299e+00
  4.115930e+00    3.136208e+00
  4.131806e+00    3.164956e+00
  4.147681e+00    3.050322e+00
  4.163557e+00    3.014795e+00
  4.179432e+00    3.038985e+00
  4.195308e+00    3.026500e+00
  4.211183e+00    3.067054e+00
  4.227059e+00    3.074339e+00
  4.242935e+00    3.111814e+00
  4.258810e+00    3.120313e+00
  4.274686e+00    3.126997e+00
  4.290561e+00    3.071427e+00
  4.306437e+00    3.091663e+00
  4.322312e+00    3.016987e+00
  4.338188e+00    3.018486e+00
  4.354064e+00    3.048255e+00
  4.369939e+00    3.126032e+00
  4.385815e+00    3.092806e+00
  4.401690e+00    3.110642e+00
  4.417566e+00    3.150648e+00
  4.433441e+00    3.120258e+00
  4.449317e+00    3.098036e+00
  4.465193e+00    3.035420e+00
  4.481068e+00    3.027413e+00
  4.496944e+00    3.058083e+00
  4.512819e+00    3.031476e+00
  4.528695e+00    3.095185e+00
  4.544570e+00    3.053823e+00
  4.560446e+00    3.042597e+00
  4.576322e+00    3.169897e+00
  4.592197e+00    3.144426e+00
  4.608073e+00    3.035266e+00
  4.623948e+00    3.125690e+00
  4.639824e+00    3.160697e+00
  4.655699e+00    3.176756e+00
  4.671575e+00    3.115923e+00
  4.687451e+00    3.142469e+00
  4.703326e+00    3.143569e+00
  4.719202e+00    3.104195e+00
  4.735077e+00    3.318860e+00
  4.750953e+00    3.194035e+00
  4.766828e+00    3.105190e+00
  4.782704e+00    3.136151e+00
  4.798580e+00    3.176273e+00
  4.814455e+00    3.113651e+00
  4.830331e+00    3.082748e+00
  4.846206e+00    3.139975e+00
  4.862082e+00    3.174718e+00
  4.877957e+00    3.223399e+00
  4.893833e+00    3.241129e+00
  4.909709e+00    3.217789e+00
  4.925584e+00    3.136391e+00
  4.941460e+00    3.154763e+00
  4.957335e+00    3.096105e+00
  4.973211e+00    3.112863e+00
  4.989086e+00    3.118656e+00
  5.004962e+00    3.114079e+00
  5.020838e+00    3.150727e+00
  5.036713e+00    3.125426e+00
  5.052589e+00    3.187315e+00
  5.068464e+00    3.270394e+00
  5.084340e+00    3.144729e+00
  5.100216e+00    3.175061e+00
  5.116091e+00    3.216990e+00
  5.131967e+00    3.188963e+00
  5.147842e+00    3.128572e+00
  5.163718e+00    3.118686e+00
  5.179593e+00    3.206066e+00
  5.195469e+00    3.224838e+00
  5.211345e+00    3.140140e+00
  5.227220e+00    3.181813e+00
  5.243096e+00    3.243165e+00
  5.258971e+00    3.119566e+00
  5.274847e+00    3.144853e+00
  5.290722e+00    3.183699e+00
  5.306598e+00    3.138209e+00
  5.322474e+00    3.179675e+00
  5.338349e+00    3.110068e+00
  5.354225e+00    3.128089e+00
  5.370100e+00    3.226198e+00
  5.385976e+00    3.145059e+00
  5.401851e+00    3.080787e+00
  5.417727e+00    3.144490e+00
  5.433603e+00    3.150545e+00
  5.449478e+00    3.113139e+00
  5.465354e+00    3.159579e+00
  5.481229e+00    3.116586e+00
  5.497105e+00    3.145317e+00
  5.512980e+00    3.146116e+00
  5.528856e+00    3.158846e+00
  5.544732e+00    3.155725e+00
  5.560607e+00    3.122964e+00
  5.576483e+00    3.133639e+00
  5.592358e+00    3.125645e+00
  5.608234e+00    3.125339e+00
  5.624109e+00    3.050744e+00
  5.639985e+00    3.075645e+00
  5.655861e+00    3.107206e+00
  5.671736e+00    3.184339e+00
  5.687612e+00    3.167980e+00
  5.703487e+00    3.139743e+00
  5.719363e+00    3.031758e+00
  5.735238e+00    3.042263e+00
  5.751114e+00    3.140395e+00
  5.766990e+00    3.125840e+00
  5.782865e+00    3.059910e+00
  5.798741e+00    3.102377e+00
  5.814616e+00    3.088166e+00
  5.830492e+00    3.057117e+00
  5.846367e+00    3.070209e+00
  5.862243e+00    3.058991e+00
  5.878119e+00    3.044423e+00
  5.893994e+00    3.015637e+00
  5.909870e+00    3.068663e+00
  5.925745e+00    3.040941e+00
  5.941621e+00    2.998485e+00
  5.957497e+00    3.025286e+00
  5.973372e+00    3.078570e+00
  5.989248e+00    3.071196e+00
  6.005123e+00    3.062610e+00
  6.020999e+00    3.014661e+00
  6.036874e+00    3.031911e+00
  6.052750e+00    2.998598e+00
  6.068626e+00    3.009576e+00
  6.084501e+00    3.082360e+00
  6.100377e+00    3.134127e+00
  6.116252e+00    3.106887e+00
  6.132128e+00    3.112217e+00
  6.148003e+00    3.069695e+00
  6.163879e+00    3.046170e+00
  6.179755e+00    3.109155e+00
  6.195630e+00    3.039256e+00
  6.211506e+00    3.028304e+00
  6.227381e+00    3.035458e+00
  6.243257e+00    3.062139e+00
  6.259132e+00    3.051184e+00
  6.275008e+00    3.142075e+00
  6.290884e+00    3.059857e+00
  6.306759e+00    3.024818e+00
  6.322635e+00    2.989696e+00
  6.338510e+00    2.951736e+00
  6.354386e+00    3.027742e+00
  6.370261e+00    3.017960e+00
  6.386137e+00    3.124437e+00
  6.402013e+00    3.112759e+00
  6.417888e+00    3.184620e+00
  6.433764e+00    3.168086e+00
  6.449639e+00    3.088651e+00
  6.465515e+00    3.085429e+00
  6.481390e+00    3.019966e+00
  6.497266e+00    3.006607e+00
  6.513142e+00    3.061079e+00
  6.529017e+00    3.101792e+00
  6.544893e+00    3.049599e+00
  6.560768e+00    3.020387e+00
  6.576644e+00    3.107364e+00
  6.592519e+00    3.046895e+00
  6.608395e+00    3.039405e+00
  6.624271e+00    3.039739e+00
  6.640146e+00    2.994475e+00
  6.656022e+00    3.035047e+00
  6.671897e+00    2.994153e+00
  6.687773e+00    3.045531e+00
  6.703648e+00    3.087534e+00
  6.719524e+00    3.036402e+00
  6.735400e+00    3.005347e+00
  6.751275e+00    3.058643e+00
  6.767151e+00    3.067929e+00
  6.783026e+00    3.132813e+00
  6.798902e+00    3.099420e+00
  6.814777e+00    2.980357e+00
  6.830653e+00    2.985355e+00
  6.846529e+00    3.060886e+00
  6.862404e+00    3.063551e+00
  6.878280e+00    3.026768e+00
  6.894155e+00    3.103609e+00
  6.910031e+00    3.051175e+00
  6.925907e+00    3.007174e+00
  6.941782e+00    2.990754e+00
  6.957658e+00    3.091691e+00
  6.973533e+00    3.034615e+00
  6.989409e+00    3.106136e+00
  7.005284e+00    3.032268e+00
  7.021160e+00    3.018542e+00
  7.037036e+00    2.994679e+00
  7.052911e+00    3.081512e+00
  7.068787e+00    2.982548e+00
  7.084662e+00    2.952387e+00
  7.100538e+00    3.040017e+00
  7.116413e+00    3.060445e+00
  7.132289e+00    3.042257e+00
  7.148165e+00    3.002379e+00
  7.164040e+00    3.004088e+00
  7.179916e+00    2.998326e+00
  7.195791e+00    3.028605e+00
  7.211667e+00    3.064970e+00
  7.227542e+00    2.970011e+00
  7.243418e+00    3.063472e+00
  7.259294e+00    2.985266e+00
  7.275169e+00    3.035939e+00
  7.291045e+00    3.058021e+00
  7.306920e+00    3.029250e+00
  7.322796e+00    3.010105e+00
  7.338671e+00    3.014153e+00
  7.354547e+00    2.972985e+00
  7.370423e+00    2.938978e+00
  7.386298e+00    2.943192e+00
  7.402174e+00    2.998411e+00
  7.418049e+00    2.972319e+00
  7.433925e+00    3.099073e+00
  7.449800e+00    3.078488e+00
  7.465676e+00    3.017502e+00
  7.481552e+00    2.952719e+00
  7.497427e+00    2.995434e+00
  7.513303e+00    3.073293e+00
  7.529178e+00    3.034285e+00
  7.545054e+00    3.007743e+00
  7.560929e+00    2.984262e+00
  7.576805e+00    2.942035e+00
  7.592681e+00    2.979970e+00
  7.608556e+00    3.033203e+00
  7.624432e+00    3.045452e+00
  7.640307e+00    3.022653e+00
  7.656183e+00    2.967503e+00
  7.672058e+00    2.979478e+00
  7.687934e+00    3.045261e+00
  7.703810e+00    2.986892e+00
  7.719685e+00    2.945789e+00
  7.735561e+00    2.916548e+00
  7.751436e+00    2.869914e+00
  7.767312e+00    2.930086e+00
  7.783187e+00    2.900454e+00
  7.799063e+00    3.005651e+00
  7.814939e+00    2.982863e+00
  7.830814e+00    2.918897e+00
  7.846690e+00    2.962805e+00
  7.862565e+00    2.967724e+00
  7.878441e+00    2.922001e+00
  7.894317e+00    2.873758e+00
  7.910192e+00    2.916021e+00
  7.926068e+00    2.992628e+00
  7.941943e+00    2.954921e+00
  7.957819e+00    2.943177e+00
  7.973694e+00    2.885742e+00
  7.989570e+00    2.992582e+00
  8.005446e+00    2.986188e+00
  8.021321e+00    2.964142e+00
  8.037197e+00    2.982973e+00
  8.053072e+00    2.954085e+00
  8.068948e+00    2.970718e+00
  8.084823e+00    3.011974e+00
  8.100699e+00    2.965017e+00
  8.116575e+00    2.920945e+00
  8.132450e+00    2.985820e+00
  8.148326e+00    3.009382e+00
  8.164201e+00    2.995280e+00
  8.180077e+00    3.011231e+00
  8.195952e+00    2.960501e+00
  8.211828e+00    2.979426e+00
  8.227704e+00    3.004973e+00
  8.243579e+00    2.959797e+00
  8.259455e+00    2.929961e+00
  8.275330e+00    2.912492e+00
  8.291206e+00    2.891913e+00
  8.307081e+00    2.861916e+00
  8.322957e+00    2.917830e+00
  8.338833e+00    2.949950e+00
  8.354708e+00    2.889861e+00
  8.370584e+00    2.894946e+00
  8.386459e+00    2.899810e+00
  8.402335e+00    2.918126e+00
  8.418210e+00    2.870917e+00
  8.434086e+00    2.949930e+00
  8.449962e+00    2.892411e+00
  8.465837e+00    2.874562e+00
  8.481713e+00    2.930031e+00
  8.497588e+00    2.938318e+00
  8.513464e+00    2.886788e+00
  8.529339e+00    2.853267e+00
  8.545215e+00    2.877246e+00
  8.561091e+00    2.993901e+00
  8.576966e+00    2.941197e+00
  8.592842e+00    2.909529e+00
  8.608717e+00    2.956742e+00
  8.624593e+00    2.885983e+00
  8.640468e+00    2.885809e+00
  8.656344e+00    2.972490e+00
  8.672220e+00    2.908565e+00
  8.688095e+00    2.910134e+00
  8.703971e+00    2.830624e+00
  8.719846e+00    2.811880e+00
  8.735722e+00    2.869088e+00
  8.751598e+00    2.851667e+00
  8.767473e+00    2.867764e+00
  8.783349e+00    2.881351e+00
  8.799224e+00    2.864916e+00
  8.815100e+00    2.853931e+00
  8.830975e+00    2.852540e+00
  8.846851e+00    2.934244e+00
  8.862727e+00    2.887243e+00
  8.878602e+00    2.873706e+00
  8.894478e+00    2.889516e+00
  8.910353e+00    2.894460e+00
  8.926229e+00    2.887903e+00
  8.942104e+00    2.854160e+00
  8.957980e+00    2.885620e+00
  8.973856e+00    2.900438e+00
  8.989731e+00    2.849816e+00
  9.005607e+00    2.795711e+00
  9.021482e+00    2.834043e+00
  9.037358e+00    2.848508e+00
  9.053233e+00    2.837312e+00
  9.069109e+00    2.821143e+00
  9.084985e+00    2.822976e+00
  9.100860e+00    2.838809e+00
  9.116736e+00    2.804574e+00
  9.132611e+00    2.818987e+00
  9.148487e+00    2.814256e+00
  9.164362e+00    2.858312e+00
  9.180238e+00    2.834012e+00
  9.196114e+00    2.803034e+00
  9.211989e+00    2.788846e+00
  9.227865e+00    2.817070e+00
  9.243740e+00    2.790473e+00
  9.259616e+00    2.792616e+00
  9.275491e+00    2.793818e+00
  9.291367e+00    2.766211e+00
  9.307243e+00    2.766419e+00
  9.323118e+00    2.810852e+00
  9.338994e+00    2.819299e+00
  9.354869e+00    2.778384e+00
  9.370745e+00    2.764167e+00
  9.386620e+00    2.759817e+00
  9.402496e+00    2.775608e+00
  9.418372e+00    2.792058e+00
  9.434247e+00    2.801062e+00
  9.450123e+00    2.775918e+00
  9.465998e+00    2.826088e+00
  9.481874e+00    2.757134e+00
  9.497749e+00    2.822331e+00
  9.513625e+00    2.814265e+00
  9.529501e+00    2.797312e+00
  9.545376e+00    2.780749e+00
  9.561252e+00    2.808887e+00
  9.577127e+00    2.757402e+00
  9.593003e+00    2.816724e+00
  9.608878e+00    2.826883e+00
  9.624754e+00    2.765270e+00
  9.640630e+00    2.761727e+00
  9.656505e+00    2.765241e+00
  9.672381e+00    2.788227e+00
  9.688256e+00    2.792539e+00
  9.704132e+00    2.776918e+00
  9.720008e+00    2.803503e+00
  9.735883e+00    2.784532e+00
  9.751759e+00    2.758900e+00
  9.767634e+00    2.761330e+00
  9.783510e+00    2.752248e+00
  9.799385e+00    2.758377e+00
  9.815261e+00    2.751840e+00
  9.831137e+00    2.777532e+00
  9.847012e+00    2.713356e+00
  9.862888e+00    2.735188e+00
  9.878763e+00    2.798050e+00
  9.894639e+00    2.767120e+00
  9.910514e+00    2.759861e+00
  9.926390e+00    2.756078e+00
  9.942266e+00    2.782261e+00
  9.958141e+00    2.744641e+00
  9.974017e+00    2.691887e+00
  9.989892e+00    2.678039e+00
  1.000577e+01    2.702652e+00
  1.002164e+01    2.696686e+00
  1.003752e+01    2.697880e+00
  1.005339e+01    2.671810e+00
  1.006927e+01    2.671206e+00
  1.008515e+01    2.635334e+00
  1.010102e+01    2.645295e+00
  1.011690e+01    2.677058e+00
  1.013277e+01    2.734496e+00
  1.014865e+01    2.702266e+00
  1.016452e+01    2.638455e+00
  1.018040e+01    2.672924e+00
  1.019627e+01    2.653814e+00
  1.021215e+01    2.660393e+00
  1.022803e+01    2.670404e+00
  1.024390e+01    2.663144e+00
  1.025978e+01    2.600218e+00
  1.027565e+01    2.675244e+00
  1.029153e+01    2.690330e+00
  1.030740e+01    2.621063e+00
  1.032328e+01    2.627647e+00
  1.033915e+01    2.627561e+00
  1.035503e+01    2.601345e+00
  1.037091e+01    2.676381e+00
  1.038678e+01    2.669043e+00
  1.040266e+01    2.676747e+00
  1.041853e+01    2.677464e+00
  1.043441e+01    2.659186e+00
  1.045028e+01    2.677357e+00
  1.046616e+01    2.659789e+00
  1.048204e+01    2.617304e+00
  1.049791e+01    2.604284e+00
  1.051379e+01    2.573038e+00
  1.052966e+01    2.615759e+00
  1.054554e+01    2.591144e+00
  1.056141e+01    2.630866e+00
  1.057729e+01    2.614596e+00
  1.059316e+01    2.644590e+00
  1.060904e+01    2.598309e+00
  1.062492e+01    2.537154e+00
  1.064079e+01    2.539425e+00
  1.065667e+01    2.595035e+00
  1.067254e+01    2.579612e+00
  1.068842e+01    2.586015e+00
  1.070429e+01    2.582584e+00
  1.072017e+01    2.578533e+00
  1.073604e+01    2.587687e+00
  1.075192e+01    2.576506e+00
  1.076780e+01    2.570025e+00
  1.078367e+01    2.530582e+00
  1.079955e+01    2.547930e+00
  1.081542e+01    2.543021e+00
  1.083130e+01    2.526595e+00
  1.084717e+01    2.539564e+00
  1.086305e+01    2.561307e+00
  1.087892e+01    2.535853e+00
  1.089480e+01    2.577314e+00
  1.091068e+01    2.553544e+00
  1.092655e+01    2.548858e+00
  1.094243e+01    2.549765e+00
  1.095830e+01    2.533026e+00
  1.097418e+01    2.522867e+00
  1.099005e+01    2.509640e+00
  1.100593e+01    2.531265e+00
  1.102180e+01    2.529051e+00
  1.103768e+01    2.493532e+00
  1.105356e+01    2.504829e+00
  1.106943e+01    2.486144e+00
  1.108531e+01    2.476538e+00
  1.110118e+01    2.510515e+00
  1.111706e+01    2.454271e+00
  1.113293e+01    2.460652e+00
  1.114881e+01    2.444282e+00
  1.116468e+01    2.477557e+00
  1.118056e+01    2.463596e+00
  1.119644e+01    2.466268e+00
  1.121231e+01    2.460128e+00
  1.122819e+01    2.468693e+00
  1.124406e+01    2.513189e+00
  1.125994e+01    2.536144e+00
  1.127581e+01    2.408052e+00
  1.129169e+01    2.448785e+00
  1.130756e+01    2.459203e+00
  1.132344e+01    2.455824e+00
  1.133932e+01    2.503707e+00
  1.135519e+01    2.489405e+00
  1.137107e+01    2.478700e+00
  1.138694e+01    2.474807e+00
  1.140282e+01    2.402024e+00
  1.141869e+01    2.390115e+00
  1.143457e+01    2.401378e+00
  1.145045e+01    2.431813e+00
  1.146632e+01    2.441907e+00
  1.148220e+01    2.461259e+00
  1.149807e+01    2.461684e+00
  1.151395e+01    2.438822e+00
  1.152982e+01    2.390240e+00
  1.154570e+01    2.395045e+00
  1.156157e+01    2.370094e+00
  1.157745e+01    2.416550e+00
  1.159333e+01    2.427288e+00
  1.160920e+01    2.412497e+00
  1.162508e+01    2.377337e+00
  1.164095e+01    2.411628e+00
  1.165683e+01    2.379296e+00
  1.167270e+01    2.411032e+00
  1.168858e+01    2.392260e+00
  1.170445e+01    2.368120e+00
  1.172033e+01    2.370832e+00
  1.173621e+01    2.424301e+00
  1.175208e+01    2.388333e+00
  1.176796e+01    2.387052e+00
  1.178383e+01    2.405156e+00
  1.179971e+01    2.425158e+00
  1.181558e+01    2.389102e+00
  1.183146e+01    2.332581e+00
  1.184733e+01    2.352424e+00
  1.186321e+01    2.383301e+00
  1.187909e+01    2.363253e+00
  1.189496e+01    2.368922e+00
  1.191084e+01    2.359909e+00
  1.192671e+01    2.340270e+00
  1.194259e+01    2.350102e+00
  1.195846e+01    2.391809e+00
  1.197434e+01    2.431180e+00
  1.199021e+01    2.424655e+00
  1.200609e+01    2.347088e+00
  1.202197e+01    2.336446e+00
  1.203784e+01    2.373809e+00
  1.205372e+01    2.381116e+00
  1.206959e+01    2.372605e+00
  1.208547e+01    2.381525e+00
  1.210134e+01    2.434532e+00
  1.211722e+01    2.367639e+00
  1.213309e+01    2.342336e+00
  1.214897e+01    2.361894e+00
  1.216485e+01    2.385879e+00
  1.218072e+01    2.357303e+00
  1.219660e+01    2.374922e+00
  1.221247e+01    2.365065e+00
  1.222835e+01    2.319433e+00
  1.224422e+01    2.344350e+00
  1.226010e+01    2.370745e+00
  1.227597e+01    2.316122e+00
  1.229185e+01    2.352748e+00
  1.230773e+01    2.350611e+00
  1.232360e+01    2.349819e+00
  1.233948e+01    2.381864e+00
  1.235535e+01    2.368565e+00
  1.237123e+01    2.323550e+00
  1.238710e+01    2.358852e+00
  1.240298e+01    2.342473e+00
  1.241886e+01    2.384725e+00
  1.243473e+01    2.393935e+00
  1.245061e+01    2.390961e+00
  1.246648e+01    2.373577e+00
  1.248236e+01    2.350917e+00
  1.249823e+01    2.382672e+00
  1.251411e+01    2.411655e+00
  1.252998e+01    2.434631e+00
  1.254586e+01    2.389702e+00
  1.256174e+01    2.379248e+00
  1.257761e+01    2.380801e+00
  1.259349e+01    2.384939e+00
  1.260936e+01    2.395101e+00
  1.262524e+01    2.426558e+00
  1.264111e+01    2.462983e+00
  1.265699e+01    2.510602e+00
  1.267286e+01    2.482960e+00
  1.268874e+01    2.521011e+00
  1.270462e+01    2.528453e+00
  1.272049e+01    2.511394e+00
  1.273637e+01    2.571434e+00
  1.275224e+01    2.591689e+00
  1.276812e+01    2.664114e+00
  1.278399e+01    2.683842e+00
  1.279987e+01    2.759625e+00
  1.281574e+01    2.816658e+00
  1.283162e+01    2.818370e+00
  1.284750e+01    2.891539e+00
  1.286337e+01    2.905026e+00
  1.287925e+01    3.048109e+00
  1.289512e+01    3.205893e+00
  1.291100e+01    3.336697e+00
  1.292687e+01    3.479703e+00
  1.294275e+01    3.725997e+00
  1.295862e+01    3.927242e+00
  1.297450e+01    4.239934e+00
  1.299038e+01    4.671958e+00
  1.300625e+01    5.124697e+00
  1.302213e+01    5.778212e+00
  1.303800e+01    6.620805e+00
  1.305388e+01    7.679525e+00
  1.306975e+01    8.968708e+00
  1.308563e+01    1.048703e+01
  1.310150e+01    1.204517e+01
  1.311738e+01    1.367519e+01
  1.313326e+01    1.519922e+01
  1.314913e+01    1.655565e+01
  1.316501e+01    1.797808e+01
  1.318088e+01    1.928373e+01
  1.319676e+01    2.000154e+01
  1.321263e+01    1.976828e+01
  1.322851e+01    1.859867e+01
  1.324438e+01    1.652795e+01
  1.326026e+01    1.418805e+01
  1.327614e+01    1.184547e+01
  1.329201e+01    9.865950e+00
  1.330789e+01    8.417080e+00
  1.332376e+01    7.180474e+00
  1.333964e+01    6.210116e+00
  1.335551e+01    5.565893e+00
  1.337139e+01    4.965032e+00
  1.338727e+01    4.410898e+00
  1.340314e+01    4.100695e+00
  1.341902e+01    3.845930e+00
  1.343489e+01    3.558964e+00
  1.345077e+01    3.368678e+00
  1.346664e+01    3.246629e+00
  1.348252e+01    3.075904e+00
  1.349839e+01    2.970294e+00
  1.351427e+01    2.883878e+00
  1.353015e+01    2.776307e+00
  1.354602e+01    2.702842e+00
  1.356190e+01    2.644793e+00
  1.357777e+01    2.592104e+00
  1.359365e+01    2.594931e+00
  1.360952e+01    2.498199e+00
  1.362540e+01    2.448810e+00
  1.364127e+01    2.435370e+00
  1.365715e+01    2.416264e+00
  1.367303e+01    2.379954e+00
  1.368890e+01    2.385000e+00
  1.370478e+01    2.360840e+00
  1.372065e+01    2.328722e+00
  1.373653e+01    2.263362e+00
  1.375240e+01    2.266600e+00
  1.376828e+01    2.280423e+00
  1.378415e+01    2.226394e+00
  1.380003e+01    2.250850e+00
  1.381591e+01    2.264084e+00
  1.383178e+01    2.229540e+00
  1.384766e+01    2.255061e+00
  1.386353e+01    2.203145e+00
  1.387941e+01    2.186368e+00
  1.389528e+01    2.124644e+00
  1.391116e+01    2.125960e+00
  1.392703e+01    2.146343e+00
  1.394291e+01    2.113089e+00
  1.395879e+01    2.167774e+00
  1.397466e+01    2.149759e+00
  1.399054e+01    2.120863e+00
  1.400641e+01    2.105879e+00
  1.402229e+01    2.121650e+00
  1.403816e+01    2.117009e+00
  1.405404e+01    2.098578e+00
  1.406991e+01    2.109914e+00
  1.408579e+01    2.080079e+00
  1.410167e+01    2.049390e+00
  1.411754e+01    2.033738e+00
  1.413342e+01    2.033111e+00
  1.414929e+01    2.042647e+00
  1.416517e+01    2.025414e+00
  1.418104e+01    1.986165e+00
  1.419692e+01    2.049307e+00
  1.421279e+01    2.035475e+00
  1.422867e+01    2.030093e+00
  1.424455e+01    2.012649e+00
  1.426042e+01    1.986355e+00
  1.427630e+01    1.991648e+00
  1.429217e+01    2.008338e+00
  1.430805e+01    1.983779e+00
  1.432392e+01    1.976025e+00
  1.433980e+01    1.992594e+00
  1.435568e+01    1.966501e+00
  1.437155e+01    1.992766e+00
  1.438743e+01    1.950788e+00
  1.440330e+01    1.936044e+00
  1.441918e+01    1.939512e+00
  1.443505e+01    1.934995e+00
  1.445093e+01    1.952383e+00
  1.446680e+01    1.959548e+00
  1.448268e+01    1.949939e+00
  1.449856e+01    1.953981e+00
  1.451443e+01    1.939828e+00
  1.453031e+01    1.916209e+00
  1.454618e+01    1.924868e+00
  1.456206e+01    1.936537e+00
  1.457793e+01    1.953027e+00
  1.459381e+01    1.944979e+00
  1.460968e+01    1.929124e+00
  1.462556e+01    1.932424e+00
  1.464144e+01    1.942563e+00
  1.465731e+01    1.948939e+00
  1.467319e+01    1.928929e+00
  1.468906e+01    1.906327e+00
  1.470494e+01    1.922035e+00
  1.472081e+01    1.905235e+00
  1.473669e+01    1.910780e+00
  1.475256e+01    1.946852e+00
  1.476844e+01    1.964731e+00
  1.478432e+01    1.941434e+00
  1.480019e+01    1.948675e+00
  1.481607e+01    1.923667e+00
  1.483194e+01    1.942618e+00
  1.484782e+01    1.964063e+00
  1.486369e+01    1.997222e+00
  1.487957e+01    2.000126e+00
  1.489544e+01    2.000926e+00
  1.491132e+01    1.970536e+00
  1.492720e+01    2.022823e+00
  1.494307e+01    2.033991e+00
  1.495895e+01    2.024354e+00
  1.497482e+01    2.059288e+00
  1.499070e+01    2.113632e+00
  1.500657e+01    2.158669e+00
  1.502245e+01    2.195873e+00
  1.503832e+01    2.295701e+00
  1.505420e+01    2.370138e+00
  1.507008e+01    2.450252e+00
  1.508595e+01    2.560745e+00
  1.510183e+01    2.779452e+00
  1.511770e+01    2.974143e+00
  1.513358e+01    3.254416e+00
  1.514945e+01    3.527192e+00
  1.516533e+01    3.927787e+00
  1.518120e+01    4.393478e+00
  1.519708e+01    4.890909e+00
  1.521296e+01    5.293418e+00
  1.522883e+01    5.666987e+00
  1.524471e+01    6.094922e+00
  1.526058e+01    6.339833e+00
  1.527646e+01    6.534917e+00
  1.529233e+01    6.643993e+00
  1.530821e+01    6.578176e+00
  1.532409e+01    6.257588e+00
  1.533996e+01    5.702465e+00
  1.535584e+01    5.107666e+00
  1.537171e+01    4.469415e+00
  1.538759e+01    3.929226e+00
  1.540346e+01    3.511178e+00
  1.541934e+01    3.115658e+00
  1.543521e+01    2.851061e+00
  1.545109e+01    2.685048e+00
  1.546697e+01    2.542186e+00
  1.548284e+01    2.426193e+00
  1.549872e+01    2.298607e+00
  1.551459e+01    2.214759e+00
  1.553047e+01    2.116168e+00
  1.554634e+01    2.057790e+00
  1.556222e+01    2.002081e+00
  1.557809e+01    1.945811e+00
  1.559397e+01    1.954976e+00
  1.560985e+01    1.920962e+00
  1.562572e+01    1.864917e+00
  1.564160e+01    1.866275e+00
  1.565747e+01    1.832080e+00
  1.567335e+01    1.795271e+00
  1.568922e+01    1.794305e+00
  1.570510e+01    1.777724e+00
  1.572097e+01    1.776907e+00
  1.573685e+01    1.791549e+00
  1.575273e+01    1.760926e+00
  1.576860e+01    1.803889e+00
  1.578448e+01    1.764451e+00
  1.580035e+01    1.727886e+00
  1.581623e+01    1.707299e+00
  1.583210e+01    1.703259e+00
  1.584798e+01    1.739898e+00
  1.586385e+01    1.706839e+00
  1.587973e+01    1.675317e+00
  1.589561e+01    1.664633e+00
  1.591148e+01    1.671352e+00
  1.592736e+01    1.647804e+00
  1.594323e+01    1.674150e+00
  1.595911e+01    1.689495e+00
  1.597498e+01    1.642775e+00
  1.599086e+01    1.646665e+00
  1.600673e+01    1.636458e+00
  1.602261e+01    1.598126e+00
  1.603849e+01    1.618699e+00
  1.605436e+01    1.618917e+00
  1.607024e+01    1.608329e+00
  1.608611e+01    1.637817e+00
  1.610199e+01    1.602781e+00
  1.611786e+01    1.602411e+00
  1.613374e+01    1.609566e+00
  1.614961e+01    1.597156e+00
  1.616549e+01    1.602895e+00
  1.618137e+01    1.558989e+00
  1.619724e+01    1.581337e+00
  1.621312e+01    1.621903e+00
  1.622899e+01    1.593308e+00
  1.624487e+01    1.582541e+00
  1.626074e+01    1.583038e+00
  1.627662e+01    1.571774e+00
  1.629250e+01    1.585970e+00
  1.630837e+01    1.590678e+00
  1.632425e+01    1.561423e+00
  1.634012e+01    1.565006e+00
  1.635600e+01    1.562355e+00
  1.637187e+01    1.528150e+00
  1.638775e+01    1.523146e+00
  1.640362e+01    1.535822e+00
  1.641950e+01    1.540310e+00
  1.643538e+01    1.559541e+00
  1.645125e+01    1.574476e+00
  1.646713e+01    1.575269e+00
  1.648300e+01    1.564481e+00
  1.649888e+01    1.515985e+00
  1.651475e+01    1.515741e+00
  1.653063e+01    1.527980e+00
  1.654650e+01    1.535012e+00
  1.656238e+01    1.518412e+00
  1.657826e+01    1.515297e+00
  1.659413e+01    1.530120e+00
  1.661001e+01    1.524960e+00
  1.662588e+01    1.519409e+00
  1.664176e+01    1.524080e+00
  1.665763e+01    1.494164e+00
  1.667351e+01    1.512173e+00
  1.668938e+01    1.518963e+00
  1.670526e+01    1.531398e+00
  1.672114e+01    1.488237e+00
  1.673701e+01    1.488691e+00
  1.675289e+01    1.498241e+00
  1.676876e+01    1.473481e+00
  1.678464e+01    1.501048e+00
  1.680051e+01    1.500017e+00
  1.681639e+01    1.467473e+00
  1.683226e+01    1.444726e+00
  1.684814e+01    1.493054e+00
  1.686402e+01    1.490673e+00
  1.687989e+01    1.507213e+00
  1.689577e+01    1.480229e+00
  1.691164e+01    1.474078e+00
  1.692752e+01    1.504540e+00
  1.694339e+01    1.485721e+00
  1.695927e+01    1.476366e+00
  1.697514e+01    1.436477e+00
  1.699102e+01    1.445188e+00
  1.700690e+01    1.467466e+00
  1.702277e+01    1.451672e+00
  1.703865e+01    1.446129e+00
  1.705452e+01    1.464724e+00
  1.707040e+01    1.464749e+00
  1.708627e+01    1.459419e+00
  1.710215e+01    1.433207e+00
  1.711802e+01    1.444933e+00
  1.713390e+01    1.430721e+00
  1.714978e+01    1.448404e+00
  1.716565e+01    1.438286e+00
  1.718153e+01    1.423640e+00
  1.719740e+01    1.423458e+00
  1.721328e+01    1.417456e+00
  1.722915e+01    1.434030e+00
  1.724503e+01    1.419402e+00
  1.726091e+01    1.420065e+00
  1.727678e+01    1.415063e+00
  1.729266e+01    1.394403e+00
  1.730853e+01    1.395825e+00
  1.732441e+01    1.416611e+00
  1.734028e+01    1.394650e+00
  1.735616e+01    1.402768e+00
  1.737203e+01    1.401069e+00
  1.738791e+01    1.395018e+00
  1.740379e+01    1.408809e+00
  1.741966e+01    1.371177e+00
  1.743554e+01    1.374066e+00
  1.745141e+01    1.379397e+00
  1.746729e+01    1.376190e+00
  1.748316e+01    1.384876e+00
  1.749904e+01    1.397660e+00
  1.751491e+01    1.379761e+00
  1.753079e+01    1.378443e+00
  1.754667e+01    1.379885e+00
  1.756254e+01    1.425582e+00
  1.757842e+01    1.399302e+00
  1.759429e+01    1.379575e+00
  1.761017e+01    1.392184e+00
  1.762604e+01    1.369972e+00
  1.764192e+01    1.358836e+00
  1.765779e+01    1.390265e+00
  1.767367e+01    1.386674e+00
  1.768955e+01    1.356871e+00
  1.770542e+01    1.353987e+00
  1.772130e+01    1.378624e+00
  1.773717e+01    1.372728e+00
  1.775305e+01    1.376132e+00
  1.776892e+01    1.345826e+00
  1.778480e+01    1.347036e+00
  1.780067e+01    1.367608e+00
  1.781655e+01    1.352538e+00
  1.783243e+01    1.339964e+00
  1.784830e+01    1.331171e+00
  1.786418e+01    1.343966e+00
  1.788005e+01    1.327591e+00
  1.789593e+01    1.332753e+00
  1.791180e+01    1.339406e+00
  1.792768e+01    1.334656e+00
  1.794355e+01    1.295758e+00
  1.795943e+01    1.326559e+00
  1.797531e+01    1.348965e+00
  1.799118e+01    1.352093e+00
  1.800706e+01    1.341979e+00
  1.802293e+01    1.323507e+00
  1.803881e+01    1.310675e+00
  1.805468e+01    1.304110e+00
  1.807056e+01    1.276035e+00
  1.808643e+01    1.299532e+00
  1.810231e+01    1.343639e+00
  1.811819e+01    1.333326e+00
  1.813406e+01    1.312378e+00
  1.814994e+01    1.293195e+00
  1.816581e+01    1.311067e+00
  1.818169e+01    1.295651e+00
  1.819756e+01    1.325506e+00
  1.821344e+01    1.305056e+00
  1.822932e+01    1.265326e+00
  1.824519e+01    1.271031e+00
  1.826107e+01    1.299439e+00
  1.827694e+01    1.289167e+00
  1.829282e+01    1.284136e+00
  1.830869e+01    1.275684e+00
  1.832457e+01    1.274494e+00
  1.834044e+01    1.253130e+00
  1.835632e+01    1.268641e+00
  1.837220e+01    1.295050e+00
  1.838807e+01    1.302943e+00
  1.840395e+01    1.279980e+00
  1.841982e+01    1.293721e+00
  1.843570e+01    1.271829e+00
  1.845157e+01    1.258121e+00
  1.846745e+01    1.273284e+00
  1.848332e+01    1.274145e+00
  1.849920e+01    1.240523e+00
  1.851508e+01    1.236768e+00
  1.853095e+01    1.268530e+00
  1.854683e+01    1.283012e+00
  1.856270e+01    1.259547e+00
  1.857858e+01    1.259019e+00
  1.859445e+01    1.248766e+00
  1.861033e+01    1.246126e+00
  1.862620e+01    1.249471e+00
  1.864208e+01    1.262555e+00
  1.865796e+01    1.262172e+00
  1.867383e+01    1.269981e+00
  1.868971e+01    1.276053e+00
  1.870558e+01    1.264270e+00
  1.872146e+01    1.244661e+00
  1.873733e+01    1.249304e+00
  1.875321e+01    1.237674e+00
  1.876908e+01    1.233170e+00
  1.878496e+01    1.256684e+00
  1.880084e+01    1.242539e+00
  1.881671e+01    1.246987e+00
  1.883259e+01    1.271801e+00
  1.884846e+01    1.243396e+00
  1.886434e+01    1.239129e+00
  1.888021e+01    1.239087e+00
  1.889609e+01    1.230361e+00
  1.891196e+01    1.232079e+00
  1.892784e+01    1.227033e+00
  1.894372e+01    1.238853e+00
  1.895959e+01    1.225244e+00
  1.897547e+01    1.227815e+00
  1.899134e+01    1.231596e+00
  1.900722e+01    1.212542e+00
  1.902309e+01    1.210429e+00
  1.903897e+01    1.212124e+00
  1.905484e+01    1.225839e+00
  1.907072e+01    1.202309e+00
  1.908660e+01    1.217884e+00
  1.910247e+01    1.223386e+00
  1.911835e+01    1.226654e+00
  1.913422e+01    1.218742e+00
  1.915010e+01    1.190463e+00
  1.916597e+01    1.188741e+00
  1.918185e+01    1.194906e+00
  1.919773e+01    1.179430e+00
  1.921360e+01    1.214877e+00
  1.922948e+01    1.228344e+00
  1.924535e+01    1.210399e+00
  1.926123e+01    1.202894e+00
  1.927710e+01    1.187935e+00
  1.929298e+01    1.205641e+00
  1.930885e+01    1.219151e+00
  1.932473e+01    1.187564e+00
  1.934061e+01    1.170667e+00
  1.935648e+01    1.194984e+00
  1.937236e+01    1.197834e+00
  1.938823e+01    1.202123e+00
  1.940411e+01    1.190231e+00
  1.941998e+01    1.200259e+00
  1.943586e+01    1.199735e+00
  1.945173e+01    1.204444e+00
  1.946761e+01    1.223629e+00
  1.948349e+01    1.194831e+00
  1.949936e+01    1.179784e+00
  1.951524e+01    1.152686e+00
  1.953111e+01    1.159554e+00
  1.954699e+01    1.187863e+00
  1.956286e+01    1.180714e+00
  1.957874e+01    1.176436e+00
  1.959461e+01    1.171541e+00
  1.961049e+01    1.158776e+00
  1.962637e+01    1.154598e+00
  1.964224e+01    1.160076e+00
  1.965812e+01    1.146053e+00
  1.967399e+01    1.154461e+00
  1.968987e+01    1.166354e+00
  1.970574e+01    1.167031e+00
  1.972162e+01    1.166457e+00
  1.973749e+01    1.153347e+00
  1.975337e+01    1.140105e+00
  1.976925e+01    1.154432e+00
  1.978512e+01    1.168561e+00
  1.980100e+01    1.151895e+00
  1.981687e+01    1.142796e+00
  1.983275e+01    1.157022e+00
  1.984862e+01    1.175155e+00
  1.986450e+01    1.148864e+00
  1.988037e+01    1.148300e+00
  1.989625e+01    1.155062e+00
  1.991213e+01    1.156345e+00
  1.992800e+01    1.148885e+00
  1.994388e+01    1.124378e+00
  1.995975e+01    1.149325e+00
  1.997563e+01    1.118540e+00
  1.999150e+01    1.137858e+00
  2.000738e+01    1.132684e+00
  2.002325e+01    1.156116e+00
  2.003913e+01    1.130636e+00
  2.005501e+01    1.115218e+00
  2.007088e+01    1.130240e+00
  2.008676e+01    1.139269e+00
  2.010263e+01    1.151924e+00
  2.011851e+01    1.125452e+00
  2.013438e+01    1.142382e+00
  2.015026e+01    1.131748e+00
  2.016614e+01    1.109396e+00
  2.018201e+01    1.099114e+00
  2.019789e+01    1.133379e+00
  2.021376e+01    1.113132e+00
  2.022964e+01    1.121099e+00
  2.024551e+01    1.129581e+00
  2.026139e+01    1.120385e+00
  2.027726e+01    1.116248e+00
  2.029314e+01    1.146003e+00
  2.030902e+01    1.128865e+00
  2.032489e+01    1.109143e+00
  2.034077e+01    1.108815e+00
  2.035664e+01    1.093757e+00
  2.037252e+01    1.111248e+00
  2.038839e+01    1.107675e+00
  2.040427e+01    1.102502e+00
  2.042014e+01    1.110339e+00
  2.043602e+01    1.117585e+00
  2.045190e+01    1.094311e+00
  2.046777e+01    1.103912e+00
  2.048365e+01    1.110915e+00
  2.049952e+01    1.084137e+00
  2.051540e+01    1.111535e+00
  2.053127e+01    1.131880e+00
  2.054715e+01    1.092557e+00
  2.056302e+01    1.113982e+00
  2.057890e+01    1.111656e+00
  2.059478e+01    1.114358e+00
  2.061065e+01    1.102096e+00
  2.062653e+01    1.096336e+00
  2.064240e+01    1.102216e+00
  2.065828e+01    1.107742e+00
  2.067415e+01    1.102938e+00
  2.069003e+01    1.097090e+00
  2.070590e+01    1.091872e+00
  2.072178e+01    1.122712e+00
  2.073766e+01    1.114114e+00
  2.075353e+01    1.095125e+00
  2.076941e+01    1.116083e+00
  2.078528e+01    1.094549e+00
  2.080116e+01    1.090058e+00
  2.081703e+01    1.109932e+00
  2.083291e+01    1.101838e+00
  2.084878e+01    1.103861e+00
  2.086466e+01    1.108635e+00
  2.088054e+01    1.103976e+00
  2.089641e+01    1.105099e+00
  2.091229e+01    1.080190e+00
  2.092816e+01    1.115043e+00
  2.094404e+01    1.130643e+00
  2.095991e+01    1.112030e+00
  2.097579e+01    1.107909e+00
  2.099166e+01    1.092944e+00
  2.100754e+01    1.066747e+00
  2.102342e+01    1.096111e+00
  2.103929e+01    1.111379e+00
  2.105517e+01    1.105429e+00
  2.107104e+01    1.109227e+00
  2.108692e+01    1.114761e+00
  2.110279e+01    1.138986e+00
  2.111867e+01    1.117102e+00
  2.113455e+01    1.095926e+00
  2.115042e+01    1.118489e+00
  2.116630e+01    1.132896e+00
  2.118217e+01    1.100810e+00
  2.119805e+01    1.100864e+00
  2.121392e+01    1.112190e+00
  2.122980e+01    1.123968e+00
  2.124567e+01    1.114121e+00
  2.126155e+01    1.128349e+00
  2.127743e+01    1.108947e+00
  2.129330e+01    1.127458e+00
  2.130918e+01    1.134608e+00
  2.132505e+01    1.148535e+00
  2.134093e+01    1.155528e+00
  2.135680e+01    1.155877e+00
  2.137268e+01    1.160939e+00
  2.138855e+01    1.180435e+00
  2.140443e+01    1.198196e+00
  2.142031e+01    1.210992e+00
  2.143618e+01    1.210404e+00
  2.145206e+01    1.218004e+00
  2.146793e+01    1.261966e+00
  2.148381e+01    1.299495e+00
  2.149968e+01    1.298862e+00
  2.151556e+01    1.323221e+00
  2.153143e+01    1.349118e+00
  2.154731e+01    1.384058e+00
  2.156319e+01    1.410401e+00
  2.157906e+01    1.459695e+00
  2.159494e+01    1.492224e+00
  2.161081e+01    1.562742e+00
  2.162669e+01    1.620214e+00
  2.164256e+01    1.736865e+00
  2.165844e+01    1.796527e+00
  2.167431e+01    1.929388e+00
  2.169019e+01    2.102975e+00
  2.170607e+01    2.260094e+00
  2.172194e+01    2.482809e+00
  2.173782e+01    2.800603e+00
  2.175369e+01    3.216489e+00
  2.176957e+01    3.644839e+00
  2.178544e+01    4.203317e+00
  2.180132e+01    4.795822e+00
  2.181719e+01    5.470225e+00
  2.183307e+01    6.325563e+00
  2.184895e+01    7.137758e+00
  2.186482e+01    8.024815e+00
  2.188070e+01    8.956537e+00
  2.189657e+01    9.856006e+00
  2.191245e+01    1.053978e+01
  2.192832e+01    1.099259e+01
  2.194420e+01    1.108338e+01
  2.196007e+01    1.057740e+01
  2.197595e+01    9.752354e+00
  2.199183e+01    8.684171e+00
  2.200770e+01    7.470822e+00
  2.202358e+01    6.258853e+00
  2.203945e+01    5.311362e+00
  2.205533e+01    4.473395e+00
  2.207120e+01    3.815051e+00
  2.208708e+01    3.362540e+00
  2.210296e+01    2.996416e+00
  2.211883e+01    2.638763e+00
  2.213471e+01    2.375193e+00
  2.215058e+01    2.152294e+00
  2.216646e+01    2.004006e+00
  2.218233e+01    1.868595e+00
  2.219821e+01    1.754277e+00
  2.221408e+01    1.666278e+00
  2.222996e+01    1.601281e+00
  2.224584e+01    1.518597e+00
  2.226171e+01    1.432799e+00
  2.227759e+01    1.378809e+00
  2.229346e+01    1.329252e+00
  2.230934e+01    1.302229e+00
  2.232521e+01    1.263566e+00
  2.234109e+01    1.245471e+00
  2.235696e+01    1.218927e+00
  2.237284e+01    1.202747e+00
  2.238872e+01    1.192030e+00
  2.240459e+01    1.177471e+00
  2.242047e+01    1.132673e+00
  2.243634e+01    1.137684e+00
  2.245222e+01    1.113474e+00
  2.246809e+01    1.083779e+00
  2.248397e+01    1.104979e+00
  2.249984e+01    1.063450e+00
  2.251572e+01    1.049383e+00
  2.253160e+01    1.058468e+00
  2.254747e+01    1.071025e+00
  2.256335e+01    1.047192e+00
  2.257922e+01    1.028365e+00
  2.259510e+01    1.015317e+00
  2.261097e+01    1.031724e+00
  2.262685e+01    1.022735e+00
  2.264272e+01    9.953572e-01
  2.265860e+01    1.008899e+00
  2.267448e+01    1.021825e+00
  2.269035e+01    9.747043e-01
  2.270623e+01    9.764488e-01
  2.272210e+01    9.792021e-01
  2.273798e+01    9.620464e-01
  2.275385e+01    9.731276e-01
  2.276973e+01    9.700402e-01
  2.278560e+01    9.405406e-01
  2.280148e+01    9.487305e-01
  2.281736e+01    9.744235e-01
  2.283323e+01    9.830083e-01
  2.284911e+01    9.653904e-01
  2.286498e+01    9.458169e-01
  2.288086e+01    9.435962e-01
  2.289673e+01    9.249814e-01
  2.291261e+01    9.369315e-01
  2.292848e+01    9.394800e-01
  2.294436e+01    9.165561e-01
  2.296024e+01    9.238327e-01
  2.297611e+01    9.377288e-01
  2.299199e+01    9.337981e-01
  2.300786e+01    9.263614e-01
  2.302374e+01    9.299238e-01
  2.303961e+01    9.201880e-01
  2.305549e+01    8.999779e-01
  2.307137e+01    9.150013e-01
  2.308724e+01    9.049804e-01
  2.310312e+01    8.993125e-01
  2.311899e+01    9.180532e-01
  2.313487e+01    9.217457e-01
  2.315074e+01    9.042027e-01
  2.316662e+01    8.987150e-01
  2.318249e+01    9.155298e-01
  2.319837e+01    9.091602e-01
  2.321425e+01    8.776263e-01
  2.323012e+01    8.749361e-01
  2.324600e+01    8.737374e-01
  2.326187e+01    8.906224e-01
  2.327775e+01    8.916629e-01
  2.329362e+01    8.839270e-01
  2.330950e+01    8.748066e-01
  2.332537e+01    8.617789e-01
  2.334125e+01    8.650135e-01
  2.335713e+01    8.774814e-01
  2.337300e+01    8.736498e-01
  2.338888e+01    8.570474e-01
  2.340475e+01    8.801888e-01
  2.342063e+01    8.626069e-01
  2.343650e+01    8.755144e-01
  2.345238e+01    8.716688e-01
  2.346825e+01    8.925798e-01
  2.348413e+01    8.758751e-01
  2.350001e+01    8.877395e-01
  2.351588e+01    8.716864e-01
  2.353176e+01    8.583415e-01
  2.354763e+01    8.734514e-01
  2.356351e+01    8.648691e-01
  2.357938e+01    8.660854e-01
  2.359526e+01    8.708876e-01
  2.361113e+01    8.791574e-01
  2.362701e+01    8.593007e-01
  2.364289e+01    8.691782e-01
  2.365876e+01    8.461863e-01
  2.367464e+01    8.496019e-01
  2.369051e+01    8.470944e-01
  2.370639e+01    8.372012e-01
  2.372226e+01    8.390229e-01
  2.373814e+01    8.370993e-01
  2.375401e+01    8.438972e-01
  2.376989e+01    8.509568e-01
  2.378577e+01    8.320139e-01
  2.380164e+01    8.233520e-01
  2.381752e+01    8.068444e-01
  2.383339e+01    8.280349e-01
  2.384927e+01    8.174495e-01
  2.386514e+01    8.161066e-01
  2.388102e+01    8.352825e-01
  2.389689e+01    8.285471e-01
  2.391277e+01    8.239902e-01
  2.392865e+01    8.024551e-01
  2.394452e+01    7.929659e-01
  2.396040e+01    8.142619e-01
  2.397627e+01    8.168914e-01
  2.399215e+01    8.111376e-01
  2.400802e+01    8.247346e-01
  2.402390e+01    8.046623e-01
  2.403978e+01    8.106059e-01
  2.405565e+01    8.124920e-01
  2.407153e+01    7.995385e-01
  2.408740e+01    8.019516e-01
  2.410328e+01    8.232636e-01
  2.411915e+01    8.309148e-01
  2.413503e+01    8.131759e-01
  2.415090e+01    8.003519e-01
  2.416678e+01    8.168359e-01
  2.418266e+01    7.922233e-01
  2.419853e+01    7.919792e-01
  2.421441e+01    7.976219e-01
  2.423028e+01    7.797289e-01
  2.424616e+01    7.958927e-01
  2.426203e+01    8.034011e-01
  2.427791e+01    7.933196e-01
  2.429378e+01    8.136408e-01
  2.430966e+01    8.100578e-01
  2.432554e+01    7.937660e-01
  2.434141e+01    7.796985e-01
  2.435729e+01    8.104169e-01
  2.437316e+01    8.190133e-01
  2.438904e+01    8.093348e-01
  2.440491e+01    8.153905e-01
  2.442079e+01    8.208060e-01
  2.443666e+01    8.014653e-01
  2.445254e+01    8.128792e-01
  2.446842e+01    8.265287e-01
  2.448429e+01    8.244354e-01
  2.450017e+01    8.057083e-01
  2.451604e+01    8.161115e-01
  2.453192e+01    7.958299e-01
  2.454779e+01    8.233558e-01
  2.456367e+01    8.359313e-01
  2.457954e+01    8.270575e-01
  2.459542e+01    8.421013e-01
  2.461130e+01    8.178722e-01
  2.462717e+01    7.985094e-01
  2.464305e+01    7.910494e-01
  2.465892e+01    8.112548e-01
  2.467480e+01    7.964271e-01
  2.469067e+01    8.058176e-01
  2.470655e+01    8.167899e-01
  2.472242e+01    8.065751e-01
  2.473830e+01    8.128940e-01
  2.475418e+01    7.921484e-01
  2.477005e+01    7.984102e-01
  2.478593e+01    8.136327e-01
  2.480180e+01    8.195411e-01
  2.481768e+01    8.002761e-01
  2.483355e+01    7.910150e-01
  2.484943e+01    8.077098e-01
  2.486530e+01    8.030148e-01
  2.488118e+01    8.022318e-01
  2.489706e+01    8.047958e-01
  2.491293e+01    8.040313e-01
  2.492881e+01    7.945141e-01
  2.494468e+01    8.066306e-01
  2.496056e+01    8.239802e-01
  2.497643e+01    8.050284e-01
  2.499231e+01    8.225302e-01
  2.500819e+01    8.156902e-01
  2.502406e+01    8.127542e-01
  2.503994e+01    8.220329e-01
  2.505581e+01    8.026595e-01
  2.507169e+01    8.118898e-01
  2.508756e+01    8.455635e-01
  2.510344e+01    8.309835e-01
  2.511931e+01    8.192366e-01
  2.513519e+01    8.408167e-01
  2.515107e+01    8.451242e-01
  2.516694e+01    8.316989e-01
  2.518282e+01    8.406045e-01
  2.519869e+01    8.296490e-01
  2.521457e+01    8.438261e-01
  2.523044e+01    8.381751e-01
  2.524632e+01    8.550273e-01
  2.526219e+01    8.653516e-01
  2.527807e+01    8.713112e-01
  2.529395e+01    9.007432e-01
  2.530982e+01    8.862222e-01
  2.532570e+01    8.863940e-01
  2.534157e+01    9.009101e-01
  2.535745e+01    8.876051e-01
  2.537332e+01    9.036726e-01
  2.538920e+01    9.197983e-01
  2.540507e+01    9.226925e-01
  2.542095e+01    9.200282e-01
  2.543683e+01    9.323509e-01
  2.545270e+01    9.397974e-01
  2.546858e+01    9.765446e-01
  2.548445e+01    9.934040e-01
  2.550033e+01    9.802490e-01
  2.551620e+01    9.921766e-01
  2.553208e+01    1.009062e+00
  2.554795e+01    1.028785e+00
  2.556383e+01    1.027268e+00
  2.557971e+01    1.056140e+00
  2.559558e+01    1.103901e+00
  2.561146e+01    1.116107e+00
  2.562733e+01    1.163836e+00
  2.564321e+01    1.185507e+00
  2.565908e+01    1.211157e+00
  2.567496e+01    1.255525e+00
  2.569083e+01    1.330763e+00
  2.570671e+01    1.397005e+00
  2.572259e+01    1.495608e+00
  2.573846e+01    1.558905e+00
  2.575434e+01    1.673519e+00
  2.577021e+01    1.821986e+00
  2.578609e+01    1.977775e+00
  2.580196e+01    2.192090e+00
  2.581784e+01    2.443846e+00
  2.583371e+01    2.713004e+00
  2.584959e+01    3.091972e+00
  2.586547e+01    3.499118e+00
  2.588134e+01    4.088721e+00
  2.589722e+01    4.705410e+00
  2.591309e+01    5.440361e+00
  2.592897e+01    6.275743e+00
  2.594484e+01    7.033409e+00
  2.596072e+01    7.857176e+00
  2.597660e+01    8.561502e+00
  2.599247e+01    8.991523e+00
  2.600835e+01    9.210556e+00
  2.602422e+01    9.014235e+00
  2.604010e+01    8.586031e+00
  2.605597e+01    7.778745e+00
  2.607185e+01    6.850180e+00
  2.608772e+01    5.932085e+00
  2.610360e+01    5.093183e+00
  2.611948e+01    4.322334e+00
  2.613535e+01    3.695852e+00
  2.615123e+01    3.211649e+00
  2.616710e+01    2.837807e+00
  2.618298e+01    2.521554e+00
  2.619885e+01    2.210662e+00
  2.621473e+01    2.011584e+00
  2.623060e+01    1.864574e+00
  2.624648e+01    1.750986e+00
  2.626236e+01    1.593971e+00
  2.627823e+01    1.509346e+00
  2.629411e+01    1.438914e+00
  2.630998e+01    1.361560e+00
  2.632586e+01    1.292190e+00
  2.634173e+01    1.237487e+00
  2.635761e+01    1.206041e+00
  2.637348e+01    1.182976e+00
  2.638936e+01    1.131009e+00
  2.640524e+01    1.090170e+00
  2.642111e+01    1.059424e+00
  2.643699e+01    1.040354e+00
  2.645286e+01    1.046931e+00
  2.646874e+01    1.045912e+00
  2.648461e+01    1.016613e+00
  2.650049e+01    9.878555e-01
  2.651636e+01    9.737542e-01
  2.653224e+01    9.862865e-01
  2.654812e+01    1.006893e+00
  2.656399e+01    9.901872e-01
  2.657987e+01    9.825836e-01
  2.659574e+01    9.830450e-01
  2.661162e+01    9.394498e-01
  2.662749e+01    9.288478e-01
  2.664337e+01    9.248051e-01
  2.665924e+01    9.510129e-01
  2.667512e+01    9.431280e-01
  2.669100e+01    9.249800e-01
  2.670687e+01    9.571689e-01
  2.672275e+01    9.518350e-01
  2.673862e+01    9.328671e-01
  2.675450e+01    9.311661e-01
  2.677037e+01    9.099339e-01
  2.678625e+01    9.261616e-01
  2.680212e+01    9.211539e-01
  2.681800e+01    9.265186e-01
  2.683388e+01    9.265881e-01
  2.684975e+01    9.239327e-01
  2.686563e+01    9.181190e-01
  2.688150e+01    9.343310e-01
  2.689738e+01    9.397943e-01
  2.691325e+01    9.490122e-01
  2.692913e+01    9.647727e-01
  2.694501e+01    9.597343e-01
  2.696088e+01    9.719809e-01
  2.697676e+01    9.862739e-01
  2.699263e+01    1.024150e+00
  2.700851e+01    1.029990e+00
  2.702438e+01    1.038397e+00
  2.704026e+01    1.072317e+00
  2.705613e+01    1.107463e+00
  2.707201e+01    1.154623e+00
  2.708789e+01    1.220477e+00
  2.710376e+01    1.276419e+00
  2.711964e+01    1.351906e+00
  2.713551e+01    1.444202e+00
  2.715139e+01    1.553646e+00
  2.716726e+01    1.694374e+00
  2.718314e+01    1.870938e+00
  2.719901e+01    2.080324e+00
  2.721489e+01    2.225442e+00
  2.723077e+01    2.378543e+00
  2.724664e+01    2.535134e+00
  2.726252e+01    2.606032e+00
  2.727839e+01    2.594464e+00
  2.729427e+01    2.550182e+00
  2.731014e+01    2.411293e+00
  2.732602e+01    2.241654e+00
  2.734189e+01    2.054361e+00
  2.735777e+01    1.839970e+00
  2.737365e+01    1.661345e+00
  2.738952e+01    1.511645e+00
  2.740540e+01    1.409261e+00
  2.742127e+01    1.300415e+00
  2.743715e+01    1.213224e+00
  2.745302e+01    1.139618e+00
  2.746890e+01    1.085575e+00
  2.748477e+01    1.097658e+00
  2.750065e+01    1.035792e+00
  2.751653e+01    1.009590e+00
  2.753240e+01    9.939377e-01
  2.754828e+01    9.764754e-01
  2.756415e+01    9.603637e-01
  2.758003e+01    9.361578e-01
  2.759590e+01    9.193394e-01
  2.761178e+01    9.084909e-01
  2.762765e+01    8.921894e-01
  2.764353e+01    8.830137e-01
  2.765941e+01    8.816890e-01
  2.767528e+01    8.951803e-01
  2.769116e+01    8.927789e-01
  2.770703e+01    8.635872e-01
  2.772291e+01    8.394209e-01
  2.773878e+01    8.576389e-01
  2.775466e+01    8.545518e-01
  2.777054e+01    8.385367e-01
  2.778641e+01    8.293477e-01
  2.780229e+01    8.478192e-01
  2.781816e+01    8.391474e-01
  2.783404e+01    8.363732e-01
  2.784991e+01    8.448601e-01
  2.786579e+01    8.374820e-01
  2.788166e+01    8.430605e-01
  2.789754e+01    8.319094e-01
  2.791342e+01    8.122743e-01
  2.792929e+01    8.201274e-01
  2.794517e+01    8.157872e-01
  2.796104e+01    8.087793e-01
  2.797692e+01    8.299593e-01
  2.799279e+01    8.186663e-01
  2.800867e+01    8.161160e-01
  2.802454e+01    8.001938e-01
  2.804042e+01    7.927514e-01
  2.805630e+01    7.898579e-01
  2.807217e+01    7.926000e-01
  2.808805e+01    8.054003e-01
  2.810392e+01    8.052239e-01
  2.811980e+01    8.130740e-01
  2.813567e+01    8.087931e-01
  2.815155e+01    8.095618e-01
  2.816742e+01    7.961597e-01
  2.818330e+01    7.940040e-01
  2.819918e+01    8.116606e-01
  2.821505e+01    7.990403e-01
  2.823093e+01    8.083354e-01
  2.824680e+01    7.978988e-01
  2.826268e+01    7.783437e-01
  2.827855e+01    7.963319e-01
  2.829443e+01    7.803290e-01
  2.831030e+01    7.898428e-01
  2.832618e+01    7.933443e-01
  2.834206e+01    7.747156e-01
  2.835793e+01    7.749683e-01
  2.837381e+01    7.787589e-01
  2.838968e+01    7.815376e-01
  2.840556e+01    7.756183e-01
  2.842143e+01    7.912182e-01
  2.843731e+01    7.995781e-01
  2.845318e+01    7.954124e-01
  2.846906e+01    7.804855e-01
  2.848494e+01    7.847322e-01
  2.850081e+01    7.827732e-01
  2.851669e+01    7.674938e-01
  2.853256e+01    7.731110e-01
  2.854844e+01    7.642589e-01
  2.856431e+01    7.618535e-01
  2.858019e+01    7.626789e-01
  2.859606e+01    7.835099e-01
  2.861194e+01    7.768287e-01
  2.862782e+01    7.709011e-01
  2.864369e+01    7.652156e-01
  2.865957e+01    7.594152e-01
  2.867544e+01    7.671233e-01
  2.869132e+01    7.736820e-01
  2.870719e+01    7.693406e-01
  2.872307e+01    7.698349e-01
  2.873895e+01    7.595039e-01
  2.875482e+01    7.615268e-01
  2.877070e+01    7.652574e-01
  2.878657e+01    7.629959e-01
  2.880245e+01    7.673965e-01
  2.881832e+01    7.823789e-01
  2.883420e+01    7.320778e-01
  2.885007e+01    7.465846e-01
  2.886595e+01    7.962936e-01
  2.888183e+01    7.685078e-01
  2.889770e+01    7.620578e-01
  2.891358e+01    7.644275e-01
  2.892945e+01    7.536818e-01
  2.894533e+01    7.580610e-01
  2.896120e+01    7.599774e-01
  2.897708e+01    7.351661e-01
  2.899295e+01    7.427067e-01
  2.900883e+01    7.637413e-01
  2.902471e+01    7.788996e-01
  2.904058e+01    7.690465e-01
  2.905646e+01    7.579113e-01
  2.907233e+01    7.538080e-01
  2.908821e+01    7.823249e-01
  2.910408e+01    7.462668e-01
  2.911996e+01    7.469611e-01
  2.913583e+01    7.544290e-01
  2.915171e+01    7.469324e-01
  2.916759e+01    7.529030e-01
  2.918346e+01    7.625905e-01
  2.919934e+01    7.665871e-01
  2.921521e+01    7.513878e-01
  2.923109e+01    7.512237e-01
  2.924696e+01    7.464630e-01
  2.926284e+01    7.608321e-01
  2.927871e+01    7.455366e-01
  2.929459e+01    7.155532e-01
  2.931047e+01    7.543190e-01
  2.932634e+01    7.479782e-01
  2.934222e+01    7.258447e-01
  2.935809e+01    7.446111e-01
  2.937397e+01    7.552007e-01
  2.938984e+01    7.491860e-01
  2.940572e+01    7.345600e-01
  2.942159e+01    7.398399e-01
  2.943747e+01    7.442636e-01
  2.945335e+01    7.417366e-01
  2.946922e+01    7.399952e-01
  2.948510e+01    7.504117e-01
  2.950097e+01    7.592458e-01
  2.951685e+01    7.444463e-01
  2.953272e+01    7.317036e-01
  2.954860e+01    7.351154e-01
  2.956447e+01    7.213259e-01
  2.958035e+01    7.255672e-01
  2.959623e+01    7.487471e-01
  2.961210e+01    7.275828e-01
  2.962798e+01    7.286876e-01
  2.964385e+01    7.248273e-01
  2.965973e+01    7.392322e-01
  2.967560e+01    7.391115e-01
  2.969148e+01    7.420491e-01
  2.970736e+01    7.267454e-01
  2.972323e+01    7.321250e-01
  2.973911e+01    7.429335e-01
  2.975498e+01    7.263070e-01
  2.977086e+01    7.370155e-01
  2.978673e+01    7.282481e-01
  2.980261e+01    7.253087e-01
  2.981848e+01    7.311787e-01
  2.983436e+01    7.377176e-01
  2.985024e+01    7.553612e-01
  2.986611e+01    7.399465e-01
  2.988199e+01    7.487094e-01
  2.989786e+01    7.233133e-01
  2.991374e+01    7.096421e-01
  2.992961e+01    7.176787e-01
  2.994549e+01    7.222302e-01
  2.996136e+01    7.430344e-01
  2.997724e+01    7.566638e-01
  2.999312e+01    7.362310e-01
  3.000899e+01    7.344955e-01
  3.002487e+01    7.776327e-01
  3.004074e+01    7.833912e-01
  3.005662e+01    7.655180e-01
  3.007249e+01    7.616293e-01
  3.008837e+01    7.563345e-01
  3.010424e+01    7.394096e-01
  3.012012e+01    7.345411e-01
  3.013600e+01    7.553347e-01
  3.015187e+01    7.555988e-01
  3.016775e+01    7.599519e-01
  3.018362e+01    7.306412e-01
  3.019950e+01    7.258105e-01
  3.021537e+01    7.322655e-01
  3.023125e+01    7.304490e-01
  3.024712e+01    7.419085e-01
  3.026300e+01    7.382161e-01
  3.027888e+01    7.451703e-01
  3.029475e+01    7.358148e-01
  3.031063e+01    7.247689e-01
  3.032650e+01    7.229200e-01
  3.034238e+01    7.397817e-01
  3.035825e+01    7.480910e-01
  3.037413e+01    7.395230e-01
  3.039000e+01    7.593848e-01
  3.040588e+01    7.432451e-01
  3.042176e+01    7.492289e-01
  3.043763e+01    7.338878e-01
  3.045351e+01    7.162583e-01
  3.046938e+01    7.208322e-01
  3.048526e+01    7.278374e-01
  3.050113e+01    7.265036e-01
  3.051701e+01    7.412165e-01
  3.053288e+01    7.245748e-01
  3.054876e+01    7.299043e-01
  3.056464e+01    7.239588e-01
  3.058051e+01    7.277439e-01
  3.059639e+01    7.032049e-01
  3.061226e+01    7.216451e-01
  3.062814e+01    7.257850e-01
  3.064401e+01    7.296110e-01
  3.065989e+01    7.246932e-01
  3.067577e+01    7.333627e-01
  3.069164e+01    7.257867e-01
  3.070752e+01    7.454420e-01
  3.072339e+01    7.388079e-01
  3.073927e+01    7.290395e-01
  3.075514e+01    7.277369e-01
  3.077102e+01    7.129232e-01
  3.078689e+01    7.491841e-01
  3.080277e+01    7.409174e-01
  3.081865e+01    7.295853e-01
  3.083452e+01    7.235653e-01
  3.085040e+01    7.313653e-01
  3.086627e+01    7.535579e-01
  3.088215e+01    7.423850e-01
  3.089802e+01    7.178812e-01
  3.091390e+01    7.169213e-01
  3.092977e+01    7.160543e-01
  3.094565e+01    7.263501e-01
  3.096153e+01    7.284735e-01
  3.097740e+01    7.235402e-01
  3.099328e+01    7.352568e-01
  3.100915e+01    7.413229e-01
  3.102503e+01    7.330638e-01
  3.104090e+01    7.379745e-01
  3.105678e+01    7.480177e-01
  3.107265e+01    7.544484e-01
  3.108853e+01    7.286275e-01
  3.110441e+01    7.369875e-01
  3.112028e+01    7.545030e-01
  3.113616e+01    7.419711e-01
  3.115203e+01    7.323728e-01
  3.116791e+01    7.459492e-01
  3.118378e+01    7.376857e-01
  3.119966e+01    7.248266e-01
  3.121553e+01    7.243562e-01
  3.123141e+01    7.273847e-01
  3.124729e+01    7.484857e-01
  3.126316e+01    7.431710e-01
  3.127904e+01    7.365032e-01
  3.129491e+01    7.386847e-01
  3.131079e+01    7.437659e-01
  3.132666e+01    7.355531e-01
  3.134254e+01    7.385232e-01
  3.135841e+01    7.516583e-01
  3.137429e+01    7.443476e-01
  3.139017e+01    7.601074e-01
  3.140604e+01    7.742749e-01
  3.142192e+01    7.677998e-01
  3.143779e+01    7.534526e-01
  3.145367e+01    7.663391e-01
  3.146954e+01    7.817929e-01
  3.148542e+01    7.808552e-01
  3.150129e+01    7.719514e-01
  3.151717e+01    7.601575e-01
  3.153305e+01    7.811036e-01
  3.154892e+01    8.065960e-01
  3.156480e+01    8.115025e-01
  3.158067e+01    7.878404e-01
  3.159655e+01    8.021812e-01
  3.161242e+01    8.256134e-01
  3.162830e+01    8.403348e-01
  3.164418e+01    8.617133e-01
  3.166005e+01    8.764126e-01
  3.167593e+01    8.823942e-01
  3.169180e+01    8.970090e-01
  3.170768e+01    9.267437e-01
  3.172355e+01    9.445053e-01
  3.173943e+01    9.666927e-01
  3.175530e+01    1.033028e+00
  3.177118e+01    1.088008e+00
  3.178706e+01    1.141642e+00
  3.180293e+01    1.180689e+00
  3.181881e+01    1.263925e+00
  3.183468e+01    1.368703e+00
  3.185056e+01    1.514639e+00
  3.186643e+01    1.681689e+00
  3.188231e+01    1.812396e+00
  3.189818e+01    2.008088e+00
  3.191406e+01    2.206403e+00
  3.192994e+01    2.366452e+00
  3.194581e+01    2.534913e+00
  3.196169e+01    2.599453e+00
  3.197756e+01    2.598637e+00
  3.199344e+01    2.540647e+00
  3.200931e+01    2.376228e+00
  3.202519e+01    2.219289e+00
  3.204106e+01    2.015957e+00
  3.205694e+01    1.811199e+00
  3.207282e+01    1.602735e+00
  3.208869e+01    1.429243e+00
  3.210457e+01    1.340437e+00
  3.212044e+01    1.235554e+00
  3.213632e+01    1.166113e+00
  3.215219e+01    1.096501e+00
  3.216807e+01    1.063247e+00
  3.218394e+01    9.995725e-01
  3.219982e+01    9.441500e-01
  3.221570e+01    9.305444e-01
  3.223157e+01    8.858214e-01
  3.224745e+01    8.867148e-01
  3.226332e+01    8.632150e-01
  3.227920e+01    8.604786e-01
  3.229507e+01    8.168148e-01
  3.231095e+01    7.937379e-01
  3.232682e+01    8.238887e-01
  3.234270e+01    8.016125e-01
  3.235858e+01    8.116416e-01
  3.237445e+01    7.744552e-01
  3.239033e+01    7.440193e-01
  3.240620e+01    7.723879e-01
  3.242208e+01    7.473770e-01
  3.243795e+01    7.401939e-01
  3.245383e+01    7.507932e-01
  3.246970e+01    7.488955e-01
  3.248558e+01    7.353735e-01
  3.250146e+01    7.337672e-01
  3.251733e+01    7.408605e-01
  3.253321e+01    7.437611e-01
  3.254908e+01    7.535748e-01
