# == pyFAI calibration ==
# Distance Sample to Detector: 0.3999999939076516 m
# PONI: 9.750e-02, 1.135e-01 m
# Rotations: -0.000175 0.000000 -0.000000 rad
# 
# == Fit2d calibration ==
# Distance Sample-beamCenter: 400.000 mm
# Center: x=1514.000, y=1300.000 pix
# Tilt: 0.010 deg  TiltPlanRot: 0.010 deg
# 
# Detector Detector	 Spline= None	 PixelSize= 7.500e-05, 7.500e-05 m
#    Detector has a mask: False 
#    Detector has a dark current: False 
#    detector has a flat field: False 
# 
# Wavelength: 6.888e-11 m
# Mask applied: user provided
# Dark current applied: False
# Flat field applied: False
# Polarization factor: 0.99
# Normalization factor: 1.0
# --> /home/myspot/data/2024_07_Rosario/Ru-CGO-ex/2024-07-27_002_Ru-CGO-ex_Activtation_ramp_000002_data_000019.dat
#       q_nm^-1             I 
  2.003187e-02    7.712225e-02
  3.590745e-02    1.358060e-01
  5.178302e-02    1.032420e-01
  6.765859e-02    1.119453e-01
  8.353417e-02    2.159227e-02
  9.940974e-02    9.944331e-02
  1.152853e-01    9.327448e-02
  1.311609e-01    4.569653e-02
  1.470365e-01    0.000000e+00
  1.629120e-01    1.389385e-02
  1.787876e-01    4.063154e-02
  1.946632e-01    6.983782e-02
  2.105388e-01    5.131192e-02
  2.264143e-01    3.917706e-02
  2.422899e-01    2.164237e-02
  2.581655e-01    3.155619e-02
  2.740411e-01    4.804418e-02
  2.899166e-01    3.442056e-02
  3.057922e-01    4.761810e-02
  3.216678e-01    2.797488e-02
  3.375433e-01    3.342805e-02
  3.534189e-01    2.826644e-02
  3.692945e-01    2.185290e-02
  3.851701e-01    2.859774e-02
  4.010456e-01    1.253827e-02
  4.169212e-01    1.515873e-02
  4.327968e-01    2.936539e-02
  4.486724e-01    5.791245e-02
  4.645479e-01    6.559074e-02
  4.804235e-01    3.476616e-02
  4.962991e-01    2.315447e-02
  5.121747e-01    3.386445e-02
  5.280502e-01    3.045695e-02
  5.439258e-01    4.890637e-02
  5.598014e-01    3.502025e-02
  5.756770e-01    4.504694e-02
  5.915525e-01    4.144012e-02
  6.074281e-01    3.499062e-02
  6.233037e-01    4.557496e-02
  6.391793e-01    3.503735e-02
  6.550548e-01    3.660570e-02
  6.709304e-01    5.120923e-02
  6.868060e-01    4.331751e-02
  7.026815e-01    4.318864e-02
  7.185571e-01    3.519668e-02
  7.344327e-01    3.613562e-02
  7.503083e-01    7.169302e-02
  7.661838e-01    1.046893e-01
  7.820594e-01    8.381602e-02
  7.979350e-01    1.132013e-01
  8.138106e-01    1.820458e-01
  8.296861e-01    2.708620e-01
  8.455617e-01    2.859637e-01
  8.614373e-01    3.024980e-01
  8.773129e-01    3.915223e-01
  8.931884e-01    4.632870e-01
  9.090640e-01    5.558136e-01
  9.249396e-01    6.761850e-01
  9.408152e-01    6.850876e-01
  9.566907e-01    7.671989e-01
  9.725663e-01    8.135483e-01
  9.884419e-01    9.448338e-01
  1.004317e+00    1.015142e+00
  1.020193e+00    1.088688e+00
  1.036069e+00    1.141245e+00
  1.051944e+00    1.303962e+00
  1.067820e+00    1.435994e+00
  1.083695e+00    1.387936e+00
  1.099571e+00    1.316978e+00
  1.115446e+00    1.458780e+00
  1.131322e+00    1.591171e+00
  1.147198e+00    1.503590e+00
  1.163073e+00    1.531981e+00
  1.178949e+00    1.552432e+00
  1.194824e+00    1.683963e+00
  1.210700e+00    1.896059e+00
  1.226575e+00    2.138710e+00
  1.242451e+00    2.230886e+00
  1.258327e+00    2.219033e+00
  1.274202e+00    2.385783e+00
  1.290078e+00    2.522169e+00
  1.305953e+00    2.473923e+00
  1.321829e+00    2.425174e+00
  1.337705e+00    2.656959e+00
  1.353580e+00    2.673666e+00
  1.369456e+00    2.594490e+00
  1.385331e+00    2.668688e+00
  1.401207e+00    2.720397e+00
  1.417082e+00    2.754462e+00
  1.432958e+00    2.713115e+00
  1.448834e+00    2.808756e+00
  1.464709e+00    2.818300e+00
  1.480585e+00    2.874761e+00
  1.496460e+00    2.904774e+00
  1.512336e+00    2.951926e+00
  1.528211e+00    3.094357e+00
  1.544087e+00    3.198352e+00
  1.559963e+00    3.097954e+00
  1.575838e+00    3.205093e+00
  1.591714e+00    3.083731e+00
  1.607589e+00    2.931175e+00
  1.623465e+00    3.002089e+00
  1.639340e+00    2.898986e+00
  1.655216e+00    2.930947e+00
  1.671092e+00    2.960420e+00
  1.686967e+00    2.931440e+00
  1.702843e+00    2.790726e+00
  1.718718e+00    2.835914e+00
  1.734594e+00    2.819193e+00
  1.750469e+00    2.855264e+00
  1.766345e+00    2.876149e+00
  1.782221e+00    2.850493e+00
  1.798096e+00    2.811023e+00
  1.813972e+00    2.873631e+00
  1.829847e+00    2.714253e+00
  1.845723e+00    2.817955e+00
  1.861598e+00    2.786885e+00
  1.877474e+00    2.808810e+00
  1.893350e+00    2.738232e+00
  1.909225e+00    2.795687e+00
  1.925101e+00    2.881079e+00
  1.940976e+00    2.910062e+00
  1.956852e+00    2.818175e+00
  1.972727e+00    2.883381e+00
  1.988603e+00    2.943810e+00
  2.004479e+00    2.892157e+00
  2.020354e+00    2.757701e+00
  2.036230e+00    2.758250e+00
  2.052105e+00    2.829025e+00
  2.067981e+00    2.814831e+00
  2.083856e+00    2.857898e+00
  2.099732e+00    2.774145e+00
  2.115608e+00    2.778911e+00
  2.131483e+00    2.854267e+00
  2.147359e+00    2.938076e+00
  2.163234e+00    2.891936e+00
  2.179110e+00    2.754011e+00
  2.194985e+00    2.839389e+00
  2.210861e+00    2.785433e+00
  2.226737e+00    2.791410e+00
  2.242612e+00    2.901916e+00
  2.258488e+00    2.862947e+00
  2.274363e+00    2.674537e+00
  2.290239e+00    2.718371e+00
  2.306115e+00    2.734219e+00
  2.321990e+00    2.740275e+00
  2.337866e+00    2.760773e+00
  2.353741e+00    2.788818e+00
  2.369617e+00    2.805245e+00
  2.385492e+00    2.869624e+00
  2.401368e+00    2.885765e+00
  2.417244e+00    2.861571e+00
  2.433119e+00    2.798388e+00
  2.448995e+00    2.721239e+00
  2.464870e+00    2.822762e+00
  2.480746e+00    2.829823e+00
  2.496621e+00    2.875741e+00
  2.512497e+00    2.812443e+00
  2.528373e+00    2.833011e+00
  2.544248e+00    2.886794e+00
  2.560124e+00    2.967599e+00
  2.575999e+00    2.858778e+00
  2.591875e+00    2.798563e+00
  2.607750e+00    2.768343e+00
  2.623626e+00    2.843117e+00
  2.639502e+00    2.832447e+00
  2.655377e+00    2.779890e+00
  2.671253e+00    2.905774e+00
  2.687128e+00    2.937791e+00
  2.703004e+00    2.907911e+00
  2.718879e+00    2.909559e+00
  2.734755e+00    2.877221e+00
  2.750631e+00    2.877060e+00
  2.766506e+00    2.919646e+00
  2.782382e+00    2.907861e+00
  2.798257e+00    2.811428e+00
  2.814133e+00    2.888880e+00
  2.830008e+00    2.948090e+00
  2.845884e+00    2.923446e+00
  2.861760e+00    2.917378e+00
  2.877635e+00    2.876641e+00
  2.893511e+00    2.963547e+00
  2.909386e+00    2.967116e+00
  2.925262e+00    2.950499e+00
  2.941137e+00    2.816032e+00
  2.957013e+00    2.835346e+00
  2.972889e+00    2.862414e+00
  2.988764e+00    2.881058e+00
  3.004640e+00    2.941323e+00
  3.020515e+00    2.874474e+00
  3.036391e+00    2.826359e+00
  3.052266e+00    2.814128e+00
  3.068142e+00    2.850613e+00
  3.084018e+00    2.948344e+00
  3.099893e+00    2.900786e+00
  3.115769e+00    2.990516e+00
  3.131644e+00    2.966795e+00
  3.147520e+00    2.932482e+00
  3.163395e+00    2.989345e+00
  3.179271e+00    2.948783e+00
  3.195147e+00    2.947865e+00
  3.211022e+00    2.896199e+00
  3.226898e+00    2.863692e+00
  3.242773e+00    2.857151e+00
  3.258649e+00    3.026223e+00
  3.274525e+00    2.977974e+00
  3.290400e+00    2.909510e+00
  3.306276e+00    2.935689e+00
  3.322151e+00    2.953692e+00
  3.338027e+00    2.997338e+00
  3.353902e+00    3.002267e+00
  3.369778e+00    2.908297e+00
  3.385654e+00    2.870879e+00
  3.401529e+00    2.918363e+00
  3.417405e+00    2.932477e+00
  3.433280e+00    2.945013e+00
  3.449156e+00    2.986990e+00
  3.465031e+00    3.042600e+00
  3.480907e+00    3.017433e+00
  3.496783e+00    3.131028e+00
  3.512658e+00    3.014282e+00
  3.528534e+00    3.006150e+00
  3.544409e+00    3.033431e+00
  3.560285e+00    2.997563e+00
  3.576160e+00    2.945850e+00
  3.592036e+00    2.972547e+00
  3.607912e+00    2.968423e+00
  3.623787e+00    3.013694e+00
  3.639663e+00    2.999608e+00
  3.655538e+00    3.014757e+00
  3.671414e+00    2.937365e+00
  3.687289e+00    2.929686e+00
  3.703165e+00    2.987213e+00
  3.719041e+00    3.053236e+00
  3.734916e+00    3.087474e+00
  3.750792e+00    3.136748e+00
  3.766667e+00    3.054342e+00
  3.782543e+00    3.013349e+00
  3.798418e+00    3.011637e+00
  3.814294e+00    3.066472e+00
  3.830170e+00    3.066137e+00
  3.846045e+00    3.069580e+00
  3.861921e+00    3.099111e+00
  3.877796e+00    3.043669e+00
  3.893672e+00    3.006104e+00
  3.909547e+00    2.846385e+00
  3.925423e+00    2.928408e+00
  3.941299e+00    3.116261e+00
  3.957174e+00    3.069611e+00
  3.973050e+00    3.061217e+00
  3.988925e+00    3.059551e+00
  4.004801e+00    3.047439e+00
  4.020676e+00    3.014361e+00
  4.036552e+00    3.073043e+00
  4.052428e+00    2.928560e+00
  4.068303e+00    2.906180e+00
  4.084179e+00    3.109469e+00
  4.100054e+00    3.151944e+00
  4.115930e+00    3.049808e+00
  4.131806e+00    3.013821e+00
  4.147681e+00    3.009590e+00
  4.163557e+00    3.069963e+00
  4.179432e+00    3.102614e+00
  4.195308e+00    3.109475e+00
  4.211183e+00    3.061419e+00
  4.227059e+00    3.048894e+00
  4.242935e+00    3.099146e+00
  4.258810e+00    3.089511e+00
  4.274686e+00    3.125532e+00
  4.290561e+00    3.051642e+00
  4.306437e+00    2.996622e+00
  4.322312e+00    3.061610e+00
  4.338188e+00    3.122684e+00
  4.354064e+00    3.118820e+00
  4.369939e+00    3.084755e+00
  4.385815e+00    2.987146e+00
  4.401690e+00    2.994635e+00
  4.417566e+00    3.041892e+00
  4.433441e+00    3.084876e+00
  4.449317e+00    3.059962e+00
  4.465193e+00    3.020012e+00
  4.481068e+00    3.125410e+00
  4.496944e+00    3.177644e+00
  4.512819e+00    3.075203e+00
  4.528695e+00    3.092068e+00
  4.544570e+00    3.058409e+00
  4.560446e+00    3.108978e+00
  4.576322e+00    3.095710e+00
  4.592197e+00    3.094197e+00
  4.608073e+00    3.058083e+00
  4.623948e+00    3.084453e+00
  4.639824e+00    3.071563e+00
  4.655699e+00    3.059141e+00
  4.671575e+00    3.121910e+00
  4.687451e+00    3.158439e+00
  4.703326e+00    3.140755e+00
  4.719202e+00    3.122492e+00
  4.735077e+00    3.262529e+00
  4.750953e+00    3.165558e+00
  4.766828e+00    3.119366e+00
  4.782704e+00    3.163860e+00
  4.798580e+00    3.184890e+00
  4.814455e+00    3.213368e+00
  4.830331e+00    3.143412e+00
  4.846206e+00    3.098857e+00
  4.862082e+00    3.119025e+00
  4.877957e+00    3.164088e+00
  4.893833e+00    3.206491e+00
  4.909709e+00    3.131164e+00
  4.925584e+00    3.079860e+00
  4.941460e+00    3.110949e+00
  4.957335e+00    3.132328e+00
  4.973211e+00    3.109037e+00
  4.989086e+00    3.138462e+00
  5.004962e+00    3.114617e+00
  5.020838e+00    3.074018e+00
  5.036713e+00    3.132442e+00
  5.052589e+00    3.142856e+00
  5.068464e+00    3.119434e+00
  5.084340e+00    3.083559e+00
  5.100216e+00    3.132302e+00
  5.116091e+00    3.231436e+00
  5.131967e+00    3.109809e+00
  5.147842e+00    3.107638e+00
  5.163718e+00    3.206541e+00
  5.179593e+00    3.153962e+00
  5.195469e+00    3.165223e+00
  5.211345e+00    3.120645e+00
  5.227220e+00    3.126899e+00
  5.243096e+00    3.068778e+00
  5.258971e+00    3.069659e+00
  5.274847e+00    3.070114e+00
  5.290722e+00    3.141185e+00
  5.306598e+00    3.153209e+00
  5.322474e+00    3.084522e+00
  5.338349e+00    3.123900e+00
  5.354225e+00    3.117350e+00
  5.370100e+00    3.164832e+00
  5.385976e+00    3.212236e+00
  5.401851e+00    3.108328e+00
  5.417727e+00    3.092292e+00
  5.433603e+00    3.094949e+00
  5.449478e+00    3.050208e+00
  5.465354e+00    3.061479e+00
  5.481229e+00    3.007139e+00
  5.497105e+00    3.028033e+00
  5.512980e+00    3.054269e+00
  5.528856e+00    3.046593e+00
  5.544732e+00    3.105281e+00
  5.560607e+00    3.071476e+00
  5.576483e+00    3.116297e+00
  5.592358e+00    3.106958e+00
  5.608234e+00    3.084648e+00
  5.624109e+00    3.047729e+00
  5.639985e+00    3.061742e+00
  5.655861e+00    3.036485e+00
  5.671736e+00    3.059899e+00
  5.687612e+00    3.086847e+00
  5.703487e+00    3.050812e+00
  5.719363e+00    3.042994e+00
  5.735238e+00    3.029659e+00
  5.751114e+00    3.073903e+00
  5.766990e+00    3.045606e+00
  5.782865e+00    2.957853e+00
  5.798741e+00    2.972594e+00
  5.814616e+00    3.049385e+00
  5.830492e+00    3.101986e+00
  5.846367e+00    3.041683e+00
  5.862243e+00    3.105407e+00
  5.878119e+00    3.088187e+00
  5.893994e+00    3.056645e+00
  5.909870e+00    3.130185e+00
  5.925745e+00    3.119170e+00
  5.941621e+00    3.037845e+00
  5.957497e+00    2.973136e+00
  5.973372e+00    2.991104e+00
  5.989248e+00    3.033214e+00
  6.005123e+00    2.922786e+00
  6.020999e+00    2.936092e+00
  6.036874e+00    3.072472e+00
  6.052750e+00    3.081544e+00
  6.068626e+00    3.113079e+00
  6.084501e+00    3.094867e+00
  6.100377e+00    3.032270e+00
  6.116252e+00    3.024483e+00
  6.132128e+00    3.127464e+00
  6.148003e+00    3.144564e+00
  6.163879e+00    3.169464e+00
  6.179755e+00    3.115556e+00
  6.195630e+00    3.024149e+00
  6.211506e+00    3.060446e+00
  6.227381e+00    3.109662e+00
  6.243257e+00    3.045086e+00
  6.259132e+00    3.059412e+00
  6.275008e+00    3.139507e+00
  6.290884e+00    3.192142e+00
  6.306759e+00    3.097950e+00
  6.322635e+00    3.008292e+00
  6.338510e+00    3.069672e+00
  6.354386e+00    3.171934e+00
  6.370261e+00    3.108349e+00
  6.386137e+00    3.079806e+00
  6.402013e+00    3.041802e+00
  6.417888e+00    3.088880e+00
  6.433764e+00    3.064074e+00
  6.449639e+00    2.997855e+00
  6.465515e+00    2.963072e+00
  6.481390e+00    3.037948e+00
  6.497266e+00    3.097477e+00
  6.513142e+00    3.126106e+00
  6.529017e+00    3.118026e+00
  6.544893e+00    3.054493e+00
  6.560768e+00    3.057555e+00
  6.576644e+00    3.038412e+00
  6.592519e+00    3.051313e+00
  6.608395e+00    3.043868e+00
  6.624271e+00    3.053528e+00
  6.640146e+00    3.063523e+00
  6.656022e+00    3.052928e+00
  6.671897e+00    3.064285e+00
  6.687773e+00    3.058213e+00
  6.703648e+00    3.025654e+00
  6.719524e+00    3.035182e+00
  6.735400e+00    3.050992e+00
  6.751275e+00    3.018687e+00
  6.767151e+00    3.013544e+00
  6.783026e+00    3.069900e+00
  6.798902e+00    3.002626e+00
  6.814777e+00    3.020336e+00
  6.830653e+00    2.997928e+00
  6.846529e+00    3.048501e+00
  6.862404e+00    2.962326e+00
  6.878280e+00    2.918124e+00
  6.894155e+00    3.036807e+00
  6.910031e+00    3.095196e+00
  6.925907e+00    2.998434e+00
  6.941782e+00    3.028922e+00
  6.957658e+00    3.028777e+00
  6.973533e+00    3.042364e+00
  6.989409e+00    3.064091e+00
  7.005284e+00    3.053848e+00
  7.021160e+00    3.054629e+00
  7.037036e+00    3.007712e+00
  7.052911e+00    2.996574e+00
  7.068787e+00    2.998681e+00
  7.084662e+00    2.998989e+00
  7.100538e+00    3.049999e+00
  7.116413e+00    3.082050e+00
  7.132289e+00    3.038874e+00
  7.148165e+00    2.947789e+00
  7.164040e+00    2.975546e+00
  7.179916e+00    2.983935e+00
  7.195791e+00    3.025961e+00
  7.211667e+00    2.989433e+00
  7.227542e+00    3.038504e+00
  7.243418e+00    3.047719e+00
  7.259294e+00    3.025741e+00
  7.275169e+00    3.075255e+00
  7.291045e+00    3.024708e+00
  7.306920e+00    3.053012e+00
  7.322796e+00    3.016678e+00
  7.338671e+00    2.933206e+00
  7.354547e+00    3.016306e+00
  7.370423e+00    3.030678e+00
  7.386298e+00    2.970818e+00
  7.402174e+00    2.997178e+00
  7.418049e+00    2.987858e+00
  7.433925e+00    3.065175e+00
  7.449800e+00    3.054170e+00
  7.465676e+00    3.039368e+00
  7.481552e+00    2.982751e+00
  7.497427e+00    2.903440e+00
  7.513303e+00    3.018142e+00
  7.529178e+00    3.043379e+00
  7.545054e+00    3.001690e+00
  7.560929e+00    2.949433e+00
  7.576805e+00    2.981112e+00
  7.592681e+00    3.029103e+00
  7.608556e+00    3.028695e+00
  7.624432e+00    2.943723e+00
  7.640307e+00    2.966444e+00
  7.656183e+00    2.958198e+00
  7.672058e+00    2.948336e+00
  7.687934e+00    2.953964e+00
  7.703810e+00    2.994141e+00
  7.719685e+00    2.986818e+00
  7.735561e+00    2.927691e+00
  7.751436e+00    2.931849e+00
  7.767312e+00    2.925632e+00
  7.783187e+00    2.947941e+00
  7.799063e+00    3.020954e+00
  7.814939e+00    3.022254e+00
  7.830814e+00    2.923401e+00
  7.846690e+00    2.943157e+00
  7.862565e+00    2.942993e+00
  7.878441e+00    2.977659e+00
  7.894317e+00    2.962577e+00
  7.910192e+00    2.983783e+00
  7.926068e+00    2.939619e+00
  7.941943e+00    2.939286e+00
  7.957819e+00    2.963693e+00
  7.973694e+00    2.916122e+00
  7.989570e+00    2.898931e+00
  8.005446e+00    2.932069e+00
  8.021321e+00    2.936805e+00
  8.037197e+00    2.958359e+00
  8.053072e+00    2.926245e+00
  8.068948e+00    2.935330e+00
  8.084823e+00    2.933490e+00
  8.100699e+00    2.987607e+00
  8.116575e+00    2.909460e+00
  8.132450e+00    2.888476e+00
  8.148326e+00    2.954696e+00
  8.164201e+00    2.982246e+00
  8.180077e+00    3.018925e+00
  8.195952e+00    2.996219e+00
  8.211828e+00    2.979691e+00
  8.227704e+00    2.930818e+00
  8.243579e+00    3.022528e+00
  8.259455e+00    2.972736e+00
  8.275330e+00    2.932829e+00
  8.291206e+00    2.944772e+00
  8.307081e+00    2.917247e+00
  8.322957e+00    2.937995e+00
  8.338833e+00    2.958039e+00
  8.354708e+00    2.902118e+00
  8.370584e+00    2.893275e+00
  8.386459e+00    2.860536e+00
  8.402335e+00    2.835623e+00
  8.418210e+00    2.865667e+00
  8.434086e+00    2.925131e+00
  8.449962e+00    2.895658e+00
  8.465837e+00    2.903394e+00
  8.481713e+00    2.902357e+00
  8.497588e+00    2.911811e+00
  8.513464e+00    2.853745e+00
  8.529339e+00    2.866575e+00
  8.545215e+00    2.849646e+00
  8.561091e+00    2.867806e+00
  8.576966e+00    2.908897e+00
  8.592842e+00    2.865117e+00
  8.608717e+00    2.854558e+00
  8.624593e+00    2.927212e+00
  8.640468e+00    2.953512e+00
  8.656344e+00    2.877633e+00
  8.672220e+00    2.878315e+00
  8.688095e+00    2.864926e+00
  8.703971e+00    2.895079e+00
  8.719846e+00    2.891289e+00
  8.735722e+00    2.850068e+00
  8.751598e+00    2.849131e+00
  8.767473e+00    2.849515e+00
  8.783349e+00    2.923494e+00
  8.799224e+00    2.905185e+00
  8.815100e+00    2.793779e+00
  8.830975e+00    2.771139e+00
  8.846851e+00    2.852046e+00
  8.862727e+00    2.854857e+00
  8.878602e+00    2.883162e+00
  8.894478e+00    2.897764e+00
  8.910353e+00    2.845683e+00
  8.926229e+00    2.893535e+00
  8.942104e+00    2.855585e+00
  8.957980e+00    2.899303e+00
  8.973856e+00    2.846653e+00
  8.989731e+00    2.846909e+00
  9.005607e+00    2.883895e+00
  9.021482e+00    2.840868e+00
  9.037358e+00    2.852483e+00
  9.053233e+00    2.894297e+00
  9.069109e+00    2.868957e+00
  9.084985e+00    2.884511e+00
  9.100860e+00    2.851269e+00
  9.116736e+00    2.824480e+00
  9.132611e+00    2.894820e+00
  9.148487e+00    2.863136e+00
  9.164362e+00    2.831525e+00
  9.180238e+00    2.777611e+00
  9.196114e+00    2.812384e+00
  9.211989e+00    2.839613e+00
  9.227865e+00    2.820812e+00
  9.243740e+00    2.804806e+00
  9.259616e+00    2.793709e+00
  9.275491e+00    2.737736e+00
  9.291367e+00    2.748951e+00
  9.307243e+00    2.772816e+00
  9.323118e+00    2.798918e+00
  9.338994e+00    2.805428e+00
  9.354869e+00    2.797025e+00
  9.370745e+00    2.787109e+00
  9.386620e+00    2.810251e+00
  9.402496e+00    2.782518e+00
  9.418372e+00    2.742888e+00
  9.434247e+00    2.764902e+00
  9.450123e+00    2.787446e+00
  9.465998e+00    2.776976e+00
  9.481874e+00    2.816515e+00
  9.497749e+00    2.823265e+00
  9.513625e+00    2.791864e+00
  9.529501e+00    2.750348e+00
  9.545376e+00    2.773419e+00
  9.561252e+00    2.805635e+00
  9.577127e+00    2.800475e+00
  9.593003e+00    2.793342e+00
  9.608878e+00    2.780131e+00
  9.624754e+00    2.789919e+00
  9.640630e+00    2.782676e+00
  9.656505e+00    2.764083e+00
  9.672381e+00    2.758984e+00
  9.688256e+00    2.736977e+00
  9.704132e+00    2.742374e+00
  9.720008e+00    2.728665e+00
  9.735883e+00    2.767537e+00
  9.751759e+00    2.773803e+00
  9.767634e+00    2.783199e+00
  9.783510e+00    2.767013e+00
  9.799385e+00    2.740983e+00
  9.815261e+00    2.705329e+00
  9.831137e+00    2.682627e+00
  9.847012e+00    2.674845e+00
  9.862888e+00    2.727186e+00
  9.878763e+00    2.744724e+00
  9.894639e+00    2.743093e+00
  9.910514e+00    2.745710e+00
  9.926390e+00    2.687650e+00
  9.942266e+00    2.662919e+00
  9.958141e+00    2.645798e+00
  9.974017e+00    2.651740e+00
  9.989892e+00    2.669734e+00
  1.000577e+01    2.658602e+00
  1.002164e+01    2.686719e+00
  1.003752e+01    2.721579e+00
  1.005339e+01    2.675974e+00
  1.006927e+01    2.701813e+00
  1.008515e+01    2.659985e+00
  1.010102e+01    2.653009e+00
  1.011690e+01    2.680583e+00
  1.013277e+01    2.651748e+00
  1.014865e+01    2.677319e+00
  1.016452e+01    2.639938e+00
  1.018040e+01    2.632220e+00
  1.019627e+01    2.633033e+00
  1.021215e+01    2.637305e+00
  1.022803e+01    2.707078e+00
  1.024390e+01    2.712281e+00
  1.025978e+01    2.692799e+00
  1.027565e+01    2.646385e+00
  1.029153e+01    2.623775e+00
  1.030740e+01    2.671514e+00
  1.032328e+01    2.634349e+00
  1.033915e+01    2.657141e+00
  1.035503e+01    2.643377e+00
  1.037091e+01    2.608470e+00
  1.038678e+01    2.612536e+00
  1.040266e+01    2.688606e+00
  1.041853e+01    2.687397e+00
  1.043441e+01    2.646223e+00
  1.045028e+01    2.665248e+00
  1.046616e+01    2.698436e+00
  1.048204e+01    2.632857e+00
  1.049791e+01    2.637963e+00
  1.051379e+01    2.631907e+00
  1.052966e+01    2.625424e+00
  1.054554e+01    2.591602e+00
  1.056141e+01    2.580080e+00
  1.057729e+01    2.598461e+00
  1.059316e+01    2.602289e+00
  1.060904e+01    2.562014e+00
  1.062492e+01    2.561430e+00
  1.064079e+01    2.572223e+00
  1.065667e+01    2.524248e+00
  1.067254e+01    2.560884e+00
  1.068842e+01    2.589105e+00
  1.070429e+01    2.581619e+00
  1.072017e+01    2.567198e+00
  1.073604e+01    2.607194e+00
  1.075192e+01    2.596374e+00
  1.076780e+01    2.564462e+00
  1.078367e+01    2.544593e+00
  1.079955e+01    2.532060e+00
  1.081542e+01    2.541163e+00
  1.083130e+01    2.556744e+00
  1.084717e+01    2.536826e+00
  1.086305e+01    2.519856e+00
  1.087892e+01    2.559599e+00
  1.089480e+01    2.584362e+00
  1.091068e+01    2.569702e+00
  1.092655e+01    2.559657e+00
  1.094243e+01    2.511246e+00
  1.095830e+01    2.513849e+00
  1.097418e+01    2.553196e+00
  1.099005e+01    2.548883e+00
  1.100593e+01    2.544483e+00
  1.102180e+01    2.523737e+00
  1.103768e+01    2.484889e+00
  1.105356e+01    2.456805e+00
  1.106943e+01    2.500252e+00
  1.108531e+01    2.488691e+00
  1.110118e+01    2.477326e+00
  1.111706e+01    2.454602e+00
  1.113293e+01    2.464592e+00
  1.114881e+01    2.434473e+00
  1.116468e+01    2.432122e+00
  1.118056e+01    2.395819e+00
  1.119644e+01    2.441351e+00
  1.121231e+01    2.458541e+00
  1.122819e+01    2.473675e+00
  1.124406e+01    2.534104e+00
  1.125994e+01    2.485365e+00
  1.127581e+01    2.481244e+00
  1.129169e+01    2.487234e+00
  1.130756e+01    2.463980e+00
  1.132344e+01    2.453678e+00
  1.133932e+01    2.418627e+00
  1.135519e+01    2.435897e+00
  1.137107e+01    2.473147e+00
  1.138694e+01    2.457947e+00
  1.140282e+01    2.457056e+00
  1.141869e+01    2.451731e+00
  1.143457e+01    2.410474e+00
  1.145045e+01    2.421908e+00
  1.146632e+01    2.423563e+00
  1.148220e+01    2.406260e+00
  1.149807e+01    2.396775e+00
  1.151395e+01    2.414215e+00
  1.152982e+01    2.372527e+00
  1.154570e+01    2.403768e+00
  1.156157e+01    2.427531e+00
  1.157745e+01    2.445113e+00
  1.159333e+01    2.417394e+00
  1.160920e+01    2.370247e+00
  1.162508e+01    2.360048e+00
  1.164095e+01    2.422598e+00
  1.165683e+01    2.427799e+00
  1.167270e+01    2.376554e+00
  1.168858e+01    2.381657e+00
  1.170445e+01    2.365817e+00
  1.172033e+01    2.419361e+00
  1.173621e+01    2.438821e+00
  1.175208e+01    2.362806e+00
  1.176796e+01    2.408483e+00
  1.178383e+01    2.369471e+00
  1.179971e+01    2.374440e+00
  1.181558e+01    2.345935e+00
  1.183146e+01    2.391489e+00
  1.184733e+01    2.350806e+00
  1.186321e+01    2.319441e+00
  1.187909e+01    2.373018e+00
  1.189496e+01    2.362045e+00
  1.191084e+01    2.386751e+00
  1.192671e+01    2.369894e+00
  1.194259e+01    2.354568e+00
  1.195846e+01    2.355140e+00
  1.197434e+01    2.338001e+00
  1.199021e+01    2.366195e+00
  1.200609e+01    2.354878e+00
  1.202197e+01    2.324721e+00
  1.203784e+01    2.350508e+00
  1.205372e+01    2.308039e+00
  1.206959e+01    2.362377e+00
  1.208547e+01    2.358701e+00
  1.210134e+01    2.367605e+00
  1.211722e+01    2.373923e+00
  1.213309e+01    2.357236e+00
  1.214897e+01    2.337365e+00
  1.216485e+01    2.327317e+00
  1.218072e+01    2.335924e+00
  1.219660e+01    2.346858e+00
  1.221247e+01    2.324587e+00
  1.222835e+01    2.368542e+00
  1.224422e+01    2.342810e+00
  1.226010e+01    2.360850e+00
  1.227597e+01    2.361727e+00
  1.229185e+01    2.378505e+00
  1.230773e+01    2.318647e+00
  1.232360e+01    2.300003e+00
  1.233948e+01    2.370111e+00
  1.235535e+01    2.359207e+00
  1.237123e+01    2.367100e+00
  1.238710e+01    2.336143e+00
  1.240298e+01    2.321752e+00
  1.241886e+01    2.378916e+00
  1.243473e+01    2.369908e+00
  1.245061e+01    2.341526e+00
  1.246648e+01    2.369110e+00
  1.248236e+01    2.346398e+00
  1.249823e+01    2.345311e+00
  1.251411e+01    2.342701e+00
  1.252998e+01    2.391364e+00
  1.254586e+01    2.420346e+00
  1.256174e+01    2.432639e+00
  1.257761e+01    2.425143e+00
  1.259349e+01    2.355485e+00
  1.260936e+01    2.397666e+00
  1.262524e+01    2.423997e+00
  1.264111e+01    2.448896e+00
  1.265699e+01    2.462379e+00
  1.267286e+01    2.503506e+00
  1.268874e+01    2.479705e+00
  1.270462e+01    2.480401e+00
  1.272049e+01    2.505547e+00
  1.273637e+01    2.545194e+00
  1.275224e+01    2.564373e+00
  1.276812e+01    2.649044e+00
  1.278399e+01    2.649267e+00
  1.279987e+01    2.652180e+00
  1.281574e+01    2.707870e+00
  1.283162e+01    2.748525e+00
  1.284750e+01    2.837431e+00
  1.286337e+01    2.934740e+00
  1.287925e+01    3.065796e+00
  1.289512e+01    3.155830e+00
  1.291100e+01    3.256857e+00
  1.292687e+01    3.454515e+00
  1.294275e+01    3.659335e+00
  1.295862e+01    3.973304e+00
  1.297450e+01    4.302663e+00
  1.299038e+01    4.664880e+00
  1.300625e+01    5.203312e+00
  1.302213e+01    5.895286e+00
  1.303800e+01    6.624266e+00
  1.305388e+01    7.646055e+00
  1.306975e+01    8.991283e+00
  1.308563e+01    1.046015e+01
  1.310150e+01    1.193736e+01
  1.311738e+01    1.347854e+01
  1.313326e+01    1.501350e+01
  1.314913e+01    1.644461e+01
  1.316501e+01    1.787008e+01
  1.318088e+01    1.899859e+01
  1.319676e+01    1.974652e+01
  1.321263e+01    1.953467e+01
  1.322851e+01    1.830400e+01
  1.324438e+01    1.641147e+01
  1.326026e+01    1.409826e+01
  1.327614e+01    1.177305e+01
  1.329201e+01    9.895056e+00
  1.330789e+01    8.343751e+00
  1.332376e+01    7.110251e+00
  1.333964e+01    6.250998e+00
  1.335551e+01    5.509358e+00
  1.337139e+01    4.934449e+00
  1.338727e+01    4.502677e+00
  1.340314e+01    4.092052e+00
  1.341902e+01    3.811081e+00
  1.343489e+01    3.559984e+00
  1.345077e+01    3.340744e+00
  1.346664e+01    3.203830e+00
  1.348252e+01    3.101502e+00
  1.349839e+01    2.944024e+00
  1.351427e+01    2.837287e+00
  1.353015e+01    2.754658e+00
  1.354602e+01    2.670332e+00
  1.356190e+01    2.620511e+00
  1.357777e+01    2.593836e+00
  1.359365e+01    2.555711e+00
  1.360952e+01    2.518153e+00
  1.362540e+01    2.460508e+00
  1.364127e+01    2.392184e+00
  1.365715e+01    2.363209e+00
  1.367303e+01    2.341832e+00
  1.368890e+01    2.343946e+00
  1.370478e+01    2.314736e+00
  1.372065e+01    2.279848e+00
  1.373653e+01    2.273073e+00
  1.375240e+01    2.277269e+00
  1.376828e+01    2.189972e+00
  1.378415e+01    2.177584e+00
  1.380003e+01    2.208743e+00
  1.381591e+01    2.192442e+00
  1.383178e+01    2.206538e+00
  1.384766e+01    2.206487e+00
  1.386353e+01    2.216964e+00
  1.387941e+01    2.153680e+00
  1.389528e+01    2.147955e+00
  1.391116e+01    2.135475e+00
  1.392703e+01    2.110818e+00
  1.394291e+01    2.109337e+00
  1.395879e+01    2.064410e+00
  1.397466e+01    2.056489e+00
  1.399054e+01    2.082779e+00
  1.400641e+01    2.115293e+00
  1.402229e+01    2.044659e+00
  1.403816e+01    2.087886e+00
  1.405404e+01    2.118221e+00
  1.406991e+01    2.086906e+00
  1.408579e+01    2.053019e+00
  1.410167e+01    2.059784e+00
  1.411754e+01    2.040616e+00
  1.413342e+01    2.060090e+00
  1.414929e+01    2.033417e+00
  1.416517e+01    2.006842e+00
  1.418104e+01    2.032245e+00
  1.419692e+01    2.049180e+00
  1.421279e+01    2.048377e+00
  1.422867e+01    2.015306e+00
  1.424455e+01    1.986394e+00
  1.426042e+01    2.007252e+00
  1.427630e+01    1.976133e+00
  1.429217e+01    1.982931e+00
  1.430805e+01    1.958479e+00
  1.432392e+01    1.965768e+00
  1.433980e+01    1.939548e+00
  1.435568e+01    1.963928e+00
  1.437155e+01    1.971398e+00
  1.438743e+01    1.952742e+00
  1.440330e+01    1.960478e+00
  1.441918e+01    1.960213e+00
  1.443505e+01    1.979430e+00
  1.445093e+01    1.984163e+00
  1.446680e+01    1.956401e+00
  1.448268e+01    1.953512e+00
  1.449856e+01    1.960701e+00
  1.451443e+01    1.931679e+00
  1.453031e+01    1.944040e+00
  1.454618e+01    1.946226e+00
  1.456206e+01    1.961725e+00
  1.457793e+01    1.951653e+00
  1.459381e+01    1.950973e+00
  1.460968e+01    1.950531e+00
  1.462556e+01    1.937045e+00
  1.464144e+01    1.966815e+00
  1.465731e+01    1.952933e+00
  1.467319e+01    1.922986e+00
  1.468906e+01    1.895123e+00
  1.470494e+01    1.918871e+00
  1.472081e+01    1.941227e+00
  1.473669e+01    1.953073e+00
  1.475256e+01    1.937378e+00
  1.476844e+01    1.946564e+00
  1.478432e+01    1.951951e+00
  1.480019e+01    1.914557e+00
  1.481607e+01    1.924566e+00
  1.483194e+01    1.955209e+00
  1.484782e+01    1.940517e+00
  1.486369e+01    1.944831e+00
  1.487957e+01    1.975883e+00
  1.489544e+01    1.971550e+00
  1.491132e+01    1.973539e+00
  1.492720e+01    2.000026e+00
  1.494307e+01    1.988333e+00
  1.495895e+01    2.020057e+00
  1.497482e+01    2.055559e+00
  1.499070e+01    2.083429e+00
  1.500657e+01    2.163155e+00
  1.502245e+01    2.196023e+00
  1.503832e+01    2.243817e+00
  1.505420e+01    2.350503e+00
  1.507008e+01    2.475609e+00
  1.508595e+01    2.623689e+00
  1.510183e+01    2.735483e+00
  1.511770e+01    2.952723e+00
  1.513358e+01    3.251143e+00
  1.514945e+01    3.553207e+00
  1.516533e+01    3.907693e+00
  1.518120e+01    4.323512e+00
  1.519708e+01    4.813997e+00
  1.521296e+01    5.261468e+00
  1.522883e+01    5.683528e+00
  1.524471e+01    6.011543e+00
  1.526058e+01    6.320828e+00
  1.527646e+01    6.557497e+00
  1.529233e+01    6.671889e+00
  1.530821e+01    6.618283e+00
  1.532409e+01    6.274529e+00
  1.533996e+01    5.655801e+00
  1.535584e+01    5.003013e+00
  1.537171e+01    4.443714e+00
  1.538759e+01    3.891078e+00
  1.540346e+01    3.431266e+00
  1.541934e+01    3.071475e+00
  1.543521e+01    2.888897e+00
  1.545109e+01    2.695409e+00
  1.546697e+01    2.549634e+00
  1.548284e+01    2.422516e+00
  1.549872e+01    2.269305e+00
  1.551459e+01    2.243115e+00
  1.553047e+01    2.163689e+00
  1.554634e+01    2.097393e+00
  1.556222e+01    1.997646e+00
  1.557809e+01    1.918645e+00
  1.559397e+01    1.937431e+00
  1.560985e+01    1.876526e+00
  1.562572e+01    1.873606e+00
  1.564160e+01    1.901657e+00
  1.565747e+01    1.880794e+00
  1.567335e+01    1.820854e+00
  1.568922e+01    1.815428e+00
  1.570510e+01    1.772218e+00
  1.572097e+01    1.779951e+00
  1.573685e+01    1.772946e+00
  1.575273e+01    1.749963e+00
  1.576860e+01    1.728435e+00
  1.578448e+01    1.777039e+00
  1.580035e+01    1.758437e+00
  1.581623e+01    1.713685e+00
  1.583210e+01    1.693904e+00
  1.584798e+01    1.681837e+00
  1.586385e+01    1.658206e+00
  1.587973e+01    1.669145e+00
  1.589561e+01    1.660540e+00
  1.591148e+01    1.658578e+00
  1.592736e+01    1.668556e+00
  1.594323e+01    1.665882e+00
  1.595911e+01    1.660516e+00
  1.597498e+01    1.622473e+00
  1.599086e+01    1.649624e+00
  1.600673e+01    1.625606e+00
  1.602261e+01    1.584215e+00
  1.603849e+01    1.614186e+00
  1.605436e+01    1.619307e+00
  1.607024e+01    1.631894e+00
  1.608611e+01    1.632029e+00
  1.610199e+01    1.612117e+00
  1.611786e+01    1.607030e+00
  1.613374e+01    1.583228e+00
  1.614961e+01    1.593324e+00
  1.616549e+01    1.626248e+00
  1.618137e+01    1.618325e+00
  1.619724e+01    1.584723e+00
  1.621312e+01    1.559015e+00
  1.622899e+01    1.621473e+00
  1.624487e+01    1.592726e+00
  1.626074e+01    1.575090e+00
  1.627662e+01    1.551847e+00
  1.629250e+01    1.560274e+00
  1.630837e+01    1.553536e+00
  1.632425e+01    1.554906e+00
  1.634012e+01    1.550751e+00
  1.635600e+01    1.534353e+00
  1.637187e+01    1.520105e+00
  1.638775e+01    1.528328e+00
  1.640362e+01    1.536633e+00
  1.641950e+01    1.531051e+00
  1.643538e+01    1.536751e+00
  1.645125e+01    1.527745e+00
  1.646713e+01    1.550868e+00
  1.648300e+01    1.556867e+00
  1.649888e+01    1.514924e+00
  1.651475e+01    1.534067e+00
  1.653063e+01    1.581568e+00
  1.654650e+01    1.540279e+00
  1.656238e+01    1.535779e+00
  1.657826e+01    1.549049e+00
  1.659413e+01    1.527705e+00
  1.661001e+01    1.486724e+00
  1.662588e+01    1.459933e+00
  1.664176e+01    1.486575e+00
  1.665763e+01    1.503418e+00
  1.667351e+01    1.507639e+00
  1.668938e+01    1.534792e+00
  1.670526e+01    1.508200e+00
  1.672114e+01    1.496885e+00
  1.673701e+01    1.476630e+00
  1.675289e+01    1.442068e+00
  1.676876e+01    1.470408e+00
  1.678464e+01    1.468157e+00
  1.680051e+01    1.487723e+00
  1.681639e+01    1.480598e+00
  1.683226e+01    1.461875e+00
  1.684814e+01    1.489661e+00
  1.686402e+01    1.478697e+00
  1.687989e+01    1.444321e+00
  1.689577e+01    1.450870e+00
  1.691164e+01    1.462809e+00
  1.692752e+01    1.461066e+00
  1.694339e+01    1.481239e+00
  1.695927e+01    1.466348e+00
  1.697514e+01    1.453014e+00
  1.699102e+01    1.426787e+00
  1.700690e+01    1.447162e+00
  1.702277e+01    1.450770e+00
  1.703865e+01    1.416471e+00
  1.705452e+01    1.429949e+00
  1.707040e+01    1.445600e+00
  1.708627e+01    1.432690e+00
  1.710215e+01    1.449734e+00
  1.711802e+01    1.438250e+00
  1.713390e+01    1.413820e+00
  1.714978e+01    1.442174e+00
  1.716565e+01    1.451187e+00
  1.718153e+01    1.421041e+00
  1.719740e+01    1.394930e+00
  1.721328e+01    1.389013e+00
  1.722915e+01    1.412409e+00
  1.724503e+01    1.408346e+00
  1.726091e+01    1.410837e+00
  1.727678e+01    1.393722e+00
  1.729266e+01    1.388411e+00
  1.730853e+01    1.404225e+00
  1.732441e+01    1.393598e+00
  1.734028e+01    1.445354e+00
  1.735616e+01    1.419435e+00
  1.737203e+01    1.359324e+00
  1.738791e+01    1.356354e+00
  1.740379e+01    1.391581e+00
  1.741966e+01    1.401860e+00
  1.743554e+01    1.391750e+00
  1.745141e+01    1.369049e+00
  1.746729e+01    1.374514e+00
  1.748316e+01    1.382772e+00
  1.749904e+01    1.392667e+00
  1.751491e+01    1.379102e+00
  1.753079e+01    1.393380e+00
  1.754667e+01    1.396836e+00
  1.756254e+01    1.389576e+00
  1.757842e+01    1.383932e+00
  1.759429e+01    1.375985e+00
  1.761017e+01    1.362626e+00
  1.762604e+01    1.350752e+00
  1.764192e+01    1.351547e+00
  1.765779e+01    1.376824e+00
  1.767367e+01    1.382171e+00
  1.768955e+01    1.340225e+00
  1.770542e+01    1.330433e+00
  1.772130e+01    1.351820e+00
  1.773717e+01    1.352093e+00
  1.775305e+01    1.350698e+00
  1.776892e+01    1.342424e+00
  1.778480e+01    1.323306e+00
  1.780067e+01    1.339746e+00
  1.781655e+01    1.349732e+00
  1.783243e+01    1.355527e+00
  1.784830e+01    1.342026e+00
  1.786418e+01    1.309045e+00
  1.788005e+01    1.313792e+00
  1.789593e+01    1.306102e+00
  1.791180e+01    1.330186e+00
  1.792768e+01    1.305267e+00
  1.794355e+01    1.318130e+00
  1.795943e+01    1.313614e+00
  1.797531e+01    1.323272e+00
  1.799118e+01    1.319466e+00
  1.800706e+01    1.328308e+00
  1.802293e+01    1.305213e+00
  1.803881e+01    1.326582e+00
  1.805468e+01    1.335511e+00
  1.807056e+01    1.275117e+00
  1.808643e+01    1.304587e+00
  1.810231e+01    1.308137e+00
  1.811819e+01    1.281389e+00
  1.813406e+01    1.289696e+00
  1.814994e+01    1.288947e+00
  1.816581e+01    1.296629e+00
  1.818169e+01    1.297014e+00
  1.819756e+01    1.298697e+00
  1.821344e+01    1.296022e+00
  1.822932e+01    1.286947e+00
  1.824519e+01    1.278593e+00
  1.826107e+01    1.280893e+00
  1.827694e+01    1.280935e+00
  1.829282e+01    1.293437e+00
  1.830869e+01    1.293272e+00
  1.832457e+01    1.291843e+00
  1.834044e+01    1.293981e+00
  1.835632e+01    1.303481e+00
  1.837220e+01    1.270471e+00
  1.838807e+01    1.272823e+00
  1.840395e+01    1.263758e+00
  1.841982e+01    1.260267e+00
  1.843570e+01    1.247339e+00
  1.845157e+01    1.245248e+00
  1.846745e+01    1.233718e+00
  1.848332e+01    1.269862e+00
  1.849920e+01    1.270279e+00
  1.851508e+01    1.276799e+00
  1.853095e+01    1.263240e+00
  1.854683e+01    1.275576e+00
  1.856270e+01    1.256444e+00
  1.857858e+01    1.237166e+00
  1.859445e+01    1.251344e+00
  1.861033e+01    1.277990e+00
  1.862620e+01    1.279703e+00
  1.864208e+01    1.263546e+00
  1.865796e+01    1.222792e+00
  1.867383e+01    1.240491e+00
  1.868971e+01    1.259382e+00
  1.870558e+01    1.261355e+00
  1.872146e+01    1.247709e+00
  1.873733e+01    1.221640e+00
  1.875321e+01    1.237175e+00
  1.876908e+01    1.246623e+00
  1.878496e+01    1.224168e+00
  1.880084e+01    1.218873e+00
  1.881671e+01    1.255558e+00
  1.883259e+01    1.249425e+00
  1.884846e+01    1.244874e+00
  1.886434e+01    1.219316e+00
  1.888021e+01    1.211120e+00
  1.889609e+01    1.198916e+00
  1.891196e+01    1.207188e+00
  1.892784e+01    1.223625e+00
  1.894372e+01    1.235955e+00
  1.895959e+01    1.233607e+00
  1.897547e+01    1.224698e+00
  1.899134e+01    1.203769e+00
  1.900722e+01    1.205985e+00
  1.902309e+01    1.209199e+00
  1.903897e+01    1.198476e+00
  1.905484e+01    1.217176e+00
  1.907072e+01    1.220503e+00
  1.908660e+01    1.205673e+00
  1.910247e+01    1.192855e+00
  1.911835e+01    1.206406e+00
  1.913422e+01    1.210491e+00
  1.915010e+01    1.230660e+00
  1.916597e+01    1.208953e+00
  1.918185e+01    1.191841e+00
  1.919773e+01    1.199008e+00
  1.921360e+01    1.193744e+00
  1.922948e+01    1.213997e+00
  1.924535e+01    1.211805e+00
  1.926123e+01    1.192657e+00
  1.927710e+01    1.189273e+00
  1.929298e+01    1.230375e+00
  1.930885e+01    1.227317e+00
  1.932473e+01    1.188918e+00
  1.934061e+01    1.184122e+00
  1.935648e+01    1.194863e+00
  1.937236e+01    1.187412e+00
  1.938823e+01    1.175600e+00
  1.940411e+01    1.174354e+00
  1.941998e+01    1.203934e+00
  1.943586e+01    1.175128e+00
  1.945173e+01    1.188142e+00
  1.946761e+01    1.197103e+00
  1.948349e+01    1.188405e+00
  1.949936e+01    1.178957e+00
  1.951524e+01    1.174076e+00
  1.953111e+01    1.188812e+00
  1.954699e+01    1.187551e+00
  1.956286e+01    1.154094e+00
  1.957874e+01    1.171626e+00
  1.959461e+01    1.170604e+00
  1.961049e+01    1.206329e+00
  1.962637e+01    1.184666e+00
  1.964224e+01    1.161791e+00
  1.965812e+01    1.149992e+00
  1.967399e+01    1.163798e+00
  1.968987e+01    1.165594e+00
  1.970574e+01    1.161057e+00
  1.972162e+01    1.149935e+00
  1.973749e+01    1.149672e+00
  1.975337e+01    1.167091e+00
  1.976925e+01    1.158878e+00
  1.978512e+01    1.154395e+00
  1.980100e+01    1.154752e+00
  1.981687e+01    1.145967e+00
  1.983275e+01    1.133252e+00
  1.984862e+01    1.123078e+00
  1.986450e+01    1.138061e+00
  1.988037e+01    1.147929e+00
  1.989625e+01    1.165402e+00
  1.991213e+01    1.152119e+00
  1.992800e+01    1.130393e+00
  1.994388e+01    1.130041e+00
  1.995975e+01    1.135985e+00
  1.997563e+01    1.140740e+00
  1.999150e+01    1.162606e+00
  2.000738e+01    1.129874e+00
  2.002325e+01    1.116987e+00
  2.003913e+01    1.150580e+00
  2.005501e+01    1.143432e+00
  2.007088e+01    1.126900e+00
  2.008676e+01    1.140253e+00
  2.010263e+01    1.127787e+00
  2.011851e+01    1.134215e+00
  2.013438e+01    1.136463e+00
  2.015026e+01    1.128242e+00
  2.016614e+01    1.113267e+00
  2.018201e+01    1.141095e+00
  2.019789e+01    1.134122e+00
  2.021376e+01    1.123992e+00
  2.022964e+01    1.121909e+00
  2.024551e+01    1.135437e+00
  2.026139e+01    1.127102e+00
  2.027726e+01    1.114646e+00
  2.029314e+01    1.117974e+00
  2.030902e+01    1.134300e+00
  2.032489e+01    1.134574e+00
  2.034077e+01    1.104822e+00
  2.035664e+01    1.103003e+00
  2.037252e+01    1.131663e+00
  2.038839e+01    1.109960e+00
  2.040427e+01    1.111513e+00
  2.042014e+01    1.104566e+00
  2.043602e+01    1.120498e+00
  2.045190e+01    1.110169e+00
  2.046777e+01    1.078708e+00
  2.048365e+01    1.089924e+00
  2.049952e+01    1.085349e+00
  2.051540e+01    1.112050e+00
  2.053127e+01    1.103639e+00
  2.054715e+01    1.106699e+00
  2.056302e+01    1.101767e+00
  2.057890e+01    1.100507e+00
  2.059478e+01    1.087609e+00
  2.061065e+01    1.100324e+00
  2.062653e+01    1.090457e+00
  2.064240e+01    1.083110e+00
  2.065828e+01    1.111030e+00
  2.067415e+01    1.088273e+00
  2.069003e+01    1.076306e+00
  2.070590e+01    1.118611e+00
  2.072178e+01    1.120246e+00
  2.073766e+01    1.093844e+00
  2.075353e+01    1.111485e+00
  2.076941e+01    1.114702e+00
  2.078528e+01    1.098543e+00
  2.080116e+01    1.096919e+00
  2.081703e+01    1.083318e+00
  2.083291e+01    1.097214e+00
  2.084878e+01    1.084477e+00
  2.086466e+01    1.093081e+00
  2.088054e+01    1.100610e+00
  2.089641e+01    1.112273e+00
  2.091229e+01    1.106834e+00
  2.092816e+01    1.094663e+00
  2.094404e+01    1.113005e+00
  2.095991e+01    1.135398e+00
  2.097579e+01    1.110258e+00
  2.099166e+01    1.089254e+00
  2.100754e+01    1.089678e+00
  2.102342e+01    1.076438e+00
  2.103929e+01    1.071012e+00
  2.105517e+01    1.082623e+00
  2.107104e+01    1.082146e+00
  2.108692e+01    1.086304e+00
  2.110279e+01    1.095987e+00
  2.111867e+01    1.082908e+00
  2.113455e+01    1.101099e+00
  2.115042e+01    1.111851e+00
  2.116630e+01    1.108369e+00
  2.118217e+01    1.114872e+00
  2.119805e+01    1.120855e+00
  2.121392e+01    1.123782e+00
  2.122980e+01    1.113078e+00
  2.124567e+01    1.114694e+00
  2.126155e+01    1.129793e+00
  2.127743e+01    1.147470e+00
  2.129330e+01    1.135551e+00
  2.130918e+01    1.125918e+00
  2.132505e+01    1.131752e+00
  2.134093e+01    1.144996e+00
  2.135680e+01    1.176420e+00
  2.137268e+01    1.160800e+00
  2.138855e+01    1.169203e+00
  2.140443e+01    1.158753e+00
  2.142031e+01    1.198578e+00
  2.143618e+01    1.211901e+00
  2.145206e+01    1.239644e+00
  2.146793e+01    1.241391e+00
  2.148381e+01    1.255559e+00
  2.149968e+01    1.305808e+00
  2.151556e+01    1.335005e+00
  2.153143e+01    1.345224e+00
  2.154731e+01    1.347044e+00
  2.156319e+01    1.374130e+00
  2.157906e+01    1.438940e+00
  2.159494e+01    1.496822e+00
  2.161081e+01    1.548386e+00
  2.162669e+01    1.607997e+00
  2.164256e+01    1.677957e+00
  2.165844e+01    1.792909e+00
  2.167431e+01    1.952664e+00
  2.169019e+01    2.113356e+00
  2.170607e+01    2.303725e+00
  2.172194e+01    2.536029e+00
  2.173782e+01    2.829806e+00
  2.175369e+01    3.161445e+00
  2.176957e+01    3.609397e+00
  2.178544e+01    4.158213e+00
  2.180132e+01    4.769326e+00
  2.181719e+01    5.518591e+00
  2.183307e+01    6.310600e+00
  2.184895e+01    7.116131e+00
  2.186482e+01    8.074086e+00
  2.188070e+01    8.982220e+00
  2.189657e+01    9.786640e+00
  2.191245e+01    1.047928e+01
  2.192832e+01    1.102577e+01
  2.194420e+01    1.100083e+01
  2.196007e+01    1.061913e+01
  2.197595e+01    9.718505e+00
  2.199183e+01    8.527251e+00
  2.200770e+01    7.307946e+00
  2.202358e+01    6.178978e+00
  2.203945e+01    5.237833e+00
  2.205533e+01    4.471639e+00
  2.207120e+01    3.817456e+00
  2.208708e+01    3.317352e+00
  2.210296e+01    2.916030e+00
  2.211883e+01    2.643630e+00
  2.213471e+01    2.390989e+00
  2.215058e+01    2.192499e+00
  2.216646e+01    1.975763e+00
  2.218233e+01    1.831559e+00
  2.219821e+01    1.716244e+00
  2.221408e+01    1.630640e+00
  2.222996e+01    1.565151e+00
  2.224584e+01    1.494414e+00
  2.226171e+01    1.464741e+00
  2.227759e+01    1.393064e+00
  2.229346e+01    1.345465e+00
  2.230934e+01    1.304065e+00
  2.232521e+01    1.256354e+00
  2.234109e+01    1.214660e+00
  2.235696e+01    1.216355e+00
  2.237284e+01    1.197041e+00
  2.238872e+01    1.176433e+00
  2.240459e+01    1.180302e+00
  2.242047e+01    1.150053e+00
  2.243634e+01    1.136521e+00
  2.245222e+01    1.106560e+00
  2.246809e+01    1.099550e+00
  2.248397e+01    1.089852e+00
  2.249984e+01    1.082784e+00
  2.251572e+01    1.068183e+00
  2.253160e+01    1.055039e+00
  2.254747e+01    1.040537e+00
  2.256335e+01    1.047746e+00
  2.257922e+01    1.048913e+00
  2.259510e+01    1.037521e+00
  2.261097e+01    1.007240e+00
  2.262685e+01    1.013759e+00
  2.264272e+01    1.002748e+00
  2.265860e+01    9.952119e-01
  2.267448e+01    9.841517e-01
  2.269035e+01    9.916947e-01
  2.270623e+01    9.927467e-01
  2.272210e+01    9.709154e-01
  2.273798e+01    9.652234e-01
  2.275385e+01    9.608062e-01
  2.276973e+01    9.605007e-01
  2.278560e+01    9.729175e-01
  2.280148e+01    9.800804e-01
  2.281736e+01    9.623115e-01
  2.283323e+01    9.511180e-01
  2.284911e+01    9.194123e-01
  2.286498e+01    9.450619e-01
  2.288086e+01    9.191347e-01
  2.289673e+01    9.330716e-01
  2.291261e+01    9.544610e-01
  2.292848e+01    9.353634e-01
  2.294436e+01    9.414104e-01
  2.296024e+01    9.175739e-01
  2.297611e+01    9.179888e-01
  2.299199e+01    9.215475e-01
  2.300786e+01    9.306192e-01
  2.302374e+01    9.247282e-01
  2.303961e+01    9.348645e-01
  2.305549e+01    9.255086e-01
  2.307137e+01    9.299918e-01
  2.308724e+01    9.209496e-01
  2.310312e+01    9.046373e-01
  2.311899e+01    9.071624e-01
  2.313487e+01    8.995906e-01
  2.315074e+01    9.150410e-01
  2.316662e+01    9.070686e-01
  2.318249e+01    8.724822e-01
  2.319837e+01    8.842988e-01
  2.321425e+01    8.918690e-01
  2.323012e+01    8.852502e-01
  2.324600e+01    8.818661e-01
  2.326187e+01    8.690809e-01
  2.327775e+01    8.876897e-01
  2.329362e+01    8.835258e-01
  2.330950e+01    8.934132e-01
  2.332537e+01    8.799170e-01
  2.334125e+01    8.729953e-01
  2.335713e+01    8.842645e-01
  2.337300e+01    9.046026e-01
  2.338888e+01    8.991869e-01
  2.340475e+01    9.048302e-01
  2.342063e+01    8.721613e-01
  2.343650e+01    8.461084e-01
  2.345238e+01    8.710449e-01
  2.346825e+01    8.834555e-01
  2.348413e+01    8.582610e-01
  2.350001e+01    8.664423e-01
  2.351588e+01    8.701650e-01
  2.353176e+01    8.779060e-01
  2.354763e+01    8.798838e-01
  2.356351e+01    8.515851e-01
  2.357938e+01    8.508496e-01
  2.359526e+01    8.570995e-01
  2.361113e+01    8.593146e-01
  2.362701e+01    8.671529e-01
  2.364289e+01    8.724182e-01
  2.365876e+01    8.684618e-01
  2.367464e+01    8.419710e-01
  2.369051e+01    8.476025e-01
  2.370639e+01    8.526230e-01
  2.372226e+01    8.401924e-01
  2.373814e+01    8.317687e-01
  2.375401e+01    8.284317e-01
  2.376989e+01    8.165922e-01
  2.378577e+01    8.265440e-01
  2.380164e+01    8.380271e-01
  2.381752e+01    8.376788e-01
  2.383339e+01    8.282678e-01
  2.384927e+01    8.320546e-01
  2.386514e+01    8.192466e-01
  2.388102e+01    7.968222e-01
  2.389689e+01    8.062938e-01
  2.391277e+01    8.250319e-01
  2.392865e+01    8.127906e-01
  2.394452e+01    8.000593e-01
  2.396040e+01    8.174455e-01
  2.397627e+01    8.139352e-01
  2.399215e+01    8.217713e-01
  2.400802e+01    8.085678e-01
  2.402390e+01    8.106237e-01
  2.403978e+01    8.074853e-01
  2.405565e+01    8.152204e-01
  2.407153e+01    8.053280e-01
  2.408740e+01    8.154119e-01
  2.410328e+01    8.054633e-01
  2.411915e+01    8.123966e-01
  2.413503e+01    8.049652e-01
  2.415090e+01    7.843688e-01
  2.416678e+01    7.787303e-01
  2.418266e+01    7.712138e-01
  2.419853e+01    7.853149e-01
  2.421441e+01    7.892315e-01
  2.423028e+01    7.838333e-01
  2.424616e+01    7.688195e-01
  2.426203e+01    8.079044e-01
  2.427791e+01    8.151068e-01
  2.429378e+01    8.106437e-01
  2.430966e+01    8.188783e-01
  2.432554e+01    7.914729e-01
  2.434141e+01    7.920038e-01
  2.435729e+01    8.156908e-01
  2.437316e+01    8.027255e-01
  2.438904e+01    7.882076e-01
  2.440491e+01    7.989110e-01
  2.442079e+01    7.995601e-01
  2.443666e+01    8.052043e-01
  2.445254e+01    7.970739e-01
  2.446842e+01    8.196961e-01
  2.448429e+01    8.119085e-01
  2.450017e+01    7.992580e-01
  2.451604e+01    7.968718e-01
  2.453192e+01    8.145465e-01
  2.454779e+01    8.039052e-01
  2.456367e+01    8.178850e-01
  2.457954e+01    8.215531e-01
  2.459542e+01    7.904930e-01
  2.461130e+01    7.845542e-01
  2.462717e+01    7.983609e-01
  2.464305e+01    8.097710e-01
  2.465892e+01    7.987294e-01
  2.467480e+01    8.059412e-01
  2.469067e+01    8.029169e-01
  2.470655e+01    7.942269e-01
  2.472242e+01    7.914757e-01
  2.473830e+01    8.029078e-01
  2.475418e+01    8.298471e-01
  2.477005e+01    8.179222e-01
  2.478593e+01    8.209137e-01
  2.480180e+01    8.051096e-01
  2.481768e+01    8.193175e-01
  2.483355e+01    8.216507e-01
  2.484943e+01    8.123251e-01
  2.486530e+01    8.129941e-01
  2.488118e+01    8.186728e-01
  2.489706e+01    8.066434e-01
  2.491293e+01    8.104502e-01
  2.492881e+01    8.275024e-01
  2.494468e+01    8.209247e-01
  2.496056e+01    7.924403e-01
  2.497643e+01    8.174264e-01
  2.499231e+01    8.425587e-01
  2.500819e+01    8.135582e-01
  2.502406e+01    8.192835e-01
  2.503994e+01    8.217557e-01
  2.505581e+01    8.278531e-01
  2.507169e+01    8.299854e-01
  2.508756e+01    8.269783e-01
  2.510344e+01    8.446985e-01
  2.511931e+01    8.415509e-01
  2.513519e+01    8.252853e-01
  2.515107e+01    8.280705e-01
  2.516694e+01    8.469836e-01
  2.518282e+01    8.589142e-01
  2.519869e+01    8.422064e-01
  2.521457e+01    8.422788e-01
  2.523044e+01    8.517672e-01
  2.524632e+01    8.510426e-01
  2.526219e+01    8.470045e-01
  2.527807e+01    8.715333e-01
  2.529395e+01    8.827509e-01
  2.530982e+01    8.938908e-01
  2.532570e+01    8.841488e-01
  2.534157e+01    8.765599e-01
  2.535745e+01    9.046552e-01
  2.537332e+01    9.211868e-01
  2.538920e+01    9.229734e-01
  2.540507e+01    9.258136e-01
  2.542095e+01    9.173391e-01
  2.543683e+01    9.260343e-01
  2.545270e+01    9.531616e-01
  2.546858e+01    9.600593e-01
  2.548445e+01    9.686071e-01
  2.550033e+01    9.823881e-01
  2.551620e+01    9.967356e-01
  2.553208e+01    1.016470e+00
  2.554795e+01    1.010179e+00
  2.556383e+01    1.027433e+00
  2.557971e+01    1.055734e+00
  2.559558e+01    1.081692e+00
  2.561146e+01    1.104172e+00
  2.562733e+01    1.108129e+00
  2.564321e+01    1.165852e+00
  2.565908e+01    1.204172e+00
  2.567496e+01    1.262366e+00
  2.569083e+01    1.318310e+00
  2.570671e+01    1.407398e+00
  2.572259e+01    1.464368e+00
  2.573846e+01    1.548529e+00
  2.575434e+01    1.668151e+00
  2.577021e+01    1.801778e+00
  2.578609e+01    1.967995e+00
  2.580196e+01    2.166777e+00
  2.581784e+01    2.431093e+00
  2.583371e+01    2.739793e+00
  2.584959e+01    3.132153e+00
  2.586547e+01    3.595782e+00
  2.588134e+01    4.096239e+00
  2.589722e+01    4.722246e+00
  2.591309e+01    5.486234e+00
  2.592897e+01    6.261040e+00
  2.594484e+01    7.065108e+00
  2.596072e+01    7.795976e+00
  2.597660e+01    8.529388e+00
  2.599247e+01    9.002329e+00
  2.600835e+01    9.185302e+00
  2.602422e+01    9.048020e+00
  2.604010e+01    8.492789e+00
  2.605597e+01    7.660367e+00
  2.607185e+01    6.759170e+00
  2.608772e+01    5.796089e+00
  2.610360e+01    4.968827e+00
  2.611948e+01    4.262959e+00
  2.613535e+01    3.629481e+00
  2.615123e+01    3.166506e+00
  2.616710e+01    2.754438e+00
  2.618298e+01    2.451964e+00
  2.619885e+01    2.195107e+00
  2.621473e+01    2.007719e+00
  2.623060e+01    1.863320e+00
  2.624648e+01    1.726211e+00
  2.626236e+01    1.595798e+00
  2.627823e+01    1.494893e+00
  2.629411e+01    1.414007e+00
  2.630998e+01    1.347941e+00
  2.632586e+01    1.303303e+00
  2.634173e+01    1.237397e+00
  2.635761e+01    1.184087e+00
  2.637348e+01    1.166968e+00
  2.638936e+01    1.117464e+00
  2.640524e+01    1.116032e+00
  2.642111e+01    1.073443e+00
  2.643699e+01    1.063310e+00
  2.645286e+01    1.029226e+00
  2.646874e+01    1.007894e+00
  2.648461e+01    1.028946e+00
  2.650049e+01    1.023880e+00
  2.651636e+01    1.000348e+00
  2.653224e+01    9.966085e-01
  2.654812e+01    9.898517e-01
  2.656399e+01    9.914466e-01
  2.657987e+01    9.654929e-01
  2.659574e+01    9.460658e-01
  2.661162e+01    9.331155e-01
  2.662749e+01    9.326431e-01
  2.664337e+01    9.314377e-01
  2.665924e+01    9.469861e-01
  2.667512e+01    9.184676e-01
  2.669100e+01    9.089636e-01
  2.670687e+01    9.314953e-01
  2.672275e+01    9.488910e-01
  2.673862e+01    9.390423e-01
  2.675450e+01    9.222383e-01
  2.677037e+01    9.213495e-01
  2.678625e+01    9.115856e-01
  2.680212e+01    9.099513e-01
  2.681800e+01    9.226998e-01
  2.683388e+01    9.348578e-01
  2.684975e+01    9.229658e-01
  2.686563e+01    9.348709e-01
  2.688150e+01    9.364191e-01
  2.689738e+01    9.527360e-01
  2.691325e+01    9.449551e-01
  2.692913e+01    9.323737e-01
  2.694501e+01    9.484701e-01
  2.696088e+01    9.929934e-01
  2.697676e+01    9.873238e-01
  2.699263e+01    9.730912e-01
  2.700851e+01    1.036980e+00
  2.702438e+01    1.060071e+00
  2.704026e+01    1.054885e+00
  2.705613e+01    1.087617e+00
  2.707201e+01    1.148978e+00
  2.708789e+01    1.201964e+00
  2.710376e+01    1.245315e+00
  2.711964e+01    1.335504e+00
  2.713551e+01    1.439230e+00
  2.715139e+01    1.552587e+00
  2.716726e+01    1.715065e+00
  2.718314e+01    1.873672e+00
  2.719901e+01    2.013130e+00
  2.721489e+01    2.216560e+00
  2.723077e+01    2.375088e+00
  2.724664e+01    2.523318e+00
  2.726252e+01    2.558225e+00
  2.727839e+01    2.602624e+00
  2.729427e+01    2.564545e+00
  2.731014e+01    2.361195e+00
  2.732602e+01    2.124017e+00
  2.734189e+01    1.969712e+00
  2.735777e+01    1.812109e+00
  2.737365e+01    1.632237e+00
  2.738952e+01    1.480329e+00
  2.740540e+01    1.383857e+00
  2.742127e+01    1.294215e+00
  2.743715e+01    1.246270e+00
  2.745302e+01    1.175971e+00
  2.746890e+01    1.123081e+00
  2.748477e+01    1.063955e+00
  2.750065e+01    1.045061e+00
  2.751653e+01    1.023935e+00
  2.753240e+01    1.006911e+00
  2.754828e+01    9.539031e-01
  2.756415e+01    9.317667e-01
  2.758003e+01    9.334984e-01
  2.759590e+01    9.292840e-01
  2.761178e+01    9.022444e-01
  2.762765e+01    8.881135e-01
  2.764353e+01    8.958118e-01
  2.765941e+01    8.738235e-01
  2.767528e+01    8.794220e-01
  2.769116e+01    8.642667e-01
  2.770703e+01    8.500081e-01
  2.772291e+01    8.382328e-01
  2.773878e+01    8.263265e-01
  2.775466e+01    8.112931e-01
  2.777054e+01    8.093271e-01
  2.778641e+01    8.161752e-01
  2.780229e+01    8.273523e-01
  2.781816e+01    8.184001e-01
  2.783404e+01    8.228233e-01
  2.784991e+01    8.332396e-01
  2.786579e+01    8.307204e-01
  2.788166e+01    8.229746e-01
  2.789754e+01    8.299621e-01
  2.791342e+01    8.222526e-01
  2.792929e+01    8.235002e-01
  2.794517e+01    8.126948e-01
  2.796104e+01    8.198912e-01
  2.797692e+01    8.229386e-01
  2.799279e+01    8.212265e-01
  2.800867e+01    8.214538e-01
  2.802454e+01    8.214561e-01
  2.804042e+01    8.118162e-01
  2.805630e+01    8.032320e-01
  2.807217e+01    8.106006e-01
  2.808805e+01    8.281041e-01
  2.810392e+01    8.278772e-01
  2.811980e+01    8.120778e-01
  2.813567e+01    8.126291e-01
  2.815155e+01    7.902938e-01
  2.816742e+01    7.895606e-01
  2.818330e+01    7.950240e-01
  2.819918e+01    8.062248e-01
  2.821505e+01    8.024000e-01
  2.823093e+01    8.010955e-01
  2.824680e+01    7.848449e-01
  2.826268e+01    7.946674e-01
  2.827855e+01    8.155535e-01
  2.829443e+01    7.882677e-01
  2.831030e+01    7.737980e-01
  2.832618e+01    7.852868e-01
  2.834206e+01    8.014598e-01
  2.835793e+01    8.058836e-01
  2.837381e+01    7.821630e-01
  2.838968e+01    7.963727e-01
  2.840556e+01    7.796700e-01
  2.842143e+01    7.907057e-01
  2.843731e+01    7.640472e-01
  2.845318e+01    7.784258e-01
  2.846906e+01    7.925353e-01
  2.848494e+01    7.756511e-01
  2.850081e+01    7.743309e-01
  2.851669e+01    7.692644e-01
  2.853256e+01    7.621145e-01
  2.854844e+01    7.463891e-01
  2.856431e+01    7.721326e-01
  2.858019e+01    7.816892e-01
  2.859606e+01    7.745216e-01
  2.861194e+01    7.817340e-01
  2.862782e+01    7.736287e-01
  2.864369e+01    7.660027e-01
  2.865957e+01    7.680871e-01
  2.867544e+01    7.529927e-01
  2.869132e+01    7.771071e-01
  2.870719e+01    7.632270e-01
  2.872307e+01    7.582844e-01
  2.873895e+01    7.583342e-01
  2.875482e+01    7.625630e-01
  2.877070e+01    7.644157e-01
  2.878657e+01    7.768688e-01
  2.880245e+01    7.646666e-01
  2.881832e+01    7.701316e-01
  2.883420e+01    7.648892e-01
  2.885007e+01    7.760195e-01
  2.886595e+01    7.704818e-01
  2.888183e+01    7.495525e-01
  2.889770e+01    7.460195e-01
  2.891358e+01    7.759365e-01
  2.892945e+01    7.625225e-01
  2.894533e+01    7.578983e-01
  2.896120e+01    7.600043e-01
  2.897708e+01    7.740073e-01
  2.899295e+01    7.745162e-01
  2.900883e+01    7.652566e-01
  2.902471e+01    7.704068e-01
  2.904058e+01    7.527879e-01
  2.905646e+01    7.520611e-01
  2.907233e+01    7.403574e-01
  2.908821e+01    7.365929e-01
  2.910408e+01    7.486501e-01
  2.911996e+01    7.281043e-01
  2.913583e+01    7.518992e-01
  2.915171e+01    7.631665e-01
  2.916759e+01    7.491728e-01
  2.918346e+01    7.245917e-01
  2.919934e+01    7.516955e-01
  2.921521e+01    7.417836e-01
  2.923109e+01    7.502731e-01
  2.924696e+01    7.511849e-01
  2.926284e+01    7.526621e-01
  2.927871e+01    7.408066e-01
  2.929459e+01    7.437254e-01
  2.931047e+01    7.294466e-01
  2.932634e+01    7.453315e-01
  2.934222e+01    7.308710e-01
  2.935809e+01    7.429231e-01
  2.937397e+01    7.567140e-01
  2.938984e+01    7.245707e-01
  2.940572e+01    7.427947e-01
  2.942159e+01    7.624957e-01
  2.943747e+01    7.465902e-01
  2.945335e+01    7.441077e-01
  2.946922e+01    7.290885e-01
  2.948510e+01    7.229979e-01
  2.950097e+01    7.643597e-01
  2.951685e+01    7.348292e-01
  2.953272e+01    7.178149e-01
  2.954860e+01    7.281353e-01
  2.956447e+01    7.370831e-01
  2.958035e+01    7.315809e-01
  2.959623e+01    7.253103e-01
  2.961210e+01    7.187690e-01
  2.962798e+01    7.434319e-01
  2.964385e+01    7.446567e-01
  2.965973e+01    7.451583e-01
  2.967560e+01    7.409504e-01
  2.969148e+01    7.273877e-01
  2.970736e+01    7.306308e-01
  2.972323e+01    7.411875e-01
  2.973911e+01    7.151811e-01
  2.975498e+01    7.265708e-01
  2.977086e+01    7.350041e-01
  2.978673e+01    7.229826e-01
  2.980261e+01    7.401174e-01
  2.981848e+01    7.339448e-01
  2.983436e+01    7.389838e-01
  2.985024e+01    7.359037e-01
  2.986611e+01    7.467171e-01
  2.988199e+01    7.449670e-01
  2.989786e+01    7.424129e-01
  2.991374e+01    7.187577e-01
  2.992961e+01    7.364022e-01
  2.994549e+01    7.448463e-01
  2.996136e+01    7.272878e-01
  2.997724e+01    7.511196e-01
  2.999312e+01    7.354237e-01
  3.000899e+01    7.522207e-01
  3.002487e+01    7.394261e-01
  3.004074e+01    7.273719e-01
  3.005662e+01    7.458770e-01
  3.007249e+01    7.493051e-01
  3.008837e+01    7.345882e-01
  3.010424e+01    7.159232e-01
  3.012012e+01    7.420465e-01
  3.013600e+01    7.332991e-01
  3.015187e+01    7.453864e-01
  3.016775e+01    7.445182e-01
  3.018362e+01    7.176750e-01
  3.019950e+01    7.288084e-01
  3.021537e+01    7.366679e-01
  3.023125e+01    7.270475e-01
  3.024712e+01    7.427698e-01
  3.026300e+01    7.269626e-01
  3.027888e+01    7.264588e-01
  3.029475e+01    7.400752e-01
  3.031063e+01    7.294185e-01
  3.032650e+01    7.237438e-01
  3.034238e+01    7.335064e-01
  3.035825e+01    7.175791e-01
  3.037413e+01    7.293820e-01
  3.039000e+01    7.165729e-01
  3.040588e+01    7.167590e-01
  3.042176e+01    7.203463e-01
  3.043763e+01    7.214128e-01
  3.045351e+01    7.473866e-01
  3.046938e+01    7.270551e-01
  3.048526e+01    7.297840e-01
  3.050113e+01    7.340658e-01
  3.051701e+01    7.274933e-01
  3.053288e+01    7.041349e-01
  3.054876e+01    6.891389e-01
  3.056464e+01    7.013031e-01
  3.058051e+01    7.258229e-01
  3.059639e+01    7.157823e-01
  3.061226e+01    7.151554e-01
  3.062814e+01    7.322490e-01
  3.064401e+01    7.303700e-01
  3.065989e+01    7.514659e-01
  3.067577e+01    7.215425e-01
  3.069164e+01    7.286904e-01
  3.070752e+01    7.380201e-01
  3.072339e+01    7.042536e-01
  3.073927e+01    7.221426e-01
  3.075514e+01    7.217950e-01
  3.077102e+01    7.173300e-01
  3.078689e+01    7.065119e-01
  3.080277e+01    7.105401e-01
  3.081865e+01    7.219028e-01
  3.083452e+01    7.179939e-01
  3.085040e+01    7.359284e-01
  3.086627e+01    7.489862e-01
  3.088215e+01    7.160942e-01
  3.089802e+01    7.218313e-01
  3.091390e+01    7.522131e-01
  3.092977e+01    7.419983e-01
  3.094565e+01    7.330301e-01
  3.096153e+01    7.333552e-01
  3.097740e+01    7.137761e-01
  3.099328e+01    7.227089e-01
  3.100915e+01    7.326546e-01
  3.102503e+01    7.330632e-01
  3.104090e+01    7.267547e-01
  3.105678e+01    7.333338e-01
  3.107265e+01    7.249123e-01
  3.108853e+01    7.197202e-01
  3.110441e+01    7.523455e-01
  3.112028e+01    7.371414e-01
  3.113616e+01    7.309212e-01
  3.115203e+01    7.318290e-01
  3.116791e+01    7.445509e-01
  3.118378e+01    7.487420e-01
  3.119966e+01    7.420402e-01
  3.121553e+01    7.206614e-01
  3.123141e+01    7.517673e-01
  3.124729e+01    7.411068e-01
  3.126316e+01    7.387452e-01
  3.127904e+01    7.416588e-01
  3.129491e+01    7.315627e-01
  3.131079e+01    7.318410e-01
  3.132666e+01    7.459587e-01
  3.134254e+01    7.424995e-01
  3.135841e+01    7.650552e-01
  3.137429e+01    7.500537e-01
  3.139017e+01    7.390602e-01
  3.140604e+01    7.521381e-01
  3.142192e+01    7.661023e-01
  3.143779e+01    7.625264e-01
  3.145367e+01    7.643013e-01
  3.146954e+01    7.493626e-01
  3.148542e+01    7.497783e-01
  3.150129e+01    7.464254e-01
  3.151717e+01    7.852223e-01
  3.153305e+01    7.981314e-01
  3.154892e+01    7.971520e-01
  3.156480e+01    7.735720e-01
  3.158067e+01    7.717705e-01
  3.159655e+01    8.004353e-01
  3.161242e+01    8.105176e-01
  3.162830e+01    8.118762e-01
  3.164418e+01    8.338847e-01
  3.166005e+01    8.530074e-01
  3.167593e+01    8.789099e-01
  3.169180e+01    8.891919e-01
  3.170768e+01    8.924977e-01
  3.172355e+01    9.403815e-01
  3.173943e+01    9.650425e-01
  3.175530e+01    1.015024e+00
  3.177118e+01    1.042451e+00
  3.178706e+01    1.119337e+00
  3.180293e+01    1.207423e+00
  3.181881e+01    1.272071e+00
  3.183468e+01    1.380806e+00
  3.185056e+01    1.536710e+00
  3.186643e+01    1.688882e+00
  3.188231e+01    1.835178e+00
  3.189818e+01    1.993476e+00
  3.191406e+01    2.199781e+00
  3.192994e+01    2.384725e+00
  3.194581e+01    2.523339e+00
  3.196169e+01    2.574405e+00
  3.197756e+01    2.603558e+00
  3.199344e+01    2.510068e+00
  3.200931e+01    2.344690e+00
  3.202519e+01    2.188598e+00
  3.204106e+01    1.983342e+00
  3.205694e+01    1.775310e+00
  3.207282e+01    1.563505e+00
  3.208869e+01    1.465432e+00
  3.210457e+01    1.334305e+00
  3.212044e+01    1.198260e+00
  3.213632e+01    1.099411e+00
  3.215219e+01    1.064065e+00
  3.216807e+01    1.013732e+00
  3.218394e+01    9.869144e-01
  3.219982e+01    9.625033e-01
  3.221570e+01    9.165839e-01
  3.223157e+01    9.028206e-01
  3.224745e+01    8.697041e-01
  3.226332e+01    8.736687e-01
  3.227920e+01    8.512176e-01
  3.229507e+01    8.189666e-01
  3.231095e+01    8.024798e-01
  3.232682e+01    7.967088e-01
  3.234270e+01    8.008353e-01
  3.235858e+01    7.985255e-01
  3.237445e+01    7.947564e-01
  3.239033e+01    7.915904e-01
  3.240620e+01    7.795398e-01
  3.242208e+01    7.722184e-01
  3.243795e+01    7.801470e-01
  3.245383e+01    7.549742e-01
  3.246970e+01    7.345421e-01
  3.248558e+01    7.516013e-01
  3.250146e+01    7.463122e-01
  3.251733e+01    7.380367e-01
  3.253321e+01    7.477277e-01
  3.254908e+01    7.450415e-01
