# == pyFAI calibration ==
# Distance Sample to Detector: 0.3999999939076516 m
# PONI: 9.750e-02, 1.135e-01 m
# Rotations: -0.000175 0.000000 -0.000000 rad
# 
# == Fit2d calibration ==
# Distance Sample-beamCenter: 400.000 mm
# Center: x=1514.000, y=1300.000 pix
# Tilt: 0.010 deg  TiltPlanRot: 0.010 deg
# 
# Detector Detector	 Spline= None	 PixelSize= 7.500e-05, 7.500e-05 m
#    Detector has a mask: False 
#    Detector has a dark current: False 
#    detector has a flat field: False 
# 
# Wavelength: 6.888e-11 m
# Mask applied: user provided
# Dark current applied: False
# Flat field applied: False
# Polarization factor: 0.99
# Normalization factor: 1.0
# --> /home/myspot/data/2024_07_Rosario/Ru-CGO-ex/2024-07-27_002_Ru-CGO-ex_Activtation_ramp_000002_data_000166.dat
#       q_nm^-1             I 
  2.003187e-02    0.000000e+00
  3.590745e-02    0.000000e+00
  5.178302e-02    2.671360e-02
  6.765859e-02    5.596884e-02
  8.353417e-02    2.592442e-03
  9.940974e-02    4.373266e-02
  1.152853e-01    1.381797e-01
  1.311609e-01    2.632579e-02
  1.470365e-01    2.542160e-02
  1.629120e-01    2.624101e-02
  1.787876e-01    3.239403e-02
  1.946632e-01    4.031044e-02
  2.105388e-01    2.828550e-02
  2.264143e-01    1.880496e-02
  2.422899e-01    3.960438e-02
  2.581655e-01    4.425371e-02
  2.740411e-01    2.623585e-02
  2.899166e-01    4.175937e-02
  3.057922e-01    4.755418e-02
  3.216678e-01    4.873992e-02
  3.375433e-01    4.247655e-02
  3.534189e-01    4.470247e-02
  3.692945e-01    4.647535e-02
  3.851701e-01    4.035095e-02
  4.010456e-01    2.664067e-02
  4.169212e-01    3.088901e-02
  4.327968e-01    2.844745e-02
  4.486724e-01    6.464476e-02
  4.645479e-01    8.413304e-02
  4.804235e-01    3.523591e-02
  4.962991e-01    1.824494e-02
  5.121747e-01    1.213312e-02
  5.280502e-01    4.504332e-02
  5.439258e-01    7.271670e-02
  5.598014e-01    2.613695e-02
  5.756770e-01    1.771162e-02
  5.915525e-01    1.940896e-02
  6.074281e-01    6.704930e-03
  6.233037e-01    3.831737e-02
  6.391793e-01    4.009217e-02
  6.550548e-01    5.418418e-02
  6.709304e-01    9.059453e-02
  6.868060e-01    8.183810e-02
  7.026815e-01    2.241580e-02
  7.185571e-01    3.420749e-02
  7.344327e-01    2.284708e-02
  7.503083e-01    4.610668e-02
  7.661838e-01    3.307972e-02
  7.820594e-01    8.637435e-02
  7.979350e-01    1.429288e-01
  8.138106e-01    2.450616e-01
  8.296861e-01    3.331901e-01
  8.455617e-01    3.857705e-01
  8.614373e-01    3.459214e-01
  8.773129e-01    4.580913e-01
  8.931884e-01    5.173035e-01
  9.090640e-01    5.196450e-01
  9.249396e-01    6.150357e-01
  9.408152e-01    6.987858e-01
  9.566907e-01    8.051138e-01
  9.725663e-01    8.856384e-01
  9.884419e-01    9.295864e-01
  1.004317e+00    1.010140e+00
  1.020193e+00    1.109069e+00
  1.036069e+00    1.232118e+00
  1.051944e+00    1.289595e+00
  1.067820e+00    1.268681e+00
  1.083695e+00    1.376949e+00
  1.099571e+00    1.314748e+00
  1.115446e+00    1.336519e+00
  1.131322e+00    1.402992e+00
  1.147198e+00    1.493604e+00
  1.163073e+00    1.527791e+00
  1.178949e+00    1.587413e+00
  1.194824e+00    1.615096e+00
  1.210700e+00    1.687492e+00
  1.226575e+00    1.944522e+00
  1.242451e+00    2.159412e+00
  1.258327e+00    2.273878e+00
  1.274202e+00    2.378896e+00
  1.290078e+00    2.348536e+00
  1.305953e+00    2.435843e+00
  1.321829e+00    2.578131e+00
  1.337705e+00    2.542765e+00
  1.353580e+00    2.446433e+00
  1.369456e+00    2.454477e+00
  1.385331e+00    2.426472e+00
  1.401207e+00    2.447418e+00
  1.417082e+00    2.397389e+00
  1.432958e+00    2.430238e+00
  1.448834e+00    2.781704e+00
  1.464709e+00    2.900352e+00
  1.480585e+00    2.784356e+00
  1.496460e+00    2.756263e+00
  1.512336e+00    2.830775e+00
  1.528211e+00    2.878060e+00
  1.544087e+00    2.944126e+00
  1.559963e+00    2.909273e+00
  1.575838e+00    2.841181e+00
  1.591714e+00    2.869513e+00
  1.607589e+00    2.821723e+00
  1.623465e+00    2.713056e+00
  1.639340e+00    2.779769e+00
  1.655216e+00    2.847360e+00
  1.671092e+00    2.829014e+00
  1.686967e+00    2.823351e+00
  1.702843e+00    2.879099e+00
  1.718718e+00    2.808777e+00
  1.734594e+00    2.811881e+00
  1.750469e+00    2.739530e+00
  1.766345e+00    2.832903e+00
  1.782221e+00    2.670172e+00
  1.798096e+00    2.623012e+00
  1.813972e+00    2.675478e+00
  1.829847e+00    2.663790e+00
  1.845723e+00    2.759392e+00
  1.861598e+00    2.798160e+00
  1.877474e+00    2.757512e+00
  1.893350e+00    2.784782e+00
  1.909225e+00    2.741151e+00
  1.925101e+00    2.723350e+00
  1.940976e+00    2.656907e+00
  1.956852e+00    2.683596e+00
  1.972727e+00    2.753235e+00
  1.988603e+00    2.759430e+00
  2.004479e+00    2.833289e+00
  2.020354e+00    2.775185e+00
  2.036230e+00    2.741537e+00
  2.052105e+00    2.694830e+00
  2.067981e+00    2.697718e+00
  2.083856e+00    2.702087e+00
  2.099732e+00    2.652011e+00
  2.115608e+00    2.627863e+00
  2.131483e+00    2.710048e+00
  2.147359e+00    2.817935e+00
  2.163234e+00    2.766102e+00
  2.179110e+00    2.652735e+00
  2.194985e+00    2.606115e+00
  2.210861e+00    2.581223e+00
  2.226737e+00    2.680985e+00
  2.242612e+00    2.771642e+00
  2.258488e+00    2.760727e+00
  2.274363e+00    2.824530e+00
  2.290239e+00    2.756398e+00
  2.306115e+00    2.707675e+00
  2.321990e+00    2.779467e+00
  2.337866e+00    2.775150e+00
  2.353741e+00    2.691563e+00
  2.369617e+00    2.670660e+00
  2.385492e+00    2.734271e+00
  2.401368e+00    2.734361e+00
  2.417244e+00    2.859357e+00
  2.433119e+00    2.808919e+00
  2.448995e+00    2.790450e+00
  2.464870e+00    2.731641e+00
  2.480746e+00    2.798282e+00
  2.496621e+00    2.926435e+00
  2.512497e+00    2.877089e+00
  2.528373e+00    2.765068e+00
  2.544248e+00    2.684541e+00
  2.560124e+00    2.678154e+00
  2.575999e+00    2.766278e+00
  2.591875e+00    2.783451e+00
  2.607750e+00    2.748552e+00
  2.623626e+00    2.742297e+00
  2.639502e+00    2.693951e+00
  2.655377e+00    2.752251e+00
  2.671253e+00    2.859945e+00
  2.687128e+00    2.914041e+00
  2.703004e+00    2.830916e+00
  2.718879e+00    2.759969e+00
  2.734755e+00    2.735141e+00
  2.750631e+00    2.776050e+00
  2.766506e+00    2.725744e+00
  2.782382e+00    2.797568e+00
  2.798257e+00    2.852139e+00
  2.814133e+00    2.777458e+00
  2.830008e+00    2.815069e+00
  2.845884e+00    2.815522e+00
  2.861760e+00    2.864924e+00
  2.877635e+00    2.937296e+00
  2.893511e+00    2.951292e+00
  2.909386e+00    2.855738e+00
  2.925262e+00    2.800624e+00
  2.941137e+00    2.871063e+00
  2.957013e+00    2.869973e+00
  2.972889e+00    2.861851e+00
  2.988764e+00    2.830967e+00
  3.004640e+00    2.924831e+00
  3.020515e+00    2.848384e+00
  3.036391e+00    2.906173e+00
  3.052266e+00    2.864486e+00
  3.068142e+00    2.903052e+00
  3.084018e+00    2.886436e+00
  3.099893e+00    2.798360e+00
  3.115769e+00    2.847286e+00
  3.131644e+00    2.889073e+00
  3.147520e+00    2.859839e+00
  3.163395e+00    2.891167e+00
  3.179271e+00    2.882018e+00
  3.195147e+00    2.842442e+00
  3.211022e+00    2.824910e+00
  3.226898e+00    2.848974e+00
  3.242773e+00    2.914999e+00
  3.258649e+00    2.886097e+00
  3.274525e+00    2.832375e+00
  3.290400e+00    2.869051e+00
  3.306276e+00    2.859076e+00
  3.322151e+00    2.971988e+00
  3.338027e+00    2.932174e+00
  3.353902e+00    2.947442e+00
  3.369778e+00    2.941870e+00
  3.385654e+00    2.899655e+00
  3.401529e+00    2.930073e+00
  3.417405e+00    2.939371e+00
  3.433280e+00    2.886550e+00
  3.449156e+00    2.890163e+00
  3.465031e+00    2.924114e+00
  3.480907e+00    2.999480e+00
  3.496783e+00    2.958516e+00
  3.512658e+00    3.000738e+00
  3.528534e+00    2.963182e+00
  3.544409e+00    2.957231e+00
  3.560285e+00    3.039719e+00
  3.576160e+00    3.009246e+00
  3.592036e+00    2.983898e+00
  3.607912e+00    2.961709e+00
  3.623787e+00    2.945746e+00
  3.639663e+00    2.906523e+00
  3.655538e+00    2.966270e+00
  3.671414e+00    3.017580e+00
  3.687289e+00    3.040937e+00
  3.703165e+00    2.999727e+00
  3.719041e+00    2.981071e+00
  3.734916e+00    3.035941e+00
  3.750792e+00    3.037436e+00
  3.766667e+00    2.983365e+00
  3.782543e+00    2.981150e+00
  3.798418e+00    3.024014e+00
  3.814294e+00    3.062256e+00
  3.830170e+00    3.007790e+00
  3.846045e+00    3.070520e+00
  3.861921e+00    3.076864e+00
  3.877796e+00    2.943546e+00
  3.893672e+00    3.010161e+00
  3.909547e+00    3.079685e+00
  3.925423e+00    2.997471e+00
  3.941299e+00    2.979507e+00
  3.957174e+00    3.054228e+00
  3.973050e+00    3.131692e+00
  3.988925e+00    3.020953e+00
  4.004801e+00    2.909701e+00
  4.020676e+00    2.986931e+00
  4.036552e+00    3.032264e+00
  4.052428e+00    3.047638e+00
  4.068303e+00    2.999908e+00
  4.084179e+00    2.962119e+00
  4.100054e+00    3.045707e+00
  4.115930e+00    3.088118e+00
  4.131806e+00    3.106289e+00
  4.147681e+00    3.071100e+00
  4.163557e+00    3.062155e+00
  4.179432e+00    2.970503e+00
  4.195308e+00    3.004252e+00
  4.211183e+00    3.025020e+00
  4.227059e+00    3.065831e+00
  4.242935e+00    3.121265e+00
  4.258810e+00    3.100463e+00
  4.274686e+00    3.068814e+00
  4.290561e+00    3.104604e+00
  4.306437e+00    3.109285e+00
  4.322312e+00    3.105915e+00
  4.338188e+00    3.108898e+00
  4.354064e+00    3.042064e+00
  4.369939e+00    3.112321e+00
  4.385815e+00    3.104373e+00
  4.401690e+00    3.088995e+00
  4.417566e+00    3.080741e+00
  4.433441e+00    3.069536e+00
  4.449317e+00    3.075168e+00
  4.465193e+00    3.046101e+00
  4.481068e+00    3.118444e+00
  4.496944e+00    3.090517e+00
  4.512819e+00    3.060194e+00
  4.528695e+00    3.053741e+00
  4.544570e+00    3.155771e+00
  4.560446e+00    3.081771e+00
  4.576322e+00    3.110469e+00
  4.592197e+00    3.146457e+00
  4.608073e+00    3.218841e+00
  4.623948e+00    3.064406e+00
  4.639824e+00    3.061895e+00
  4.655699e+00    3.059654e+00
  4.671575e+00    3.090866e+00
  4.687451e+00    3.060047e+00
  4.703326e+00    3.071104e+00
  4.719202e+00    3.113244e+00
  4.735077e+00    3.110677e+00
  4.750953e+00    3.053936e+00
  4.766828e+00    3.083905e+00
  4.782704e+00    3.156055e+00
  4.798580e+00    3.117640e+00
  4.814455e+00    3.058035e+00
  4.830331e+00    3.090509e+00
  4.846206e+00    3.084952e+00
  4.862082e+00    3.164639e+00
  4.877957e+00    3.157423e+00
  4.893833e+00    3.088923e+00
  4.909709e+00    3.113465e+00
  4.925584e+00    3.218039e+00
  4.941460e+00    3.132853e+00
  4.957335e+00    3.100127e+00
  4.973211e+00    3.188424e+00
  4.989086e+00    3.177242e+00
  5.004962e+00    3.067801e+00
  5.020838e+00    3.058168e+00
  5.036713e+00    3.156770e+00
  5.052589e+00    3.158002e+00
  5.068464e+00    3.158974e+00
  5.084340e+00    3.134268e+00
  5.100216e+00    3.055841e+00
  5.116091e+00    3.067550e+00
  5.131967e+00    3.126729e+00
  5.147842e+00    3.128660e+00
  5.163718e+00    3.159277e+00
  5.179593e+00    3.140197e+00
  5.195469e+00    3.097429e+00
  5.211345e+00    3.131858e+00
  5.227220e+00    3.113177e+00
  5.243096e+00    3.132453e+00
  5.258971e+00    3.188552e+00
  5.274847e+00    3.162253e+00
  5.290722e+00    3.067558e+00
  5.306598e+00    3.111732e+00
  5.322474e+00    3.148878e+00
  5.338349e+00    3.093227e+00
  5.354225e+00    3.152154e+00
  5.370100e+00    3.208261e+00
  5.385976e+00    3.170107e+00
  5.401851e+00    3.111875e+00
  5.417727e+00    3.142217e+00
  5.433603e+00    3.172393e+00
  5.449478e+00    3.141677e+00
  5.465354e+00    3.147854e+00
  5.481229e+00    3.051302e+00
  5.497105e+00    3.043144e+00
  5.512980e+00    3.083975e+00
  5.528856e+00    3.071640e+00
  5.544732e+00    3.092700e+00
  5.560607e+00    3.164099e+00
  5.576483e+00    3.148913e+00
  5.592358e+00    3.093886e+00
  5.608234e+00    3.097798e+00
  5.624109e+00    3.063843e+00
  5.639985e+00    3.125630e+00
  5.655861e+00    3.077530e+00
  5.671736e+00    3.040114e+00
  5.687612e+00    3.106769e+00
  5.703487e+00    3.186618e+00
  5.719363e+00    3.082168e+00
  5.735238e+00    3.095872e+00
  5.751114e+00    3.033783e+00
  5.766990e+00    3.017352e+00
  5.782865e+00    3.062763e+00
  5.798741e+00    3.073725e+00
  5.814616e+00    2.976895e+00
  5.830492e+00    3.020962e+00
  5.846367e+00    3.141706e+00
  5.862243e+00    3.076279e+00
  5.878119e+00    3.009943e+00
  5.893994e+00    2.962176e+00
  5.909870e+00    3.022068e+00
  5.925745e+00    3.046236e+00
  5.941621e+00    3.071909e+00
  5.957497e+00    2.990947e+00
  5.973372e+00    2.965745e+00
  5.989248e+00    2.957115e+00
  6.005123e+00    3.027225e+00
  6.020999e+00    3.002012e+00
  6.036874e+00    2.998659e+00
  6.052750e+00    3.020083e+00
  6.068626e+00    2.981395e+00
  6.084501e+00    3.017214e+00
  6.100377e+00    3.105349e+00
  6.116252e+00    3.123413e+00
  6.132128e+00    3.071593e+00
  6.148003e+00    3.101444e+00
  6.163879e+00    3.147575e+00
  6.179755e+00    3.115859e+00
  6.195630e+00    3.155923e+00
  6.211506e+00    3.121199e+00
  6.227381e+00    2.995862e+00
  6.243257e+00    3.048032e+00
  6.259132e+00    3.135931e+00
  6.275008e+00    3.086430e+00
  6.290884e+00    2.976211e+00
  6.306759e+00    3.001069e+00
  6.322635e+00    3.062706e+00
  6.338510e+00    3.070207e+00
  6.354386e+00    3.005164e+00
  6.370261e+00    3.024270e+00
  6.386137e+00    3.041390e+00
  6.402013e+00    3.059370e+00
  6.417888e+00    3.054485e+00
  6.433764e+00    3.031435e+00
  6.449639e+00    3.018391e+00
  6.465515e+00    3.062597e+00
  6.481390e+00    2.963046e+00
  6.497266e+00    3.098930e+00
  6.513142e+00    3.140281e+00
  6.529017e+00    3.142662e+00
  6.544893e+00    3.053658e+00
  6.560768e+00    3.043529e+00
  6.576644e+00    3.021440e+00
  6.592519e+00    3.012579e+00
  6.608395e+00    3.041966e+00
  6.624271e+00    3.072587e+00
  6.640146e+00    3.113699e+00
  6.656022e+00    3.076248e+00
  6.671897e+00    3.007954e+00
  6.687773e+00    3.018790e+00
  6.703648e+00    3.005604e+00
  6.719524e+00    3.082026e+00
  6.735400e+00    2.993803e+00
  6.751275e+00    3.047455e+00
  6.767151e+00    3.091383e+00
  6.783026e+00    3.128752e+00
  6.798902e+00    3.092898e+00
  6.814777e+00    3.105916e+00
  6.830653e+00    3.050284e+00
  6.846529e+00    3.056338e+00
  6.862404e+00    3.024987e+00
  6.878280e+00    2.978186e+00
  6.894155e+00    3.017511e+00
  6.910031e+00    3.079244e+00
  6.925907e+00    3.054205e+00
  6.941782e+00    3.115582e+00
  6.957658e+00    3.064490e+00
  6.973533e+00    3.067505e+00
  6.989409e+00    3.103862e+00
  7.005284e+00    3.060420e+00
  7.021160e+00    3.042619e+00
  7.037036e+00    3.022818e+00
  7.052911e+00    3.026872e+00
  7.068787e+00    3.021404e+00
  7.084662e+00    3.035568e+00
  7.100538e+00    3.011476e+00
  7.116413e+00    3.015553e+00
  7.132289e+00    3.039799e+00
  7.148165e+00    2.939941e+00
  7.164040e+00    2.986730e+00
  7.179916e+00    2.998220e+00
  7.195791e+00    3.043666e+00
  7.211667e+00    3.102663e+00
  7.227542e+00    3.044764e+00
  7.243418e+00    3.012030e+00
  7.259294e+00    2.991206e+00
  7.275169e+00    2.965004e+00
  7.291045e+00    2.986800e+00
  7.306920e+00    2.978045e+00
  7.322796e+00    3.019351e+00
  7.338671e+00    2.978117e+00
  7.354547e+00    2.956342e+00
  7.370423e+00    2.998986e+00
  7.386298e+00    2.959565e+00
  7.402174e+00    2.991716e+00
  7.418049e+00    2.972699e+00
  7.433925e+00    2.954233e+00
  7.449800e+00    2.966419e+00
  7.465676e+00    3.012116e+00
  7.481552e+00    2.935716e+00
  7.497427e+00    2.958053e+00
  7.513303e+00    2.946132e+00
  7.529178e+00    3.081786e+00
  7.545054e+00    3.066587e+00
  7.560929e+00    2.952436e+00
  7.576805e+00    2.933981e+00
  7.592681e+00    2.996554e+00
  7.608556e+00    2.932769e+00
  7.624432e+00    2.948033e+00
  7.640307e+00    2.986422e+00
  7.656183e+00    2.987773e+00
  7.672058e+00    2.930645e+00
  7.687934e+00    2.943735e+00
  7.703810e+00    2.975508e+00
  7.719685e+00    2.959033e+00
  7.735561e+00    2.935382e+00
  7.751436e+00    2.942421e+00
  7.767312e+00    2.954399e+00
  7.783187e+00    3.005611e+00
  7.799063e+00    2.992513e+00
  7.814939e+00    3.029996e+00
  7.830814e+00    2.958253e+00
  7.846690e+00    2.979552e+00
  7.862565e+00    2.990116e+00
  7.878441e+00    2.912575e+00
  7.894317e+00    2.927763e+00
  7.910192e+00    2.916029e+00
  7.926068e+00    2.961274e+00
  7.941943e+00    2.957238e+00
  7.957819e+00    2.927309e+00
  7.973694e+00    2.939343e+00
  7.989570e+00    2.929819e+00
  8.005446e+00    2.928480e+00
  8.021321e+00    3.007140e+00
  8.037197e+00    2.940369e+00
  8.053072e+00    2.873235e+00
  8.068948e+00    2.895992e+00
  8.084823e+00    2.912284e+00
  8.100699e+00    3.036723e+00
  8.116575e+00    2.962818e+00
  8.132450e+00    2.888507e+00
  8.148326e+00    2.933617e+00
  8.164201e+00    2.953907e+00
  8.180077e+00    2.905553e+00
  8.195952e+00    2.963754e+00
  8.211828e+00    2.966170e+00
  8.227704e+00    2.933810e+00
  8.243579e+00    2.935645e+00
  8.259455e+00    2.999745e+00
  8.275330e+00    2.959522e+00
  8.291206e+00    2.928647e+00
  8.307081e+00    2.914108e+00
  8.322957e+00    2.914476e+00
  8.338833e+00    2.924549e+00
  8.354708e+00    2.932310e+00
  8.370584e+00    2.930039e+00
  8.386459e+00    2.954125e+00
  8.402335e+00    2.939602e+00
  8.418210e+00    2.951358e+00
  8.434086e+00    2.917626e+00
  8.449962e+00    2.921483e+00
  8.465837e+00    2.909135e+00
  8.481713e+00    2.912223e+00
  8.497588e+00    2.912216e+00
  8.513464e+00    2.900584e+00
  8.529339e+00    2.883947e+00
  8.545215e+00    2.923903e+00
  8.561091e+00    2.888527e+00
  8.576966e+00    2.894933e+00
  8.592842e+00    2.907681e+00
  8.608717e+00    2.866019e+00
  8.624593e+00    2.849381e+00
  8.640468e+00    2.832351e+00
  8.656344e+00    2.861668e+00
  8.672220e+00    2.820601e+00
  8.688095e+00    2.832688e+00
  8.703971e+00    2.854972e+00
  8.719846e+00    2.833957e+00
  8.735722e+00    2.827227e+00
  8.751598e+00    2.817029e+00
  8.767473e+00    2.837705e+00
  8.783349e+00    2.817365e+00
  8.799224e+00    2.817009e+00
  8.815100e+00    2.871384e+00
  8.830975e+00    2.908146e+00
  8.846851e+00    2.888104e+00
  8.862727e+00    2.882812e+00
  8.878602e+00    2.890714e+00
  8.894478e+00    2.896033e+00
  8.910353e+00    2.828387e+00
  8.926229e+00    2.831046e+00
  8.942104e+00    2.796149e+00
  8.957980e+00    2.777336e+00
  8.973856e+00    2.834434e+00
  8.989731e+00    2.851454e+00
  9.005607e+00    2.841944e+00
  9.021482e+00    2.820711e+00
  9.037358e+00    2.845764e+00
  9.053233e+00    2.824724e+00
  9.069109e+00    2.778055e+00
  9.084985e+00    2.801783e+00
  9.100860e+00    2.845137e+00
  9.116736e+00    2.798478e+00
  9.132611e+00    2.771415e+00
  9.148487e+00    2.828073e+00
  9.164362e+00    2.786123e+00
  9.180238e+00    2.778091e+00
  9.196114e+00    2.776516e+00
  9.211989e+00    2.837145e+00
  9.227865e+00    2.813560e+00
  9.243740e+00    2.800636e+00
  9.259616e+00    2.766889e+00
  9.275491e+00    2.792949e+00
  9.291367e+00    2.769095e+00
  9.307243e+00    2.769465e+00
  9.323118e+00    2.754249e+00
  9.338994e+00    2.733240e+00
  9.354869e+00    2.780857e+00
  9.370745e+00    2.820477e+00
  9.386620e+00    2.750753e+00
  9.402496e+00    2.781295e+00
  9.418372e+00    2.785776e+00
  9.434247e+00    2.823027e+00
  9.450123e+00    2.803760e+00
  9.465998e+00    2.768006e+00
  9.481874e+00    2.752748e+00
  9.497749e+00    2.798584e+00
  9.513625e+00    2.794327e+00
  9.529501e+00    2.715063e+00
  9.545376e+00    2.750455e+00
  9.561252e+00    2.765713e+00
  9.577127e+00    2.772926e+00
  9.593003e+00    2.799235e+00
  9.608878e+00    2.792041e+00
  9.624754e+00    2.814793e+00
  9.640630e+00    2.766234e+00
  9.656505e+00    2.745380e+00
  9.672381e+00    2.764589e+00
  9.688256e+00    2.708949e+00
  9.704132e+00    2.732976e+00
  9.720008e+00    2.685051e+00
  9.735883e+00    2.684998e+00
  9.751759e+00    2.689875e+00
  9.767634e+00    2.689748e+00
  9.783510e+00    2.678998e+00
  9.799385e+00    2.673771e+00
  9.815261e+00    2.677814e+00
  9.831137e+00    2.689605e+00
  9.847012e+00    2.715981e+00
  9.862888e+00    2.717063e+00
  9.878763e+00    2.760055e+00
  9.894639e+00    2.736024e+00
  9.910514e+00    2.710846e+00
  9.926390e+00    2.677691e+00
  9.942266e+00    2.669546e+00
  9.958141e+00    2.692806e+00
  9.974017e+00    2.683703e+00
  9.989892e+00    2.715434e+00
  1.000577e+01    2.715131e+00
  1.002164e+01    2.709789e+00
  1.003752e+01    2.709106e+00
  1.005339e+01    2.703095e+00
  1.006927e+01    2.679067e+00
  1.008515e+01    2.688971e+00
  1.010102e+01    2.693593e+00
  1.011690e+01    2.668488e+00
  1.013277e+01    2.695537e+00
  1.014865e+01    2.652488e+00
  1.016452e+01    2.621628e+00
  1.018040e+01    2.640749e+00
  1.019627e+01    2.674860e+00
  1.021215e+01    2.645740e+00
  1.022803e+01    2.658699e+00
  1.024390e+01    2.652416e+00
  1.025978e+01    2.668913e+00
  1.027565e+01    2.626365e+00
  1.029153e+01    2.663474e+00
  1.030740e+01    2.684200e+00
  1.032328e+01    2.631117e+00
  1.033915e+01    2.656567e+00
  1.035503e+01    2.642309e+00
  1.037091e+01    2.645614e+00
  1.038678e+01    2.667211e+00
  1.040266e+01    2.683299e+00
  1.041853e+01    2.655525e+00
  1.043441e+01    2.614955e+00
  1.045028e+01    2.675377e+00
  1.046616e+01    2.621954e+00
  1.048204e+01    2.574883e+00
  1.049791e+01    2.609807e+00
  1.051379e+01    2.564532e+00
  1.052966e+01    2.554556e+00
  1.054554e+01    2.585820e+00
  1.056141e+01    2.572179e+00
  1.057729e+01    2.609277e+00
  1.059316e+01    2.610999e+00
  1.060904e+01    2.606002e+00
  1.062492e+01    2.578624e+00
  1.064079e+01    2.537228e+00
  1.065667e+01    2.516109e+00
  1.067254e+01    2.545133e+00
  1.068842e+01    2.541922e+00
  1.070429e+01    2.578022e+00
  1.072017e+01    2.575533e+00
  1.073604e+01    2.534584e+00
  1.075192e+01    2.540001e+00
  1.076780e+01    2.547763e+00
  1.078367e+01    2.563932e+00
  1.079955e+01    2.519286e+00
  1.081542e+01    2.526928e+00
  1.083130e+01    2.541090e+00
  1.084717e+01    2.509960e+00
  1.086305e+01    2.549109e+00
  1.087892e+01    2.510625e+00
  1.089480e+01    2.543740e+00
  1.091068e+01    2.557546e+00
  1.092655e+01    2.543275e+00
  1.094243e+01    2.495539e+00
  1.095830e+01    2.513728e+00
  1.097418e+01    2.516924e+00
  1.099005e+01    2.473917e+00
  1.100593e+01    2.460358e+00
  1.102180e+01    2.458780e+00
  1.103768e+01    2.479734e+00
  1.105356e+01    2.488657e+00
  1.106943e+01    2.460249e+00
  1.108531e+01    2.435219e+00
  1.110118e+01    2.461894e+00
  1.111706e+01    2.482693e+00
  1.113293e+01    2.470491e+00
  1.114881e+01    2.438678e+00
  1.116468e+01    2.494190e+00
  1.118056e+01    2.515160e+00
  1.119644e+01    2.463512e+00
  1.121231e+01    2.457589e+00
  1.122819e+01    2.449245e+00
  1.124406e+01    2.482061e+00
  1.125994e+01    2.475675e+00
  1.127581e+01    2.438786e+00
  1.129169e+01    2.449075e+00
  1.130756e+01    2.450753e+00
  1.132344e+01    2.425678e+00
  1.133932e+01    2.420477e+00
  1.135519e+01    2.422809e+00
  1.137107e+01    2.446424e+00
  1.138694e+01    2.414090e+00
  1.140282e+01    2.431069e+00
  1.141869e+01    2.413371e+00
  1.143457e+01    2.466470e+00
  1.145045e+01    2.475171e+00
  1.146632e+01    2.403665e+00
  1.148220e+01    2.405685e+00
  1.149807e+01    2.438299e+00
  1.151395e+01    2.359536e+00
  1.152982e+01    2.389763e+00
  1.154570e+01    2.398765e+00
  1.156157e+01    2.431758e+00
  1.157745e+01    2.426785e+00
  1.159333e+01    2.384925e+00
  1.160920e+01    2.385379e+00
  1.162508e+01    2.386051e+00
  1.164095e+01    2.356804e+00
  1.165683e+01    2.382557e+00
  1.167270e+01    2.387661e+00
  1.168858e+01    2.382663e+00
  1.170445e+01    2.350106e+00
  1.172033e+01    2.349717e+00
  1.173621e+01    2.357091e+00
  1.175208e+01    2.363411e+00
  1.176796e+01    2.378628e+00
  1.178383e+01    2.359271e+00
  1.179971e+01    2.369763e+00
  1.181558e+01    2.374357e+00
  1.183146e+01    2.315628e+00
  1.184733e+01    2.309872e+00
  1.186321e+01    2.367728e+00
  1.187909e+01    2.325971e+00
  1.189496e+01    2.313323e+00
  1.191084e+01    2.306239e+00
  1.192671e+01    2.328372e+00
  1.194259e+01    2.328981e+00
  1.195846e+01    2.359649e+00
  1.197434e+01    2.365374e+00
  1.199021e+01    2.345435e+00
  1.200609e+01    2.369235e+00
  1.202197e+01    2.332331e+00
  1.203784e+01    2.316555e+00
  1.205372e+01    2.331900e+00
  1.206959e+01    2.340266e+00
  1.208547e+01    2.336664e+00
  1.210134e+01    2.350574e+00
  1.211722e+01    2.352125e+00
  1.213309e+01    2.333285e+00
  1.214897e+01    2.325775e+00
  1.216485e+01    2.313635e+00
  1.218072e+01    2.321595e+00
  1.219660e+01    2.341811e+00
  1.221247e+01    2.332228e+00
  1.222835e+01    2.348153e+00
  1.224422e+01    2.350103e+00
  1.226010e+01    2.298195e+00
  1.227597e+01    2.282060e+00
  1.229185e+01    2.329537e+00
  1.230773e+01    2.332981e+00
  1.232360e+01    2.302099e+00
  1.233948e+01    2.338337e+00
  1.235535e+01    2.380431e+00
  1.237123e+01    2.340891e+00
  1.238710e+01    2.350480e+00
  1.240298e+01    2.293632e+00
  1.241886e+01    2.301648e+00
  1.243473e+01    2.333127e+00
  1.245061e+01    2.344692e+00
  1.246648e+01    2.348027e+00
  1.248236e+01    2.311056e+00
  1.249823e+01    2.339701e+00
  1.251411e+01    2.348671e+00
  1.252998e+01    2.356446e+00
  1.254586e+01    2.368455e+00
  1.256174e+01    2.378972e+00
  1.257761e+01    2.365973e+00
  1.259349e+01    2.366038e+00
  1.260936e+01    2.387656e+00
  1.262524e+01    2.405235e+00
  1.264111e+01    2.434488e+00
  1.265699e+01    2.425712e+00
  1.267286e+01    2.452720e+00
  1.268874e+01    2.445250e+00
  1.270462e+01    2.472669e+00
  1.272049e+01    2.534698e+00
  1.273637e+01    2.541996e+00
  1.275224e+01    2.545542e+00
  1.276812e+01    2.589910e+00
  1.278399e+01    2.663578e+00
  1.279987e+01    2.690828e+00
  1.281574e+01    2.684382e+00
  1.283162e+01    2.767564e+00
  1.284750e+01    2.889983e+00
  1.286337e+01    2.908654e+00
  1.287925e+01    3.003002e+00
  1.289512e+01    3.135947e+00
  1.291100e+01    3.314401e+00
  1.292687e+01    3.480105e+00
  1.294275e+01    3.708692e+00
  1.295862e+01    4.059199e+00
  1.297450e+01    4.446974e+00
  1.299038e+01    4.909384e+00
  1.300625e+01    5.498586e+00
  1.302213e+01    6.247058e+00
  1.303800e+01    7.213312e+00
  1.305388e+01    8.293612e+00
  1.306975e+01    9.545061e+00
  1.308563e+01    1.084583e+01
  1.310150e+01    1.202252e+01
  1.311738e+01    1.317886e+01
  1.313326e+01    1.432367e+01
  1.314913e+01    1.524067e+01
  1.316501e+01    1.602663e+01
  1.318088e+01    1.625414e+01
  1.319676e+01    1.577656e+01
  1.321263e+01    1.451711e+01
  1.322851e+01    1.258422e+01
  1.324438e+01    1.073937e+01
  1.326026e+01    8.951527e+00
  1.327614e+01    7.580418e+00
  1.329201e+01    6.510035e+00
  1.330789e+01    5.700688e+00
  1.332376e+01    5.102431e+00
  1.333964e+01    4.590169e+00
  1.335551e+01    4.137111e+00
  1.337139e+01    3.812558e+00
  1.338727e+01    3.583157e+00
  1.340314e+01    3.349066e+00
  1.341902e+01    3.114223e+00
  1.343489e+01    2.998805e+00
  1.345077e+01    2.891547e+00
  1.346664e+01    2.798559e+00
  1.348252e+01    2.768645e+00
  1.349839e+01    2.661149e+00
  1.351427e+01    2.565882e+00
  1.353015e+01    2.584424e+00
  1.354602e+01    2.522836e+00
  1.356190e+01    2.460499e+00
  1.357777e+01    2.428050e+00
  1.359365e+01    2.411259e+00
  1.360952e+01    2.350038e+00
  1.362540e+01    2.334868e+00
  1.364127e+01    2.301600e+00
  1.365715e+01    2.282283e+00
  1.367303e+01    2.278761e+00
  1.368890e+01    2.234190e+00
  1.370478e+01    2.206652e+00
  1.372065e+01    2.256689e+00
  1.373653e+01    2.181515e+00
  1.375240e+01    2.154048e+00
  1.376828e+01    2.143524e+00
  1.378415e+01    2.135318e+00
  1.380003e+01    2.119322e+00
  1.381591e+01    2.108569e+00
  1.383178e+01    2.137448e+00
  1.384766e+01    2.123135e+00
  1.386353e+01    2.121386e+00
  1.387941e+01    2.083764e+00
  1.389528e+01    2.121199e+00
  1.391116e+01    2.078664e+00
  1.392703e+01    2.083677e+00
  1.394291e+01    2.107550e+00
  1.395879e+01    2.085591e+00
  1.397466e+01    2.074904e+00
  1.399054e+01    2.052444e+00
  1.400641e+01    2.015154e+00
  1.402229e+01    2.021444e+00
  1.403816e+01    2.072471e+00
  1.405404e+01    2.045695e+00
  1.406991e+01    1.989647e+00
  1.408579e+01    1.973361e+00
  1.410167e+01    1.982092e+00
  1.411754e+01    2.014404e+00
  1.413342e+01    1.999420e+00
  1.414929e+01    2.007181e+00
  1.416517e+01    1.989904e+00
  1.418104e+01    1.991349e+00
  1.419692e+01    1.974249e+00
  1.421279e+01    1.982090e+00
  1.422867e+01    2.012063e+00
  1.424455e+01    1.991157e+00
  1.426042e+01    1.970205e+00
  1.427630e+01    1.999529e+00
  1.429217e+01    1.986853e+00
  1.430805e+01    1.985378e+00
  1.432392e+01    2.023183e+00
  1.433980e+01    1.959268e+00
  1.435568e+01    1.955793e+00
  1.437155e+01    1.944339e+00
  1.438743e+01    1.918017e+00
  1.440330e+01    1.945960e+00
  1.441918e+01    1.943249e+00
  1.443505e+01    1.951902e+00
  1.445093e+01    1.933000e+00
  1.446680e+01    1.907852e+00
  1.448268e+01    1.922565e+00
  1.449856e+01    1.942772e+00
  1.451443e+01    1.913418e+00
  1.453031e+01    1.901235e+00
  1.454618e+01    1.911739e+00
  1.456206e+01    1.880519e+00
  1.457793e+01    1.938911e+00
  1.459381e+01    1.916315e+00
  1.460968e+01    1.949697e+00
  1.462556e+01    1.956445e+00
  1.464144e+01    1.946345e+00
  1.465731e+01    1.936363e+00
  1.467319e+01    1.935890e+00
  1.468906e+01    1.931339e+00
  1.470494e+01    1.918485e+00
  1.472081e+01    1.917897e+00
  1.473669e+01    1.905347e+00
  1.475256e+01    1.897304e+00
  1.476844e+01    1.908225e+00
  1.478432e+01    1.884706e+00
  1.480019e+01    1.897218e+00
  1.481607e+01    1.935719e+00
  1.483194e+01    1.909758e+00
  1.484782e+01    1.889419e+00
  1.486369e+01    1.924905e+00
  1.487957e+01    1.949628e+00
  1.489544e+01    1.955910e+00
  1.491132e+01    1.955516e+00
  1.492720e+01    1.996218e+00
  1.494307e+01    2.004639e+00
  1.495895e+01    1.976032e+00
  1.497482e+01    2.057439e+00
  1.499070e+01    2.138379e+00
  1.500657e+01    2.165164e+00
  1.502245e+01    2.215236e+00
  1.503832e+01    2.317218e+00
  1.505420e+01    2.387113e+00
  1.507008e+01    2.544030e+00
  1.508595e+01    2.722121e+00
  1.510183e+01    2.871292e+00
  1.511770e+01    3.094481e+00
  1.513358e+01    3.481660e+00
  1.514945e+01    3.828577e+00
  1.516533e+01    4.199719e+00
  1.518120e+01    4.517804e+00
  1.519708e+01    4.843884e+00
  1.521296e+01    5.106606e+00
  1.522883e+01    5.413626e+00
  1.524471e+01    5.571153e+00
  1.526058e+01    5.604113e+00
  1.527646e+01    5.559843e+00
  1.529233e+01    5.343651e+00
  1.530821e+01    4.971411e+00
  1.532409e+01    4.523436e+00
  1.533996e+01    4.027006e+00
  1.535584e+01    3.573119e+00
  1.537171e+01    3.219861e+00
  1.538759e+01    2.915133e+00
  1.540346e+01    2.725101e+00
  1.541934e+01    2.560645e+00
  1.543521e+01    2.402360e+00
  1.545109e+01    2.285632e+00
  1.546697e+01    2.157677e+00
  1.548284e+01    2.122940e+00
  1.549872e+01    2.064146e+00
  1.551459e+01    2.011872e+00
  1.553047e+01    1.939860e+00
  1.554634e+01    1.897315e+00
  1.556222e+01    1.864452e+00
  1.557809e+01    1.853231e+00
  1.559397e+01    1.843754e+00
  1.560985e+01    1.812381e+00
  1.562572e+01    1.808959e+00
  1.564160e+01    1.800566e+00
  1.565747e+01    1.794254e+00
  1.567335e+01    1.757048e+00
  1.568922e+01    1.762094e+00
  1.570510e+01    1.749078e+00
  1.572097e+01    1.742035e+00
  1.573685e+01    1.740646e+00
  1.575273e+01    1.713740e+00
  1.576860e+01    1.720012e+00
  1.578448e+01    1.686156e+00
  1.580035e+01    1.701565e+00
  1.581623e+01    1.684852e+00
  1.583210e+01    1.664168e+00
  1.584798e+01    1.632162e+00
  1.586385e+01    1.627909e+00
  1.587973e+01    1.640867e+00
  1.589561e+01    1.632611e+00
  1.591148e+01    1.623023e+00
  1.592736e+01    1.631296e+00
  1.594323e+01    1.647955e+00
  1.595911e+01    1.612783e+00
  1.597498e+01    1.626302e+00
  1.599086e+01    1.645934e+00
  1.600673e+01    1.612599e+00
  1.602261e+01    1.588166e+00
  1.603849e+01    1.617550e+00
  1.605436e+01    1.597465e+00
  1.607024e+01    1.604574e+00
  1.608611e+01    1.638132e+00
  1.610199e+01    1.616156e+00
  1.611786e+01    1.569795e+00
  1.613374e+01    1.585447e+00
  1.614961e+01    1.600387e+00
  1.616549e+01    1.588342e+00
  1.618137e+01    1.564469e+00
  1.619724e+01    1.575498e+00
  1.621312e+01    1.615531e+00
  1.622899e+01    1.585099e+00
  1.624487e+01    1.595769e+00
  1.626074e+01    1.570553e+00
  1.627662e+01    1.549576e+00
  1.629250e+01    1.545583e+00
  1.630837e+01    1.554244e+00
  1.632425e+01    1.564695e+00
  1.634012e+01    1.561246e+00
  1.635600e+01    1.532838e+00
  1.637187e+01    1.554018e+00
  1.638775e+01    1.526593e+00
  1.640362e+01    1.517716e+00
  1.641950e+01    1.535290e+00
  1.643538e+01    1.546134e+00
  1.645125e+01    1.520968e+00
  1.646713e+01    1.529167e+00
  1.648300e+01    1.528877e+00
  1.649888e+01    1.542715e+00
  1.651475e+01    1.493727e+00
  1.653063e+01    1.514286e+00
  1.654650e+01    1.484495e+00
  1.656238e+01    1.503153e+00
  1.657826e+01    1.517500e+00
  1.659413e+01    1.520677e+00
  1.661001e+01    1.512283e+00
  1.662588e+01    1.527756e+00
  1.664176e+01    1.525524e+00
  1.665763e+01    1.512860e+00
  1.667351e+01    1.494900e+00
  1.668938e+01    1.519196e+00
  1.670526e+01    1.500546e+00
  1.672114e+01    1.465124e+00
  1.673701e+01    1.498191e+00
  1.675289e+01    1.473487e+00
  1.676876e+01    1.466641e+00
  1.678464e+01    1.464441e+00
  1.680051e+01    1.457692e+00
  1.681639e+01    1.439171e+00
  1.683226e+01    1.467420e+00
  1.684814e+01    1.479481e+00
  1.686402e+01    1.440761e+00
  1.687989e+01    1.426283e+00
  1.689577e+01    1.432782e+00
  1.691164e+01    1.438170e+00
  1.692752e+01    1.427234e+00
  1.694339e+01    1.446025e+00
  1.695927e+01    1.447527e+00
  1.697514e+01    1.466192e+00
  1.699102e+01    1.461773e+00
  1.700690e+01    1.443257e+00
  1.702277e+01    1.434610e+00
  1.703865e+01    1.427674e+00
  1.705452e+01    1.400308e+00
  1.707040e+01    1.406539e+00
  1.708627e+01    1.425171e+00
  1.710215e+01    1.421694e+00
  1.711802e+01    1.443709e+00
  1.713390e+01    1.421692e+00
  1.714978e+01    1.411925e+00
  1.716565e+01    1.395762e+00
  1.718153e+01    1.415445e+00
  1.719740e+01    1.418910e+00
  1.721328e+01    1.383343e+00
  1.722915e+01    1.384888e+00
  1.724503e+01    1.421299e+00
  1.726091e+01    1.413355e+00
  1.727678e+01    1.435164e+00
  1.729266e+01    1.390098e+00
  1.730853e+01    1.397730e+00
  1.732441e+01    1.402575e+00
  1.734028e+01    1.406518e+00
  1.735616e+01    1.379482e+00
  1.737203e+01    1.395016e+00
  1.738791e+01    1.385913e+00
  1.740379e+01    1.386322e+00
  1.741966e+01    1.378258e+00
  1.743554e+01    1.351669e+00
  1.745141e+01    1.333297e+00
  1.746729e+01    1.348921e+00
  1.748316e+01    1.383644e+00
  1.749904e+01    1.381566e+00
  1.751491e+01    1.366467e+00
  1.753079e+01    1.355350e+00
  1.754667e+01    1.369165e+00
  1.756254e+01    1.350289e+00
  1.757842e+01    1.333723e+00
  1.759429e+01    1.367706e+00
  1.761017e+01    1.372827e+00
  1.762604e+01    1.363321e+00
  1.764192e+01    1.333879e+00
  1.765779e+01    1.355664e+00
  1.767367e+01    1.361485e+00
  1.768955e+01    1.381033e+00
  1.770542e+01    1.374002e+00
  1.772130e+01    1.348403e+00
  1.773717e+01    1.333992e+00
  1.775305e+01    1.327612e+00
  1.776892e+01    1.375470e+00
  1.778480e+01    1.336913e+00
  1.780067e+01    1.318873e+00
  1.781655e+01    1.341252e+00
  1.783243e+01    1.360214e+00
  1.784830e+01    1.349762e+00
  1.786418e+01    1.329735e+00
  1.788005e+01    1.325149e+00
  1.789593e+01    1.324949e+00
  1.791180e+01    1.321893e+00
  1.792768e+01    1.325643e+00
  1.794355e+01    1.320616e+00
  1.795943e+01    1.336019e+00
  1.797531e+01    1.309006e+00
  1.799118e+01    1.304220e+00
  1.800706e+01    1.305788e+00
  1.802293e+01    1.294142e+00
  1.803881e+01    1.271220e+00
  1.805468e+01    1.303702e+00
  1.807056e+01    1.299994e+00
  1.808643e+01    1.281803e+00
  1.810231e+01    1.301822e+00
  1.811819e+01    1.298298e+00
  1.813406e+01    1.309466e+00
  1.814994e+01    1.310019e+00
  1.816581e+01    1.309873e+00
  1.818169e+01    1.298767e+00
  1.819756e+01    1.272859e+00
  1.821344e+01    1.284808e+00
  1.822932e+01    1.286454e+00
  1.824519e+01    1.282010e+00
  1.826107e+01    1.268065e+00
  1.827694e+01    1.244008e+00
  1.829282e+01    1.274487e+00
  1.830869e+01    1.307744e+00
  1.832457e+01    1.313499e+00
  1.834044e+01    1.286783e+00
  1.835632e+01    1.281152e+00
  1.837220e+01    1.266872e+00
  1.838807e+01    1.272979e+00
  1.840395e+01    1.256355e+00
  1.841982e+01    1.228800e+00
  1.843570e+01    1.262743e+00
  1.845157e+01    1.299319e+00
  1.846745e+01    1.251605e+00
  1.848332e+01    1.247316e+00
  1.849920e+01    1.243219e+00
  1.851508e+01    1.258899e+00
  1.853095e+01    1.250989e+00
  1.854683e+01    1.254585e+00
  1.856270e+01    1.247501e+00
  1.857858e+01    1.236182e+00
  1.859445e+01    1.250593e+00
  1.861033e+01    1.261497e+00
  1.862620e+01    1.245263e+00
  1.864208e+01    1.225740e+00
  1.865796e+01    1.220577e+00
  1.867383e+01    1.236907e+00
  1.868971e+01    1.228394e+00
  1.870558e+01    1.213581e+00
  1.872146e+01    1.223518e+00
  1.873733e+01    1.218371e+00
  1.875321e+01    1.203201e+00
  1.876908e+01    1.235392e+00
  1.878496e+01    1.259341e+00
  1.880084e+01    1.214687e+00
  1.881671e+01    1.225562e+00
  1.883259e+01    1.208838e+00
  1.884846e+01    1.204633e+00
  1.886434e+01    1.189856e+00
  1.888021e+01    1.192914e+00
  1.889609e+01    1.222497e+00
  1.891196e+01    1.222907e+00
  1.892784e+01    1.207094e+00
  1.894372e+01    1.192170e+00
  1.895959e+01    1.208547e+00
  1.897547e+01    1.203661e+00
  1.899134e+01    1.181861e+00
  1.900722e+01    1.186575e+00
  1.902309e+01    1.202883e+00
  1.903897e+01    1.201764e+00
  1.905484e+01    1.200760e+00
  1.907072e+01    1.232133e+00
  1.908660e+01    1.220146e+00
  1.910247e+01    1.219289e+00
  1.911835e+01    1.205778e+00
  1.913422e+01    1.179229e+00
  1.915010e+01    1.191443e+00
  1.916597e+01    1.178566e+00
  1.918185e+01    1.191849e+00
  1.919773e+01    1.178958e+00
  1.921360e+01    1.215902e+00
  1.922948e+01    1.211552e+00
  1.924535e+01    1.169802e+00
  1.926123e+01    1.169430e+00
  1.927710e+01    1.186469e+00
  1.929298e+01    1.212255e+00
  1.930885e+01    1.193308e+00
  1.932473e+01    1.184091e+00
  1.934061e+01    1.187102e+00
  1.935648e+01    1.183409e+00
  1.937236e+01    1.165389e+00
  1.938823e+01    1.194597e+00
  1.940411e+01    1.179531e+00
  1.941998e+01    1.188924e+00
  1.943586e+01    1.155209e+00
  1.945173e+01    1.178684e+00
  1.946761e+01    1.182722e+00
  1.948349e+01    1.179025e+00
  1.949936e+01    1.163698e+00
  1.951524e+01    1.154280e+00
  1.953111e+01    1.126735e+00
  1.954699e+01    1.138028e+00
  1.956286e+01    1.158116e+00
  1.957874e+01    1.165431e+00
  1.959461e+01    1.144873e+00
  1.961049e+01    1.159374e+00
  1.962637e+01    1.157629e+00
  1.964224e+01    1.151995e+00
  1.965812e+01    1.153001e+00
  1.967399e+01    1.137062e+00
  1.968987e+01    1.136271e+00
  1.970574e+01    1.133277e+00
  1.972162e+01    1.130495e+00
  1.973749e+01    1.135762e+00
  1.975337e+01    1.134087e+00
  1.976925e+01    1.152984e+00
  1.978512e+01    1.149754e+00
  1.980100e+01    1.131221e+00
  1.981687e+01    1.130808e+00
  1.983275e+01    1.119617e+00
  1.984862e+01    1.104303e+00
  1.986450e+01    1.155210e+00
  1.988037e+01    1.145764e+00
  1.989625e+01    1.120073e+00
  1.991213e+01    1.128063e+00
  1.992800e+01    1.116645e+00
  1.994388e+01    1.138789e+00
  1.995975e+01    1.148471e+00
  1.997563e+01    1.118001e+00
  1.999150e+01    1.108646e+00
  2.000738e+01    1.105431e+00
  2.002325e+01    1.109104e+00
  2.003913e+01    1.123560e+00
  2.005501e+01    1.127259e+00
  2.007088e+01    1.113060e+00
  2.008676e+01    1.119273e+00
  2.010263e+01    1.109122e+00
  2.011851e+01    1.118048e+00
  2.013438e+01    1.105452e+00
  2.015026e+01    1.097159e+00
  2.016614e+01    1.104846e+00
  2.018201e+01    1.097238e+00
  2.019789e+01    1.107299e+00
  2.021376e+01    1.086836e+00
  2.022964e+01    1.095286e+00
  2.024551e+01    1.131434e+00
  2.026139e+01    1.123711e+00
  2.027726e+01    1.082002e+00
  2.029314e+01    1.097103e+00
  2.030902e+01    1.111382e+00
  2.032489e+01    1.094409e+00
  2.034077e+01    1.080394e+00
  2.035664e+01    1.109855e+00
  2.037252e+01    1.110150e+00
  2.038839e+01    1.102771e+00
  2.040427e+01    1.085764e+00
  2.042014e+01    1.082139e+00
  2.043602e+01    1.089737e+00
  2.045190e+01    1.094555e+00
  2.046777e+01    1.103220e+00
  2.048365e+01    1.087549e+00
  2.049952e+01    1.079807e+00
  2.051540e+01    1.103616e+00
  2.053127e+01    1.108724e+00
  2.054715e+01    1.091195e+00
  2.056302e+01    1.087756e+00
  2.057890e+01    1.080740e+00
  2.059478e+01    1.089908e+00
  2.061065e+01    1.099834e+00
  2.062653e+01    1.080551e+00
  2.064240e+01    1.089565e+00
  2.065828e+01    1.089502e+00
  2.067415e+01    1.081559e+00
  2.069003e+01    1.088560e+00
  2.070590e+01    1.088134e+00
  2.072178e+01    1.094618e+00
  2.073766e+01    1.080207e+00
  2.075353e+01    1.066230e+00
  2.076941e+01    1.077179e+00
  2.078528e+01    1.085083e+00
  2.080116e+01    1.081896e+00
  2.081703e+01    1.105865e+00
  2.083291e+01    1.067884e+00
  2.084878e+01    1.071772e+00
  2.086466e+01    1.098923e+00
  2.088054e+01    1.071083e+00
  2.089641e+01    1.073890e+00
  2.091229e+01    1.054809e+00
  2.092816e+01    1.082271e+00
  2.094404e+01    1.090026e+00
  2.095991e+01    1.071671e+00
  2.097579e+01    1.057088e+00
  2.099166e+01    1.076572e+00
  2.100754e+01    1.080116e+00
  2.102342e+01    1.079428e+00
  2.103929e+01    1.092830e+00
  2.105517e+01    1.064195e+00
  2.107104e+01    1.072198e+00
  2.108692e+01    1.085686e+00
  2.110279e+01    1.095505e+00
  2.111867e+01    1.064829e+00
  2.113455e+01    1.078122e+00
  2.115042e+01    1.100834e+00
  2.116630e+01    1.094594e+00
  2.118217e+01    1.076520e+00
  2.119805e+01    1.063011e+00
  2.121392e+01    1.067594e+00
  2.122980e+01    1.094522e+00
  2.124567e+01    1.095237e+00
  2.126155e+01    1.062238e+00
  2.127743e+01    1.102235e+00
  2.129330e+01    1.129068e+00
  2.130918e+01    1.127984e+00
  2.132505e+01    1.139320e+00
  2.134093e+01    1.140148e+00
  2.135680e+01    1.151356e+00
  2.137268e+01    1.170161e+00
  2.138855e+01    1.171100e+00
  2.140443e+01    1.184138e+00
  2.142031e+01    1.189293e+00
  2.143618e+01    1.204189e+00
  2.145206e+01    1.241858e+00
  2.146793e+01    1.233997e+00
  2.148381e+01    1.245992e+00
  2.149968e+01    1.276727e+00
  2.151556e+01    1.330092e+00
  2.153143e+01    1.360988e+00
  2.154731e+01    1.389529e+00
  2.156319e+01    1.411808e+00
  2.157906e+01    1.479190e+00
  2.159494e+01    1.559900e+00
  2.161081e+01    1.654315e+00
  2.162669e+01    1.736137e+00
  2.164256e+01    1.839678e+00
  2.165844e+01    1.966731e+00
  2.167431e+01    2.139364e+00
  2.169019e+01    2.332423e+00
  2.170607e+01    2.625723e+00
  2.172194e+01    2.954198e+00
  2.173782e+01    3.285464e+00
  2.175369e+01    3.785562e+00
  2.176957e+01    4.326079e+00
  2.178544e+01    4.938720e+00
  2.180132e+01    5.558577e+00
  2.181719e+01    6.196612e+00
  2.183307e+01    6.900810e+00
  2.184895e+01    7.626307e+00
  2.186482e+01    8.217194e+00
  2.188070e+01    8.724240e+00
  2.189657e+01    9.023791e+00
  2.191245e+01    8.867425e+00
  2.192832e+01    8.319178e+00
  2.194420e+01    7.596902e+00
  2.196007e+01    6.615765e+00
  2.197595e+01    5.667387e+00
  2.199183e+01    4.791572e+00
  2.200770e+01    4.078211e+00
  2.202358e+01    3.549974e+00
  2.203945e+01    3.047108e+00
  2.205533e+01    2.669958e+00
  2.207120e+01    2.420178e+00
  2.208708e+01    2.212152e+00
  2.210296e+01    2.019112e+00
  2.211883e+01    1.843473e+00
  2.213471e+01    1.738841e+00
  2.215058e+01    1.659981e+00
  2.216646e+01    1.562645e+00
  2.218233e+01    1.475653e+00
  2.219821e+01    1.399641e+00
  2.221408e+01    1.373364e+00
  2.222996e+01    1.324690e+00
  2.224584e+01    1.272395e+00
  2.226171e+01    1.238537e+00
  2.227759e+01    1.209292e+00
  2.229346e+01    1.186404e+00
  2.230934e+01    1.162552e+00
  2.232521e+01    1.155562e+00
  2.234109e+01    1.124744e+00
  2.235696e+01    1.098512e+00
  2.237284e+01    1.083187e+00
  2.238872e+01    1.087415e+00
  2.240459e+01    1.089778e+00
  2.242047e+01    1.096161e+00
  2.243634e+01    1.074342e+00
  2.245222e+01    1.027857e+00
  2.246809e+01    1.028948e+00
  2.248397e+01    1.015048e+00
  2.249984e+01    1.017169e+00
  2.251572e+01    1.003584e+00
  2.253160e+01    9.963480e-01
  2.254747e+01    1.013965e+00
  2.256335e+01    1.019899e+00
  2.257922e+01    1.000759e+00
  2.259510e+01    9.728777e-01
  2.261097e+01    9.744111e-01
  2.262685e+01    9.557108e-01
  2.264272e+01    9.682918e-01
  2.265860e+01    9.571174e-01
  2.267448e+01    9.406531e-01
  2.269035e+01    9.472623e-01
  2.270623e+01    9.581573e-01
  2.272210e+01    9.300758e-01
  2.273798e+01    9.399391e-01
  2.275385e+01    9.247544e-01
  2.276973e+01    9.467711e-01
  2.278560e+01    9.397140e-01
  2.280148e+01    9.142883e-01
  2.281736e+01    9.242291e-01
  2.283323e+01    9.288012e-01
  2.284911e+01    9.115968e-01
  2.286498e+01    9.155323e-01
  2.288086e+01    9.182085e-01
  2.289673e+01    9.187927e-01
  2.291261e+01    8.947448e-01
  2.292848e+01    9.099492e-01
  2.294436e+01    9.087864e-01
  2.296024e+01    9.061313e-01
  2.297611e+01    9.016663e-01
  2.299199e+01    8.868842e-01
  2.300786e+01    8.800782e-01
  2.302374e+01    8.962238e-01
  2.303961e+01    8.962477e-01
  2.305549e+01    9.020938e-01
  2.307137e+01    9.041358e-01
  2.308724e+01    8.742806e-01
  2.310312e+01    8.812522e-01
  2.311899e+01    8.920157e-01
  2.313487e+01    8.764901e-01
  2.315074e+01    8.860177e-01
  2.316662e+01    8.957074e-01
  2.318249e+01    8.762280e-01
  2.319837e+01    8.768560e-01
  2.321425e+01    8.574360e-01
  2.323012e+01    8.625926e-01
  2.324600e+01    8.843461e-01
  2.326187e+01    8.651775e-01
  2.327775e+01    8.523730e-01
  2.329362e+01    8.574550e-01
  2.330950e+01    8.424437e-01
  2.332537e+01    8.923045e-01
  2.334125e+01    8.989795e-01
  2.335713e+01    8.655472e-01
  2.337300e+01    8.565980e-01
  2.338888e+01    8.652098e-01
  2.340475e+01    8.599579e-01
  2.342063e+01    8.471294e-01
  2.343650e+01    8.531805e-01
  2.345238e+01    8.425069e-01
  2.346825e+01    8.363425e-01
  2.348413e+01    8.411512e-01
  2.350001e+01    8.387251e-01
  2.351588e+01    8.371010e-01
  2.353176e+01    8.170717e-01
  2.354763e+01    8.464543e-01
  2.356351e+01    8.485658e-01
  2.357938e+01    8.387091e-01
  2.359526e+01    8.402371e-01
  2.361113e+01    8.570935e-01
  2.362701e+01    8.772770e-01
  2.364289e+01    8.275528e-01
  2.365876e+01    8.311997e-01
  2.367464e+01    8.387274e-01
  2.369051e+01    8.199164e-01
  2.370639e+01    8.162348e-01
  2.372226e+01    8.271689e-01
  2.373814e+01    8.285224e-01
  2.375401e+01    8.001727e-01
  2.376989e+01    7.971915e-01
  2.378577e+01    7.992961e-01
  2.380164e+01    8.130071e-01
  2.381752e+01    7.957560e-01
  2.383339e+01    7.980886e-01
  2.384927e+01    8.078839e-01
  2.386514e+01    8.157033e-01
  2.388102e+01    8.054141e-01
  2.389689e+01    7.875872e-01
  2.391277e+01    8.099531e-01
  2.392865e+01    8.047850e-01
  2.394452e+01    7.892112e-01
  2.396040e+01    7.900525e-01
  2.397627e+01    7.923826e-01
  2.399215e+01    7.824836e-01
  2.400802e+01    7.805414e-01
  2.402390e+01    7.946353e-01
  2.403978e+01    7.924122e-01
  2.405565e+01    7.924148e-01
  2.407153e+01    7.808397e-01
  2.408740e+01    7.730278e-01
  2.410328e+01    7.856494e-01
  2.411915e+01    7.734385e-01
  2.413503e+01    7.906538e-01
  2.415090e+01    8.050814e-01
  2.416678e+01    7.905762e-01
  2.418266e+01    7.678792e-01
  2.419853e+01    7.673773e-01
  2.421441e+01    7.525555e-01
  2.423028e+01    7.609149e-01
  2.424616e+01    7.759462e-01
  2.426203e+01    7.801180e-01
  2.427791e+01    7.690916e-01
  2.429378e+01    7.870515e-01
  2.430966e+01    7.918690e-01
  2.432554e+01    7.880262e-01
  2.434141e+01    7.912042e-01
  2.435729e+01    7.903051e-01
  2.437316e+01    7.740450e-01
  2.438904e+01    7.644637e-01
  2.440491e+01    7.811598e-01
  2.442079e+01    7.757738e-01
  2.443666e+01    7.750226e-01
  2.445254e+01    7.918606e-01
  2.446842e+01    7.701747e-01
  2.448429e+01    7.655079e-01
  2.450017e+01    8.059801e-01
  2.451604e+01    7.949991e-01
  2.453192e+01    7.749826e-01
  2.454779e+01    7.942094e-01
  2.456367e+01    7.885730e-01
  2.457954e+01    8.071322e-01
  2.459542e+01    7.983913e-01
  2.461130e+01    8.001771e-01
  2.462717e+01    7.985418e-01
  2.464305e+01    7.935877e-01
  2.465892e+01    7.837788e-01
  2.467480e+01    7.823872e-01
  2.469067e+01    7.794792e-01
  2.470655e+01    8.009393e-01
  2.472242e+01    8.015166e-01
  2.473830e+01    8.009215e-01
  2.475418e+01    7.984416e-01
  2.477005e+01    7.838469e-01
  2.478593e+01    7.728540e-01
  2.480180e+01    7.915360e-01
  2.481768e+01    7.987744e-01
  2.483355e+01    7.970282e-01
  2.484943e+01    7.862075e-01
  2.486530e+01    7.963310e-01
  2.488118e+01    8.159022e-01
  2.489706e+01    7.933995e-01
  2.491293e+01    8.047766e-01
  2.492881e+01    8.054224e-01
  2.494468e+01    7.910714e-01
  2.496056e+01    8.083324e-01
  2.497643e+01    8.187702e-01
  2.499231e+01    8.115194e-01
  2.500819e+01    8.169553e-01
  2.502406e+01    8.012431e-01
  2.503994e+01    7.952803e-01
  2.505581e+01    7.842509e-01
  2.507169e+01    8.008696e-01
  2.508756e+01    8.006326e-01
  2.510344e+01    8.096220e-01
  2.511931e+01    8.017551e-01
  2.513519e+01    7.945189e-01
  2.515107e+01    8.091473e-01
  2.516694e+01    8.349412e-01
  2.518282e+01    8.386922e-01
  2.519869e+01    8.366852e-01
  2.521457e+01    8.339532e-01
  2.523044e+01    8.057762e-01
  2.524632e+01    8.471975e-01
  2.526219e+01    8.624625e-01
  2.527807e+01    8.544135e-01
  2.529395e+01    8.396261e-01
  2.530982e+01    8.580138e-01
  2.532570e+01    8.625118e-01
  2.534157e+01    8.694553e-01
  2.535745e+01    8.905908e-01
  2.537332e+01    8.896905e-01
  2.538920e+01    8.998215e-01
  2.540507e+01    8.961141e-01
  2.542095e+01    9.260199e-01
  2.543683e+01    9.050279e-01
  2.545270e+01    9.224820e-01
  2.546858e+01    9.358473e-01
  2.548445e+01    9.530109e-01
  2.550033e+01    9.425516e-01
  2.551620e+01    9.774913e-01
  2.553208e+01    1.008323e+00
  2.554795e+01    1.024146e+00
  2.556383e+01    1.019513e+00
  2.557971e+01    1.071776e+00
  2.559558e+01    1.105475e+00
  2.561146e+01    1.104653e+00
  2.562733e+01    1.157956e+00
  2.564321e+01    1.196212e+00
  2.565908e+01    1.248705e+00
  2.567496e+01    1.342918e+00
  2.569083e+01    1.394501e+00
  2.570671e+01    1.496062e+00
  2.572259e+01    1.631337e+00
  2.573846e+01    1.752789e+00
  2.575434e+01    1.950556e+00
  2.577021e+01    2.105977e+00
  2.578609e+01    2.367451e+00
  2.580196e+01    2.675915e+00
  2.581784e+01    3.026542e+00
  2.583371e+01    3.479110e+00
  2.584959e+01    3.979825e+00
  2.586547e+01    4.491453e+00
  2.588134e+01    5.145171e+00
  2.589722e+01    5.709674e+00
  2.591309e+01    6.256739e+00
  2.592897e+01    6.777192e+00
  2.594484e+01    7.150027e+00
  2.596072e+01    7.245903e+00
  2.597660e+01    7.119862e+00
  2.599247e+01    6.773140e+00
  2.600835e+01    6.132273e+00
  2.602422e+01    5.493618e+00
  2.604010e+01    4.766519e+00
  2.605597e+01    4.071810e+00
  2.607185e+01    3.509013e+00
  2.608772e+01    2.998626e+00
  2.610360e+01    2.610306e+00
  2.611948e+01    2.309775e+00
  2.613535e+01    2.081222e+00
  2.615123e+01    1.923896e+00
  2.616710e+01    1.728289e+00
  2.618298e+01    1.626376e+00
  2.619885e+01    1.497885e+00
  2.621473e+01    1.416157e+00
  2.623060e+01    1.330400e+00
  2.624648e+01    1.257113e+00
  2.626236e+01    1.191637e+00
  2.627823e+01    1.169573e+00
  2.629411e+01    1.119155e+00
  2.630998e+01    1.068544e+00
  2.632586e+01    1.067158e+00
  2.634173e+01    1.050139e+00
  2.635761e+01    1.020068e+00
  2.637348e+01    1.010787e+00
  2.638936e+01    9.795501e-01
  2.640524e+01    9.796897e-01
  2.642111e+01    9.426073e-01
  2.643699e+01    9.390979e-01
  2.645286e+01    9.170758e-01
  2.646874e+01    9.045348e-01
  2.648461e+01    9.358618e-01
  2.650049e+01    9.231537e-01
  2.651636e+01    9.128535e-01
  2.653224e+01    9.034292e-01
  2.654812e+01    8.964058e-01
  2.656399e+01    8.910360e-01
  2.657987e+01    8.823684e-01
  2.659574e+01    8.943310e-01
  2.661162e+01    8.822751e-01
  2.662749e+01    8.805745e-01
  2.664337e+01    8.803377e-01
  2.665924e+01    8.721394e-01
  2.667512e+01    8.704793e-01
  2.669100e+01    8.812057e-01
  2.670687e+01    8.830816e-01
  2.672275e+01    8.757228e-01
  2.673862e+01    8.702030e-01
  2.675450e+01    8.835503e-01
  2.677037e+01    8.765075e-01
  2.678625e+01    8.743498e-01
  2.680212e+01    8.711057e-01
  2.681800e+01    8.755596e-01
  2.683388e+01    8.910465e-01
  2.684975e+01    8.906859e-01
  2.686563e+01    9.027680e-01
  2.688150e+01    8.862752e-01
  2.689738e+01    9.125462e-01
  2.691325e+01    9.093471e-01
  2.692913e+01    9.334649e-01
  2.694501e+01    9.549532e-01
  2.696088e+01    9.457556e-01
  2.697676e+01    9.732665e-01
  2.699263e+01    9.911095e-01
  2.700851e+01    1.028603e+00
  2.702438e+01    1.081637e+00
  2.704026e+01    1.134676e+00
  2.705613e+01    1.159298e+00
  2.707201e+01    1.226466e+00
  2.708789e+01    1.305418e+00
  2.710376e+01    1.397218e+00
  2.711964e+01    1.507611e+00
  2.713551e+01    1.620572e+00
  2.715139e+01    1.772479e+00
  2.716726e+01    1.899254e+00
  2.718314e+01    2.035628e+00
  2.719901e+01    2.123960e+00
  2.721489e+01    2.163019e+00
  2.723077e+01    2.156630e+00
  2.724664e+01    2.081482e+00
  2.726252e+01    1.987800e+00
  2.727839e+01    1.821675e+00
  2.729427e+01    1.689251e+00
  2.731014e+01    1.542369e+00
  2.732602e+01    1.397399e+00
  2.734189e+01    1.293017e+00
  2.735777e+01    1.232245e+00
  2.737365e+01    1.145763e+00
  2.738952e+01    1.110481e+00
  2.740540e+01    1.071879e+00
  2.742127e+01    1.011390e+00
  2.743715e+01    9.718386e-01
  2.745302e+01    9.704624e-01
  2.746890e+01    9.621726e-01
  2.748477e+01    9.243795e-01
  2.750065e+01    9.065027e-01
  2.751653e+01    8.968332e-01
  2.753240e+01    8.836923e-01
  2.754828e+01    8.510773e-01
  2.756415e+01    8.474241e-01
  2.758003e+01    8.460186e-01
  2.759590e+01    8.536617e-01
  2.761178e+01    8.570374e-01
  2.762765e+01    8.417366e-01
  2.764353e+01    8.279824e-01
  2.765941e+01    8.208736e-01
  2.767528e+01    8.378320e-01
  2.769116e+01    8.273230e-01
  2.770703e+01    8.094503e-01
  2.772291e+01    8.008708e-01
  2.773878e+01    7.983619e-01
  2.775466e+01    8.032402e-01
  2.777054e+01    8.003412e-01
  2.778641e+01    8.033420e-01
  2.780229e+01    8.260984e-01
  2.781816e+01    8.184686e-01
  2.783404e+01    7.678083e-01
  2.784991e+01    7.747106e-01
  2.786579e+01    7.819845e-01
  2.788166e+01    7.928528e-01
  2.789754e+01    7.900275e-01
  2.791342e+01    8.111873e-01
  2.792929e+01    7.968763e-01
  2.794517e+01    7.866901e-01
  2.796104e+01    7.750450e-01
  2.797692e+01    7.913461e-01
  2.799279e+01    7.798015e-01
  2.800867e+01    7.798630e-01
  2.802454e+01    7.787746e-01
  2.804042e+01    8.014995e-01
  2.805630e+01    7.886401e-01
  2.807217e+01    7.713146e-01
  2.808805e+01    7.673492e-01
  2.810392e+01    7.582845e-01
  2.811980e+01    7.861440e-01
  2.813567e+01    7.880168e-01
  2.815155e+01    7.994775e-01
  2.816742e+01    7.689176e-01
  2.818330e+01    7.513331e-01
  2.819918e+01    7.428012e-01
  2.821505e+01    7.714455e-01
  2.823093e+01    7.718564e-01
  2.824680e+01    7.503836e-01
  2.826268e+01    7.549562e-01
  2.827855e+01    7.634090e-01
  2.829443e+01    7.639965e-01
  2.831030e+01    7.617471e-01
  2.832618e+01    7.712415e-01
  2.834206e+01    7.863329e-01
  2.835793e+01    7.575870e-01
  2.837381e+01    7.460608e-01
  2.838968e+01    7.581185e-01
  2.840556e+01    7.689357e-01
  2.842143e+01    7.470885e-01
  2.843731e+01    7.401712e-01
  2.845318e+01    7.527718e-01
  2.846906e+01    7.588267e-01
  2.848494e+01    7.487049e-01
  2.850081e+01    7.438773e-01
  2.851669e+01    7.647350e-01
  2.853256e+01    7.514638e-01
  2.854844e+01    7.423313e-01
  2.856431e+01    7.885962e-01
  2.858019e+01    7.764429e-01
  2.859606e+01    7.558939e-01
  2.861194e+01    7.384542e-01
  2.862782e+01    7.518286e-01
  2.864369e+01    7.528185e-01
  2.865957e+01    7.322617e-01
  2.867544e+01    7.312986e-01
  2.869132e+01    7.392923e-01
  2.870719e+01    7.406074e-01
  2.872307e+01    7.314156e-01
  2.873895e+01    7.364118e-01
  2.875482e+01    7.499722e-01
  2.877070e+01    7.450643e-01
  2.878657e+01    7.301221e-01
  2.880245e+01    7.508161e-01
  2.881832e+01    7.489234e-01
  2.883420e+01    7.324502e-01
  2.885007e+01    7.514014e-01
  2.886595e+01    7.610468e-01
  2.888183e+01    7.339614e-01
  2.889770e+01    7.398185e-01
  2.891358e+01    7.301024e-01
  2.892945e+01    7.523097e-01
  2.894533e+01    7.545088e-01
  2.896120e+01    7.367935e-01
  2.897708e+01    7.446645e-01
  2.899295e+01    7.427419e-01
  2.900883e+01    7.318568e-01
  2.902471e+01    7.386810e-01
  2.904058e+01    7.417344e-01
  2.905646e+01    7.419736e-01
  2.907233e+01    7.267153e-01
  2.908821e+01    7.124057e-01
  2.910408e+01    7.312919e-01
  2.911996e+01    7.354208e-01
  2.913583e+01    7.210640e-01
  2.915171e+01    7.248006e-01
  2.916759e+01    7.222984e-01
  2.918346e+01    7.463106e-01
  2.919934e+01    7.346861e-01
  2.921521e+01    7.182182e-01
  2.923109e+01    7.287679e-01
  2.924696e+01    7.284582e-01
  2.926284e+01    7.310935e-01
  2.927871e+01    7.344779e-01
  2.929459e+01    7.282429e-01
  2.931047e+01    7.358600e-01
  2.932634e+01    7.216422e-01
  2.934222e+01    7.091249e-01
  2.935809e+01    7.159300e-01
  2.937397e+01    7.268274e-01
  2.938984e+01    7.245825e-01
  2.940572e+01    7.315910e-01
  2.942159e+01    7.177151e-01
  2.943747e+01    7.268538e-01
  2.945335e+01    7.090920e-01
  2.946922e+01    7.313242e-01
  2.948510e+01    7.165781e-01
  2.950097e+01    7.147047e-01
  2.951685e+01    7.219203e-01
  2.953272e+01    7.210645e-01
  2.954860e+01    7.114395e-01
  2.956447e+01    7.115471e-01
  2.958035e+01    7.244706e-01
  2.959623e+01    7.273394e-01
  2.961210e+01    7.353491e-01
  2.962798e+01    7.268236e-01
  2.964385e+01    7.152993e-01
  2.965973e+01    7.132560e-01
  2.967560e+01    7.277359e-01
  2.969148e+01    7.331499e-01
  2.970736e+01    7.227078e-01
  2.972323e+01    7.131907e-01
  2.973911e+01    7.020327e-01
  2.975498e+01    7.398667e-01
  2.977086e+01    7.213470e-01
  2.978673e+01    7.256501e-01
  2.980261e+01    7.174381e-01
  2.981848e+01    7.278969e-01
  2.983436e+01    7.314232e-01
  2.985024e+01    7.173780e-01
  2.986611e+01    7.199844e-01
  2.988199e+01    7.326790e-01
  2.989786e+01    7.238339e-01
  2.991374e+01    7.201056e-01
  2.992961e+01    7.213513e-01
  2.994549e+01    7.081846e-01
  2.996136e+01    7.277559e-01
  2.997724e+01    7.436391e-01
  2.999312e+01    7.379422e-01
  3.000899e+01    7.345511e-01
  3.002487e+01    7.332538e-01
  3.004074e+01    7.181700e-01
  3.005662e+01    7.134260e-01
  3.007249e+01    7.267015e-01
  3.008837e+01    7.326815e-01
  3.010424e+01    7.266279e-01
  3.012012e+01    7.145895e-01
  3.013600e+01    7.090603e-01
  3.015187e+01    7.195413e-01
  3.016775e+01    7.056528e-01
  3.018362e+01    7.028521e-01
  3.019950e+01    7.478745e-01
  3.021537e+01    7.095512e-01
  3.023125e+01    7.014405e-01
  3.024712e+01    7.057505e-01
  3.026300e+01    7.078627e-01
  3.027888e+01    6.995828e-01
  3.029475e+01    6.965818e-01
  3.031063e+01    7.023380e-01
  3.032650e+01    7.182803e-01
  3.034238e+01    7.010360e-01
  3.035825e+01    6.986663e-01
  3.037413e+01    7.093619e-01
  3.039000e+01    7.255210e-01
  3.040588e+01    7.119434e-01
  3.042176e+01    7.208981e-01
  3.043763e+01    7.248008e-01
  3.045351e+01    7.014395e-01
  3.046938e+01    7.114104e-01
  3.048526e+01    7.224059e-01
  3.050113e+01    6.982141e-01
  3.051701e+01    7.197236e-01
  3.053288e+01    7.071868e-01
  3.054876e+01    7.027447e-01
  3.056464e+01    6.985571e-01
  3.058051e+01    7.191623e-01
  3.059639e+01    7.048133e-01
  3.061226e+01    6.969420e-01
  3.062814e+01    6.687929e-01
  3.064401e+01    7.019014e-01
  3.065989e+01    6.972678e-01
  3.067577e+01    6.953696e-01
  3.069164e+01    7.194918e-01
  3.070752e+01    7.275469e-01
  3.072339e+01    7.188346e-01
  3.073927e+01    7.314395e-01
  3.075514e+01    7.186262e-01
  3.077102e+01    7.136037e-01
  3.078689e+01    7.060916e-01
  3.080277e+01    6.754246e-01
  3.081865e+01    6.963803e-01
  3.083452e+01    7.111037e-01
  3.085040e+01    7.081694e-01
  3.086627e+01    7.190297e-01
  3.088215e+01    7.203701e-01
  3.089802e+01    7.106906e-01
  3.091390e+01    7.194777e-01
  3.092977e+01    7.043691e-01
  3.094565e+01    7.137885e-01
  3.096153e+01    7.131439e-01
  3.097740e+01    7.296376e-01
  3.099328e+01    7.287279e-01
  3.100915e+01    7.062514e-01
  3.102503e+01    7.193042e-01
  3.104090e+01    7.081690e-01
  3.105678e+01    7.191879e-01
  3.107265e+01    7.218717e-01
  3.108853e+01    7.258420e-01
  3.110441e+01    7.225398e-01
  3.112028e+01    6.975244e-01
  3.113616e+01    7.001491e-01
  3.115203e+01    7.168807e-01
  3.116791e+01    7.216175e-01
  3.118378e+01    7.163448e-01
  3.119966e+01    7.339639e-01
  3.121553e+01    7.392906e-01
  3.123141e+01    7.073053e-01
  3.124729e+01    7.202653e-01
  3.126316e+01    7.226337e-01
  3.127904e+01    7.168765e-01
  3.129491e+01    7.395279e-01
  3.131079e+01    7.306601e-01
  3.132666e+01    7.262183e-01
  3.134254e+01    7.263959e-01
  3.135841e+01    7.290111e-01
  3.137429e+01    7.320924e-01
  3.139017e+01    7.484870e-01
  3.140604e+01    7.484821e-01
  3.142192e+01    7.420768e-01
  3.143779e+01    7.578239e-01
  3.145367e+01    7.360497e-01
  3.146954e+01    7.487040e-01
  3.148542e+01    7.642209e-01
  3.150129e+01    7.753152e-01
  3.151717e+01    7.865026e-01
  3.153305e+01    8.027932e-01
  3.154892e+01    7.880318e-01
  3.156480e+01    7.963607e-01
  3.158067e+01    7.894628e-01
  3.159655e+01    7.918285e-01
  3.161242e+01    7.947520e-01
  3.162830e+01    8.408311e-01
  3.164418e+01    8.803461e-01
  3.166005e+01    8.789514e-01
  3.167593e+01    8.993288e-01
  3.169180e+01    9.562409e-01
  3.170768e+01    9.710005e-01
  3.172355e+01    1.022615e+00
  3.173943e+01    1.083793e+00
  3.175530e+01    1.103707e+00
  3.177118e+01    1.188684e+00
  3.178706e+01    1.293263e+00
  3.180293e+01    1.429851e+00
  3.181881e+01    1.560251e+00
  3.183468e+01    1.683545e+00
  3.185056e+01    1.803014e+00
  3.186643e+01    1.927554e+00
  3.188231e+01    2.037007e+00
  3.189818e+01    2.123275e+00
  3.191406e+01    2.156947e+00
  3.192994e+01    2.128580e+00
  3.194581e+01    2.004989e+00
  3.196169e+01    1.862465e+00
  3.197756e+01    1.721070e+00
  3.199344e+01    1.581417e+00
  3.200931e+01    1.405542e+00
  3.202519e+01    1.301591e+00
  3.204106e+01    1.196925e+00
  3.205694e+01    1.122396e+00
  3.207282e+01    1.042835e+00
  3.208869e+01    9.852063e-01
  3.210457e+01    9.464558e-01
  3.212044e+01    9.123108e-01
  3.213632e+01    8.776859e-01
  3.215219e+01    8.527347e-01
  3.216807e+01    8.401541e-01
  3.218394e+01    8.199636e-01
  3.219982e+01    8.128462e-01
  3.221570e+01    8.216139e-01
  3.223157e+01    7.862542e-01
  3.224745e+01    7.891686e-01
  3.226332e+01    7.568904e-01
  3.227920e+01    7.338374e-01
  3.229507e+01    7.457023e-01
  3.231095e+01    7.558901e-01
  3.232682e+01    7.387534e-01
  3.234270e+01    7.311437e-01
  3.235858e+01    7.369851e-01
  3.237445e+01    7.090225e-01
  3.239033e+01    7.068498e-01
  3.240620e+01    7.227847e-01
  3.242208e+01    7.136772e-01
  3.243795e+01    7.267284e-01
  3.245383e+01    7.017804e-01
  3.246970e+01    7.118834e-01
  3.248558e+01    7.241839e-01
  3.250146e+01    7.329093e-01
  3.251733e+01    7.321757e-01
  3.253321e+01    7.241155e-01
  3.254908e+01    7.219604e-01
