# == pyFAI calibration ==
# Distance Sample to Detector: 0.3999999939076516 m
# PONI: 9.750e-02, 1.135e-01 m
# Rotations: -0.000175 0.000000 -0.000000 rad
# 
# == Fit2d calibration ==
# Distance Sample-beamCenter: 400.000 mm
# Center: x=1514.000, y=1300.000 pix
# Tilt: 0.010 deg  TiltPlanRot: 0.010 deg
# 
# Detector Detector	 Spline= None	 PixelSize= 7.500e-05, 7.500e-05 m
#    Detector has a mask: False 
#    Detector has a dark current: False 
#    detector has a flat field: False 
# 
# Wavelength: 6.888e-11 m
# Mask applied: user provided
# Dark current applied: False
# Flat field applied: False
# Polarization factor: 0.99
# Normalization factor: 1.0
# --> /home/myspot/data/2024_07_Rosario/Ru-CGO-ex/2024-07-27_002_Ru-CGO-ex_Activtation_ramp_000002_data_000067.dat
#       q_nm^-1             I 
  2.003187e-02    0.000000e+00
  3.590745e-02    0.000000e+00
  5.178302e-02    2.670345e-02
  6.765859e-02    7.583265e-02
  8.353417e-02    1.582368e-01
  9.940974e-02    1.502645e-01
  1.152853e-01    8.025514e-02
  1.311609e-01    8.987715e-03
  1.470365e-01    7.111525e-02
  1.629120e-01    3.748420e-02
  1.787876e-01    2.108266e-02
  1.946632e-01    2.466303e-02
  2.105388e-01    2.083356e-02
  2.264143e-01    3.473834e-02
  2.422899e-01    3.483613e-02
  2.581655e-01    9.409044e-02
  2.740411e-01    8.232748e-02
  2.899166e-01    6.947338e-02
  3.057922e-01    4.641337e-02
  3.216678e-01    3.330040e-02
  3.375433e-01    2.004583e-02
  3.534189e-01    1.477265e-02
  3.692945e-01    3.233342e-02
  3.851701e-01    2.573615e-02
  4.010456e-01    1.083513e-02
  4.169212e-01    3.515521e-02
  4.327968e-01    6.507694e-02
  4.486724e-01    5.388988e-02
  4.645479e-01    4.596953e-02
  4.804235e-01    3.618697e-02
  4.962991e-01    4.443843e-02
  5.121747e-01    3.064825e-02
  5.280502e-01    5.235550e-03
  5.439258e-01    2.742282e-02
  5.598014e-01    3.367822e-02
  5.756770e-01    6.095082e-02
  5.915525e-01    5.117342e-02
  6.074281e-01    2.297494e-02
  6.233037e-01    3.468694e-02
  6.391793e-01    5.172643e-02
  6.550548e-01    3.074510e-02
  6.709304e-01    3.083699e-02
  6.868060e-01    3.719740e-02
  7.026815e-01    3.337891e-02
  7.185571e-01    2.375027e-02
  7.344327e-01    4.167442e-02
  7.503083e-01    4.308883e-02
  7.661838e-01    6.919327e-02
  7.820594e-01    9.889545e-02
  7.979350e-01    1.294246e-01
  8.138106e-01    1.941365e-01
  8.296861e-01    2.411084e-01
  8.455617e-01    3.478239e-01
  8.614373e-01    3.631870e-01
  8.773129e-01    4.223008e-01
  8.931884e-01    5.067385e-01
  9.090640e-01    6.213709e-01
  9.249396e-01    6.654960e-01
  9.408152e-01    7.347710e-01
  9.566907e-01    7.841865e-01
  9.725663e-01    8.998093e-01
  9.884419e-01    9.165886e-01
  1.004317e+00    1.006117e+00
  1.020193e+00    1.128697e+00
  1.036069e+00    1.185693e+00
  1.051944e+00    1.217672e+00
  1.067820e+00    1.254810e+00
  1.083695e+00    1.434252e+00
  1.099571e+00    1.419439e+00
  1.115446e+00    1.429486e+00
  1.131322e+00    1.442027e+00
  1.147198e+00    1.557474e+00
  1.163073e+00    1.504856e+00
  1.178949e+00    1.551897e+00
  1.194824e+00    1.700659e+00
  1.210700e+00    1.870992e+00
  1.226575e+00    2.021974e+00
  1.242451e+00    2.097786e+00
  1.258327e+00    2.239295e+00
  1.274202e+00    2.315185e+00
  1.290078e+00    2.499902e+00
  1.305953e+00    2.558429e+00
  1.321829e+00    2.460864e+00
  1.337705e+00    2.395905e+00
  1.353580e+00    2.560724e+00
  1.369456e+00    2.593413e+00
  1.385331e+00    2.690980e+00
  1.401207e+00    2.696570e+00
  1.417082e+00    2.576517e+00
  1.432958e+00    2.535460e+00
  1.448834e+00    2.598569e+00
  1.464709e+00    2.796642e+00
  1.480585e+00    2.843929e+00
  1.496460e+00    2.845954e+00
  1.512336e+00    2.885951e+00
  1.528211e+00    2.907116e+00
  1.544087e+00    3.026109e+00
  1.559963e+00    3.027200e+00
  1.575838e+00    3.111001e+00
  1.591714e+00    3.024309e+00
  1.607589e+00    2.865436e+00
  1.623465e+00    2.918394e+00
  1.639340e+00    2.898908e+00
  1.655216e+00    2.950802e+00
  1.671092e+00    2.951036e+00
  1.686967e+00    2.904151e+00
  1.702843e+00    2.884909e+00
  1.718718e+00    2.905418e+00
  1.734594e+00    2.881556e+00
  1.750469e+00    2.912917e+00
  1.766345e+00    2.883404e+00
  1.782221e+00    2.724742e+00
  1.798096e+00    2.764422e+00
  1.813972e+00    2.835127e+00
  1.829847e+00    2.879170e+00
  1.845723e+00    2.836362e+00
  1.861598e+00    2.894478e+00
  1.877474e+00    2.851717e+00
  1.893350e+00    2.705101e+00
  1.909225e+00    2.786978e+00
  1.925101e+00    2.954026e+00
  1.940976e+00    2.918495e+00
  1.956852e+00    2.798271e+00
  1.972727e+00    2.821141e+00
  1.988603e+00    2.803572e+00
  2.004479e+00    2.873299e+00
  2.020354e+00    2.705006e+00
  2.036230e+00    2.656917e+00
  2.052105e+00    2.739758e+00
  2.067981e+00    2.686409e+00
  2.083856e+00    2.711361e+00
  2.099732e+00    2.754333e+00
  2.115608e+00    2.614894e+00
  2.131483e+00    2.534114e+00
  2.147359e+00    2.688096e+00
  2.163234e+00    2.724712e+00
  2.179110e+00    2.732827e+00
  2.194985e+00    2.715667e+00
  2.210861e+00    2.745148e+00
  2.226737e+00    2.789725e+00
  2.242612e+00    2.769757e+00
  2.258488e+00    2.831258e+00
  2.274363e+00    2.820823e+00
  2.290239e+00    2.739887e+00
  2.306115e+00    2.787636e+00
  2.321990e+00    2.848012e+00
  2.337866e+00    2.746560e+00
  2.353741e+00    2.839273e+00
  2.369617e+00    2.813259e+00
  2.385492e+00    2.819905e+00
  2.401368e+00    2.848466e+00
  2.417244e+00    2.786043e+00
  2.433119e+00    2.749979e+00
  2.448995e+00    2.820914e+00
  2.464870e+00    2.799375e+00
  2.480746e+00    2.721109e+00
  2.496621e+00    2.752962e+00
  2.512497e+00    2.821730e+00
  2.528373e+00    2.837197e+00
  2.544248e+00    2.832648e+00
  2.560124e+00    2.828694e+00
  2.575999e+00    2.825007e+00
  2.591875e+00    2.885816e+00
  2.607750e+00    2.865090e+00
  2.623626e+00    2.852547e+00
  2.639502e+00    2.910076e+00
  2.655377e+00    2.888805e+00
  2.671253e+00    2.854402e+00
  2.687128e+00    2.854095e+00
  2.703004e+00    2.905367e+00
  2.718879e+00    2.795031e+00
  2.734755e+00    2.831776e+00
  2.750631e+00    2.859689e+00
  2.766506e+00    2.843778e+00
  2.782382e+00    2.817953e+00
  2.798257e+00    2.873791e+00
  2.814133e+00    2.846067e+00
  2.830008e+00    2.859294e+00
  2.845884e+00    2.869161e+00
  2.861760e+00    2.854150e+00
  2.877635e+00    2.811890e+00
  2.893511e+00    2.847872e+00
  2.909386e+00    2.840388e+00
  2.925262e+00    2.872677e+00
  2.941137e+00    2.878779e+00
  2.957013e+00    2.793351e+00
  2.972889e+00    2.880651e+00
  2.988764e+00    2.861532e+00
  3.004640e+00    2.853678e+00
  3.020515e+00    2.930196e+00
  3.036391e+00    2.842132e+00
  3.052266e+00    2.793746e+00
  3.068142e+00    2.862760e+00
  3.084018e+00    2.893756e+00
  3.099893e+00    2.908499e+00
  3.115769e+00    2.842505e+00
  3.131644e+00    2.930435e+00
  3.147520e+00    2.954340e+00
  3.163395e+00    2.949935e+00
  3.179271e+00    2.952420e+00
  3.195147e+00    2.851443e+00
  3.211022e+00    2.890737e+00
  3.226898e+00    2.837681e+00
  3.242773e+00    2.902900e+00
  3.258649e+00    2.905728e+00
  3.274525e+00    2.984770e+00
  3.290400e+00    2.943416e+00
  3.306276e+00    2.850026e+00
  3.322151e+00    2.900993e+00
  3.338027e+00    2.989299e+00
  3.353902e+00    2.929658e+00
  3.369778e+00    2.892482e+00
  3.385654e+00    2.881230e+00
  3.401529e+00    2.974675e+00
  3.417405e+00    2.993351e+00
  3.433280e+00    2.977797e+00
  3.449156e+00    2.951738e+00
  3.465031e+00    2.941533e+00
  3.480907e+00    2.908108e+00
  3.496783e+00    2.934144e+00
  3.512658e+00    2.897524e+00
  3.528534e+00    2.987098e+00
  3.544409e+00    2.972415e+00
  3.560285e+00    2.874552e+00
  3.576160e+00    2.901276e+00
  3.592036e+00    2.876251e+00
  3.607912e+00    2.929825e+00
  3.623787e+00    2.928125e+00
  3.639663e+00    2.967306e+00
  3.655538e+00    2.921259e+00
  3.671414e+00    2.934423e+00
  3.687289e+00    3.059567e+00
  3.703165e+00    2.903223e+00
  3.719041e+00    2.940775e+00
  3.734916e+00    3.068590e+00
  3.750792e+00    2.980169e+00
  3.766667e+00    3.004080e+00
  3.782543e+00    3.021050e+00
  3.798418e+00    3.046911e+00
  3.814294e+00    2.971789e+00
  3.830170e+00    2.959217e+00
  3.846045e+00    3.000760e+00
  3.861921e+00    3.003523e+00
  3.877796e+00    3.013670e+00
  3.893672e+00    3.008760e+00
  3.909547e+00    3.043815e+00
  3.925423e+00    2.957820e+00
  3.941299e+00    2.904799e+00
  3.957174e+00    2.978722e+00
  3.973050e+00    2.969138e+00
  3.988925e+00    3.009127e+00
  4.004801e+00    2.977399e+00
  4.020676e+00    3.013633e+00
  4.036552e+00    2.956300e+00
  4.052428e+00    2.971236e+00
  4.068303e+00    3.052357e+00
  4.084179e+00    3.045505e+00
  4.100054e+00    3.074967e+00
  4.115930e+00    3.071453e+00
  4.131806e+00    3.010170e+00
  4.147681e+00    3.076733e+00
  4.163557e+00    3.106005e+00
  4.179432e+00    3.077040e+00
  4.195308e+00    3.024334e+00
  4.211183e+00    2.991861e+00
  4.227059e+00    3.025061e+00
  4.242935e+00    3.108131e+00
  4.258810e+00    3.038451e+00
  4.274686e+00    2.978774e+00
  4.290561e+00    3.018828e+00
  4.306437e+00    3.020679e+00
  4.322312e+00    3.004442e+00
  4.338188e+00    3.019508e+00
  4.354064e+00    3.057015e+00
  4.369939e+00    3.055535e+00
  4.385815e+00    3.059387e+00
  4.401690e+00    3.038816e+00
  4.417566e+00    3.084656e+00
  4.433441e+00    3.126299e+00
  4.449317e+00    3.111301e+00
  4.465193e+00    3.095778e+00
  4.481068e+00    3.060260e+00
  4.496944e+00    3.015669e+00
  4.512819e+00    3.093064e+00
  4.528695e+00    3.150196e+00
  4.544570e+00    3.093168e+00
  4.560446e+00    3.017276e+00
  4.576322e+00    3.066464e+00
  4.592197e+00    3.072786e+00
  4.608073e+00    3.099612e+00
  4.623948e+00    3.089079e+00
  4.639824e+00    3.103620e+00
  4.655699e+00    3.092461e+00
  4.671575e+00    3.104541e+00
  4.687451e+00    3.109322e+00
  4.703326e+00    3.127928e+00
  4.719202e+00    3.058040e+00
  4.735077e+00    3.289893e+00
  4.750953e+00    3.184200e+00
  4.766828e+00    3.123526e+00
  4.782704e+00    3.129731e+00
  4.798580e+00    3.087876e+00
  4.814455e+00    3.081538e+00
  4.830331e+00    3.102960e+00
  4.846206e+00    3.121694e+00
  4.862082e+00    3.092913e+00
  4.877957e+00    3.080143e+00
  4.893833e+00    3.043131e+00
  4.909709e+00    3.025753e+00
  4.925584e+00    3.070935e+00
  4.941460e+00    3.090220e+00
  4.957335e+00    3.006425e+00
  4.973211e+00    3.100816e+00
  4.989086e+00    3.080819e+00
  5.004962e+00    3.079566e+00
  5.020838e+00    3.104913e+00
  5.036713e+00    3.194019e+00
  5.052589e+00    3.164582e+00
  5.068464e+00    3.049518e+00
  5.084340e+00    3.064847e+00
  5.100216e+00    3.131097e+00
  5.116091e+00    3.128610e+00
  5.131967e+00    3.069920e+00
  5.147842e+00    3.067670e+00
  5.163718e+00    3.059977e+00
  5.179593e+00    3.120862e+00
  5.195469e+00    3.113508e+00
  5.211345e+00    3.142025e+00
  5.227220e+00    3.094753e+00
  5.243096e+00    3.128638e+00
  5.258971e+00    3.154011e+00
  5.274847e+00    3.131432e+00
  5.290722e+00    3.108931e+00
  5.306598e+00    3.131221e+00
  5.322474e+00    3.109799e+00
  5.338349e+00    3.119015e+00
  5.354225e+00    3.214697e+00
  5.370100e+00    3.120564e+00
  5.385976e+00    3.077137e+00
  5.401851e+00    3.110206e+00
  5.417727e+00    3.121733e+00
  5.433603e+00    3.021862e+00
  5.449478e+00    3.090060e+00
  5.465354e+00    3.065837e+00
  5.481229e+00    3.097652e+00
  5.497105e+00    3.072155e+00
  5.512980e+00    3.107642e+00
  5.528856e+00    3.014697e+00
  5.544732e+00    3.047838e+00
  5.560607e+00    3.024463e+00
  5.576483e+00    3.007086e+00
  5.592358e+00    3.093366e+00
  5.608234e+00    3.025856e+00
  5.624109e+00    3.004337e+00
  5.639985e+00    3.106018e+00
  5.655861e+00    3.065491e+00
  5.671736e+00    3.029688e+00
  5.687612e+00    3.028872e+00
  5.703487e+00    3.021458e+00
  5.719363e+00    2.988739e+00
  5.735238e+00    3.036718e+00
  5.751114e+00    3.060129e+00
  5.766990e+00    3.037939e+00
  5.782865e+00    3.027630e+00
  5.798741e+00    3.070399e+00
  5.814616e+00    3.087539e+00
  5.830492e+00    3.004021e+00
  5.846367e+00    3.010139e+00
  5.862243e+00    3.049982e+00
  5.878119e+00    3.061270e+00
  5.893994e+00    3.091167e+00
  5.909870e+00    3.136938e+00
  5.925745e+00    3.057935e+00
  5.941621e+00    2.995883e+00
  5.957497e+00    2.934420e+00
  5.973372e+00    2.962960e+00
  5.989248e+00    2.986173e+00
  6.005123e+00    3.016532e+00
  6.020999e+00    3.023791e+00
  6.036874e+00    3.006186e+00
  6.052750e+00    3.019229e+00
  6.068626e+00    3.021604e+00
  6.084501e+00    3.009197e+00
  6.100377e+00    3.038074e+00
  6.116252e+00    3.091073e+00
  6.132128e+00    3.077807e+00
  6.148003e+00    3.066137e+00
  6.163879e+00    3.069647e+00
  6.179755e+00    3.082712e+00
  6.195630e+00    3.113644e+00
  6.211506e+00    3.073457e+00
  6.227381e+00    3.144814e+00
  6.243257e+00    3.109703e+00
  6.259132e+00    3.063910e+00
  6.275008e+00    2.988955e+00
  6.290884e+00    3.023199e+00
  6.306759e+00    2.993383e+00
  6.322635e+00    2.988548e+00
  6.338510e+00    3.064499e+00
  6.354386e+00    3.074070e+00
  6.370261e+00    3.098027e+00
  6.386137e+00    3.004026e+00
  6.402013e+00    2.969377e+00
  6.417888e+00    2.985491e+00
  6.433764e+00    3.068310e+00
  6.449639e+00    3.048056e+00
  6.465515e+00    3.042911e+00
  6.481390e+00    2.982040e+00
  6.497266e+00    3.019218e+00
  6.513142e+00    3.113210e+00
  6.529017e+00    3.100676e+00
  6.544893e+00    3.099588e+00
  6.560768e+00    3.060396e+00
  6.576644e+00    3.099813e+00
  6.592519e+00    2.996314e+00
  6.608395e+00    3.005522e+00
  6.624271e+00    3.055095e+00
  6.640146e+00    3.077713e+00
  6.656022e+00    3.061014e+00
  6.671897e+00    2.973089e+00
  6.687773e+00    2.997194e+00
  6.703648e+00    3.027032e+00
  6.719524e+00    3.105584e+00
  6.735400e+00    3.026002e+00
  6.751275e+00    2.990057e+00
  6.767151e+00    3.055871e+00
  6.783026e+00    3.033013e+00
  6.798902e+00    3.035310e+00
  6.814777e+00    3.034574e+00
  6.830653e+00    2.983409e+00
  6.846529e+00    2.951430e+00
  6.862404e+00    2.949792e+00
  6.878280e+00    2.964731e+00
  6.894155e+00    3.016345e+00
  6.910031e+00    2.996298e+00
  6.925907e+00    3.003153e+00
  6.941782e+00    2.982112e+00
  6.957658e+00    3.051731e+00
  6.973533e+00    2.978274e+00
  6.989409e+00    2.954120e+00
  7.005284e+00    2.997568e+00
  7.021160e+00    3.041700e+00
  7.037036e+00    2.992407e+00
  7.052911e+00    3.072704e+00
  7.068787e+00    3.078530e+00
  7.084662e+00    3.035575e+00
  7.100538e+00    3.001159e+00
  7.116413e+00    3.002986e+00
  7.132289e+00    3.016576e+00
  7.148165e+00    2.928136e+00
  7.164040e+00    2.963028e+00
  7.179916e+00    2.973369e+00
  7.195791e+00    2.969516e+00
  7.211667e+00    3.018356e+00
  7.227542e+00    3.019205e+00
  7.243418e+00    2.980215e+00
  7.259294e+00    2.952751e+00
  7.275169e+00    2.917778e+00
  7.291045e+00    2.939200e+00
  7.306920e+00    2.999810e+00
  7.322796e+00    2.980944e+00
  7.338671e+00    3.015815e+00
  7.354547e+00    3.010088e+00
  7.370423e+00    2.983463e+00
  7.386298e+00    2.960791e+00
  7.402174e+00    2.962049e+00
  7.418049e+00    2.998395e+00
  7.433925e+00    3.007185e+00
  7.449800e+00    2.974607e+00
  7.465676e+00    2.933169e+00
  7.481552e+00    2.931110e+00
  7.497427e+00    2.970352e+00
  7.513303e+00    2.973568e+00
  7.529178e+00    3.005724e+00
  7.545054e+00    2.941680e+00
  7.560929e+00    2.927495e+00
  7.576805e+00    2.943135e+00
  7.592681e+00    2.967604e+00
  7.608556e+00    2.916907e+00
  7.624432e+00    2.979003e+00
  7.640307e+00    2.978566e+00
  7.656183e+00    2.933920e+00
  7.672058e+00    2.959648e+00
  7.687934e+00    2.957101e+00
  7.703810e+00    2.968419e+00
  7.719685e+00    2.924684e+00
  7.735561e+00    2.971291e+00
  7.751436e+00    3.008464e+00
  7.767312e+00    2.975375e+00
  7.783187e+00    2.922163e+00
  7.799063e+00    2.918683e+00
  7.814939e+00    2.915488e+00
  7.830814e+00    2.878654e+00
  7.846690e+00    2.890668e+00
  7.862565e+00    2.927560e+00
  7.878441e+00    2.980465e+00
  7.894317e+00    2.995623e+00
  7.910192e+00    2.951450e+00
  7.926068e+00    2.909534e+00
  7.941943e+00    2.909281e+00
  7.957819e+00    2.889848e+00
  7.973694e+00    2.920125e+00
  7.989570e+00    2.911022e+00
  8.005446e+00    2.861388e+00
  8.021321e+00    2.865504e+00
  8.037197e+00    2.934052e+00
  8.053072e+00    2.962973e+00
  8.068948e+00    2.920335e+00
  8.084823e+00    2.935773e+00
  8.100699e+00    2.949328e+00
  8.116575e+00    2.945063e+00
  8.132450e+00    3.011544e+00
  8.148326e+00    2.970733e+00
  8.164201e+00    2.980002e+00
  8.180077e+00    2.974587e+00
  8.195952e+00    3.008138e+00
  8.211828e+00    2.992143e+00
  8.227704e+00    3.007414e+00
  8.243579e+00    2.965390e+00
  8.259455e+00    2.920627e+00
  8.275330e+00    2.998466e+00
  8.291206e+00    2.905261e+00
  8.307081e+00    2.887756e+00
  8.322957e+00    2.905245e+00
  8.338833e+00    2.864337e+00
  8.354708e+00    2.908050e+00
  8.370584e+00    2.975174e+00
  8.386459e+00    2.925350e+00
  8.402335e+00    2.918386e+00
  8.418210e+00    2.884345e+00
  8.434086e+00    2.907534e+00
  8.449962e+00    2.911758e+00
  8.465837e+00    2.833940e+00
  8.481713e+00    2.864077e+00
  8.497588e+00    2.876362e+00
  8.513464e+00    2.936069e+00
  8.529339e+00    2.899144e+00
  8.545215e+00    2.875176e+00
  8.561091e+00    2.918292e+00
  8.576966e+00    2.897597e+00
  8.592842e+00    2.849051e+00
  8.608717e+00    2.829740e+00
  8.624593e+00    2.810682e+00
  8.640468e+00    2.879855e+00
  8.656344e+00    2.876190e+00
  8.672220e+00    2.886396e+00
  8.688095e+00    2.878574e+00
  8.703971e+00    2.879128e+00
  8.719846e+00    2.811363e+00
  8.735722e+00    2.805331e+00
  8.751598e+00    2.865976e+00
  8.767473e+00    2.879352e+00
  8.783349e+00    2.857556e+00
  8.799224e+00    2.808517e+00
  8.815100e+00    2.820360e+00
  8.830975e+00    2.842728e+00
  8.846851e+00    2.833902e+00
  8.862727e+00    2.850446e+00
  8.878602e+00    2.869312e+00
  8.894478e+00    2.872615e+00
  8.910353e+00    2.864733e+00
  8.926229e+00    2.813835e+00
  8.942104e+00    2.795093e+00
  8.957980e+00    2.812859e+00
  8.973856e+00    2.817063e+00
  8.989731e+00    2.838504e+00
  9.005607e+00    2.811636e+00
  9.021482e+00    2.809713e+00
  9.037358e+00    2.808999e+00
  9.053233e+00    2.843139e+00
  9.069109e+00    2.861970e+00
  9.084985e+00    2.858532e+00
  9.100860e+00    2.854077e+00
  9.116736e+00    2.830678e+00
  9.132611e+00    2.835650e+00
  9.148487e+00    2.767823e+00
  9.164362e+00    2.735998e+00
  9.180238e+00    2.780230e+00
  9.196114e+00    2.797367e+00
  9.211989e+00    2.807369e+00
  9.227865e+00    2.742322e+00
  9.243740e+00    2.742382e+00
  9.259616e+00    2.757836e+00
  9.275491e+00    2.748082e+00
  9.291367e+00    2.789496e+00
  9.307243e+00    2.796669e+00
  9.323118e+00    2.799142e+00
  9.338994e+00    2.780220e+00
  9.354869e+00    2.751683e+00
  9.370745e+00    2.711219e+00
  9.386620e+00    2.746261e+00
  9.402496e+00    2.803685e+00
  9.418372e+00    2.787123e+00
  9.434247e+00    2.793095e+00
  9.450123e+00    2.809399e+00
  9.465998e+00    2.752859e+00
  9.481874e+00    2.796186e+00
  9.497749e+00    2.779247e+00
  9.513625e+00    2.744937e+00
  9.529501e+00    2.798379e+00
  9.545376e+00    2.807503e+00
  9.561252e+00    2.756690e+00
  9.577127e+00    2.760578e+00
  9.593003e+00    2.824074e+00
  9.608878e+00    2.748926e+00
  9.624754e+00    2.698378e+00
  9.640630e+00    2.708932e+00
  9.656505e+00    2.715280e+00
  9.672381e+00    2.772701e+00
  9.688256e+00    2.820291e+00
  9.704132e+00    2.790724e+00
  9.720008e+00    2.749186e+00
  9.735883e+00    2.689461e+00
  9.751759e+00    2.715277e+00
  9.767634e+00    2.724194e+00
  9.783510e+00    2.716683e+00
  9.799385e+00    2.736690e+00
  9.815261e+00    2.723939e+00
  9.831137e+00    2.684886e+00
  9.847012e+00    2.672961e+00
  9.862888e+00    2.723963e+00
  9.878763e+00    2.714309e+00
  9.894639e+00    2.664937e+00
  9.910514e+00    2.683110e+00
  9.926390e+00    2.704621e+00
  9.942266e+00    2.706120e+00
  9.958141e+00    2.687008e+00
  9.974017e+00    2.687531e+00
  9.989892e+00    2.612973e+00
  1.000577e+01    2.610307e+00
  1.002164e+01    2.697293e+00
  1.003752e+01    2.697989e+00
  1.005339e+01    2.672251e+00
  1.006927e+01    2.661775e+00
  1.008515e+01    2.667275e+00
  1.010102e+01    2.673162e+00
  1.011690e+01    2.655053e+00
  1.013277e+01    2.623198e+00
  1.014865e+01    2.603914e+00
  1.016452e+01    2.662608e+00
  1.018040e+01    2.613349e+00
  1.019627e+01    2.618600e+00
  1.021215e+01    2.684283e+00
  1.022803e+01    2.675759e+00
  1.024390e+01    2.655797e+00
  1.025978e+01    2.601123e+00
  1.027565e+01    2.607546e+00
  1.029153e+01    2.654070e+00
  1.030740e+01    2.617079e+00
  1.032328e+01    2.603453e+00
  1.033915e+01    2.645142e+00
  1.035503e+01    2.636519e+00
  1.037091e+01    2.628227e+00
  1.038678e+01    2.629286e+00
  1.040266e+01    2.600733e+00
  1.041853e+01    2.605416e+00
  1.043441e+01    2.614788e+00
  1.045028e+01    2.592280e+00
  1.046616e+01    2.536728e+00
  1.048204e+01    2.579974e+00
  1.049791e+01    2.625587e+00
  1.051379e+01    2.579366e+00
  1.052966e+01    2.550705e+00
  1.054554e+01    2.592776e+00
  1.056141e+01    2.603892e+00
  1.057729e+01    2.571863e+00
  1.059316e+01    2.567115e+00
  1.060904e+01    2.550915e+00
  1.062492e+01    2.562937e+00
  1.064079e+01    2.546836e+00
  1.065667e+01    2.469841e+00
  1.067254e+01    2.586302e+00
  1.068842e+01    2.635981e+00
  1.070429e+01    2.624090e+00
  1.072017e+01    2.657816e+00
  1.073604e+01    2.535720e+00
  1.075192e+01    2.492481e+00
  1.076780e+01    2.496510e+00
  1.078367e+01    2.551077e+00
  1.079955e+01    2.532850e+00
  1.081542e+01    2.515310e+00
  1.083130e+01    2.510044e+00
  1.084717e+01    2.540915e+00
  1.086305e+01    2.514511e+00
  1.087892e+01    2.447163e+00
  1.089480e+01    2.517829e+00
  1.091068e+01    2.519013e+00
  1.092655e+01    2.498891e+00
  1.094243e+01    2.515170e+00
  1.095830e+01    2.513556e+00
  1.097418e+01    2.473507e+00
  1.099005e+01    2.442587e+00
  1.100593e+01    2.484080e+00
  1.102180e+01    2.460940e+00
  1.103768e+01    2.464086e+00
  1.105356e+01    2.496964e+00
  1.106943e+01    2.480289e+00
  1.108531e+01    2.468027e+00
  1.110118e+01    2.519718e+00
  1.111706e+01    2.499571e+00
  1.113293e+01    2.494179e+00
  1.114881e+01    2.478741e+00
  1.116468e+01    2.453912e+00
  1.118056e+01    2.469744e+00
  1.119644e+01    2.476191e+00
  1.121231e+01    2.446455e+00
  1.122819e+01    2.402149e+00
  1.124406e+01    2.437046e+00
  1.125994e+01    2.447396e+00
  1.127581e+01    2.425066e+00
  1.129169e+01    2.400822e+00
  1.130756e+01    2.368135e+00
  1.132344e+01    2.464442e+00
  1.133932e+01    2.491176e+00
  1.135519e+01    2.490567e+00
  1.137107e+01    2.462696e+00
  1.138694e+01    2.408914e+00
  1.140282e+01    2.377907e+00
  1.141869e+01    2.385954e+00
  1.143457e+01    2.397533e+00
  1.145045e+01    2.403868e+00
  1.146632e+01    2.392303e+00
  1.148220e+01    2.371891e+00
  1.149807e+01    2.392358e+00
  1.151395e+01    2.393790e+00
  1.152982e+01    2.401822e+00
  1.154570e+01    2.356123e+00
  1.156157e+01    2.380590e+00
  1.157745e+01    2.377072e+00
  1.159333e+01    2.430024e+00
  1.160920e+01    2.417513e+00
  1.162508e+01    2.390754e+00
  1.164095e+01    2.384206e+00
  1.165683e+01    2.347579e+00
  1.167270e+01    2.318563e+00
  1.168858e+01    2.348449e+00
  1.170445e+01    2.383131e+00
  1.172033e+01    2.376147e+00
  1.173621e+01    2.399623e+00
  1.175208e+01    2.398235e+00
  1.176796e+01    2.400413e+00
  1.178383e+01    2.340972e+00
  1.179971e+01    2.366990e+00
  1.181558e+01    2.392571e+00
  1.183146e+01    2.400119e+00
  1.184733e+01    2.392938e+00
  1.186321e+01    2.351865e+00
  1.187909e+01    2.298182e+00
  1.189496e+01    2.287814e+00
  1.191084e+01    2.338397e+00
  1.192671e+01    2.313938e+00
  1.194259e+01    2.355892e+00
  1.195846e+01    2.371073e+00
  1.197434e+01    2.335412e+00
  1.199021e+01    2.306032e+00
  1.200609e+01    2.342578e+00
  1.202197e+01    2.308915e+00
  1.203784e+01    2.285288e+00
  1.205372e+01    2.304131e+00
  1.206959e+01    2.326720e+00
  1.208547e+01    2.331377e+00
  1.210134e+01    2.311636e+00
  1.211722e+01    2.320357e+00
  1.213309e+01    2.306000e+00
  1.214897e+01    2.290666e+00
  1.216485e+01    2.297867e+00
  1.218072e+01    2.321524e+00
  1.219660e+01    2.328681e+00
  1.221247e+01    2.313531e+00
  1.222835e+01    2.332716e+00
  1.224422e+01    2.293526e+00
  1.226010e+01    2.278862e+00
  1.227597e+01    2.284595e+00
  1.229185e+01    2.264587e+00
  1.230773e+01    2.328521e+00
  1.232360e+01    2.327603e+00
  1.233948e+01    2.359072e+00
  1.235535e+01    2.369167e+00
  1.237123e+01    2.338173e+00
  1.238710e+01    2.308891e+00
  1.240298e+01    2.330679e+00
  1.241886e+01    2.374144e+00
  1.243473e+01    2.417279e+00
  1.245061e+01    2.379938e+00
  1.246648e+01    2.358123e+00
  1.248236e+01    2.343673e+00
  1.249823e+01    2.315639e+00
  1.251411e+01    2.321358e+00
  1.252998e+01    2.333778e+00
  1.254586e+01    2.380687e+00
  1.256174e+01    2.397086e+00
  1.257761e+01    2.405941e+00
  1.259349e+01    2.426321e+00
  1.260936e+01    2.397456e+00
  1.262524e+01    2.384257e+00
  1.264111e+01    2.416808e+00
  1.265699e+01    2.419837e+00
  1.267286e+01    2.450238e+00
  1.268874e+01    2.483207e+00
  1.270462e+01    2.470833e+00
  1.272049e+01    2.493964e+00
  1.273637e+01    2.498766e+00
  1.275224e+01    2.505399e+00
  1.276812e+01    2.581180e+00
  1.278399e+01    2.667558e+00
  1.279987e+01    2.656316e+00
  1.281574e+01    2.703814e+00
  1.283162e+01    2.764452e+00
  1.284750e+01    2.851818e+00
  1.286337e+01    2.951403e+00
  1.287925e+01    3.009772e+00
  1.289512e+01    3.096613e+00
  1.291100e+01    3.288249e+00
  1.292687e+01    3.429897e+00
  1.294275e+01    3.648078e+00
  1.295862e+01    3.973372e+00
  1.297450e+01    4.245006e+00
  1.299038e+01    4.685679e+00
  1.300625e+01    5.240674e+00
  1.302213e+01    5.940847e+00
  1.303800e+01    6.875337e+00
  1.305388e+01    7.945904e+00
  1.306975e+01    9.213269e+00
  1.308563e+01    1.072355e+01
  1.310150e+01    1.218628e+01
  1.311738e+01    1.365666e+01
  1.313326e+01    1.492670e+01
  1.314913e+01    1.619046e+01
  1.316501e+01    1.753913e+01
  1.318088e+01    1.834346e+01
  1.319676e+01    1.879397e+01
  1.321263e+01    1.805243e+01
  1.322851e+01    1.643889e+01
  1.324438e+01    1.440670e+01
  1.326026e+01    1.211539e+01
  1.327614e+01    1.016647e+01
  1.329201e+01    8.492274e+00
  1.330789e+01    7.181117e+00
  1.332376e+01    6.246221e+00
  1.333964e+01    5.539230e+00
  1.335551e+01    4.907615e+00
  1.337139e+01    4.479900e+00
  1.338727e+01    4.087908e+00
  1.340314e+01    3.774580e+00
  1.341902e+01    3.533773e+00
  1.343489e+01    3.345986e+00
  1.345077e+01    3.204942e+00
  1.346664e+01    3.099566e+00
  1.348252e+01    2.961384e+00
  1.349839e+01    2.842147e+00
  1.351427e+01    2.784428e+00
  1.353015e+01    2.654691e+00
  1.354602e+01    2.594274e+00
  1.356190e+01    2.586016e+00
  1.357777e+01    2.553977e+00
  1.359365e+01    2.458000e+00
  1.360952e+01    2.408286e+00
  1.362540e+01    2.364517e+00
  1.364127e+01    2.360734e+00
  1.365715e+01    2.316670e+00
  1.367303e+01    2.337954e+00
  1.368890e+01    2.295204e+00
  1.370478e+01    2.290586e+00
  1.372065e+01    2.286866e+00
  1.373653e+01    2.229275e+00
  1.375240e+01    2.187481e+00
  1.376828e+01    2.197531e+00
  1.378415e+01    2.198911e+00
  1.380003e+01    2.194115e+00
  1.381591e+01    2.184655e+00
  1.383178e+01    2.152045e+00
  1.384766e+01    2.142571e+00
  1.386353e+01    2.118956e+00
  1.387941e+01    2.137106e+00
  1.389528e+01    2.094480e+00
  1.391116e+01    2.113212e+00
  1.392703e+01    2.113231e+00
  1.394291e+01    2.081772e+00
  1.395879e+01    2.130920e+00
  1.397466e+01    2.119004e+00
  1.399054e+01    2.109957e+00
  1.400641e+01    2.085341e+00
  1.402229e+01    2.065258e+00
  1.403816e+01    2.033943e+00
  1.405404e+01    2.025470e+00
  1.406991e+01    2.060540e+00
  1.408579e+01    1.982873e+00
  1.410167e+01    1.999270e+00
  1.411754e+01    2.009805e+00
  1.413342e+01    1.981991e+00
  1.414929e+01    2.004215e+00
  1.416517e+01    1.994789e+00
  1.418104e+01    1.980079e+00
  1.419692e+01    2.004748e+00
  1.421279e+01    2.022502e+00
  1.422867e+01    2.010223e+00
  1.424455e+01    2.030154e+00
  1.426042e+01    2.017667e+00
  1.427630e+01    1.958559e+00
  1.429217e+01    1.944786e+00
  1.430805e+01    1.956117e+00
  1.432392e+01    1.993650e+00
  1.433980e+01    1.967144e+00
  1.435568e+01    1.961837e+00
  1.437155e+01    1.957273e+00
  1.438743e+01    1.982993e+00
  1.440330e+01    1.935462e+00
  1.441918e+01    1.957382e+00
  1.443505e+01    1.968720e+00
  1.445093e+01    1.925408e+00
  1.446680e+01    1.904822e+00
  1.448268e+01    1.903744e+00
  1.449856e+01    1.947955e+00
  1.451443e+01    1.940480e+00
  1.453031e+01    1.943567e+00
  1.454618e+01    1.933074e+00
  1.456206e+01    1.906932e+00
  1.457793e+01    1.945593e+00
  1.459381e+01    1.918738e+00
  1.460968e+01    1.895431e+00
  1.462556e+01    1.901979e+00
  1.464144e+01    1.915484e+00
  1.465731e+01    1.905611e+00
  1.467319e+01    1.920779e+00
  1.468906e+01    1.903022e+00
  1.470494e+01    1.924661e+00
  1.472081e+01    1.924747e+00
  1.473669e+01    1.907492e+00
  1.475256e+01    1.935717e+00
  1.476844e+01    1.913050e+00
  1.478432e+01    1.893935e+00
  1.480019e+01    1.911505e+00
  1.481607e+01    1.925331e+00
  1.483194e+01    1.921752e+00
  1.484782e+01    1.928317e+00
  1.486369e+01    1.943471e+00
  1.487957e+01    1.943463e+00
  1.489544e+01    1.900358e+00
  1.491132e+01    1.916803e+00
  1.492720e+01    1.971702e+00
  1.494307e+01    2.042201e+00
  1.495895e+01    2.044288e+00
  1.497482e+01    2.036794e+00
  1.499070e+01    2.086159e+00
  1.500657e+01    2.175864e+00
  1.502245e+01    2.204272e+00
  1.503832e+01    2.246353e+00
  1.505420e+01    2.377135e+00
  1.507008e+01    2.459737e+00
  1.508595e+01    2.642682e+00
  1.510183e+01    2.824228e+00
  1.511770e+01    3.061602e+00
  1.513358e+01    3.296625e+00
  1.514945e+01    3.677032e+00
  1.516533e+01    4.084038e+00
  1.518120e+01    4.475537e+00
  1.519708e+01    4.891211e+00
  1.521296e+01    5.305617e+00
  1.522883e+01    5.601011e+00
  1.524471e+01    5.906586e+00
  1.526058e+01    6.194757e+00
  1.527646e+01    6.308732e+00
  1.529233e+01    6.267356e+00
  1.530821e+01    6.120997e+00
  1.532409e+01    5.690433e+00
  1.533996e+01    5.092899e+00
  1.535584e+01    4.435452e+00
  1.537171e+01    3.938426e+00
  1.538759e+01    3.522879e+00
  1.540346e+01    3.169090e+00
  1.541934e+01    2.876257e+00
  1.543521e+01    2.632988e+00
  1.545109e+01    2.478617e+00
  1.546697e+01    2.370902e+00
  1.548284e+01    2.299280e+00
  1.549872e+01    2.181777e+00
  1.551459e+01    2.120826e+00
  1.553047e+01    2.022890e+00
  1.554634e+01    1.960653e+00
  1.556222e+01    1.932636e+00
  1.557809e+01    1.906337e+00
  1.559397e+01    1.889819e+00
  1.560985e+01    1.871095e+00
  1.562572e+01    1.847583e+00
  1.564160e+01    1.820304e+00
  1.565747e+01    1.827575e+00
  1.567335e+01    1.769709e+00
  1.568922e+01    1.772148e+00
  1.570510e+01    1.741903e+00
  1.572097e+01    1.744220e+00
  1.573685e+01    1.765865e+00
  1.575273e+01    1.734893e+00
  1.576860e+01    1.723920e+00
  1.578448e+01    1.717849e+00
  1.580035e+01    1.699560e+00
  1.581623e+01    1.677863e+00
  1.583210e+01    1.677617e+00
  1.584798e+01    1.673592e+00
  1.586385e+01    1.615927e+00
  1.587973e+01    1.656930e+00
  1.589561e+01    1.636697e+00
  1.591148e+01    1.646402e+00
  1.592736e+01    1.648710e+00
  1.594323e+01    1.676769e+00
  1.595911e+01    1.658211e+00
  1.597498e+01    1.648411e+00
  1.599086e+01    1.598127e+00
  1.600673e+01    1.593190e+00
  1.602261e+01    1.612536e+00
  1.603849e+01    1.607222e+00
  1.605436e+01    1.581575e+00
  1.607024e+01    1.575596e+00
  1.608611e+01    1.605121e+00
  1.610199e+01    1.631060e+00
  1.611786e+01    1.574472e+00
  1.613374e+01    1.579249e+00
  1.614961e+01    1.586644e+00
  1.616549e+01    1.589463e+00
  1.618137e+01    1.550594e+00
  1.619724e+01    1.513636e+00
  1.621312e+01    1.547292e+00
  1.622899e+01    1.578567e+00
  1.624487e+01    1.585171e+00
  1.626074e+01    1.566813e+00
  1.627662e+01    1.548418e+00
  1.629250e+01    1.570312e+00
  1.630837e+01    1.554883e+00
  1.632425e+01    1.534080e+00
  1.634012e+01    1.540848e+00
  1.635600e+01    1.562575e+00
  1.637187e+01    1.537355e+00
  1.638775e+01    1.548228e+00
  1.640362e+01    1.548962e+00
  1.641950e+01    1.582640e+00
  1.643538e+01    1.569387e+00
  1.645125e+01    1.529861e+00
  1.646713e+01    1.527139e+00
  1.648300e+01    1.553651e+00
  1.649888e+01    1.509125e+00
  1.651475e+01    1.496287e+00
  1.653063e+01    1.538514e+00
  1.654650e+01    1.509348e+00
  1.656238e+01    1.498446e+00
  1.657826e+01    1.503220e+00
  1.659413e+01    1.505225e+00
  1.661001e+01    1.480674e+00
  1.662588e+01    1.500124e+00
  1.664176e+01    1.486635e+00
  1.665763e+01    1.488023e+00
  1.667351e+01    1.465480e+00
  1.668938e+01    1.474402e+00
  1.670526e+01    1.504815e+00
  1.672114e+01    1.466036e+00
  1.673701e+01    1.439113e+00
  1.675289e+01    1.471161e+00
  1.676876e+01    1.477570e+00
  1.678464e+01    1.471987e+00
  1.680051e+01    1.473187e+00
  1.681639e+01    1.447135e+00
  1.683226e+01    1.432143e+00
  1.684814e+01    1.467985e+00
  1.686402e+01    1.427367e+00
  1.687989e+01    1.433980e+00
  1.689577e+01    1.451327e+00
  1.691164e+01    1.452610e+00
  1.692752e+01    1.432769e+00
  1.694339e+01    1.451607e+00
  1.695927e+01    1.428443e+00
  1.697514e+01    1.405544e+00
  1.699102e+01    1.402787e+00
  1.700690e+01    1.398980e+00
  1.702277e+01    1.440839e+00
  1.703865e+01    1.419327e+00
  1.705452e+01    1.421950e+00
  1.707040e+01    1.425312e+00
  1.708627e+01    1.416058e+00
  1.710215e+01    1.417033e+00
  1.711802e+01    1.425336e+00
  1.713390e+01    1.429146e+00
  1.714978e+01    1.431685e+00
  1.716565e+01    1.458358e+00
  1.718153e+01    1.430775e+00
  1.719740e+01    1.402782e+00
  1.721328e+01    1.396805e+00
  1.722915e+01    1.429943e+00
  1.724503e+01    1.434584e+00
  1.726091e+01    1.401230e+00
  1.727678e+01    1.391713e+00
  1.729266e+01    1.380451e+00
  1.730853e+01    1.388294e+00
  1.732441e+01    1.400212e+00
  1.734028e+01    1.397575e+00
  1.735616e+01    1.375322e+00
  1.737203e+01    1.370062e+00
  1.738791e+01    1.376714e+00
  1.740379e+01    1.385515e+00
  1.741966e+01    1.404515e+00
  1.743554e+01    1.391461e+00
  1.745141e+01    1.377096e+00
  1.746729e+01    1.387157e+00
  1.748316e+01    1.354948e+00
  1.749904e+01    1.350365e+00
  1.751491e+01    1.373474e+00
  1.753079e+01    1.370844e+00
  1.754667e+01    1.363210e+00
  1.756254e+01    1.358751e+00
  1.757842e+01    1.367175e+00
  1.759429e+01    1.376079e+00
  1.761017e+01    1.373533e+00
  1.762604e+01    1.367763e+00
  1.764192e+01    1.331594e+00
  1.765779e+01    1.331331e+00
  1.767367e+01    1.361966e+00
  1.768955e+01    1.381828e+00
  1.770542e+01    1.354307e+00
  1.772130e+01    1.349766e+00
  1.773717e+01    1.337841e+00
  1.775305e+01    1.327954e+00
  1.776892e+01    1.355609e+00
  1.778480e+01    1.315482e+00
  1.780067e+01    1.321666e+00
  1.781655e+01    1.339750e+00
  1.783243e+01    1.319052e+00
  1.784830e+01    1.308304e+00
  1.786418e+01    1.307992e+00
  1.788005e+01    1.309650e+00
  1.789593e+01    1.333352e+00
  1.791180e+01    1.347160e+00
  1.792768e+01    1.327636e+00
  1.794355e+01    1.345106e+00
  1.795943e+01    1.306816e+00
  1.797531e+01    1.289024e+00
  1.799118e+01    1.312454e+00
  1.800706e+01    1.316020e+00
  1.802293e+01    1.322408e+00
  1.803881e+01    1.293216e+00
  1.805468e+01    1.295506e+00
  1.807056e+01    1.283919e+00
  1.808643e+01    1.283172e+00
  1.810231e+01    1.291387e+00
  1.811819e+01    1.307146e+00
  1.813406e+01    1.280155e+00
  1.814994e+01    1.298293e+00
  1.816581e+01    1.303627e+00
  1.818169e+01    1.311062e+00
  1.819756e+01    1.321417e+00
  1.821344e+01    1.280309e+00
  1.822932e+01    1.291828e+00
  1.824519e+01    1.299612e+00
  1.826107e+01    1.267940e+00
  1.827694e+01    1.289505e+00
  1.829282e+01    1.260292e+00
  1.830869e+01    1.262148e+00
  1.832457e+01    1.265781e+00
  1.834044e+01    1.260182e+00
  1.835632e+01    1.255661e+00
  1.837220e+01    1.244491e+00
  1.838807e+01    1.220243e+00
  1.840395e+01    1.248853e+00
  1.841982e+01    1.258044e+00
  1.843570e+01    1.254797e+00
  1.845157e+01    1.241526e+00
  1.846745e+01    1.262199e+00
  1.848332e+01    1.232206e+00
  1.849920e+01    1.202892e+00
  1.851508e+01    1.249626e+00
  1.853095e+01    1.272785e+00
  1.854683e+01    1.251070e+00
  1.856270e+01    1.216262e+00
  1.857858e+01    1.220701e+00
  1.859445e+01    1.252769e+00
  1.861033e+01    1.251720e+00
  1.862620e+01    1.252502e+00
  1.864208e+01    1.246944e+00
  1.865796e+01    1.246756e+00
  1.867383e+01    1.231895e+00
  1.868971e+01    1.250175e+00
  1.870558e+01    1.223552e+00
  1.872146e+01    1.247244e+00
  1.873733e+01    1.246132e+00
  1.875321e+01    1.237464e+00
  1.876908e+01    1.238768e+00
  1.878496e+01    1.237129e+00
  1.880084e+01    1.225105e+00
  1.881671e+01    1.224932e+00
  1.883259e+01    1.219916e+00
  1.884846e+01    1.227385e+00
  1.886434e+01    1.212545e+00
  1.888021e+01    1.199620e+00
  1.889609e+01    1.213651e+00
  1.891196e+01    1.209208e+00
  1.892784e+01    1.195766e+00
  1.894372e+01    1.233728e+00
  1.895959e+01    1.220428e+00
  1.897547e+01    1.195316e+00
  1.899134e+01    1.198352e+00
  1.900722e+01    1.188205e+00
  1.902309e+01    1.202374e+00
  1.903897e+01    1.224798e+00
  1.905484e+01    1.216795e+00
  1.907072e+01    1.198281e+00
  1.908660e+01    1.181870e+00
  1.910247e+01    1.172632e+00
  1.911835e+01    1.200392e+00
  1.913422e+01    1.210657e+00
  1.915010e+01    1.203886e+00
  1.916597e+01    1.191746e+00
  1.918185e+01    1.200724e+00
  1.919773e+01    1.189749e+00
  1.921360e+01    1.205889e+00
  1.922948e+01    1.194910e+00
  1.924535e+01    1.189440e+00
  1.926123e+01    1.177033e+00
  1.927710e+01    1.198633e+00
  1.929298e+01    1.197559e+00
  1.930885e+01    1.173658e+00
  1.932473e+01    1.175539e+00
  1.934061e+01    1.171210e+00
  1.935648e+01    1.128047e+00
  1.937236e+01    1.149865e+00
  1.938823e+01    1.187978e+00
  1.940411e+01    1.186035e+00
  1.941998e+01    1.176638e+00
  1.943586e+01    1.136772e+00
  1.945173e+01    1.146033e+00
  1.946761e+01    1.163639e+00
  1.948349e+01    1.148287e+00
  1.949936e+01    1.142152e+00
  1.951524e+01    1.155824e+00
  1.953111e+01    1.159583e+00
  1.954699e+01    1.159696e+00
  1.956286e+01    1.166709e+00
  1.957874e+01    1.137141e+00
  1.959461e+01    1.160102e+00
  1.961049e+01    1.177101e+00
  1.962637e+01    1.178677e+00
  1.964224e+01    1.170048e+00
  1.965812e+01    1.171770e+00
  1.967399e+01    1.159390e+00
  1.968987e+01    1.155690e+00
  1.970574e+01    1.154866e+00
  1.972162e+01    1.153018e+00
  1.973749e+01    1.149848e+00
  1.975337e+01    1.130637e+00
  1.976925e+01    1.133500e+00
  1.978512e+01    1.172284e+00
  1.980100e+01    1.163540e+00
  1.981687e+01    1.168481e+00
  1.983275e+01    1.167746e+00
  1.984862e+01    1.142695e+00
  1.986450e+01    1.126610e+00
  1.988037e+01    1.129454e+00
  1.989625e+01    1.138118e+00
  1.991213e+01    1.159106e+00
  1.992800e+01    1.146796e+00
  1.994388e+01    1.124344e+00
  1.995975e+01    1.142275e+00
  1.997563e+01    1.142371e+00
  1.999150e+01    1.109701e+00
  2.000738e+01    1.127098e+00
  2.002325e+01    1.119853e+00
  2.003913e+01    1.108657e+00
  2.005501e+01    1.105414e+00
  2.007088e+01    1.120931e+00
  2.008676e+01    1.091985e+00
  2.010263e+01    1.096611e+00
  2.011851e+01    1.117893e+00
  2.013438e+01    1.149184e+00
  2.015026e+01    1.110143e+00
  2.016614e+01    1.098013e+00
  2.018201e+01    1.137360e+00
  2.019789e+01    1.142546e+00
  2.021376e+01    1.107512e+00
  2.022964e+01    1.110475e+00
  2.024551e+01    1.120568e+00
  2.026139e+01    1.104302e+00
  2.027726e+01    1.091789e+00
  2.029314e+01    1.084352e+00
  2.030902e+01    1.093283e+00
  2.032489e+01    1.088463e+00
  2.034077e+01    1.085336e+00
  2.035664e+01    1.107791e+00
  2.037252e+01    1.105125e+00
  2.038839e+01    1.128849e+00
  2.040427e+01    1.097652e+00
  2.042014e+01    1.079779e+00
  2.043602e+01    1.105632e+00
  2.045190e+01    1.102482e+00
  2.046777e+01    1.120972e+00
  2.048365e+01    1.099757e+00
  2.049952e+01    1.081419e+00
  2.051540e+01    1.095842e+00
  2.053127e+01    1.110882e+00
  2.054715e+01    1.093541e+00
  2.056302e+01    1.086253e+00
  2.057890e+01    1.097159e+00
  2.059478e+01    1.080044e+00
  2.061065e+01    1.067592e+00
  2.062653e+01    1.089776e+00
  2.064240e+01    1.088009e+00
  2.065828e+01    1.098580e+00
  2.067415e+01    1.113232e+00
  2.069003e+01    1.097298e+00
  2.070590e+01    1.066836e+00
  2.072178e+01    1.050214e+00
  2.073766e+01    1.088034e+00
  2.075353e+01    1.092128e+00
  2.076941e+01    1.081266e+00
  2.078528e+01    1.078323e+00
  2.080116e+01    1.090635e+00
  2.081703e+01    1.103011e+00
  2.083291e+01    1.100265e+00
  2.084878e+01    1.077574e+00
  2.086466e+01    1.067836e+00
  2.088054e+01    1.066736e+00
  2.089641e+01    1.080232e+00
  2.091229e+01    1.083239e+00
  2.092816e+01    1.075432e+00
  2.094404e+01    1.068897e+00
  2.095991e+01    1.075772e+00
  2.097579e+01    1.089260e+00
  2.099166e+01    1.079212e+00
  2.100754e+01    1.081296e+00
  2.102342e+01    1.089269e+00
  2.103929e+01    1.109630e+00
  2.105517e+01    1.082695e+00
  2.107104e+01    1.100282e+00
  2.108692e+01    1.078459e+00
  2.110279e+01    1.093748e+00
  2.111867e+01    1.097306e+00
  2.113455e+01    1.089382e+00
  2.115042e+01    1.104875e+00
  2.116630e+01    1.099941e+00
  2.118217e+01    1.090841e+00
  2.119805e+01    1.111724e+00
  2.121392e+01    1.109762e+00
  2.122980e+01    1.114877e+00
  2.124567e+01    1.105339e+00
  2.126155e+01    1.112362e+00
  2.127743e+01    1.130493e+00
  2.129330e+01    1.117184e+00
  2.130918e+01    1.122029e+00
  2.132505e+01    1.138623e+00
  2.134093e+01    1.137969e+00
  2.135680e+01    1.167315e+00
  2.137268e+01    1.175498e+00
  2.138855e+01    1.161427e+00
  2.140443e+01    1.173099e+00
  2.142031e+01    1.207140e+00
  2.143618e+01    1.207807e+00
  2.145206e+01    1.233328e+00
  2.146793e+01    1.254274e+00
  2.148381e+01    1.263193e+00
  2.149968e+01    1.274161e+00
  2.151556e+01    1.297574e+00
  2.153143e+01    1.326205e+00
  2.154731e+01    1.345944e+00
  2.156319e+01    1.412249e+00
  2.157906e+01    1.471951e+00
  2.159494e+01    1.538520e+00
  2.161081e+01    1.601629e+00
  2.162669e+01    1.682238e+00
  2.164256e+01    1.750755e+00
  2.165844e+01    1.886677e+00
  2.167431e+01    2.021253e+00
  2.169019e+01    2.227899e+00
  2.170607e+01    2.434141e+00
  2.172194e+01    2.707074e+00
  2.173782e+01    2.992023e+00
  2.175369e+01    3.373477e+00
  2.176957e+01    3.917522e+00
  2.178544e+01    4.521142e+00
  2.180132e+01    5.144700e+00
  2.181719e+01    5.884341e+00
  2.183307e+01    6.631844e+00
  2.184895e+01    7.434761e+00
  2.186482e+01    8.337376e+00
  2.188070e+01    9.065844e+00
  2.189657e+01    9.764914e+00
  2.191245e+01    1.024791e+01
  2.192832e+01    1.025674e+01
  2.194420e+01    1.001929e+01
  2.196007e+01    9.252059e+00
  2.197595e+01    8.161922e+00
  2.199183e+01    7.061545e+00
  2.200770e+01    5.976296e+00
  2.202358e+01    5.040813e+00
  2.203945e+01    4.273925e+00
  2.205533e+01    3.672245e+00
  2.207120e+01    3.181550e+00
  2.208708e+01    2.836480e+00
  2.210296e+01    2.507281e+00
  2.211883e+01    2.269261e+00
  2.213471e+01    2.103229e+00
  2.215058e+01    1.927761e+00
  2.216646e+01    1.784839e+00
  2.218233e+01    1.673799e+00
  2.219821e+01    1.593035e+00
  2.221408e+01    1.514217e+00
  2.222996e+01    1.469911e+00
  2.224584e+01    1.397821e+00
  2.226171e+01    1.372834e+00
  2.227759e+01    1.326912e+00
  2.229346e+01    1.299294e+00
  2.230934e+01    1.228155e+00
  2.232521e+01    1.214631e+00
  2.234109e+01    1.213153e+00
  2.235696e+01    1.183205e+00
  2.237284e+01    1.170021e+00
  2.238872e+01    1.118117e+00
  2.240459e+01    1.111343e+00
  2.242047e+01    1.083474e+00
  2.243634e+01    1.091719e+00
  2.245222e+01    1.080334e+00
  2.246809e+01    1.085342e+00
  2.248397e+01    1.051068e+00
  2.249984e+01    1.036490e+00
  2.251572e+01    1.041779e+00
  2.253160e+01    1.029610e+00
  2.254747e+01    1.028482e+00
  2.256335e+01    1.024686e+00
  2.257922e+01    1.021108e+00
  2.259510e+01    9.957461e-01
  2.261097e+01    9.908750e-01
  2.262685e+01    1.007873e+00
  2.264272e+01    9.853162e-01
  2.265860e+01    9.688914e-01
  2.267448e+01    9.717315e-01
  2.269035e+01    9.744945e-01
  2.270623e+01    9.863658e-01
  2.272210e+01    9.656568e-01
  2.273798e+01    9.520118e-01
  2.275385e+01    9.408483e-01
  2.276973e+01    9.429066e-01
  2.278560e+01    9.150579e-01
  2.280148e+01    9.342996e-01
  2.281736e+01    9.365445e-01
  2.283323e+01    9.266915e-01
  2.284911e+01    9.343948e-01
  2.286498e+01    9.317804e-01
  2.288086e+01    9.255376e-01
  2.289673e+01    9.405409e-01
  2.291261e+01    9.055113e-01
  2.292848e+01    9.090706e-01
  2.294436e+01    9.092755e-01
  2.296024e+01    9.124157e-01
  2.297611e+01    9.062130e-01
  2.299199e+01    9.125075e-01
  2.300786e+01    9.076174e-01
  2.302374e+01    9.023970e-01
  2.303961e+01    8.918660e-01
  2.305549e+01    8.981500e-01
  2.307137e+01    8.897329e-01
  2.308724e+01    8.875573e-01
  2.310312e+01    8.926101e-01
  2.311899e+01    9.029094e-01
  2.313487e+01    8.841748e-01
  2.315074e+01    8.810523e-01
  2.316662e+01    8.756534e-01
  2.318249e+01    8.896371e-01
  2.319837e+01    8.907181e-01
  2.321425e+01    8.919691e-01
  2.323012e+01    8.806273e-01
  2.324600e+01    8.790964e-01
  2.326187e+01    8.809838e-01
  2.327775e+01    8.693413e-01
  2.329362e+01    8.782527e-01
  2.330950e+01    8.843250e-01
  2.332537e+01    8.674838e-01
  2.334125e+01    8.696998e-01
  2.335713e+01    8.460881e-01
  2.337300e+01    8.610322e-01
  2.338888e+01    8.706334e-01
  2.340475e+01    8.515330e-01
  2.342063e+01    8.336067e-01
  2.343650e+01    8.502632e-01
  2.345238e+01    8.498831e-01
  2.346825e+01    8.614305e-01
  2.348413e+01    8.615221e-01
  2.350001e+01    8.542013e-01
  2.351588e+01    8.380422e-01
  2.353176e+01    8.434629e-01
  2.354763e+01    8.471996e-01
  2.356351e+01    8.532864e-01
  2.357938e+01    8.521332e-01
  2.359526e+01    8.329307e-01
  2.361113e+01    8.414868e-01
  2.362701e+01    8.647618e-01
  2.364289e+01    8.497412e-01
  2.365876e+01    8.301428e-01
  2.367464e+01    8.230116e-01
  2.369051e+01    8.399106e-01
  2.370639e+01    8.526143e-01
  2.372226e+01    8.312081e-01
  2.373814e+01    8.162426e-01
  2.375401e+01    8.144842e-01
  2.376989e+01    8.311161e-01
  2.378577e+01    8.220671e-01
  2.380164e+01    8.109817e-01
  2.381752e+01    8.022965e-01
  2.383339e+01    7.997653e-01
  2.384927e+01    8.120784e-01
  2.386514e+01    8.279200e-01
  2.388102e+01    8.295715e-01
  2.389689e+01    8.173900e-01
  2.391277e+01    8.059857e-01
  2.392865e+01    8.103238e-01
  2.394452e+01    7.967315e-01
  2.396040e+01    7.967457e-01
  2.397627e+01    7.994721e-01
  2.399215e+01    7.998892e-01
  2.400802e+01    8.124014e-01
  2.402390e+01    8.073741e-01
  2.403978e+01    7.969671e-01
  2.405565e+01    7.861542e-01
  2.407153e+01    7.857807e-01
  2.408740e+01    7.966921e-01
  2.410328e+01    8.165246e-01
  2.411915e+01    7.820016e-01
  2.413503e+01    7.753471e-01
  2.415090e+01    7.884159e-01
  2.416678e+01    7.990090e-01
  2.418266e+01    7.784345e-01
  2.419853e+01    7.943817e-01
  2.421441e+01    8.018128e-01
  2.423028e+01    7.728933e-01
  2.424616e+01    7.896112e-01
  2.426203e+01    7.951323e-01
  2.427791e+01    7.974272e-01
  2.429378e+01    8.007143e-01
  2.430966e+01    7.949084e-01
  2.432554e+01    7.822876e-01
  2.434141e+01    8.047126e-01
  2.435729e+01    7.982924e-01
  2.437316e+01    7.780899e-01
  2.438904e+01    7.776319e-01
  2.440491e+01    7.910389e-01
  2.442079e+01    8.069035e-01
  2.443666e+01    7.935160e-01
  2.445254e+01    7.943014e-01
  2.446842e+01    7.827185e-01
  2.448429e+01    7.964575e-01
  2.450017e+01    8.203126e-01
  2.451604e+01    8.028405e-01
  2.453192e+01    7.847330e-01
  2.454779e+01    7.921328e-01
  2.456367e+01    7.866137e-01
  2.457954e+01    7.857835e-01
  2.459542e+01    7.876849e-01
  2.461130e+01    8.002923e-01
  2.462717e+01    8.126574e-01
  2.464305e+01    8.186203e-01
  2.465892e+01    7.987490e-01
  2.467480e+01    7.968366e-01
  2.469067e+01    8.104665e-01
  2.470655e+01    8.122931e-01
  2.472242e+01    7.896530e-01
  2.473830e+01    7.803566e-01
  2.475418e+01    7.872378e-01
  2.477005e+01    8.029445e-01
  2.478593e+01    7.997825e-01
  2.480180e+01    7.957551e-01
  2.481768e+01    7.963997e-01
  2.483355e+01    8.163919e-01
  2.484943e+01    7.932110e-01
  2.486530e+01    7.987918e-01
  2.488118e+01    7.905551e-01
  2.489706e+01    7.965492e-01
  2.491293e+01    7.975738e-01
  2.492881e+01    8.028225e-01
  2.494468e+01    8.092883e-01
  2.496056e+01    8.281003e-01
  2.497643e+01    8.138911e-01
  2.499231e+01    8.150237e-01
  2.500819e+01    8.077636e-01
  2.502406e+01    8.064106e-01
  2.503994e+01    8.159220e-01
  2.505581e+01    8.149156e-01
  2.507169e+01    8.105776e-01
  2.508756e+01    8.139540e-01
  2.510344e+01    8.204318e-01
  2.511931e+01    8.179029e-01
  2.513519e+01    8.197780e-01
  2.515107e+01    8.136578e-01
  2.516694e+01    8.279801e-01
  2.518282e+01    8.461865e-01
  2.519869e+01    8.574861e-01
  2.521457e+01    8.412147e-01
  2.523044e+01    8.392085e-01
  2.524632e+01    8.437792e-01
  2.526219e+01    8.479667e-01
  2.527807e+01    8.582135e-01
  2.529395e+01    8.770401e-01
  2.530982e+01    8.639193e-01
  2.532570e+01    8.777021e-01
  2.534157e+01    8.932478e-01
  2.535745e+01    9.032708e-01
  2.537332e+01    8.830537e-01
  2.538920e+01    8.940195e-01
  2.540507e+01    9.205344e-01
  2.542095e+01    9.231876e-01
  2.543683e+01    9.350239e-01
  2.545270e+01    9.425253e-01
  2.546858e+01    9.423912e-01
  2.548445e+01    9.564694e-01
  2.550033e+01    9.660938e-01
  2.551620e+01    9.745132e-01
  2.553208e+01    1.005496e+00
  2.554795e+01    1.037195e+00
  2.556383e+01    1.051868e+00
  2.557971e+01    1.076342e+00
  2.559558e+01    1.116989e+00
  2.561146e+01    1.130130e+00
  2.562733e+01    1.161183e+00
  2.564321e+01    1.178031e+00
  2.565908e+01    1.229464e+00
  2.567496e+01    1.309101e+00
  2.569083e+01    1.367247e+00
  2.570671e+01    1.432363e+00
  2.572259e+01    1.497562e+00
  2.573846e+01    1.626696e+00
  2.575434e+01    1.767183e+00
  2.577021e+01    1.911761e+00
  2.578609e+01    2.144656e+00
  2.580196e+01    2.379140e+00
  2.581784e+01    2.662933e+00
  2.583371e+01    3.061011e+00
  2.584959e+01    3.441273e+00
  2.586547e+01    3.986645e+00
  2.588134e+01    4.573488e+00
  2.589722e+01    5.212651e+00
  2.591309e+01    5.962821e+00
  2.592897e+01    6.660226e+00
  2.594484e+01    7.410134e+00
  2.596072e+01    7.959294e+00
  2.597660e+01    8.391437e+00
  2.599247e+01    8.566353e+00
  2.600835e+01    8.371890e+00
  2.602422e+01    7.796468e+00
  2.604010e+01    7.070047e+00
  2.605597e+01    6.247761e+00
  2.607185e+01    5.384431e+00
  2.608772e+01    4.655934e+00
  2.610360e+01    3.917779e+00
  2.611948e+01    3.359442e+00
  2.613535e+01    2.946879e+00
  2.615123e+01    2.596174e+00
  2.616710e+01    2.291047e+00
  2.618298e+01    2.029087e+00
  2.619885e+01    1.849017e+00
  2.621473e+01    1.705838e+00
  2.623060e+01    1.608759e+00
  2.624648e+01    1.519517e+00
  2.626236e+01    1.426228e+00
  2.627823e+01    1.371907e+00
  2.629411e+01    1.288759e+00
  2.630998e+01    1.231939e+00
  2.632586e+01    1.186229e+00
  2.634173e+01    1.168458e+00
  2.635761e+01    1.135354e+00
  2.637348e+01    1.118428e+00
  2.638936e+01    1.082528e+00
  2.640524e+01    1.040233e+00
  2.642111e+01    1.026448e+00
  2.643699e+01    1.012173e+00
  2.645286e+01    9.979468e-01
  2.646874e+01    9.908165e-01
  2.648461e+01    9.676574e-01
  2.650049e+01    9.738866e-01
  2.651636e+01    9.764517e-01
  2.653224e+01    9.725093e-01
  2.654812e+01    9.655076e-01
  2.656399e+01    9.609974e-01
  2.657987e+01    9.346173e-01
  2.659574e+01    9.237946e-01
  2.661162e+01    9.256095e-01
  2.662749e+01    9.398810e-01
  2.664337e+01    9.273318e-01
  2.665924e+01    9.232962e-01
  2.667512e+01    9.113202e-01
  2.669100e+01    9.078465e-01
  2.670687e+01    9.051567e-01
  2.672275e+01    8.757849e-01
  2.673862e+01    8.953990e-01
  2.675450e+01    8.989605e-01
  2.677037e+01    9.079260e-01
  2.678625e+01    9.165151e-01
  2.680212e+01    9.104106e-01
  2.681800e+01    9.078283e-01
  2.683388e+01    9.153095e-01
  2.684975e+01    9.012379e-01
  2.686563e+01    9.253879e-01
  2.688150e+01    9.130243e-01
  2.689738e+01    9.318364e-01
  2.691325e+01    9.393055e-01
  2.692913e+01    9.493234e-01
  2.694501e+01    9.558194e-01
  2.696088e+01    9.568747e-01
  2.697676e+01    9.610676e-01
  2.699263e+01    9.893076e-01
  2.700851e+01    1.013072e+00
  2.702438e+01    1.029179e+00
  2.704026e+01    1.060883e+00
  2.705613e+01    1.134652e+00
  2.707201e+01    1.201807e+00
  2.708789e+01    1.244569e+00
  2.710376e+01    1.319075e+00
  2.711964e+01    1.399130e+00
  2.713551e+01    1.534129e+00
  2.715139e+01    1.665621e+00
  2.716726e+01    1.809786e+00
  2.718314e+01    1.963466e+00
  2.719901e+01    2.124241e+00
  2.721489e+01    2.304113e+00
  2.723077e+01    2.397686e+00
  2.724664e+01    2.451807e+00
  2.726252e+01    2.463120e+00
  2.727839e+01    2.390275e+00
  2.729427e+01    2.207328e+00
  2.731014e+01    2.046160e+00
  2.732602e+01    1.865861e+00
  2.734189e+01    1.695739e+00
  2.735777e+01    1.553885e+00
  2.737365e+01    1.428111e+00
  2.738952e+01    1.317432e+00
  2.740540e+01    1.224384e+00
  2.742127e+01    1.176297e+00
  2.743715e+01    1.123867e+00
  2.745302e+01    1.064964e+00
  2.746890e+01    1.023448e+00
  2.748477e+01    9.932181e-01
  2.750065e+01    9.761614e-01
  2.751653e+01    9.345818e-01
  2.753240e+01    9.387937e-01
  2.754828e+01    9.388945e-01
  2.756415e+01    9.219375e-01
  2.758003e+01    8.830975e-01
  2.759590e+01    8.900339e-01
  2.761178e+01    8.833315e-01
  2.762765e+01    8.458335e-01
  2.764353e+01    8.369137e-01
  2.765941e+01    8.771897e-01
  2.767528e+01    8.809947e-01
  2.769116e+01    8.444972e-01
  2.770703e+01    8.394672e-01
  2.772291e+01    8.499621e-01
  2.773878e+01    8.407776e-01
  2.775466e+01    8.240646e-01
  2.777054e+01    8.299105e-01
  2.778641e+01    8.239342e-01
  2.780229e+01    8.460000e-01
  2.781816e+01    8.608491e-01
  2.783404e+01    8.329439e-01
  2.784991e+01    8.181626e-01
  2.786579e+01    8.137203e-01
  2.788166e+01    8.059133e-01
  2.789754e+01    7.879453e-01
  2.791342e+01    7.992723e-01
  2.792929e+01    8.236433e-01
  2.794517e+01    8.012294e-01
  2.796104e+01    8.293262e-01
  2.797692e+01    8.236256e-01
  2.799279e+01    8.048839e-01
  2.800867e+01    7.995875e-01
  2.802454e+01    7.896113e-01
  2.804042e+01    8.030969e-01
  2.805630e+01    7.969144e-01
  2.807217e+01    7.716778e-01
  2.808805e+01    7.886054e-01
  2.810392e+01    7.750093e-01
  2.811980e+01    7.832652e-01
  2.813567e+01    7.913461e-01
  2.815155e+01    7.904373e-01
  2.816742e+01    7.879995e-01
  2.818330e+01    7.948746e-01
  2.819918e+01    7.973832e-01
  2.821505e+01    7.956744e-01
  2.823093e+01    7.691000e-01
  2.824680e+01    7.881547e-01
  2.826268e+01    8.028173e-01
  2.827855e+01    7.913792e-01
  2.829443e+01    7.759977e-01
  2.831030e+01    7.700841e-01
  2.832618e+01    7.783449e-01
  2.834206e+01    7.729357e-01
  2.835793e+01    7.428209e-01
  2.837381e+01    7.623535e-01
  2.838968e+01    7.675666e-01
  2.840556e+01    7.724849e-01
  2.842143e+01    7.713518e-01
  2.843731e+01    7.664303e-01
  2.845318e+01    7.811182e-01
  2.846906e+01    7.700729e-01
  2.848494e+01    7.668627e-01
  2.850081e+01    7.527209e-01
  2.851669e+01    7.678733e-01
  2.853256e+01    7.614062e-01
  2.854844e+01    7.591561e-01
  2.856431e+01    7.721537e-01
  2.858019e+01    7.634715e-01
  2.859606e+01    7.489969e-01
  2.861194e+01    7.758776e-01
  2.862782e+01    7.800443e-01
  2.864369e+01    7.526867e-01
  2.865957e+01    7.640980e-01
  2.867544e+01    7.602148e-01
  2.869132e+01    7.684063e-01
  2.870719e+01    7.576597e-01
  2.872307e+01    7.586525e-01
  2.873895e+01    7.541316e-01
  2.875482e+01    7.398621e-01
  2.877070e+01    7.448396e-01
  2.878657e+01    7.637300e-01
  2.880245e+01    7.493385e-01
  2.881832e+01    7.447546e-01
  2.883420e+01    7.623380e-01
  2.885007e+01    7.744600e-01
  2.886595e+01    7.647758e-01
  2.888183e+01    7.481146e-01
  2.889770e+01    7.559274e-01
  2.891358e+01    7.588484e-01
  2.892945e+01    7.662411e-01
  2.894533e+01    7.624196e-01
  2.896120e+01    7.451794e-01
  2.897708e+01    7.419079e-01
  2.899295e+01    7.468317e-01
  2.900883e+01    7.379087e-01
  2.902471e+01    7.690573e-01
  2.904058e+01    7.446035e-01
  2.905646e+01    7.470979e-01
  2.907233e+01    7.534207e-01
  2.908821e+01    7.395687e-01
  2.910408e+01    7.426085e-01
  2.911996e+01    7.472301e-01
  2.913583e+01    7.403418e-01
  2.915171e+01    7.442863e-01
  2.916759e+01    7.363708e-01
  2.918346e+01    7.344078e-01
  2.919934e+01    7.483859e-01
  2.921521e+01    7.521595e-01
  2.923109e+01    7.379929e-01
  2.924696e+01    7.351024e-01
  2.926284e+01    7.460158e-01
  2.927871e+01    7.320036e-01
  2.929459e+01    7.352464e-01
  2.931047e+01    7.367660e-01
  2.932634e+01    7.329056e-01
  2.934222e+01    7.203344e-01
  2.935809e+01    7.291912e-01
  2.937397e+01    7.253426e-01
  2.938984e+01    7.181686e-01
  2.940572e+01    7.404279e-01
  2.942159e+01    7.467780e-01
  2.943747e+01    7.317379e-01
  2.945335e+01    7.369487e-01
  2.946922e+01    7.343667e-01
  2.948510e+01    7.330695e-01
  2.950097e+01    7.446843e-01
  2.951685e+01    7.465115e-01
  2.953272e+01    7.293577e-01
  2.954860e+01    7.214971e-01
  2.956447e+01    7.289897e-01
  2.958035e+01    7.466009e-01
  2.959623e+01    7.216972e-01
  2.961210e+01    7.499557e-01
  2.962798e+01    7.481558e-01
  2.964385e+01    7.326885e-01
  2.965973e+01    7.236031e-01
  2.967560e+01    7.349559e-01
  2.969148e+01    7.157661e-01
  2.970736e+01    7.287291e-01
  2.972323e+01    7.288496e-01
  2.973911e+01    7.146609e-01
  2.975498e+01    7.136524e-01
  2.977086e+01    7.078024e-01
  2.978673e+01    7.324517e-01
  2.980261e+01    7.230499e-01
  2.981848e+01    7.331501e-01
  2.983436e+01    7.347701e-01
  2.985024e+01    7.450260e-01
  2.986611e+01    7.302019e-01
  2.988199e+01    7.130495e-01
  2.989786e+01    7.123880e-01
  2.991374e+01    7.175285e-01
  2.992961e+01    7.278513e-01
  2.994549e+01    7.200018e-01
  2.996136e+01    7.175624e-01
  2.997724e+01    7.213543e-01
  2.999312e+01    7.295594e-01
  3.000899e+01    7.424562e-01
  3.002487e+01    7.332780e-01
  3.004074e+01    7.446955e-01
  3.005662e+01    7.450017e-01
  3.007249e+01    7.406932e-01
  3.008837e+01    7.332858e-01
  3.010424e+01    7.555060e-01
  3.012012e+01    7.415608e-01
  3.013600e+01    7.258756e-01
  3.015187e+01    7.189372e-01
  3.016775e+01    7.315786e-01
  3.018362e+01    7.273810e-01
  3.019950e+01    7.178189e-01
  3.021537e+01    7.233969e-01
  3.023125e+01    6.968614e-01
  3.024712e+01    7.342539e-01
  3.026300e+01    7.247388e-01
  3.027888e+01    7.127206e-01
  3.029475e+01    7.334358e-01
  3.031063e+01    7.200038e-01
  3.032650e+01    7.175435e-01
  3.034238e+01    7.293002e-01
  3.035825e+01    7.131410e-01
  3.037413e+01    7.421572e-01
  3.039000e+01    7.243464e-01
  3.040588e+01    7.133723e-01
  3.042176e+01    7.106148e-01
  3.043763e+01    7.155570e-01
  3.045351e+01    7.178023e-01
  3.046938e+01    7.171427e-01
  3.048526e+01    7.368214e-01
  3.050113e+01    7.310013e-01
  3.051701e+01    7.048583e-01
  3.053288e+01    7.047772e-01
  3.054876e+01    7.141768e-01
  3.056464e+01    7.252967e-01
  3.058051e+01    7.133929e-01
  3.059639e+01    7.153097e-01
  3.061226e+01    7.045378e-01
  3.062814e+01    6.987396e-01
  3.064401e+01    7.115023e-01
  3.065989e+01    7.060663e-01
  3.067577e+01    7.167322e-01
  3.069164e+01    7.194323e-01
  3.070752e+01    7.242802e-01
  3.072339e+01    7.272357e-01
  3.073927e+01    7.222853e-01
  3.075514e+01    7.268840e-01
  3.077102e+01    7.210719e-01
  3.078689e+01    7.236526e-01
  3.080277e+01    7.122443e-01
  3.081865e+01    7.000435e-01
  3.083452e+01    7.188107e-01
  3.085040e+01    7.266546e-01
  3.086627e+01    7.158745e-01
  3.088215e+01    7.429010e-01
  3.089802e+01    7.236336e-01
  3.091390e+01    7.048550e-01
  3.092977e+01    6.965994e-01
  3.094565e+01    7.016836e-01
  3.096153e+01    7.156054e-01
  3.097740e+01    6.963102e-01
  3.099328e+01    7.065588e-01
  3.100915e+01    7.323120e-01
  3.102503e+01    7.301059e-01
  3.104090e+01    7.177187e-01
  3.105678e+01    7.159117e-01
  3.107265e+01    7.152786e-01
  3.108853e+01    7.229746e-01
  3.110441e+01    7.227899e-01
  3.112028e+01    7.252520e-01
  3.113616e+01    7.246278e-01
  3.115203e+01    7.261910e-01
  3.116791e+01    7.213036e-01
  3.118378e+01    7.299954e-01
  3.119966e+01    7.140703e-01
  3.121553e+01    7.207683e-01
  3.123141e+01    7.351832e-01
  3.124729e+01    7.539908e-01
  3.126316e+01    7.629641e-01
  3.127904e+01    7.640552e-01
  3.129491e+01    7.332283e-01
  3.131079e+01    7.321001e-01
  3.132666e+01    7.598786e-01
  3.134254e+01    7.432892e-01
  3.135841e+01    7.353855e-01
  3.137429e+01    7.683440e-01
  3.139017e+01    7.500231e-01
  3.140604e+01    7.435946e-01
  3.142192e+01    7.530965e-01
  3.143779e+01    7.456573e-01
  3.145367e+01    7.629312e-01
  3.146954e+01    7.338439e-01
  3.148542e+01    7.617198e-01
  3.150129e+01    7.839491e-01
  3.151717e+01    7.656713e-01
  3.153305e+01    7.572849e-01
  3.154892e+01    7.792195e-01
  3.156480e+01    8.014478e-01
  3.158067e+01    8.361973e-01
  3.159655e+01    8.148389e-01
  3.161242e+01    8.311765e-01
  3.162830e+01    8.388167e-01
  3.164418e+01    8.452649e-01
  3.166005e+01    8.626701e-01
  3.167593e+01    8.891074e-01
  3.169180e+01    9.073725e-01
  3.170768e+01    9.216797e-01
  3.172355e+01    9.477857e-01
  3.173943e+01    9.871932e-01
  3.175530e+01    1.040067e+00
  3.177118e+01    1.104342e+00
  3.178706e+01    1.192176e+00
  3.180293e+01    1.267613e+00
  3.181881e+01    1.382231e+00
  3.183468e+01    1.485469e+00
  3.185056e+01    1.610045e+00
  3.186643e+01    1.806233e+00
  3.188231e+01    1.985199e+00
  3.189818e+01    2.189586e+00
  3.191406e+01    2.316390e+00
  3.192994e+01    2.413163e+00
  3.194581e+01    2.450627e+00
  3.196169e+01    2.405277e+00
  3.197756e+01    2.335553e+00
  3.199344e+01    2.187718e+00
  3.200931e+01    2.007008e+00
  3.202519e+01    1.826820e+00
  3.204106e+01    1.652507e+00
  3.205694e+01    1.471917e+00
  3.207282e+01    1.333213e+00
  3.208869e+01    1.214840e+00
  3.210457e+01    1.163303e+00
  3.212044e+01    1.087812e+00
  3.213632e+01    1.008348e+00
  3.215219e+01    9.931505e-01
  3.216807e+01    9.461411e-01
  3.218394e+01    9.046465e-01
  3.219982e+01    8.787920e-01
  3.221570e+01    8.606318e-01
  3.223157e+01    8.428357e-01
  3.224745e+01    8.459182e-01
  3.226332e+01    8.148241e-01
  3.227920e+01    8.131685e-01
  3.229507e+01    7.913138e-01
  3.231095e+01    7.671215e-01
  3.232682e+01    7.757965e-01
  3.234270e+01    7.658305e-01
  3.235858e+01    7.560614e-01
  3.237445e+01    7.818561e-01
  3.239033e+01    7.615693e-01
  3.240620e+01    7.406229e-01
  3.242208e+01    7.520550e-01
  3.243795e+01    7.592421e-01
  3.245383e+01    7.448454e-01
  3.246970e+01    7.622938e-01
  3.248558e+01    7.384780e-01
  3.250146e+01    7.353249e-01
  3.251733e+01    7.334676e-01
  3.253321e+01    7.529924e-01
  3.254908e+01    7.473478e-01
