# == pyFAI calibration ==
# Distance Sample to Detector: 0.3999999939076516 m
# PONI: 9.750e-02, 1.135e-01 m
# Rotations: -0.000175 0.000000 -0.000000 rad
# 
# == Fit2d calibration ==
# Distance Sample-beamCenter: 400.000 mm
# Center: x=1514.000, y=1300.000 pix
# Tilt: 0.010 deg  TiltPlanRot: 0.010 deg
# 
# Detector Detector	 Spline= None	 PixelSize= 7.500e-05, 7.500e-05 m
#    Detector has a mask: False 
#    Detector has a dark current: False 
#    detector has a flat field: False 
# 
# Wavelength: 6.888e-11 m
# Mask applied: user provided
# Dark current applied: False
# Flat field applied: False
# Polarization factor: 0.99
# Normalization factor: 1.0
# --> /home/myspot/data/2024_07_Rosario/Ru-CGO-ex/2024-07-27_002_Ru-CGO-ex_Activtation_ramp_000002_data_000036.dat
#       q_nm^-1             I 
  2.003187e-02    2.227120e-02
  3.590745e-02    9.188656e-02
  5.178302e-02    1.910478e-02
  6.765859e-02    0.000000e+00
  8.353417e-02    4.263481e-02
  9.940974e-02    3.797638e-02
  1.152853e-01    8.816607e-02
  1.311609e-01    6.581067e-02
  1.470365e-01    1.301270e-02
  1.629120e-01    3.828169e-03
  1.787876e-01    4.651158e-02
  1.946632e-01    6.054416e-02
  2.105388e-01    3.194382e-02
  2.264143e-01    3.462684e-02
  2.422899e-01    5.094741e-02
  2.581655e-01    1.937588e-02
  2.740411e-01    2.907018e-02
  2.899166e-01    1.317771e-02
  3.057922e-01    2.493756e-02
  3.216678e-01    1.249196e-02
  3.375433e-01    1.248510e-02
  3.534189e-01    3.326982e-02
  3.692945e-01    6.306836e-02
  3.851701e-01    6.610882e-02
  4.010456e-01    4.049991e-02
  4.169212e-01    2.493323e-02
  4.327968e-01    3.642444e-02
  4.486724e-01    2.641581e-02
  4.645479e-01    2.659130e-02
  4.804235e-01    4.551521e-02
  4.962991e-01    6.084725e-02
  5.121747e-01    5.722612e-02
  5.280502e-01    3.176778e-02
  5.439258e-01    3.921396e-02
  5.598014e-01    2.704302e-02
  5.756770e-01    4.697309e-02
  5.915525e-01    4.265034e-02
  6.074281e-01    2.429009e-02
  6.233037e-01    7.505245e-03
  6.391793e-01    2.813324e-02
  6.550548e-01    2.583140e-02
  6.709304e-01    3.648144e-02
  6.868060e-01    5.395314e-02
  7.026815e-01    3.578075e-02
  7.185571e-01    3.837467e-02
  7.344327e-01    4.023039e-02
  7.503083e-01    3.705114e-02
  7.661838e-01    6.882010e-02
  7.820594e-01    1.320948e-01
  7.979350e-01    1.968742e-01
  8.138106e-01    2.052367e-01
  8.296861e-01    2.349339e-01
  8.455617e-01    2.405550e-01
  8.614373e-01    3.543489e-01
  8.773129e-01    4.430301e-01
  8.931884e-01    5.444035e-01
  9.090640e-01    6.316947e-01
  9.249396e-01    6.833309e-01
  9.408152e-01    7.799877e-01
  9.566907e-01    8.597425e-01
  9.725663e-01    8.449029e-01
  9.884419e-01    8.395619e-01
  1.004317e+00    9.778429e-01
  1.020193e+00    1.129411e+00
  1.036069e+00    1.196375e+00
  1.051944e+00    1.310677e+00
  1.067820e+00    1.301627e+00
  1.083695e+00    1.242936e+00
  1.099571e+00    1.393881e+00
  1.115446e+00    1.433538e+00
  1.131322e+00    1.524587e+00
  1.147198e+00    1.504382e+00
  1.163073e+00    1.469811e+00
  1.178949e+00    1.510467e+00
  1.194824e+00    1.652322e+00
  1.210700e+00    1.862458e+00
  1.226575e+00    2.175603e+00
  1.242451e+00    2.291034e+00
  1.258327e+00    2.283922e+00
  1.274202e+00    2.387766e+00
  1.290078e+00    2.608354e+00
  1.305953e+00    2.640193e+00
  1.321829e+00    2.585565e+00
  1.337705e+00    2.573750e+00
  1.353580e+00    2.541770e+00
  1.369456e+00    2.608842e+00
  1.385331e+00    2.612388e+00
  1.401207e+00    2.687221e+00
  1.417082e+00    2.803567e+00
  1.432958e+00    2.891057e+00
  1.448834e+00    2.793832e+00
  1.464709e+00    2.783479e+00
  1.480585e+00    2.861715e+00
  1.496460e+00    3.022076e+00
  1.512336e+00    2.905330e+00
  1.528211e+00    3.007866e+00
  1.544087e+00    3.014970e+00
  1.559963e+00    3.039950e+00
  1.575838e+00    3.115567e+00
  1.591714e+00    3.066123e+00
  1.607589e+00    3.051265e+00
  1.623465e+00    3.100476e+00
  1.639340e+00    3.082961e+00
  1.655216e+00    3.067352e+00
  1.671092e+00    2.957688e+00
  1.686967e+00    2.880918e+00
  1.702843e+00    2.901328e+00
  1.718718e+00    3.015207e+00
  1.734594e+00    2.903728e+00
  1.750469e+00    2.951487e+00
  1.766345e+00    2.918526e+00
  1.782221e+00    2.821785e+00
  1.798096e+00    2.989118e+00
  1.813972e+00    2.913519e+00
  1.829847e+00    2.906888e+00
  1.845723e+00    2.917584e+00
  1.861598e+00    2.947620e+00
  1.877474e+00    2.767136e+00
  1.893350e+00    2.746313e+00
  1.909225e+00    2.903177e+00
  1.925101e+00    2.944371e+00
  1.940976e+00    2.844751e+00
  1.956852e+00    2.879360e+00
  1.972727e+00    2.795303e+00
  1.988603e+00    2.770027e+00
  2.004479e+00    2.850681e+00
  2.020354e+00    2.863853e+00
  2.036230e+00    2.762362e+00
  2.052105e+00    2.750608e+00
  2.067981e+00    2.713591e+00
  2.083856e+00    2.666747e+00
  2.099732e+00    2.799113e+00
  2.115608e+00    2.888979e+00
  2.131483e+00    2.879853e+00
  2.147359e+00    2.788154e+00
  2.163234e+00    2.865388e+00
  2.179110e+00    2.745764e+00
  2.194985e+00    2.781368e+00
  2.210861e+00    2.788056e+00
  2.226737e+00    2.812540e+00
  2.242612e+00    2.926256e+00
  2.258488e+00    2.824413e+00
  2.274363e+00    2.774632e+00
  2.290239e+00    2.817491e+00
  2.306115e+00    2.765458e+00
  2.321990e+00    2.720011e+00
  2.337866e+00    2.730843e+00
  2.353741e+00    2.775192e+00
  2.369617e+00    2.769127e+00
  2.385492e+00    2.859020e+00
  2.401368e+00    2.872851e+00
  2.417244e+00    2.958916e+00
  2.433119e+00    2.841540e+00
  2.448995e+00    2.848275e+00
  2.464870e+00    2.819592e+00
  2.480746e+00    2.846921e+00
  2.496621e+00    2.857936e+00
  2.512497e+00    2.877795e+00
  2.528373e+00    2.975867e+00
  2.544248e+00    2.875185e+00
  2.560124e+00    2.820216e+00
  2.575999e+00    2.810627e+00
  2.591875e+00    2.852457e+00
  2.607750e+00    2.774839e+00
  2.623626e+00    2.860371e+00
  2.639502e+00    2.876374e+00
  2.655377e+00    2.837272e+00
  2.671253e+00    2.816656e+00
  2.687128e+00    2.791711e+00
  2.703004e+00    2.794130e+00
  2.718879e+00    2.869571e+00
  2.734755e+00    2.858759e+00
  2.750631e+00    2.871727e+00
  2.766506e+00    2.770026e+00
  2.782382e+00    2.813057e+00
  2.798257e+00    2.861299e+00
  2.814133e+00    2.938704e+00
  2.830008e+00    2.907269e+00
  2.845884e+00    2.945175e+00
  2.861760e+00    2.895606e+00
  2.877635e+00    2.828024e+00
  2.893511e+00    2.855317e+00
  2.909386e+00    2.973942e+00
  2.925262e+00    3.015097e+00
  2.941137e+00    2.920874e+00
  2.957013e+00    2.960696e+00
  2.972889e+00    2.984320e+00
  2.988764e+00    2.955132e+00
  3.004640e+00    2.992448e+00
  3.020515e+00    2.890464e+00
  3.036391e+00    2.785740e+00
  3.052266e+00    2.872644e+00
  3.068142e+00    2.958943e+00
  3.084018e+00    2.883590e+00
  3.099893e+00    2.930469e+00
  3.115769e+00    3.007885e+00
  3.131644e+00    2.987555e+00
  3.147520e+00    2.899067e+00
  3.163395e+00    2.834919e+00
  3.179271e+00    2.872245e+00
  3.195147e+00    2.879046e+00
  3.211022e+00    2.922965e+00
  3.226898e+00    2.961689e+00
  3.242773e+00    2.968925e+00
  3.258649e+00    2.977637e+00
  3.274525e+00    2.926037e+00
  3.290400e+00    2.913612e+00
  3.306276e+00    2.940773e+00
  3.322151e+00    2.882685e+00
  3.338027e+00    2.942734e+00
  3.353902e+00    3.035404e+00
  3.369778e+00    3.023665e+00
  3.385654e+00    2.949505e+00
  3.401529e+00    2.933183e+00
  3.417405e+00    2.931922e+00
  3.433280e+00    3.069350e+00
  3.449156e+00    3.006872e+00
  3.465031e+00    3.007570e+00
  3.480907e+00    2.954959e+00
  3.496783e+00    2.930079e+00
  3.512658e+00    2.962455e+00
  3.528534e+00    2.944125e+00
  3.544409e+00    2.930051e+00
  3.560285e+00    2.936585e+00
  3.576160e+00    3.007918e+00
  3.592036e+00    3.036506e+00
  3.607912e+00    3.024336e+00
  3.623787e+00    2.917735e+00
  3.639663e+00    2.928282e+00
  3.655538e+00    2.925931e+00
  3.671414e+00    2.996790e+00
  3.687289e+00    3.053028e+00
  3.703165e+00    3.028700e+00
  3.719041e+00    2.934853e+00
  3.734916e+00    3.062291e+00
  3.750792e+00    3.079800e+00
  3.766667e+00    3.024705e+00
  3.782543e+00    2.969107e+00
  3.798418e+00    3.072003e+00
  3.814294e+00    3.101598e+00
  3.830170e+00    3.030858e+00
  3.846045e+00    3.043766e+00
  3.861921e+00    3.079436e+00
  3.877796e+00    3.021400e+00
  3.893672e+00    3.085978e+00
  3.909547e+00    3.085717e+00
  3.925423e+00    3.024519e+00
  3.941299e+00    3.002586e+00
  3.957174e+00    2.985684e+00
  3.973050e+00    3.011777e+00
  3.988925e+00    3.063077e+00
  4.004801e+00    3.071949e+00
  4.020676e+00    3.021230e+00
  4.036552e+00    3.070279e+00
  4.052428e+00    3.035693e+00
  4.068303e+00    3.087469e+00
  4.084179e+00    3.047124e+00
  4.100054e+00    3.127432e+00
  4.115930e+00    3.085454e+00
  4.131806e+00    3.045871e+00
  4.147681e+00    3.130666e+00
  4.163557e+00    3.050006e+00
  4.179432e+00    3.014978e+00
  4.195308e+00    3.006616e+00
  4.211183e+00    2.992247e+00
  4.227059e+00    3.009970e+00
  4.242935e+00    3.048659e+00
  4.258810e+00    3.074700e+00
  4.274686e+00    2.982022e+00
  4.290561e+00    3.047570e+00
  4.306437e+00    3.093230e+00
  4.322312e+00    3.060532e+00
  4.338188e+00    3.037763e+00
  4.354064e+00    3.036780e+00
  4.369939e+00    3.105783e+00
  4.385815e+00    3.042535e+00
  4.401690e+00    3.002964e+00
  4.417566e+00    3.049317e+00
  4.433441e+00    3.026996e+00
  4.449317e+00    3.022703e+00
  4.465193e+00    3.043182e+00
  4.481068e+00    3.004601e+00
  4.496944e+00    3.099530e+00
  4.512819e+00    3.088199e+00
  4.528695e+00    3.063540e+00
  4.544570e+00    3.105221e+00
  4.560446e+00    3.009001e+00
  4.576322e+00    2.958121e+00
  4.592197e+00    3.002285e+00
  4.608073e+00    3.071636e+00
  4.623948e+00    3.039655e+00
  4.639824e+00    3.144535e+00
  4.655699e+00    3.126423e+00
  4.671575e+00    3.092363e+00
  4.687451e+00    3.084550e+00
  4.703326e+00    3.086405e+00
  4.719202e+00    3.130718e+00
  4.735077e+00    3.143877e+00
  4.750953e+00    3.056655e+00
  4.766828e+00    3.096152e+00
  4.782704e+00    3.088156e+00
  4.798580e+00    3.114052e+00
  4.814455e+00    3.156860e+00
  4.830331e+00    3.094882e+00
  4.846206e+00    3.114603e+00
  4.862082e+00    3.098475e+00
  4.877957e+00    3.118896e+00
  4.893833e+00    3.120245e+00
  4.909709e+00    3.083704e+00
  4.925584e+00    3.119208e+00
  4.941460e+00    3.183781e+00
  4.957335e+00    3.131534e+00
  4.973211e+00    3.147630e+00
  4.989086e+00    3.194794e+00
  5.004962e+00    3.132887e+00
  5.020838e+00    3.168588e+00
  5.036713e+00    3.213470e+00
  5.052589e+00    3.140971e+00
  5.068464e+00    3.148857e+00
  5.084340e+00    3.178227e+00
  5.100216e+00    3.203625e+00
  5.116091e+00    3.180422e+00
  5.131967e+00    3.114897e+00
  5.147842e+00    3.077820e+00
  5.163718e+00    3.037677e+00
  5.179593e+00    3.131651e+00
  5.195469e+00    3.138979e+00
  5.211345e+00    3.153475e+00
  5.227220e+00    3.073740e+00
  5.243096e+00    3.070517e+00
  5.258971e+00    3.135411e+00
  5.274847e+00    3.123576e+00
  5.290722e+00    3.054878e+00
  5.306598e+00    3.078792e+00
  5.322474e+00    3.198305e+00
  5.338349e+00    3.224410e+00
  5.354225e+00    3.211884e+00
  5.370100e+00    3.197856e+00
  5.385976e+00    3.160987e+00
  5.401851e+00    3.138865e+00
  5.417727e+00    3.107555e+00
  5.433603e+00    3.107671e+00
  5.449478e+00    3.102302e+00
  5.465354e+00    3.119195e+00
  5.481229e+00    3.045146e+00
  5.497105e+00    3.037415e+00
  5.512980e+00    3.081069e+00
  5.528856e+00    3.145327e+00
  5.544732e+00    3.190578e+00
  5.560607e+00    3.236769e+00
  5.576483e+00    3.145985e+00
  5.592358e+00    3.095711e+00
  5.608234e+00    3.094871e+00
  5.624109e+00    3.066769e+00
  5.639985e+00    3.073206e+00
  5.655861e+00    3.125808e+00
  5.671736e+00    3.092120e+00
  5.687612e+00    3.084779e+00
  5.703487e+00    3.092153e+00
  5.719363e+00    3.093220e+00
  5.735238e+00    3.022929e+00
  5.751114e+00    3.085995e+00
  5.766990e+00    3.102325e+00
  5.782865e+00    3.044001e+00
  5.798741e+00    3.006787e+00
  5.814616e+00    3.089468e+00
  5.830492e+00    3.134057e+00
  5.846367e+00    3.115104e+00
  5.862243e+00    3.162980e+00
  5.878119e+00    3.103958e+00
  5.893994e+00    3.035456e+00
  5.909870e+00    3.033944e+00
  5.925745e+00    3.068221e+00
  5.941621e+00    3.016613e+00
  5.957497e+00    2.996405e+00
  5.973372e+00    2.965261e+00
  5.989248e+00    2.998363e+00
  6.005123e+00    3.093147e+00
  6.020999e+00    3.032849e+00
  6.036874e+00    3.093658e+00
  6.052750e+00    3.110447e+00
  6.068626e+00    3.075640e+00
  6.084501e+00    3.082734e+00
  6.100377e+00    3.162797e+00
  6.116252e+00    3.099265e+00
  6.132128e+00    3.051594e+00
  6.148003e+00    3.068423e+00
  6.163879e+00    3.035203e+00
  6.179755e+00    3.084467e+00
  6.195630e+00    3.058916e+00
  6.211506e+00    3.046990e+00
  6.227381e+00    3.096366e+00
  6.243257e+00    3.137470e+00
  6.259132e+00    3.097487e+00
  6.275008e+00    3.120411e+00
  6.290884e+00    3.102980e+00
  6.306759e+00    3.092321e+00
  6.322635e+00    3.019062e+00
  6.338510e+00    2.971770e+00
  6.354386e+00    3.022797e+00
  6.370261e+00    3.022440e+00
  6.386137e+00    3.073630e+00
  6.402013e+00    3.058887e+00
  6.417888e+00    3.085913e+00
  6.433764e+00    3.020486e+00
  6.449639e+00    3.059090e+00
  6.465515e+00    3.063852e+00
  6.481390e+00    3.109387e+00
  6.497266e+00    3.073099e+00
  6.513142e+00    3.049686e+00
  6.529017e+00    3.065251e+00
  6.544893e+00    3.095797e+00
  6.560768e+00    3.064601e+00
  6.576644e+00    3.055034e+00
  6.592519e+00    3.074557e+00
  6.608395e+00    3.063968e+00
  6.624271e+00    3.115015e+00
  6.640146e+00    3.091907e+00
  6.656022e+00    3.066844e+00
  6.671897e+00    3.078638e+00
  6.687773e+00    3.124081e+00
  6.703648e+00    3.052245e+00
  6.719524e+00    3.041357e+00
  6.735400e+00    3.058117e+00
  6.751275e+00    3.023974e+00
  6.767151e+00    3.025105e+00
  6.783026e+00    3.012427e+00
  6.798902e+00    3.011770e+00
  6.814777e+00    3.016658e+00
  6.830653e+00    2.991562e+00
  6.846529e+00    3.046733e+00
  6.862404e+00    3.026395e+00
  6.878280e+00    3.005697e+00
  6.894155e+00    3.004314e+00
  6.910031e+00    3.027323e+00
  6.925907e+00    3.021864e+00
  6.941782e+00    2.995999e+00
  6.957658e+00    3.009821e+00
  6.973533e+00    3.074901e+00
  6.989409e+00    3.073249e+00
  7.005284e+00    3.004398e+00
  7.021160e+00    3.006073e+00
  7.037036e+00    3.033945e+00
  7.052911e+00    3.015362e+00
  7.068787e+00    3.004778e+00
  7.084662e+00    2.995954e+00
  7.100538e+00    3.014660e+00
  7.116413e+00    2.979497e+00
  7.132289e+00    3.001593e+00
  7.148165e+00    3.003398e+00
  7.164040e+00    2.971375e+00
  7.179916e+00    2.990266e+00
  7.195791e+00    3.029097e+00
  7.211667e+00    2.987468e+00
  7.227542e+00    3.004158e+00
  7.243418e+00    3.051193e+00
  7.259294e+00    3.048010e+00
  7.275169e+00    3.033801e+00
  7.291045e+00    3.044409e+00
  7.306920e+00    3.059725e+00
  7.322796e+00    3.063830e+00
  7.338671e+00    2.994990e+00
  7.354547e+00    2.985924e+00
  7.370423e+00    3.001428e+00
  7.386298e+00    3.079651e+00
  7.402174e+00    3.069659e+00
  7.418049e+00    3.006523e+00
  7.433925e+00    2.972252e+00
  7.449800e+00    3.011167e+00
  7.465676e+00    2.989996e+00
  7.481552e+00    2.968259e+00
  7.497427e+00    3.008628e+00
  7.513303e+00    3.012287e+00
  7.529178e+00    3.063821e+00
  7.545054e+00    3.038645e+00
  7.560929e+00    2.999198e+00
  7.576805e+00    3.031443e+00
  7.592681e+00    2.986209e+00
  7.608556e+00    2.973102e+00
  7.624432e+00    2.968717e+00
  7.640307e+00    2.915729e+00
  7.656183e+00    2.986572e+00
  7.672058e+00    3.019277e+00
  7.687934e+00    3.045829e+00
  7.703810e+00    2.978249e+00
  7.719685e+00    2.932740e+00
  7.735561e+00    2.981198e+00
  7.751436e+00    2.959615e+00
  7.767312e+00    2.955232e+00
  7.783187e+00    3.018127e+00
  7.799063e+00    2.964819e+00
  7.814939e+00    2.929680e+00
  7.830814e+00    2.919412e+00
  7.846690e+00    2.877401e+00
  7.862565e+00    2.903591e+00
  7.878441e+00    2.949470e+00
  7.894317e+00    3.034125e+00
  7.910192e+00    2.918488e+00
  7.926068e+00    2.893677e+00
  7.941943e+00    2.929744e+00
  7.957819e+00    2.968899e+00
  7.973694e+00    2.945318e+00
  7.989570e+00    2.900769e+00
  8.005446e+00    2.931043e+00
  8.021321e+00    2.964776e+00
  8.037197e+00    2.991663e+00
  8.053072e+00    2.981579e+00
  8.068948e+00    2.890530e+00
  8.084823e+00    2.962578e+00
  8.100699e+00    2.967157e+00
  8.116575e+00    2.977288e+00
  8.132450e+00    2.950959e+00
  8.148326e+00    2.974699e+00
  8.164201e+00    2.962738e+00
  8.180077e+00    2.956109e+00
  8.195952e+00    2.993097e+00
  8.211828e+00    3.036333e+00
  8.227704e+00    3.033171e+00
  8.243579e+00    2.969201e+00
  8.259455e+00    2.939584e+00
  8.275330e+00    2.898103e+00
  8.291206e+00    2.927413e+00
  8.307081e+00    2.923228e+00
  8.322957e+00    2.847691e+00
  8.338833e+00    2.860761e+00
  8.354708e+00    2.914952e+00
  8.370584e+00    2.940216e+00
  8.386459e+00    2.908094e+00
  8.402335e+00    2.949292e+00
  8.418210e+00    2.940338e+00
  8.434086e+00    2.942001e+00
  8.449962e+00    2.860134e+00
  8.465837e+00    2.851476e+00
  8.481713e+00    2.889841e+00
  8.497588e+00    2.960167e+00
  8.513464e+00    2.936189e+00
  8.529339e+00    2.922677e+00
  8.545215e+00    2.949875e+00
  8.561091e+00    2.940724e+00
  8.576966e+00    2.876150e+00
  8.592842e+00    2.861072e+00
  8.608717e+00    2.930277e+00
  8.624593e+00    2.868809e+00
  8.640468e+00    2.853175e+00
  8.656344e+00    2.865579e+00
  8.672220e+00    2.808338e+00
  8.688095e+00    2.824896e+00
  8.703971e+00    2.822551e+00
  8.719846e+00    2.851438e+00
  8.735722e+00    2.902699e+00
  8.751598e+00    2.872669e+00
  8.767473e+00    2.909992e+00
  8.783349e+00    2.926311e+00
  8.799224e+00    2.885857e+00
  8.815100e+00    2.845992e+00
  8.830975e+00    2.845066e+00
  8.846851e+00    2.872766e+00
  8.862727e+00    2.879038e+00
  8.878602e+00    2.847262e+00
  8.894478e+00    2.870567e+00
  8.910353e+00    2.845893e+00
  8.926229e+00    2.808460e+00
  8.942104e+00    2.846806e+00
  8.957980e+00    2.877056e+00
  8.973856e+00    2.788135e+00
  8.989731e+00    2.762458e+00
  9.005607e+00    2.790215e+00
  9.021482e+00    2.798351e+00
  9.037358e+00    2.746865e+00
  9.053233e+00    2.778239e+00
  9.069109e+00    2.862392e+00
  9.084985e+00    2.854432e+00
  9.100860e+00    2.826458e+00
  9.116736e+00    2.725945e+00
  9.132611e+00    2.731232e+00
  9.148487e+00    2.781640e+00
  9.164362e+00    2.758788e+00
  9.180238e+00    2.782249e+00
  9.196114e+00    2.738495e+00
  9.211989e+00    2.763729e+00
  9.227865e+00    2.801182e+00
  9.243740e+00    2.810118e+00
  9.259616e+00    2.778966e+00
  9.275491e+00    2.745919e+00
  9.291367e+00    2.769212e+00
  9.307243e+00    2.783975e+00
  9.323118e+00    2.823887e+00
  9.338994e+00    2.763561e+00
  9.354869e+00    2.770604e+00
  9.370745e+00    2.807884e+00
  9.386620e+00    2.852750e+00
  9.402496e+00    2.775512e+00
  9.418372e+00    2.743801e+00
  9.434247e+00    2.773753e+00
  9.450123e+00    2.801608e+00
  9.465998e+00    2.783849e+00
  9.481874e+00    2.824225e+00
  9.497749e+00    2.813239e+00
  9.513625e+00    2.742565e+00
  9.529501e+00    2.771248e+00
  9.545376e+00    2.821523e+00
  9.561252e+00    2.774459e+00
  9.577127e+00    2.731558e+00
  9.593003e+00    2.719111e+00
  9.608878e+00    2.749754e+00
  9.624754e+00    2.751163e+00
  9.640630e+00    2.770402e+00
  9.656505e+00    2.766022e+00
  9.672381e+00    2.787169e+00
  9.688256e+00    2.775592e+00
  9.704132e+00    2.753863e+00
  9.720008e+00    2.724802e+00
  9.735883e+00    2.718060e+00
  9.751759e+00    2.768012e+00
  9.767634e+00    2.748376e+00
  9.783510e+00    2.712751e+00
  9.799385e+00    2.719862e+00
  9.815261e+00    2.778858e+00
  9.831137e+00    2.756297e+00
  9.847012e+00    2.739527e+00
  9.862888e+00    2.747997e+00
  9.878763e+00    2.687477e+00
  9.894639e+00    2.679439e+00
  9.910514e+00    2.681418e+00
  9.926390e+00    2.668691e+00
  9.942266e+00    2.617611e+00
  9.958141e+00    2.712079e+00
  9.974017e+00    2.774436e+00
  9.989892e+00    2.762397e+00
  1.000577e+01    2.776345e+00
  1.002164e+01    2.689042e+00
  1.003752e+01    2.696824e+00
  1.005339e+01    2.729388e+00
  1.006927e+01    2.652870e+00
  1.008515e+01    2.644704e+00
  1.010102e+01    2.701066e+00
  1.011690e+01    2.683136e+00
  1.013277e+01    2.675181e+00
  1.014865e+01    2.712553e+00
  1.016452e+01    2.629741e+00
  1.018040e+01    2.603128e+00
  1.019627e+01    2.658114e+00
  1.021215e+01    2.672363e+00
  1.022803e+01    2.688234e+00
  1.024390e+01    2.650406e+00
  1.025978e+01    2.677562e+00
  1.027565e+01    2.664153e+00
  1.029153e+01    2.636405e+00
  1.030740e+01    2.606566e+00
  1.032328e+01    2.604173e+00
  1.033915e+01    2.613084e+00
  1.035503e+01    2.655799e+00
  1.037091e+01    2.637053e+00
  1.038678e+01    2.604770e+00
  1.040266e+01    2.636792e+00
  1.041853e+01    2.658268e+00
  1.043441e+01    2.663195e+00
  1.045028e+01    2.641524e+00
  1.046616e+01    2.591137e+00
  1.048204e+01    2.604750e+00
  1.049791e+01    2.659917e+00
  1.051379e+01    2.629367e+00
  1.052966e+01    2.564180e+00
  1.054554e+01    2.615929e+00
  1.056141e+01    2.607915e+00
  1.057729e+01    2.580351e+00
  1.059316e+01    2.617485e+00
  1.060904e+01    2.600364e+00
  1.062492e+01    2.629894e+00
  1.064079e+01    2.618426e+00
  1.065667e+01    2.595418e+00
  1.067254e+01    2.597078e+00
  1.068842e+01    2.588672e+00
  1.070429e+01    2.561440e+00
  1.072017e+01    2.543806e+00
  1.073604e+01    2.563548e+00
  1.075192e+01    2.549600e+00
  1.076780e+01    2.560066e+00
  1.078367e+01    2.534807e+00
  1.079955e+01    2.541221e+00
  1.081542e+01    2.568689e+00
  1.083130e+01    2.563277e+00
  1.084717e+01    2.528439e+00
  1.086305e+01    2.513912e+00
  1.087892e+01    2.557629e+00
  1.089480e+01    2.577393e+00
  1.091068e+01    2.542845e+00
  1.092655e+01    2.501007e+00
  1.094243e+01    2.520743e+00
  1.095830e+01    2.484858e+00
  1.097418e+01    2.499506e+00
  1.099005e+01    2.497985e+00
  1.100593e+01    2.486885e+00
  1.102180e+01    2.493133e+00
  1.103768e+01    2.552997e+00
  1.105356e+01    2.501020e+00
  1.106943e+01    2.536992e+00
  1.108531e+01    2.517260e+00
  1.110118e+01    2.489633e+00
  1.111706e+01    2.532470e+00
  1.113293e+01    2.482259e+00
  1.114881e+01    2.488248e+00
  1.116468e+01    2.460836e+00
  1.118056e+01    2.476292e+00
  1.119644e+01    2.521694e+00
  1.121231e+01    2.520599e+00
  1.122819e+01    2.503055e+00
  1.124406e+01    2.461619e+00
  1.125994e+01    2.475679e+00
  1.127581e+01    2.481524e+00
  1.129169e+01    2.450502e+00
  1.130756e+01    2.448709e+00
  1.132344e+01    2.464093e+00
  1.133932e+01    2.468252e+00
  1.135519e+01    2.440029e+00
  1.137107e+01    2.399982e+00
  1.138694e+01    2.472274e+00
  1.140282e+01    2.464574e+00
  1.141869e+01    2.460391e+00
  1.143457e+01    2.430487e+00
  1.145045e+01    2.451465e+00
  1.146632e+01    2.426176e+00
  1.148220e+01    2.390354e+00
  1.149807e+01    2.409717e+00
  1.151395e+01    2.385960e+00
  1.152982e+01    2.408717e+00
  1.154570e+01    2.421176e+00
  1.156157e+01    2.435658e+00
  1.157745e+01    2.412102e+00
  1.159333e+01    2.374970e+00
  1.160920e+01    2.365048e+00
  1.162508e+01    2.349013e+00
  1.164095e+01    2.355939e+00
  1.165683e+01    2.414431e+00
  1.167270e+01    2.386374e+00
  1.168858e+01    2.385661e+00
  1.170445e+01    2.404124e+00
  1.172033e+01    2.369348e+00
  1.173621e+01    2.362252e+00
  1.175208e+01    2.367583e+00
  1.176796e+01    2.355912e+00
  1.178383e+01    2.387304e+00
  1.179971e+01    2.383746e+00
  1.181558e+01    2.351622e+00
  1.183146e+01    2.342568e+00
  1.184733e+01    2.369829e+00
  1.186321e+01    2.363513e+00
  1.187909e+01    2.384964e+00
  1.189496e+01    2.340629e+00
  1.191084e+01    2.354258e+00
  1.192671e+01    2.372069e+00
  1.194259e+01    2.350376e+00
  1.195846e+01    2.347855e+00
  1.197434e+01    2.321153e+00
  1.199021e+01    2.326535e+00
  1.200609e+01    2.364906e+00
  1.202197e+01    2.368167e+00
  1.203784e+01    2.328757e+00
  1.205372e+01    2.299359e+00
  1.206959e+01    2.344809e+00
  1.208547e+01    2.367415e+00
  1.210134e+01    2.361985e+00
  1.211722e+01    2.317142e+00
  1.213309e+01    2.330108e+00
  1.214897e+01    2.379386e+00
  1.216485e+01    2.358124e+00
  1.218072e+01    2.337553e+00
  1.219660e+01    2.288093e+00
  1.221247e+01    2.352093e+00
  1.222835e+01    2.344767e+00
  1.224422e+01    2.352472e+00
  1.226010e+01    2.335059e+00
  1.227597e+01    2.322743e+00
  1.229185e+01    2.289846e+00
  1.230773e+01    2.343987e+00
  1.232360e+01    2.366933e+00
  1.233948e+01    2.348270e+00
  1.235535e+01    2.335875e+00
  1.237123e+01    2.333404e+00
  1.238710e+01    2.364036e+00
  1.240298e+01    2.353215e+00
  1.241886e+01    2.363853e+00
  1.243473e+01    2.360247e+00
  1.245061e+01    2.362111e+00
  1.246648e+01    2.373625e+00
  1.248236e+01    2.359332e+00
  1.249823e+01    2.401705e+00
  1.251411e+01    2.411742e+00
  1.252998e+01    2.377504e+00
  1.254586e+01    2.392127e+00
  1.256174e+01    2.358960e+00
  1.257761e+01    2.377433e+00
  1.259349e+01    2.416141e+00
  1.260936e+01    2.414502e+00
  1.262524e+01    2.406080e+00
  1.264111e+01    2.440353e+00
  1.265699e+01    2.449487e+00
  1.267286e+01    2.433453e+00
  1.268874e+01    2.491711e+00
  1.270462e+01    2.482702e+00
  1.272049e+01    2.502674e+00
  1.273637e+01    2.555161e+00
  1.275224e+01    2.548842e+00
  1.276812e+01    2.568758e+00
  1.278399e+01    2.628670e+00
  1.279987e+01    2.687164e+00
  1.281574e+01    2.759029e+00
  1.283162e+01    2.759459e+00
  1.284750e+01    2.814092e+00
  1.286337e+01    2.919137e+00
  1.287925e+01    3.017560e+00
  1.289512e+01    3.182483e+00
  1.291100e+01    3.324269e+00
  1.292687e+01    3.441645e+00
  1.294275e+01    3.646751e+00
  1.295862e+01    3.907597e+00
  1.297450e+01    4.248790e+00
  1.299038e+01    4.716108e+00
  1.300625e+01    5.204733e+00
  1.302213e+01    5.932491e+00
  1.303800e+01    6.740872e+00
  1.305388e+01    7.829763e+00
  1.306975e+01    9.146355e+00
  1.308563e+01    1.043909e+01
  1.310150e+01    1.205146e+01
  1.311738e+01    1.351611e+01
  1.313326e+01    1.495724e+01
  1.314913e+01    1.656521e+01
  1.316501e+01    1.799410e+01
  1.318088e+01    1.908104e+01
  1.319676e+01    1.957552e+01
  1.321263e+01    1.938728e+01
  1.322851e+01    1.801459e+01
  1.324438e+01    1.578991e+01
  1.326026e+01    1.343533e+01
  1.327614e+01    1.120539e+01
  1.329201e+01    9.455952e+00
  1.330789e+01    8.070540e+00
  1.332376e+01    6.917815e+00
  1.333964e+01    6.013024e+00
  1.335551e+01    5.297276e+00
  1.337139e+01    4.751475e+00
  1.338727e+01    4.376840e+00
  1.340314e+01    4.000832e+00
  1.341902e+01    3.736685e+00
  1.343489e+01    3.526392e+00
  1.345077e+01    3.301004e+00
  1.346664e+01    3.152819e+00
  1.348252e+01    3.040990e+00
  1.349839e+01    2.873600e+00
  1.351427e+01    2.814414e+00
  1.353015e+01    2.732959e+00
  1.354602e+01    2.635792e+00
  1.356190e+01    2.623957e+00
  1.357777e+01    2.524499e+00
  1.359365e+01    2.483236e+00
  1.360952e+01    2.446302e+00
  1.362540e+01    2.446067e+00
  1.364127e+01    2.447319e+00
  1.365715e+01    2.396340e+00
  1.367303e+01    2.342695e+00
  1.368890e+01    2.328369e+00
  1.370478e+01    2.291384e+00
  1.372065e+01    2.313138e+00
  1.373653e+01    2.295252e+00
  1.375240e+01    2.289673e+00
  1.376828e+01    2.205837e+00
  1.378415e+01    2.160002e+00
  1.380003e+01    2.198006e+00
  1.381591e+01    2.188153e+00
  1.383178e+01    2.169382e+00
  1.384766e+01    2.158283e+00
  1.386353e+01    2.136084e+00
  1.387941e+01    2.154554e+00
  1.389528e+01    2.132442e+00
  1.391116e+01    2.106367e+00
  1.392703e+01    2.155810e+00
  1.394291e+01    2.138577e+00
  1.395879e+01    2.124676e+00
  1.397466e+01    2.165230e+00
  1.399054e+01    2.095344e+00
  1.400641e+01    2.052880e+00
  1.402229e+01    2.093772e+00
  1.403816e+01    2.080720e+00
  1.405404e+01    2.092543e+00
  1.406991e+01    2.068017e+00
  1.408579e+01    2.048848e+00
  1.410167e+01    2.059237e+00
  1.411754e+01    2.003447e+00
  1.413342e+01    2.000010e+00
  1.414929e+01    2.001402e+00
  1.416517e+01    2.007742e+00
  1.418104e+01    2.011648e+00
  1.419692e+01    2.013036e+00
  1.421279e+01    1.998107e+00
  1.422867e+01    2.026805e+00
  1.424455e+01    2.019878e+00
  1.426042e+01    1.967619e+00
  1.427630e+01    1.975405e+00
  1.429217e+01    2.002936e+00
  1.430805e+01    1.966405e+00
  1.432392e+01    1.994553e+00
  1.433980e+01    1.956535e+00
  1.435568e+01    1.943308e+00
  1.437155e+01    1.962895e+00
  1.438743e+01    2.004402e+00
  1.440330e+01    1.992818e+00
  1.441918e+01    1.984838e+00
  1.443505e+01    1.954523e+00
  1.445093e+01    1.950012e+00
  1.446680e+01    1.961621e+00
  1.448268e+01    1.941711e+00
  1.449856e+01    1.988043e+00
  1.451443e+01    1.917554e+00
  1.453031e+01    1.945064e+00
  1.454618e+01    1.933023e+00
  1.456206e+01    1.883255e+00
  1.457793e+01    1.895670e+00
  1.459381e+01    1.924706e+00
  1.460968e+01    1.947243e+00
  1.462556e+01    1.937746e+00
  1.464144e+01    1.962651e+00
  1.465731e+01    1.946002e+00
  1.467319e+01    1.908409e+00
  1.468906e+01    1.928005e+00
  1.470494e+01    1.908255e+00
  1.472081e+01    1.904402e+00
  1.473669e+01    1.925192e+00
  1.475256e+01    1.914729e+00
  1.476844e+01    1.894702e+00
  1.478432e+01    1.935439e+00
  1.480019e+01    1.909434e+00
  1.481607e+01    1.933410e+00
  1.483194e+01    1.910633e+00
  1.484782e+01    1.905553e+00
  1.486369e+01    1.954435e+00
  1.487957e+01    1.979958e+00
  1.489544e+01    2.007743e+00
  1.491132e+01    1.967905e+00
  1.492720e+01    1.982627e+00
  1.494307e+01    2.009940e+00
  1.495895e+01    2.047208e+00
  1.497482e+01    2.050000e+00
  1.499070e+01    2.053864e+00
  1.500657e+01    2.156558e+00
  1.502245e+01    2.215439e+00
  1.503832e+01    2.271604e+00
  1.505420e+01    2.378992e+00
  1.507008e+01    2.485651e+00
  1.508595e+01    2.622935e+00
  1.510183e+01    2.710130e+00
  1.511770e+01    2.959424e+00
  1.513358e+01    3.276453e+00
  1.514945e+01    3.619058e+00
  1.516533e+01    4.057791e+00
  1.518120e+01    4.457178e+00
  1.519708e+01    4.918698e+00
  1.521296e+01    5.392297e+00
  1.522883e+01    5.662007e+00
  1.524471e+01    5.957935e+00
  1.526058e+01    6.268023e+00
  1.527646e+01    6.487958e+00
  1.529233e+01    6.490216e+00
  1.530821e+01    6.405770e+00
  1.532409e+01    6.061879e+00
  1.533996e+01    5.436322e+00
  1.535584e+01    4.818345e+00
  1.537171e+01    4.247063e+00
  1.538759e+01    3.774888e+00
  1.540346e+01    3.338166e+00
  1.541934e+01    3.003632e+00
  1.543521e+01    2.798371e+00
  1.545109e+01    2.631984e+00
  1.546697e+01    2.445800e+00
  1.548284e+01    2.348187e+00
  1.549872e+01    2.262973e+00
  1.551459e+01    2.158396e+00
  1.553047e+01    2.087336e+00
  1.554634e+01    2.059660e+00
  1.556222e+01    2.008482e+00
  1.557809e+01    1.982027e+00
  1.559397e+01    1.954761e+00
  1.560985e+01    1.940748e+00
  1.562572e+01    1.865111e+00
  1.564160e+01    1.825442e+00
  1.565747e+01    1.809278e+00
  1.567335e+01    1.796751e+00
  1.568922e+01    1.808245e+00
  1.570510e+01    1.789331e+00
  1.572097e+01    1.799160e+00
  1.573685e+01    1.781791e+00
  1.575273e+01    1.718258e+00
  1.576860e+01    1.734533e+00
  1.578448e+01    1.716560e+00
  1.580035e+01    1.737058e+00
  1.581623e+01    1.703333e+00
  1.583210e+01    1.688000e+00
  1.584798e+01    1.689381e+00
  1.586385e+01    1.678631e+00
  1.587973e+01    1.685532e+00
  1.589561e+01    1.664757e+00
  1.591148e+01    1.692340e+00
  1.592736e+01    1.661578e+00
  1.594323e+01    1.645691e+00
  1.595911e+01    1.644488e+00
  1.597498e+01    1.708245e+00
  1.599086e+01    1.681408e+00
  1.600673e+01    1.620203e+00
  1.602261e+01    1.601832e+00
  1.603849e+01    1.630015e+00
  1.605436e+01    1.620496e+00
  1.607024e+01    1.602457e+00
  1.608611e+01    1.595182e+00
  1.610199e+01    1.597364e+00
  1.611786e+01    1.619619e+00
  1.613374e+01    1.592384e+00
  1.614961e+01    1.585877e+00
  1.616549e+01    1.606340e+00
  1.618137e+01    1.586392e+00
  1.619724e+01    1.572901e+00
  1.621312e+01    1.582456e+00
  1.622899e+01    1.602426e+00
  1.624487e+01    1.615482e+00
  1.626074e+01    1.587280e+00
  1.627662e+01    1.591813e+00
  1.629250e+01    1.558787e+00
  1.630837e+01    1.545997e+00
  1.632425e+01    1.565279e+00
  1.634012e+01    1.548961e+00
  1.635600e+01    1.557249e+00
  1.637187e+01    1.583335e+00
  1.638775e+01    1.563018e+00
  1.640362e+01    1.567956e+00
  1.641950e+01    1.538910e+00
  1.643538e+01    1.534487e+00
  1.645125e+01    1.539157e+00
  1.646713e+01    1.544575e+00
  1.648300e+01    1.524216e+00
  1.649888e+01    1.528471e+00
  1.651475e+01    1.516338e+00
  1.653063e+01    1.516016e+00
  1.654650e+01    1.516658e+00
  1.656238e+01    1.517438e+00
  1.657826e+01    1.517306e+00
  1.659413e+01    1.493691e+00
  1.661001e+01    1.519311e+00
  1.662588e+01    1.530155e+00
  1.664176e+01    1.531105e+00
  1.665763e+01    1.527023e+00
  1.667351e+01    1.491275e+00
  1.668938e+01    1.478193e+00
  1.670526e+01    1.496651e+00
  1.672114e+01    1.475839e+00
  1.673701e+01    1.481054e+00
  1.675289e+01    1.490893e+00
  1.676876e+01    1.490342e+00
  1.678464e+01    1.471504e+00
  1.680051e+01    1.471535e+00
  1.681639e+01    1.469230e+00
  1.683226e+01    1.488852e+00
  1.684814e+01    1.479271e+00
  1.686402e+01    1.501233e+00
  1.687989e+01    1.490213e+00
  1.689577e+01    1.472363e+00
  1.691164e+01    1.460838e+00
  1.692752e+01    1.465735e+00
  1.694339e+01    1.484236e+00
  1.695927e+01    1.456379e+00
  1.697514e+01    1.464181e+00
  1.699102e+01    1.463854e+00
  1.700690e+01    1.459304e+00
  1.702277e+01    1.465524e+00
  1.703865e+01    1.446963e+00
  1.705452e+01    1.433433e+00
  1.707040e+01    1.429973e+00
  1.708627e+01    1.409044e+00
  1.710215e+01    1.445978e+00
  1.711802e+01    1.452726e+00
  1.713390e+01    1.432301e+00
  1.714978e+01    1.441872e+00
  1.716565e+01    1.426935e+00
  1.718153e+01    1.427395e+00
  1.719740e+01    1.438591e+00
  1.721328e+01    1.412782e+00
  1.722915e+01    1.420238e+00
  1.724503e+01    1.396624e+00
  1.726091e+01    1.421142e+00
  1.727678e+01    1.438384e+00
  1.729266e+01    1.405786e+00
  1.730853e+01    1.410762e+00
  1.732441e+01    1.371186e+00
  1.734028e+01    1.393463e+00
  1.735616e+01    1.429668e+00
  1.737203e+01    1.390511e+00
  1.738791e+01    1.378077e+00
  1.740379e+01    1.361318e+00
  1.741966e+01    1.409670e+00
  1.743554e+01    1.389440e+00
  1.745141e+01    1.397115e+00
  1.746729e+01    1.417817e+00
  1.748316e+01    1.379913e+00
  1.749904e+01    1.360691e+00
  1.751491e+01    1.376251e+00
  1.753079e+01    1.374398e+00
  1.754667e+01    1.359986e+00
  1.756254e+01    1.369735e+00
  1.757842e+01    1.367203e+00
  1.759429e+01    1.379218e+00
  1.761017e+01    1.375413e+00
  1.762604e+01    1.320177e+00
  1.764192e+01    1.363869e+00
  1.765779e+01    1.372846e+00
  1.767367e+01    1.357379e+00
  1.768955e+01    1.353488e+00
  1.770542e+01    1.362487e+00
  1.772130e+01    1.359392e+00
  1.773717e+01    1.349091e+00
  1.775305e+01    1.358885e+00
  1.776892e+01    1.332088e+00
  1.778480e+01    1.368119e+00
  1.780067e+01    1.375559e+00
  1.781655e+01    1.336712e+00
  1.783243e+01    1.330421e+00
  1.784830e+01    1.359273e+00
  1.786418e+01    1.330304e+00
  1.788005e+01    1.300794e+00
  1.789593e+01    1.317822e+00
  1.791180e+01    1.330358e+00
  1.792768e+01    1.294218e+00
  1.794355e+01    1.329655e+00
  1.795943e+01    1.343204e+00
  1.797531e+01    1.295257e+00
  1.799118e+01    1.311921e+00
  1.800706e+01    1.336083e+00
  1.802293e+01    1.307557e+00
  1.803881e+01    1.314508e+00
  1.805468e+01    1.338214e+00
  1.807056e+01    1.330274e+00
  1.808643e+01    1.313141e+00
  1.810231e+01    1.306951e+00
  1.811819e+01    1.272212e+00
  1.813406e+01    1.284980e+00
  1.814994e+01    1.301096e+00
  1.816581e+01    1.268650e+00
  1.818169e+01    1.267291e+00
  1.819756e+01    1.275694e+00
  1.821344e+01    1.299554e+00
  1.822932e+01    1.297745e+00
  1.824519e+01    1.273250e+00
  1.826107e+01    1.283311e+00
  1.827694e+01    1.296710e+00
  1.829282e+01    1.264370e+00
  1.830869e+01    1.278557e+00
  1.832457e+01    1.271381e+00
  1.834044e+01    1.259075e+00
  1.835632e+01    1.261222e+00
  1.837220e+01    1.280560e+00
  1.838807e+01    1.275572e+00
  1.840395e+01    1.284045e+00
  1.841982e+01    1.286684e+00
  1.843570e+01    1.262185e+00
  1.845157e+01    1.283256e+00
  1.846745e+01    1.282225e+00
  1.848332e+01    1.275403e+00
  1.849920e+01    1.282441e+00
  1.851508e+01    1.286290e+00
  1.853095e+01    1.237937e+00
  1.854683e+01    1.212543e+00
  1.856270e+01    1.229468e+00
  1.857858e+01    1.254953e+00
  1.859445e+01    1.273064e+00
  1.861033e+01    1.267640e+00
  1.862620e+01    1.272859e+00
  1.864208e+01    1.272142e+00
  1.865796e+01    1.244843e+00
  1.867383e+01    1.245203e+00
  1.868971e+01    1.253353e+00
  1.870558e+01    1.272289e+00
  1.872146e+01    1.255374e+00
  1.873733e+01    1.227677e+00
  1.875321e+01    1.242900e+00
  1.876908e+01    1.243564e+00
  1.878496e+01    1.218543e+00
  1.880084e+01    1.218224e+00
  1.881671e+01    1.235423e+00
  1.883259e+01    1.255601e+00
  1.884846e+01    1.274141e+00
  1.886434e+01    1.229307e+00
  1.888021e+01    1.207551e+00
  1.889609e+01    1.234613e+00
  1.891196e+01    1.215348e+00
  1.892784e+01    1.198330e+00
  1.894372e+01    1.216005e+00
  1.895959e+01    1.199111e+00
  1.897547e+01    1.205275e+00
  1.899134e+01    1.218751e+00
  1.900722e+01    1.220160e+00
  1.902309e+01    1.214772e+00
  1.903897e+01    1.217718e+00
  1.905484e+01    1.232017e+00
  1.907072e+01    1.251623e+00
  1.908660e+01    1.217286e+00
  1.910247e+01    1.233685e+00
  1.911835e+01    1.232044e+00
  1.913422e+01    1.204772e+00
  1.915010e+01    1.204031e+00
  1.916597e+01    1.198235e+00
  1.918185e+01    1.210332e+00
  1.919773e+01    1.192425e+00
  1.921360e+01    1.190766e+00
  1.922948e+01    1.174101e+00
  1.924535e+01    1.192139e+00
  1.926123e+01    1.206555e+00
  1.927710e+01    1.177122e+00
  1.929298e+01    1.174773e+00
  1.930885e+01    1.177728e+00
  1.932473e+01    1.190143e+00
  1.934061e+01    1.192328e+00
  1.935648e+01    1.156028e+00
  1.937236e+01    1.166619e+00
  1.938823e+01    1.174498e+00
  1.940411e+01    1.188856e+00
  1.941998e+01    1.173513e+00
  1.943586e+01    1.169046e+00
  1.945173e+01    1.181506e+00
  1.946761e+01    1.184063e+00
  1.948349e+01    1.183455e+00
  1.949936e+01    1.187344e+00
  1.951524e+01    1.190771e+00
  1.953111e+01    1.176193e+00
  1.954699e+01    1.174386e+00
  1.956286e+01    1.168696e+00
  1.957874e+01    1.175255e+00
  1.959461e+01    1.183535e+00
  1.961049e+01    1.174650e+00
  1.962637e+01    1.172925e+00
  1.964224e+01    1.160265e+00
  1.965812e+01    1.163568e+00
  1.967399e+01    1.154350e+00
  1.968987e+01    1.158616e+00
  1.970574e+01    1.149126e+00
  1.972162e+01    1.131648e+00
  1.973749e+01    1.142050e+00
  1.975337e+01    1.156572e+00
  1.976925e+01    1.171016e+00
  1.978512e+01    1.169190e+00
  1.980100e+01    1.150086e+00
  1.981687e+01    1.130587e+00
  1.983275e+01    1.145913e+00
  1.984862e+01    1.160325e+00
  1.986450e+01    1.138309e+00
  1.988037e+01    1.146377e+00
  1.989625e+01    1.134431e+00
  1.991213e+01    1.134843e+00
  1.992800e+01    1.156875e+00
  1.994388e+01    1.151141e+00
  1.995975e+01    1.126736e+00
  1.997563e+01    1.158224e+00
  1.999150e+01    1.163921e+00
  2.000738e+01    1.152182e+00
  2.002325e+01    1.140551e+00
  2.003913e+01    1.138116e+00
  2.005501e+01    1.136460e+00
  2.007088e+01    1.109792e+00
  2.008676e+01    1.129767e+00
  2.010263e+01    1.097229e+00
  2.011851e+01    1.116237e+00
  2.013438e+01    1.114573e+00
  2.015026e+01    1.140666e+00
  2.016614e+01    1.126243e+00
  2.018201e+01    1.125765e+00
  2.019789e+01    1.121826e+00
  2.021376e+01    1.108310e+00
  2.022964e+01    1.110087e+00
  2.024551e+01    1.107694e+00
  2.026139e+01    1.108041e+00
  2.027726e+01    1.125252e+00
  2.029314e+01    1.111185e+00
  2.030902e+01    1.127195e+00
  2.032489e+01    1.118566e+00
  2.034077e+01    1.099311e+00
  2.035664e+01    1.131716e+00
  2.037252e+01    1.114960e+00
  2.038839e+01    1.088754e+00
  2.040427e+01    1.069930e+00
  2.042014e+01    1.075709e+00
  2.043602e+01    1.100782e+00
  2.045190e+01    1.126824e+00
  2.046777e+01    1.116900e+00
  2.048365e+01    1.080361e+00
  2.049952e+01    1.080555e+00
  2.051540e+01    1.092788e+00
  2.053127e+01    1.087183e+00
  2.054715e+01    1.113676e+00
  2.056302e+01    1.117739e+00
  2.057890e+01    1.125012e+00
  2.059478e+01    1.094745e+00
  2.061065e+01    1.092993e+00
  2.062653e+01    1.120740e+00
  2.064240e+01    1.085202e+00
  2.065828e+01    1.090225e+00
  2.067415e+01    1.098543e+00
  2.069003e+01    1.099686e+00
  2.070590e+01    1.098926e+00
  2.072178e+01    1.099936e+00
  2.073766e+01    1.091750e+00
  2.075353e+01    1.089111e+00
  2.076941e+01    1.080492e+00
  2.078528e+01    1.094383e+00
  2.080116e+01    1.075651e+00
  2.081703e+01    1.095129e+00
  2.083291e+01    1.128535e+00
  2.084878e+01    1.110853e+00
  2.086466e+01    1.109769e+00
  2.088054e+01    1.073308e+00
  2.089641e+01    1.082820e+00
  2.091229e+01    1.097530e+00
  2.092816e+01    1.093390e+00
  2.094404e+01    1.104246e+00
  2.095991e+01    1.096502e+00
  2.097579e+01    1.104186e+00
  2.099166e+01    1.104859e+00
  2.100754e+01    1.111115e+00
  2.102342e+01    1.067782e+00
  2.103929e+01    1.076020e+00
  2.105517e+01    1.109786e+00
  2.107104e+01    1.105141e+00
  2.108692e+01    1.112867e+00
  2.110279e+01    1.111118e+00
  2.111867e+01    1.099977e+00
  2.113455e+01    1.105899e+00
  2.115042e+01    1.108683e+00
  2.116630e+01    1.119007e+00
  2.118217e+01    1.114326e+00
  2.119805e+01    1.121634e+00
  2.121392e+01    1.115173e+00
  2.122980e+01    1.111126e+00
  2.124567e+01    1.133425e+00
  2.126155e+01    1.122116e+00
  2.127743e+01    1.128621e+00
  2.129330e+01    1.124314e+00
  2.130918e+01    1.135901e+00
  2.132505e+01    1.157613e+00
  2.134093e+01    1.171054e+00
  2.135680e+01    1.160207e+00
  2.137268e+01    1.170160e+00
  2.138855e+01    1.181647e+00
  2.140443e+01    1.174267e+00
  2.142031e+01    1.190377e+00
  2.143618e+01    1.225240e+00
  2.145206e+01    1.253936e+00
  2.146793e+01    1.241676e+00
  2.148381e+01    1.253776e+00
  2.149968e+01    1.280138e+00
  2.151556e+01    1.318304e+00
  2.153143e+01    1.341768e+00
  2.154731e+01    1.358893e+00
  2.156319e+01    1.432015e+00
  2.157906e+01    1.447496e+00
  2.159494e+01    1.482665e+00
  2.161081e+01    1.574397e+00
  2.162669e+01    1.666572e+00
  2.164256e+01    1.759282e+00
  2.165844e+01    1.875074e+00
  2.167431e+01    1.974479e+00
  2.169019e+01    2.147137e+00
  2.170607e+01    2.347468e+00
  2.172194e+01    2.593271e+00
  2.173782e+01    2.893041e+00
  2.175369e+01    3.282039e+00
  2.176957e+01    3.741418e+00
  2.178544e+01    4.232641e+00
  2.180132e+01    4.964848e+00
  2.181719e+01    5.683867e+00
  2.183307e+01    6.447639e+00
  2.184895e+01    7.270799e+00
  2.186482e+01    8.161189e+00
  2.188070e+01    9.049351e+00
  2.189657e+01    9.908064e+00
  2.191245e+01    1.056900e+01
  2.192832e+01    1.088380e+01
  2.194420e+01    1.074958e+01
  2.196007e+01    1.018317e+01
  2.197595e+01    9.191372e+00
  2.199183e+01    8.044089e+00
  2.200770e+01    6.874002e+00
  2.202358e+01    5.757796e+00
  2.203945e+01    4.878938e+00
  2.205533e+01    4.177284e+00
  2.207120e+01    3.651743e+00
  2.208708e+01    3.213581e+00
  2.210296e+01    2.804283e+00
  2.211883e+01    2.517001e+00
  2.213471e+01    2.276955e+00
  2.215058e+01    2.078221e+00
  2.216646e+01    1.925285e+00
  2.218233e+01    1.795133e+00
  2.219821e+01    1.711997e+00
  2.221408e+01    1.584535e+00
  2.222996e+01    1.512112e+00
  2.224584e+01    1.424717e+00
  2.226171e+01    1.420843e+00
  2.227759e+01    1.389347e+00
  2.229346e+01    1.347885e+00
  2.230934e+01    1.307619e+00
  2.232521e+01    1.261827e+00
  2.234109e+01    1.223163e+00
  2.235696e+01    1.190043e+00
  2.237284e+01    1.183519e+00
  2.238872e+01    1.166949e+00
  2.240459e+01    1.141340e+00
  2.242047e+01    1.137672e+00
  2.243634e+01    1.106095e+00
  2.245222e+01    1.115722e+00
  2.246809e+01    1.093855e+00
  2.248397e+01    1.077827e+00
  2.249984e+01    1.074228e+00
  2.251572e+01    1.059790e+00
  2.253160e+01    1.033188e+00
  2.254747e+01    1.054636e+00
  2.256335e+01    1.035520e+00
  2.257922e+01    1.038730e+00
  2.259510e+01    1.026545e+00
  2.261097e+01    1.016943e+00
  2.262685e+01    1.017319e+00
  2.264272e+01    1.001072e+00
  2.265860e+01    1.018591e+00
  2.267448e+01    1.003319e+00
  2.269035e+01    9.844266e-01
  2.270623e+01    1.005284e+00
  2.272210e+01    9.978226e-01
  2.273798e+01    9.858099e-01
  2.275385e+01    9.770813e-01
  2.276973e+01    9.788346e-01
  2.278560e+01    9.623218e-01
  2.280148e+01    9.457768e-01
  2.281736e+01    9.457453e-01
  2.283323e+01    9.380080e-01
  2.284911e+01    9.134336e-01
  2.286498e+01    9.163663e-01
  2.288086e+01    9.370449e-01
  2.289673e+01    9.332536e-01
  2.291261e+01    9.480700e-01
  2.292848e+01    9.282733e-01
  2.294436e+01    9.270372e-01
  2.296024e+01    9.067398e-01
  2.297611e+01    9.046035e-01
  2.299199e+01    9.127265e-01
  2.300786e+01    9.284219e-01
  2.302374e+01    9.189157e-01
  2.303961e+01    9.024613e-01
  2.305549e+01    8.916823e-01
  2.307137e+01    8.955823e-01
  2.308724e+01    9.166946e-01
  2.310312e+01    9.074106e-01
  2.311899e+01    9.094573e-01
  2.313487e+01    9.140666e-01
  2.315074e+01    9.244069e-01
  2.316662e+01    9.220989e-01
  2.318249e+01    9.026670e-01
  2.319837e+01    8.994518e-01
  2.321425e+01    8.873981e-01
  2.323012e+01    8.838094e-01
  2.324600e+01    8.832842e-01
  2.326187e+01    8.749105e-01
  2.327775e+01    8.781325e-01
  2.329362e+01    8.638856e-01
  2.330950e+01    8.753936e-01
  2.332537e+01    8.717127e-01
  2.334125e+01    8.810854e-01
  2.335713e+01    8.678053e-01
  2.337300e+01    8.733823e-01
  2.338888e+01    8.959169e-01
  2.340475e+01    8.945386e-01
  2.342063e+01    8.708373e-01
  2.343650e+01    8.781151e-01
  2.345238e+01    8.659924e-01
  2.346825e+01    8.651573e-01
  2.348413e+01    8.797411e-01
  2.350001e+01    8.783965e-01
  2.351588e+01    8.655686e-01
  2.353176e+01    8.759730e-01
  2.354763e+01    8.676046e-01
  2.356351e+01    8.439719e-01
  2.357938e+01    8.496786e-01
  2.359526e+01    8.674506e-01
  2.361113e+01    8.743352e-01
  2.362701e+01    8.556988e-01
  2.364289e+01    8.418915e-01
  2.365876e+01    8.434474e-01
  2.367464e+01    8.262045e-01
  2.369051e+01    8.400626e-01
  2.370639e+01    8.376198e-01
  2.372226e+01    8.490776e-01
  2.373814e+01    8.307836e-01
  2.375401e+01    8.234307e-01
  2.376989e+01    8.289093e-01
  2.378577e+01    8.248470e-01
  2.380164e+01    8.144565e-01
  2.381752e+01    8.299094e-01
  2.383339e+01    8.288700e-01
  2.384927e+01    8.247203e-01
  2.386514e+01    8.230903e-01
  2.388102e+01    8.019722e-01
  2.389689e+01    7.956353e-01
  2.391277e+01    8.356597e-01
  2.392865e+01    8.351068e-01
  2.394452e+01    8.209664e-01
  2.396040e+01    8.044573e-01
  2.397627e+01    8.103142e-01
  2.399215e+01    8.100939e-01
  2.400802e+01    8.232389e-01
  2.402390e+01    8.205922e-01
  2.403978e+01    8.175660e-01
  2.405565e+01    8.172669e-01
  2.407153e+01    7.886775e-01
  2.408740e+01    8.121331e-01
  2.410328e+01    8.038623e-01
  2.411915e+01    7.977291e-01
  2.413503e+01    7.941968e-01
  2.415090e+01    8.023679e-01
  2.416678e+01    8.048155e-01
  2.418266e+01    7.997065e-01
  2.419853e+01    7.849732e-01
  2.421441e+01    7.905231e-01
  2.423028e+01    7.915012e-01
  2.424616e+01    7.836071e-01
  2.426203e+01    8.045695e-01
  2.427791e+01    8.109563e-01
  2.429378e+01    8.280252e-01
  2.430966e+01    8.048266e-01
  2.432554e+01    8.099948e-01
  2.434141e+01    8.185219e-01
  2.435729e+01    8.077185e-01
  2.437316e+01    8.203102e-01
  2.438904e+01    8.213677e-01
  2.440491e+01    7.982652e-01
  2.442079e+01    7.966600e-01
  2.443666e+01    7.895460e-01
  2.445254e+01    7.853634e-01
  2.446842e+01    8.050571e-01
  2.448429e+01    8.081257e-01
  2.450017e+01    7.897936e-01
  2.451604e+01    8.001633e-01
  2.453192e+01    7.919519e-01
  2.454779e+01    8.132607e-01
  2.456367e+01    8.174736e-01
  2.457954e+01    8.124366e-01
  2.459542e+01    8.088593e-01
  2.461130e+01    7.934484e-01
  2.462717e+01    7.951815e-01
  2.464305e+01    8.038736e-01
  2.465892e+01    8.105126e-01
  2.467480e+01    8.244072e-01
  2.469067e+01    7.950379e-01
  2.470655e+01    7.841439e-01
  2.472242e+01    7.956450e-01
  2.473830e+01    8.365006e-01
  2.475418e+01    7.987342e-01
  2.477005e+01    8.078694e-01
  2.478593e+01    8.104702e-01
  2.480180e+01    8.003357e-01
  2.481768e+01    8.141682e-01
  2.483355e+01    8.070295e-01
  2.484943e+01    7.937278e-01
  2.486530e+01    7.903954e-01
  2.488118e+01    8.152838e-01
  2.489706e+01    7.977833e-01
  2.491293e+01    8.091672e-01
  2.492881e+01    7.987083e-01
  2.494468e+01    7.865524e-01
  2.496056e+01    8.022327e-01
  2.497643e+01    8.084508e-01
  2.499231e+01    8.211255e-01
  2.500819e+01    8.146080e-01
  2.502406e+01    8.161549e-01
  2.503994e+01    8.171393e-01
  2.505581e+01    8.056091e-01
  2.507169e+01    8.265109e-01
  2.508756e+01    8.115164e-01
  2.510344e+01    8.287187e-01
  2.511931e+01    8.366982e-01
  2.513519e+01    8.358330e-01
  2.515107e+01    8.246989e-01
  2.516694e+01    8.366365e-01
  2.518282e+01    8.348163e-01
  2.519869e+01    8.465109e-01
  2.521457e+01    8.570240e-01
  2.523044e+01    8.652143e-01
  2.524632e+01    8.897498e-01
  2.526219e+01    8.807611e-01
  2.527807e+01    8.666824e-01
  2.529395e+01    8.719526e-01
  2.530982e+01    8.878306e-01
  2.532570e+01    8.889083e-01
  2.534157e+01    8.922131e-01
  2.535745e+01    8.888299e-01
  2.537332e+01    8.986632e-01
  2.538920e+01    9.245530e-01
  2.540507e+01    9.074284e-01
  2.542095e+01    9.051682e-01
  2.543683e+01    9.192622e-01
  2.545270e+01    9.389153e-01
  2.546858e+01    9.621114e-01
  2.548445e+01    9.782692e-01
  2.550033e+01    9.863983e-01
  2.551620e+01    9.965892e-01
  2.553208e+01    1.011664e+00
  2.554795e+01    1.027987e+00
  2.556383e+01    1.047200e+00
  2.557971e+01    1.073839e+00
  2.559558e+01    1.110569e+00
  2.561146e+01    1.126443e+00
  2.562733e+01    1.166608e+00
  2.564321e+01    1.188256e+00
  2.565908e+01    1.248312e+00
  2.567496e+01    1.280902e+00
  2.569083e+01    1.331728e+00
  2.570671e+01    1.433646e+00
  2.572259e+01    1.495488e+00
  2.573846e+01    1.565394e+00
  2.575434e+01    1.684129e+00
  2.577021e+01    1.831935e+00
  2.578609e+01    2.022679e+00
  2.580196e+01    2.233988e+00
  2.581784e+01    2.498492e+00
  2.583371e+01    2.840910e+00
  2.584959e+01    3.242532e+00
  2.586547e+01    3.728117e+00
  2.588134e+01    4.284459e+00
  2.589722e+01    4.962892e+00
  2.591309e+01    5.659050e+00
  2.592897e+01    6.455914e+00
  2.594484e+01    7.245452e+00
  2.596072e+01    7.942202e+00
  2.597660e+01    8.556154e+00
  2.599247e+01    8.983794e+00
  2.600835e+01    9.007761e+00
  2.602422e+01    8.657869e+00
  2.604010e+01    8.038051e+00
  2.605597e+01    7.231808e+00
  2.607185e+01    6.381238e+00
  2.608772e+01    5.405980e+00
  2.610360e+01    4.595051e+00
  2.611948e+01    3.932344e+00
  2.613535e+01    3.389921e+00
  2.615123e+01    2.960367e+00
  2.616710e+01    2.602780e+00
  2.618298e+01    2.328865e+00
  2.619885e+01    2.081769e+00
  2.621473e+01    1.910218e+00
  2.623060e+01    1.745656e+00
  2.624648e+01    1.612883e+00
  2.626236e+01    1.535583e+00
  2.627823e+01    1.442150e+00
  2.629411e+01    1.370082e+00
  2.630998e+01    1.321809e+00
  2.632586e+01    1.252699e+00
  2.634173e+01    1.212501e+00
  2.635761e+01    1.180414e+00
  2.637348e+01    1.158276e+00
  2.638936e+01    1.109913e+00
  2.640524e+01    1.096245e+00
  2.642111e+01    1.051494e+00
  2.643699e+01    1.041033e+00
  2.645286e+01    1.026979e+00
  2.646874e+01    1.000881e+00
  2.648461e+01    1.000437e+00
  2.650049e+01    9.898085e-01
  2.651636e+01    9.836142e-01
  2.653224e+01    9.714853e-01
  2.654812e+01    9.526243e-01
  2.656399e+01    9.623759e-01
  2.657987e+01    9.840047e-01
  2.659574e+01    9.683105e-01
  2.661162e+01    9.483783e-01
  2.662749e+01    9.612525e-01
  2.664337e+01    9.678814e-01
  2.665924e+01    9.391637e-01
  2.667512e+01    9.375952e-01
  2.669100e+01    9.288270e-01
  2.670687e+01    9.261871e-01
  2.672275e+01    9.234482e-01
  2.673862e+01    9.278705e-01
  2.675450e+01    9.302040e-01
  2.677037e+01    9.297175e-01
  2.678625e+01    9.375945e-01
  2.680212e+01    9.173179e-01
  2.681800e+01    9.069307e-01
  2.683388e+01    9.453354e-01
  2.684975e+01    9.343964e-01
  2.686563e+01    9.334741e-01
  2.688150e+01    9.436137e-01
  2.689738e+01    9.501820e-01
  2.691325e+01    9.378972e-01
  2.692913e+01    9.550714e-01
  2.694501e+01    9.462671e-01
  2.696088e+01    9.423548e-01
  2.697676e+01    9.592515e-01
  2.699263e+01    9.961832e-01
  2.700851e+01    1.009197e+00
  2.702438e+01    1.022933e+00
  2.704026e+01    1.056790e+00
  2.705613e+01    1.120909e+00
  2.707201e+01    1.156668e+00
  2.708789e+01    1.229964e+00
  2.710376e+01    1.269783e+00
  2.711964e+01    1.354892e+00
  2.713551e+01    1.476121e+00
  2.715139e+01    1.598690e+00
  2.716726e+01    1.749662e+00
  2.718314e+01    1.905589e+00
  2.719901e+01    2.084481e+00
  2.721489e+01    2.268053e+00
  2.723077e+01    2.427290e+00
  2.724664e+01    2.522353e+00
  2.726252e+01    2.570507e+00
  2.727839e+01    2.547232e+00
  2.729427e+01    2.468815e+00
  2.731014e+01    2.291684e+00
  2.732602e+01    2.080543e+00
  2.734189e+01    1.874627e+00
  2.735777e+01    1.708317e+00
  2.737365e+01    1.540083e+00
  2.738952e+01    1.431346e+00
  2.740540e+01    1.325165e+00
  2.742127e+01    1.269260e+00
  2.743715e+01    1.199949e+00
  2.745302e+01    1.125067e+00
  2.746890e+01    1.079040e+00
  2.748477e+01    1.041757e+00
  2.750065e+01    9.966761e-01
  2.751653e+01    9.842380e-01
  2.753240e+01    9.653100e-01
  2.754828e+01    9.541736e-01
  2.756415e+01    9.383321e-01
  2.758003e+01    9.319990e-01
  2.759590e+01    9.215268e-01
  2.761178e+01    9.060937e-01
  2.762765e+01    9.001347e-01
  2.764353e+01    8.870537e-01
  2.765941e+01    8.659485e-01
  2.767528e+01    8.736221e-01
  2.769116e+01    8.811027e-01
  2.770703e+01    8.616384e-01
  2.772291e+01    8.567378e-01
  2.773878e+01    8.542571e-01
  2.775466e+01    8.423836e-01
  2.777054e+01    8.510092e-01
  2.778641e+01    8.500983e-01
  2.780229e+01    8.351174e-01
  2.781816e+01    8.270426e-01
  2.783404e+01    8.556557e-01
  2.784991e+01    8.293511e-01
  2.786579e+01    8.073434e-01
  2.788166e+01    8.308390e-01
  2.789754e+01    8.104840e-01
  2.791342e+01    8.232353e-01
  2.792929e+01    8.144378e-01
  2.794517e+01    8.382403e-01
  2.796104e+01    8.296517e-01
  2.797692e+01    8.172641e-01
  2.799279e+01    8.212330e-01
  2.800867e+01    8.132638e-01
  2.802454e+01    8.217788e-01
  2.804042e+01    8.231891e-01
  2.805630e+01    8.091854e-01
  2.807217e+01    7.826409e-01
  2.808805e+01    7.968747e-01
  2.810392e+01    8.118063e-01
  2.811980e+01    8.106847e-01
  2.813567e+01    7.978392e-01
  2.815155e+01    7.782192e-01
  2.816742e+01    7.745665e-01
  2.818330e+01    8.014278e-01
  2.819918e+01    7.938470e-01
  2.821505e+01    7.946026e-01
  2.823093e+01    7.984913e-01
  2.824680e+01    7.898654e-01
  2.826268e+01    7.906809e-01
  2.827855e+01    7.862570e-01
  2.829443e+01    7.897680e-01
  2.831030e+01    8.000569e-01
  2.832618e+01    7.886953e-01
  2.834206e+01    7.901747e-01
  2.835793e+01    7.886675e-01
  2.837381e+01    7.730930e-01
  2.838968e+01    7.829280e-01
  2.840556e+01    8.102569e-01
  2.842143e+01    8.058094e-01
  2.843731e+01    7.798137e-01
  2.845318e+01    7.800955e-01
  2.846906e+01    7.787560e-01
  2.848494e+01    7.693164e-01
  2.850081e+01    7.532758e-01
  2.851669e+01    7.751924e-01
  2.853256e+01    7.557216e-01
  2.854844e+01    7.590271e-01
  2.856431e+01    7.795547e-01
  2.858019e+01    7.860819e-01
  2.859606e+01    7.960584e-01
  2.861194e+01    7.662317e-01
  2.862782e+01    7.759373e-01
  2.864369e+01    7.783974e-01
  2.865957e+01    7.912318e-01
  2.867544e+01    7.721772e-01
  2.869132e+01    7.527253e-01
  2.870719e+01    7.652277e-01
  2.872307e+01    7.734421e-01
  2.873895e+01    7.547591e-01
  2.875482e+01    7.732747e-01
  2.877070e+01    7.832465e-01
  2.878657e+01    7.757359e-01
  2.880245e+01    7.781137e-01
  2.881832e+01    7.626504e-01
  2.883420e+01    7.417852e-01
  2.885007e+01    7.662334e-01
  2.886595e+01    7.592804e-01
  2.888183e+01    7.616584e-01
  2.889770e+01    7.650716e-01
  2.891358e+01    7.560457e-01
  2.892945e+01    7.668215e-01
  2.894533e+01    7.431822e-01
  2.896120e+01    7.281241e-01
  2.897708e+01    7.476789e-01
  2.899295e+01    7.403280e-01
  2.900883e+01    7.321505e-01
  2.902471e+01    7.434921e-01
  2.904058e+01    7.357700e-01
  2.905646e+01    7.462609e-01
  2.907233e+01    7.483803e-01
  2.908821e+01    7.546161e-01
  2.910408e+01    7.549137e-01
  2.911996e+01    7.365568e-01
  2.913583e+01    7.294191e-01
  2.915171e+01    7.489000e-01
  2.916759e+01    7.593219e-01
  2.918346e+01    7.544984e-01
  2.919934e+01    7.560656e-01
  2.921521e+01    7.585621e-01
  2.923109e+01    7.452539e-01
  2.924696e+01    7.550830e-01
  2.926284e+01    7.588587e-01
  2.927871e+01    7.858797e-01
  2.929459e+01    7.570242e-01
  2.931047e+01    7.495165e-01
  2.932634e+01    7.346325e-01
  2.934222e+01    7.528756e-01
  2.935809e+01    7.304112e-01
  2.937397e+01    7.481958e-01
  2.938984e+01    7.573465e-01
  2.940572e+01    7.334139e-01
  2.942159e+01    7.147277e-01
  2.943747e+01    7.375960e-01
  2.945335e+01    7.375491e-01
  2.946922e+01    7.345461e-01
  2.948510e+01    7.570440e-01
  2.950097e+01    7.336376e-01
  2.951685e+01    7.179177e-01
  2.953272e+01    7.586823e-01
  2.954860e+01    7.418566e-01
  2.956447e+01    7.299784e-01
  2.958035e+01    7.212006e-01
  2.959623e+01    7.370134e-01
  2.961210e+01    7.236301e-01
  2.962798e+01    7.361287e-01
  2.964385e+01    7.525626e-01
  2.965973e+01    7.507649e-01
  2.967560e+01    7.505813e-01
  2.969148e+01    7.377082e-01
  2.970736e+01    7.381967e-01
  2.972323e+01    7.365252e-01
  2.973911e+01    7.238327e-01
  2.975498e+01    7.319660e-01
  2.977086e+01    7.328036e-01
  2.978673e+01    7.443621e-01
  2.980261e+01    7.392636e-01
  2.981848e+01    7.358731e-01
  2.983436e+01    7.293923e-01
  2.985024e+01    7.287832e-01
  2.986611e+01    7.283147e-01
  2.988199e+01    7.179593e-01
  2.989786e+01    7.184916e-01
  2.991374e+01    7.349567e-01
  2.992961e+01    7.447603e-01
  2.994549e+01    7.404258e-01
  2.996136e+01    7.421879e-01
  2.997724e+01    7.468031e-01
  2.999312e+01    7.387246e-01
  3.000899e+01    7.483330e-01
  3.002487e+01    7.714657e-01
  3.004074e+01    7.457028e-01
  3.005662e+01    7.370223e-01
  3.007249e+01    7.498049e-01
  3.008837e+01    7.412200e-01
  3.010424e+01    7.702641e-01
  3.012012e+01    7.498724e-01
  3.013600e+01    7.198744e-01
  3.015187e+01    7.282681e-01
  3.016775e+01    7.259928e-01
  3.018362e+01    7.251264e-01
  3.019950e+01    7.327802e-01
  3.021537e+01    7.126769e-01
  3.023125e+01    7.290807e-01
  3.024712e+01    7.349572e-01
  3.026300e+01    7.264794e-01
  3.027888e+01    7.081396e-01
  3.029475e+01    7.154531e-01
  3.031063e+01    7.450693e-01
  3.032650e+01    7.215039e-01
  3.034238e+01    7.432209e-01
  3.035825e+01    7.402012e-01
  3.037413e+01    7.344158e-01
  3.039000e+01    7.370085e-01
  3.040588e+01    7.245203e-01
  3.042176e+01    7.254731e-01
  3.043763e+01    7.238775e-01
  3.045351e+01    7.142200e-01
  3.046938e+01    7.219405e-01
  3.048526e+01    7.145311e-01
  3.050113e+01    7.281106e-01
  3.051701e+01    7.058148e-01
  3.053288e+01    7.188681e-01
  3.054876e+01    7.333388e-01
  3.056464e+01    7.117255e-01
  3.058051e+01    7.240591e-01
  3.059639e+01    7.264810e-01
  3.061226e+01    7.208061e-01
  3.062814e+01    7.138643e-01
  3.064401e+01    7.126490e-01
  3.065989e+01    7.195403e-01
  3.067577e+01    7.072201e-01
  3.069164e+01    7.272961e-01
  3.070752e+01    7.309985e-01
  3.072339e+01    7.234316e-01
  3.073927e+01    7.243680e-01
  3.075514e+01    7.331789e-01
  3.077102e+01    7.375110e-01
  3.078689e+01    7.490450e-01
  3.080277e+01    7.464297e-01
  3.081865e+01    7.181988e-01
  3.083452e+01    7.236334e-01
  3.085040e+01    7.375486e-01
  3.086627e+01    7.237859e-01
  3.088215e+01    7.359624e-01
  3.089802e+01    7.427724e-01
  3.091390e+01    7.067081e-01
  3.092977e+01    7.044346e-01
  3.094565e+01    7.379342e-01
  3.096153e+01    7.508742e-01
  3.097740e+01    7.240171e-01
  3.099328e+01    7.257811e-01
  3.100915e+01    7.367777e-01
  3.102503e+01    7.241989e-01
  3.104090e+01    7.159330e-01
  3.105678e+01    7.361364e-01
  3.107265e+01    7.320545e-01
  3.108853e+01    7.216339e-01
  3.110441e+01    7.392951e-01
  3.112028e+01    7.353529e-01
  3.113616e+01    7.287254e-01
  3.115203e+01    7.155156e-01
  3.116791e+01    7.204689e-01
  3.118378e+01    7.421740e-01
  3.119966e+01    7.571294e-01
  3.121553e+01    7.616696e-01
  3.123141e+01    7.193155e-01
  3.124729e+01    7.256395e-01
  3.126316e+01    7.510529e-01
  3.127904e+01    7.694893e-01
  3.129491e+01    7.551321e-01
  3.131079e+01    7.457009e-01
  3.132666e+01    7.436571e-01
  3.134254e+01    7.311027e-01
  3.135841e+01    7.172758e-01
  3.137429e+01    7.272837e-01
  3.139017e+01    7.394729e-01
  3.140604e+01    7.637690e-01
  3.142192e+01    7.679523e-01
  3.143779e+01    7.932314e-01
  3.145367e+01    7.803544e-01
  3.146954e+01    7.702790e-01
  3.148542e+01    7.546418e-01
  3.150129e+01    7.709950e-01
  3.151717e+01    7.740340e-01
  3.153305e+01    7.751272e-01
  3.154892e+01    7.874899e-01
  3.156480e+01    8.072334e-01
  3.158067e+01    8.049242e-01
  3.159655e+01    8.075465e-01
  3.161242e+01    8.173636e-01
  3.162830e+01    8.116155e-01
  3.164418e+01    8.395320e-01
  3.166005e+01    8.779630e-01
  3.167593e+01    9.037500e-01
  3.169180e+01    8.928475e-01
  3.170768e+01    9.288215e-01
  3.172355e+01    9.408752e-01
  3.173943e+01    9.604880e-01
  3.175530e+01    1.022558e+00
  3.177118e+01    1.077668e+00
  3.178706e+01    1.126263e+00
  3.180293e+01    1.192462e+00
  3.181881e+01    1.305698e+00
  3.183468e+01    1.396409e+00
  3.185056e+01    1.539220e+00
  3.186643e+01    1.723091e+00
  3.188231e+01    1.893950e+00
  3.189818e+01    2.077442e+00
  3.191406e+01    2.301625e+00
  3.192994e+01    2.441779e+00
  3.194581e+01    2.535504e+00
  3.196169e+01    2.602918e+00
  3.197756e+01    2.550445e+00
  3.199344e+01    2.462299e+00
  3.200931e+01    2.229390e+00
  3.202519e+01    2.045127e+00
  3.204106e+01    1.861806e+00
  3.205694e+01    1.651382e+00
  3.207282e+01    1.504662e+00
  3.208869e+01    1.365141e+00
  3.210457e+01    1.236609e+00
  3.212044e+01    1.153221e+00
  3.213632e+01    1.102565e+00
  3.215219e+01    1.064852e+00
  3.216807e+01    1.003970e+00
  3.218394e+01    9.500263e-01
  3.219982e+01    9.407896e-01
  3.221570e+01    8.955306e-01
  3.223157e+01    8.783549e-01
  3.224745e+01    8.645276e-01
  3.226332e+01    8.579222e-01
  3.227920e+01    8.404547e-01
  3.229507e+01    8.438470e-01
  3.231095e+01    8.080837e-01
  3.232682e+01    8.091415e-01
  3.234270e+01    7.926574e-01
  3.235858e+01    7.689403e-01
  3.237445e+01    7.732456e-01
  3.239033e+01    7.895515e-01
  3.240620e+01    7.768973e-01
  3.242208e+01    7.815500e-01
  3.243795e+01    7.925065e-01
  3.245383e+01    7.529727e-01
  3.246970e+01    7.706400e-01
  3.248558e+01    7.481809e-01
  3.250146e+01    7.577370e-01
  3.251733e+01    7.631096e-01
  3.253321e+01    7.443287e-01
  3.254908e+01    7.291543e-01
