# == pyFAI calibration ==
# Distance Sample to Detector: 0.3999999939076516 m
# PONI: 9.750e-02, 1.135e-01 m
# Rotations: -0.000175 0.000000 -0.000000 rad
# 
# == Fit2d calibration ==
# Distance Sample-beamCenter: 400.000 mm
# Center: x=1514.000, y=1300.000 pix
# Tilt: 0.010 deg  TiltPlanRot: 0.010 deg
# 
# Detector Detector	 Spline= None	 PixelSize= 7.500e-05, 7.500e-05 m
#    Detector has a mask: False 
#    Detector has a dark current: False 
#    detector has a flat field: False 
# 
# Wavelength: 6.888e-11 m
# Mask applied: user provided
# Dark current applied: False
# Flat field applied: False
# Polarization factor: 0.99
# Normalization factor: 1.0
# --> /home/myspot/data/2024_07_Rosario/Ru-CGO-ex/2024-07-27_002_Ru-CGO-ex_Activtation_ramp_000002_data_000136.dat
#       q_nm^-1             I 
  2.003187e-02    2.195846e-01
  3.590745e-02    6.421730e-02
  5.178302e-02    4.717196e-02
  6.765859e-02    1.197963e-01
  8.353417e-02    1.574232e-01
  9.940974e-02    9.751223e-02
  1.152853e-01    4.149989e-02
  1.311609e-01    2.671503e-03
  1.470365e-01    3.446272e-03
  1.629120e-01    2.788575e-02
  1.787876e-01    4.133462e-02
  1.946632e-01    2.711515e-02
  2.105388e-01    5.368251e-02
  2.264143e-01    6.914636e-02
  2.422899e-01    6.287101e-02
  2.581655e-01    3.152088e-02
  2.740411e-01    1.852328e-03
  2.899166e-01    1.283127e-02
  3.057922e-01    8.325549e-03
  3.216678e-01    2.607189e-02
  3.375433e-01    5.541258e-02
  3.534189e-01    2.131794e-02
  3.692945e-01    2.666610e-02
  3.851701e-01    5.513481e-02
  4.010456e-01    2.169423e-02
  4.169212e-01    2.785377e-02
  4.327968e-01    9.948229e-02
  4.486724e-01    7.572396e-02
  4.645479e-01    3.182539e-02
  4.804235e-01    4.543236e-02
  4.962991e-01    4.566992e-02
  5.121747e-01    6.178745e-02
  5.280502e-01    4.408529e-02
  5.439258e-01    5.790691e-02
  5.598014e-01    2.803087e-02
  5.756770e-01    2.227393e-02
  5.915525e-01    3.241521e-02
  6.074281e-01    2.586055e-02
  6.233037e-01    9.703713e-03
  6.391793e-01    1.933779e-02
  6.550548e-01    2.992273e-02
  6.709304e-01    4.029758e-02
  6.868060e-01    2.212165e-02
  7.026815e-01    2.287584e-02
  7.185571e-01    1.659253e-02
  7.344327e-01    2.087399e-02
  7.503083e-01    4.854459e-02
  7.661838e-01    7.589080e-02
  7.820594e-01    1.103561e-01
  7.979350e-01    1.747925e-01
  8.138106e-01    1.830620e-01
  8.296861e-01    2.628362e-01
  8.455617e-01    3.446457e-01
  8.614373e-01    3.319203e-01
  8.773129e-01    3.743793e-01
  8.931884e-01    4.630238e-01
  9.090640e-01    5.508190e-01
  9.249396e-01    6.173279e-01
  9.408152e-01    6.839224e-01
  9.566907e-01    8.765408e-01
  9.725663e-01    9.359722e-01
  9.884419e-01    9.906047e-01
  1.004317e+00    9.558936e-01
  1.020193e+00    9.697059e-01
  1.036069e+00    1.127440e+00
  1.051944e+00    1.178084e+00
  1.067820e+00    1.268159e+00
  1.083695e+00    1.252609e+00
  1.099571e+00    1.314606e+00
  1.115446e+00    1.338621e+00
  1.131322e+00    1.384179e+00
  1.147198e+00    1.466936e+00
  1.163073e+00    1.492311e+00
  1.178949e+00    1.585200e+00
  1.194824e+00    1.520969e+00
  1.210700e+00    1.778088e+00
  1.226575e+00    2.129162e+00
  1.242451e+00    2.167360e+00
  1.258327e+00    2.296342e+00
  1.274202e+00    2.289613e+00
  1.290078e+00    2.318797e+00
  1.305953e+00    2.429356e+00
  1.321829e+00    2.422216e+00
  1.337705e+00    2.423732e+00
  1.353580e+00    2.391286e+00
  1.369456e+00    2.443103e+00
  1.385331e+00    2.492606e+00
  1.401207e+00    2.512294e+00
  1.417082e+00    2.763155e+00
  1.432958e+00    2.705175e+00
  1.448834e+00    2.696868e+00
  1.464709e+00    2.725542e+00
  1.480585e+00    2.798007e+00
  1.496460e+00    2.772308e+00
  1.512336e+00    2.874946e+00
  1.528211e+00    2.828233e+00
  1.544087e+00    2.788569e+00
  1.559963e+00    2.952791e+00
  1.575838e+00    2.978356e+00
  1.591714e+00    2.870973e+00
  1.607589e+00    2.826845e+00
  1.623465e+00    2.936785e+00
  1.639340e+00    2.775024e+00
  1.655216e+00    2.756894e+00
  1.671092e+00    2.773633e+00
  1.686967e+00    2.801416e+00
  1.702843e+00    2.813042e+00
  1.718718e+00    2.912800e+00
  1.734594e+00    2.880795e+00
  1.750469e+00    2.710367e+00
  1.766345e+00    2.735829e+00
  1.782221e+00    2.820151e+00
  1.798096e+00    2.824762e+00
  1.813972e+00    2.668279e+00
  1.829847e+00    2.679324e+00
  1.845723e+00    2.819342e+00
  1.861598e+00    2.844759e+00
  1.877474e+00    2.848747e+00
  1.893350e+00    2.733610e+00
  1.909225e+00    2.789133e+00
  1.925101e+00    2.830081e+00
  1.940976e+00    2.867128e+00
  1.956852e+00    2.810701e+00
  1.972727e+00    2.707765e+00
  1.988603e+00    2.645573e+00
  2.004479e+00    2.718110e+00
  2.020354e+00    2.894193e+00
  2.036230e+00    2.740490e+00
  2.052105e+00    2.642429e+00
  2.067981e+00    2.681002e+00
  2.083856e+00    2.628442e+00
  2.099732e+00    2.730443e+00
  2.115608e+00    2.707564e+00
  2.131483e+00    2.692214e+00
  2.147359e+00    2.732353e+00
  2.163234e+00    2.721253e+00
  2.179110e+00    2.605763e+00
  2.194985e+00    2.606444e+00
  2.210861e+00    2.627060e+00
  2.226737e+00    2.728478e+00
  2.242612e+00    2.782124e+00
  2.258488e+00    2.862934e+00
  2.274363e+00    2.783036e+00
  2.290239e+00    2.757943e+00
  2.306115e+00    2.738580e+00
  2.321990e+00    2.705879e+00
  2.337866e+00    2.633191e+00
  2.353741e+00    2.753667e+00
  2.369617e+00    2.762542e+00
  2.385492e+00    2.722265e+00
  2.401368e+00    2.818066e+00
  2.417244e+00    2.874684e+00
  2.433119e+00    2.866272e+00
  2.448995e+00    2.744025e+00
  2.464870e+00    2.675733e+00
  2.480746e+00    2.698062e+00
  2.496621e+00    2.640959e+00
  2.512497e+00    2.617436e+00
  2.528373e+00    2.677458e+00
  2.544248e+00    2.763975e+00
  2.560124e+00    2.764421e+00
  2.575999e+00    2.723402e+00
  2.591875e+00    2.736371e+00
  2.607750e+00    2.751647e+00
  2.623626e+00    2.762563e+00
  2.639502e+00    2.736358e+00
  2.655377e+00    2.741692e+00
  2.671253e+00    2.703891e+00
  2.687128e+00    2.716197e+00
  2.703004e+00    2.833586e+00
  2.718879e+00    2.728045e+00
  2.734755e+00    2.690274e+00
  2.750631e+00    2.668393e+00
  2.766506e+00    2.703296e+00
  2.782382e+00    2.775471e+00
  2.798257e+00    2.793953e+00
  2.814133e+00    2.795005e+00
  2.830008e+00    2.759096e+00
  2.845884e+00    2.814101e+00
  2.861760e+00    2.857621e+00
  2.877635e+00    2.851618e+00
  2.893511e+00    2.823076e+00
  2.909386e+00    2.801187e+00
  2.925262e+00    2.764230e+00
  2.941137e+00    2.827864e+00
  2.957013e+00    2.873432e+00
  2.972889e+00    2.882832e+00
  2.988764e+00    2.884706e+00
  3.004640e+00    2.813986e+00
  3.020515e+00    2.743254e+00
  3.036391e+00    2.798094e+00
  3.052266e+00    2.843674e+00
  3.068142e+00    2.888928e+00
  3.084018e+00    2.888260e+00
  3.099893e+00    2.895352e+00
  3.115769e+00    2.843789e+00
  3.131644e+00    2.876206e+00
  3.147520e+00    2.905848e+00
  3.163395e+00    2.865422e+00
  3.179271e+00    2.952045e+00
  3.195147e+00    2.908039e+00
  3.211022e+00    2.875728e+00
  3.226898e+00    2.863674e+00
  3.242773e+00    2.918833e+00
  3.258649e+00    2.835780e+00
  3.274525e+00    2.815273e+00
  3.290400e+00    2.918860e+00
  3.306276e+00    2.891777e+00
  3.322151e+00    2.876374e+00
  3.338027e+00    2.942688e+00
  3.353902e+00    2.985313e+00
  3.369778e+00    2.882952e+00
  3.385654e+00    2.878143e+00
  3.401529e+00    2.934908e+00
  3.417405e+00    2.900856e+00
  3.433280e+00    2.828753e+00
  3.449156e+00    2.834765e+00
  3.465031e+00    2.845069e+00
  3.480907e+00    2.934219e+00
  3.496783e+00    2.960133e+00
  3.512658e+00    2.879263e+00
  3.528534e+00    2.830235e+00
  3.544409e+00    2.894948e+00
  3.560285e+00    2.874783e+00
  3.576160e+00    2.921972e+00
  3.592036e+00    3.029253e+00
  3.607912e+00    3.005278e+00
  3.623787e+00    2.939534e+00
  3.639663e+00    2.988605e+00
  3.655538e+00    2.950731e+00
  3.671414e+00    2.966769e+00
  3.687289e+00    2.989452e+00
  3.703165e+00    2.981161e+00
  3.719041e+00    2.966457e+00
  3.734916e+00    2.945036e+00
  3.750792e+00    2.897044e+00
  3.766667e+00    2.960912e+00
  3.782543e+00    2.975465e+00
  3.798418e+00    2.951526e+00
  3.814294e+00    2.941133e+00
  3.830170e+00    3.007579e+00
  3.846045e+00    2.959278e+00
  3.861921e+00    2.914989e+00
  3.877796e+00    3.013522e+00
  3.893672e+00    3.071526e+00
  3.909547e+00    3.126672e+00
  3.925423e+00    3.007195e+00
  3.941299e+00    2.932787e+00
  3.957174e+00    3.002874e+00
  3.973050e+00    2.960639e+00
  3.988925e+00    2.985401e+00
  4.004801e+00    2.967096e+00
  4.020676e+00    2.953224e+00
  4.036552e+00    3.048323e+00
  4.052428e+00    3.029903e+00
  4.068303e+00    2.915701e+00
  4.084179e+00    3.012315e+00
  4.100054e+00    3.065165e+00
  4.115930e+00    2.978888e+00
  4.131806e+00    2.960336e+00
  4.147681e+00    3.009352e+00
  4.163557e+00    2.971317e+00
  4.179432e+00    3.014773e+00
  4.195308e+00    3.029661e+00
  4.211183e+00    3.069864e+00
  4.227059e+00    3.062194e+00
  4.242935e+00    3.035195e+00
  4.258810e+00    3.004389e+00
  4.274686e+00    3.002040e+00
  4.290561e+00    2.988210e+00
  4.306437e+00    3.022927e+00
  4.322312e+00    3.014917e+00
  4.338188e+00    2.992457e+00
  4.354064e+00    2.979115e+00
  4.369939e+00    3.084871e+00
  4.385815e+00    2.992457e+00
  4.401690e+00    3.005375e+00
  4.417566e+00    3.010020e+00
  4.433441e+00    2.991577e+00
  4.449317e+00    2.934111e+00
  4.465193e+00    2.953496e+00
  4.481068e+00    3.029646e+00
  4.496944e+00    3.087243e+00
  4.512819e+00    3.060427e+00
  4.528695e+00    2.998856e+00
  4.544570e+00    3.041130e+00
  4.560446e+00    3.026054e+00
  4.576322e+00    3.055354e+00
  4.592197e+00    3.044408e+00
  4.608073e+00    3.093608e+00
  4.623948e+00    3.029557e+00
  4.639824e+00    2.992246e+00
  4.655699e+00    3.030220e+00
  4.671575e+00    3.136193e+00
  4.687451e+00    3.099101e+00
  4.703326e+00    3.032662e+00
  4.719202e+00    3.112836e+00
  4.735077e+00    3.100195e+00
  4.750953e+00    3.019747e+00
  4.766828e+00    3.046860e+00
  4.782704e+00    3.030803e+00
  4.798580e+00    3.108546e+00
  4.814455e+00    3.127818e+00
  4.830331e+00    3.061489e+00
  4.846206e+00    3.031080e+00
  4.862082e+00    3.022118e+00
  4.877957e+00    3.115051e+00
  4.893833e+00    3.145962e+00
  4.909709e+00    3.063241e+00
  4.925584e+00    3.070852e+00
  4.941460e+00    3.115196e+00
  4.957335e+00    3.065066e+00
  4.973211e+00    3.035147e+00
  4.989086e+00    3.117206e+00
  5.004962e+00    3.213003e+00
  5.020838e+00    3.142794e+00
  5.036713e+00    3.113718e+00
  5.052589e+00    3.036878e+00
  5.068464e+00    3.068883e+00
  5.084340e+00    3.092113e+00
  5.100216e+00    3.123984e+00
  5.116091e+00    3.036377e+00
  5.131967e+00    3.087913e+00
  5.147842e+00    3.134243e+00
  5.163718e+00    3.114228e+00
  5.179593e+00    3.104511e+00
  5.195469e+00    3.067859e+00
  5.211345e+00    3.036009e+00
  5.227220e+00    3.072693e+00
  5.243096e+00    3.080799e+00
  5.258971e+00    3.041342e+00
  5.274847e+00    3.121609e+00
  5.290722e+00    3.238491e+00
  5.306598e+00    3.178709e+00
  5.322474e+00    3.155137e+00
  5.338349e+00    3.190887e+00
  5.354225e+00    3.158530e+00
  5.370100e+00    3.117616e+00
  5.385976e+00    3.034133e+00
  5.401851e+00    3.066922e+00
  5.417727e+00    3.122255e+00
  5.433603e+00    3.119041e+00
  5.449478e+00    3.057003e+00
  5.465354e+00    3.072796e+00
  5.481229e+00    3.085859e+00
  5.497105e+00    3.072680e+00
  5.512980e+00    3.048853e+00
  5.528856e+00    3.047806e+00
  5.544732e+00    3.110989e+00
  5.560607e+00    3.107816e+00
  5.576483e+00    3.076784e+00
  5.592358e+00    2.999937e+00
  5.608234e+00    3.078017e+00
  5.624109e+00    3.087234e+00
  5.639985e+00    3.035439e+00
  5.655861e+00    3.058280e+00
  5.671736e+00    3.068380e+00
  5.687612e+00    3.047879e+00
  5.703487e+00    3.039295e+00
  5.719363e+00    3.065505e+00
  5.735238e+00    3.016331e+00
  5.751114e+00    3.046533e+00
  5.766990e+00    3.061449e+00
  5.782865e+00    3.110500e+00
  5.798741e+00    3.125219e+00
  5.814616e+00    3.052446e+00
  5.830492e+00    2.969614e+00
  5.846367e+00    2.990977e+00
  5.862243e+00    3.039621e+00
  5.878119e+00    3.126738e+00
  5.893994e+00    3.032682e+00
  5.909870e+00    3.109605e+00
  5.925745e+00    3.114440e+00
  5.941621e+00    3.018645e+00
  5.957497e+00    3.064363e+00
  5.973372e+00    3.004621e+00
  5.989248e+00    2.973477e+00
  6.005123e+00    3.050300e+00
  6.020999e+00    3.031747e+00
  6.036874e+00    2.942000e+00
  6.052750e+00    2.931917e+00
  6.068626e+00    2.978642e+00
  6.084501e+00    3.031503e+00
  6.100377e+00    2.990152e+00
  6.116252e+00    2.966472e+00
  6.132128e+00    3.009848e+00
  6.148003e+00    2.946956e+00
  6.163879e+00    2.963101e+00
  6.179755e+00    3.068219e+00
  6.195630e+00    3.067338e+00
  6.211506e+00    3.050589e+00
  6.227381e+00    3.113002e+00
  6.243257e+00    3.108502e+00
  6.259132e+00    3.134712e+00
  6.275008e+00    3.065728e+00
  6.290884e+00    3.057435e+00
  6.306759e+00    3.072019e+00
  6.322635e+00    3.028135e+00
  6.338510e+00    2.955498e+00
  6.354386e+00    2.992210e+00
  6.370261e+00    3.112278e+00
  6.386137e+00    3.051224e+00
  6.402013e+00    3.021229e+00
  6.417888e+00    3.018785e+00
  6.433764e+00    2.990865e+00
  6.449639e+00    3.030103e+00
  6.465515e+00    3.016900e+00
  6.481390e+00    2.989206e+00
  6.497266e+00    2.996664e+00
  6.513142e+00    3.016216e+00
  6.529017e+00    2.961646e+00
  6.544893e+00    3.078104e+00
  6.560768e+00    2.991995e+00
  6.576644e+00    2.890273e+00
  6.592519e+00    2.996075e+00
  6.608395e+00    3.060411e+00
  6.624271e+00    2.999770e+00
  6.640146e+00    2.983567e+00
  6.656022e+00    2.935816e+00
  6.671897e+00    2.929501e+00
  6.687773e+00    2.925601e+00
  6.703648e+00    2.972639e+00
  6.719524e+00    3.002893e+00
  6.735400e+00    3.125013e+00
  6.751275e+00    3.099004e+00
  6.767151e+00    3.044034e+00
  6.783026e+00    2.960693e+00
  6.798902e+00    3.057062e+00
  6.814777e+00    3.056530e+00
  6.830653e+00    3.039475e+00
  6.846529e+00    3.046655e+00
  6.862404e+00    3.027402e+00
  6.878280e+00    3.087579e+00
  6.894155e+00    2.998550e+00
  6.910031e+00    3.015309e+00
  6.925907e+00    3.000440e+00
  6.941782e+00    3.064049e+00
  6.957658e+00    3.068321e+00
  6.973533e+00    2.993907e+00
  6.989409e+00    3.000765e+00
  7.005284e+00    3.013815e+00
  7.021160e+00    3.001255e+00
  7.037036e+00    2.922123e+00
  7.052911e+00    2.950347e+00
  7.068787e+00    2.980646e+00
  7.084662e+00    2.980865e+00
  7.100538e+00    2.969164e+00
  7.116413e+00    3.013193e+00
  7.132289e+00    2.969739e+00
  7.148165e+00    2.907117e+00
  7.164040e+00    2.936593e+00
  7.179916e+00    3.004703e+00
  7.195791e+00    2.950411e+00
  7.211667e+00    2.964740e+00
  7.227542e+00    2.963598e+00
  7.243418e+00    2.904489e+00
  7.259294e+00    2.973198e+00
  7.275169e+00    2.917070e+00
  7.291045e+00    2.927165e+00
  7.306920e+00    2.893068e+00
  7.322796e+00    2.961173e+00
  7.338671e+00    2.932119e+00
  7.354547e+00    2.990333e+00
  7.370423e+00    3.003409e+00
  7.386298e+00    2.926567e+00
  7.402174e+00    2.921237e+00
  7.418049e+00    2.997300e+00
  7.433925e+00    2.967634e+00
  7.449800e+00    2.969748e+00
  7.465676e+00    2.929468e+00
  7.481552e+00    2.914784e+00
  7.497427e+00    2.993893e+00
  7.513303e+00    2.966859e+00
  7.529178e+00    2.980711e+00
  7.545054e+00    2.986107e+00
  7.560929e+00    2.912189e+00
  7.576805e+00    2.944973e+00
  7.592681e+00    2.972440e+00
  7.608556e+00    2.928694e+00
  7.624432e+00    2.938897e+00
  7.640307e+00    2.993755e+00
  7.656183e+00    3.001311e+00
  7.672058e+00    2.967572e+00
  7.687934e+00    2.900820e+00
  7.703810e+00    2.953266e+00
  7.719685e+00    2.956566e+00
  7.735561e+00    2.929852e+00
  7.751436e+00    2.891114e+00
  7.767312e+00    2.927853e+00
  7.783187e+00    2.958805e+00
  7.799063e+00    2.889037e+00
  7.814939e+00    2.881463e+00
  7.830814e+00    2.932496e+00
  7.846690e+00    2.901158e+00
  7.862565e+00    2.840344e+00
  7.878441e+00    2.876381e+00
  7.894317e+00    2.939172e+00
  7.910192e+00    2.883454e+00
  7.926068e+00    2.851185e+00
  7.941943e+00    2.868419e+00
  7.957819e+00    2.919426e+00
  7.973694e+00    2.930113e+00
  7.989570e+00    2.928025e+00
  8.005446e+00    2.887610e+00
  8.021321e+00    2.917421e+00
  8.037197e+00    2.896333e+00
  8.053072e+00    2.870885e+00
  8.068948e+00    2.908763e+00
  8.084823e+00    2.927521e+00
  8.100699e+00    2.930468e+00
  8.116575e+00    2.967202e+00
  8.132450e+00    2.973414e+00
  8.148326e+00    2.971909e+00
  8.164201e+00    3.011856e+00
  8.180077e+00    3.023941e+00
  8.195952e+00    2.889396e+00
  8.211828e+00    2.961439e+00
  8.227704e+00    2.961001e+00
  8.243579e+00    2.947081e+00
  8.259455e+00    2.975539e+00
  8.275330e+00    2.922296e+00
  8.291206e+00    2.891401e+00
  8.307081e+00    2.900780e+00
  8.322957e+00    2.950600e+00
  8.338833e+00    2.917385e+00
  8.354708e+00    2.974885e+00
  8.370584e+00    2.935676e+00
  8.386459e+00    2.872888e+00
  8.402335e+00    2.827983e+00
  8.418210e+00    2.915399e+00
  8.434086e+00    2.876769e+00
  8.449962e+00    2.851951e+00
  8.465837e+00    2.823381e+00
  8.481713e+00    2.806229e+00
  8.497588e+00    2.851664e+00
  8.513464e+00    2.901948e+00
  8.529339e+00    2.851484e+00
  8.545215e+00    2.853544e+00
  8.561091e+00    2.860576e+00
  8.576966e+00    2.887996e+00
  8.592842e+00    2.873127e+00
  8.608717e+00    2.884187e+00
  8.624593e+00    2.903774e+00
  8.640468e+00    2.906136e+00
  8.656344e+00    2.883823e+00
  8.672220e+00    2.858273e+00
  8.688095e+00    2.860480e+00
  8.703971e+00    2.847930e+00
  8.719846e+00    2.853961e+00
  8.735722e+00    2.827169e+00
  8.751598e+00    2.847908e+00
  8.767473e+00    2.835078e+00
  8.783349e+00    2.798814e+00
  8.799224e+00    2.810447e+00
  8.815100e+00    2.814683e+00
  8.830975e+00    2.774657e+00
  8.846851e+00    2.790030e+00
  8.862727e+00    2.781520e+00
  8.878602e+00    2.785610e+00
  8.894478e+00    2.795360e+00
  8.910353e+00    2.834616e+00
  8.926229e+00    2.871139e+00
  8.942104e+00    2.867986e+00
  8.957980e+00    2.813685e+00
  8.973856e+00    2.819389e+00
  8.989731e+00    2.819946e+00
  9.005607e+00    2.758472e+00
  9.021482e+00    2.772600e+00
  9.037358e+00    2.769770e+00
  9.053233e+00    2.778427e+00
  9.069109e+00    2.821108e+00
  9.084985e+00    2.810615e+00
  9.100860e+00    2.802751e+00
  9.116736e+00    2.775074e+00
  9.132611e+00    2.788802e+00
  9.148487e+00    2.807519e+00
  9.164362e+00    2.820665e+00
  9.180238e+00    2.802665e+00
  9.196114e+00    2.771801e+00
  9.211989e+00    2.744204e+00
  9.227865e+00    2.808190e+00
  9.243740e+00    2.795169e+00
  9.259616e+00    2.771520e+00
  9.275491e+00    2.761767e+00
  9.291367e+00    2.745161e+00
  9.307243e+00    2.759298e+00
  9.323118e+00    2.796829e+00
  9.338994e+00    2.769594e+00
  9.354869e+00    2.655223e+00
  9.370745e+00    2.686556e+00
  9.386620e+00    2.687512e+00
  9.402496e+00    2.745541e+00
  9.418372e+00    2.788280e+00
  9.434247e+00    2.758914e+00
  9.450123e+00    2.724984e+00
  9.465998e+00    2.737446e+00
  9.481874e+00    2.776018e+00
  9.497749e+00    2.782009e+00
  9.513625e+00    2.766915e+00
  9.529501e+00    2.698513e+00
  9.545376e+00    2.731589e+00
  9.561252e+00    2.758738e+00
  9.577127e+00    2.761287e+00
  9.593003e+00    2.744252e+00
  9.608878e+00    2.671835e+00
  9.624754e+00    2.700326e+00
  9.640630e+00    2.746364e+00
  9.656505e+00    2.711557e+00
  9.672381e+00    2.776169e+00
  9.688256e+00    2.821307e+00
  9.704132e+00    2.810330e+00
  9.720008e+00    2.717681e+00
  9.735883e+00    2.664631e+00
  9.751759e+00    2.675522e+00
  9.767634e+00    2.715272e+00
  9.783510e+00    2.713551e+00
  9.799385e+00    2.742191e+00
  9.815261e+00    2.710976e+00
  9.831137e+00    2.684167e+00
  9.847012e+00    2.676523e+00
  9.862888e+00    2.693505e+00
  9.878763e+00    2.665531e+00
  9.894639e+00    2.693717e+00
  9.910514e+00    2.678326e+00
  9.926390e+00    2.620456e+00
  9.942266e+00    2.647896e+00
  9.958141e+00    2.622946e+00
  9.974017e+00    2.641075e+00
  9.989892e+00    2.675038e+00
  1.000577e+01    2.650105e+00
  1.002164e+01    2.619744e+00
  1.003752e+01    2.658638e+00
  1.005339e+01    2.623118e+00
  1.006927e+01    2.576231e+00
  1.008515e+01    2.565674e+00
  1.010102e+01    2.602027e+00
  1.011690e+01    2.631390e+00
  1.013277e+01    2.636705e+00
  1.014865e+01    2.661262e+00
  1.016452e+01    2.629524e+00
  1.018040e+01    2.607830e+00
  1.019627e+01    2.605943e+00
  1.021215e+01    2.633986e+00
  1.022803e+01    2.589843e+00
  1.024390e+01    2.599742e+00
  1.025978e+01    2.627712e+00
  1.027565e+01    2.648553e+00
  1.029153e+01    2.610723e+00
  1.030740e+01    2.629454e+00
  1.032328e+01    2.655028e+00
  1.033915e+01    2.593213e+00
  1.035503e+01    2.570463e+00
  1.037091e+01    2.590661e+00
  1.038678e+01    2.561063e+00
  1.040266e+01    2.527277e+00
  1.041853e+01    2.573142e+00
  1.043441e+01    2.551060e+00
  1.045028e+01    2.566191e+00
  1.046616e+01    2.550148e+00
  1.048204e+01    2.546947e+00
  1.049791e+01    2.601565e+00
  1.051379e+01    2.574955e+00
  1.052966e+01    2.550544e+00
  1.054554e+01    2.532532e+00
  1.056141e+01    2.542876e+00
  1.057729e+01    2.590447e+00
  1.059316e+01    2.538757e+00
  1.060904e+01    2.540426e+00
  1.062492e+01    2.552291e+00
  1.064079e+01    2.531759e+00
  1.065667e+01    2.530812e+00
  1.067254e+01    2.517750e+00
  1.068842e+01    2.542070e+00
  1.070429e+01    2.534029e+00
  1.072017e+01    2.533751e+00
  1.073604e+01    2.536968e+00
  1.075192e+01    2.541574e+00
  1.076780e+01    2.485349e+00
  1.078367e+01    2.482378e+00
  1.079955e+01    2.494814e+00
  1.081542e+01    2.471631e+00
  1.083130e+01    2.462068e+00
  1.084717e+01    2.451270e+00
  1.086305e+01    2.437750e+00
  1.087892e+01    2.453151e+00
  1.089480e+01    2.467706e+00
  1.091068e+01    2.494118e+00
  1.092655e+01    2.476165e+00
  1.094243e+01    2.441256e+00
  1.095830e+01    2.463992e+00
  1.097418e+01    2.462720e+00
  1.099005e+01    2.471675e+00
  1.100593e+01    2.484225e+00
  1.102180e+01    2.470250e+00
  1.103768e+01    2.484949e+00
  1.105356e+01    2.463491e+00
  1.106943e+01    2.472016e+00
  1.108531e+01    2.483870e+00
  1.110118e+01    2.489731e+00
  1.111706e+01    2.468856e+00
  1.113293e+01    2.427244e+00
  1.114881e+01    2.457100e+00
  1.116468e+01    2.476052e+00
  1.118056e+01    2.479594e+00
  1.119644e+01    2.462724e+00
  1.121231e+01    2.450790e+00
  1.122819e+01    2.417066e+00
  1.124406e+01    2.445509e+00
  1.125994e+01    2.444667e+00
  1.127581e+01    2.455044e+00
  1.129169e+01    2.403283e+00
  1.130756e+01    2.403921e+00
  1.132344e+01    2.407348e+00
  1.133932e+01    2.386112e+00
  1.135519e+01    2.395630e+00
  1.137107e+01    2.410842e+00
  1.138694e+01    2.379531e+00
  1.140282e+01    2.387944e+00
  1.141869e+01    2.387072e+00
  1.143457e+01    2.385886e+00
  1.145045e+01    2.424250e+00
  1.146632e+01    2.393113e+00
  1.148220e+01    2.387319e+00
  1.149807e+01    2.395083e+00
  1.151395e+01    2.384333e+00
  1.152982e+01    2.366976e+00
  1.154570e+01    2.423109e+00
  1.156157e+01    2.424874e+00
  1.157745e+01    2.439108e+00
  1.159333e+01    2.411683e+00
  1.160920e+01    2.381458e+00
  1.162508e+01    2.380063e+00
  1.164095e+01    2.340646e+00
  1.165683e+01    2.342999e+00
  1.167270e+01    2.333725e+00
  1.168858e+01    2.352571e+00
  1.170445e+01    2.354166e+00
  1.172033e+01    2.363699e+00
  1.173621e+01    2.337275e+00
  1.175208e+01    2.294673e+00
  1.176796e+01    2.317147e+00
  1.178383e+01    2.335541e+00
  1.179971e+01    2.345686e+00
  1.181558e+01    2.325771e+00
  1.183146e+01    2.314536e+00
  1.184733e+01    2.391593e+00
  1.186321e+01    2.334914e+00
  1.187909e+01    2.272434e+00
  1.189496e+01    2.305446e+00
  1.191084e+01    2.341230e+00
  1.192671e+01    2.326067e+00
  1.194259e+01    2.310777e+00
  1.195846e+01    2.272808e+00
  1.197434e+01    2.303675e+00
  1.199021e+01    2.346039e+00
  1.200609e+01    2.315935e+00
  1.202197e+01    2.281142e+00
  1.203784e+01    2.328706e+00
  1.205372e+01    2.313098e+00
  1.206959e+01    2.216440e+00
  1.208547e+01    2.316789e+00
  1.210134e+01    2.373620e+00
  1.211722e+01    2.354439e+00
  1.213309e+01    2.319559e+00
  1.214897e+01    2.282152e+00
  1.216485e+01    2.301935e+00
  1.218072e+01    2.308445e+00
  1.219660e+01    2.280029e+00
  1.221247e+01    2.310658e+00
  1.222835e+01    2.323854e+00
  1.224422e+01    2.337470e+00
  1.226010e+01    2.298640e+00
  1.227597e+01    2.320307e+00
  1.229185e+01    2.311511e+00
  1.230773e+01    2.317199e+00
  1.232360e+01    2.312199e+00
  1.233948e+01    2.296329e+00
  1.235535e+01    2.279418e+00
  1.237123e+01    2.335082e+00
  1.238710e+01    2.308800e+00
  1.240298e+01    2.289209e+00
  1.241886e+01    2.356888e+00
  1.243473e+01    2.302422e+00
  1.245061e+01    2.303455e+00
  1.246648e+01    2.336270e+00
  1.248236e+01    2.313057e+00
  1.249823e+01    2.320746e+00
  1.251411e+01    2.340733e+00
  1.252998e+01    2.367674e+00
  1.254586e+01    2.349905e+00
  1.256174e+01    2.337831e+00
  1.257761e+01    2.368602e+00
  1.259349e+01    2.388783e+00
  1.260936e+01    2.397966e+00
  1.262524e+01    2.376089e+00
  1.264111e+01    2.406856e+00
  1.265699e+01    2.378850e+00
  1.267286e+01    2.432580e+00
  1.268874e+01    2.460200e+00
  1.270462e+01    2.453702e+00
  1.272049e+01    2.436415e+00
  1.273637e+01    2.453003e+00
  1.275224e+01    2.507484e+00
  1.276812e+01    2.560532e+00
  1.278399e+01    2.615333e+00
  1.279987e+01    2.649337e+00
  1.281574e+01    2.685214e+00
  1.283162e+01    2.756425e+00
  1.284750e+01    2.833071e+00
  1.286337e+01    2.940078e+00
  1.287925e+01    3.020660e+00
  1.289512e+01    3.132059e+00
  1.291100e+01    3.328292e+00
  1.292687e+01    3.531114e+00
  1.294275e+01    3.714566e+00
  1.295862e+01    3.997243e+00
  1.297450e+01    4.388017e+00
  1.299038e+01    4.809927e+00
  1.300625e+01    5.412116e+00
  1.302213e+01    6.224156e+00
  1.303800e+01    7.130914e+00
  1.305388e+01    8.307725e+00
  1.306975e+01    9.581317e+00
  1.308563e+01    1.076398e+01
  1.310150e+01    1.205687e+01
  1.311738e+01    1.333775e+01
  1.313326e+01    1.460876e+01
  1.314913e+01    1.568443e+01
  1.316501e+01    1.666200e+01
  1.318088e+01    1.716751e+01
  1.319676e+01    1.667609e+01
  1.321263e+01    1.543445e+01
  1.322851e+01    1.355724e+01
  1.324438e+01    1.163998e+01
  1.326026e+01    9.870647e+00
  1.327614e+01    8.270905e+00
  1.329201e+01    7.101588e+00
  1.330789e+01    6.162032e+00
  1.332376e+01    5.367878e+00
  1.333964e+01    4.821518e+00
  1.335551e+01    4.340842e+00
  1.337139e+01    3.950069e+00
  1.338727e+01    3.718837e+00
  1.340314e+01    3.451775e+00
  1.341902e+01    3.191238e+00
  1.343489e+01    3.071378e+00
  1.345077e+01    2.960017e+00
  1.346664e+01    2.834341e+00
  1.348252e+01    2.821473e+00
  1.349839e+01    2.701396e+00
  1.351427e+01    2.581213e+00
  1.353015e+01    2.510836e+00
  1.354602e+01    2.483225e+00
  1.356190e+01    2.444348e+00
  1.357777e+01    2.429661e+00
  1.359365e+01    2.414660e+00
  1.360952e+01    2.374502e+00
  1.362540e+01    2.339400e+00
  1.364127e+01    2.301081e+00
  1.365715e+01    2.275584e+00
  1.367303e+01    2.277994e+00
  1.368890e+01    2.264682e+00
  1.370478e+01    2.269555e+00
  1.372065e+01    2.268431e+00
  1.373653e+01    2.188421e+00
  1.375240e+01    2.177928e+00
  1.376828e+01    2.171749e+00
  1.378415e+01    2.154711e+00
  1.380003e+01    2.147548e+00
  1.381591e+01    2.153941e+00
  1.383178e+01    2.117301e+00
  1.384766e+01    2.105768e+00
  1.386353e+01    2.103419e+00
  1.387941e+01    2.088607e+00
  1.389528e+01    2.076076e+00
  1.391116e+01    2.048218e+00
  1.392703e+01    2.048451e+00
  1.394291e+01    2.057668e+00
  1.395879e+01    2.008102e+00
  1.397466e+01    2.026236e+00
  1.399054e+01    2.012743e+00
  1.400641e+01    2.042336e+00
  1.402229e+01    2.067042e+00
  1.403816e+01    2.087657e+00
  1.405404e+01    2.011822e+00
  1.406991e+01    2.010830e+00
  1.408579e+01    2.023371e+00
  1.410167e+01    1.990427e+00
  1.411754e+01    2.000252e+00
  1.413342e+01    1.971941e+00
  1.414929e+01    1.980009e+00
  1.416517e+01    2.010911e+00
  1.418104e+01    1.986639e+00
  1.419692e+01    1.968650e+00
  1.421279e+01    1.982075e+00
  1.422867e+01    1.947094e+00
  1.424455e+01    1.910698e+00
  1.426042e+01    1.955926e+00
  1.427630e+01    1.974937e+00
  1.429217e+01    2.002787e+00
  1.430805e+01    1.971735e+00
  1.432392e+01    1.917602e+00
  1.433980e+01    1.922633e+00
  1.435568e+01    1.947415e+00
  1.437155e+01    1.961964e+00
  1.438743e+01    1.989415e+00
  1.440330e+01    1.960667e+00
  1.441918e+01    1.941301e+00
  1.443505e+01    1.931752e+00
  1.445093e+01    1.910614e+00
  1.446680e+01    1.908682e+00
  1.448268e+01    1.921450e+00
  1.449856e+01    1.943565e+00
  1.451443e+01    1.951411e+00
  1.453031e+01    1.915452e+00
  1.454618e+01    1.906683e+00
  1.456206e+01    1.913238e+00
  1.457793e+01    1.913059e+00
  1.459381e+01    1.906637e+00
  1.460968e+01    1.901945e+00
  1.462556e+01    1.896268e+00
  1.464144e+01    1.907423e+00
  1.465731e+01    1.906946e+00
  1.467319e+01    1.900248e+00
  1.468906e+01    1.921722e+00
  1.470494e+01    1.884452e+00
  1.472081e+01    1.915184e+00
  1.473669e+01    1.942890e+00
  1.475256e+01    1.875367e+00
  1.476844e+01    1.906235e+00
  1.478432e+01    1.904747e+00
  1.480019e+01    1.925254e+00
  1.481607e+01    1.961653e+00
  1.483194e+01    1.946504e+00
  1.484782e+01    1.913968e+00
  1.486369e+01    1.916874e+00
  1.487957e+01    1.961264e+00
  1.489544e+01    1.949054e+00
  1.491132e+01    1.956211e+00
  1.492720e+01    1.955462e+00
  1.494307e+01    2.002889e+00
  1.495895e+01    2.008903e+00
  1.497482e+01    2.035465e+00
  1.499070e+01    2.084334e+00
  1.500657e+01    2.122057e+00
  1.502245e+01    2.176982e+00
  1.503832e+01    2.281756e+00
  1.505420e+01    2.409677e+00
  1.507008e+01    2.516715e+00
  1.508595e+01    2.657943e+00
  1.510183e+01    2.890746e+00
  1.511770e+01    3.112722e+00
  1.513358e+01    3.403250e+00
  1.514945e+01    3.793070e+00
  1.516533e+01    4.182456e+00
  1.518120e+01    4.492811e+00
  1.519708e+01    4.905665e+00
  1.521296e+01    5.235494e+00
  1.522883e+01    5.485355e+00
  1.524471e+01    5.677826e+00
  1.526058e+01    5.776300e+00
  1.527646e+01    5.821974e+00
  1.529233e+01    5.706093e+00
  1.530821e+01    5.349982e+00
  1.532409e+01    4.856510e+00
  1.533996e+01    4.365458e+00
  1.535584e+01    3.850776e+00
  1.537171e+01    3.383438e+00
  1.538759e+01    3.014184e+00
  1.540346e+01    2.775546e+00
  1.541934e+01    2.564599e+00
  1.543521e+01    2.411028e+00
  1.545109e+01    2.311589e+00
  1.546697e+01    2.174552e+00
  1.548284e+01    2.108434e+00
  1.549872e+01    2.068954e+00
  1.551459e+01    1.985893e+00
  1.553047e+01    1.968450e+00
  1.554634e+01    1.907665e+00
  1.556222e+01    1.855630e+00
  1.557809e+01    1.857708e+00
  1.559397e+01    1.820136e+00
  1.560985e+01    1.798431e+00
  1.562572e+01    1.770674e+00
  1.564160e+01    1.817702e+00
  1.565747e+01    1.847236e+00
  1.567335e+01    1.764089e+00
  1.568922e+01    1.811549e+00
  1.570510e+01    1.778975e+00
  1.572097e+01    1.734207e+00
  1.573685e+01    1.668357e+00
  1.575273e+01    1.691064e+00
  1.576860e+01    1.719436e+00
  1.578448e+01    1.695308e+00
  1.580035e+01    1.673526e+00
  1.581623e+01    1.690858e+00
  1.583210e+01    1.674232e+00
  1.584798e+01    1.664343e+00
  1.586385e+01    1.642096e+00
  1.587973e+01    1.622728e+00
  1.589561e+01    1.622173e+00
  1.591148e+01    1.647972e+00
  1.592736e+01    1.641676e+00
  1.594323e+01    1.609886e+00
  1.595911e+01    1.610327e+00
  1.597498e+01    1.623663e+00
  1.599086e+01    1.647809e+00
  1.600673e+01    1.584578e+00
  1.602261e+01    1.584819e+00
  1.603849e+01    1.612711e+00
  1.605436e+01    1.612702e+00
  1.607024e+01    1.564237e+00
  1.608611e+01    1.571812e+00
  1.610199e+01    1.581592e+00
  1.611786e+01    1.580109e+00
  1.613374e+01    1.568909e+00
  1.614961e+01    1.568885e+00
  1.616549e+01    1.572181e+00
  1.618137e+01    1.554203e+00
  1.619724e+01    1.550448e+00
  1.621312e+01    1.547118e+00
  1.622899e+01    1.568323e+00
  1.624487e+01    1.573344e+00
  1.626074e+01    1.583302e+00
  1.627662e+01    1.577061e+00
  1.629250e+01    1.558502e+00
  1.630837e+01    1.552040e+00
  1.632425e+01    1.551966e+00
  1.634012e+01    1.551214e+00
  1.635600e+01    1.560909e+00
  1.637187e+01    1.542817e+00
  1.638775e+01    1.525504e+00
  1.640362e+01    1.517801e+00
  1.641950e+01    1.501099e+00
  1.643538e+01    1.528930e+00
  1.645125e+01    1.553272e+00
  1.646713e+01    1.545284e+00
  1.648300e+01    1.513639e+00
  1.649888e+01    1.488963e+00
  1.651475e+01    1.508595e+00
  1.653063e+01    1.468819e+00
  1.654650e+01    1.482660e+00
  1.656238e+01    1.492677e+00
  1.657826e+01    1.501636e+00
  1.659413e+01    1.489240e+00
  1.661001e+01    1.522742e+00
  1.662588e+01    1.470461e+00
  1.664176e+01    1.464016e+00
  1.665763e+01    1.479141e+00
  1.667351e+01    1.514671e+00
  1.668938e+01    1.520723e+00
  1.670526e+01    1.475051e+00
  1.672114e+01    1.432359e+00
  1.673701e+01    1.415963e+00
  1.675289e+01    1.441677e+00
  1.676876e+01    1.473665e+00
  1.678464e+01    1.479161e+00
  1.680051e+01    1.479718e+00
  1.681639e+01    1.449187e+00
  1.683226e+01    1.437590e+00
  1.684814e+01    1.420324e+00
  1.686402e+01    1.441622e+00
  1.687989e+01    1.431455e+00
  1.689577e+01    1.456863e+00
  1.691164e+01    1.453498e+00
  1.692752e+01    1.446913e+00
  1.694339e+01    1.426129e+00
  1.695927e+01    1.411793e+00
  1.697514e+01    1.416166e+00
  1.699102e+01    1.419003e+00
  1.700690e+01    1.448376e+00
  1.702277e+01    1.439528e+00
  1.703865e+01    1.435207e+00
  1.705452e+01    1.444525e+00
  1.707040e+01    1.428734e+00
  1.708627e+01    1.410754e+00
  1.710215e+01    1.404961e+00
  1.711802e+01    1.396114e+00
  1.713390e+01    1.407115e+00
  1.714978e+01    1.424780e+00
  1.716565e+01    1.411358e+00
  1.718153e+01    1.404062e+00
  1.719740e+01    1.364313e+00
  1.721328e+01    1.396889e+00
  1.722915e+01    1.393406e+00
  1.724503e+01    1.398058e+00
  1.726091e+01    1.389735e+00
  1.727678e+01    1.403004e+00
  1.729266e+01    1.404281e+00
  1.730853e+01    1.414821e+00
  1.732441e+01    1.381070e+00
  1.734028e+01    1.401651e+00
  1.735616e+01    1.378322e+00
  1.737203e+01    1.397541e+00
  1.738791e+01    1.400479e+00
  1.740379e+01    1.363798e+00
  1.741966e+01    1.359943e+00
  1.743554e+01    1.385340e+00
  1.745141e+01    1.382240e+00
  1.746729e+01    1.407282e+00
  1.748316e+01    1.367892e+00
  1.749904e+01    1.340877e+00
  1.751491e+01    1.336768e+00
  1.753079e+01    1.355777e+00
  1.754667e+01    1.337869e+00
  1.756254e+01    1.338451e+00
  1.757842e+01    1.371600e+00
  1.759429e+01    1.364852e+00
  1.761017e+01    1.324363e+00
  1.762604e+01    1.342506e+00
  1.764192e+01    1.330108e+00
  1.765779e+01    1.317399e+00
  1.767367e+01    1.318727e+00
  1.768955e+01    1.333042e+00
  1.770542e+01    1.346578e+00
  1.772130e+01    1.340944e+00
  1.773717e+01    1.302402e+00
  1.775305e+01    1.325059e+00
  1.776892e+01    1.333504e+00
  1.778480e+01    1.338738e+00
  1.780067e+01    1.349780e+00
  1.781655e+01    1.350410e+00
  1.783243e+01    1.315672e+00
  1.784830e+01    1.322176e+00
  1.786418e+01    1.330651e+00
  1.788005e+01    1.300025e+00
  1.789593e+01    1.302361e+00
  1.791180e+01    1.302484e+00
  1.792768e+01    1.323786e+00
  1.794355e+01    1.320730e+00
  1.795943e+01    1.308497e+00
  1.797531e+01    1.293885e+00
  1.799118e+01    1.285702e+00
  1.800706e+01    1.297868e+00
  1.802293e+01    1.290936e+00
  1.803881e+01    1.293983e+00
  1.805468e+01    1.292719e+00
  1.807056e+01    1.285476e+00
  1.808643e+01    1.292505e+00
  1.810231e+01    1.310773e+00
  1.811819e+01    1.280418e+00
  1.813406e+01    1.281254e+00
  1.814994e+01    1.272997e+00
  1.816581e+01    1.314465e+00
  1.818169e+01    1.301838e+00
  1.819756e+01    1.310189e+00
  1.821344e+01    1.295230e+00
  1.822932e+01    1.272752e+00
  1.824519e+01    1.267163e+00
  1.826107e+01    1.289662e+00
  1.827694e+01    1.293373e+00
  1.829282e+01    1.282466e+00
  1.830869e+01    1.291547e+00
  1.832457e+01    1.268800e+00
  1.834044e+01    1.260673e+00
  1.835632e+01    1.250917e+00
  1.837220e+01    1.257246e+00
  1.838807e+01    1.254394e+00
  1.840395e+01    1.232446e+00
  1.841982e+01    1.226942e+00
  1.843570e+01    1.234306e+00
  1.845157e+01    1.221361e+00
  1.846745e+01    1.247326e+00
  1.848332e+01    1.245545e+00
  1.849920e+01    1.245598e+00
  1.851508e+01    1.270785e+00
  1.853095e+01    1.228069e+00
  1.854683e+01    1.237187e+00
  1.856270e+01    1.275436e+00
  1.857858e+01    1.266329e+00
  1.859445e+01    1.230711e+00
  1.861033e+01    1.241213e+00
  1.862620e+01    1.249665e+00
  1.864208e+01    1.235276e+00
  1.865796e+01    1.188315e+00
  1.867383e+01    1.215032e+00
  1.868971e+01    1.216718e+00
  1.870558e+01    1.239615e+00
  1.872146e+01    1.228716e+00
  1.873733e+01    1.209287e+00
  1.875321e+01    1.206734e+00
  1.876908e+01    1.227824e+00
  1.878496e+01    1.254898e+00
  1.880084e+01    1.230491e+00
  1.881671e+01    1.219767e+00
  1.883259e+01    1.228833e+00
  1.884846e+01    1.198772e+00
  1.886434e+01    1.213840e+00
  1.888021e+01    1.200419e+00
  1.889609e+01    1.186857e+00
  1.891196e+01    1.191460e+00
  1.892784e+01    1.181611e+00
  1.894372e+01    1.174738e+00
  1.895959e+01    1.183424e+00
  1.897547e+01    1.198915e+00
  1.899134e+01    1.174105e+00
  1.900722e+01    1.157145e+00
  1.902309e+01    1.190336e+00
  1.903897e+01    1.188068e+00
  1.905484e+01    1.190250e+00
  1.907072e+01    1.195830e+00
  1.908660e+01    1.168145e+00
  1.910247e+01    1.184929e+00
  1.911835e+01    1.207440e+00
  1.913422e+01    1.189540e+00
  1.915010e+01    1.176404e+00
  1.916597e+01    1.162294e+00
  1.918185e+01    1.154864e+00
  1.919773e+01    1.174856e+00
  1.921360e+01    1.150139e+00
  1.922948e+01    1.150314e+00
  1.924535e+01    1.183634e+00
  1.926123e+01    1.182982e+00
  1.927710e+01    1.165576e+00
  1.929298e+01    1.166854e+00
  1.930885e+01    1.195518e+00
  1.932473e+01    1.167928e+00
  1.934061e+01    1.163428e+00
  1.935648e+01    1.171898e+00
  1.937236e+01    1.151284e+00
  1.938823e+01    1.165898e+00
  1.940411e+01    1.176585e+00
  1.941998e+01    1.166209e+00
  1.943586e+01    1.173579e+00
  1.945173e+01    1.169314e+00
  1.946761e+01    1.140962e+00
  1.948349e+01    1.149019e+00
  1.949936e+01    1.185256e+00
  1.951524e+01    1.166936e+00
  1.953111e+01    1.162779e+00
  1.954699e+01    1.145074e+00
  1.956286e+01    1.137292e+00
  1.957874e+01    1.155005e+00
  1.959461e+01    1.143128e+00
  1.961049e+01    1.136164e+00
  1.962637e+01    1.125699e+00
  1.964224e+01    1.139441e+00
  1.965812e+01    1.117610e+00
  1.967399e+01    1.116913e+00
  1.968987e+01    1.148479e+00
  1.970574e+01    1.158188e+00
  1.972162e+01    1.138931e+00
  1.973749e+01    1.145716e+00
  1.975337e+01    1.158031e+00
  1.976925e+01    1.133681e+00
  1.978512e+01    1.127324e+00
  1.980100e+01    1.102838e+00
  1.981687e+01    1.104271e+00
  1.983275e+01    1.112383e+00
  1.984862e+01    1.127635e+00
  1.986450e+01    1.151697e+00
  1.988037e+01    1.139254e+00
  1.989625e+01    1.136024e+00
  1.991213e+01    1.128901e+00
  1.992800e+01    1.113510e+00
  1.994388e+01    1.104669e+00
  1.995975e+01    1.096760e+00
  1.997563e+01    1.111210e+00
  1.999150e+01    1.103205e+00
  2.000738e+01    1.095152e+00
  2.002325e+01    1.117317e+00
  2.003913e+01    1.104225e+00
  2.005501e+01    1.118880e+00
  2.007088e+01    1.117358e+00
  2.008676e+01    1.089866e+00
  2.010263e+01    1.101517e+00
  2.011851e+01    1.107559e+00
  2.013438e+01    1.082200e+00
  2.015026e+01    1.103233e+00
  2.016614e+01    1.110247e+00
  2.018201e+01    1.087492e+00
  2.019789e+01    1.086881e+00
  2.021376e+01    1.085040e+00
  2.022964e+01    1.076960e+00
  2.024551e+01    1.093487e+00
  2.026139e+01    1.100894e+00
  2.027726e+01    1.091119e+00
  2.029314e+01    1.094187e+00
  2.030902e+01    1.106403e+00
  2.032489e+01    1.136237e+00
  2.034077e+01    1.105417e+00
  2.035664e+01    1.104629e+00
  2.037252e+01    1.114471e+00
  2.038839e+01    1.082663e+00
  2.040427e+01    1.099017e+00
  2.042014e+01    1.075436e+00
  2.043602e+01    1.079162e+00
  2.045190e+01    1.086696e+00
  2.046777e+01    1.091152e+00
  2.048365e+01    1.079719e+00
  2.049952e+01    1.082157e+00
  2.051540e+01    1.093129e+00
  2.053127e+01    1.058107e+00
  2.054715e+01    1.074899e+00
  2.056302e+01    1.073765e+00
  2.057890e+01    1.050026e+00
  2.059478e+01    1.073313e+00
  2.061065e+01    1.060016e+00
  2.062653e+01    1.073721e+00
  2.064240e+01    1.043903e+00
  2.065828e+01    1.044757e+00
  2.067415e+01    1.075037e+00
  2.069003e+01    1.072977e+00
  2.070590e+01    1.080858e+00
  2.072178e+01    1.095665e+00
  2.073766e+01    1.089625e+00
  2.075353e+01    1.096641e+00
  2.076941e+01    1.080642e+00
  2.078528e+01    1.071489e+00
  2.080116e+01    1.074098e+00
  2.081703e+01    1.080844e+00
  2.083291e+01    1.080995e+00
  2.084878e+01    1.079983e+00
  2.086466e+01    1.089537e+00
  2.088054e+01    1.075611e+00
  2.089641e+01    1.064133e+00
  2.091229e+01    1.049501e+00
  2.092816e+01    1.069113e+00
  2.094404e+01    1.045719e+00
  2.095991e+01    1.081822e+00
  2.097579e+01    1.081258e+00
  2.099166e+01    1.102737e+00
  2.100754e+01    1.083803e+00
  2.102342e+01    1.087689e+00
  2.103929e+01    1.097871e+00
  2.105517e+01    1.080163e+00
  2.107104e+01    1.077593e+00
  2.108692e+01    1.084769e+00
  2.110279e+01    1.092865e+00
  2.111867e+01    1.092219e+00
  2.113455e+01    1.073354e+00
  2.115042e+01    1.069024e+00
  2.116630e+01    1.092507e+00
  2.118217e+01    1.092656e+00
  2.119805e+01    1.087384e+00
  2.121392e+01    1.099948e+00
  2.122980e+01    1.092744e+00
  2.124567e+01    1.094826e+00
  2.126155e+01    1.086023e+00
  2.127743e+01    1.119840e+00
  2.129330e+01    1.133177e+00
  2.130918e+01    1.138837e+00
  2.132505e+01    1.124493e+00
  2.134093e+01    1.133521e+00
  2.135680e+01    1.151933e+00
  2.137268e+01    1.147602e+00
  2.138855e+01    1.135596e+00
  2.140443e+01    1.159108e+00
  2.142031e+01    1.160936e+00
  2.143618e+01    1.208582e+00
  2.145206e+01    1.220704e+00
  2.146793e+01    1.240120e+00
  2.148381e+01    1.281327e+00
  2.149968e+01    1.306156e+00
  2.151556e+01    1.300555e+00
  2.153143e+01    1.329771e+00
  2.154731e+01    1.391837e+00
  2.156319e+01    1.439902e+00
  2.157906e+01    1.449501e+00
  2.159494e+01    1.515942e+00
  2.161081e+01    1.617830e+00
  2.162669e+01    1.708295e+00
  2.164256e+01    1.798263e+00
  2.165844e+01    1.921253e+00
  2.167431e+01    2.109099e+00
  2.169019e+01    2.301879e+00
  2.170607e+01    2.569693e+00
  2.172194e+01    2.848514e+00
  2.173782e+01    3.243071e+00
  2.175369e+01    3.697726e+00
  2.176957e+01    4.196141e+00
  2.178544e+01    4.836054e+00
  2.180132e+01    5.507281e+00
  2.181719e+01    6.171089e+00
  2.183307e+01    6.943444e+00
  2.184895e+01    7.661486e+00
  2.186482e+01    8.331041e+00
  2.188070e+01    8.960356e+00
  2.189657e+01    9.334523e+00
  2.191245e+01    9.351429e+00
  2.192832e+01    8.933491e+00
  2.194420e+01    8.184199e+00
  2.196007e+01    7.202501e+00
  2.197595e+01    6.172194e+00
  2.199183e+01    5.239827e+00
  2.200770e+01    4.458280e+00
  2.202358e+01    3.793965e+00
  2.203945e+01    3.312574e+00
  2.205533e+01    2.904681e+00
  2.207120e+01    2.566070e+00
  2.208708e+01    2.310212e+00
  2.210296e+01    2.126614e+00
  2.211883e+01    1.940804e+00
  2.213471e+01    1.793871e+00
  2.215058e+01    1.704904e+00
  2.216646e+01    1.586612e+00
  2.218233e+01    1.517861e+00
  2.219821e+01    1.441885e+00
  2.221408e+01    1.379123e+00
  2.222996e+01    1.344975e+00
  2.224584e+01    1.282140e+00
  2.226171e+01    1.245617e+00
  2.227759e+01    1.225132e+00
  2.229346e+01    1.228739e+00
  2.230934e+01    1.197217e+00
  2.232521e+01    1.159535e+00
  2.234109e+01    1.152170e+00
  2.235696e+01    1.140207e+00
  2.237284e+01    1.117222e+00
  2.238872e+01    1.083644e+00
  2.240459e+01    1.087145e+00
  2.242047e+01    1.067341e+00
  2.243634e+01    1.058923e+00
  2.245222e+01    1.032902e+00
  2.246809e+01    1.031885e+00
  2.248397e+01    1.015477e+00
  2.249984e+01    1.017255e+00
  2.251572e+01    1.003052e+00
  2.253160e+01    1.022776e+00
  2.254747e+01    1.009027e+00
  2.256335e+01    9.875743e-01
  2.257922e+01    9.648066e-01
  2.259510e+01    9.630967e-01
  2.261097e+01    9.425589e-01
  2.262685e+01    9.545836e-01
  2.264272e+01    9.792159e-01
  2.265860e+01    9.782045e-01
  2.267448e+01    9.531108e-01
  2.269035e+01    9.608880e-01
  2.270623e+01    9.370037e-01
  2.272210e+01    9.225981e-01
  2.273798e+01    9.315357e-01
  2.275385e+01    9.343898e-01
  2.276973e+01    9.482219e-01
  2.278560e+01    9.371040e-01
  2.280148e+01    9.205579e-01
  2.281736e+01    9.167543e-01
  2.283323e+01    9.305635e-01
  2.284911e+01    9.248633e-01
  2.286498e+01    9.351295e-01
  2.288086e+01    9.313964e-01
  2.289673e+01    9.118958e-01
  2.291261e+01    9.139261e-01
  2.292848e+01    9.206984e-01
  2.294436e+01    8.985682e-01
  2.296024e+01    8.955228e-01
  2.297611e+01    8.940371e-01
  2.299199e+01    8.939652e-01
  2.300786e+01    9.084248e-01
  2.302374e+01    8.997421e-01
  2.303961e+01    8.733251e-01
  2.305549e+01    8.841757e-01
  2.307137e+01    8.961087e-01
  2.308724e+01    8.716783e-01
  2.310312e+01    8.727385e-01
  2.311899e+01    8.684736e-01
  2.313487e+01    8.642891e-01
  2.315074e+01    8.751381e-01
  2.316662e+01    8.535358e-01
  2.318249e+01    8.676153e-01
  2.319837e+01    8.624769e-01
  2.321425e+01    8.551296e-01
  2.323012e+01    8.700826e-01
  2.324600e+01    8.702709e-01
  2.326187e+01    8.624325e-01
  2.327775e+01    8.462368e-01
  2.329362e+01    8.561807e-01
  2.330950e+01    8.629278e-01
  2.332537e+01    8.415588e-01
  2.334125e+01    8.587071e-01
  2.335713e+01    8.370601e-01
  2.337300e+01    8.424000e-01
  2.338888e+01    8.642585e-01
  2.340475e+01    8.660730e-01
  2.342063e+01    8.559759e-01
  2.343650e+01    8.613294e-01
  2.345238e+01    8.408423e-01
  2.346825e+01    8.469139e-01
  2.348413e+01    8.386045e-01
  2.350001e+01    8.395251e-01
  2.351588e+01    8.332946e-01
  2.353176e+01    8.403621e-01
  2.354763e+01    8.462303e-01
  2.356351e+01    8.376306e-01
  2.357938e+01    8.319312e-01
  2.359526e+01    8.385491e-01
  2.361113e+01    8.628573e-01
  2.362701e+01    8.392138e-01
  2.364289e+01    8.347551e-01
  2.365876e+01    8.268769e-01
  2.367464e+01    8.305819e-01
  2.369051e+01    8.093813e-01
  2.370639e+01    8.122160e-01
  2.372226e+01    8.215590e-01
  2.373814e+01    8.239274e-01
  2.375401e+01    8.206297e-01
  2.376989e+01    8.232825e-01
  2.378577e+01    8.078600e-01
  2.380164e+01    8.091915e-01
  2.381752e+01    8.226311e-01
  2.383339e+01    8.049515e-01
  2.384927e+01    7.971715e-01
  2.386514e+01    8.035693e-01
  2.388102e+01    8.057187e-01
  2.389689e+01    8.052700e-01
  2.391277e+01    8.000419e-01
  2.392865e+01    8.007070e-01
  2.394452e+01    8.118088e-01
  2.396040e+01    8.086289e-01
  2.397627e+01    7.832344e-01
  2.399215e+01    7.946350e-01
  2.400802e+01    7.740275e-01
  2.402390e+01    7.719536e-01
  2.403978e+01    7.887298e-01
  2.405565e+01    8.027956e-01
  2.407153e+01    7.994397e-01
  2.408740e+01    7.929007e-01
  2.410328e+01    8.020930e-01
  2.411915e+01    7.889386e-01
  2.413503e+01    7.679303e-01
  2.415090e+01    7.691868e-01
  2.416678e+01    7.800734e-01
  2.418266e+01    7.745925e-01
  2.419853e+01    7.874101e-01
  2.421441e+01    7.674309e-01
  2.423028e+01    7.723278e-01
  2.424616e+01    7.623539e-01
  2.426203e+01    7.930411e-01
  2.427791e+01    7.782775e-01
  2.429378e+01    7.651227e-01
  2.430966e+01    7.759630e-01
  2.432554e+01    7.934944e-01
  2.434141e+01    7.923865e-01
  2.435729e+01    7.669005e-01
  2.437316e+01    7.859032e-01
  2.438904e+01    7.902238e-01
  2.440491e+01    7.782633e-01
  2.442079e+01    7.909267e-01
  2.443666e+01    8.048900e-01
  2.445254e+01    8.035903e-01
  2.446842e+01    7.812001e-01
  2.448429e+01    7.830513e-01
  2.450017e+01    7.797135e-01
  2.451604e+01    7.831640e-01
  2.453192e+01    7.852478e-01
  2.454779e+01    7.696080e-01
  2.456367e+01    8.017845e-01
  2.457954e+01    7.924762e-01
  2.459542e+01    7.885544e-01
  2.461130e+01    7.888802e-01
  2.462717e+01    7.758353e-01
  2.464305e+01    7.750772e-01
  2.465892e+01    7.829747e-01
  2.467480e+01    7.906770e-01
  2.469067e+01    7.983558e-01
  2.470655e+01    7.981834e-01
  2.472242e+01    7.883090e-01
  2.473830e+01    7.936384e-01
  2.475418e+01    7.912480e-01
  2.477005e+01    8.000874e-01
  2.478593e+01    8.068131e-01
  2.480180e+01    7.899932e-01
  2.481768e+01    7.669948e-01
  2.483355e+01    7.669824e-01
  2.484943e+01    7.779556e-01
  2.486530e+01    7.929462e-01
  2.488118e+01    8.065766e-01
  2.489706e+01    8.018191e-01
  2.491293e+01    7.921462e-01
  2.492881e+01    7.746924e-01
  2.494468e+01    7.880673e-01
  2.496056e+01    8.002136e-01
  2.497643e+01    8.113034e-01
  2.499231e+01    7.911535e-01
  2.500819e+01    8.084026e-01
  2.502406e+01    8.109691e-01
  2.503994e+01    8.166265e-01
  2.505581e+01    7.987155e-01
  2.507169e+01    8.028355e-01
  2.508756e+01    8.041276e-01
  2.510344e+01    8.343487e-01
  2.511931e+01    8.125459e-01
  2.513519e+01    8.076057e-01
  2.515107e+01    8.200944e-01
  2.516694e+01    8.150587e-01
  2.518282e+01    8.063099e-01
  2.519869e+01    8.382587e-01
  2.521457e+01    8.214418e-01
  2.523044e+01    8.318871e-01
  2.524632e+01    8.265290e-01
  2.526219e+01    8.424494e-01
  2.527807e+01    8.613889e-01
  2.529395e+01    8.498253e-01
  2.530982e+01    8.531615e-01
  2.532570e+01    8.616459e-01
  2.534157e+01    8.794923e-01
  2.535745e+01    8.617787e-01
  2.537332e+01    8.901022e-01
  2.538920e+01    9.116557e-01
  2.540507e+01    9.036395e-01
  2.542095e+01    9.018928e-01
  2.543683e+01    9.130885e-01
  2.545270e+01    9.312237e-01
  2.546858e+01    9.564018e-01
  2.548445e+01    9.641098e-01
  2.550033e+01    9.788960e-01
  2.551620e+01    9.856194e-01
  2.553208e+01    1.003175e+00
  2.554795e+01    1.019116e+00
  2.556383e+01    1.044629e+00
  2.557971e+01    1.064403e+00
  2.559558e+01    1.078228e+00
  2.561146e+01    1.143157e+00
  2.562733e+01    1.177124e+00
  2.564321e+01    1.236254e+00
  2.565908e+01    1.262442e+00
  2.567496e+01    1.333666e+00
  2.569083e+01    1.423416e+00
  2.570671e+01    1.497508e+00
  2.572259e+01    1.599612e+00
  2.573846e+01    1.714307e+00
  2.575434e+01    1.886172e+00
  2.577021e+01    2.087427e+00
  2.578609e+01    2.319236e+00
  2.580196e+01    2.622779e+00
  2.581784e+01    2.960235e+00
  2.583371e+01    3.357175e+00
  2.584959e+01    3.869850e+00
  2.586547e+01    4.426893e+00
  2.588134e+01    5.046196e+00
  2.589722e+01    5.681191e+00
  2.591309e+01    6.308360e+00
  2.592897e+01    6.856186e+00
  2.594484e+01    7.305970e+00
  2.596072e+01    7.624882e+00
  2.597660e+01    7.677781e+00
  2.599247e+01    7.345919e+00
  2.600835e+01    6.730755e+00
  2.602422e+01    6.029510e+00
  2.604010e+01    5.280555e+00
  2.605597e+01    4.530649e+00
  2.607185e+01    3.879215e+00
  2.608772e+01    3.352591e+00
  2.610360e+01    2.890902e+00
  2.611948e+01    2.559176e+00
  2.613535e+01    2.259050e+00
  2.615123e+01    2.030927e+00
  2.616710e+01    1.856516e+00
  2.618298e+01    1.714975e+00
  2.619885e+01    1.579034e+00
  2.621473e+01    1.471571e+00
  2.623060e+01    1.384618e+00
  2.624648e+01    1.321252e+00
  2.626236e+01    1.271562e+00
  2.627823e+01    1.207201e+00
  2.629411e+01    1.139736e+00
  2.630998e+01    1.117277e+00
  2.632586e+01    1.094472e+00
  2.634173e+01    1.074180e+00
  2.635761e+01    1.048764e+00
  2.637348e+01    1.031245e+00
  2.638936e+01    1.016272e+00
  2.640524e+01    1.002280e+00
  2.642111e+01    9.802861e-01
  2.643699e+01    9.785796e-01
  2.645286e+01    9.557576e-01
  2.646874e+01    9.358571e-01
  2.648461e+01    9.358435e-01
  2.650049e+01    9.368464e-01
  2.651636e+01    9.334708e-01
  2.653224e+01    9.234850e-01
  2.654812e+01    9.095686e-01
  2.656399e+01    9.064545e-01
  2.657987e+01    8.853532e-01
  2.659574e+01    9.248055e-01
  2.661162e+01    8.955354e-01
  2.662749e+01    8.788990e-01
  2.664337e+01    8.871154e-01
  2.665924e+01    8.877112e-01
  2.667512e+01    8.993973e-01
  2.669100e+01    8.903065e-01
  2.670687e+01    8.942918e-01
  2.672275e+01    8.862929e-01
  2.673862e+01    8.797334e-01
  2.675450e+01    8.940349e-01
  2.677037e+01    8.903298e-01
  2.678625e+01    9.014284e-01
  2.680212e+01    9.053733e-01
  2.681800e+01    9.030364e-01
  2.683388e+01    8.913634e-01
  2.684975e+01    8.999750e-01
  2.686563e+01    9.086741e-01
  2.688150e+01    9.055523e-01
  2.689738e+01    8.980257e-01
  2.691325e+01    9.135698e-01
  2.692913e+01    9.394286e-01
  2.694501e+01    9.622751e-01
  2.696088e+01    9.473222e-01
  2.697676e+01    9.664911e-01
  2.699263e+01    1.001022e+00
  2.700851e+01    1.021706e+00
  2.702438e+01    1.076300e+00
  2.704026e+01    1.098680e+00
  2.705613e+01    1.143850e+00
  2.707201e+01    1.200104e+00
  2.708789e+01    1.245170e+00
  2.710376e+01    1.367343e+00
  2.711964e+01    1.524660e+00
  2.713551e+01    1.649704e+00
  2.715139e+01    1.796218e+00
  2.716726e+01    1.917902e+00
  2.718314e+01    2.021260e+00
  2.719901e+01    2.123816e+00
  2.721489e+01    2.218099e+00
  2.723077e+01    2.257552e+00
  2.724664e+01    2.216596e+00
  2.726252e+01    2.109845e+00
  2.727839e+01    1.956764e+00
  2.729427e+01    1.784570e+00
  2.731014e+01    1.655441e+00
  2.732602e+01    1.506312e+00
  2.734189e+01    1.380363e+00
  2.735777e+01    1.291966e+00
  2.737365e+01    1.210351e+00
  2.738952e+01    1.136193e+00
  2.740540e+01    1.083564e+00
  2.742127e+01    1.040272e+00
  2.743715e+01    1.018547e+00
  2.745302e+01    9.882627e-01
  2.746890e+01    9.659370e-01
  2.748477e+01    9.222239e-01
  2.750065e+01    9.107935e-01
  2.751653e+01    8.844621e-01
  2.753240e+01    8.853508e-01
  2.754828e+01    8.726330e-01
  2.756415e+01    8.753420e-01
  2.758003e+01    8.416226e-01
  2.759590e+01    8.460411e-01
  2.761178e+01    8.453804e-01
  2.762765e+01    8.320376e-01
  2.764353e+01    8.220503e-01
  2.765941e+01    8.253359e-01
  2.767528e+01    8.124705e-01
  2.769116e+01    8.379586e-01
  2.770703e+01    8.449360e-01
  2.772291e+01    8.255495e-01
  2.773878e+01    8.143459e-01
  2.775466e+01    7.903095e-01
  2.777054e+01    7.982939e-01
  2.778641e+01    8.019161e-01
  2.780229e+01    7.972221e-01
  2.781816e+01    7.976884e-01
  2.783404e+01    7.972611e-01
  2.784991e+01    8.057419e-01
  2.786579e+01    7.975044e-01
  2.788166e+01    8.019535e-01
  2.789754e+01    8.095108e-01
  2.791342e+01    7.823493e-01
  2.792929e+01    7.738245e-01
  2.794517e+01    7.983791e-01
  2.796104e+01    8.115547e-01
  2.797692e+01    8.086665e-01
  2.799279e+01    7.898802e-01
  2.800867e+01    7.923389e-01
  2.802454e+01    7.685733e-01
  2.804042e+01    7.863379e-01
  2.805630e+01    7.761263e-01
  2.807217e+01    7.653072e-01
  2.808805e+01    7.637207e-01
  2.810392e+01    7.597276e-01
  2.811980e+01    7.790176e-01
  2.813567e+01    7.696193e-01
  2.815155e+01    7.579114e-01
  2.816742e+01    7.672861e-01
  2.818330e+01    7.807668e-01
  2.819918e+01    7.443486e-01
  2.821505e+01    7.629036e-01
  2.823093e+01    7.684826e-01
  2.824680e+01    7.825155e-01
  2.826268e+01    7.656037e-01
  2.827855e+01    7.516971e-01
  2.829443e+01    7.757539e-01
  2.831030e+01    7.835680e-01
  2.832618e+01    7.509443e-01
  2.834206e+01    7.563285e-01
  2.835793e+01    7.823054e-01
  2.837381e+01    7.837319e-01
  2.838968e+01    7.525172e-01
  2.840556e+01    7.635257e-01
  2.842143e+01    7.653205e-01
  2.843731e+01    7.569268e-01
  2.845318e+01    7.475312e-01
  2.846906e+01    7.478427e-01
  2.848494e+01    7.491918e-01
  2.850081e+01    7.458377e-01
  2.851669e+01    7.598816e-01
  2.853256e+01    7.469224e-01
  2.854844e+01    7.612977e-01
  2.856431e+01    7.458826e-01
  2.858019e+01    7.474507e-01
  2.859606e+01    7.400706e-01
  2.861194e+01    7.372162e-01
  2.862782e+01    7.336463e-01
  2.864369e+01    7.451545e-01
  2.865957e+01    7.486772e-01
  2.867544e+01    7.669085e-01
  2.869132e+01    7.383134e-01
  2.870719e+01    7.175460e-01
  2.872307e+01    7.522799e-01
  2.873895e+01    7.465115e-01
  2.875482e+01    7.410397e-01
  2.877070e+01    7.457331e-01
  2.878657e+01    7.660722e-01
  2.880245e+01    7.616856e-01
  2.881832e+01    7.765850e-01
  2.883420e+01    7.738793e-01
  2.885007e+01    7.667424e-01
  2.886595e+01    7.490119e-01
  2.888183e+01    7.329971e-01
  2.889770e+01    7.516075e-01
  2.891358e+01    7.494604e-01
  2.892945e+01    7.251912e-01
  2.894533e+01    7.264093e-01
  2.896120e+01    7.324530e-01
  2.897708e+01    7.376521e-01
  2.899295e+01    7.248205e-01
  2.900883e+01    7.357421e-01
  2.902471e+01    7.190441e-01
  2.904058e+01    7.294023e-01
  2.905646e+01    7.395561e-01
  2.907233e+01    7.365464e-01
  2.908821e+01    7.517729e-01
  2.910408e+01    7.428054e-01
  2.911996e+01    7.177387e-01
  2.913583e+01    7.307457e-01
  2.915171e+01    7.445271e-01
  2.916759e+01    7.303021e-01
  2.918346e+01    7.207200e-01
  2.919934e+01    7.379715e-01
  2.921521e+01    7.141702e-01
  2.923109e+01    7.153485e-01
  2.924696e+01    7.201791e-01
  2.926284e+01    7.026312e-01
  2.927871e+01    7.374549e-01
  2.929459e+01    7.241346e-01
  2.931047e+01    7.254881e-01
  2.932634e+01    7.294258e-01
  2.934222e+01    7.335292e-01
  2.935809e+01    7.182999e-01
  2.937397e+01    7.198604e-01
  2.938984e+01    7.346433e-01
  2.940572e+01    7.152641e-01
  2.942159e+01    7.197241e-01
  2.943747e+01    7.154055e-01
  2.945335e+01    7.057314e-01
  2.946922e+01    6.895970e-01
  2.948510e+01    7.231131e-01
  2.950097e+01    7.307771e-01
  2.951685e+01    7.088143e-01
  2.953272e+01    7.263663e-01
  2.954860e+01    7.143225e-01
  2.956447e+01    7.068462e-01
  2.958035e+01    7.002543e-01
  2.959623e+01    6.901525e-01
  2.961210e+01    7.213601e-01
  2.962798e+01    7.293185e-01
  2.964385e+01    7.384931e-01
  2.965973e+01    7.271572e-01
  2.967560e+01    6.906458e-01
  2.969148e+01    6.985702e-01
  2.970736e+01    7.089237e-01
  2.972323e+01    7.304127e-01
  2.973911e+01    7.271065e-01
  2.975498e+01    6.972703e-01
  2.977086e+01    6.974111e-01
  2.978673e+01    7.205272e-01
  2.980261e+01    7.293401e-01
  2.981848e+01    7.097419e-01
  2.983436e+01    7.024671e-01
  2.985024e+01    7.000688e-01
  2.986611e+01    7.207183e-01
  2.988199e+01    7.071848e-01
  2.989786e+01    7.120243e-01
  2.991374e+01    7.085205e-01
  2.992961e+01    7.014194e-01
  2.994549e+01    7.062072e-01
  2.996136e+01    7.208387e-01
  2.997724e+01    7.216778e-01
  2.999312e+01    7.229930e-01
  3.000899e+01    7.266589e-01
  3.002487e+01    7.395455e-01
  3.004074e+01    7.219620e-01
  3.005662e+01    7.384082e-01
  3.007249e+01    7.432373e-01
  3.008837e+01    7.322322e-01
  3.010424e+01    7.212610e-01
  3.012012e+01    7.216830e-01
  3.013600e+01    7.099030e-01
  3.015187e+01    7.148750e-01
  3.016775e+01    7.055318e-01
  3.018362e+01    6.935710e-01
  3.019950e+01    7.186850e-01
  3.021537e+01    6.953090e-01
  3.023125e+01    7.104934e-01
  3.024712e+01    7.065453e-01
  3.026300e+01    6.895664e-01
  3.027888e+01    6.902521e-01
  3.029475e+01    6.707101e-01
  3.031063e+01    6.940834e-01
  3.032650e+01    6.975270e-01
  3.034238e+01    7.003902e-01
  3.035825e+01    6.795484e-01
  3.037413e+01    7.105944e-01
  3.039000e+01    7.242497e-01
  3.040588e+01    7.347190e-01
  3.042176e+01    7.302130e-01
  3.043763e+01    7.026474e-01
  3.045351e+01    7.204142e-01
  3.046938e+01    7.281430e-01
  3.048526e+01    7.212239e-01
  3.050113e+01    7.155941e-01
  3.051701e+01    6.763449e-01
  3.053288e+01    6.822619e-01
  3.054876e+01    7.097718e-01
  3.056464e+01    7.136116e-01
  3.058051e+01    7.000098e-01
  3.059639e+01    6.939124e-01
  3.061226e+01    7.190322e-01
  3.062814e+01    7.068058e-01
  3.064401e+01    7.026632e-01
  3.065989e+01    7.176869e-01
  3.067577e+01    7.210422e-01
  3.069164e+01    7.231011e-01
  3.070752e+01    7.151690e-01
  3.072339e+01    7.074324e-01
  3.073927e+01    7.025406e-01
  3.075514e+01    7.089306e-01
  3.077102e+01    7.237716e-01
  3.078689e+01    7.239338e-01
  3.080277e+01    7.137956e-01
  3.081865e+01    7.294640e-01
  3.083452e+01    7.196210e-01
  3.085040e+01    6.954061e-01
  3.086627e+01    6.897891e-01
  3.088215e+01    7.265148e-01
  3.089802e+01    7.093272e-01
  3.091390e+01    7.119983e-01
  3.092977e+01    7.196721e-01
  3.094565e+01    7.185429e-01
  3.096153e+01    7.182458e-01
  3.097740e+01    7.191958e-01
  3.099328e+01    7.239704e-01
  3.100915e+01    7.316456e-01
  3.102503e+01    7.032681e-01
  3.104090e+01    7.182753e-01
  3.105678e+01    7.090740e-01
  3.107265e+01    6.996293e-01
  3.108853e+01    7.071378e-01
  3.110441e+01    7.200703e-01
  3.112028e+01    7.196094e-01
  3.113616e+01    7.342562e-01
  3.115203e+01    7.270793e-01
  3.116791e+01    7.349418e-01
  3.118378e+01    7.273560e-01
  3.119966e+01    7.154230e-01
  3.121553e+01    7.319003e-01
  3.123141e+01    7.161055e-01
  3.124729e+01    7.178719e-01
  3.126316e+01    7.159907e-01
  3.127904e+01    7.218216e-01
  3.129491e+01    7.215938e-01
  3.131079e+01    7.299049e-01
  3.132666e+01    7.404020e-01
  3.134254e+01    7.320130e-01
  3.135841e+01    7.152550e-01
  3.137429e+01    7.289020e-01
  3.139017e+01    7.364668e-01
  3.140604e+01    7.436156e-01
  3.142192e+01    7.554126e-01
  3.143779e+01    7.589099e-01
  3.145367e+01    7.424069e-01
  3.146954e+01    7.673575e-01
  3.148542e+01    7.591425e-01
  3.150129e+01    7.876565e-01
  3.151717e+01    7.647806e-01
  3.153305e+01    7.532941e-01
  3.154892e+01    7.627329e-01
  3.156480e+01    7.769803e-01
  3.158067e+01    7.985258e-01
  3.159655e+01    7.877801e-01
  3.161242e+01    8.156179e-01
  3.162830e+01    8.279252e-01
  3.164418e+01    8.404424e-01
  3.166005e+01    8.624926e-01
  3.167593e+01    8.719414e-01
  3.169180e+01    9.255083e-01
  3.170768e+01    9.623085e-01
  3.172355e+01    1.028067e+00
  3.173943e+01    1.053021e+00
  3.175530e+01    1.103372e+00
  3.177118e+01    1.187905e+00
  3.178706e+01    1.269910e+00
  3.180293e+01    1.356310e+00
  3.181881e+01    1.497570e+00
  3.183468e+01    1.640856e+00
  3.185056e+01    1.803024e+00
  3.186643e+01    1.953508e+00
  3.188231e+01    2.064927e+00
  3.189818e+01    2.196285e+00
  3.191406e+01    2.227267e+00
  3.192994e+01    2.182115e+00
  3.194581e+01    2.122467e+00
  3.196169e+01    2.020611e+00
  3.197756e+01    1.862981e+00
  3.199344e+01    1.695481e+00
  3.200931e+01    1.538004e+00
  3.202519e+01    1.401307e+00
  3.204106e+01    1.257888e+00
  3.205694e+01    1.181796e+00
  3.207282e+01    1.104681e+00
  3.208869e+01    1.020346e+00
  3.210457e+01    9.790138e-01
  3.212044e+01    9.358976e-01
  3.213632e+01    9.069095e-01
  3.215219e+01    8.659508e-01
  3.216807e+01    8.573107e-01
  3.218394e+01    8.313703e-01
  3.219982e+01    8.446105e-01
  3.221570e+01    8.236822e-01
  3.223157e+01    8.065985e-01
  3.224745e+01    7.845349e-01
  3.226332e+01    7.638655e-01
  3.227920e+01    7.585000e-01
  3.229507e+01    7.810076e-01
  3.231095e+01    7.806875e-01
  3.232682e+01    7.539527e-01
  3.234270e+01    7.668715e-01
  3.235858e+01    7.656805e-01
  3.237445e+01    7.156357e-01
  3.239033e+01    7.369049e-01
  3.240620e+01    7.414734e-01
  3.242208e+01    7.302293e-01
  3.243795e+01    7.149103e-01
  3.245383e+01    7.158550e-01
  3.246970e+01    7.276503e-01
  3.248558e+01    7.135162e-01
  3.250146e+01    7.027943e-01
  3.251733e+01    7.254086e-01
  3.253321e+01    7.142502e-01
  3.254908e+01    7.223493e-01
