# == pyFAI calibration ==
# Distance Sample to Detector: 0.3999999939076516 m
# PONI: 9.750e-02, 1.135e-01 m
# Rotations: -0.000175 0.000000 -0.000000 rad
# 
# == Fit2d calibration ==
# Distance Sample-beamCenter: 400.000 mm
# Center: x=1514.000, y=1300.000 pix
# Tilt: 0.010 deg  TiltPlanRot: 0.010 deg
# 
# Detector Detector	 Spline= None	 PixelSize= 7.500e-05, 7.500e-05 m
#    Detector has a mask: False 
#    Detector has a dark current: False 
#    detector has a flat field: False 
# 
# Wavelength: 6.888e-11 m
# Mask applied: user provided
# Dark current applied: False
# Flat field applied: False
# Polarization factor: 0.99
# Normalization factor: 1.0
# --> /home/myspot/data/2024_07_Rosario/Ru-CGO-ex/2024-07-27_002_Ru-CGO-ex_Activtation_ramp_000002_data_000072.dat
#       q_nm^-1             I 
  2.003187e-02    0.000000e+00
  3.590745e-02    0.000000e+00
  5.178302e-02    0.000000e+00
  6.765859e-02    4.685424e-02
  8.353417e-02    4.168740e-02
  9.940974e-02    6.975070e-02
  1.152853e-01    7.165489e-02
  1.311609e-01    5.182818e-03
  1.470365e-01    2.606170e-02
  1.629120e-01    2.367249e-02
  1.787876e-01    1.897375e-02
  1.946632e-01    0.000000e+00
  2.105388e-01    2.030139e-02
  2.264143e-01    6.321477e-03
  2.422899e-01    4.022874e-02
  2.581655e-01    5.917392e-02
  2.740411e-01    5.963735e-02
  2.899166e-01    1.577164e-02
  3.057922e-01    1.363820e-02
  3.216678e-01    3.318999e-02
  3.375433e-01    2.382212e-02
  3.534189e-01    7.467283e-03
  3.692945e-01    9.084314e-03
  3.851701e-01    1.896947e-02
  4.010456e-01    3.650812e-02
  4.169212e-01    1.670739e-02
  4.327968e-01    2.798048e-03
  4.486724e-01    2.619675e-02
  4.645479e-01    2.307790e-02
  4.804235e-01    5.621155e-02
  4.962991e-01    6.876200e-02
  5.121747e-01    3.693595e-02
  5.280502e-01    2.639376e-02
  5.439258e-01    3.041007e-02
  5.598014e-01    2.244947e-02
  5.756770e-01    2.502766e-02
  5.915525e-01    3.447222e-02
  6.074281e-01    5.898170e-02
  6.233037e-01    2.479223e-02
  6.391793e-01    1.519223e-02
  6.550548e-01    3.204266e-02
  6.709304e-01    3.789407e-02
  6.868060e-01    2.237741e-02
  7.026815e-01    2.531311e-02
  7.185571e-01    1.582437e-02
  7.344327e-01    3.890709e-02
  7.503083e-01    6.051536e-02
  7.661838e-01    5.000471e-02
  7.820594e-01    1.124930e-01
  7.979350e-01    1.538952e-01
  8.138106e-01    1.817787e-01
  8.296861e-01    2.408703e-01
  8.455617e-01    3.006049e-01
  8.614373e-01    3.538897e-01
  8.773129e-01    3.915713e-01
  8.931884e-01    3.910391e-01
  9.090640e-01    5.184903e-01
  9.249396e-01    5.755445e-01
  9.408152e-01    5.389647e-01
  9.566907e-01    6.673367e-01
  9.725663e-01    8.289018e-01
  9.884419e-01    9.539253e-01
  1.004317e+00    9.950626e-01
  1.020193e+00    1.094660e+00
  1.036069e+00    1.174801e+00
  1.051944e+00    1.290193e+00
  1.067820e+00    1.345087e+00
  1.083695e+00    1.423448e+00
  1.099571e+00    1.468459e+00
  1.115446e+00    1.510135e+00
  1.131322e+00    1.470427e+00
  1.147198e+00    1.405037e+00
  1.163073e+00    1.432133e+00
  1.178949e+00    1.536965e+00
  1.194824e+00    1.626381e+00
  1.210700e+00    1.804892e+00
  1.226575e+00    2.067139e+00
  1.242451e+00    2.396229e+00
  1.258327e+00    2.424428e+00
  1.274202e+00    2.419864e+00
  1.290078e+00    2.516273e+00
  1.305953e+00    2.640925e+00
  1.321829e+00    2.455033e+00
  1.337705e+00    2.496500e+00
  1.353580e+00    2.561386e+00
  1.369456e+00    2.585838e+00
  1.385331e+00    2.666000e+00
  1.401207e+00    2.676893e+00
  1.417082e+00    2.565390e+00
  1.432958e+00    2.707602e+00
  1.448834e+00    2.584517e+00
  1.464709e+00    2.645827e+00
  1.480585e+00    2.647471e+00
  1.496460e+00    2.868632e+00
  1.512336e+00    2.849747e+00
  1.528211e+00    2.960686e+00
  1.544087e+00    2.940705e+00
  1.559963e+00    3.065217e+00
  1.575838e+00    3.068162e+00
  1.591714e+00    2.951785e+00
  1.607589e+00    2.829841e+00
  1.623465e+00    2.939571e+00
  1.639340e+00    2.998369e+00
  1.655216e+00    2.965872e+00
  1.671092e+00    2.930480e+00
  1.686967e+00    2.982768e+00
  1.702843e+00    2.808811e+00
  1.718718e+00    2.853192e+00
  1.734594e+00    2.794475e+00
  1.750469e+00    2.800765e+00
  1.766345e+00    2.824374e+00
  1.782221e+00    2.927855e+00
  1.798096e+00    2.845804e+00
  1.813972e+00    2.731618e+00
  1.829847e+00    2.800349e+00
  1.845723e+00    2.807193e+00
  1.861598e+00    2.759737e+00
  1.877474e+00    2.653935e+00
  1.893350e+00    2.729500e+00
  1.909225e+00    2.647684e+00
  1.925101e+00    2.750472e+00
  1.940976e+00    2.857524e+00
  1.956852e+00    2.903359e+00
  1.972727e+00    2.839006e+00
  1.988603e+00    2.725002e+00
  2.004479e+00    2.580105e+00
  2.020354e+00    2.737814e+00
  2.036230e+00    2.768604e+00
  2.052105e+00    2.718714e+00
  2.067981e+00    2.773167e+00
  2.083856e+00    2.714102e+00
  2.099732e+00    2.824145e+00
  2.115608e+00    2.847822e+00
  2.131483e+00    2.801629e+00
  2.147359e+00    2.816664e+00
  2.163234e+00    2.715821e+00
  2.179110e+00    2.738984e+00
  2.194985e+00    2.744552e+00
  2.210861e+00    2.715420e+00
  2.226737e+00    2.702632e+00
  2.242612e+00    2.707249e+00
  2.258488e+00    2.807972e+00
  2.274363e+00    2.978624e+00
  2.290239e+00    2.908793e+00
  2.306115e+00    2.776944e+00
  2.321990e+00    2.775794e+00
  2.337866e+00    2.690903e+00
  2.353741e+00    2.752783e+00
  2.369617e+00    2.802780e+00
  2.385492e+00    2.770800e+00
  2.401368e+00    2.759457e+00
  2.417244e+00    2.803688e+00
  2.433119e+00    2.814939e+00
  2.448995e+00    2.852624e+00
  2.464870e+00    2.859188e+00
  2.480746e+00    2.727276e+00
  2.496621e+00    2.745877e+00
  2.512497e+00    2.759460e+00
  2.528373e+00    2.759487e+00
  2.544248e+00    2.661296e+00
  2.560124e+00    2.643984e+00
  2.575999e+00    2.710027e+00
  2.591875e+00    2.775297e+00
  2.607750e+00    2.823404e+00
  2.623626e+00    2.838392e+00
  2.639502e+00    2.691875e+00
  2.655377e+00    2.631980e+00
  2.671253e+00    2.854590e+00
  2.687128e+00    2.917495e+00
  2.703004e+00    2.833647e+00
  2.718879e+00    2.785765e+00
  2.734755e+00    2.741819e+00
  2.750631e+00    2.761931e+00
  2.766506e+00    2.791655e+00
  2.782382e+00    2.836471e+00
  2.798257e+00    2.769543e+00
  2.814133e+00    2.720912e+00
  2.830008e+00    2.870174e+00
  2.845884e+00    2.910677e+00
  2.861760e+00    2.833516e+00
  2.877635e+00    2.809542e+00
  2.893511e+00    2.930948e+00
  2.909386e+00    2.909842e+00
  2.925262e+00    2.792516e+00
  2.941137e+00    2.710925e+00
  2.957013e+00    2.674803e+00
  2.972889e+00    2.698055e+00
  2.988764e+00    2.809832e+00
  3.004640e+00    2.810357e+00
  3.020515e+00    2.819897e+00
  3.036391e+00    2.901018e+00
  3.052266e+00    2.909921e+00
  3.068142e+00    2.901262e+00
  3.084018e+00    2.853753e+00
  3.099893e+00    2.777707e+00
  3.115769e+00    2.854568e+00
  3.131644e+00    2.818591e+00
  3.147520e+00    2.818964e+00
  3.163395e+00    2.779057e+00
  3.179271e+00    2.817487e+00
  3.195147e+00    2.809992e+00
  3.211022e+00    2.920376e+00
  3.226898e+00    2.848553e+00
  3.242773e+00    2.916759e+00
  3.258649e+00    2.945513e+00
  3.274525e+00    2.895004e+00
  3.290400e+00    2.856952e+00
  3.306276e+00    2.858485e+00
  3.322151e+00    2.823071e+00
  3.338027e+00    2.850526e+00
  3.353902e+00    2.845636e+00
  3.369778e+00    2.916557e+00
  3.385654e+00    2.916667e+00
  3.401529e+00    2.812053e+00
  3.417405e+00    2.888767e+00
  3.433280e+00    3.020341e+00
  3.449156e+00    3.080212e+00
  3.465031e+00    2.960273e+00
  3.480907e+00    2.972586e+00
  3.496783e+00    3.027798e+00
  3.512658e+00    2.974699e+00
  3.528534e+00    2.982663e+00
  3.544409e+00    2.976923e+00
  3.560285e+00    2.853957e+00
  3.576160e+00    2.872673e+00
  3.592036e+00    2.892696e+00
  3.607912e+00    2.928226e+00
  3.623787e+00    2.933091e+00
  3.639663e+00    2.951240e+00
  3.655538e+00    3.006992e+00
  3.671414e+00    2.992773e+00
  3.687289e+00    3.027210e+00
  3.703165e+00    3.019332e+00
  3.719041e+00    2.993347e+00
  3.734916e+00    2.953644e+00
  3.750792e+00    2.966650e+00
  3.766667e+00    2.920469e+00
  3.782543e+00    2.975513e+00
  3.798418e+00    3.065198e+00
  3.814294e+00    3.045591e+00
  3.830170e+00    3.056745e+00
  3.846045e+00    3.027479e+00
  3.861921e+00    2.931500e+00
  3.877796e+00    2.970163e+00
  3.893672e+00    3.068617e+00
  3.909547e+00    3.094915e+00
  3.925423e+00    3.029302e+00
  3.941299e+00    2.877993e+00
  3.957174e+00    2.961493e+00
  3.973050e+00    2.964856e+00
  3.988925e+00    3.008086e+00
  4.004801e+00    3.038443e+00
  4.020676e+00    2.970485e+00
  4.036552e+00    2.930459e+00
  4.052428e+00    2.989755e+00
  4.068303e+00    3.016638e+00
  4.084179e+00    3.000961e+00
  4.100054e+00    3.037683e+00
  4.115930e+00    3.030453e+00
  4.131806e+00    3.030825e+00
  4.147681e+00    3.084888e+00
  4.163557e+00    2.957740e+00
  4.179432e+00    2.968674e+00
  4.195308e+00    3.059519e+00
  4.211183e+00    3.047615e+00
  4.227059e+00    3.100564e+00
  4.242935e+00    3.053485e+00
  4.258810e+00    3.018678e+00
  4.274686e+00    2.986117e+00
  4.290561e+00    3.088212e+00
  4.306437e+00    3.051918e+00
  4.322312e+00    3.096215e+00
  4.338188e+00    2.979416e+00
  4.354064e+00    3.072237e+00
  4.369939e+00    3.145985e+00
  4.385815e+00    3.063690e+00
  4.401690e+00    3.055112e+00
  4.417566e+00    3.020669e+00
  4.433441e+00    3.044792e+00
  4.449317e+00    3.072814e+00
  4.465193e+00    3.077879e+00
  4.481068e+00    3.005211e+00
  4.496944e+00    2.987021e+00
  4.512819e+00    3.012824e+00
  4.528695e+00    3.123828e+00
  4.544570e+00    3.153180e+00
  4.560446e+00    3.151497e+00
  4.576322e+00    3.048825e+00
  4.592197e+00    3.034716e+00
  4.608073e+00    3.018287e+00
  4.623948e+00    3.049245e+00
  4.639824e+00    3.079159e+00
  4.655699e+00    3.066794e+00
  4.671575e+00    3.066273e+00
  4.687451e+00    3.062721e+00
  4.703326e+00    3.099320e+00
  4.719202e+00    3.066232e+00
  4.735077e+00    3.113554e+00
  4.750953e+00    3.074539e+00
  4.766828e+00    3.063152e+00
  4.782704e+00    3.103484e+00
  4.798580e+00    3.071756e+00
  4.814455e+00    3.054761e+00
  4.830331e+00    3.061891e+00
  4.846206e+00    3.060225e+00
  4.862082e+00    3.071773e+00
  4.877957e+00    3.034289e+00
  4.893833e+00    3.066977e+00
  4.909709e+00    3.095390e+00
  4.925584e+00    3.045747e+00
  4.941460e+00    3.053581e+00
  4.957335e+00    3.070448e+00
  4.973211e+00    3.061156e+00
  4.989086e+00    3.119975e+00
  5.004962e+00    3.123408e+00
  5.020838e+00    3.124027e+00
  5.036713e+00    3.146698e+00
  5.052589e+00    3.197989e+00
  5.068464e+00    3.121344e+00
  5.084340e+00    3.101963e+00
  5.100216e+00    3.111944e+00
  5.116091e+00    3.009822e+00
  5.131967e+00    3.030320e+00
  5.147842e+00    3.073168e+00
  5.163718e+00    3.139829e+00
  5.179593e+00    3.108833e+00
  5.195469e+00    3.049407e+00
  5.211345e+00    3.043983e+00
  5.227220e+00    3.109859e+00
  5.243096e+00    3.098475e+00
  5.258971e+00    3.062883e+00
  5.274847e+00    3.160919e+00
  5.290722e+00    3.151831e+00
  5.306598e+00    3.203729e+00
  5.322474e+00    3.178565e+00
  5.338349e+00    3.164959e+00
  5.354225e+00    3.088005e+00
  5.370100e+00    3.101963e+00
  5.385976e+00    3.129917e+00
  5.401851e+00    3.048376e+00
  5.417727e+00    2.998405e+00
  5.433603e+00    3.081134e+00
  5.449478e+00    3.065378e+00
  5.465354e+00    3.072949e+00
  5.481229e+00    3.137457e+00
  5.497105e+00    3.067759e+00
  5.512980e+00    3.115058e+00
  5.528856e+00    3.083660e+00
  5.544732e+00    3.022550e+00
  5.560607e+00    3.060600e+00
  5.576483e+00    3.097193e+00
  5.592358e+00    3.092040e+00
  5.608234e+00    3.064343e+00
  5.624109e+00    2.991556e+00
  5.639985e+00    3.063718e+00
  5.655861e+00    3.074522e+00
  5.671736e+00    3.078570e+00
  5.687612e+00    3.013847e+00
  5.703487e+00    2.998975e+00
  5.719363e+00    3.097713e+00
  5.735238e+00    3.061976e+00
  5.751114e+00    3.031830e+00
  5.766990e+00    3.003904e+00
  5.782865e+00    3.002993e+00
  5.798741e+00    3.068854e+00
  5.814616e+00    3.091402e+00
  5.830492e+00    3.080332e+00
  5.846367e+00    3.022758e+00
  5.862243e+00    3.003128e+00
  5.878119e+00    3.038405e+00
  5.893994e+00    3.051842e+00
  5.909870e+00    3.016670e+00
  5.925745e+00    3.003979e+00
  5.941621e+00    2.959677e+00
  5.957497e+00    2.946664e+00
  5.973372e+00    2.990856e+00
  5.989248e+00    3.065572e+00
  6.005123e+00    3.041512e+00
  6.020999e+00    3.009605e+00
  6.036874e+00    3.025897e+00
  6.052750e+00    3.054032e+00
  6.068626e+00    3.038049e+00
  6.084501e+00    2.901263e+00
  6.100377e+00    2.975620e+00
  6.116252e+00    3.079429e+00
  6.132128e+00    3.013064e+00
  6.148003e+00    3.018642e+00
  6.163879e+00    3.058929e+00
  6.179755e+00    3.027802e+00
  6.195630e+00    3.051139e+00
  6.211506e+00    3.010432e+00
  6.227381e+00    2.968045e+00
  6.243257e+00    2.971109e+00
  6.259132e+00    2.993383e+00
  6.275008e+00    3.050602e+00
  6.290884e+00    3.026867e+00
  6.306759e+00    3.022350e+00
  6.322635e+00    3.028828e+00
  6.338510e+00    3.021286e+00
  6.354386e+00    3.013004e+00
  6.370261e+00    3.007817e+00
  6.386137e+00    3.018304e+00
  6.402013e+00    3.029225e+00
  6.417888e+00    3.013454e+00
  6.433764e+00    2.957162e+00
  6.449639e+00    3.018948e+00
  6.465515e+00    3.053547e+00
  6.481390e+00    3.053163e+00
  6.497266e+00    2.994983e+00
  6.513142e+00    3.033688e+00
  6.529017e+00    3.093796e+00
  6.544893e+00    3.087455e+00
  6.560768e+00    2.999846e+00
  6.576644e+00    3.004416e+00
  6.592519e+00    3.036702e+00
  6.608395e+00    3.029046e+00
  6.624271e+00    3.026165e+00
  6.640146e+00    3.029547e+00
  6.656022e+00    3.046874e+00
  6.671897e+00    3.034975e+00
  6.687773e+00    3.034255e+00
  6.703648e+00    3.027169e+00
  6.719524e+00    2.990483e+00
  6.735400e+00    2.979975e+00
  6.751275e+00    3.031211e+00
  6.767151e+00    3.033025e+00
  6.783026e+00    3.022090e+00
  6.798902e+00    3.047384e+00
  6.814777e+00    3.035053e+00
  6.830653e+00    3.041526e+00
  6.846529e+00    3.061398e+00
  6.862404e+00    3.059629e+00
  6.878280e+00    2.983212e+00
  6.894155e+00    2.943321e+00
  6.910031e+00    3.041287e+00
  6.925907e+00    3.077734e+00
  6.941782e+00    3.021047e+00
  6.957658e+00    2.985902e+00
  6.973533e+00    2.950814e+00
  6.989409e+00    2.940118e+00
  7.005284e+00    2.996752e+00
  7.021160e+00    3.029157e+00
  7.037036e+00    3.025940e+00
  7.052911e+00    3.008543e+00
  7.068787e+00    2.987817e+00
  7.084662e+00    2.988831e+00
  7.100538e+00    3.023425e+00
  7.116413e+00    2.994452e+00
  7.132289e+00    3.009442e+00
  7.148165e+00    3.055999e+00
  7.164040e+00    3.082691e+00
  7.179916e+00    3.017224e+00
  7.195791e+00    2.999404e+00
  7.211667e+00    3.004396e+00
  7.227542e+00    2.980256e+00
  7.243418e+00    3.033276e+00
  7.259294e+00    2.993098e+00
  7.275169e+00    3.037280e+00
  7.291045e+00    3.033945e+00
  7.306920e+00    2.965306e+00
  7.322796e+00    2.943712e+00
  7.338671e+00    3.006905e+00
  7.354547e+00    3.002173e+00
  7.370423e+00    2.966062e+00
  7.386298e+00    2.927834e+00
  7.402174e+00    2.985852e+00
  7.418049e+00    2.906655e+00
  7.433925e+00    2.907594e+00
  7.449800e+00    2.928726e+00
  7.465676e+00    2.930613e+00
  7.481552e+00    2.912601e+00
  7.497427e+00    2.956153e+00
  7.513303e+00    2.929951e+00
  7.529178e+00    2.961617e+00
  7.545054e+00    2.910466e+00
  7.560929e+00    2.964647e+00
  7.576805e+00    3.000097e+00
  7.592681e+00    2.982342e+00
  7.608556e+00    2.999389e+00
  7.624432e+00    2.940576e+00
  7.640307e+00    2.905493e+00
  7.656183e+00    2.893818e+00
  7.672058e+00    2.897366e+00
  7.687934e+00    2.938698e+00
  7.703810e+00    2.966485e+00
  7.719685e+00    2.936123e+00
  7.735561e+00    2.945823e+00
  7.751436e+00    2.875371e+00
  7.767312e+00    2.845861e+00
  7.783187e+00    2.903895e+00
  7.799063e+00    2.931185e+00
  7.814939e+00    2.940444e+00
  7.830814e+00    2.995645e+00
  7.846690e+00    2.955634e+00
  7.862565e+00    2.904244e+00
  7.878441e+00    2.963489e+00
  7.894317e+00    2.896932e+00
  7.910192e+00    2.922700e+00
  7.926068e+00    2.950458e+00
  7.941943e+00    2.912756e+00
  7.957819e+00    2.886593e+00
  7.973694e+00    2.942003e+00
  7.989570e+00    2.917454e+00
  8.005446e+00    2.858671e+00
  8.021321e+00    2.875718e+00
  8.037197e+00    2.832694e+00
  8.053072e+00    2.881208e+00
  8.068948e+00    2.856069e+00
  8.084823e+00    2.853943e+00
  8.100699e+00    2.833732e+00
  8.116575e+00    2.874135e+00
  8.132450e+00    2.928913e+00
  8.148326e+00    2.942996e+00
  8.164201e+00    2.934149e+00
  8.180077e+00    2.947330e+00
  8.195952e+00    2.938173e+00
  8.211828e+00    2.960711e+00
  8.227704e+00    2.927088e+00
  8.243579e+00    2.961920e+00
  8.259455e+00    2.859540e+00
  8.275330e+00    2.823444e+00
  8.291206e+00    2.900241e+00
  8.307081e+00    2.912070e+00
  8.322957e+00    2.934498e+00
  8.338833e+00    2.872882e+00
  8.354708e+00    2.895588e+00
  8.370584e+00    2.883090e+00
  8.386459e+00    2.869478e+00
  8.402335e+00    2.885034e+00
  8.418210e+00    2.881891e+00
  8.434086e+00    2.860786e+00
  8.449962e+00    2.834411e+00
  8.465837e+00    2.829344e+00
  8.481713e+00    2.849301e+00
  8.497588e+00    2.833754e+00
  8.513464e+00    2.902968e+00
  8.529339e+00    2.883846e+00
  8.545215e+00    2.864999e+00
  8.561091e+00    2.849039e+00
  8.576966e+00    2.847100e+00
  8.592842e+00    2.844258e+00
  8.608717e+00    2.808696e+00
  8.624593e+00    2.850423e+00
  8.640468e+00    2.882015e+00
  8.656344e+00    2.903188e+00
  8.672220e+00    2.814931e+00
  8.688095e+00    2.796591e+00
  8.703971e+00    2.803010e+00
  8.719846e+00    2.897008e+00
  8.735722e+00    2.854573e+00
  8.751598e+00    2.855765e+00
  8.767473e+00    2.861949e+00
  8.783349e+00    2.790244e+00
  8.799224e+00    2.836269e+00
  8.815100e+00    2.797503e+00
  8.830975e+00    2.782766e+00
  8.846851e+00    2.796544e+00
  8.862727e+00    2.810259e+00
  8.878602e+00    2.788327e+00
  8.894478e+00    2.803259e+00
  8.910353e+00    2.868989e+00
  8.926229e+00    2.860943e+00
  8.942104e+00    2.856904e+00
  8.957980e+00    2.788855e+00
  8.973856e+00    2.810582e+00
  8.989731e+00    2.807425e+00
  9.005607e+00    2.858855e+00
  9.021482e+00    2.843159e+00
  9.037358e+00    2.766415e+00
  9.053233e+00    2.769092e+00
  9.069109e+00    2.828368e+00
  9.084985e+00    2.830285e+00
  9.100860e+00    2.854549e+00
  9.116736e+00    2.787999e+00
  9.132611e+00    2.812235e+00
  9.148487e+00    2.774000e+00
  9.164362e+00    2.769004e+00
  9.180238e+00    2.821785e+00
  9.196114e+00    2.753969e+00
  9.211989e+00    2.758639e+00
  9.227865e+00    2.778708e+00
  9.243740e+00    2.749430e+00
  9.259616e+00    2.715989e+00
  9.275491e+00    2.725821e+00
  9.291367e+00    2.775222e+00
  9.307243e+00    2.737605e+00
  9.323118e+00    2.754502e+00
  9.338994e+00    2.744102e+00
  9.354869e+00    2.717445e+00
  9.370745e+00    2.762438e+00
  9.386620e+00    2.782599e+00
  9.402496e+00    2.732609e+00
  9.418372e+00    2.735475e+00
  9.434247e+00    2.739820e+00
  9.450123e+00    2.745408e+00
  9.465998e+00    2.760866e+00
  9.481874e+00    2.789032e+00
  9.497749e+00    2.778050e+00
  9.513625e+00    2.717915e+00
  9.529501e+00    2.696522e+00
  9.545376e+00    2.670966e+00
  9.561252e+00    2.745507e+00
  9.577127e+00    2.723294e+00
  9.593003e+00    2.701955e+00
  9.608878e+00    2.728359e+00
  9.624754e+00    2.724859e+00
  9.640630e+00    2.753852e+00
  9.656505e+00    2.703088e+00
  9.672381e+00    2.701899e+00
  9.688256e+00    2.770645e+00
  9.704132e+00    2.807357e+00
  9.720008e+00    2.693980e+00
  9.735883e+00    2.684461e+00
  9.751759e+00    2.688870e+00
  9.767634e+00    2.687812e+00
  9.783510e+00    2.695452e+00
  9.799385e+00    2.690223e+00
  9.815261e+00    2.656495e+00
  9.831137e+00    2.682384e+00
  9.847012e+00    2.726850e+00
  9.862888e+00    2.712421e+00
  9.878763e+00    2.752661e+00
  9.894639e+00    2.712951e+00
  9.910514e+00    2.711934e+00
  9.926390e+00    2.721137e+00
  9.942266e+00    2.675346e+00
  9.958141e+00    2.661789e+00
  9.974017e+00    2.696964e+00
  9.989892e+00    2.710855e+00
  1.000577e+01    2.672706e+00
  1.002164e+01    2.636129e+00
  1.003752e+01    2.606741e+00
  1.005339e+01    2.650677e+00
  1.006927e+01    2.636239e+00
  1.008515e+01    2.645149e+00
  1.010102e+01    2.616701e+00
  1.011690e+01    2.598562e+00
  1.013277e+01    2.606935e+00
  1.014865e+01    2.649800e+00
  1.016452e+01    2.633607e+00
  1.018040e+01    2.621318e+00
  1.019627e+01    2.614613e+00
  1.021215e+01    2.632554e+00
  1.022803e+01    2.608176e+00
  1.024390e+01    2.599596e+00
  1.025978e+01    2.613397e+00
  1.027565e+01    2.652578e+00
  1.029153e+01    2.631056e+00
  1.030740e+01    2.584787e+00
  1.032328e+01    2.605834e+00
  1.033915e+01    2.590384e+00
  1.035503e+01    2.605819e+00
  1.037091e+01    2.660885e+00
  1.038678e+01    2.598141e+00
  1.040266e+01    2.621557e+00
  1.041853e+01    2.602353e+00
  1.043441e+01    2.598928e+00
  1.045028e+01    2.593022e+00
  1.046616e+01    2.574596e+00
  1.048204e+01    2.548713e+00
  1.049791e+01    2.570317e+00
  1.051379e+01    2.553127e+00
  1.052966e+01    2.572958e+00
  1.054554e+01    2.577601e+00
  1.056141e+01    2.542424e+00
  1.057729e+01    2.606846e+00
  1.059316e+01    2.581192e+00
  1.060904e+01    2.541856e+00
  1.062492e+01    2.531226e+00
  1.064079e+01    2.568232e+00
  1.065667e+01    2.553031e+00
  1.067254e+01    2.531434e+00
  1.068842e+01    2.545391e+00
  1.070429e+01    2.534446e+00
  1.072017e+01    2.555572e+00
  1.073604e+01    2.518229e+00
  1.075192e+01    2.529850e+00
  1.076780e+01    2.502895e+00
  1.078367e+01    2.481692e+00
  1.079955e+01    2.515645e+00
  1.081542e+01    2.475538e+00
  1.083130e+01    2.455437e+00
  1.084717e+01    2.503144e+00
  1.086305e+01    2.508661e+00
  1.087892e+01    2.529291e+00
  1.089480e+01    2.518102e+00
  1.091068e+01    2.455397e+00
  1.092655e+01    2.468221e+00
  1.094243e+01    2.450754e+00
  1.095830e+01    2.426122e+00
  1.097418e+01    2.501041e+00
  1.099005e+01    2.519387e+00
  1.100593e+01    2.518655e+00
  1.102180e+01    2.517140e+00
  1.103768e+01    2.476640e+00
  1.105356e+01    2.461343e+00
  1.106943e+01    2.448223e+00
  1.108531e+01    2.439574e+00
  1.110118e+01    2.487325e+00
  1.111706e+01    2.484730e+00
  1.113293e+01    2.495914e+00
  1.114881e+01    2.516145e+00
  1.116468e+01    2.452533e+00
  1.118056e+01    2.458980e+00
  1.119644e+01    2.462315e+00
  1.121231e+01    2.457151e+00
  1.122819e+01    2.482025e+00
  1.124406e+01    2.477700e+00
  1.125994e+01    2.420656e+00
  1.127581e+01    2.413404e+00
  1.129169e+01    2.444086e+00
  1.130756e+01    2.408094e+00
  1.132344e+01    2.377394e+00
  1.133932e+01    2.382904e+00
  1.135519e+01    2.410949e+00
  1.137107e+01    2.392138e+00
  1.138694e+01    2.452513e+00
  1.140282e+01    2.464980e+00
  1.141869e+01    2.425800e+00
  1.143457e+01    2.384281e+00
  1.145045e+01    2.385480e+00
  1.146632e+01    2.374434e+00
  1.148220e+01    2.409230e+00
  1.149807e+01    2.412224e+00
  1.151395e+01    2.382576e+00
  1.152982e+01    2.383446e+00
  1.154570e+01    2.356027e+00
  1.156157e+01    2.364860e+00
  1.157745e+01    2.378785e+00
  1.159333e+01    2.383872e+00
  1.160920e+01    2.373451e+00
  1.162508e+01    2.388845e+00
  1.164095e+01    2.357611e+00
  1.165683e+01    2.390435e+00
  1.167270e+01    2.397231e+00
  1.168858e+01    2.385480e+00
  1.170445e+01    2.338011e+00
  1.172033e+01    2.318250e+00
  1.173621e+01    2.340084e+00
  1.175208e+01    2.326176e+00
  1.176796e+01    2.328499e+00
  1.178383e+01    2.372656e+00
  1.179971e+01    2.392650e+00
  1.181558e+01    2.337662e+00
  1.183146e+01    2.334978e+00
  1.184733e+01    2.317043e+00
  1.186321e+01    2.324522e+00
  1.187909e+01    2.298193e+00
  1.189496e+01    2.322352e+00
  1.191084e+01    2.334700e+00
  1.192671e+01    2.345190e+00
  1.194259e+01    2.359654e+00
  1.195846e+01    2.322986e+00
  1.197434e+01    2.324075e+00
  1.199021e+01    2.299761e+00
  1.200609e+01    2.330605e+00
  1.202197e+01    2.351297e+00
  1.203784e+01    2.332482e+00
  1.205372e+01    2.293917e+00
  1.206959e+01    2.342093e+00
  1.208547e+01    2.338276e+00
  1.210134e+01    2.312536e+00
  1.211722e+01    2.311827e+00
  1.213309e+01    2.306258e+00
  1.214897e+01    2.282259e+00
  1.216485e+01    2.256054e+00
  1.218072e+01    2.314363e+00
  1.219660e+01    2.312364e+00
  1.221247e+01    2.303739e+00
  1.222835e+01    2.281332e+00
  1.224422e+01    2.317477e+00
  1.226010e+01    2.304534e+00
  1.227597e+01    2.297559e+00
  1.229185e+01    2.318929e+00
  1.230773e+01    2.333112e+00
  1.232360e+01    2.314334e+00
  1.233948e+01    2.303247e+00
  1.235535e+01    2.297566e+00
  1.237123e+01    2.304371e+00
  1.238710e+01    2.288582e+00
  1.240298e+01    2.323544e+00
  1.241886e+01    2.320101e+00
  1.243473e+01    2.320341e+00
  1.245061e+01    2.328072e+00
  1.246648e+01    2.345616e+00
  1.248236e+01    2.332711e+00
  1.249823e+01    2.349105e+00
  1.251411e+01    2.381670e+00
  1.252998e+01    2.372248e+00
  1.254586e+01    2.376842e+00
  1.256174e+01    2.370705e+00
  1.257761e+01    2.388892e+00
  1.259349e+01    2.404144e+00
  1.260936e+01    2.390485e+00
  1.262524e+01    2.423851e+00
  1.264111e+01    2.408705e+00
  1.265699e+01    2.413632e+00
  1.267286e+01    2.428018e+00
  1.268874e+01    2.423939e+00
  1.270462e+01    2.467782e+00
  1.272049e+01    2.507375e+00
  1.273637e+01    2.517130e+00
  1.275224e+01    2.554222e+00
  1.276812e+01    2.540104e+00
  1.278399e+01    2.595361e+00
  1.279987e+01    2.684697e+00
  1.281574e+01    2.709493e+00
  1.283162e+01    2.739563e+00
  1.284750e+01    2.778987e+00
  1.286337e+01    2.869028e+00
  1.287925e+01    3.002857e+00
  1.289512e+01    3.081279e+00
  1.291100e+01    3.213063e+00
  1.292687e+01    3.456318e+00
  1.294275e+01    3.637617e+00
  1.295862e+01    3.962499e+00
  1.297450e+01    4.334381e+00
  1.299038e+01    4.720831e+00
  1.300625e+01    5.253597e+00
  1.302213e+01    5.951060e+00
  1.303800e+01    6.882951e+00
  1.305388e+01    7.983271e+00
  1.306975e+01    9.147641e+00
  1.308563e+01    1.067203e+01
  1.310150e+01    1.217595e+01
  1.311738e+01    1.354405e+01
  1.313326e+01    1.483392e+01
  1.314913e+01    1.608105e+01
  1.316501e+01    1.729265e+01
  1.318088e+01    1.823323e+01
  1.319676e+01    1.853617e+01
  1.321263e+01    1.793019e+01
  1.322851e+01    1.631919e+01
  1.324438e+01    1.409381e+01
  1.326026e+01    1.195317e+01
  1.327614e+01    1.002895e+01
  1.329201e+01    8.391995e+00
  1.330789e+01    7.304008e+00
  1.332376e+01    6.324339e+00
  1.333964e+01    5.525834e+00
  1.335551e+01    4.895126e+00
  1.337139e+01    4.405185e+00
  1.338727e+01    4.012473e+00
  1.340314e+01    3.681953e+00
  1.341902e+01    3.499895e+00
  1.343489e+01    3.301039e+00
  1.345077e+01    3.135999e+00
  1.346664e+01    2.982240e+00
  1.348252e+01    2.898534e+00
  1.349839e+01    2.785508e+00
  1.351427e+01    2.738475e+00
  1.353015e+01    2.654739e+00
  1.354602e+01    2.587736e+00
  1.356190e+01    2.511690e+00
  1.357777e+01    2.483841e+00
  1.359365e+01    2.438100e+00
  1.360952e+01    2.445751e+00
  1.362540e+01    2.375459e+00
  1.364127e+01    2.352740e+00
  1.365715e+01    2.308270e+00
  1.367303e+01    2.291160e+00
  1.368890e+01    2.287305e+00
  1.370478e+01    2.267639e+00
  1.372065e+01    2.234336e+00
  1.373653e+01    2.204227e+00
  1.375240e+01    2.233167e+00
  1.376828e+01    2.214597e+00
  1.378415e+01    2.189323e+00
  1.380003e+01    2.178495e+00
  1.381591e+01    2.188458e+00
  1.383178e+01    2.148025e+00
  1.384766e+01    2.128715e+00
  1.386353e+01    2.129106e+00
  1.387941e+01    2.118455e+00
  1.389528e+01    2.125525e+00
  1.391116e+01    2.134269e+00
  1.392703e+01    2.124115e+00
  1.394291e+01    2.080537e+00
  1.395879e+01    2.112752e+00
  1.397466e+01    2.055214e+00
  1.399054e+01    2.022027e+00
  1.400641e+01    2.054562e+00
  1.402229e+01    2.061355e+00
  1.403816e+01    2.020554e+00
  1.405404e+01    2.016851e+00
  1.406991e+01    2.041804e+00
  1.408579e+01    2.003565e+00
  1.410167e+01    1.978626e+00
  1.411754e+01    2.004072e+00
  1.413342e+01    2.033852e+00
  1.414929e+01    2.011586e+00
  1.416517e+01    2.027102e+00
  1.418104e+01    2.020097e+00
  1.419692e+01    2.003412e+00
  1.421279e+01    1.981268e+00
  1.422867e+01    1.953034e+00
  1.424455e+01    1.954554e+00
  1.426042e+01    1.928815e+00
  1.427630e+01    1.979168e+00
  1.429217e+01    1.959195e+00
  1.430805e+01    1.952452e+00
  1.432392e+01    1.940734e+00
  1.433980e+01    1.900635e+00
  1.435568e+01    1.896829e+00
  1.437155e+01    1.905804e+00
  1.438743e+01    1.909874e+00
  1.440330e+01    1.927572e+00
  1.441918e+01    1.952128e+00
  1.443505e+01    1.945973e+00
  1.445093e+01    1.930951e+00
  1.446680e+01    1.939399e+00
  1.448268e+01    1.945806e+00
  1.449856e+01    1.914527e+00
  1.451443e+01    1.893536e+00
  1.453031e+01    1.870896e+00
  1.454618e+01    1.890326e+00
  1.456206e+01    1.907645e+00
  1.457793e+01    1.894572e+00
  1.459381e+01    1.920977e+00
  1.460968e+01    1.924779e+00
  1.462556e+01    1.912871e+00
  1.464144e+01    1.877074e+00
  1.465731e+01    1.888909e+00
  1.467319e+01    1.896954e+00
  1.468906e+01    1.880748e+00
  1.470494e+01    1.904776e+00
  1.472081e+01    1.918605e+00
  1.473669e+01    1.928763e+00
  1.475256e+01    1.935088e+00
  1.476844e+01    1.891521e+00
  1.478432e+01    1.901301e+00
  1.480019e+01    1.931138e+00
  1.481607e+01    1.922328e+00
  1.483194e+01    1.936803e+00
  1.484782e+01    1.935865e+00
  1.486369e+01    1.900954e+00
  1.487957e+01    1.911549e+00
  1.489544e+01    1.961869e+00
  1.491132e+01    2.019638e+00
  1.492720e+01    1.981540e+00
  1.494307e+01    2.024014e+00
  1.495895e+01    2.022650e+00
  1.497482e+01    2.057872e+00
  1.499070e+01    2.083702e+00
  1.500657e+01    2.139277e+00
  1.502245e+01    2.207880e+00
  1.503832e+01    2.278811e+00
  1.505420e+01    2.326559e+00
  1.507008e+01    2.444824e+00
  1.508595e+01    2.631334e+00
  1.510183e+01    2.760088e+00
  1.511770e+01    2.984033e+00
  1.513358e+01    3.250024e+00
  1.514945e+01    3.677789e+00
  1.516533e+01    4.059195e+00
  1.518120e+01    4.445733e+00
  1.519708e+01    4.764101e+00
  1.521296e+01    5.179260e+00
  1.522883e+01    5.547744e+00
  1.524471e+01    5.830773e+00
  1.526058e+01    6.084141e+00
  1.527646e+01    6.210252e+00
  1.529233e+01    6.167409e+00
  1.530821e+01    5.991492e+00
  1.532409e+01    5.578428e+00
  1.533996e+01    5.019315e+00
  1.535584e+01    4.440163e+00
  1.537171e+01    3.846772e+00
  1.538759e+01    3.391776e+00
  1.540346e+01    3.138643e+00
  1.541934e+01    2.884704e+00
  1.543521e+01    2.685469e+00
  1.545109e+01    2.460109e+00
  1.546697e+01    2.326417e+00
  1.548284e+01    2.240456e+00
  1.549872e+01    2.155280e+00
  1.551459e+01    2.101102e+00
  1.553047e+01    2.037679e+00
  1.554634e+01    1.919876e+00
  1.556222e+01    1.940433e+00
  1.557809e+01    1.896067e+00
  1.559397e+01    1.850188e+00
  1.560985e+01    1.813005e+00
  1.562572e+01    1.847265e+00
  1.564160e+01    1.816179e+00
  1.565747e+01    1.802515e+00
  1.567335e+01    1.754373e+00
  1.568922e+01    1.747330e+00
  1.570510e+01    1.731676e+00
  1.572097e+01    1.723146e+00
  1.573685e+01    1.724859e+00
  1.575273e+01    1.741706e+00
  1.576860e+01    1.755173e+00
  1.578448e+01    1.683232e+00
  1.580035e+01    1.666068e+00
  1.581623e+01    1.678159e+00
  1.583210e+01    1.683412e+00
  1.584798e+01    1.658655e+00
  1.586385e+01    1.621178e+00
  1.587973e+01    1.651490e+00
  1.589561e+01    1.634915e+00
  1.591148e+01    1.659310e+00
  1.592736e+01    1.642129e+00
  1.594323e+01    1.607394e+00
  1.595911e+01    1.596663e+00
  1.597498e+01    1.600204e+00
  1.599086e+01    1.613064e+00
  1.600673e+01    1.633884e+00
  1.602261e+01    1.657787e+00
  1.603849e+01    1.620258e+00
  1.605436e+01    1.614668e+00
  1.607024e+01    1.588171e+00
  1.608611e+01    1.592839e+00
  1.610199e+01    1.608381e+00
  1.611786e+01    1.589351e+00
  1.613374e+01    1.578087e+00
  1.614961e+01    1.563909e+00
  1.616549e+01    1.585992e+00
  1.618137e+01    1.603896e+00
  1.619724e+01    1.542764e+00
  1.621312e+01    1.561166e+00
  1.622899e+01    1.548655e+00
  1.624487e+01    1.540271e+00
  1.626074e+01    1.540581e+00
  1.627662e+01    1.540167e+00
  1.629250e+01    1.557400e+00
  1.630837e+01    1.525016e+00
  1.632425e+01    1.518360e+00
  1.634012e+01    1.520430e+00
  1.635600e+01    1.525532e+00
  1.637187e+01    1.546341e+00
  1.638775e+01    1.533844e+00
  1.640362e+01    1.528762e+00
  1.641950e+01    1.538345e+00
  1.643538e+01    1.520288e+00
  1.645125e+01    1.514815e+00
  1.646713e+01    1.520734e+00
  1.648300e+01    1.525019e+00
  1.649888e+01    1.488759e+00
  1.651475e+01    1.510268e+00
  1.653063e+01    1.498812e+00
  1.654650e+01    1.512455e+00
  1.656238e+01    1.522769e+00
  1.657826e+01    1.499252e+00
  1.659413e+01    1.513244e+00
  1.661001e+01    1.508344e+00
  1.662588e+01    1.477748e+00
  1.664176e+01    1.492842e+00
  1.665763e+01    1.489537e+00
  1.667351e+01    1.486239e+00
  1.668938e+01    1.477425e+00
  1.670526e+01    1.465814e+00
  1.672114e+01    1.467226e+00
  1.673701e+01    1.439627e+00
  1.675289e+01    1.481337e+00
  1.676876e+01    1.467735e+00
  1.678464e+01    1.422161e+00
  1.680051e+01    1.468704e+00
  1.681639e+01    1.410593e+00
  1.683226e+01    1.422474e+00
  1.684814e+01    1.429097e+00
  1.686402e+01    1.438134e+00
  1.687989e+01    1.440027e+00
  1.689577e+01    1.439298e+00
  1.691164e+01    1.449094e+00
  1.692752e+01    1.423266e+00
  1.694339e+01    1.429005e+00
  1.695927e+01    1.424279e+00
  1.697514e+01    1.442911e+00
  1.699102e+01    1.468333e+00
  1.700690e+01    1.450891e+00
  1.702277e+01    1.423980e+00
  1.703865e+01    1.421213e+00
  1.705452e+01    1.407943e+00
  1.707040e+01    1.414517e+00
  1.708627e+01    1.424617e+00
  1.710215e+01    1.416624e+00
  1.711802e+01    1.426647e+00
  1.713390e+01    1.408437e+00
  1.714978e+01    1.410954e+00
  1.716565e+01    1.414478e+00
  1.718153e+01    1.401461e+00
  1.719740e+01    1.394086e+00
  1.721328e+01    1.399435e+00
  1.722915e+01    1.387834e+00
  1.724503e+01    1.375742e+00
  1.726091e+01    1.387725e+00
  1.727678e+01    1.395082e+00
  1.729266e+01    1.407509e+00
  1.730853e+01    1.401985e+00
  1.732441e+01    1.393941e+00
  1.734028e+01    1.377379e+00
  1.735616e+01    1.365886e+00
  1.737203e+01    1.378447e+00
  1.738791e+01    1.386962e+00
  1.740379e+01    1.387764e+00
  1.741966e+01    1.361317e+00
  1.743554e+01    1.394679e+00
  1.745141e+01    1.388358e+00
  1.746729e+01    1.354359e+00
  1.748316e+01    1.334540e+00
  1.749904e+01    1.333016e+00
  1.751491e+01    1.346415e+00
  1.753079e+01    1.342220e+00
  1.754667e+01    1.346351e+00
  1.756254e+01    1.365104e+00
  1.757842e+01    1.359652e+00
  1.759429e+01    1.344694e+00
  1.761017e+01    1.327368e+00
  1.762604e+01    1.331493e+00
  1.764192e+01    1.332262e+00
  1.765779e+01    1.320414e+00
  1.767367e+01    1.329263e+00
  1.768955e+01    1.334300e+00
  1.770542e+01    1.362646e+00
  1.772130e+01    1.328915e+00
  1.773717e+01    1.371025e+00
  1.775305e+01    1.357539e+00
  1.776892e+01    1.361542e+00
  1.778480e+01    1.368357e+00
  1.780067e+01    1.309040e+00
  1.781655e+01    1.317796e+00
  1.783243e+01    1.330511e+00
  1.784830e+01    1.326687e+00
  1.786418e+01    1.325693e+00
  1.788005e+01    1.306996e+00
  1.789593e+01    1.311482e+00
  1.791180e+01    1.307937e+00
  1.792768e+01    1.294671e+00
  1.794355e+01    1.309142e+00
  1.795943e+01    1.290526e+00
  1.797531e+01    1.293176e+00
  1.799118e+01    1.299273e+00
  1.800706e+01    1.288920e+00
  1.802293e+01    1.286431e+00
  1.803881e+01    1.279634e+00
  1.805468e+01    1.303007e+00
  1.807056e+01    1.301286e+00
  1.808643e+01    1.258973e+00
  1.810231e+01    1.297858e+00
  1.811819e+01    1.298530e+00
  1.813406e+01    1.287708e+00
  1.814994e+01    1.258167e+00
  1.816581e+01    1.272792e+00
  1.818169e+01    1.291119e+00
  1.819756e+01    1.280046e+00
  1.821344e+01    1.274716e+00
  1.822932e+01    1.283111e+00
  1.824519e+01    1.288823e+00
  1.826107e+01    1.284410e+00
  1.827694e+01    1.279646e+00
  1.829282e+01    1.288059e+00
  1.830869e+01    1.269978e+00
  1.832457e+01    1.254462e+00
  1.834044e+01    1.277441e+00
  1.835632e+01    1.272438e+00
  1.837220e+01    1.275243e+00
  1.838807e+01    1.265416e+00
  1.840395e+01    1.269062e+00
  1.841982e+01    1.265163e+00
  1.843570e+01    1.251966e+00
  1.845157e+01    1.250443e+00
  1.846745e+01    1.238410e+00
  1.848332e+01    1.224166e+00
  1.849920e+01    1.253675e+00
  1.851508e+01    1.250806e+00
  1.853095e+01    1.254613e+00
  1.854683e+01    1.249638e+00
  1.856270e+01    1.233629e+00
  1.857858e+01    1.239295e+00
  1.859445e+01    1.234452e+00
  1.861033e+01    1.248829e+00
  1.862620e+01    1.242031e+00
  1.864208e+01    1.228317e+00
  1.865796e+01    1.236485e+00
  1.867383e+01    1.239639e+00
  1.868971e+01    1.239296e+00
  1.870558e+01    1.224783e+00
  1.872146e+01    1.226817e+00
  1.873733e+01    1.230636e+00
  1.875321e+01    1.229942e+00
  1.876908e+01    1.223684e+00
  1.878496e+01    1.216370e+00
  1.880084e+01    1.199212e+00
  1.881671e+01    1.188121e+00
  1.883259e+01    1.204069e+00
  1.884846e+01    1.195979e+00
  1.886434e+01    1.228997e+00
  1.888021e+01    1.213243e+00
  1.889609e+01    1.200228e+00
  1.891196e+01    1.226853e+00
  1.892784e+01    1.210262e+00
  1.894372e+01    1.203767e+00
  1.895959e+01    1.205029e+00
  1.897547e+01    1.209651e+00
  1.899134e+01    1.199270e+00
  1.900722e+01    1.192602e+00
  1.902309e+01    1.198336e+00
  1.903897e+01    1.190926e+00
  1.905484e+01    1.192776e+00
  1.907072e+01    1.198208e+00
  1.908660e+01    1.203036e+00
  1.910247e+01    1.196024e+00
  1.911835e+01    1.187896e+00
  1.913422e+01    1.196802e+00
  1.915010e+01    1.175384e+00
  1.916597e+01    1.177507e+00
  1.918185e+01    1.177050e+00
  1.919773e+01    1.176894e+00
  1.921360e+01    1.172857e+00
  1.922948e+01    1.181857e+00
  1.924535e+01    1.171558e+00
  1.926123e+01    1.158985e+00
  1.927710e+01    1.170005e+00
  1.929298e+01    1.172181e+00
  1.930885e+01    1.179691e+00
  1.932473e+01    1.186999e+00
  1.934061e+01    1.186298e+00
  1.935648e+01    1.184741e+00
  1.937236e+01    1.194351e+00
  1.938823e+01    1.183127e+00
  1.940411e+01    1.170244e+00
  1.941998e+01    1.152957e+00
  1.943586e+01    1.139002e+00
  1.945173e+01    1.156554e+00
  1.946761e+01    1.174053e+00
  1.948349e+01    1.162794e+00
  1.949936e+01    1.145218e+00
  1.951524e+01    1.147413e+00
  1.953111e+01    1.155723e+00
  1.954699e+01    1.155027e+00
  1.956286e+01    1.153367e+00
  1.957874e+01    1.181127e+00
  1.959461e+01    1.143034e+00
  1.961049e+01    1.137801e+00
  1.962637e+01    1.128471e+00
  1.964224e+01    1.126139e+00
  1.965812e+01    1.121062e+00
  1.967399e+01    1.148649e+00
  1.968987e+01    1.144568e+00
  1.970574e+01    1.125873e+00
  1.972162e+01    1.109953e+00
  1.973749e+01    1.131434e+00
  1.975337e+01    1.165053e+00
  1.976925e+01    1.161531e+00
  1.978512e+01    1.127236e+00
  1.980100e+01    1.132136e+00
  1.981687e+01    1.151307e+00
  1.983275e+01    1.127278e+00
  1.984862e+01    1.137823e+00
  1.986450e+01    1.144795e+00
  1.988037e+01    1.130802e+00
  1.989625e+01    1.131165e+00
  1.991213e+01    1.146252e+00
  1.992800e+01    1.137030e+00
  1.994388e+01    1.112256e+00
  1.995975e+01    1.141421e+00
  1.997563e+01    1.124026e+00
  1.999150e+01    1.148630e+00
  2.000738e+01    1.117627e+00
  2.002325e+01    1.100534e+00
  2.003913e+01    1.104463e+00
  2.005501e+01    1.116984e+00
  2.007088e+01    1.112961e+00
  2.008676e+01    1.090829e+00
  2.010263e+01    1.125484e+00
  2.011851e+01    1.115409e+00
  2.013438e+01    1.103786e+00
  2.015026e+01    1.129436e+00
  2.016614e+01    1.103700e+00
  2.018201e+01    1.110246e+00
  2.019789e+01    1.112162e+00
  2.021376e+01    1.113295e+00
  2.022964e+01    1.110617e+00
  2.024551e+01    1.099806e+00
  2.026139e+01    1.098499e+00
  2.027726e+01    1.112388e+00
  2.029314e+01    1.092726e+00
  2.030902e+01    1.086210e+00
  2.032489e+01    1.078335e+00
  2.034077e+01    1.095584e+00
  2.035664e+01    1.107579e+00
  2.037252e+01    1.061878e+00
  2.038839e+01    1.077652e+00
  2.040427e+01    1.116770e+00
  2.042014e+01    1.121004e+00
  2.043602e+01    1.098706e+00
  2.045190e+01    1.072393e+00
  2.046777e+01    1.059286e+00
  2.048365e+01    1.087716e+00
  2.049952e+01    1.096558e+00
  2.051540e+01    1.095123e+00
  2.053127e+01    1.103425e+00
  2.054715e+01    1.101271e+00
  2.056302e+01    1.102565e+00
  2.057890e+01    1.086272e+00
  2.059478e+01    1.096992e+00
  2.061065e+01    1.057028e+00
  2.062653e+01    1.081118e+00
  2.064240e+01    1.082491e+00
  2.065828e+01    1.095122e+00
  2.067415e+01    1.086644e+00
  2.069003e+01    1.098164e+00
  2.070590e+01    1.111226e+00
  2.072178e+01    1.117678e+00
  2.073766e+01    1.077025e+00
  2.075353e+01    1.082750e+00
  2.076941e+01    1.084218e+00
  2.078528e+01    1.096868e+00
  2.080116e+01    1.085262e+00
  2.081703e+01    1.089317e+00
  2.083291e+01    1.082745e+00
  2.084878e+01    1.079317e+00
  2.086466e+01    1.077986e+00
  2.088054e+01    1.088289e+00
  2.089641e+01    1.075756e+00
  2.091229e+01    1.054249e+00
  2.092816e+01    1.081903e+00
  2.094404e+01    1.072610e+00
  2.095991e+01    1.072637e+00
  2.097579e+01    1.070962e+00
  2.099166e+01    1.087263e+00
  2.100754e+01    1.084967e+00
  2.102342e+01    1.077126e+00
  2.103929e+01    1.065557e+00
  2.105517e+01    1.077412e+00
  2.107104e+01    1.061487e+00
  2.108692e+01    1.086789e+00
  2.110279e+01    1.089254e+00
  2.111867e+01    1.080073e+00
  2.113455e+01    1.047896e+00
  2.115042e+01    1.071338e+00
  2.116630e+01    1.064543e+00
  2.118217e+01    1.090895e+00
  2.119805e+01    1.097942e+00
  2.121392e+01    1.109264e+00
  2.122980e+01    1.097706e+00
  2.124567e+01    1.105096e+00
  2.126155e+01    1.106140e+00
  2.127743e+01    1.104232e+00
  2.129330e+01    1.113060e+00
  2.130918e+01    1.120097e+00
  2.132505e+01    1.121858e+00
  2.134093e+01    1.123150e+00
  2.135680e+01    1.172786e+00
  2.137268e+01    1.171236e+00
  2.138855e+01    1.178895e+00
  2.140443e+01    1.167811e+00
  2.142031e+01    1.181138e+00
  2.143618e+01    1.196546e+00
  2.145206e+01    1.228190e+00
  2.146793e+01    1.240470e+00
  2.148381e+01    1.244261e+00
  2.149968e+01    1.248534e+00
  2.151556e+01    1.301129e+00
  2.153143e+01    1.333179e+00
  2.154731e+01    1.355720e+00
  2.156319e+01    1.418569e+00
  2.157906e+01    1.454835e+00
  2.159494e+01    1.512630e+00
  2.161081e+01    1.539127e+00
  2.162669e+01    1.674237e+00
  2.164256e+01    1.790545e+00
  2.165844e+01    1.879496e+00
  2.167431e+01    1.982610e+00
  2.169019e+01    2.171117e+00
  2.170607e+01    2.379723e+00
  2.172194e+01    2.651702e+00
  2.173782e+01    3.006841e+00
  2.175369e+01    3.438594e+00
  2.176957e+01    3.896071e+00
  2.178544e+01    4.439533e+00
  2.180132e+01    5.092311e+00
  2.181719e+01    5.799918e+00
  2.183307e+01    6.556829e+00
  2.184895e+01    7.382648e+00
  2.186482e+01    8.228531e+00
  2.188070e+01    9.073072e+00
  2.189657e+01    9.747735e+00
  2.191245e+01    1.024884e+01
  2.192832e+01    1.035250e+01
  2.194420e+01    9.915260e+00
  2.196007e+01    9.098450e+00
  2.197595e+01    8.078267e+00
  2.199183e+01    6.923269e+00
  2.200770e+01    5.878449e+00
  2.202358e+01    4.993080e+00
  2.203945e+01    4.215890e+00
  2.205533e+01    3.620795e+00
  2.207120e+01    3.160938e+00
  2.208708e+01    2.769465e+00
  2.210296e+01    2.457437e+00
  2.211883e+01    2.261027e+00
  2.213471e+01    2.077764e+00
  2.215058e+01    1.919515e+00
  2.216646e+01    1.781267e+00
  2.218233e+01    1.681595e+00
  2.219821e+01    1.585781e+00
  2.221408e+01    1.511387e+00
  2.222996e+01    1.453220e+00
  2.224584e+01    1.364370e+00
  2.226171e+01    1.336974e+00
  2.227759e+01    1.320777e+00
  2.229346e+01    1.282640e+00
  2.230934e+01    1.232578e+00
  2.232521e+01    1.191737e+00
  2.234109e+01    1.176553e+00
  2.235696e+01    1.161838e+00
  2.237284e+01    1.142011e+00
  2.238872e+01    1.124078e+00
  2.240459e+01    1.118047e+00
  2.242047e+01    1.100757e+00
  2.243634e+01    1.075916e+00
  2.245222e+01    1.082841e+00
  2.246809e+01    1.055918e+00
  2.248397e+01    1.052510e+00
  2.249984e+01    1.056713e+00
  2.251572e+01    1.047203e+00
  2.253160e+01    1.019015e+00
  2.254747e+01    1.011678e+00
  2.256335e+01    1.000957e+00
  2.257922e+01    1.010101e+00
  2.259510e+01    9.998962e-01
  2.261097e+01    9.821836e-01
  2.262685e+01    9.728917e-01
  2.264272e+01    9.687625e-01
  2.265860e+01    9.612886e-01
  2.267448e+01    9.558150e-01
  2.269035e+01    9.639411e-01
  2.270623e+01    9.339598e-01
  2.272210e+01    9.377844e-01
  2.273798e+01    9.473963e-01
  2.275385e+01    9.436643e-01
  2.276973e+01    9.223112e-01
  2.278560e+01    9.475148e-01
  2.280148e+01    9.399989e-01
  2.281736e+01    9.406973e-01
  2.283323e+01    9.338962e-01
  2.284911e+01    9.060588e-01
  2.286498e+01    9.104860e-01
  2.288086e+01    9.383984e-01
  2.289673e+01    9.335529e-01
  2.291261e+01    9.158235e-01
  2.292848e+01    9.259093e-01
  2.294436e+01    9.135197e-01
  2.296024e+01    9.191669e-01
  2.297611e+01    8.921984e-01
  2.299199e+01    8.966255e-01
  2.300786e+01    9.038969e-01
  2.302374e+01    9.107928e-01
  2.303961e+01    9.041810e-01
  2.305549e+01    8.826581e-01
  2.307137e+01    8.760447e-01
  2.308724e+01    8.891829e-01
  2.310312e+01    8.904418e-01
  2.311899e+01    8.766703e-01
  2.313487e+01    8.919040e-01
  2.315074e+01    8.802308e-01
  2.316662e+01    8.758029e-01
  2.318249e+01    8.642710e-01
  2.319837e+01    8.564427e-01
  2.321425e+01    8.687214e-01
  2.323012e+01    8.814427e-01
  2.324600e+01    8.538731e-01
  2.326187e+01    8.609378e-01
  2.327775e+01    8.478334e-01
  2.329362e+01    8.678428e-01
  2.330950e+01    8.593024e-01
  2.332537e+01    8.594859e-01
  2.334125e+01    8.711125e-01
  2.335713e+01    8.809243e-01
  2.337300e+01    8.735833e-01
  2.338888e+01    8.736286e-01
  2.340475e+01    8.709015e-01
  2.342063e+01    8.813095e-01
  2.343650e+01    8.679910e-01
  2.345238e+01    8.568125e-01
  2.346825e+01    8.641548e-01
  2.348413e+01    8.329426e-01
  2.350001e+01    8.367322e-01
  2.351588e+01    8.560329e-01
  2.353176e+01    8.389624e-01
  2.354763e+01    8.398845e-01
  2.356351e+01    8.634464e-01
  2.357938e+01    8.481707e-01
  2.359526e+01    8.535890e-01
  2.361113e+01    8.644730e-01
  2.362701e+01    8.372741e-01
  2.364289e+01    8.353983e-01
  2.365876e+01    8.395811e-01
  2.367464e+01    8.319135e-01
  2.369051e+01    8.335623e-01
  2.370639e+01    8.304031e-01
  2.372226e+01    8.240717e-01
  2.373814e+01    8.042380e-01
  2.375401e+01    8.115908e-01
  2.376989e+01    8.258246e-01
  2.378577e+01    8.350890e-01
  2.380164e+01    8.066190e-01
  2.381752e+01    7.958830e-01
  2.383339e+01    8.050412e-01
  2.384927e+01    8.104603e-01
  2.386514e+01    7.988900e-01
  2.388102e+01    8.025053e-01
  2.389689e+01    8.142051e-01
  2.391277e+01    8.136401e-01
  2.392865e+01    7.935712e-01
  2.394452e+01    8.021418e-01
  2.396040e+01    8.015296e-01
  2.397627e+01    8.029611e-01
  2.399215e+01    7.836581e-01
  2.400802e+01    7.775776e-01
  2.402390e+01    7.744281e-01
  2.403978e+01    7.949674e-01
  2.405565e+01    8.013880e-01
  2.407153e+01    7.864451e-01
  2.408740e+01    7.877114e-01
  2.410328e+01    7.884613e-01
  2.411915e+01    7.926594e-01
  2.413503e+01    7.807753e-01
  2.415090e+01    7.863072e-01
  2.416678e+01    7.779628e-01
  2.418266e+01    7.606492e-01
  2.419853e+01    7.681440e-01
  2.421441e+01    7.742006e-01
  2.423028e+01    7.813982e-01
  2.424616e+01    7.830901e-01
  2.426203e+01    8.044981e-01
  2.427791e+01    7.821681e-01
  2.429378e+01    7.874393e-01
  2.430966e+01    7.941062e-01
  2.432554e+01    7.784476e-01
  2.434141e+01    7.872629e-01
  2.435729e+01    7.988153e-01
  2.437316e+01    8.060961e-01
  2.438904e+01    8.099430e-01
  2.440491e+01    8.104749e-01
  2.442079e+01    7.882019e-01
  2.443666e+01    7.782838e-01
  2.445254e+01    7.882066e-01
  2.446842e+01    8.126854e-01
  2.448429e+01    7.957934e-01
  2.450017e+01    7.737802e-01
  2.451604e+01    7.900585e-01
  2.453192e+01    8.014566e-01
  2.454779e+01    7.957163e-01
  2.456367e+01    8.048096e-01
  2.457954e+01    8.240265e-01
  2.459542e+01    8.123288e-01
  2.461130e+01    8.066686e-01
  2.462717e+01    7.746547e-01
  2.464305e+01    7.980548e-01
  2.465892e+01    7.923687e-01
  2.467480e+01    7.812709e-01
  2.469067e+01    7.909067e-01
  2.470655e+01    7.965693e-01
  2.472242e+01    8.252542e-01
  2.473830e+01    8.102170e-01
  2.475418e+01    7.919717e-01
  2.477005e+01    8.003908e-01
  2.478593e+01    8.041487e-01
  2.480180e+01    7.755306e-01
  2.481768e+01    7.914509e-01
  2.483355e+01    7.909933e-01
  2.484943e+01    7.810282e-01
  2.486530e+01    7.785696e-01
  2.488118e+01    7.892181e-01
  2.489706e+01    7.852334e-01
  2.491293e+01    8.000818e-01
  2.492881e+01    8.040850e-01
  2.494468e+01    7.846635e-01
  2.496056e+01    7.991039e-01
  2.497643e+01    8.001378e-01
  2.499231e+01    7.986142e-01
  2.500819e+01    8.056278e-01
  2.502406e+01    8.121504e-01
  2.503994e+01    7.993177e-01
  2.505581e+01    7.927214e-01
  2.507169e+01    8.033355e-01
  2.508756e+01    8.049635e-01
  2.510344e+01    8.147896e-01
  2.511931e+01    8.056741e-01
  2.513519e+01    8.196548e-01
  2.515107e+01    8.262182e-01
  2.516694e+01    8.131818e-01
  2.518282e+01    8.394340e-01
  2.519869e+01    8.287029e-01
  2.521457e+01    8.384711e-01
  2.523044e+01    8.407013e-01
  2.524632e+01    8.144669e-01
  2.526219e+01    8.249219e-01
  2.527807e+01    8.480420e-01
  2.529395e+01    8.938925e-01
  2.530982e+01    8.830975e-01
  2.532570e+01    8.688417e-01
  2.534157e+01    8.816341e-01
  2.535745e+01    8.794105e-01
  2.537332e+01    8.863940e-01
  2.538920e+01    8.952281e-01
  2.540507e+01    9.129118e-01
  2.542095e+01    9.183096e-01
  2.543683e+01    9.249833e-01
  2.545270e+01    9.258246e-01
  2.546858e+01    9.406506e-01
  2.548445e+01    9.582189e-01
  2.550033e+01    9.698287e-01
  2.551620e+01    9.937263e-01
  2.553208e+01    9.951895e-01
  2.554795e+01    1.032151e+00
  2.556383e+01    1.037741e+00
  2.557971e+01    1.066541e+00
  2.559558e+01    1.109436e+00
  2.561146e+01    1.106588e+00
  2.562733e+01    1.154416e+00
  2.564321e+01    1.192043e+00
  2.565908e+01    1.239724e+00
  2.567496e+01    1.283499e+00
  2.569083e+01    1.351697e+00
  2.570671e+01    1.417042e+00
  2.572259e+01    1.494295e+00
  2.573846e+01    1.647553e+00
  2.575434e+01    1.761876e+00
  2.577021e+01    1.901968e+00
  2.578609e+01    2.130192e+00
  2.580196e+01    2.380789e+00
  2.581784e+01    2.646930e+00
  2.583371e+01    2.970194e+00
  2.584959e+01    3.441153e+00
  2.586547e+01    3.927299e+00
  2.588134e+01    4.500781e+00
  2.589722e+01    5.143845e+00
  2.591309e+01    5.863847e+00
  2.592897e+01    6.584369e+00
  2.594484e+01    7.355061e+00
  2.596072e+01    7.988217e+00
  2.597660e+01    8.348292e+00
  2.599247e+01    8.478265e+00
  2.600835e+01    8.267022e+00
  2.602422e+01    7.767815e+00
  2.604010e+01    7.034735e+00
  2.605597e+01    6.147626e+00
  2.607185e+01    5.306912e+00
  2.608772e+01    4.536856e+00
  2.610360e+01    3.862092e+00
  2.611948e+01    3.317834e+00
  2.613535e+01    2.903446e+00
  2.615123e+01    2.551112e+00
  2.616710e+01    2.284423e+00
  2.618298e+01    2.071394e+00
  2.619885e+01    1.868726e+00
  2.621473e+01    1.702369e+00
  2.623060e+01    1.584759e+00
  2.624648e+01    1.516430e+00
  2.626236e+01    1.419943e+00
  2.627823e+01    1.338321e+00
  2.629411e+01    1.284007e+00
  2.630998e+01    1.241592e+00
  2.632586e+01    1.184540e+00
  2.634173e+01    1.141598e+00
  2.635761e+01    1.122568e+00
  2.637348e+01    1.116353e+00
  2.638936e+01    1.077547e+00
  2.640524e+01    1.018426e+00
  2.642111e+01    1.012497e+00
  2.643699e+01    9.971441e-01
  2.645286e+01    9.915882e-01
  2.646874e+01    9.938604e-01
  2.648461e+01    9.596296e-01
  2.650049e+01    9.754421e-01
  2.651636e+01    9.771870e-01
  2.653224e+01    9.500122e-01
  2.654812e+01    9.534886e-01
  2.656399e+01    9.292123e-01
  2.657987e+01    9.384567e-01
  2.659574e+01    9.271377e-01
  2.661162e+01    9.092128e-01
  2.662749e+01    9.122109e-01
  2.664337e+01    9.316686e-01
  2.665924e+01    9.291841e-01
  2.667512e+01    9.071113e-01
  2.669100e+01    9.039230e-01
  2.670687e+01    9.075130e-01
  2.672275e+01    9.103853e-01
  2.673862e+01    8.966694e-01
  2.675450e+01    9.084371e-01
  2.677037e+01    9.019983e-01
  2.678625e+01    8.986824e-01
  2.680212e+01    9.099176e-01
  2.681800e+01    9.257367e-01
  2.683388e+01    9.184918e-01
  2.684975e+01    9.024062e-01
  2.686563e+01    8.882394e-01
  2.688150e+01    8.947769e-01
  2.689738e+01    9.149347e-01
  2.691325e+01    9.337510e-01
  2.692913e+01    9.477076e-01
  2.694501e+01    9.361165e-01
  2.696088e+01    9.514070e-01
  2.697676e+01    9.725692e-01
  2.699263e+01    9.947662e-01
  2.700851e+01    1.005060e+00
  2.702438e+01    1.045577e+00
  2.704026e+01    1.064595e+00
  2.705613e+01    1.134260e+00
  2.707201e+01    1.162085e+00
  2.708789e+01    1.217539e+00
  2.710376e+01    1.303461e+00
  2.711964e+01    1.396035e+00
  2.713551e+01    1.523230e+00
  2.715139e+01    1.666983e+00
  2.716726e+01    1.779357e+00
  2.718314e+01    1.942724e+00
  2.719901e+01    2.113793e+00
  2.721489e+01    2.297931e+00
  2.723077e+01    2.359796e+00
  2.724664e+01    2.440390e+00
  2.726252e+01    2.464123e+00
  2.727839e+01    2.393561e+00
  2.729427e+01    2.227654e+00
  2.731014e+01    2.030612e+00
  2.732602e+01    1.837481e+00
  2.734189e+01    1.678116e+00
  2.735777e+01    1.523026e+00
  2.737365e+01    1.396086e+00
  2.738952e+01    1.296364e+00
  2.740540e+01    1.238211e+00
  2.742127e+01    1.164777e+00
  2.743715e+01    1.081802e+00
  2.745302e+01    1.053241e+00
  2.746890e+01    1.018566e+00
  2.748477e+01    1.025500e+00
  2.750065e+01    9.843522e-01
  2.751653e+01    9.418425e-01
  2.753240e+01    9.274744e-01
  2.754828e+01    9.300438e-01
  2.756415e+01    9.111946e-01
  2.758003e+01    8.868439e-01
  2.759590e+01    8.846917e-01
  2.761178e+01    8.844260e-01
  2.762765e+01    8.602582e-01
  2.764353e+01    8.395671e-01
  2.765941e+01    8.549896e-01
  2.767528e+01    8.550026e-01
  2.769116e+01    8.473327e-01
  2.770703e+01    8.390668e-01
  2.772291e+01    8.265802e-01
  2.773878e+01    8.076441e-01
  2.775466e+01    8.087962e-01
  2.777054e+01    8.328865e-01
  2.778641e+01    8.357230e-01
  2.780229e+01    8.291616e-01
  2.781816e+01    8.291685e-01
  2.783404e+01    8.331082e-01
  2.784991e+01    8.061064e-01
  2.786579e+01    7.863884e-01
  2.788166e+01    7.940785e-01
  2.789754e+01    7.932870e-01
  2.791342e+01    8.044699e-01
  2.792929e+01    7.943817e-01
  2.794517e+01    7.871045e-01
  2.796104e+01    7.873488e-01
  2.797692e+01    7.926449e-01
  2.799279e+01    7.993604e-01
  2.800867e+01    8.000519e-01
  2.802454e+01    7.912508e-01
  2.804042e+01    7.959167e-01
  2.805630e+01    7.878765e-01
  2.807217e+01    7.841590e-01
  2.808805e+01    8.019653e-01
  2.810392e+01    7.848750e-01
  2.811980e+01    7.707219e-01
  2.813567e+01    7.795199e-01
  2.815155e+01    7.835008e-01
  2.816742e+01    7.879892e-01
  2.818330e+01    7.889840e-01
  2.819918e+01    7.618299e-01
  2.821505e+01    7.751420e-01
  2.823093e+01    7.946799e-01
  2.824680e+01    7.778136e-01
  2.826268e+01    7.612189e-01
  2.827855e+01    7.746483e-01
  2.829443e+01    7.744926e-01
  2.831030e+01    7.776060e-01
  2.832618e+01    7.686985e-01
  2.834206e+01    7.761436e-01
  2.835793e+01    7.854977e-01
  2.837381e+01    7.779623e-01
  2.838968e+01    7.671049e-01
  2.840556e+01    7.710181e-01
  2.842143e+01    7.512550e-01
  2.843731e+01    7.638557e-01
  2.845318e+01    7.526532e-01
  2.846906e+01    7.551216e-01
  2.848494e+01    7.457544e-01
  2.850081e+01    7.401537e-01
  2.851669e+01    7.526777e-01
  2.853256e+01    7.548743e-01
  2.854844e+01    7.340376e-01
  2.856431e+01    7.500525e-01
  2.858019e+01    7.596042e-01
  2.859606e+01    7.366079e-01
  2.861194e+01    7.528715e-01
  2.862782e+01    7.545708e-01
  2.864369e+01    7.666745e-01
  2.865957e+01    7.615048e-01
  2.867544e+01    7.628300e-01
  2.869132e+01    7.632816e-01
  2.870719e+01    7.598105e-01
  2.872307e+01    7.667422e-01
  2.873895e+01    7.470997e-01
  2.875482e+01    7.471839e-01
  2.877070e+01    7.541097e-01
  2.878657e+01    7.586122e-01
  2.880245e+01    7.693536e-01
  2.881832e+01    7.547707e-01
  2.883420e+01    7.412813e-01
  2.885007e+01    7.475601e-01
  2.886595e+01    7.679446e-01
  2.888183e+01    7.529481e-01
  2.889770e+01    7.546728e-01
  2.891358e+01    7.485961e-01
  2.892945e+01    7.475110e-01
  2.894533e+01    7.480267e-01
  2.896120e+01    7.431921e-01
  2.897708e+01    7.426625e-01
  2.899295e+01    7.600154e-01
  2.900883e+01    7.327617e-01
  2.902471e+01    7.055151e-01
  2.904058e+01    7.241014e-01
  2.905646e+01    7.510955e-01
  2.907233e+01    7.391198e-01
  2.908821e+01    7.365257e-01
  2.910408e+01    7.169166e-01
  2.911996e+01    7.530874e-01
  2.913583e+01    7.463006e-01
  2.915171e+01    7.357340e-01
  2.916759e+01    7.558632e-01
  2.918346e+01    7.230778e-01
  2.919934e+01    7.369481e-01
  2.921521e+01    7.327473e-01
  2.923109e+01    7.134516e-01
  2.924696e+01    7.341892e-01
  2.926284e+01    7.449945e-01
  2.927871e+01    7.466840e-01
  2.929459e+01    7.341086e-01
  2.931047e+01    7.390752e-01
  2.932634e+01    7.469545e-01
  2.934222e+01    7.355191e-01
  2.935809e+01    7.348091e-01
  2.937397e+01    7.214375e-01
  2.938984e+01    7.347344e-01
  2.940572e+01    7.247621e-01
  2.942159e+01    7.140328e-01
  2.943747e+01    7.085089e-01
  2.945335e+01    7.226908e-01
  2.946922e+01    7.177675e-01
  2.948510e+01    7.065103e-01
  2.950097e+01    7.270682e-01
  2.951685e+01    7.266784e-01
  2.953272e+01    7.325073e-01
  2.954860e+01    7.305390e-01
  2.956447e+01    7.360955e-01
  2.958035e+01    7.318564e-01
  2.959623e+01    7.274421e-01
  2.961210e+01    7.081998e-01
  2.962798e+01    7.191986e-01
  2.964385e+01    7.155060e-01
  2.965973e+01    7.325559e-01
  2.967560e+01    7.437902e-01
  2.969148e+01    7.274284e-01
  2.970736e+01    7.119843e-01
  2.972323e+01    7.191667e-01
  2.973911e+01    7.071145e-01
  2.975498e+01    7.169413e-01
  2.977086e+01    7.214178e-01
  2.978673e+01    7.229119e-01
  2.980261e+01    7.126867e-01
  2.981848e+01    7.018446e-01
  2.983436e+01    7.240316e-01
  2.985024e+01    7.472531e-01
  2.986611e+01    7.249403e-01
  2.988199e+01    7.270604e-01
  2.989786e+01    7.323087e-01
  2.991374e+01    7.122848e-01
  2.992961e+01    7.093844e-01
  2.994549e+01    7.232703e-01
  2.996136e+01    7.232943e-01
  2.997724e+01    7.211314e-01
  2.999312e+01    7.279012e-01
  3.000899e+01    7.239170e-01
  3.002487e+01    7.372344e-01
  3.004074e+01    7.371495e-01
  3.005662e+01    7.554899e-01
  3.007249e+01    7.379535e-01
  3.008837e+01    7.512115e-01
  3.010424e+01    7.280835e-01
  3.012012e+01    7.285815e-01
  3.013600e+01    7.119280e-01
  3.015187e+01    7.143845e-01
  3.016775e+01    6.955584e-01
  3.018362e+01    7.151762e-01
  3.019950e+01    7.099591e-01
  3.021537e+01    7.239103e-01
  3.023125e+01    7.087401e-01
  3.024712e+01    6.993124e-01
  3.026300e+01    7.185830e-01
  3.027888e+01    7.031854e-01
  3.029475e+01    7.006765e-01
  3.031063e+01    6.969768e-01
  3.032650e+01    7.180418e-01
  3.034238e+01    7.365775e-01
  3.035825e+01    7.233661e-01
  3.037413e+01    7.024769e-01
  3.039000e+01    7.398346e-01
  3.040588e+01    7.406374e-01
  3.042176e+01    7.212287e-01
  3.043763e+01    7.055203e-01
  3.045351e+01    7.213324e-01
  3.046938e+01    7.245755e-01
  3.048526e+01    7.116997e-01
  3.050113e+01    7.009554e-01
  3.051701e+01    7.249204e-01
  3.053288e+01    7.138091e-01
  3.054876e+01    6.892586e-01
  3.056464e+01    7.129905e-01
  3.058051e+01    7.230706e-01
  3.059639e+01    7.130003e-01
  3.061226e+01    7.180123e-01
  3.062814e+01    6.926904e-01
  3.064401e+01    7.142978e-01
  3.065989e+01    7.330301e-01
  3.067577e+01    7.126682e-01
  3.069164e+01    7.086217e-01
  3.070752e+01    7.194512e-01
  3.072339e+01    7.121806e-01
  3.073927e+01    7.088490e-01
  3.075514e+01    7.193349e-01
  3.077102e+01    7.239762e-01
  3.078689e+01    7.085077e-01
  3.080277e+01    7.078316e-01
  3.081865e+01    7.071384e-01
  3.083452e+01    7.077241e-01
  3.085040e+01    6.987684e-01
  3.086627e+01    7.003279e-01
  3.088215e+01    7.295210e-01
  3.089802e+01    7.085768e-01
  3.091390e+01    7.026661e-01
  3.092977e+01    7.227415e-01
  3.094565e+01    7.334749e-01
  3.096153e+01    7.387361e-01
  3.097740e+01    7.165788e-01
  3.099328e+01    7.010857e-01
  3.100915e+01    7.217491e-01
  3.102503e+01    7.129853e-01
  3.104090e+01    7.140364e-01
  3.105678e+01    7.243990e-01
  3.107265e+01    7.172218e-01
  3.108853e+01    7.326155e-01
  3.110441e+01    7.215350e-01
  3.112028e+01    7.299896e-01
  3.113616e+01    7.250128e-01
  3.115203e+01    7.139117e-01
  3.116791e+01    7.214505e-01
  3.118378e+01    7.323408e-01
  3.119966e+01    7.115223e-01
  3.121553e+01    7.324566e-01
  3.123141e+01    7.269204e-01
  3.124729e+01    7.186425e-01
  3.126316e+01    7.491964e-01
  3.127904e+01    7.418457e-01
  3.129491e+01    7.338186e-01
  3.131079e+01    7.278990e-01
  3.132666e+01    7.222856e-01
  3.134254e+01    7.384920e-01
  3.135841e+01    7.558915e-01
  3.137429e+01    7.482395e-01
  3.139017e+01    7.193464e-01
  3.140604e+01    7.133763e-01
  3.142192e+01    7.449477e-01
  3.143779e+01    7.632772e-01
  3.145367e+01    7.400729e-01
  3.146954e+01    7.328659e-01
  3.148542e+01    7.381291e-01
  3.150129e+01    7.464153e-01
  3.151717e+01    7.506269e-01
  3.153305e+01    7.740397e-01
  3.154892e+01    7.933727e-01
  3.156480e+01    8.061945e-01
  3.158067e+01    8.057024e-01
  3.159655e+01    8.290943e-01
  3.161242e+01    8.298847e-01
  3.162830e+01    8.379210e-01
  3.164418e+01    8.384365e-01
  3.166005e+01    8.313574e-01
  3.167593e+01    8.728465e-01
  3.169180e+01    8.972663e-01
  3.170768e+01    9.189318e-01
  3.172355e+01    9.792058e-01
  3.173943e+01    1.010723e+00
  3.175530e+01    1.056826e+00
  3.177118e+01    1.095640e+00
  3.178706e+01    1.160805e+00
  3.180293e+01    1.269325e+00
  3.181881e+01    1.389374e+00
  3.183468e+01    1.492048e+00
  3.185056e+01    1.637157e+00
  3.186643e+01    1.828625e+00
  3.188231e+01    2.007955e+00
  3.189818e+01    2.147501e+00
  3.191406e+01    2.255850e+00
  3.192994e+01    2.381813e+00
  3.194581e+01    2.465992e+00
  3.196169e+01    2.436442e+00
  3.197756e+01    2.322088e+00
  3.199344e+01    2.180185e+00
  3.200931e+01    2.009029e+00
  3.202519e+01    1.791637e+00
  3.204106e+01    1.606753e+00
  3.205694e+01    1.439546e+00
  3.207282e+01    1.325838e+00
  3.208869e+01    1.216789e+00
  3.210457e+01    1.125526e+00
  3.212044e+01    1.073878e+00
  3.213632e+01    1.013644e+00
  3.215219e+01    9.769481e-01
  3.216807e+01    9.329029e-01
  3.218394e+01    9.128586e-01
  3.219982e+01    8.989670e-01
  3.221570e+01    8.626928e-01
  3.223157e+01    8.417937e-01
  3.224745e+01    7.941821e-01
  3.226332e+01    8.023527e-01
  3.227920e+01    8.049651e-01
  3.229507e+01    7.974402e-01
  3.231095e+01    7.781053e-01
  3.232682e+01    7.747582e-01
  3.234270e+01    7.648665e-01
  3.235858e+01    7.601334e-01
  3.237445e+01    7.499273e-01
  3.239033e+01    7.366725e-01
  3.240620e+01    7.631539e-01
  3.242208e+01    7.549735e-01
  3.243795e+01    7.373988e-01
  3.245383e+01    7.499992e-01
  3.246970e+01    7.585286e-01
  3.248558e+01    7.464095e-01
  3.250146e+01    7.285000e-01
  3.251733e+01    7.266532e-01
  3.253321e+01    7.221958e-01
  3.254908e+01    7.417731e-01
