# == pyFAI calibration ==
# Distance Sample to Detector: 0.3999999939076516 m
# PONI: 9.750e-02, 1.135e-01 m
# Rotations: -0.000175 0.000000 -0.000000 rad
# 
# == Fit2d calibration ==
# Distance Sample-beamCenter: 400.000 mm
# Center: x=1514.000, y=1300.000 pix
# Tilt: 0.010 deg  TiltPlanRot: 0.010 deg
# 
# Detector Detector	 Spline= None	 PixelSize= 7.500e-05, 7.500e-05 m
#    Detector has a mask: False 
#    Detector has a dark current: False 
#    detector has a flat field: False 
# 
# Wavelength: 6.888e-11 m
# Mask applied: user provided
# Dark current applied: False
# Flat field applied: False
# Polarization factor: 0.99
# Normalization factor: 1.0
# --> /home/myspot/data/2024_07_Rosario/Ru-CGO-ex/2024-07-27_002_Ru-CGO-ex_Activtation_ramp_000002_data_000155.dat
#       q_nm^-1             I 
  2.003187e-02    0.000000e+00
  3.590745e-02    0.000000e+00
  5.178302e-02    4.717781e-02
  6.765859e-02    9.539576e-02
  8.353417e-02    1.438254e-01
  9.940974e-02    6.312031e-02
  1.152853e-01    6.479356e-03
  1.311609e-01    4.515014e-02
  1.470365e-01    5.157058e-02
  1.629120e-01    5.146522e-02
  1.787876e-01    1.796703e-03
  1.946632e-01    0.000000e+00
  2.105388e-01    3.132189e-02
  2.264143e-01    2.129396e-02
  2.422899e-01    3.353946e-02
  2.581655e-01    4.353588e-02
  2.740411e-01    2.313459e-02
  2.899166e-01    1.754528e-02
  3.057922e-01    1.667474e-02
  3.216678e-01    2.415371e-02
  3.375433e-01    2.087104e-02
  3.534189e-01    3.180049e-02
  3.692945e-01    1.384190e-02
  3.851701e-01    1.676332e-02
  4.010456e-01    9.346722e-03
  4.169212e-01    1.713485e-02
  4.327968e-01    6.338394e-03
  4.486724e-01    2.051116e-02
  4.645479e-01    1.984240e-02
  4.804235e-01    2.491584e-02
  4.962991e-01    7.631125e-02
  5.121747e-01    6.105323e-02
  5.280502e-01    2.763492e-02
  5.439258e-01    4.395040e-02
  5.598014e-01    5.918195e-02
  5.756770e-01    3.024319e-02
  5.915525e-01    6.762628e-03
  6.074281e-01    1.367838e-02
  6.233037e-01    1.977783e-02
  6.391793e-01    5.101469e-02
  6.550548e-01    5.094291e-02
  6.709304e-01    3.061764e-02
  6.868060e-01    3.294585e-02
  7.026815e-01    6.259885e-02
  7.185571e-01    4.151342e-02
  7.344327e-01    3.089039e-02
  7.503083e-01    6.975627e-02
  7.661838e-01    1.067863e-01
  7.820594e-01    1.096562e-01
  7.979350e-01    1.420611e-01
  8.138106e-01    2.005116e-01
  8.296861e-01    2.463643e-01
  8.455617e-01    3.304523e-01
  8.614373e-01    3.962622e-01
  8.773129e-01    3.790959e-01
  8.931884e-01    4.444404e-01
  9.090640e-01    5.513201e-01
  9.249396e-01    6.744137e-01
  9.408152e-01    6.539915e-01
  9.566907e-01    7.701433e-01
  9.725663e-01    8.636566e-01
  9.884419e-01    1.013979e+00
  1.004317e+00    1.158248e+00
  1.020193e+00    1.191615e+00
  1.036069e+00    1.203294e+00
  1.051944e+00    1.208067e+00
  1.067820e+00    1.272087e+00
  1.083695e+00    1.333017e+00
  1.099571e+00    1.315865e+00
  1.115446e+00    1.385741e+00
  1.131322e+00    1.458460e+00
  1.147198e+00    1.457102e+00
  1.163073e+00    1.558486e+00
  1.178949e+00    1.536173e+00
  1.194824e+00    1.507285e+00
  1.210700e+00    1.774957e+00
  1.226575e+00    2.072527e+00
  1.242451e+00    2.320636e+00
  1.258327e+00    2.245435e+00
  1.274202e+00    2.325648e+00
  1.290078e+00    2.297639e+00
  1.305953e+00    2.356594e+00
  1.321829e+00    2.428980e+00
  1.337705e+00    2.563342e+00
  1.353580e+00    2.648676e+00
  1.369456e+00    2.656754e+00
  1.385331e+00    2.645014e+00
  1.401207e+00    2.499665e+00
  1.417082e+00    2.507875e+00
  1.432958e+00    2.642044e+00
  1.448834e+00    2.701840e+00
  1.464709e+00    2.742089e+00
  1.480585e+00    2.819580e+00
  1.496460e+00    2.834359e+00
  1.512336e+00    2.871778e+00
  1.528211e+00    2.856996e+00
  1.544087e+00    2.778732e+00
  1.559963e+00    2.853190e+00
  1.575838e+00    2.917897e+00
  1.591714e+00    3.034896e+00
  1.607589e+00    2.977822e+00
  1.623465e+00    2.831811e+00
  1.639340e+00    2.915006e+00
  1.655216e+00    2.907262e+00
  1.671092e+00    2.880239e+00
  1.686967e+00    2.888640e+00
  1.702843e+00    2.794235e+00
  1.718718e+00    2.751520e+00
  1.734594e+00    2.747628e+00
  1.750469e+00    2.639335e+00
  1.766345e+00    2.614190e+00
  1.782221e+00    2.734176e+00
  1.798096e+00    2.707919e+00
  1.813972e+00    2.720102e+00
  1.829847e+00    2.772428e+00
  1.845723e+00    2.692151e+00
  1.861598e+00    2.787076e+00
  1.877474e+00    2.832101e+00
  1.893350e+00    2.842250e+00
  1.909225e+00    2.712135e+00
  1.925101e+00    2.742485e+00
  1.940976e+00    2.757823e+00
  1.956852e+00    2.660481e+00
  1.972727e+00    2.765843e+00
  1.988603e+00    2.697865e+00
  2.004479e+00    2.632025e+00
  2.020354e+00    2.711555e+00
  2.036230e+00    2.787219e+00
  2.052105e+00    2.835474e+00
  2.067981e+00    2.763020e+00
  2.083856e+00    2.717380e+00
  2.099732e+00    2.698002e+00
  2.115608e+00    2.726844e+00
  2.131483e+00    2.755078e+00
  2.147359e+00    2.817044e+00
  2.163234e+00    2.679529e+00
  2.179110e+00    2.730511e+00
  2.194985e+00    2.805121e+00
  2.210861e+00    2.886095e+00
  2.226737e+00    2.771634e+00
  2.242612e+00    2.744362e+00
  2.258488e+00    2.708906e+00
  2.274363e+00    2.636892e+00
  2.290239e+00    2.686736e+00
  2.306115e+00    2.693876e+00
  2.321990e+00    2.691565e+00
  2.337866e+00    2.720083e+00
  2.353741e+00    2.749094e+00
  2.369617e+00    2.734299e+00
  2.385492e+00    2.758327e+00
  2.401368e+00    2.774500e+00
  2.417244e+00    2.715406e+00
  2.433119e+00    2.729508e+00
  2.448995e+00    2.785989e+00
  2.464870e+00    2.713656e+00
  2.480746e+00    2.682707e+00
  2.496621e+00    2.809137e+00
  2.512497e+00    2.774777e+00
  2.528373e+00    2.790468e+00
  2.544248e+00    2.779799e+00
  2.560124e+00    2.809611e+00
  2.575999e+00    2.870020e+00
  2.591875e+00    2.757982e+00
  2.607750e+00    2.795212e+00
  2.623626e+00    2.766287e+00
  2.639502e+00    2.747347e+00
  2.655377e+00    2.717966e+00
  2.671253e+00    2.768246e+00
  2.687128e+00    2.815045e+00
  2.703004e+00    2.807521e+00
  2.718879e+00    2.880099e+00
  2.734755e+00    2.873378e+00
  2.750631e+00    2.832555e+00
  2.766506e+00    2.840377e+00
  2.782382e+00    2.741252e+00
  2.798257e+00    2.836847e+00
  2.814133e+00    2.856718e+00
  2.830008e+00    2.848856e+00
  2.845884e+00    2.868144e+00
  2.861760e+00    2.872557e+00
  2.877635e+00    2.861565e+00
  2.893511e+00    2.863436e+00
  2.909386e+00    2.875613e+00
  2.925262e+00    2.850400e+00
  2.941137e+00    2.983645e+00
  2.957013e+00    2.951983e+00
  2.972889e+00    2.896111e+00
  2.988764e+00    2.839215e+00
  3.004640e+00    2.908922e+00
  3.020515e+00    2.895072e+00
  3.036391e+00    2.910971e+00
  3.052266e+00    2.978292e+00
  3.068142e+00    2.905814e+00
  3.084018e+00    2.917008e+00
  3.099893e+00    2.890716e+00
  3.115769e+00    2.920123e+00
  3.131644e+00    3.024471e+00
  3.147520e+00    2.872293e+00
  3.163395e+00    2.870077e+00
  3.179271e+00    2.883729e+00
  3.195147e+00    2.950642e+00
  3.211022e+00    2.847314e+00
  3.226898e+00    2.868696e+00
  3.242773e+00    2.992029e+00
  3.258649e+00    3.047609e+00
  3.274525e+00    2.960550e+00
  3.290400e+00    2.971877e+00
  3.306276e+00    3.001598e+00
  3.322151e+00    2.892687e+00
  3.338027e+00    2.884931e+00
  3.353902e+00    2.972189e+00
  3.369778e+00    2.961598e+00
  3.385654e+00    2.920787e+00
  3.401529e+00    2.971689e+00
  3.417405e+00    2.854801e+00
  3.433280e+00    2.878336e+00
  3.449156e+00    2.907425e+00
  3.465031e+00    2.966261e+00
  3.480907e+00    3.000746e+00
  3.496783e+00    2.893961e+00
  3.512658e+00    2.921403e+00
  3.528534e+00    2.900593e+00
  3.544409e+00    2.965255e+00
  3.560285e+00    2.974317e+00
  3.576160e+00    3.020205e+00
  3.592036e+00    2.966087e+00
  3.607912e+00    2.992912e+00
  3.623787e+00    2.969850e+00
  3.639663e+00    2.941295e+00
  3.655538e+00    2.957846e+00
  3.671414e+00    2.928266e+00
  3.687289e+00    2.950898e+00
  3.703165e+00    2.980509e+00
  3.719041e+00    3.001122e+00
  3.734916e+00    3.012944e+00
  3.750792e+00    3.044139e+00
  3.766667e+00    2.931023e+00
  3.782543e+00    2.896228e+00
  3.798418e+00    2.964665e+00
  3.814294e+00    3.070548e+00
  3.830170e+00    3.062882e+00
  3.846045e+00    3.006567e+00
  3.861921e+00    2.955798e+00
  3.877796e+00    3.040135e+00
  3.893672e+00    3.075784e+00
  3.909547e+00    2.999349e+00
  3.925423e+00    3.014597e+00
  3.941299e+00    2.974826e+00
  3.957174e+00    2.949311e+00
  3.973050e+00    3.009760e+00
  3.988925e+00    3.091028e+00
  4.004801e+00    3.028991e+00
  4.020676e+00    2.922177e+00
  4.036552e+00    2.956642e+00
  4.052428e+00    3.055364e+00
  4.068303e+00    3.080806e+00
  4.084179e+00    3.051455e+00
  4.100054e+00    3.085807e+00
  4.115930e+00    3.128808e+00
  4.131806e+00    3.060058e+00
  4.147681e+00    3.082344e+00
  4.163557e+00    3.116195e+00
  4.179432e+00    3.059311e+00
  4.195308e+00    3.069322e+00
  4.211183e+00    3.065090e+00
  4.227059e+00    3.105346e+00
  4.242935e+00    3.147142e+00
  4.258810e+00    3.149391e+00
  4.274686e+00    3.076677e+00
  4.290561e+00    3.012217e+00
  4.306437e+00    2.968257e+00
  4.322312e+00    3.081617e+00
  4.338188e+00    3.113058e+00
  4.354064e+00    3.107143e+00
  4.369939e+00    3.027397e+00
  4.385815e+00    3.071042e+00
  4.401690e+00    3.061361e+00
  4.417566e+00    3.014445e+00
  4.433441e+00    3.027574e+00
  4.449317e+00    3.098477e+00
  4.465193e+00    3.096876e+00
  4.481068e+00    3.057918e+00
  4.496944e+00    3.151212e+00
  4.512819e+00    3.074741e+00
  4.528695e+00    3.022442e+00
  4.544570e+00    3.042553e+00
  4.560446e+00    3.075422e+00
  4.576322e+00    3.107258e+00
  4.592197e+00    3.080039e+00
  4.608073e+00    3.076660e+00
  4.623948e+00    3.040591e+00
  4.639824e+00    3.044311e+00
  4.655699e+00    3.113617e+00
  4.671575e+00    3.144607e+00
  4.687451e+00    3.103781e+00
  4.703326e+00    3.108636e+00
  4.719202e+00    3.075318e+00
  4.735077e+00    3.027013e+00
  4.750953e+00    3.095248e+00
  4.766828e+00    3.152567e+00
  4.782704e+00    3.073740e+00
  4.798580e+00    3.106245e+00
  4.814455e+00    3.112829e+00
  4.830331e+00    3.153922e+00
  4.846206e+00    3.117427e+00
  4.862082e+00    3.067249e+00
  4.877957e+00    3.144553e+00
  4.893833e+00    3.175474e+00
  4.909709e+00    3.127704e+00
  4.925584e+00    3.154424e+00
  4.941460e+00    3.190955e+00
  4.957335e+00    3.082686e+00
  4.973211e+00    3.136724e+00
  4.989086e+00    3.129072e+00
  5.004962e+00    3.119795e+00
  5.020838e+00    3.078077e+00
  5.036713e+00    3.128220e+00
  5.052589e+00    3.181064e+00
  5.068464e+00    3.139163e+00
  5.084340e+00    3.092385e+00
  5.100216e+00    3.139475e+00
  5.116091e+00    3.179351e+00
  5.131967e+00    3.156778e+00
  5.147842e+00    3.129797e+00
  5.163718e+00    3.113435e+00
  5.179593e+00    3.089069e+00
  5.195469e+00    3.120874e+00
  5.211345e+00    3.070698e+00
  5.227220e+00    3.137762e+00
  5.243096e+00    3.118986e+00
  5.258971e+00    3.120871e+00
  5.274847e+00    3.152267e+00
  5.290722e+00    3.158749e+00
  5.306598e+00    3.136232e+00
  5.322474e+00    3.111720e+00
  5.338349e+00    3.141270e+00
  5.354225e+00    3.220598e+00
  5.370100e+00    3.084351e+00
  5.385976e+00    3.115536e+00
  5.401851e+00    3.100192e+00
  5.417727e+00    3.148949e+00
  5.433603e+00    3.186214e+00
  5.449478e+00    3.074597e+00
  5.465354e+00    3.088888e+00
  5.481229e+00    3.100266e+00
  5.497105e+00    3.133581e+00
  5.512980e+00    3.082511e+00
  5.528856e+00    3.095876e+00
  5.544732e+00    3.052234e+00
  5.560607e+00    2.998636e+00
  5.576483e+00    3.004451e+00
  5.592358e+00    3.036922e+00
  5.608234e+00    3.069356e+00
  5.624109e+00    3.073266e+00
  5.639985e+00    3.114589e+00
  5.655861e+00    3.097092e+00
  5.671736e+00    3.033661e+00
  5.687612e+00    2.988058e+00
  5.703487e+00    3.083567e+00
  5.719363e+00    3.133389e+00
  5.735238e+00    3.135709e+00
  5.751114e+00    3.138275e+00
  5.766990e+00    3.084307e+00
  5.782865e+00    3.082116e+00
  5.798741e+00    3.073951e+00
  5.814616e+00    3.008277e+00
  5.830492e+00    3.078870e+00
  5.846367e+00    3.128252e+00
  5.862243e+00    3.025666e+00
  5.878119e+00    3.008178e+00
  5.893994e+00    3.037224e+00
  5.909870e+00    3.083633e+00
  5.925745e+00    3.057294e+00
  5.941621e+00    2.971814e+00
  5.957497e+00    2.959909e+00
  5.973372e+00    3.008120e+00
  5.989248e+00    3.054126e+00
  6.005123e+00    3.054250e+00
  6.020999e+00    3.044490e+00
  6.036874e+00    3.038909e+00
  6.052750e+00    3.051056e+00
  6.068626e+00    3.104788e+00
  6.084501e+00    3.110459e+00
  6.100377e+00    3.103303e+00
  6.116252e+00    3.090484e+00
  6.132128e+00    3.042005e+00
  6.148003e+00    3.135257e+00
  6.163879e+00    3.067051e+00
  6.179755e+00    3.085895e+00
  6.195630e+00    3.125896e+00
  6.211506e+00    3.074142e+00
  6.227381e+00    3.021154e+00
  6.243257e+00    3.016834e+00
  6.259132e+00    3.050960e+00
  6.275008e+00    3.029080e+00
  6.290884e+00    3.039583e+00
  6.306759e+00    3.028205e+00
  6.322635e+00    3.030560e+00
  6.338510e+00    3.074783e+00
  6.354386e+00    3.018101e+00
  6.370261e+00    2.965239e+00
  6.386137e+00    3.016884e+00
  6.402013e+00    3.075428e+00
  6.417888e+00    3.055662e+00
  6.433764e+00    3.022116e+00
  6.449639e+00    3.127985e+00
  6.465515e+00    3.117275e+00
  6.481390e+00    3.055699e+00
  6.497266e+00    3.047020e+00
  6.513142e+00    3.069263e+00
  6.529017e+00    3.063703e+00
  6.544893e+00    3.143807e+00
  6.560768e+00    3.132075e+00
  6.576644e+00    3.132025e+00
  6.592519e+00    3.106488e+00
  6.608395e+00    3.066110e+00
  6.624271e+00    3.079764e+00
  6.640146e+00    3.060845e+00
  6.656022e+00    3.065300e+00
  6.671897e+00    3.043798e+00
  6.687773e+00    2.955063e+00
  6.703648e+00    3.039357e+00
  6.719524e+00    3.044428e+00
  6.735400e+00    3.048211e+00
  6.751275e+00    3.026767e+00
  6.767151e+00    3.045361e+00
  6.783026e+00    3.028459e+00
  6.798902e+00    3.012266e+00
  6.814777e+00    3.060515e+00
  6.830653e+00    3.101683e+00
  6.846529e+00    3.103539e+00
  6.862404e+00    3.157693e+00
  6.878280e+00    3.026253e+00
  6.894155e+00    2.939507e+00
  6.910031e+00    3.052895e+00
  6.925907e+00    3.028548e+00
  6.941782e+00    3.022997e+00
  6.957658e+00    3.051385e+00
  6.973533e+00    3.020096e+00
  6.989409e+00    3.072884e+00
  7.005284e+00    3.100462e+00
  7.021160e+00    3.053599e+00
  7.037036e+00    3.065830e+00
  7.052911e+00    3.033811e+00
  7.068787e+00    3.036191e+00
  7.084662e+00    3.051199e+00
  7.100538e+00    3.073057e+00
  7.116413e+00    3.076869e+00
  7.132289e+00    3.078563e+00
  7.148165e+00    3.099791e+00
  7.164040e+00    3.095746e+00
  7.179916e+00    3.049850e+00
  7.195791e+00    3.098728e+00
  7.211667e+00    3.087768e+00
  7.227542e+00    3.020438e+00
  7.243418e+00    3.093289e+00
  7.259294e+00    3.062457e+00
  7.275169e+00    3.026674e+00
  7.291045e+00    3.075554e+00
  7.306920e+00    3.021258e+00
  7.322796e+00    3.020895e+00
  7.338671e+00    2.939308e+00
  7.354547e+00    2.985518e+00
  7.370423e+00    3.071808e+00
  7.386298e+00    3.028960e+00
  7.402174e+00    2.992007e+00
  7.418049e+00    2.958775e+00
  7.433925e+00    3.036791e+00
  7.449800e+00    2.977836e+00
  7.465676e+00    2.888649e+00
  7.481552e+00    2.988272e+00
  7.497427e+00    3.009598e+00
  7.513303e+00    3.005979e+00
  7.529178e+00    2.987511e+00
  7.545054e+00    2.950815e+00
  7.560929e+00    3.018969e+00
  7.576805e+00    3.033292e+00
  7.592681e+00    2.974341e+00
  7.608556e+00    2.962844e+00
  7.624432e+00    3.013761e+00
  7.640307e+00    3.053252e+00
  7.656183e+00    2.958353e+00
  7.672058e+00    2.928364e+00
  7.687934e+00    2.995781e+00
  7.703810e+00    2.960399e+00
  7.719685e+00    2.897440e+00
  7.735561e+00    2.964782e+00
  7.751436e+00    2.968205e+00
  7.767312e+00    3.038841e+00
  7.783187e+00    3.048048e+00
  7.799063e+00    2.941659e+00
  7.814939e+00    2.945777e+00
  7.830814e+00    2.949877e+00
  7.846690e+00    2.909639e+00
  7.862565e+00    2.977153e+00
  7.878441e+00    2.977246e+00
  7.894317e+00    2.920633e+00
  7.910192e+00    2.916970e+00
  7.926068e+00    2.949837e+00
  7.941943e+00    2.946437e+00
  7.957819e+00    2.919292e+00
  7.973694e+00    2.919464e+00
  7.989570e+00    2.936824e+00
  8.005446e+00    2.943872e+00
  8.021321e+00    2.969119e+00
  8.037197e+00    2.981671e+00
  8.053072e+00    2.917992e+00
  8.068948e+00    2.922437e+00
  8.084823e+00    2.958406e+00
  8.100699e+00    2.962055e+00
  8.116575e+00    2.993114e+00
  8.132450e+00    3.012373e+00
  8.148326e+00    3.006220e+00
  8.164201e+00    2.988749e+00
  8.180077e+00    3.000291e+00
  8.195952e+00    3.056646e+00
  8.211828e+00    3.062696e+00
  8.227704e+00    2.994860e+00
  8.243579e+00    2.941198e+00
  8.259455e+00    2.942310e+00
  8.275330e+00    2.892873e+00
  8.291206e+00    2.913456e+00
  8.307081e+00    2.888093e+00
  8.322957e+00    2.931613e+00
  8.338833e+00    2.964637e+00
  8.354708e+00    2.905668e+00
  8.370584e+00    2.920843e+00
  8.386459e+00    2.903662e+00
  8.402335e+00    2.909542e+00
  8.418210e+00    2.949552e+00
  8.434086e+00    2.921824e+00
  8.449962e+00    2.906594e+00
  8.465837e+00    2.880546e+00
  8.481713e+00    2.933545e+00
  8.497588e+00    2.920925e+00
  8.513464e+00    2.920785e+00
  8.529339e+00    2.883419e+00
  8.545215e+00    2.873027e+00
  8.561091e+00    2.845891e+00
  8.576966e+00    2.873444e+00
  8.592842e+00    2.849705e+00
  8.608717e+00    2.825630e+00
  8.624593e+00    2.832494e+00
  8.640468e+00    2.836941e+00
  8.656344e+00    2.837451e+00
  8.672220e+00    2.888625e+00
  8.688095e+00    2.869104e+00
  8.703971e+00    2.944553e+00
  8.719846e+00    2.919972e+00
  8.735722e+00    2.871156e+00
  8.751598e+00    2.824946e+00
  8.767473e+00    2.872000e+00
  8.783349e+00    2.859494e+00
  8.799224e+00    2.889292e+00
  8.815100e+00    2.913385e+00
  8.830975e+00    2.835841e+00
  8.846851e+00    2.845903e+00
  8.862727e+00    2.873627e+00
  8.878602e+00    2.857035e+00
  8.894478e+00    2.870801e+00
  8.910353e+00    2.856525e+00
  8.926229e+00    2.809521e+00
  8.942104e+00    2.842155e+00
  8.957980e+00    2.827757e+00
  8.973856e+00    2.772841e+00
  8.989731e+00    2.795646e+00
  9.005607e+00    2.837917e+00
  9.021482e+00    2.862800e+00
  9.037358e+00    2.860193e+00
  9.053233e+00    2.801419e+00
  9.069109e+00    2.738189e+00
  9.084985e+00    2.796288e+00
  9.100860e+00    2.805444e+00
  9.116736e+00    2.838920e+00
  9.132611e+00    2.795125e+00
  9.148487e+00    2.821044e+00
  9.164362e+00    2.806659e+00
  9.180238e+00    2.797229e+00
  9.196114e+00    2.746363e+00
  9.211989e+00    2.783976e+00
  9.227865e+00    2.798464e+00
  9.243740e+00    2.783866e+00
  9.259616e+00    2.820957e+00
  9.275491e+00    2.812155e+00
  9.291367e+00    2.762697e+00
  9.307243e+00    2.813062e+00
  9.323118e+00    2.816840e+00
  9.338994e+00    2.808318e+00
  9.354869e+00    2.796210e+00
  9.370745e+00    2.735819e+00
  9.386620e+00    2.758755e+00
  9.402496e+00    2.785822e+00
  9.418372e+00    2.774058e+00
  9.434247e+00    2.759655e+00
  9.450123e+00    2.807434e+00
  9.465998e+00    2.764727e+00
  9.481874e+00    2.738981e+00
  9.497749e+00    2.792656e+00
  9.513625e+00    2.779953e+00
  9.529501e+00    2.760285e+00
  9.545376e+00    2.804872e+00
  9.561252e+00    2.777200e+00
  9.577127e+00    2.759025e+00
  9.593003e+00    2.799670e+00
  9.608878e+00    2.774552e+00
  9.624754e+00    2.710052e+00
  9.640630e+00    2.757632e+00
  9.656505e+00    2.748410e+00
  9.672381e+00    2.685937e+00
  9.688256e+00    2.644584e+00
  9.704132e+00    2.724443e+00
  9.720008e+00    2.763855e+00
  9.735883e+00    2.730011e+00
  9.751759e+00    2.718222e+00
  9.767634e+00    2.733947e+00
  9.783510e+00    2.663205e+00
  9.799385e+00    2.731773e+00
  9.815261e+00    2.697280e+00
  9.831137e+00    2.726028e+00
  9.847012e+00    2.722643e+00
  9.862888e+00    2.705905e+00
  9.878763e+00    2.715936e+00
  9.894639e+00    2.682481e+00
  9.910514e+00    2.684968e+00
  9.926390e+00    2.698020e+00
  9.942266e+00    2.668652e+00
  9.958141e+00    2.725867e+00
  9.974017e+00    2.774171e+00
  9.989892e+00    2.728274e+00
  1.000577e+01    2.728806e+00
  1.002164e+01    2.723034e+00
  1.003752e+01    2.670043e+00
  1.005339e+01    2.706228e+00
  1.006927e+01    2.714278e+00
  1.008515e+01    2.654357e+00
  1.010102e+01    2.685078e+00
  1.011690e+01    2.661455e+00
  1.013277e+01    2.643887e+00
  1.014865e+01    2.662115e+00
  1.016452e+01    2.635648e+00
  1.018040e+01    2.647882e+00
  1.019627e+01    2.677511e+00
  1.021215e+01    2.671486e+00
  1.022803e+01    2.672452e+00
  1.024390e+01    2.734696e+00
  1.025978e+01    2.685314e+00
  1.027565e+01    2.649137e+00
  1.029153e+01    2.653283e+00
  1.030740e+01    2.632336e+00
  1.032328e+01    2.603589e+00
  1.033915e+01    2.567132e+00
  1.035503e+01    2.563179e+00
  1.037091e+01    2.638472e+00
  1.038678e+01    2.643250e+00
  1.040266e+01    2.627696e+00
  1.041853e+01    2.610275e+00
  1.043441e+01    2.659306e+00
  1.045028e+01    2.613966e+00
  1.046616e+01    2.628573e+00
  1.048204e+01    2.607544e+00
  1.049791e+01    2.641440e+00
  1.051379e+01    2.599254e+00
  1.052966e+01    2.604811e+00
  1.054554e+01    2.579985e+00
  1.056141e+01    2.578265e+00
  1.057729e+01    2.614745e+00
  1.059316e+01    2.629677e+00
  1.060904e+01    2.582067e+00
  1.062492e+01    2.592771e+00
  1.064079e+01    2.623940e+00
  1.065667e+01    2.588158e+00
  1.067254e+01    2.593517e+00
  1.068842e+01    2.632992e+00
  1.070429e+01    2.568103e+00
  1.072017e+01    2.541080e+00
  1.073604e+01    2.547369e+00
  1.075192e+01    2.554990e+00
  1.076780e+01    2.550605e+00
  1.078367e+01    2.541747e+00
  1.079955e+01    2.580034e+00
  1.081542e+01    2.553583e+00
  1.083130e+01    2.535301e+00
  1.084717e+01    2.548995e+00
  1.086305e+01    2.571876e+00
  1.087892e+01    2.501653e+00
  1.089480e+01    2.510769e+00
  1.091068e+01    2.515834e+00
  1.092655e+01    2.537830e+00
  1.094243e+01    2.494990e+00
  1.095830e+01    2.498562e+00
  1.097418e+01    2.486790e+00
  1.099005e+01    2.499965e+00
  1.100593e+01    2.493572e+00
  1.102180e+01    2.478798e+00
  1.103768e+01    2.487037e+00
  1.105356e+01    2.538178e+00
  1.106943e+01    2.539975e+00
  1.108531e+01    2.550024e+00
  1.110118e+01    2.488752e+00
  1.111706e+01    2.521157e+00
  1.113293e+01    2.471386e+00
  1.114881e+01    2.539823e+00
  1.116468e+01    2.530445e+00
  1.118056e+01    2.513493e+00
  1.119644e+01    2.498390e+00
  1.121231e+01    2.447208e+00
  1.122819e+01    2.466225e+00
  1.124406e+01    2.442419e+00
  1.125994e+01    2.395279e+00
  1.127581e+01    2.434307e+00
  1.129169e+01    2.455952e+00
  1.130756e+01    2.538689e+00
  1.132344e+01    2.511811e+00
  1.133932e+01    2.403823e+00
  1.135519e+01    2.383830e+00
  1.137107e+01    2.447839e+00
  1.138694e+01    2.453050e+00
  1.140282e+01    2.418147e+00
  1.141869e+01    2.417621e+00
  1.143457e+01    2.417020e+00
  1.145045e+01    2.463401e+00
  1.146632e+01    2.456307e+00
  1.148220e+01    2.465725e+00
  1.149807e+01    2.423672e+00
  1.151395e+01    2.456816e+00
  1.152982e+01    2.454328e+00
  1.154570e+01    2.391852e+00
  1.156157e+01    2.411181e+00
  1.157745e+01    2.452397e+00
  1.159333e+01    2.396667e+00
  1.160920e+01    2.409953e+00
  1.162508e+01    2.407730e+00
  1.164095e+01    2.400865e+00
  1.165683e+01    2.421692e+00
  1.167270e+01    2.349709e+00
  1.168858e+01    2.354922e+00
  1.170445e+01    2.363104e+00
  1.172033e+01    2.350817e+00
  1.173621e+01    2.413503e+00
  1.175208e+01    2.389982e+00
  1.176796e+01    2.358283e+00
  1.178383e+01    2.367442e+00
  1.179971e+01    2.395726e+00
  1.181558e+01    2.393854e+00
  1.183146e+01    2.406873e+00
  1.184733e+01    2.337589e+00
  1.186321e+01    2.383543e+00
  1.187909e+01    2.394540e+00
  1.189496e+01    2.337624e+00
  1.191084e+01    2.309255e+00
  1.192671e+01    2.319127e+00
  1.194259e+01    2.338903e+00
  1.195846e+01    2.318455e+00
  1.197434e+01    2.334172e+00
  1.199021e+01    2.343588e+00
  1.200609e+01    2.324281e+00
  1.202197e+01    2.346843e+00
  1.203784e+01    2.369992e+00
  1.205372e+01    2.325111e+00
  1.206959e+01    2.365926e+00
  1.208547e+01    2.320846e+00
  1.210134e+01    2.343075e+00
  1.211722e+01    2.321155e+00
  1.213309e+01    2.308481e+00
  1.214897e+01    2.325216e+00
  1.216485e+01    2.345778e+00
  1.218072e+01    2.331006e+00
  1.219660e+01    2.308653e+00
  1.221247e+01    2.326720e+00
  1.222835e+01    2.347303e+00
  1.224422e+01    2.325599e+00
  1.226010e+01    2.321862e+00
  1.227597e+01    2.325347e+00
  1.229185e+01    2.337852e+00
  1.230773e+01    2.321193e+00
  1.232360e+01    2.340197e+00
  1.233948e+01    2.346378e+00
  1.235535e+01    2.368182e+00
  1.237123e+01    2.351515e+00
  1.238710e+01    2.323416e+00
  1.240298e+01    2.291924e+00
  1.241886e+01    2.299959e+00
  1.243473e+01    2.356136e+00
  1.245061e+01    2.369817e+00
  1.246648e+01    2.357731e+00
  1.248236e+01    2.352855e+00
  1.249823e+01    2.361864e+00
  1.251411e+01    2.402669e+00
  1.252998e+01    2.347081e+00
  1.254586e+01    2.375244e+00
  1.256174e+01    2.393425e+00
  1.257761e+01    2.404255e+00
  1.259349e+01    2.431130e+00
  1.260936e+01    2.395255e+00
  1.262524e+01    2.441663e+00
  1.264111e+01    2.465799e+00
  1.265699e+01    2.437945e+00
  1.267286e+01    2.398108e+00
  1.268874e+01    2.424339e+00
  1.270462e+01    2.428221e+00
  1.272049e+01    2.476715e+00
  1.273637e+01    2.523993e+00
  1.275224e+01    2.529612e+00
  1.276812e+01    2.565261e+00
  1.278399e+01    2.653712e+00
  1.279987e+01    2.682823e+00
  1.281574e+01    2.720703e+00
  1.283162e+01    2.792758e+00
  1.284750e+01    2.873461e+00
  1.286337e+01    2.957706e+00
  1.287925e+01    3.029342e+00
  1.289512e+01    3.171407e+00
  1.291100e+01    3.371907e+00
  1.292687e+01    3.556048e+00
  1.294275e+01    3.772703e+00
  1.295862e+01    4.039250e+00
  1.297450e+01    4.453569e+00
  1.299038e+01    4.870255e+00
  1.300625e+01    5.564415e+00
  1.302213e+01    6.390770e+00
  1.303800e+01    7.350782e+00
  1.305388e+01    8.508587e+00
  1.306975e+01    9.798463e+00
  1.308563e+01    1.112591e+01
  1.310150e+01    1.229973e+01
  1.311738e+01    1.346511e+01
  1.313326e+01    1.460085e+01
  1.314913e+01    1.561448e+01
  1.316501e+01    1.638338e+01
  1.318088e+01    1.668040e+01
  1.319676e+01    1.608529e+01
  1.321263e+01    1.479885e+01
  1.322851e+01    1.296181e+01
  1.324438e+01    1.099996e+01
  1.326026e+01    9.248578e+00
  1.327614e+01    7.765341e+00
  1.329201e+01    6.665682e+00
  1.330789e+01    5.912411e+00
  1.332376e+01    5.181262e+00
  1.333964e+01    4.640584e+00
  1.335551e+01    4.242200e+00
  1.337139e+01    3.923758e+00
  1.338727e+01    3.616135e+00
  1.340314e+01    3.375683e+00
  1.341902e+01    3.137678e+00
  1.343489e+01    2.975273e+00
  1.345077e+01    2.851017e+00
  1.346664e+01    2.833060e+00
  1.348252e+01    2.776554e+00
  1.349839e+01    2.678394e+00
  1.351427e+01    2.622110e+00
  1.353015e+01    2.575581e+00
  1.354602e+01    2.509256e+00
  1.356190e+01    2.467997e+00
  1.357777e+01    2.464237e+00
  1.359365e+01    2.434026e+00
  1.360952e+01    2.385853e+00
  1.362540e+01    2.336815e+00
  1.364127e+01    2.283543e+00
  1.365715e+01    2.291587e+00
  1.367303e+01    2.289990e+00
  1.368890e+01    2.271708e+00
  1.370478e+01    2.239647e+00
  1.372065e+01    2.218680e+00
  1.373653e+01    2.212091e+00
  1.375240e+01    2.198109e+00
  1.376828e+01    2.175002e+00
  1.378415e+01    2.175258e+00
  1.380003e+01    2.162600e+00
  1.381591e+01    2.128597e+00
  1.383178e+01    2.147518e+00
  1.384766e+01    2.194344e+00
  1.386353e+01    2.153614e+00
  1.387941e+01    2.104278e+00
  1.389528e+01    2.090922e+00
  1.391116e+01    2.062273e+00
  1.392703e+01    2.071790e+00
  1.394291e+01    2.084864e+00
  1.395879e+01    2.052338e+00
  1.397466e+01    2.051008e+00
  1.399054e+01    2.054410e+00
  1.400641e+01    2.065811e+00
  1.402229e+01    2.018715e+00
  1.403816e+01    2.023911e+00
  1.405404e+01    2.041639e+00
  1.406991e+01    2.021470e+00
  1.408579e+01    2.010034e+00
  1.410167e+01    2.027805e+00
  1.411754e+01    2.019114e+00
  1.413342e+01    2.019285e+00
  1.414929e+01    2.024994e+00
  1.416517e+01    2.000616e+00
  1.418104e+01    1.996358e+00
  1.419692e+01    2.001971e+00
  1.421279e+01    1.993268e+00
  1.422867e+01    1.981568e+00
  1.424455e+01    1.958794e+00
  1.426042e+01    1.980603e+00
  1.427630e+01    1.989020e+00
  1.429217e+01    1.955798e+00
  1.430805e+01    1.992239e+00
  1.432392e+01    2.015513e+00
  1.433980e+01    1.964967e+00
  1.435568e+01    1.959648e+00
  1.437155e+01    1.959211e+00
  1.438743e+01    1.987527e+00
  1.440330e+01    1.978077e+00
  1.441918e+01    1.967475e+00
  1.443505e+01    1.937055e+00
  1.445093e+01    1.922147e+00
  1.446680e+01    1.933416e+00
  1.448268e+01    1.928646e+00
  1.449856e+01    1.926324e+00
  1.451443e+01    1.967083e+00
  1.453031e+01    1.922000e+00
  1.454618e+01    1.862257e+00
  1.456206e+01    1.896169e+00
  1.457793e+01    1.933791e+00
  1.459381e+01    1.924694e+00
  1.460968e+01    1.930436e+00
  1.462556e+01    1.932719e+00
  1.464144e+01    1.914140e+00
  1.465731e+01    1.932349e+00
  1.467319e+01    1.925869e+00
  1.468906e+01    1.931941e+00
  1.470494e+01    1.920990e+00
  1.472081e+01    1.905659e+00
  1.473669e+01    1.947208e+00
  1.475256e+01    1.955584e+00
  1.476844e+01    1.934136e+00
  1.478432e+01    1.951769e+00
  1.480019e+01    1.950283e+00
  1.481607e+01    1.901404e+00
  1.483194e+01    1.878531e+00
  1.484782e+01    1.904812e+00
  1.486369e+01    1.927933e+00
  1.487957e+01    1.914999e+00
  1.489544e+01    1.943829e+00
  1.491132e+01    1.984325e+00
  1.492720e+01    2.015410e+00
  1.494307e+01    2.047595e+00
  1.495895e+01    2.062096e+00
  1.497482e+01    2.067557e+00
  1.499070e+01    2.129795e+00
  1.500657e+01    2.210563e+00
  1.502245e+01    2.280699e+00
  1.503832e+01    2.321309e+00
  1.505420e+01    2.403811e+00
  1.507008e+01    2.583053e+00
  1.508595e+01    2.699439e+00
  1.510183e+01    2.945293e+00
  1.511770e+01    3.258566e+00
  1.513358e+01    3.521389e+00
  1.514945e+01    3.873543e+00
  1.516533e+01    4.254293e+00
  1.518120e+01    4.615616e+00
  1.519708e+01    4.895640e+00
  1.521296e+01    5.193097e+00
  1.522883e+01    5.418935e+00
  1.524471e+01    5.576217e+00
  1.526058e+01    5.703137e+00
  1.527646e+01    5.639982e+00
  1.529233e+01    5.459906e+00
  1.530821e+01    5.095706e+00
  1.532409e+01    4.618922e+00
  1.533996e+01    4.095719e+00
  1.535584e+01    3.590707e+00
  1.537171e+01    3.227705e+00
  1.538759e+01    2.949716e+00
  1.540346e+01    2.709237e+00
  1.541934e+01    2.537224e+00
  1.543521e+01    2.414651e+00
  1.545109e+01    2.314085e+00
  1.546697e+01    2.214534e+00
  1.548284e+01    2.144372e+00
  1.549872e+01    2.070626e+00
  1.551459e+01    2.011466e+00
  1.553047e+01    1.962923e+00
  1.554634e+01    1.936758e+00
  1.556222e+01    1.893946e+00
  1.557809e+01    1.852609e+00
  1.559397e+01    1.831990e+00
  1.560985e+01    1.823838e+00
  1.562572e+01    1.797444e+00
  1.564160e+01    1.798128e+00
  1.565747e+01    1.789368e+00
  1.567335e+01    1.763515e+00
  1.568922e+01    1.729458e+00
  1.570510e+01    1.752964e+00
  1.572097e+01    1.704708e+00
  1.573685e+01    1.706206e+00
  1.575273e+01    1.731612e+00
  1.576860e+01    1.696959e+00
  1.578448e+01    1.703642e+00
  1.580035e+01    1.694346e+00
  1.581623e+01    1.703665e+00
  1.583210e+01    1.678066e+00
  1.584798e+01    1.662449e+00
  1.586385e+01    1.661814e+00
  1.587973e+01    1.629311e+00
  1.589561e+01    1.657914e+00
  1.591148e+01    1.670045e+00
  1.592736e+01    1.672209e+00
  1.594323e+01    1.639903e+00
  1.595911e+01    1.665512e+00
  1.597498e+01    1.621681e+00
  1.599086e+01    1.610862e+00
  1.600673e+01    1.614435e+00
  1.602261e+01    1.647805e+00
  1.603849e+01    1.625284e+00
  1.605436e+01    1.593850e+00
  1.607024e+01    1.579292e+00
  1.608611e+01    1.576938e+00
  1.610199e+01    1.600549e+00
  1.611786e+01    1.625324e+00
  1.613374e+01    1.599036e+00
  1.614961e+01    1.581123e+00
  1.616549e+01    1.597679e+00
  1.618137e+01    1.623204e+00
  1.619724e+01    1.580444e+00
  1.621312e+01    1.561064e+00
  1.622899e+01    1.569917e+00
  1.624487e+01    1.564652e+00
  1.626074e+01    1.552899e+00
  1.627662e+01    1.563016e+00
  1.629250e+01    1.547231e+00
  1.630837e+01    1.562029e+00
  1.632425e+01    1.568757e+00
  1.634012e+01    1.550422e+00
  1.635600e+01    1.563679e+00
  1.637187e+01    1.554393e+00
  1.638775e+01    1.541229e+00
  1.640362e+01    1.579619e+00
  1.641950e+01    1.532755e+00
  1.643538e+01    1.571538e+00
  1.645125e+01    1.551832e+00
  1.646713e+01    1.542485e+00
  1.648300e+01    1.558375e+00
  1.649888e+01    1.524109e+00
  1.651475e+01    1.501458e+00
  1.653063e+01    1.516631e+00
  1.654650e+01    1.518046e+00
  1.656238e+01    1.502536e+00
  1.657826e+01    1.541797e+00
  1.659413e+01    1.526311e+00
  1.661001e+01    1.517637e+00
  1.662588e+01    1.513678e+00
  1.664176e+01    1.538460e+00
  1.665763e+01    1.501756e+00
  1.667351e+01    1.509769e+00
  1.668938e+01    1.510180e+00
  1.670526e+01    1.505333e+00
  1.672114e+01    1.509765e+00
  1.673701e+01    1.526286e+00
  1.675289e+01    1.498852e+00
  1.676876e+01    1.466847e+00
  1.678464e+01    1.488394e+00
  1.680051e+01    1.478426e+00
  1.681639e+01    1.480009e+00
  1.683226e+01    1.518774e+00
  1.684814e+01    1.493871e+00
  1.686402e+01    1.478495e+00
  1.687989e+01    1.461010e+00
  1.689577e+01    1.490094e+00
  1.691164e+01    1.471229e+00
  1.692752e+01    1.459013e+00
  1.694339e+01    1.464920e+00
  1.695927e+01    1.479708e+00
  1.697514e+01    1.437030e+00
  1.699102e+01    1.428885e+00
  1.700690e+01    1.431737e+00
  1.702277e+01    1.458791e+00
  1.703865e+01    1.481981e+00
  1.705452e+01    1.462626e+00
  1.707040e+01    1.441897e+00
  1.708627e+01    1.459440e+00
  1.710215e+01    1.436672e+00
  1.711802e+01    1.437803e+00
  1.713390e+01    1.412655e+00
  1.714978e+01    1.408696e+00
  1.716565e+01    1.425699e+00
  1.718153e+01    1.442933e+00
  1.719740e+01    1.451557e+00
  1.721328e+01    1.434580e+00
  1.722915e+01    1.442317e+00
  1.724503e+01    1.411554e+00
  1.726091e+01    1.388409e+00
  1.727678e+01    1.388933e+00
  1.729266e+01    1.372985e+00
  1.730853e+01    1.398407e+00
  1.732441e+01    1.395231e+00
  1.734028e+01    1.381382e+00
  1.735616e+01    1.419951e+00
  1.737203e+01    1.415494e+00
  1.738791e+01    1.389931e+00
  1.740379e+01    1.387525e+00
  1.741966e+01    1.372581e+00
  1.743554e+01    1.395321e+00
  1.745141e+01    1.401652e+00
  1.746729e+01    1.372510e+00
  1.748316e+01    1.347616e+00
  1.749904e+01    1.368191e+00
  1.751491e+01    1.378053e+00
  1.753079e+01    1.368386e+00
  1.754667e+01    1.369717e+00
  1.756254e+01    1.368525e+00
  1.757842e+01    1.358408e+00
  1.759429e+01    1.346090e+00
  1.761017e+01    1.352977e+00
  1.762604e+01    1.368787e+00
  1.764192e+01    1.350467e+00
  1.765779e+01    1.363938e+00
  1.767367e+01    1.366492e+00
  1.768955e+01    1.363533e+00
  1.770542e+01    1.359048e+00
  1.772130e+01    1.349707e+00
  1.773717e+01    1.355071e+00
  1.775305e+01    1.344158e+00
  1.776892e+01    1.330881e+00
  1.778480e+01    1.349163e+00
  1.780067e+01    1.328248e+00
  1.781655e+01    1.303627e+00
  1.783243e+01    1.312472e+00
  1.784830e+01    1.337987e+00
  1.786418e+01    1.308266e+00
  1.788005e+01    1.306393e+00
  1.789593e+01    1.336368e+00
  1.791180e+01    1.349827e+00
  1.792768e+01    1.324883e+00
  1.794355e+01    1.305226e+00
  1.795943e+01    1.316127e+00
  1.797531e+01    1.325448e+00
  1.799118e+01    1.329589e+00
  1.800706e+01    1.312865e+00
  1.802293e+01    1.282200e+00
  1.803881e+01    1.324807e+00
  1.805468e+01    1.315567e+00
  1.807056e+01    1.321487e+00
  1.808643e+01    1.311997e+00
  1.810231e+01    1.323798e+00
  1.811819e+01    1.320775e+00
  1.813406e+01    1.292671e+00
  1.814994e+01    1.293570e+00
  1.816581e+01    1.305483e+00
  1.818169e+01    1.313439e+00
  1.819756e+01    1.275755e+00
  1.821344e+01    1.276197e+00
  1.822932e+01    1.285351e+00
  1.824519e+01    1.268404e+00
  1.826107e+01    1.267822e+00
  1.827694e+01    1.295812e+00
  1.829282e+01    1.277603e+00
  1.830869e+01    1.243978e+00
  1.832457e+01    1.268966e+00
  1.834044e+01    1.269235e+00
  1.835632e+01    1.262859e+00
  1.837220e+01    1.284540e+00
  1.838807e+01    1.282449e+00
  1.840395e+01    1.286829e+00
  1.841982e+01    1.275040e+00
  1.843570e+01    1.272683e+00
  1.845157e+01    1.276427e+00
  1.846745e+01    1.249893e+00
  1.848332e+01    1.251850e+00
  1.849920e+01    1.255980e+00
  1.851508e+01    1.233840e+00
  1.853095e+01    1.250217e+00
  1.854683e+01    1.240098e+00
  1.856270e+01    1.227513e+00
  1.857858e+01    1.235380e+00
  1.859445e+01    1.275806e+00
  1.861033e+01    1.263122e+00
  1.862620e+01    1.247002e+00
  1.864208e+01    1.267333e+00
  1.865796e+01    1.225843e+00
  1.867383e+01    1.216463e+00
  1.868971e+01    1.223378e+00
  1.870558e+01    1.236750e+00
  1.872146e+01    1.240799e+00
  1.873733e+01    1.214516e+00
  1.875321e+01    1.224049e+00
  1.876908e+01    1.246823e+00
  1.878496e+01    1.273971e+00
  1.880084e+01    1.236411e+00
  1.881671e+01    1.221782e+00
  1.883259e+01    1.208701e+00
  1.884846e+01    1.182153e+00
  1.886434e+01    1.201266e+00
  1.888021e+01    1.195877e+00
  1.889609e+01    1.213757e+00
  1.891196e+01    1.216700e+00
  1.892784e+01    1.214563e+00
  1.894372e+01    1.217121e+00
  1.895959e+01    1.209865e+00
  1.897547e+01    1.218174e+00
  1.899134e+01    1.217504e+00
  1.900722e+01    1.226026e+00
  1.902309e+01    1.217811e+00
  1.903897e+01    1.179060e+00
  1.905484e+01    1.166314e+00
  1.907072e+01    1.186774e+00
  1.908660e+01    1.160884e+00
  1.910247e+01    1.166398e+00
  1.911835e+01    1.188016e+00
  1.913422e+01    1.197075e+00
  1.915010e+01    1.193379e+00
  1.916597e+01    1.185028e+00
  1.918185e+01    1.177632e+00
  1.919773e+01    1.191180e+00
  1.921360e+01    1.171221e+00
  1.922948e+01    1.177174e+00
  1.924535e+01    1.176805e+00
  1.926123e+01    1.187815e+00
  1.927710e+01    1.166975e+00
  1.929298e+01    1.156734e+00
  1.930885e+01    1.166817e+00
  1.932473e+01    1.172932e+00
  1.934061e+01    1.158315e+00
  1.935648e+01    1.160035e+00
  1.937236e+01    1.184841e+00
  1.938823e+01    1.188513e+00
  1.940411e+01    1.192929e+00
  1.941998e+01    1.188311e+00
  1.943586e+01    1.170097e+00
  1.945173e+01    1.143519e+00
  1.946761e+01    1.166472e+00
  1.948349e+01    1.165960e+00
  1.949936e+01    1.150047e+00
  1.951524e+01    1.155823e+00
  1.953111e+01    1.170358e+00
  1.954699e+01    1.147812e+00
  1.956286e+01    1.134742e+00
  1.957874e+01    1.131831e+00
  1.959461e+01    1.130763e+00
  1.961049e+01    1.147943e+00
  1.962637e+01    1.190165e+00
  1.964224e+01    1.148704e+00
  1.965812e+01    1.160373e+00
  1.967399e+01    1.147393e+00
  1.968987e+01    1.149662e+00
  1.970574e+01    1.143827e+00
  1.972162e+01    1.162823e+00
  1.973749e+01    1.176364e+00
  1.975337e+01    1.162181e+00
  1.976925e+01    1.139826e+00
  1.978512e+01    1.154528e+00
  1.980100e+01    1.150061e+00
  1.981687e+01    1.161332e+00
  1.983275e+01    1.122513e+00
  1.984862e+01    1.120576e+00
  1.986450e+01    1.119295e+00
  1.988037e+01    1.113192e+00
  1.989625e+01    1.139752e+00
  1.991213e+01    1.132237e+00
  1.992800e+01    1.133558e+00
  1.994388e+01    1.125697e+00
  1.995975e+01    1.136540e+00
  1.997563e+01    1.145813e+00
  1.999150e+01    1.140940e+00
  2.000738e+01    1.121745e+00
  2.002325e+01    1.112742e+00
  2.003913e+01    1.118053e+00
  2.005501e+01    1.120940e+00
  2.007088e+01    1.120372e+00
  2.008676e+01    1.137856e+00
  2.010263e+01    1.125574e+00
  2.011851e+01    1.131183e+00
  2.013438e+01    1.134499e+00
  2.015026e+01    1.121933e+00
  2.016614e+01    1.095735e+00
  2.018201e+01    1.126569e+00
  2.019789e+01    1.119442e+00
  2.021376e+01    1.109340e+00
  2.022964e+01    1.129711e+00
  2.024551e+01    1.092581e+00
  2.026139e+01    1.109223e+00
  2.027726e+01    1.091210e+00
  2.029314e+01    1.082577e+00
  2.030902e+01    1.095490e+00
  2.032489e+01    1.109808e+00
  2.034077e+01    1.105188e+00
  2.035664e+01    1.093717e+00
  2.037252e+01    1.067739e+00
  2.038839e+01    1.085127e+00
  2.040427e+01    1.080962e+00
  2.042014e+01    1.103833e+00
  2.043602e+01    1.085277e+00
  2.045190e+01    1.081682e+00
  2.046777e+01    1.099927e+00
  2.048365e+01    1.099653e+00
  2.049952e+01    1.106424e+00
  2.051540e+01    1.110726e+00
  2.053127e+01    1.089339e+00
  2.054715e+01    1.082996e+00
  2.056302e+01    1.101818e+00
  2.057890e+01    1.083544e+00
  2.059478e+01    1.076662e+00
  2.061065e+01    1.078614e+00
  2.062653e+01    1.082607e+00
  2.064240e+01    1.078605e+00
  2.065828e+01    1.085773e+00
  2.067415e+01    1.066097e+00
  2.069003e+01    1.077920e+00
  2.070590e+01    1.099660e+00
  2.072178e+01    1.079952e+00
  2.073766e+01    1.092564e+00
  2.075353e+01    1.091701e+00
  2.076941e+01    1.083838e+00
  2.078528e+01    1.070599e+00
  2.080116e+01    1.072241e+00
  2.081703e+01    1.072430e+00
  2.083291e+01    1.077618e+00
  2.084878e+01    1.085798e+00
  2.086466e+01    1.079545e+00
  2.088054e+01    1.078273e+00
  2.089641e+01    1.068468e+00
  2.091229e+01    1.110300e+00
  2.092816e+01    1.106121e+00
  2.094404e+01    1.080950e+00
  2.095991e+01    1.055845e+00
  2.097579e+01    1.079689e+00
  2.099166e+01    1.077039e+00
  2.100754e+01    1.085421e+00
  2.102342e+01    1.085989e+00
  2.103929e+01    1.064992e+00
  2.105517e+01    1.071080e+00
  2.107104e+01    1.100058e+00
  2.108692e+01    1.110554e+00
  2.110279e+01    1.108432e+00
  2.111867e+01    1.093301e+00
  2.113455e+01    1.112486e+00
  2.115042e+01    1.117362e+00
  2.116630e+01    1.121968e+00
  2.118217e+01    1.128539e+00
  2.119805e+01    1.109135e+00
  2.121392e+01    1.112540e+00
  2.122980e+01    1.108449e+00
  2.124567e+01    1.101918e+00
  2.126155e+01    1.108937e+00
  2.127743e+01    1.128691e+00
  2.129330e+01    1.128311e+00
  2.130918e+01    1.119324e+00
  2.132505e+01    1.146197e+00
  2.134093e+01    1.138696e+00
  2.135680e+01    1.146300e+00
  2.137268e+01    1.168573e+00
  2.138855e+01    1.153252e+00
  2.140443e+01    1.180155e+00
  2.142031e+01    1.159972e+00
  2.143618e+01    1.184234e+00
  2.145206e+01    1.226899e+00
  2.146793e+01    1.240762e+00
  2.148381e+01    1.258087e+00
  2.149968e+01    1.272982e+00
  2.151556e+01    1.298839e+00
  2.153143e+01    1.320844e+00
  2.154731e+01    1.365169e+00
  2.156319e+01    1.425501e+00
  2.157906e+01    1.469989e+00
  2.159494e+01    1.558003e+00
  2.161081e+01    1.619418e+00
  2.162669e+01    1.724293e+00
  2.164256e+01    1.849334e+00
  2.165844e+01    2.001538e+00
  2.167431e+01    2.189359e+00
  2.169019e+01    2.427149e+00
  2.170607e+01    2.722465e+00
  2.172194e+01    3.024868e+00
  2.173782e+01    3.377511e+00
  2.175369e+01    3.872319e+00
  2.176957e+01    4.380306e+00
  2.178544e+01    5.039000e+00
  2.180132e+01    5.745161e+00
  2.181719e+01    6.431817e+00
  2.183307e+01    7.131402e+00
  2.184895e+01    7.771819e+00
  2.186482e+01    8.368756e+00
  2.188070e+01    8.922923e+00
  2.189657e+01    9.200833e+00
  2.191245e+01    8.975917e+00
  2.192832e+01    8.419025e+00
  2.194420e+01    7.670394e+00
  2.196007e+01    6.749645e+00
  2.197595e+01    5.743315e+00
  2.199183e+01    4.856049e+00
  2.200770e+01    4.150540e+00
  2.202358e+01    3.532550e+00
  2.203945e+01    3.034641e+00
  2.205533e+01    2.743841e+00
  2.207120e+01    2.444128e+00
  2.208708e+01    2.207255e+00
  2.210296e+01    2.028568e+00
  2.211883e+01    1.845719e+00
  2.213471e+01    1.731652e+00
  2.215058e+01    1.648138e+00
  2.216646e+01    1.557552e+00
  2.218233e+01    1.480708e+00
  2.219821e+01    1.421420e+00
  2.221408e+01    1.382205e+00
  2.222996e+01    1.332873e+00
  2.224584e+01    1.257120e+00
  2.226171e+01    1.246846e+00
  2.227759e+01    1.232804e+00
  2.229346e+01    1.205600e+00
  2.230934e+01    1.163845e+00
  2.232521e+01    1.143492e+00
  2.234109e+01    1.129084e+00
  2.235696e+01    1.103630e+00
  2.237284e+01    1.095448e+00
  2.238872e+01    1.091061e+00
  2.240459e+01    1.076682e+00
  2.242047e+01    1.072584e+00
  2.243634e+01    1.032325e+00
  2.245222e+01    1.028072e+00
  2.246809e+01    1.049422e+00
  2.248397e+01    1.050409e+00
  2.249984e+01    1.014959e+00
  2.251572e+01    1.022051e+00
  2.253160e+01    9.980931e-01
  2.254747e+01    1.016055e+00
  2.256335e+01    9.925516e-01
  2.257922e+01    9.838060e-01
  2.259510e+01    9.832775e-01
  2.261097e+01    1.001722e+00
  2.262685e+01    9.874262e-01
  2.264272e+01    9.793180e-01
  2.265860e+01    9.798097e-01
  2.267448e+01    9.615802e-01
  2.269035e+01    9.553971e-01
  2.270623e+01    9.670929e-01
  2.272210e+01    9.410691e-01
  2.273798e+01    9.394509e-01
  2.275385e+01    9.432507e-01
  2.276973e+01    9.511198e-01
  2.278560e+01    9.359342e-01
  2.280148e+01    9.391391e-01
  2.281736e+01    9.466687e-01
  2.283323e+01    9.210250e-01
  2.284911e+01    9.228605e-01
  2.286498e+01    9.284849e-01
  2.288086e+01    9.067710e-01
  2.289673e+01    9.237648e-01
  2.291261e+01    9.316183e-01
  2.292848e+01    9.388359e-01
  2.294436e+01    9.206154e-01
  2.296024e+01    8.804238e-01
  2.297611e+01    8.947047e-01
  2.299199e+01    9.127352e-01
  2.300786e+01    9.142158e-01
  2.302374e+01    9.077235e-01
  2.303961e+01    9.062284e-01
  2.305549e+01    8.884244e-01
  2.307137e+01    8.902380e-01
  2.308724e+01    8.998175e-01
  2.310312e+01    8.862598e-01
  2.311899e+01    8.642205e-01
  2.313487e+01    8.638059e-01
  2.315074e+01    9.104518e-01
  2.316662e+01    9.073457e-01
  2.318249e+01    8.799924e-01
  2.319837e+01    8.734320e-01
  2.321425e+01    8.695864e-01
  2.323012e+01    8.820513e-01
  2.324600e+01    8.877557e-01
  2.326187e+01    8.709506e-01
  2.327775e+01    8.757958e-01
  2.329362e+01    8.705735e-01
  2.330950e+01    8.757845e-01
  2.332537e+01    8.722194e-01
  2.334125e+01    8.699902e-01
  2.335713e+01    8.651868e-01
  2.337300e+01    8.570405e-01
  2.338888e+01    8.720961e-01
  2.340475e+01    8.785768e-01
  2.342063e+01    8.463826e-01
  2.343650e+01    8.663318e-01
  2.345238e+01    8.514985e-01
  2.346825e+01    8.379886e-01
  2.348413e+01    8.576865e-01
  2.350001e+01    8.539234e-01
  2.351588e+01    8.480642e-01
  2.353176e+01    8.389567e-01
  2.354763e+01    8.524123e-01
  2.356351e+01    8.496960e-01
  2.357938e+01    8.515792e-01
  2.359526e+01    8.618622e-01
  2.361113e+01    8.496965e-01
  2.362701e+01    8.395653e-01
  2.364289e+01    8.347206e-01
  2.365876e+01    8.316326e-01
  2.367464e+01    8.319096e-01
  2.369051e+01    8.342718e-01
  2.370639e+01    8.140574e-01
  2.372226e+01    8.361344e-01
  2.373814e+01    8.315565e-01
  2.375401e+01    8.445702e-01
  2.376989e+01    8.252147e-01
  2.378577e+01    8.383408e-01
  2.380164e+01    8.318329e-01
  2.381752e+01    8.113766e-01
  2.383339e+01    8.126752e-01
  2.384927e+01    8.235720e-01
  2.386514e+01    8.257251e-01
  2.388102e+01    8.018242e-01
  2.389689e+01    7.952974e-01
  2.391277e+01    7.947079e-01
  2.392865e+01    8.027768e-01
  2.394452e+01    8.073334e-01
  2.396040e+01    7.953746e-01
  2.397627e+01    7.937747e-01
  2.399215e+01    7.810068e-01
  2.400802e+01    7.979943e-01
  2.402390e+01    7.922466e-01
  2.403978e+01    7.959467e-01
  2.405565e+01    7.785700e-01
  2.407153e+01    7.918628e-01
  2.408740e+01    7.965438e-01
  2.410328e+01    7.763932e-01
  2.411915e+01    7.876028e-01
  2.413503e+01    7.863239e-01
  2.415090e+01    7.714897e-01
  2.416678e+01    7.776122e-01
  2.418266e+01    7.540032e-01
  2.419853e+01    7.663268e-01
  2.421441e+01    7.688731e-01
  2.423028e+01    7.809726e-01
  2.424616e+01    7.890244e-01
  2.426203e+01    7.849855e-01
  2.427791e+01    8.073664e-01
  2.429378e+01    8.071617e-01
  2.430966e+01    8.099433e-01
  2.432554e+01    8.065470e-01
  2.434141e+01    8.013939e-01
  2.435729e+01    8.068290e-01
  2.437316e+01    8.065158e-01
  2.438904e+01    7.993292e-01
  2.440491e+01    7.988379e-01
  2.442079e+01    7.925863e-01
  2.443666e+01    7.715591e-01
  2.445254e+01    7.831005e-01
  2.446842e+01    7.802579e-01
  2.448429e+01    7.928998e-01
  2.450017e+01    7.781399e-01
  2.451604e+01    8.008975e-01
  2.453192e+01    8.108634e-01
  2.454779e+01    7.870201e-01
  2.456367e+01    7.917852e-01
  2.457954e+01    7.786871e-01
  2.459542e+01    7.890599e-01
  2.461130e+01    7.968252e-01
  2.462717e+01    7.773796e-01
  2.464305e+01    7.700050e-01
  2.465892e+01    7.896044e-01
  2.467480e+01    7.816176e-01
  2.469067e+01    8.131431e-01
  2.470655e+01    7.977793e-01
  2.472242e+01    7.901368e-01
  2.473830e+01    7.928407e-01
  2.475418e+01    8.120682e-01
  2.477005e+01    8.105336e-01
  2.478593e+01    8.068821e-01
  2.480180e+01    7.906491e-01
  2.481768e+01    8.126633e-01
  2.483355e+01    7.970379e-01
  2.484943e+01    8.028049e-01
  2.486530e+01    8.174236e-01
  2.488118e+01    8.257975e-01
  2.489706e+01    8.057145e-01
  2.491293e+01    7.924066e-01
  2.492881e+01    7.967005e-01
  2.494468e+01    8.101448e-01
  2.496056e+01    8.039595e-01
  2.497643e+01    8.071593e-01
  2.499231e+01    7.905291e-01
  2.500819e+01    8.059711e-01
  2.502406e+01    8.015772e-01
  2.503994e+01    7.999499e-01
  2.505581e+01    8.045797e-01
  2.507169e+01    8.247193e-01
  2.508756e+01    8.403256e-01
  2.510344e+01    8.198563e-01
  2.511931e+01    8.493882e-01
  2.513519e+01    8.413078e-01
  2.515107e+01    8.164109e-01
  2.516694e+01    8.407519e-01
  2.518282e+01    8.431113e-01
  2.519869e+01    8.433070e-01
  2.521457e+01    8.397081e-01
  2.523044e+01    8.410348e-01
  2.524632e+01    8.566979e-01
  2.526219e+01    8.690415e-01
  2.527807e+01    8.588333e-01
  2.529395e+01    8.736500e-01
  2.530982e+01    8.638257e-01
  2.532570e+01    8.720132e-01
  2.534157e+01    8.932099e-01
  2.535745e+01    8.843424e-01
  2.537332e+01    8.687090e-01
  2.538920e+01    8.840393e-01
  2.540507e+01    9.134285e-01
  2.542095e+01    9.237979e-01
  2.543683e+01    9.207600e-01
  2.545270e+01    9.394670e-01
  2.546858e+01    9.444193e-01
  2.548445e+01    9.496872e-01
  2.550033e+01    9.630803e-01
  2.551620e+01    9.792197e-01
  2.553208e+01    1.006364e+00
  2.554795e+01    1.036431e+00
  2.556383e+01    1.059690e+00
  2.557971e+01    1.063766e+00
  2.559558e+01    1.117556e+00
  2.561146e+01    1.155597e+00
  2.562733e+01    1.193712e+00
  2.564321e+01    1.239293e+00
  2.565908e+01    1.269506e+00
  2.567496e+01    1.342813e+00
  2.569083e+01    1.443246e+00
  2.570671e+01    1.525734e+00
  2.572259e+01    1.650633e+00
  2.573846e+01    1.779436e+00
  2.575434e+01    1.929312e+00
  2.577021e+01    2.168698e+00
  2.578609e+01    2.458823e+00
  2.580196e+01    2.768535e+00
  2.581784e+01    3.117687e+00
  2.583371e+01    3.554111e+00
  2.584959e+01    4.086587e+00
  2.586547e+01    4.665538e+00
  2.588134e+01    5.269979e+00
  2.589722e+01    5.863974e+00
  2.591309e+01    6.417788e+00
  2.592897e+01    6.917553e+00
  2.594484e+01    7.330816e+00
  2.596072e+01    7.409153e+00
  2.597660e+01    7.324963e+00
  2.599247e+01    6.932621e+00
  2.600835e+01    6.290679e+00
  2.602422e+01    5.522212e+00
  2.604010e+01    4.756869e+00
  2.605597e+01    4.109668e+00
  2.607185e+01    3.488290e+00
  2.608772e+01    2.984193e+00
  2.610360e+01    2.665706e+00
  2.611948e+01    2.330958e+00
  2.613535e+01    2.081947e+00
  2.615123e+01    1.876135e+00
  2.616710e+01    1.757473e+00
  2.618298e+01    1.617838e+00
  2.619885e+01    1.474400e+00
  2.621473e+01    1.395698e+00
  2.623060e+01    1.334060e+00
  2.624648e+01    1.268787e+00
  2.626236e+01    1.223636e+00
  2.627823e+01    1.153755e+00
  2.629411e+01    1.146757e+00
  2.630998e+01    1.119743e+00
  2.632586e+01    1.082016e+00
  2.634173e+01    1.030557e+00
  2.635761e+01    1.033179e+00
  2.637348e+01    1.003510e+00
  2.638936e+01    9.747274e-01
  2.640524e+01    9.678904e-01
  2.642111e+01    9.444361e-01
  2.643699e+01    9.497388e-01
  2.645286e+01    9.515417e-01
  2.646874e+01    9.300784e-01
  2.648461e+01    9.260052e-01
  2.650049e+01    9.241030e-01
  2.651636e+01    9.213184e-01
  2.653224e+01    8.961655e-01
  2.654812e+01    9.101759e-01
  2.656399e+01    9.129527e-01
  2.657987e+01    8.983340e-01
  2.659574e+01    9.005858e-01
  2.661162e+01    9.029458e-01
  2.662749e+01    9.106186e-01
  2.664337e+01    9.202622e-01
  2.665924e+01    9.196674e-01
  2.667512e+01    9.027129e-01
  2.669100e+01    8.886159e-01
  2.670687e+01    8.818606e-01
  2.672275e+01    8.805971e-01
  2.673862e+01    8.754869e-01
  2.675450e+01    8.689454e-01
  2.677037e+01    8.938940e-01
  2.678625e+01    8.983377e-01
  2.680212e+01    8.903731e-01
  2.681800e+01    8.836760e-01
  2.683388e+01    8.923331e-01
  2.684975e+01    8.952104e-01
  2.686563e+01    8.969908e-01
  2.688150e+01    8.997061e-01
  2.689738e+01    9.240957e-01
  2.691325e+01    9.140928e-01
  2.692913e+01    9.137632e-01
  2.694501e+01    9.578254e-01
  2.696088e+01    9.628149e-01
  2.697676e+01    9.995757e-01
  2.699263e+01    1.013666e+00
  2.700851e+01    1.016395e+00
  2.702438e+01    1.069134e+00
  2.704026e+01    1.138822e+00
  2.705613e+01    1.181482e+00
  2.707201e+01    1.247971e+00
  2.708789e+01    1.328321e+00
  2.710376e+01    1.450864e+00
  2.711964e+01    1.549008e+00
  2.713551e+01    1.709182e+00
  2.715139e+01    1.789436e+00
  2.716726e+01    1.921540e+00
  2.718314e+01    2.106411e+00
  2.719901e+01    2.176210e+00
  2.721489e+01    2.204108e+00
  2.723077e+01    2.194140e+00
  2.724664e+01    2.153756e+00
  2.726252e+01    2.037763e+00
  2.727839e+01    1.881310e+00
  2.729427e+01    1.728181e+00
  2.731014e+01    1.553761e+00
  2.732602e+01    1.391091e+00
  2.734189e+01    1.318952e+00
  2.735777e+01    1.227967e+00
  2.737365e+01    1.160541e+00
  2.738952e+01    1.117653e+00
  2.740540e+01    1.061924e+00
  2.742127e+01    1.024560e+00
  2.743715e+01    9.804350e-01
  2.745302e+01    9.787825e-01
  2.746890e+01    9.589589e-01
  2.748477e+01    9.140394e-01
  2.750065e+01    9.244211e-01
  2.751653e+01    9.074125e-01
  2.753240e+01    9.015741e-01
  2.754828e+01    8.834842e-01
  2.756415e+01    8.906827e-01
  2.758003e+01    8.817516e-01
  2.759590e+01    8.566171e-01
  2.761178e+01    8.605967e-01
  2.762765e+01    8.567342e-01
  2.764353e+01    8.419852e-01
  2.765941e+01    8.170122e-01
  2.767528e+01    8.214265e-01
  2.769116e+01    8.287391e-01
  2.770703e+01    8.277578e-01
  2.772291e+01    8.172565e-01
  2.773878e+01    8.163704e-01
  2.775466e+01    8.346810e-01
  2.777054e+01    8.260880e-01
  2.778641e+01    8.090020e-01
  2.780229e+01    8.098828e-01
  2.781816e+01    8.001324e-01
  2.783404e+01    7.960226e-01
  2.784991e+01    8.081230e-01
  2.786579e+01    8.089425e-01
  2.788166e+01    7.943459e-01
  2.789754e+01    7.996986e-01
  2.791342e+01    7.996404e-01
  2.792929e+01    7.866333e-01
  2.794517e+01    8.048906e-01
  2.796104e+01    8.143979e-01
  2.797692e+01    8.061542e-01
  2.799279e+01    7.742542e-01
  2.800867e+01    7.716973e-01
  2.802454e+01    8.097402e-01
  2.804042e+01    7.951505e-01
  2.805630e+01    7.773871e-01
  2.807217e+01    7.635776e-01
  2.808805e+01    7.553795e-01
  2.810392e+01    7.612298e-01
  2.811980e+01    7.697794e-01
  2.813567e+01    7.687877e-01
  2.815155e+01    7.727497e-01
  2.816742e+01    7.833791e-01
  2.818330e+01    7.781502e-01
  2.819918e+01    7.495366e-01
  2.821505e+01    7.625763e-01
  2.823093e+01    7.682832e-01
  2.824680e+01    7.774053e-01
  2.826268e+01    7.968057e-01
  2.827855e+01    7.515305e-01
  2.829443e+01    7.694471e-01
  2.831030e+01    7.707102e-01
  2.832618e+01    7.754890e-01
  2.834206e+01    7.801037e-01
  2.835793e+01    7.689258e-01
  2.837381e+01    7.727130e-01
  2.838968e+01    7.818080e-01
  2.840556e+01    7.808654e-01
  2.842143e+01    7.609633e-01
  2.843731e+01    7.710539e-01
  2.845318e+01    7.608007e-01
  2.846906e+01    7.846481e-01
  2.848494e+01    7.698529e-01
  2.850081e+01    7.390662e-01
  2.851669e+01    7.580534e-01
  2.853256e+01    7.620562e-01
  2.854844e+01    7.432789e-01
  2.856431e+01    7.382116e-01
  2.858019e+01    7.286990e-01
  2.859606e+01    7.465475e-01
  2.861194e+01    7.614793e-01
  2.862782e+01    7.319166e-01
  2.864369e+01    7.657849e-01
  2.865957e+01    7.646486e-01
  2.867544e+01    7.411172e-01
  2.869132e+01    7.600028e-01
  2.870719e+01    7.614682e-01
  2.872307e+01    7.611740e-01
  2.873895e+01    7.376793e-01
  2.875482e+01    7.390768e-01
  2.877070e+01    7.388510e-01
  2.878657e+01    7.424737e-01
  2.880245e+01    7.345259e-01
  2.881832e+01    7.459496e-01
  2.883420e+01    7.425485e-01
  2.885007e+01    7.340689e-01
  2.886595e+01    7.576397e-01
  2.888183e+01    7.550188e-01
  2.889770e+01    7.353198e-01
  2.891358e+01    7.281889e-01
  2.892945e+01    7.596387e-01
  2.894533e+01    7.738846e-01
  2.896120e+01    7.472928e-01
  2.897708e+01    7.270004e-01
  2.899295e+01    7.419064e-01
  2.900883e+01    7.420923e-01
  2.902471e+01    7.361133e-01
  2.904058e+01    7.229810e-01
  2.905646e+01    7.404003e-01
  2.907233e+01    7.466044e-01
  2.908821e+01    7.316549e-01
  2.910408e+01    7.413773e-01
  2.911996e+01    7.356685e-01
  2.913583e+01    7.307588e-01
  2.915171e+01    7.315911e-01
  2.916759e+01    7.325351e-01
  2.918346e+01    7.446790e-01
  2.919934e+01    7.388791e-01
  2.921521e+01    7.433211e-01
  2.923109e+01    7.269219e-01
  2.924696e+01    6.992294e-01
  2.926284e+01    7.158912e-01
  2.927871e+01    7.284661e-01
  2.929459e+01    7.286012e-01
  2.931047e+01    7.316319e-01
  2.932634e+01    7.307231e-01
  2.934222e+01    7.247763e-01
  2.935809e+01    7.335889e-01
  2.937397e+01    7.254333e-01
  2.938984e+01    7.082995e-01
  2.940572e+01    7.188487e-01
  2.942159e+01    7.204490e-01
  2.943747e+01    7.196503e-01
  2.945335e+01    7.254524e-01
  2.946922e+01    7.293124e-01
  2.948510e+01    7.220699e-01
  2.950097e+01    7.153785e-01
  2.951685e+01    7.181468e-01
  2.953272e+01    7.263240e-01
  2.954860e+01    7.185812e-01
  2.956447e+01    7.238970e-01
  2.958035e+01    7.352452e-01
  2.959623e+01    7.652076e-01
  2.961210e+01    7.572163e-01
  2.962798e+01    7.280322e-01
  2.964385e+01    7.226350e-01
  2.965973e+01    7.158115e-01
  2.967560e+01    7.041824e-01
  2.969148e+01    7.134415e-01
  2.970736e+01    7.307965e-01
  2.972323e+01    7.206863e-01
  2.973911e+01    7.320104e-01
  2.975498e+01    7.535600e-01
  2.977086e+01    7.408570e-01
  2.978673e+01    7.261019e-01
  2.980261e+01    7.038901e-01
  2.981848e+01    7.251378e-01
  2.983436e+01    7.316411e-01
  2.985024e+01    7.189639e-01
  2.986611e+01    7.285401e-01
  2.988199e+01    7.095985e-01
  2.989786e+01    7.148173e-01
  2.991374e+01    7.318626e-01
  2.992961e+01    7.231002e-01
  2.994549e+01    7.143633e-01
  2.996136e+01    7.069451e-01
  2.997724e+01    7.157032e-01
  2.999312e+01    7.258186e-01
  3.000899e+01    7.355694e-01
  3.002487e+01    7.279975e-01
  3.004074e+01    7.620400e-01
  3.005662e+01    7.717691e-01
  3.007249e+01    7.261880e-01
  3.008837e+01    7.352046e-01
  3.010424e+01    7.246529e-01
  3.012012e+01    7.188363e-01
  3.013600e+01    7.299540e-01
  3.015187e+01    7.201336e-01
  3.016775e+01    7.260197e-01
  3.018362e+01    7.230408e-01
  3.019950e+01    7.342003e-01
  3.021537e+01    7.212394e-01
  3.023125e+01    7.240170e-01
  3.024712e+01    7.104783e-01
  3.026300e+01    7.063021e-01
  3.027888e+01    7.074239e-01
  3.029475e+01    7.049268e-01
  3.031063e+01    7.090204e-01
  3.032650e+01    7.341688e-01
  3.034238e+01    7.143544e-01
  3.035825e+01    7.023608e-01
  3.037413e+01    7.043449e-01
  3.039000e+01    7.196902e-01
  3.040588e+01    7.093151e-01
  3.042176e+01    6.910750e-01
  3.043763e+01    6.885481e-01
  3.045351e+01    7.159551e-01
  3.046938e+01    7.249175e-01
  3.048526e+01    7.150488e-01
  3.050113e+01    7.004859e-01
  3.051701e+01    7.157742e-01
  3.053288e+01    7.215782e-01
  3.054876e+01    7.038233e-01
  3.056464e+01    7.019723e-01
  3.058051e+01    7.096621e-01
  3.059639e+01    7.061517e-01
  3.061226e+01    7.210954e-01
  3.062814e+01    7.255164e-01
  3.064401e+01    7.163116e-01
  3.065989e+01    7.112144e-01
  3.067577e+01    7.128389e-01
  3.069164e+01    7.166135e-01
  3.070752e+01    7.178595e-01
  3.072339e+01    7.030007e-01
  3.073927e+01    7.022384e-01
  3.075514e+01    7.265628e-01
  3.077102e+01    7.397808e-01
  3.078689e+01    7.116327e-01
  3.080277e+01    6.978858e-01
  3.081865e+01    7.077256e-01
  3.083452e+01    7.156691e-01
  3.085040e+01    7.162808e-01
  3.086627e+01    7.179499e-01
  3.088215e+01    7.060329e-01
  3.089802e+01    7.159693e-01
  3.091390e+01    7.145261e-01
  3.092977e+01    7.224648e-01
  3.094565e+01    7.203418e-01
  3.096153e+01    7.232400e-01
  3.097740e+01    6.963861e-01
  3.099328e+01    7.044609e-01
  3.100915e+01    7.234941e-01
  3.102503e+01    7.309008e-01
  3.104090e+01    7.298900e-01
  3.105678e+01    7.086895e-01
  3.107265e+01    7.167799e-01
  3.108853e+01    7.242811e-01
  3.110441e+01    7.139729e-01
  3.112028e+01    7.141969e-01
  3.113616e+01    7.104581e-01
  3.115203e+01    7.296791e-01
  3.116791e+01    7.251974e-01
  3.118378e+01    7.405487e-01
  3.119966e+01    7.345978e-01
  3.121553e+01    7.343538e-01
  3.123141e+01    7.324685e-01
  3.124729e+01    7.316985e-01
  3.126316e+01    7.175766e-01
  3.127904e+01    7.301214e-01
  3.129491e+01    7.427210e-01
  3.131079e+01    7.537187e-01
  3.132666e+01    7.360285e-01
  3.134254e+01    7.372414e-01
  3.135841e+01    7.354896e-01
  3.137429e+01    7.348739e-01
  3.139017e+01    7.384757e-01
  3.140604e+01    7.544817e-01
  3.142192e+01    7.467816e-01
  3.143779e+01    7.541288e-01
  3.145367e+01    7.506624e-01
  3.146954e+01    7.684491e-01
  3.148542e+01    7.575257e-01
  3.150129e+01    7.450798e-01
  3.151717e+01    7.530629e-01
  3.153305e+01    7.540601e-01
  3.154892e+01    7.958625e-01
  3.156480e+01    8.043901e-01
  3.158067e+01    8.171516e-01
  3.159655e+01    8.018460e-01
  3.161242e+01    8.215916e-01
  3.162830e+01    8.503772e-01
  3.164418e+01    8.658798e-01
  3.166005e+01    8.859467e-01
  3.167593e+01    9.179448e-01
  3.169180e+01    9.518842e-01
  3.170768e+01    9.963504e-01
  3.172355e+01    1.034232e+00
  3.173943e+01    1.075689e+00
  3.175530e+01    1.130585e+00
  3.177118e+01    1.219142e+00
  3.178706e+01    1.348787e+00
  3.180293e+01    1.441390e+00
  3.181881e+01    1.561388e+00
  3.183468e+01    1.695085e+00
  3.185056e+01    1.881474e+00
  3.186643e+01    2.007972e+00
  3.188231e+01    2.108197e+00
  3.189818e+01    2.199617e+00
  3.191406e+01    2.178462e+00
  3.192994e+01    2.156704e+00
  3.194581e+01    2.054220e+00
  3.196169e+01    1.900328e+00
  3.197756e+01    1.725224e+00
  3.199344e+01    1.569469e+00
  3.200931e+01    1.440850e+00
  3.202519e+01    1.339095e+00
  3.204106e+01    1.204882e+00
  3.205694e+01    1.096706e+00
  3.207282e+01    1.059500e+00
  3.208869e+01    1.003745e+00
  3.210457e+01    9.493908e-01
  3.212044e+01    9.232431e-01
  3.213632e+01    8.862290e-01
  3.215219e+01    8.533108e-01
  3.216807e+01    8.429525e-01
  3.218394e+01    8.187060e-01
  3.219982e+01    8.012547e-01
  3.221570e+01    8.120371e-01
  3.223157e+01    7.988746e-01
  3.224745e+01    7.647365e-01
  3.226332e+01    7.569454e-01
  3.227920e+01    7.409304e-01
  3.229507e+01    7.633578e-01
  3.231095e+01    7.718641e-01
  3.232682e+01    7.683996e-01
  3.234270e+01    7.209125e-01
  3.235858e+01    7.612482e-01
  3.237445e+01    7.405757e-01
  3.239033e+01    7.219872e-01
  3.240620e+01    7.178567e-01
  3.242208e+01    7.208117e-01
  3.243795e+01    7.280868e-01
  3.245383e+01    7.195863e-01
  3.246970e+01    7.476819e-01
  3.248558e+01    7.122972e-01
  3.250146e+01    7.085310e-01
  3.251733e+01    7.356570e-01
  3.253321e+01    7.166448e-01
  3.254908e+01    7.114729e-01
