# == pyFAI calibration ==
# Distance Sample to Detector: 0.3999999939076516 m
# PONI: 9.750e-02, 1.135e-01 m
# Rotations: -0.000175 0.000000 -0.000000 rad
# 
# == Fit2d calibration ==
# Distance Sample-beamCenter: 400.000 mm
# Center: x=1514.000, y=1300.000 pix
# Tilt: 0.010 deg  TiltPlanRot: 0.010 deg
# 
# Detector Detector	 Spline= None	 PixelSize= 7.500e-05, 7.500e-05 m
#    Detector has a mask: False 
#    Detector has a dark current: False 
#    detector has a flat field: False 
# 
# Wavelength: 6.888e-11 m
# Mask applied: user provided
# Dark current applied: False
# Flat field applied: False
# Polarization factor: 0.99
# Normalization factor: 1.0
# --> /home/myspot/data/2024_07_Rosario/Ru-CGO-ex/2024-07-27_002_Ru-CGO-ex_Activtation_ramp_000002_data_000054.dat
#       q_nm^-1             I 
  2.003187e-02    7.712624e-02
  3.590745e-02    1.358202e-01
  5.178302e-02    1.708802e-01
  6.765859e-02    1.619067e-01
  8.353417e-02    1.746446e-01
  9.940974e-02    1.528804e-01
  1.152853e-01    2.017733e-02
  1.311609e-01    2.675113e-02
  1.470365e-01    5.495173e-02
  1.629120e-01    1.061854e-01
  1.787876e-01    8.699706e-02
  1.946632e-01    6.260019e-02
  2.105388e-01    5.527490e-02
  2.264143e-01    4.077926e-02
  2.422899e-01    9.308089e-03
  2.581655e-01    3.534436e-02
  2.740411e-01    4.818685e-02
  2.899166e-01    2.934341e-02
  3.057922e-01    6.109071e-02
  3.216678e-01    4.443838e-02
  3.375433e-01    5.299059e-02
  3.534189e-01    4.236097e-02
  3.692945e-01    4.310368e-02
  3.851701e-01    4.931669e-02
  4.010456e-01    4.986686e-02
  4.169212e-01    6.152629e-02
  4.327968e-01    5.594280e-02
  4.486724e-01    5.724578e-02
  4.645479e-01    2.816097e-02
  4.804235e-01    2.556586e-02
  4.962991e-01    6.489491e-02
  5.121747e-01    4.733717e-02
  5.280502e-01    4.638463e-02
  5.439258e-01    1.283354e-02
  5.598014e-01    1.618483e-02
  5.756770e-01    3.315594e-02
  5.915525e-01    5.478114e-02
  6.074281e-01    4.602128e-02
  6.233037e-01    3.087696e-02
  6.391793e-01    6.259849e-02
  6.550548e-01    3.197933e-02
  6.709304e-01    3.742271e-02
  6.868060e-01    6.183929e-02
  7.026815e-01    4.947615e-02
  7.185571e-01    2.814088e-02
  7.344327e-01    1.679652e-02
  7.503083e-01    2.875147e-02
  7.661838e-01    4.003169e-02
  7.820594e-01    9.838874e-02
  7.979350e-01    1.345909e-01
  8.138106e-01    1.698401e-01
  8.296861e-01    2.686628e-01
  8.455617e-01    3.083066e-01
  8.614373e-01    3.267376e-01
  8.773129e-01    3.846234e-01
  8.931884e-01    4.800748e-01
  9.090640e-01    5.606760e-01
  9.249396e-01    6.831197e-01
  9.408152e-01    7.188563e-01
  9.566907e-01    7.690951e-01
  9.725663e-01    8.617259e-01
  9.884419e-01    9.330625e-01
  1.004317e+00    1.074618e+00
  1.020193e+00    1.230590e+00
  1.036069e+00    1.261903e+00
  1.051944e+00    1.280043e+00
  1.067820e+00    1.349527e+00
  1.083695e+00    1.362159e+00
  1.099571e+00    1.436792e+00
  1.115446e+00    1.513827e+00
  1.131322e+00    1.407771e+00
  1.147198e+00    1.428132e+00
  1.163073e+00    1.535059e+00
  1.178949e+00    1.560353e+00
  1.194824e+00    1.591593e+00
  1.210700e+00    1.780908e+00
  1.226575e+00    2.125013e+00
  1.242451e+00    2.336189e+00
  1.258327e+00    2.213423e+00
  1.274202e+00    2.324543e+00
  1.290078e+00    2.292229e+00
  1.305953e+00    2.416868e+00
  1.321829e+00    2.566723e+00
  1.337705e+00    2.648770e+00
  1.353580e+00    2.573940e+00
  1.369456e+00    2.666156e+00
  1.385331e+00    2.731364e+00
  1.401207e+00    2.687171e+00
  1.417082e+00    2.631089e+00
  1.432958e+00    2.603826e+00
  1.448834e+00    2.764322e+00
  1.464709e+00    2.871273e+00
  1.480585e+00    2.891543e+00
  1.496460e+00    2.856564e+00
  1.512336e+00    3.070162e+00
  1.528211e+00    3.102632e+00
  1.544087e+00    3.119861e+00
  1.559963e+00    3.131513e+00
  1.575838e+00    3.079142e+00
  1.591714e+00    3.093390e+00
  1.607589e+00    2.932650e+00
  1.623465e+00    2.806755e+00
  1.639340e+00    2.846358e+00
  1.655216e+00    2.933318e+00
  1.671092e+00    2.821719e+00
  1.686967e+00    2.873433e+00
  1.702843e+00    2.812757e+00
  1.718718e+00    2.821120e+00
  1.734594e+00    2.771986e+00
  1.750469e+00    2.950646e+00
  1.766345e+00    2.881435e+00
  1.782221e+00    2.842646e+00
  1.798096e+00    2.702785e+00
  1.813972e+00    2.746831e+00
  1.829847e+00    2.785200e+00
  1.845723e+00    2.858704e+00
  1.861598e+00    2.825392e+00
  1.877474e+00    2.740871e+00
  1.893350e+00    2.798760e+00
  1.909225e+00    2.803226e+00
  1.925101e+00    2.736489e+00
  1.940976e+00    2.782358e+00
  1.956852e+00    2.857982e+00
  1.972727e+00    2.775734e+00
  1.988603e+00    2.673773e+00
  2.004479e+00    2.766138e+00
  2.020354e+00    2.781625e+00
  2.036230e+00    2.863992e+00
  2.052105e+00    2.783257e+00
  2.067981e+00    2.824491e+00
  2.083856e+00    2.864145e+00
  2.099732e+00    2.786350e+00
  2.115608e+00    2.823435e+00
  2.131483e+00    2.819072e+00
  2.147359e+00    2.738239e+00
  2.163234e+00    2.779268e+00
  2.179110e+00    2.769083e+00
  2.194985e+00    2.758216e+00
  2.210861e+00    2.790103e+00
  2.226737e+00    2.875374e+00
  2.242612e+00    2.934791e+00
  2.258488e+00    2.872948e+00
  2.274363e+00    2.836922e+00
  2.290239e+00    2.829226e+00
  2.306115e+00    2.771842e+00
  2.321990e+00    2.751626e+00
  2.337866e+00    2.754578e+00
  2.353741e+00    2.702530e+00
  2.369617e+00    2.794013e+00
  2.385492e+00    2.817899e+00
  2.401368e+00    2.779472e+00
  2.417244e+00    2.719513e+00
  2.433119e+00    2.729947e+00
  2.448995e+00    2.723625e+00
  2.464870e+00    2.797932e+00
  2.480746e+00    2.802054e+00
  2.496621e+00    2.806801e+00
  2.512497e+00    2.778671e+00
  2.528373e+00    2.733148e+00
  2.544248e+00    2.805314e+00
  2.560124e+00    2.830230e+00
  2.575999e+00    2.885946e+00
  2.591875e+00    2.859543e+00
  2.607750e+00    2.889438e+00
  2.623626e+00    2.908461e+00
  2.639502e+00    2.824503e+00
  2.655377e+00    2.781541e+00
  2.671253e+00    2.891534e+00
  2.687128e+00    2.821837e+00
  2.703004e+00    2.832148e+00
  2.718879e+00    2.815479e+00
  2.734755e+00    2.789357e+00
  2.750631e+00    2.800420e+00
  2.766506e+00    2.784797e+00
  2.782382e+00    2.785796e+00
  2.798257e+00    2.894114e+00
  2.814133e+00    2.988058e+00
  2.830008e+00    2.928490e+00
  2.845884e+00    2.864738e+00
  2.861760e+00    2.863105e+00
  2.877635e+00    2.884377e+00
  2.893511e+00    2.939047e+00
  2.909386e+00    2.912894e+00
  2.925262e+00    2.913956e+00
  2.941137e+00    2.778702e+00
  2.957013e+00    2.796800e+00
  2.972889e+00    2.908072e+00
  2.988764e+00    2.726278e+00
  3.004640e+00    2.861252e+00
  3.020515e+00    2.980651e+00
  3.036391e+00    2.906189e+00
  3.052266e+00    2.900372e+00
  3.068142e+00    2.975829e+00
  3.084018e+00    2.952220e+00
  3.099893e+00    2.965709e+00
  3.115769e+00    2.936320e+00
  3.131644e+00    2.924208e+00
  3.147520e+00    2.980379e+00
  3.163395e+00    2.978422e+00
  3.179271e+00    2.923825e+00
  3.195147e+00    2.902432e+00
  3.211022e+00    2.970357e+00
  3.226898e+00    2.968665e+00
  3.242773e+00    2.860716e+00
  3.258649e+00    2.882123e+00
  3.274525e+00    2.957068e+00
  3.290400e+00    3.014470e+00
  3.306276e+00    2.931702e+00
  3.322151e+00    3.018692e+00
  3.338027e+00    2.985148e+00
  3.353902e+00    2.854673e+00
  3.369778e+00    2.890121e+00
  3.385654e+00    2.922930e+00
  3.401529e+00    2.959216e+00
  3.417405e+00    2.971808e+00
  3.433280e+00    2.960633e+00
  3.449156e+00    2.967199e+00
  3.465031e+00    3.033823e+00
  3.480907e+00    2.970922e+00
  3.496783e+00    2.897845e+00
  3.512658e+00    2.953891e+00
  3.528534e+00    2.983727e+00
  3.544409e+00    2.966966e+00
  3.560285e+00    2.952191e+00
  3.576160e+00    2.923623e+00
  3.592036e+00    2.932275e+00
  3.607912e+00    2.961670e+00
  3.623787e+00    3.018844e+00
  3.639663e+00    2.862700e+00
  3.655538e+00    2.953781e+00
  3.671414e+00    3.080622e+00
  3.687289e+00    3.058040e+00
  3.703165e+00    3.028698e+00
  3.719041e+00    3.015273e+00
  3.734916e+00    2.971798e+00
  3.750792e+00    2.979575e+00
  3.766667e+00    2.999004e+00
  3.782543e+00    3.069425e+00
  3.798418e+00    3.005217e+00
  3.814294e+00    3.058110e+00
  3.830170e+00    3.102132e+00
  3.846045e+00    3.013896e+00
  3.861921e+00    2.981698e+00
  3.877796e+00    3.007599e+00
  3.893672e+00    3.068672e+00
  3.909547e+00    3.122690e+00
  3.925423e+00    3.111982e+00
  3.941299e+00    3.095919e+00
  3.957174e+00    3.108107e+00
  3.973050e+00    3.054009e+00
  3.988925e+00    3.078290e+00
  4.004801e+00    3.047480e+00
  4.020676e+00    3.010835e+00
  4.036552e+00    2.983976e+00
  4.052428e+00    2.979789e+00
  4.068303e+00    3.025917e+00
  4.084179e+00    3.010394e+00
  4.100054e+00    3.121601e+00
  4.115930e+00    3.085737e+00
  4.131806e+00    3.009838e+00
  4.147681e+00    3.023957e+00
  4.163557e+00    3.053100e+00
  4.179432e+00    3.092872e+00
  4.195308e+00    3.157492e+00
  4.211183e+00    3.054041e+00
  4.227059e+00    3.020516e+00
  4.242935e+00    3.039701e+00
  4.258810e+00    3.016539e+00
  4.274686e+00    3.034825e+00
  4.290561e+00    2.973293e+00
  4.306437e+00    2.969229e+00
  4.322312e+00    3.047441e+00
  4.338188e+00    3.079287e+00
  4.354064e+00    3.012475e+00
  4.369939e+00    3.085928e+00
  4.385815e+00    3.173398e+00
  4.401690e+00    3.117509e+00
  4.417566e+00    3.121908e+00
  4.433441e+00    3.100338e+00
  4.449317e+00    3.131814e+00
  4.465193e+00    3.102545e+00
  4.481068e+00    3.078262e+00
  4.496944e+00    3.079247e+00
  4.512819e+00    3.173754e+00
  4.528695e+00    3.133495e+00
  4.544570e+00    3.107200e+00
  4.560446e+00    3.128196e+00
  4.576322e+00    3.140497e+00
  4.592197e+00    3.027275e+00
  4.608073e+00    3.016199e+00
  4.623948e+00    3.190352e+00
  4.639824e+00    3.104300e+00
  4.655699e+00    3.070899e+00
  4.671575e+00    3.065606e+00
  4.687451e+00    3.100607e+00
  4.703326e+00    3.154908e+00
  4.719202e+00    3.071730e+00
  4.735077e+00    3.102784e+00
  4.750953e+00    3.085377e+00
  4.766828e+00    3.183235e+00
  4.782704e+00    3.096772e+00
  4.798580e+00    3.134351e+00
  4.814455e+00    3.080937e+00
  4.830331e+00    3.133587e+00
  4.846206e+00    3.150783e+00
  4.862082e+00    3.147673e+00
  4.877957e+00    3.150888e+00
  4.893833e+00    3.198609e+00
  4.909709e+00    3.149593e+00
  4.925584e+00    3.061573e+00
  4.941460e+00    3.113928e+00
  4.957335e+00    3.143723e+00
  4.973211e+00    3.147036e+00
  4.989086e+00    3.146310e+00
  5.004962e+00    3.168083e+00
  5.020838e+00    3.188690e+00
  5.036713e+00    3.156948e+00
  5.052589e+00    3.117130e+00
  5.068464e+00    3.117271e+00
  5.084340e+00    3.101765e+00
  5.100216e+00    3.086175e+00
  5.116091e+00    3.092005e+00
  5.131967e+00    3.128365e+00
  5.147842e+00    3.089673e+00
  5.163718e+00    3.083164e+00
  5.179593e+00    3.106896e+00
  5.195469e+00    3.103011e+00
  5.211345e+00    3.089206e+00
  5.227220e+00    3.156922e+00
  5.243096e+00    3.114160e+00
  5.258971e+00    3.162529e+00
  5.274847e+00    3.148078e+00
  5.290722e+00    3.109366e+00
  5.306598e+00    3.146487e+00
  5.322474e+00    3.176471e+00
  5.338349e+00    3.151571e+00
  5.354225e+00    3.127195e+00
  5.370100e+00    3.109642e+00
  5.385976e+00    3.132069e+00
  5.401851e+00    3.017997e+00
  5.417727e+00    3.033837e+00
  5.433603e+00    3.122280e+00
  5.449478e+00    3.077240e+00
  5.465354e+00    3.106572e+00
  5.481229e+00    3.037050e+00
  5.497105e+00    2.977120e+00
  5.512980e+00    3.070932e+00
  5.528856e+00    3.077038e+00
  5.544732e+00    3.127840e+00
  5.560607e+00    3.147461e+00
  5.576483e+00    3.089012e+00
  5.592358e+00    3.128915e+00
  5.608234e+00    3.133334e+00
  5.624109e+00    3.073017e+00
  5.639985e+00    3.095321e+00
  5.655861e+00    3.056758e+00
  5.671736e+00    3.098930e+00
  5.687612e+00    3.125778e+00
  5.703487e+00    3.160689e+00
  5.719363e+00    3.091003e+00
  5.735238e+00    3.035882e+00
  5.751114e+00    3.065578e+00
  5.766990e+00    3.108418e+00
  5.782865e+00    3.130945e+00
  5.798741e+00    3.074069e+00
  5.814616e+00    2.993620e+00
  5.830492e+00    3.027557e+00
  5.846367e+00    3.102421e+00
  5.862243e+00    3.094203e+00
  5.878119e+00    3.036533e+00
  5.893994e+00    3.092621e+00
  5.909870e+00    3.038721e+00
  5.925745e+00    3.016202e+00
  5.941621e+00    3.084444e+00
  5.957497e+00    3.027187e+00
  5.973372e+00    3.056333e+00
  5.989248e+00    3.024860e+00
  6.005123e+00    3.001464e+00
  6.020999e+00    3.017443e+00
  6.036874e+00    3.057936e+00
  6.052750e+00    2.968985e+00
  6.068626e+00    2.986107e+00
  6.084501e+00    3.071022e+00
  6.100377e+00    3.103753e+00
  6.116252e+00    3.122945e+00
  6.132128e+00    3.102971e+00
  6.148003e+00    3.035973e+00
  6.163879e+00    3.113495e+00
  6.179755e+00    3.088166e+00
  6.195630e+00    3.042885e+00
  6.211506e+00    3.005430e+00
  6.227381e+00    3.083804e+00
  6.243257e+00    3.023444e+00
  6.259132e+00    3.087559e+00
  6.275008e+00    3.059542e+00
  6.290884e+00    3.073448e+00
  6.306759e+00    3.092549e+00
  6.322635e+00    3.126127e+00
  6.338510e+00    3.121479e+00
  6.354386e+00    3.028972e+00
  6.370261e+00    3.043084e+00
  6.386137e+00    3.071462e+00
  6.402013e+00    3.058284e+00
  6.417888e+00    3.071834e+00
  6.433764e+00    3.064163e+00
  6.449639e+00    3.048733e+00
  6.465515e+00    3.050035e+00
  6.481390e+00    3.103587e+00
  6.497266e+00    3.095891e+00
  6.513142e+00    3.046375e+00
  6.529017e+00    3.044319e+00
  6.544893e+00    3.033130e+00
  6.560768e+00    3.057292e+00
  6.576644e+00    3.067639e+00
  6.592519e+00    3.084267e+00
  6.608395e+00    3.039797e+00
  6.624271e+00    3.056585e+00
  6.640146e+00    3.042302e+00
  6.656022e+00    3.023804e+00
  6.671897e+00    3.049161e+00
  6.687773e+00    3.053842e+00
  6.703648e+00    3.082346e+00
  6.719524e+00    3.022610e+00
  6.735400e+00    2.997792e+00
  6.751275e+00    3.005994e+00
  6.767151e+00    3.068585e+00
  6.783026e+00    3.031140e+00
  6.798902e+00    2.963924e+00
  6.814777e+00    2.963046e+00
  6.830653e+00    3.003499e+00
  6.846529e+00    3.025812e+00
  6.862404e+00    2.978479e+00
  6.878280e+00    3.024301e+00
  6.894155e+00    3.004089e+00
  6.910031e+00    3.022902e+00
  6.925907e+00    3.024141e+00
  6.941782e+00    2.979219e+00
  6.957658e+00    2.982540e+00
  6.973533e+00    2.974909e+00
  6.989409e+00    2.948544e+00
  7.005284e+00    3.004316e+00
  7.021160e+00    3.019149e+00
  7.037036e+00    3.052063e+00
  7.052911e+00    3.026323e+00
  7.068787e+00    3.006658e+00
  7.084662e+00    3.040469e+00
  7.100538e+00    3.039804e+00
  7.116413e+00    3.042473e+00
  7.132289e+00    3.064402e+00
  7.148165e+00    2.996996e+00
  7.164040e+00    3.022474e+00
  7.179916e+00    3.004958e+00
  7.195791e+00    2.987080e+00
  7.211667e+00    3.027319e+00
  7.227542e+00    3.038769e+00
  7.243418e+00    3.023181e+00
  7.259294e+00    2.989421e+00
  7.275169e+00    3.045080e+00
  7.291045e+00    3.107755e+00
  7.306920e+00    3.012182e+00
  7.322796e+00    3.024891e+00
  7.338671e+00    3.006504e+00
  7.354547e+00    2.992372e+00
  7.370423e+00    3.040916e+00
  7.386298e+00    3.019914e+00
  7.402174e+00    3.003875e+00
  7.418049e+00    2.943190e+00
  7.433925e+00    2.965073e+00
  7.449800e+00    2.978541e+00
  7.465676e+00    2.996207e+00
  7.481552e+00    2.930967e+00
  7.497427e+00    2.974364e+00
  7.513303e+00    2.971380e+00
  7.529178e+00    2.998611e+00
  7.545054e+00    3.002856e+00
  7.560929e+00    2.981901e+00
  7.576805e+00    2.913531e+00
  7.592681e+00    2.967911e+00
  7.608556e+00    2.997748e+00
  7.624432e+00    2.979815e+00
  7.640307e+00    2.956697e+00
  7.656183e+00    2.943080e+00
  7.672058e+00    2.959059e+00
  7.687934e+00    2.960902e+00
  7.703810e+00    2.988874e+00
  7.719685e+00    2.910404e+00
  7.735561e+00    2.960095e+00
  7.751436e+00    2.940162e+00
  7.767312e+00    2.942570e+00
  7.783187e+00    2.954030e+00
  7.799063e+00    2.922981e+00
  7.814939e+00    2.917445e+00
  7.830814e+00    2.935935e+00
  7.846690e+00    2.948496e+00
  7.862565e+00    2.962264e+00
  7.878441e+00    2.956744e+00
  7.894317e+00    2.929759e+00
  7.910192e+00    2.939553e+00
  7.926068e+00    2.945536e+00
  7.941943e+00    2.995515e+00
  7.957819e+00    2.958333e+00
  7.973694e+00    2.928945e+00
  7.989570e+00    2.913490e+00
  8.005446e+00    2.946009e+00
  8.021321e+00    2.904481e+00
  8.037197e+00    2.905683e+00
  8.053072e+00    2.927608e+00
  8.068948e+00    2.963790e+00
  8.084823e+00    2.986630e+00
  8.100699e+00    2.932009e+00
  8.116575e+00    2.938850e+00
  8.132450e+00    2.942183e+00
  8.148326e+00    2.959025e+00
  8.164201e+00    2.945112e+00
  8.180077e+00    2.996565e+00
  8.195952e+00    2.988741e+00
  8.211828e+00    2.930714e+00
  8.227704e+00    2.908196e+00
  8.243579e+00    2.962854e+00
  8.259455e+00    2.962809e+00
  8.275330e+00    2.952055e+00
  8.291206e+00    2.909632e+00
  8.307081e+00    2.914303e+00
  8.322957e+00    2.971666e+00
  8.338833e+00    2.955602e+00
  8.354708e+00    2.889170e+00
  8.370584e+00    2.989380e+00
  8.386459e+00    2.945923e+00
  8.402335e+00    2.935774e+00
  8.418210e+00    2.903778e+00
  8.434086e+00    2.876468e+00
  8.449962e+00    2.857829e+00
  8.465837e+00    2.882713e+00
  8.481713e+00    2.908772e+00
  8.497588e+00    2.882145e+00
  8.513464e+00    2.831699e+00
  8.529339e+00    2.842769e+00
  8.545215e+00    2.861774e+00
  8.561091e+00    2.851453e+00
  8.576966e+00    2.916171e+00
  8.592842e+00    2.873400e+00
  8.608717e+00    2.850690e+00
  8.624593e+00    2.875147e+00
  8.640468e+00    2.838034e+00
  8.656344e+00    2.826137e+00
  8.672220e+00    2.882629e+00
  8.688095e+00    2.914447e+00
  8.703971e+00    2.864454e+00
  8.719846e+00    2.903450e+00
  8.735722e+00    2.900181e+00
  8.751598e+00    2.911308e+00
  8.767473e+00    2.863587e+00
  8.783349e+00    2.907402e+00
  8.799224e+00    2.891692e+00
  8.815100e+00    2.925840e+00
  8.830975e+00    2.973007e+00
  8.846851e+00    2.931793e+00
  8.862727e+00    2.869825e+00
  8.878602e+00    2.857241e+00
  8.894478e+00    2.880249e+00
  8.910353e+00    2.876573e+00
  8.926229e+00    2.879512e+00
  8.942104e+00    2.815848e+00
  8.957980e+00    2.832096e+00
  8.973856e+00    2.848612e+00
  8.989731e+00    2.870128e+00
  9.005607e+00    2.872952e+00
  9.021482e+00    2.795007e+00
  9.037358e+00    2.852833e+00
  9.053233e+00    2.848606e+00
  9.069109e+00    2.803459e+00
  9.084985e+00    2.779968e+00
  9.100860e+00    2.843117e+00
  9.116736e+00    2.840588e+00
  9.132611e+00    2.784532e+00
  9.148487e+00    2.774199e+00
  9.164362e+00    2.808900e+00
  9.180238e+00    2.828433e+00
  9.196114e+00    2.773991e+00
  9.211989e+00    2.829431e+00
  9.227865e+00    2.852679e+00
  9.243740e+00    2.805451e+00
  9.259616e+00    2.822994e+00
  9.275491e+00    2.799215e+00
  9.291367e+00    2.807586e+00
  9.307243e+00    2.725059e+00
  9.323118e+00    2.750435e+00
  9.338994e+00    2.810069e+00
  9.354869e+00    2.804995e+00
  9.370745e+00    2.801809e+00
  9.386620e+00    2.742144e+00
  9.402496e+00    2.804993e+00
  9.418372e+00    2.800113e+00
  9.434247e+00    2.781497e+00
  9.450123e+00    2.772247e+00
  9.465998e+00    2.724971e+00
  9.481874e+00    2.775050e+00
  9.497749e+00    2.782591e+00
  9.513625e+00    2.792951e+00
  9.529501e+00    2.766594e+00
  9.545376e+00    2.806555e+00
  9.561252e+00    2.784734e+00
  9.577127e+00    2.816474e+00
  9.593003e+00    2.789814e+00
  9.608878e+00    2.761717e+00
  9.624754e+00    2.753023e+00
  9.640630e+00    2.731630e+00
  9.656505e+00    2.752676e+00
  9.672381e+00    2.737008e+00
  9.688256e+00    2.766724e+00
  9.704132e+00    2.788860e+00
  9.720008e+00    2.747425e+00
  9.735883e+00    2.719502e+00
  9.751759e+00    2.762847e+00
  9.767634e+00    2.717480e+00
  9.783510e+00    2.742058e+00
  9.799385e+00    2.698453e+00
  9.815261e+00    2.755567e+00
  9.831137e+00    2.754628e+00
  9.847012e+00    2.707619e+00
  9.862888e+00    2.681242e+00
  9.878763e+00    2.716480e+00
  9.894639e+00    2.719990e+00
  9.910514e+00    2.716803e+00
  9.926390e+00    2.682171e+00
  9.942266e+00    2.697111e+00
  9.958141e+00    2.737006e+00
  9.974017e+00    2.708200e+00
  9.989892e+00    2.675766e+00
  1.000577e+01    2.642145e+00
  1.002164e+01    2.684480e+00
  1.003752e+01    2.681672e+00
  1.005339e+01    2.629488e+00
  1.006927e+01    2.664820e+00
  1.008515e+01    2.680016e+00
  1.010102e+01    2.694921e+00
  1.011690e+01    2.714605e+00
  1.013277e+01    2.667619e+00
  1.014865e+01    2.677842e+00
  1.016452e+01    2.667566e+00
  1.018040e+01    2.651120e+00
  1.019627e+01    2.651263e+00
  1.021215e+01    2.621010e+00
  1.022803e+01    2.643482e+00
  1.024390e+01    2.626707e+00
  1.025978e+01    2.628948e+00
  1.027565e+01    2.642188e+00
  1.029153e+01    2.627274e+00
  1.030740e+01    2.654705e+00
  1.032328e+01    2.650589e+00
  1.033915e+01    2.658258e+00
  1.035503e+01    2.642251e+00
  1.037091e+01    2.666781e+00
  1.038678e+01    2.639673e+00
  1.040266e+01    2.654323e+00
  1.041853e+01    2.635662e+00
  1.043441e+01    2.622448e+00
  1.045028e+01    2.583277e+00
  1.046616e+01    2.581527e+00
  1.048204e+01    2.595391e+00
  1.049791e+01    2.615350e+00
  1.051379e+01    2.651793e+00
  1.052966e+01    2.616978e+00
  1.054554e+01    2.593769e+00
  1.056141e+01    2.573719e+00
  1.057729e+01    2.602534e+00
  1.059316e+01    2.540321e+00
  1.060904e+01    2.552595e+00
  1.062492e+01    2.557714e+00
  1.064079e+01    2.622625e+00
  1.065667e+01    2.631198e+00
  1.067254e+01    2.597656e+00
  1.068842e+01    2.552253e+00
  1.070429e+01    2.599858e+00
  1.072017e+01    2.620966e+00
  1.073604e+01    2.554823e+00
  1.075192e+01    2.528037e+00
  1.076780e+01    2.549564e+00
  1.078367e+01    2.577624e+00
  1.079955e+01    2.570036e+00
  1.081542e+01    2.534416e+00
  1.083130e+01    2.580633e+00
  1.084717e+01    2.620412e+00
  1.086305e+01    2.590740e+00
  1.087892e+01    2.583416e+00
  1.089480e+01    2.549161e+00
  1.091068e+01    2.515158e+00
  1.092655e+01    2.502198e+00
  1.094243e+01    2.495366e+00
  1.095830e+01    2.471713e+00
  1.097418e+01    2.529509e+00
  1.099005e+01    2.532420e+00
  1.100593e+01    2.502320e+00
  1.102180e+01    2.522221e+00
  1.103768e+01    2.522190e+00
  1.105356e+01    2.488729e+00
  1.106943e+01    2.447906e+00
  1.108531e+01    2.470506e+00
  1.110118e+01    2.478317e+00
  1.111706e+01    2.501801e+00
  1.113293e+01    2.461755e+00
  1.114881e+01    2.493101e+00
  1.116468e+01    2.463769e+00
  1.118056e+01    2.468836e+00
  1.119644e+01    2.443525e+00
  1.121231e+01    2.415735e+00
  1.122819e+01    2.464574e+00
  1.124406e+01    2.500064e+00
  1.125994e+01    2.476507e+00
  1.127581e+01    2.453399e+00
  1.129169e+01    2.433989e+00
  1.130756e+01    2.442769e+00
  1.132344e+01    2.444897e+00
  1.133932e+01    2.449685e+00
  1.135519e+01    2.455238e+00
  1.137107e+01    2.425446e+00
  1.138694e+01    2.435306e+00
  1.140282e+01    2.458616e+00
  1.141869e+01    2.447170e+00
  1.143457e+01    2.422614e+00
  1.145045e+01    2.399021e+00
  1.146632e+01    2.403918e+00
  1.148220e+01    2.391948e+00
  1.149807e+01    2.410496e+00
  1.151395e+01    2.458048e+00
  1.152982e+01    2.438083e+00
  1.154570e+01    2.401507e+00
  1.156157e+01    2.425894e+00
  1.157745e+01    2.432874e+00
  1.159333e+01    2.398698e+00
  1.160920e+01    2.385236e+00
  1.162508e+01    2.397901e+00
  1.164095e+01    2.416129e+00
  1.165683e+01    2.454228e+00
  1.167270e+01    2.407755e+00
  1.168858e+01    2.342236e+00
  1.170445e+01    2.352667e+00
  1.172033e+01    2.371672e+00
  1.173621e+01    2.375336e+00
  1.175208e+01    2.360241e+00
  1.176796e+01    2.377730e+00
  1.178383e+01    2.362499e+00
  1.179971e+01    2.340271e+00
  1.181558e+01    2.329269e+00
  1.183146e+01    2.341243e+00
  1.184733e+01    2.350776e+00
  1.186321e+01    2.414511e+00
  1.187909e+01    2.357854e+00
  1.189496e+01    2.341925e+00
  1.191084e+01    2.325022e+00
  1.192671e+01    2.341519e+00
  1.194259e+01    2.318853e+00
  1.195846e+01    2.319624e+00
  1.197434e+01    2.292754e+00
  1.199021e+01    2.322675e+00
  1.200609e+01    2.320708e+00
  1.202197e+01    2.357336e+00
  1.203784e+01    2.342156e+00
  1.205372e+01    2.342605e+00
  1.206959e+01    2.354342e+00
  1.208547e+01    2.374730e+00
  1.210134e+01    2.346843e+00
  1.211722e+01    2.298839e+00
  1.213309e+01    2.330751e+00
  1.214897e+01    2.327676e+00
  1.216485e+01    2.368400e+00
  1.218072e+01    2.343043e+00
  1.219660e+01    2.343505e+00
  1.221247e+01    2.360438e+00
  1.222835e+01    2.325159e+00
  1.224422e+01    2.325995e+00
  1.226010e+01    2.341258e+00
  1.227597e+01    2.367697e+00
  1.229185e+01    2.336161e+00
  1.230773e+01    2.308311e+00
  1.232360e+01    2.343877e+00
  1.233948e+01    2.383802e+00
  1.235535e+01    2.384457e+00
  1.237123e+01    2.435952e+00
  1.238710e+01    2.364491e+00
  1.240298e+01    2.367412e+00
  1.241886e+01    2.379294e+00
  1.243473e+01    2.348446e+00
  1.245061e+01    2.382284e+00
  1.246648e+01    2.345112e+00
  1.248236e+01    2.362420e+00
  1.249823e+01    2.366565e+00
  1.251411e+01    2.392341e+00
  1.252998e+01    2.387038e+00
  1.254586e+01    2.375409e+00
  1.256174e+01    2.379836e+00
  1.257761e+01    2.360265e+00
  1.259349e+01    2.397462e+00
  1.260936e+01    2.463094e+00
  1.262524e+01    2.447987e+00
  1.264111e+01    2.433489e+00
  1.265699e+01    2.443358e+00
  1.267286e+01    2.491909e+00
  1.268874e+01    2.444540e+00
  1.270462e+01    2.465441e+00
  1.272049e+01    2.512985e+00
  1.273637e+01    2.535838e+00
  1.275224e+01    2.553375e+00
  1.276812e+01    2.579438e+00
  1.278399e+01    2.655530e+00
  1.279987e+01    2.693329e+00
  1.281574e+01    2.781462e+00
  1.283162e+01    2.845962e+00
  1.284750e+01    2.929380e+00
  1.286337e+01    2.948211e+00
  1.287925e+01    3.046880e+00
  1.289512e+01    3.136083e+00
  1.291100e+01    3.293772e+00
  1.292687e+01    3.481384e+00
  1.294275e+01    3.687246e+00
  1.295862e+01    3.951574e+00
  1.297450e+01    4.309350e+00
  1.299038e+01    4.777207e+00
  1.300625e+01    5.346184e+00
  1.302213e+01    6.024407e+00
  1.303800e+01    6.836761e+00
  1.305388e+01    7.906603e+00
  1.306975e+01    9.115907e+00
  1.308563e+01    1.070177e+01
  1.310150e+01    1.211681e+01
  1.311738e+01    1.363824e+01
  1.313326e+01    1.504499e+01
  1.314913e+01    1.627516e+01
  1.316501e+01    1.771464e+01
  1.318088e+01    1.870946e+01
  1.319676e+01    1.911040e+01
  1.321263e+01    1.853873e+01
  1.322851e+01    1.715597e+01
  1.324438e+01    1.507562e+01
  1.326026e+01    1.273676e+01
  1.327614e+01    1.067023e+01
  1.329201e+01    8.901849e+00
  1.330789e+01    7.621869e+00
  1.332376e+01    6.641833e+00
  1.333964e+01    5.773818e+00
  1.335551e+01    5.091108e+00
  1.337139e+01    4.603883e+00
  1.338727e+01    4.192226e+00
  1.340314e+01    3.878162e+00
  1.341902e+01    3.603928e+00
  1.343489e+01    3.418019e+00
  1.345077e+01    3.255398e+00
  1.346664e+01    3.112384e+00
  1.348252e+01    2.980407e+00
  1.349839e+01    2.907749e+00
  1.351427e+01    2.804401e+00
  1.353015e+01    2.733146e+00
  1.354602e+01    2.683580e+00
  1.356190e+01    2.563443e+00
  1.357777e+01    2.543313e+00
  1.359365e+01    2.504469e+00
  1.360952e+01    2.449463e+00
  1.362540e+01    2.404764e+00
  1.364127e+01    2.410805e+00
  1.365715e+01    2.358209e+00
  1.367303e+01    2.366789e+00
  1.368890e+01    2.336874e+00
  1.370478e+01    2.280567e+00
  1.372065e+01    2.270660e+00
  1.373653e+01    2.274820e+00
  1.375240e+01    2.269878e+00
  1.376828e+01    2.198708e+00
  1.378415e+01    2.204669e+00
  1.380003e+01    2.188014e+00
  1.381591e+01    2.178889e+00
  1.383178e+01    2.190863e+00
  1.384766e+01    2.146463e+00
  1.386353e+01    2.117847e+00
  1.387941e+01    2.150801e+00
  1.389528e+01    2.126396e+00
  1.391116e+01    2.153637e+00
  1.392703e+01    2.156910e+00
  1.394291e+01    2.117343e+00
  1.395879e+01    2.095090e+00
  1.397466e+01    2.070466e+00
  1.399054e+01    2.059662e+00
  1.400641e+01    2.074733e+00
  1.402229e+01    2.058270e+00
  1.403816e+01    2.044043e+00
  1.405404e+01    2.048083e+00
  1.406991e+01    2.045385e+00
  1.408579e+01    2.025424e+00
  1.410167e+01    2.027647e+00
  1.411754e+01    2.074798e+00
  1.413342e+01    2.039936e+00
  1.414929e+01    1.980643e+00
  1.416517e+01    1.988254e+00
  1.418104e+01    2.037293e+00
  1.419692e+01    1.998098e+00
  1.421279e+01    1.991964e+00
  1.422867e+01    2.014778e+00
  1.424455e+01    2.023739e+00
  1.426042e+01    1.984444e+00
  1.427630e+01    1.985696e+00
  1.429217e+01    1.993336e+00
  1.430805e+01    1.971802e+00
  1.432392e+01    1.940241e+00
  1.433980e+01    1.936322e+00
  1.435568e+01    1.966937e+00
  1.437155e+01    1.956779e+00
  1.438743e+01    1.961586e+00
  1.440330e+01    2.005355e+00
  1.441918e+01    1.965608e+00
  1.443505e+01    1.943645e+00
  1.445093e+01    1.965407e+00
  1.446680e+01    1.977237e+00
  1.448268e+01    1.941761e+00
  1.449856e+01    1.922074e+00
  1.451443e+01    1.925888e+00
  1.453031e+01    1.935583e+00
  1.454618e+01    1.952166e+00
  1.456206e+01    1.903268e+00
  1.457793e+01    1.904805e+00
  1.459381e+01    1.946981e+00
  1.460968e+01    1.917963e+00
  1.462556e+01    1.873262e+00
  1.464144e+01    1.911132e+00
  1.465731e+01    1.932046e+00
  1.467319e+01    1.922639e+00
  1.468906e+01    1.929300e+00
  1.470494e+01    1.932061e+00
  1.472081e+01    1.948174e+00
  1.473669e+01    1.935462e+00
  1.475256e+01    1.930049e+00
  1.476844e+01    1.915783e+00
  1.478432e+01    1.934985e+00
  1.480019e+01    1.940399e+00
  1.481607e+01    1.936655e+00
  1.483194e+01    1.944181e+00
  1.484782e+01    1.922574e+00
  1.486369e+01    1.938888e+00
  1.487957e+01    1.946083e+00
  1.489544e+01    1.952700e+00
  1.491132e+01    1.957586e+00
  1.492720e+01    1.959947e+00
  1.494307e+01    2.016362e+00
  1.495895e+01    2.005949e+00
  1.497482e+01    2.025464e+00
  1.499070e+01    2.074595e+00
  1.500657e+01    2.138705e+00
  1.502245e+01    2.199003e+00
  1.503832e+01    2.285079e+00
  1.505420e+01    2.347622e+00
  1.507008e+01    2.478858e+00
  1.508595e+01    2.638046e+00
  1.510183e+01    2.773748e+00
  1.511770e+01    3.006838e+00
  1.513358e+01    3.354903e+00
  1.514945e+01    3.665348e+00
  1.516533e+01    4.036826e+00
  1.518120e+01    4.483524e+00
  1.519708e+01    4.900157e+00
  1.521296e+01    5.299025e+00
  1.522883e+01    5.607156e+00
  1.524471e+01    5.975708e+00
  1.526058e+01    6.187595e+00
  1.527646e+01    6.348116e+00
  1.529233e+01    6.435639e+00
  1.530821e+01    6.270153e+00
  1.532409e+01    5.830762e+00
  1.533996e+01    5.235872e+00
  1.535584e+01    4.696178e+00
  1.537171e+01    4.123191e+00
  1.538759e+01    3.603587e+00
  1.540346e+01    3.241681e+00
  1.541934e+01    2.951768e+00
  1.543521e+01    2.722175e+00
  1.545109e+01    2.557956e+00
  1.546697e+01    2.433495e+00
  1.548284e+01    2.302547e+00
  1.549872e+01    2.156329e+00
  1.551459e+01    2.120039e+00
  1.553047e+01    2.085305e+00
  1.554634e+01    2.051035e+00
  1.556222e+01    2.013635e+00
  1.557809e+01    1.888677e+00
  1.559397e+01    1.903113e+00
  1.560985e+01    1.858876e+00
  1.562572e+01    1.842922e+00
  1.564160e+01    1.831800e+00
  1.565747e+01    1.837043e+00
  1.567335e+01    1.812649e+00
  1.568922e+01    1.795994e+00
  1.570510e+01    1.777878e+00
  1.572097e+01    1.738394e+00
  1.573685e+01    1.748536e+00
  1.575273e+01    1.748772e+00
  1.576860e+01    1.738144e+00
  1.578448e+01    1.699406e+00
  1.580035e+01    1.713873e+00
  1.581623e+01    1.686593e+00
  1.583210e+01    1.669838e+00
  1.584798e+01    1.699190e+00
  1.586385e+01    1.667807e+00
  1.587973e+01    1.673221e+00
  1.589561e+01    1.684812e+00
  1.591148e+01    1.668896e+00
  1.592736e+01    1.662778e+00
  1.594323e+01    1.667768e+00
  1.595911e+01    1.677282e+00
  1.597498e+01    1.635642e+00
  1.599086e+01    1.625655e+00
  1.600673e+01    1.648955e+00
  1.602261e+01    1.620282e+00
  1.603849e+01    1.626696e+00
  1.605436e+01    1.632940e+00
  1.607024e+01    1.594981e+00
  1.608611e+01    1.613781e+00
  1.610199e+01    1.602992e+00
  1.611786e+01    1.572808e+00
  1.613374e+01    1.558672e+00
  1.614961e+01    1.585987e+00
  1.616549e+01    1.584957e+00
  1.618137e+01    1.572559e+00
  1.619724e+01    1.603745e+00
  1.621312e+01    1.601136e+00
  1.622899e+01    1.577484e+00
  1.624487e+01    1.535931e+00
  1.626074e+01    1.574593e+00
  1.627662e+01    1.567031e+00
  1.629250e+01    1.581255e+00
  1.630837e+01    1.579026e+00
  1.632425e+01    1.547326e+00
  1.634012e+01    1.532685e+00
  1.635600e+01    1.528463e+00
  1.637187e+01    1.571243e+00
  1.638775e+01    1.561637e+00
  1.640362e+01    1.538747e+00
  1.641950e+01    1.535995e+00
  1.643538e+01    1.548572e+00
  1.645125e+01    1.570449e+00
  1.646713e+01    1.560930e+00
  1.648300e+01    1.510255e+00
  1.649888e+01    1.519912e+00
  1.651475e+01    1.516814e+00
  1.653063e+01    1.481903e+00
  1.654650e+01    1.523291e+00
  1.656238e+01    1.516618e+00
  1.657826e+01    1.491619e+00
  1.659413e+01    1.521205e+00
  1.661001e+01    1.522536e+00
  1.662588e+01    1.490857e+00
  1.664176e+01    1.518510e+00
  1.665763e+01    1.463953e+00
  1.667351e+01    1.468603e+00
  1.668938e+01    1.486940e+00
  1.670526e+01    1.474529e+00
  1.672114e+01    1.469308e+00
  1.673701e+01    1.490364e+00
  1.675289e+01    1.507605e+00
  1.676876e+01    1.466032e+00
  1.678464e+01    1.481924e+00
  1.680051e+01    1.497017e+00
  1.681639e+01    1.475367e+00
  1.683226e+01    1.463155e+00
  1.684814e+01    1.453972e+00
  1.686402e+01    1.480318e+00
  1.687989e+01    1.441061e+00
  1.689577e+01    1.456569e+00
  1.691164e+01    1.482387e+00
  1.692752e+01    1.482648e+00
  1.694339e+01    1.492594e+00
  1.695927e+01    1.471509e+00
  1.697514e+01    1.441348e+00
  1.699102e+01    1.469280e+00
  1.700690e+01    1.464415e+00
  1.702277e+01    1.455691e+00
  1.703865e+01    1.423004e+00
  1.705452e+01    1.467344e+00
  1.707040e+01    1.481853e+00
  1.708627e+01    1.416345e+00
  1.710215e+01    1.419617e+00
  1.711802e+01    1.456308e+00
  1.713390e+01    1.426540e+00
  1.714978e+01    1.439814e+00
  1.716565e+01    1.426879e+00
  1.718153e+01    1.389984e+00
  1.719740e+01    1.388115e+00
  1.721328e+01    1.402292e+00
  1.722915e+01    1.396899e+00
  1.724503e+01    1.413863e+00
  1.726091e+01    1.379141e+00
  1.727678e+01    1.411821e+00
  1.729266e+01    1.410069e+00
  1.730853e+01    1.371629e+00
  1.732441e+01    1.378307e+00
  1.734028e+01    1.420084e+00
  1.735616e+01    1.432276e+00
  1.737203e+01    1.413999e+00
  1.738791e+01    1.412148e+00
  1.740379e+01    1.420598e+00
  1.741966e+01    1.388398e+00
  1.743554e+01    1.375731e+00
  1.745141e+01    1.368139e+00
  1.746729e+01    1.355487e+00
  1.748316e+01    1.374425e+00
  1.749904e+01    1.359809e+00
  1.751491e+01    1.399343e+00
  1.753079e+01    1.390688e+00
  1.754667e+01    1.371538e+00
  1.756254e+01    1.371100e+00
  1.757842e+01    1.363206e+00
  1.759429e+01    1.324481e+00
  1.761017e+01    1.367988e+00
  1.762604e+01    1.353146e+00
  1.764192e+01    1.340570e+00
  1.765779e+01    1.361558e+00
  1.767367e+01    1.339740e+00
  1.768955e+01    1.311837e+00
  1.770542e+01    1.338972e+00
  1.772130e+01    1.344595e+00
  1.773717e+01    1.346593e+00
  1.775305e+01    1.359327e+00
  1.776892e+01    1.343749e+00
  1.778480e+01    1.333759e+00
  1.780067e+01    1.325644e+00
  1.781655e+01    1.317400e+00
  1.783243e+01    1.314509e+00
  1.784830e+01    1.335346e+00
  1.786418e+01    1.364844e+00
  1.788005e+01    1.313160e+00
  1.789593e+01    1.306065e+00
  1.791180e+01    1.344599e+00
  1.792768e+01    1.342714e+00
  1.794355e+01    1.328449e+00
  1.795943e+01    1.297777e+00
  1.797531e+01    1.298128e+00
  1.799118e+01    1.310936e+00
  1.800706e+01    1.302227e+00
  1.802293e+01    1.314145e+00
  1.803881e+01    1.322387e+00
  1.805468e+01    1.306874e+00
  1.807056e+01    1.309355e+00
  1.808643e+01    1.313419e+00
  1.810231e+01    1.306260e+00
  1.811819e+01    1.287320e+00
  1.813406e+01    1.270712e+00
  1.814994e+01    1.304176e+00
  1.816581e+01    1.284502e+00
  1.818169e+01    1.293628e+00
  1.819756e+01    1.327085e+00
  1.821344e+01    1.299648e+00
  1.822932e+01    1.296942e+00
  1.824519e+01    1.288549e+00
  1.826107e+01    1.273068e+00
  1.827694e+01    1.257570e+00
  1.829282e+01    1.267329e+00
  1.830869e+01    1.248150e+00
  1.832457e+01    1.267007e+00
  1.834044e+01    1.244466e+00
  1.835632e+01    1.251705e+00
  1.837220e+01    1.273947e+00
  1.838807e+01    1.251777e+00
  1.840395e+01    1.268976e+00
  1.841982e+01    1.283100e+00
  1.843570e+01    1.285431e+00
  1.845157e+01    1.280077e+00
  1.846745e+01    1.273562e+00
  1.848332e+01    1.274599e+00
  1.849920e+01    1.287885e+00
  1.851508e+01    1.266985e+00
  1.853095e+01    1.231388e+00
  1.854683e+01    1.276865e+00
  1.856270e+01    1.258219e+00
  1.857858e+01    1.240357e+00
  1.859445e+01    1.227697e+00
  1.861033e+01    1.239241e+00
  1.862620e+01    1.272599e+00
  1.864208e+01    1.254709e+00
  1.865796e+01    1.251467e+00
  1.867383e+01    1.221540e+00
  1.868971e+01    1.223831e+00
  1.870558e+01    1.269903e+00
  1.872146e+01    1.248176e+00
  1.873733e+01    1.243114e+00
  1.875321e+01    1.269282e+00
  1.876908e+01    1.231364e+00
  1.878496e+01    1.226818e+00
  1.880084e+01    1.236285e+00
  1.881671e+01    1.246962e+00
  1.883259e+01    1.225492e+00
  1.884846e+01    1.225790e+00
  1.886434e+01    1.240321e+00
  1.888021e+01    1.244084e+00
  1.889609e+01    1.220560e+00
  1.891196e+01    1.235815e+00
  1.892784e+01    1.226993e+00
  1.894372e+01    1.219277e+00
  1.895959e+01    1.233022e+00
  1.897547e+01    1.214756e+00
  1.899134e+01    1.243230e+00
  1.900722e+01    1.225238e+00
  1.902309e+01    1.199267e+00
  1.903897e+01    1.219102e+00
  1.905484e+01    1.211823e+00
  1.907072e+01    1.194387e+00
  1.908660e+01    1.212941e+00
  1.910247e+01    1.192444e+00
  1.911835e+01    1.197599e+00
  1.913422e+01    1.197531e+00
  1.915010e+01    1.188167e+00
  1.916597e+01    1.197375e+00
  1.918185e+01    1.178337e+00
  1.919773e+01    1.186864e+00
  1.921360e+01    1.194866e+00
  1.922948e+01    1.195610e+00
  1.924535e+01    1.194319e+00
  1.926123e+01    1.192822e+00
  1.927710e+01    1.212793e+00
  1.929298e+01    1.174369e+00
  1.930885e+01    1.198914e+00
  1.932473e+01    1.219659e+00
  1.934061e+01    1.203594e+00
  1.935648e+01    1.206492e+00
  1.937236e+01    1.186571e+00
  1.938823e+01    1.181033e+00
  1.940411e+01    1.188419e+00
  1.941998e+01    1.165940e+00
  1.943586e+01    1.170596e+00
  1.945173e+01    1.169471e+00
  1.946761e+01    1.165787e+00
  1.948349e+01    1.176210e+00
  1.949936e+01    1.157906e+00
  1.951524e+01    1.165969e+00
  1.953111e+01    1.164097e+00
  1.954699e+01    1.157326e+00
  1.956286e+01    1.161942e+00
  1.957874e+01    1.160678e+00
  1.959461e+01    1.173024e+00
  1.961049e+01    1.157158e+00
  1.962637e+01    1.165544e+00
  1.964224e+01    1.156220e+00
  1.965812e+01    1.154057e+00
  1.967399e+01    1.168879e+00
  1.968987e+01    1.152444e+00
  1.970574e+01    1.130789e+00
  1.972162e+01    1.148000e+00
  1.973749e+01    1.123606e+00
  1.975337e+01    1.142250e+00
  1.976925e+01    1.160462e+00
  1.978512e+01    1.152954e+00
  1.980100e+01    1.145587e+00
  1.981687e+01    1.131863e+00
  1.983275e+01    1.130903e+00
  1.984862e+01    1.123271e+00
  1.986450e+01    1.131687e+00
  1.988037e+01    1.135748e+00
  1.989625e+01    1.120197e+00
  1.991213e+01    1.127194e+00
  1.992800e+01    1.120255e+00
  1.994388e+01    1.126480e+00
  1.995975e+01    1.104658e+00
  1.997563e+01    1.135053e+00
  1.999150e+01    1.137570e+00
  2.000738e+01    1.135531e+00
  2.002325e+01    1.130168e+00
  2.003913e+01    1.129396e+00
  2.005501e+01    1.126864e+00
  2.007088e+01    1.139745e+00
  2.008676e+01    1.125243e+00
  2.010263e+01    1.105699e+00
  2.011851e+01    1.116714e+00
  2.013438e+01    1.132730e+00
  2.015026e+01    1.128799e+00
  2.016614e+01    1.113843e+00
  2.018201e+01    1.095074e+00
  2.019789e+01    1.113427e+00
  2.021376e+01    1.097247e+00
  2.022964e+01    1.107836e+00
  2.024551e+01    1.106903e+00
  2.026139e+01    1.114691e+00
  2.027726e+01    1.119002e+00
  2.029314e+01    1.111568e+00
  2.030902e+01    1.133304e+00
  2.032489e+01    1.111489e+00
  2.034077e+01    1.101086e+00
  2.035664e+01    1.078500e+00
  2.037252e+01    1.107077e+00
  2.038839e+01    1.115817e+00
  2.040427e+01    1.104758e+00
  2.042014e+01    1.095100e+00
  2.043602e+01    1.095424e+00
  2.045190e+01    1.084535e+00
  2.046777e+01    1.099045e+00
  2.048365e+01    1.103787e+00
  2.049952e+01    1.075644e+00
  2.051540e+01    1.102406e+00
  2.053127e+01    1.103230e+00
  2.054715e+01    1.096578e+00
  2.056302e+01    1.092188e+00
  2.057890e+01    1.107704e+00
  2.059478e+01    1.112474e+00
  2.061065e+01    1.089507e+00
  2.062653e+01    1.099674e+00
  2.064240e+01    1.096929e+00
  2.065828e+01    1.105676e+00
  2.067415e+01    1.099185e+00
  2.069003e+01    1.090327e+00
  2.070590e+01    1.092362e+00
  2.072178e+01    1.104463e+00
  2.073766e+01    1.072887e+00
  2.075353e+01    1.087547e+00
  2.076941e+01    1.100632e+00
  2.078528e+01    1.084767e+00
  2.080116e+01    1.097077e+00
  2.081703e+01    1.116560e+00
  2.083291e+01    1.117665e+00
  2.084878e+01    1.089887e+00
  2.086466e+01    1.091611e+00
  2.088054e+01    1.067186e+00
  2.089641e+01    1.060758e+00
  2.091229e+01    1.074653e+00
  2.092816e+01    1.098417e+00
  2.094404e+01    1.116845e+00
  2.095991e+01    1.089826e+00
  2.097579e+01    1.088194e+00
  2.099166e+01    1.094332e+00
  2.100754e+01    1.114444e+00
  2.102342e+01    1.110047e+00
  2.103929e+01    1.110854e+00
  2.105517e+01    1.087396e+00
  2.107104e+01    1.081550e+00
  2.108692e+01    1.076417e+00
  2.110279e+01    1.128267e+00
  2.111867e+01    1.125546e+00
  2.113455e+01    1.083284e+00
  2.115042e+01    1.081917e+00
  2.116630e+01    1.091073e+00
  2.118217e+01    1.121566e+00
  2.119805e+01    1.119932e+00
  2.121392e+01    1.122842e+00
  2.122980e+01    1.123295e+00
  2.124567e+01    1.112913e+00
  2.126155e+01    1.098394e+00
  2.127743e+01    1.120812e+00
  2.129330e+01    1.122952e+00
  2.130918e+01    1.134493e+00
  2.132505e+01    1.152530e+00
  2.134093e+01    1.120980e+00
  2.135680e+01    1.152911e+00
  2.137268e+01    1.163986e+00
  2.138855e+01    1.166310e+00
  2.140443e+01    1.163964e+00
  2.142031e+01    1.171276e+00
  2.143618e+01    1.213457e+00
  2.145206e+01    1.214793e+00
  2.146793e+01    1.243970e+00
  2.148381e+01    1.270925e+00
  2.149968e+01    1.276334e+00
  2.151556e+01    1.302951e+00
  2.153143e+01    1.340208e+00
  2.154731e+01    1.397073e+00
  2.156319e+01    1.405594e+00
  2.157906e+01    1.471173e+00
  2.159494e+01    1.545264e+00
  2.161081e+01    1.591309e+00
  2.162669e+01    1.662391e+00
  2.164256e+01    1.742396e+00
  2.165844e+01    1.874463e+00
  2.167431e+01    2.010757e+00
  2.169019e+01    2.163159e+00
  2.170607e+01    2.342165e+00
  2.172194e+01    2.585019e+00
  2.173782e+01    2.976619e+00
  2.175369e+01    3.379033e+00
  2.176957e+01    3.826147e+00
  2.178544e+01    4.392550e+00
  2.180132e+01    5.059261e+00
  2.181719e+01    5.743669e+00
  2.183307e+01    6.525088e+00
  2.184895e+01    7.338224e+00
  2.186482e+01    8.258554e+00
  2.188070e+01    9.068361e+00
  2.189657e+01    9.789676e+00
  2.191245e+01    1.036340e+01
  2.192832e+01    1.060259e+01
  2.194420e+01    1.040387e+01
  2.196007e+01    9.754533e+00
  2.197595e+01    8.675500e+00
  2.199183e+01    7.551618e+00
  2.200770e+01    6.351712e+00
  2.202358e+01    5.337066e+00
  2.203945e+01    4.566103e+00
  2.205533e+01    3.894515e+00
  2.207120e+01    3.352068e+00
  2.208708e+01    2.949819e+00
  2.210296e+01    2.633734e+00
  2.211883e+01    2.391478e+00
  2.213471e+01    2.165040e+00
  2.215058e+01    1.982927e+00
  2.216646e+01    1.868736e+00
  2.218233e+01    1.736014e+00
  2.219821e+01    1.630556e+00
  2.221408e+01    1.570472e+00
  2.222996e+01    1.487817e+00
  2.224584e+01    1.415988e+00
  2.226171e+01    1.358816e+00
  2.227759e+01    1.323306e+00
  2.229346e+01    1.296412e+00
  2.230934e+01    1.254568e+00
  2.232521e+01    1.239430e+00
  2.234109e+01    1.190714e+00
  2.235696e+01    1.178035e+00
  2.237284e+01    1.132083e+00
  2.238872e+01    1.119414e+00
  2.240459e+01    1.153590e+00
  2.242047e+01    1.134600e+00
  2.243634e+01    1.119698e+00
  2.245222e+01    1.097344e+00
  2.246809e+01    1.095254e+00
  2.248397e+01    1.060504e+00
  2.249984e+01    1.042723e+00
  2.251572e+01    1.030536e+00
  2.253160e+01    1.037616e+00
  2.254747e+01    1.059343e+00
  2.256335e+01    1.029796e+00
  2.257922e+01    1.021741e+00
  2.259510e+01    1.030075e+00
  2.261097e+01    1.029875e+00
  2.262685e+01    1.007528e+00
  2.264272e+01    9.885861e-01
  2.265860e+01    9.933792e-01
  2.267448e+01    9.758077e-01
  2.269035e+01    9.804940e-01
  2.270623e+01    9.633805e-01
  2.272210e+01    9.612987e-01
  2.273798e+01    9.591238e-01
  2.275385e+01    9.666568e-01
  2.276973e+01    9.656530e-01
  2.278560e+01    9.579037e-01
  2.280148e+01    9.433427e-01
  2.281736e+01    9.405986e-01
  2.283323e+01    9.381703e-01
  2.284911e+01    9.495392e-01
  2.286498e+01    9.342940e-01
  2.288086e+01    9.134951e-01
  2.289673e+01    9.221773e-01
  2.291261e+01    9.521320e-01
  2.292848e+01    9.306511e-01
  2.294436e+01    9.134904e-01
  2.296024e+01    9.034263e-01
  2.297611e+01    9.132347e-01
  2.299199e+01    9.168870e-01
  2.300786e+01    9.037538e-01
  2.302374e+01    9.115182e-01
  2.303961e+01    9.206226e-01
  2.305549e+01    8.977315e-01
  2.307137e+01    8.926756e-01
  2.308724e+01    8.799938e-01
  2.310312e+01    8.825733e-01
  2.311899e+01    8.951620e-01
  2.313487e+01    9.063296e-01
  2.315074e+01    8.936612e-01
  2.316662e+01    8.896669e-01
  2.318249e+01    8.941700e-01
  2.319837e+01    8.788733e-01
  2.321425e+01    8.960936e-01
  2.323012e+01    8.887655e-01
  2.324600e+01    8.670649e-01
  2.326187e+01    8.667491e-01
  2.327775e+01    8.837550e-01
  2.329362e+01    8.915801e-01
  2.330950e+01    8.781190e-01
  2.332537e+01    8.736863e-01
  2.334125e+01    8.826544e-01
  2.335713e+01    8.781488e-01
  2.337300e+01    8.836641e-01
  2.338888e+01    8.717199e-01
  2.340475e+01    8.558312e-01
  2.342063e+01    8.384078e-01
  2.343650e+01    8.638988e-01
  2.345238e+01    8.517919e-01
  2.346825e+01    8.612599e-01
  2.348413e+01    8.542053e-01
  2.350001e+01    8.520786e-01
  2.351588e+01    8.653876e-01
  2.353176e+01    8.567802e-01
  2.354763e+01    8.665092e-01
  2.356351e+01    8.666880e-01
  2.357938e+01    8.411145e-01
  2.359526e+01    8.317807e-01
  2.361113e+01    8.842821e-01
  2.362701e+01    8.683513e-01
  2.364289e+01    8.486941e-01
  2.365876e+01    8.342339e-01
  2.367464e+01    8.551304e-01
  2.369051e+01    8.354363e-01
  2.370639e+01    8.131939e-01
  2.372226e+01    8.426758e-01
  2.373814e+01    8.259729e-01
  2.375401e+01    8.176539e-01
  2.376989e+01    8.322304e-01
  2.378577e+01    8.217059e-01
  2.380164e+01    8.185994e-01
  2.381752e+01    8.234487e-01
  2.383339e+01    8.213989e-01
  2.384927e+01    8.367052e-01
  2.386514e+01    8.222713e-01
  2.388102e+01    8.103373e-01
  2.389689e+01    8.058065e-01
  2.391277e+01    8.120288e-01
  2.392865e+01    8.014383e-01
  2.394452e+01    8.028187e-01
  2.396040e+01    8.150526e-01
  2.397627e+01    8.142175e-01
  2.399215e+01    7.982306e-01
  2.400802e+01    8.017138e-01
  2.402390e+01    7.947606e-01
  2.403978e+01    8.064013e-01
  2.405565e+01    7.867763e-01
  2.407153e+01    7.920657e-01
  2.408740e+01    7.932661e-01
  2.410328e+01    7.924023e-01
  2.411915e+01    7.775282e-01
  2.413503e+01    7.895342e-01
  2.415090e+01    8.077184e-01
  2.416678e+01    7.783289e-01
  2.418266e+01    7.819035e-01
  2.419853e+01    7.812542e-01
  2.421441e+01    7.743104e-01
  2.423028e+01    7.904350e-01
  2.424616e+01    7.746775e-01
  2.426203e+01    7.936864e-01
  2.427791e+01    8.041194e-01
  2.429378e+01    7.977743e-01
  2.430966e+01    8.149014e-01
  2.432554e+01    7.942355e-01
  2.434141e+01    7.872303e-01
  2.435729e+01    7.991232e-01
  2.437316e+01    8.143064e-01
  2.438904e+01    7.870613e-01
  2.440491e+01    7.960637e-01
  2.442079e+01    7.994512e-01
  2.443666e+01    7.984501e-01
  2.445254e+01    8.018453e-01
  2.446842e+01    7.886629e-01
  2.448429e+01    8.080493e-01
  2.450017e+01    8.017793e-01
  2.451604e+01    8.120680e-01
  2.453192e+01    8.133625e-01
  2.454779e+01    7.888350e-01
  2.456367e+01    7.990177e-01
  2.457954e+01    8.002912e-01
  2.459542e+01    7.885998e-01
  2.461130e+01    8.007256e-01
  2.462717e+01    7.919123e-01
  2.464305e+01    8.003437e-01
  2.465892e+01    8.037667e-01
  2.467480e+01    7.878624e-01
  2.469067e+01    7.765753e-01
  2.470655e+01    7.916127e-01
  2.472242e+01    8.143876e-01
  2.473830e+01    8.049551e-01
  2.475418e+01    7.879611e-01
  2.477005e+01    8.167896e-01
  2.478593e+01    7.958460e-01
  2.480180e+01    7.804747e-01
  2.481768e+01    8.064929e-01
  2.483355e+01    8.019977e-01
  2.484943e+01    7.830290e-01
  2.486530e+01    7.988549e-01
  2.488118e+01    8.296511e-01
  2.489706e+01    8.015699e-01
  2.491293e+01    7.838274e-01
  2.492881e+01    7.985974e-01
  2.494468e+01    7.908063e-01
  2.496056e+01    8.104690e-01
  2.497643e+01    8.359759e-01
  2.499231e+01    8.113371e-01
  2.500819e+01    8.246775e-01
  2.502406e+01    8.224488e-01
  2.503994e+01    8.316070e-01
  2.505581e+01    8.302972e-01
  2.507169e+01    8.247243e-01
  2.508756e+01    8.237253e-01
  2.510344e+01    8.218606e-01
  2.511931e+01    8.220518e-01
  2.513519e+01    8.123632e-01
  2.515107e+01    8.206766e-01
  2.516694e+01    8.510941e-01
  2.518282e+01    8.276766e-01
  2.519869e+01    8.367929e-01
  2.521457e+01    8.373844e-01
  2.523044e+01    8.469716e-01
  2.524632e+01    8.455166e-01
  2.526219e+01    8.542876e-01
  2.527807e+01    8.636455e-01
  2.529395e+01    8.707996e-01
  2.530982e+01    8.708076e-01
  2.532570e+01    8.806638e-01
  2.534157e+01    9.066827e-01
  2.535745e+01    9.136494e-01
  2.537332e+01    9.038655e-01
  2.538920e+01    8.989496e-01
  2.540507e+01    8.902895e-01
  2.542095e+01    9.182162e-01
  2.543683e+01    9.347219e-01
  2.545270e+01    9.273425e-01
  2.546858e+01    9.468734e-01
  2.548445e+01    9.889867e-01
  2.550033e+01    9.869227e-01
  2.551620e+01    9.746181e-01
  2.553208e+01    9.898692e-01
  2.554795e+01    1.025815e+00
  2.556383e+01    1.038534e+00
  2.557971e+01    1.061114e+00
  2.559558e+01    1.087545e+00
  2.561146e+01    1.106826e+00
  2.562733e+01    1.150082e+00
  2.564321e+01    1.197799e+00
  2.565908e+01    1.231745e+00
  2.567496e+01    1.278278e+00
  2.569083e+01    1.350541e+00
  2.570671e+01    1.413704e+00
  2.572259e+01    1.491737e+00
  2.573846e+01    1.582427e+00
  2.575434e+01    1.754975e+00
  2.577021e+01    1.913401e+00
  2.578609e+01    2.059039e+00
  2.580196e+01    2.312806e+00
  2.581784e+01    2.624373e+00
  2.583371e+01    2.912079e+00
  2.584959e+01    3.346211e+00
  2.586547e+01    3.819078e+00
  2.588134e+01    4.428744e+00
  2.589722e+01    5.085447e+00
  2.591309e+01    5.828131e+00
  2.592897e+01    6.562897e+00
  2.594484e+01    7.294017e+00
  2.596072e+01    7.977201e+00
  2.597660e+01    8.523540e+00
  2.599247e+01    8.766544e+00
  2.600835e+01    8.716943e+00
  2.602422e+01    8.266026e+00
  2.604010e+01    7.521384e+00
  2.605597e+01    6.683948e+00
  2.607185e+01    5.736328e+00
  2.608772e+01    4.865427e+00
  2.610360e+01    4.205064e+00
  2.611948e+01    3.575243e+00
  2.613535e+01    3.126644e+00
  2.615123e+01    2.745948e+00
  2.616710e+01    2.414683e+00
  2.618298e+01    2.151008e+00
  2.619885e+01    1.978199e+00
  2.621473e+01    1.827702e+00
  2.623060e+01    1.725059e+00
  2.624648e+01    1.602985e+00
  2.626236e+01    1.483939e+00
  2.627823e+01    1.399469e+00
  2.629411e+01    1.333683e+00
  2.630998e+01    1.294773e+00
  2.632586e+01    1.231286e+00
  2.634173e+01    1.171530e+00
  2.635761e+01    1.113418e+00
  2.637348e+01    1.109562e+00
  2.638936e+01    1.093270e+00
  2.640524e+01    1.061314e+00
  2.642111e+01    1.026889e+00
  2.643699e+01    1.018432e+00
  2.645286e+01    1.028560e+00
  2.646874e+01    9.867535e-01
  2.648461e+01    1.002163e+00
  2.650049e+01    1.015580e+00
  2.651636e+01    9.796007e-01
  2.653224e+01    9.496744e-01
  2.654812e+01    9.476293e-01
  2.656399e+01    9.428908e-01
  2.657987e+01    9.431648e-01
  2.659574e+01    9.430621e-01
  2.661162e+01    9.406115e-01
  2.662749e+01    9.390235e-01
  2.664337e+01    9.397412e-01
  2.665924e+01    9.348909e-01
  2.667512e+01    9.261253e-01
  2.669100e+01    9.271706e-01
  2.670687e+01    8.922778e-01
  2.672275e+01    8.756512e-01
  2.673862e+01    8.980249e-01
  2.675450e+01    8.964547e-01
  2.677037e+01    8.958437e-01
  2.678625e+01    9.220434e-01
  2.680212e+01    9.282342e-01
  2.681800e+01    8.963901e-01
  2.683388e+01    9.045396e-01
  2.684975e+01    9.053884e-01
  2.686563e+01    9.106577e-01
  2.688150e+01    9.154465e-01
  2.689738e+01    9.336558e-01
  2.691325e+01    9.539654e-01
  2.692913e+01    9.582834e-01
  2.694501e+01    9.606284e-01
  2.696088e+01    9.792467e-01
  2.697676e+01    9.665269e-01
  2.699263e+01    9.925094e-01
  2.700851e+01    1.026450e+00
  2.702438e+01    1.048115e+00
  2.704026e+01    1.065943e+00
  2.705613e+01    1.121395e+00
  2.707201e+01    1.164481e+00
  2.708789e+01    1.216971e+00
  2.710376e+01    1.295716e+00
  2.711964e+01    1.397570e+00
  2.713551e+01    1.519571e+00
  2.715139e+01    1.632246e+00
  2.716726e+01    1.770809e+00
  2.718314e+01    1.960892e+00
  2.719901e+01    2.121490e+00
  2.721489e+01    2.276162e+00
  2.723077e+01    2.417660e+00
  2.724664e+01    2.511981e+00
  2.726252e+01    2.530855e+00
  2.727839e+01    2.467750e+00
  2.729427e+01    2.327269e+00
  2.731014e+01    2.148103e+00
  2.732602e+01    1.959619e+00
  2.734189e+01    1.768555e+00
  2.735777e+01    1.642073e+00
  2.737365e+01    1.478888e+00
  2.738952e+01    1.365885e+00
  2.740540e+01    1.279436e+00
  2.742127e+01    1.182776e+00
  2.743715e+01    1.142738e+00
  2.745302e+01    1.095823e+00
  2.746890e+01    1.066701e+00
  2.748477e+01    1.005191e+00
  2.750065e+01    9.989004e-01
  2.751653e+01    9.699032e-01
  2.753240e+01    9.392469e-01
  2.754828e+01    9.257426e-01
  2.756415e+01    9.357355e-01
  2.758003e+01    9.094560e-01
  2.759590e+01    9.106076e-01
  2.761178e+01    9.121517e-01
  2.762765e+01    9.001132e-01
  2.764353e+01    8.732802e-01
  2.765941e+01    8.763325e-01
  2.767528e+01    8.724145e-01
  2.769116e+01    8.597478e-01
  2.770703e+01    8.416169e-01
  2.772291e+01    8.281040e-01
  2.773878e+01    8.419006e-01
  2.775466e+01    8.448122e-01
  2.777054e+01    8.477654e-01
  2.778641e+01    8.390573e-01
  2.780229e+01    8.142607e-01
  2.781816e+01    8.397766e-01
  2.783404e+01    8.263952e-01
  2.784991e+01    8.138404e-01
  2.786579e+01    8.199704e-01
  2.788166e+01    8.392016e-01
  2.789754e+01    8.283514e-01
  2.791342e+01    8.209592e-01
  2.792929e+01    8.198068e-01
  2.794517e+01    8.269281e-01
  2.796104e+01    8.206344e-01
  2.797692e+01    8.063956e-01
  2.799279e+01    7.932197e-01
  2.800867e+01    7.966938e-01
  2.802454e+01    8.030131e-01
  2.804042e+01    8.062180e-01
  2.805630e+01    7.908917e-01
  2.807217e+01    7.796527e-01
  2.808805e+01    7.947249e-01
  2.810392e+01    7.916240e-01
  2.811980e+01    7.828963e-01
  2.813567e+01    7.935149e-01
  2.815155e+01    8.037723e-01
  2.816742e+01    8.177592e-01
  2.818330e+01    8.063222e-01
  2.819918e+01    8.010240e-01
  2.821505e+01    7.909975e-01
  2.823093e+01    7.865284e-01
  2.824680e+01    8.016547e-01
  2.826268e+01    8.037593e-01
  2.827855e+01    7.913968e-01
  2.829443e+01    7.928687e-01
  2.831030e+01    7.886103e-01
  2.832618e+01    7.819527e-01
  2.834206e+01    7.806231e-01
  2.835793e+01    8.043904e-01
  2.837381e+01    7.860390e-01
  2.838968e+01    7.859662e-01
  2.840556e+01    7.702153e-01
  2.842143e+01    7.743665e-01
  2.843731e+01    7.766840e-01
  2.845318e+01    7.793627e-01
  2.846906e+01    7.954192e-01
  2.848494e+01    7.789301e-01
  2.850081e+01    7.642188e-01
  2.851669e+01    7.633534e-01
  2.853256e+01    7.696069e-01
  2.854844e+01    7.807593e-01
  2.856431e+01    7.730482e-01
  2.858019e+01    7.551017e-01
  2.859606e+01    7.564592e-01
  2.861194e+01    7.667398e-01
  2.862782e+01    7.790235e-01
  2.864369e+01    7.626423e-01
  2.865957e+01    7.718985e-01
  2.867544e+01    7.614655e-01
  2.869132e+01    7.534485e-01
  2.870719e+01    7.762333e-01
  2.872307e+01    7.747106e-01
  2.873895e+01    7.813659e-01
  2.875482e+01    7.458885e-01
  2.877070e+01    7.536707e-01
  2.878657e+01    7.520806e-01
  2.880245e+01    7.660143e-01
  2.881832e+01    7.461584e-01
  2.883420e+01    7.599459e-01
  2.885007e+01    7.699123e-01
  2.886595e+01    7.435933e-01
  2.888183e+01    7.317845e-01
  2.889770e+01    7.382409e-01
  2.891358e+01    7.505966e-01
  2.892945e+01    7.628264e-01
  2.894533e+01    7.478012e-01
  2.896120e+01    7.420247e-01
  2.897708e+01    7.588531e-01
  2.899295e+01    7.351059e-01
  2.900883e+01    7.438340e-01
  2.902471e+01    7.528043e-01
  2.904058e+01    7.559516e-01
  2.905646e+01    7.607811e-01
  2.907233e+01    7.596403e-01
  2.908821e+01    7.490745e-01
  2.910408e+01    7.304648e-01
  2.911996e+01    7.417417e-01
  2.913583e+01    7.442360e-01
  2.915171e+01    7.317567e-01
  2.916759e+01    7.501970e-01
  2.918346e+01    7.393239e-01
  2.919934e+01    7.370372e-01
  2.921521e+01    7.480432e-01
  2.923109e+01    7.511898e-01
  2.924696e+01    7.382615e-01
  2.926284e+01    7.393152e-01
  2.927871e+01    7.379059e-01
  2.929459e+01    7.407014e-01
  2.931047e+01    7.504772e-01
  2.932634e+01    7.521866e-01
  2.934222e+01    7.379203e-01
  2.935809e+01    7.467326e-01
  2.937397e+01    7.338604e-01
  2.938984e+01    7.211318e-01
  2.940572e+01    7.340955e-01
  2.942159e+01    7.374864e-01
  2.943747e+01    7.462325e-01
  2.945335e+01    7.569510e-01
  2.946922e+01    7.517121e-01
  2.948510e+01    7.380658e-01
  2.950097e+01    7.399412e-01
  2.951685e+01    7.236913e-01
  2.953272e+01    7.348279e-01
  2.954860e+01    7.365444e-01
  2.956447e+01    7.339190e-01
  2.958035e+01    7.232183e-01
  2.959623e+01    7.184864e-01
  2.961210e+01    7.343811e-01
  2.962798e+01    7.443453e-01
  2.964385e+01    7.371250e-01
  2.965973e+01    7.395495e-01
  2.967560e+01    7.294896e-01
  2.969148e+01    7.419398e-01
  2.970736e+01    7.527683e-01
  2.972323e+01    7.383766e-01
  2.973911e+01    7.242658e-01
  2.975498e+01    7.306145e-01
  2.977086e+01    7.409644e-01
  2.978673e+01    7.254926e-01
  2.980261e+01    7.084726e-01
  2.981848e+01    7.101678e-01
  2.983436e+01    7.246016e-01
  2.985024e+01    7.326213e-01
  2.986611e+01    7.335796e-01
  2.988199e+01    7.391582e-01
  2.989786e+01    7.421656e-01
  2.991374e+01    7.459804e-01
  2.992961e+01    7.473184e-01
  2.994549e+01    7.239358e-01
  2.996136e+01    7.405647e-01
  2.997724e+01    7.331764e-01
  2.999312e+01    7.360759e-01
  3.000899e+01    7.468727e-01
  3.002487e+01    7.526830e-01
  3.004074e+01    7.426366e-01
  3.005662e+01    7.414490e-01
  3.007249e+01    7.444932e-01
  3.008837e+01    7.404712e-01
  3.010424e+01    7.330604e-01
  3.012012e+01    7.350113e-01
  3.013600e+01    7.391477e-01
  3.015187e+01    7.170620e-01
  3.016775e+01    7.207294e-01
  3.018362e+01    7.127739e-01
  3.019950e+01    7.233745e-01
  3.021537e+01    7.035338e-01
  3.023125e+01    7.157726e-01
  3.024712e+01    7.398428e-01
  3.026300e+01    7.386714e-01
  3.027888e+01    7.311619e-01
  3.029475e+01    7.269012e-01
  3.031063e+01    7.213835e-01
  3.032650e+01    7.257259e-01
  3.034238e+01    7.086876e-01
  3.035825e+01    7.216330e-01
  3.037413e+01    7.236565e-01
  3.039000e+01    7.038493e-01
  3.040588e+01    7.060927e-01
  3.042176e+01    7.220810e-01
  3.043763e+01    7.272180e-01
  3.045351e+01    7.096804e-01
  3.046938e+01    7.149221e-01
  3.048526e+01    7.243707e-01
  3.050113e+01    7.257978e-01
  3.051701e+01    7.056202e-01
  3.053288e+01    7.175308e-01
  3.054876e+01    7.385752e-01
  3.056464e+01    7.336312e-01
  3.058051e+01    7.167193e-01
  3.059639e+01    7.240906e-01
  3.061226e+01    7.089781e-01
  3.062814e+01    7.222123e-01
  3.064401e+01    7.189839e-01
  3.065989e+01    7.139257e-01
  3.067577e+01    7.223334e-01
  3.069164e+01    7.291373e-01
  3.070752e+01    7.342536e-01
  3.072339e+01    7.160894e-01
  3.073927e+01    7.094935e-01
  3.075514e+01    6.921419e-01
  3.077102e+01    7.282112e-01
  3.078689e+01    7.328619e-01
  3.080277e+01    7.248051e-01
  3.081865e+01    7.157129e-01
  3.083452e+01    7.215362e-01
  3.085040e+01    7.297051e-01
  3.086627e+01    7.404892e-01
  3.088215e+01    7.237636e-01
  3.089802e+01    7.163092e-01
  3.091390e+01    7.119217e-01
  3.092977e+01    7.265496e-01
  3.094565e+01    7.190459e-01
  3.096153e+01    7.042870e-01
  3.097740e+01    7.287676e-01
  3.099328e+01    7.317550e-01
  3.100915e+01    7.317658e-01
  3.102503e+01    7.203959e-01
  3.104090e+01    7.295396e-01
  3.105678e+01    7.186173e-01
  3.107265e+01    7.412050e-01
  3.108853e+01    7.448196e-01
  3.110441e+01    7.241383e-01
  3.112028e+01    7.409473e-01
  3.113616e+01    7.224489e-01
  3.115203e+01    7.164600e-01
  3.116791e+01    7.419498e-01
  3.118378e+01    7.624053e-01
  3.119966e+01    7.406011e-01
  3.121553e+01    7.384056e-01
  3.123141e+01    7.244694e-01
  3.124729e+01    7.462249e-01
  3.126316e+01    7.472962e-01
  3.127904e+01    7.538115e-01
  3.129491e+01    7.626809e-01
  3.131079e+01    7.636974e-01
  3.132666e+01    7.670419e-01
  3.134254e+01    7.667370e-01
  3.135841e+01    7.543367e-01
  3.137429e+01    7.464104e-01
  3.139017e+01    7.452670e-01
  3.140604e+01    7.679353e-01
  3.142192e+01    7.931476e-01
  3.143779e+01    7.764748e-01
  3.145367e+01    7.377689e-01
  3.146954e+01    7.495844e-01
  3.148542e+01    7.649229e-01
  3.150129e+01    7.635028e-01
  3.151717e+01    7.745093e-01
  3.153305e+01    7.891591e-01
  3.154892e+01    7.854733e-01
  3.156480e+01    7.768842e-01
  3.158067e+01    8.173083e-01
  3.159655e+01    7.989140e-01
  3.161242e+01    8.250244e-01
  3.162830e+01    8.418881e-01
  3.164418e+01    8.414838e-01
  3.166005e+01    8.547708e-01
  3.167593e+01    9.000924e-01
  3.169180e+01    9.167516e-01
  3.170768e+01    9.351617e-01
  3.172355e+01    9.916751e-01
  3.173943e+01    1.008702e+00
  3.175530e+01    1.029387e+00
  3.177118e+01    1.092277e+00
  3.178706e+01    1.151879e+00
  3.180293e+01    1.219684e+00
  3.181881e+01    1.333885e+00
  3.183468e+01    1.468695e+00
  3.185056e+01    1.615307e+00
  3.186643e+01    1.785916e+00
  3.188231e+01    1.980389e+00
  3.189818e+01    2.120474e+00
  3.191406e+01    2.301022e+00
  3.192994e+01    2.414556e+00
  3.194581e+01    2.450788e+00
  3.196169e+01    2.496440e+00
  3.197756e+01    2.408262e+00
  3.199344e+01    2.265386e+00
  3.200931e+01    2.079373e+00
  3.202519e+01    1.882354e+00
  3.204106e+01    1.721449e+00
  3.205694e+01    1.566601e+00
  3.207282e+01    1.431971e+00
  3.208869e+01    1.301183e+00
  3.210457e+01    1.187458e+00
  3.212044e+01    1.116718e+00
  3.213632e+01    1.063785e+00
  3.215219e+01    1.004400e+00
  3.216807e+01    9.959126e-01
  3.218394e+01    9.512196e-01
  3.219982e+01    9.297388e-01
  3.221570e+01    8.993630e-01
  3.223157e+01    8.759904e-01
  3.224745e+01    8.626316e-01
  3.226332e+01    8.138555e-01
  3.227920e+01    7.921837e-01
  3.229507e+01    7.916447e-01
  3.231095e+01    8.100693e-01
  3.232682e+01    8.098187e-01
  3.234270e+01    7.844520e-01
  3.235858e+01    7.702410e-01
  3.237445e+01    7.326521e-01
  3.239033e+01    7.496373e-01
  3.240620e+01    7.416079e-01
  3.242208e+01    7.641354e-01
  3.243795e+01    7.560409e-01
  3.245383e+01    7.493960e-01
  3.246970e+01    7.473416e-01
  3.248558e+01    7.422274e-01
  3.250146e+01    7.662233e-01
  3.251733e+01    7.393784e-01
  3.253321e+01    7.372682e-01
  3.254908e+01    7.281101e-01
