# == pyFAI calibration ==
# Distance Sample to Detector: 0.3999999939076516 m
# PONI: 9.750e-02, 1.135e-01 m
# Rotations: -0.000175 0.000000 -0.000000 rad
# 
# == Fit2d calibration ==
# Distance Sample-beamCenter: 400.000 mm
# Center: x=1514.000, y=1300.000 pix
# Tilt: 0.010 deg  TiltPlanRot: 0.010 deg
# 
# Detector Detector	 Spline= None	 PixelSize= 7.500e-05, 7.500e-05 m
#    Detector has a mask: False 
#    Detector has a dark current: False 
#    detector has a flat field: False 
# 
# Wavelength: 6.888e-11 m
# Mask applied: user provided
# Dark current applied: False
# Flat field applied: False
# Polarization factor: 0.99
# Normalization factor: 1.0
# --> /home/myspot/data/2024_07_Rosario/Ru-CGO-ex/2024-07-27_002_Ru-CGO-ex_Activtation_ramp_000002_data_000092.dat
#       q_nm^-1             I 
  2.003187e-02    3.412503e-01
  3.590745e-02    3.464679e-01
  5.178302e-02    1.813242e-01
  6.765859e-02    1.051263e-01
  8.353417e-02    3.539762e-02
  9.940974e-02    7.406349e-02
  1.152853e-01    1.505849e-02
  1.311609e-01    7.574782e-02
  1.470365e-01    7.503691e-02
  1.629120e-01    5.296612e-02
  1.787876e-01    2.099108e-02
  1.946632e-01    3.931614e-03
  2.105388e-01    1.823753e-02
  2.264143e-01    6.979418e-03
  2.422899e-01    3.439032e-02
  2.581655e-01    3.149126e-02
  2.740411e-01    9.584929e-03
  2.899166e-01    3.192662e-02
  3.057922e-01    2.147223e-02
  3.216678e-01    3.525713e-02
  3.375433e-01    7.910676e-02
  3.534189e-01    4.611477e-02
  3.692945e-01    4.742299e-02
  3.851701e-01    5.533690e-02
  4.010456e-01    2.786627e-02
  4.169212e-01    6.147525e-02
  4.327968e-01    6.168497e-02
  4.486724e-01    1.968330e-02
  4.645479e-01    1.947537e-02
  4.804235e-01    4.719046e-02
  4.962991e-01    4.715488e-02
  5.121747e-01    3.667133e-02
  5.280502e-01    2.491748e-02
  5.439258e-01    2.037387e-02
  5.598014e-01    1.901130e-02
  5.756770e-01    1.620171e-02
  5.915525e-01    3.664069e-02
  6.074281e-01    4.502894e-02
  6.233037e-01    5.542846e-02
  6.391793e-01    4.832872e-02
  6.550548e-01    2.197767e-02
  6.709304e-01    2.501516e-02
  6.868060e-01    1.758945e-02
  7.026815e-01    2.081414e-02
  7.185571e-01    3.898270e-02
  7.344327e-01    3.652786e-02
  7.503083e-01    5.399618e-02
  7.661838e-01    8.057241e-02
  7.820594e-01    1.088914e-01
  7.979350e-01    1.559368e-01
  8.138106e-01    1.738644e-01
  8.296861e-01    2.005918e-01
  8.455617e-01    2.735847e-01
  8.614373e-01    3.904399e-01
  8.773129e-01    3.917047e-01
  8.931884e-01    4.748871e-01
  9.090640e-01    5.897676e-01
  9.249396e-01    6.133084e-01
  9.408152e-01    7.004433e-01
  9.566907e-01    7.948943e-01
  9.725663e-01    8.138163e-01
  9.884419e-01    8.909471e-01
  1.004317e+00    1.002547e+00
  1.020193e+00    1.075930e+00
  1.036069e+00    1.086867e+00
  1.051944e+00    1.231668e+00
  1.067820e+00    1.265331e+00
  1.083695e+00    1.315004e+00
  1.099571e+00    1.391245e+00
  1.115446e+00    1.484451e+00
  1.131322e+00    1.354948e+00
  1.147198e+00    1.464002e+00
  1.163073e+00    1.572107e+00
  1.178949e+00    1.613580e+00
  1.194824e+00    1.662329e+00
  1.210700e+00    1.790398e+00
  1.226575e+00    2.020800e+00
  1.242451e+00    2.131554e+00
  1.258327e+00    2.273492e+00
  1.274202e+00    2.355857e+00
  1.290078e+00    2.394048e+00
  1.305953e+00    2.443804e+00
  1.321829e+00    2.317549e+00
  1.337705e+00    2.427616e+00
  1.353580e+00    2.588224e+00
  1.369456e+00    2.616628e+00
  1.385331e+00    2.552553e+00
  1.401207e+00    2.509115e+00
  1.417082e+00    2.660549e+00
  1.432958e+00    2.616817e+00
  1.448834e+00    2.793671e+00
  1.464709e+00    2.742555e+00
  1.480585e+00    2.848568e+00
  1.496460e+00    2.838187e+00
  1.512336e+00    2.830595e+00
  1.528211e+00    2.935325e+00
  1.544087e+00    2.903790e+00
  1.559963e+00    2.869213e+00
  1.575838e+00    2.906989e+00
  1.591714e+00    3.008310e+00
  1.607589e+00    3.022399e+00
  1.623465e+00    2.884378e+00
  1.639340e+00    2.827207e+00
  1.655216e+00    2.759942e+00
  1.671092e+00    2.826651e+00
  1.686967e+00    2.737429e+00
  1.702843e+00    2.673880e+00
  1.718718e+00    2.744114e+00
  1.734594e+00    2.746756e+00
  1.750469e+00    2.625319e+00
  1.766345e+00    2.746985e+00
  1.782221e+00    2.790937e+00
  1.798096e+00    2.791646e+00
  1.813972e+00    2.769106e+00
  1.829847e+00    2.741200e+00
  1.845723e+00    2.778161e+00
  1.861598e+00    2.825212e+00
  1.877474e+00    2.762342e+00
  1.893350e+00    2.693099e+00
  1.909225e+00    2.854787e+00
  1.925101e+00    2.883699e+00
  1.940976e+00    2.769613e+00
  1.956852e+00    2.786043e+00
  1.972727e+00    2.689058e+00
  1.988603e+00    2.681283e+00
  2.004479e+00    2.718301e+00
  2.020354e+00    2.697372e+00
  2.036230e+00    2.704650e+00
  2.052105e+00    2.681846e+00
  2.067981e+00    2.657053e+00
  2.083856e+00    2.746832e+00
  2.099732e+00    2.739853e+00
  2.115608e+00    2.678562e+00
  2.131483e+00    2.791583e+00
  2.147359e+00    2.852746e+00
  2.163234e+00    2.726943e+00
  2.179110e+00    2.721693e+00
  2.194985e+00    2.731498e+00
  2.210861e+00    2.685652e+00
  2.226737e+00    2.717047e+00
  2.242612e+00    2.672099e+00
  2.258488e+00    2.829826e+00
  2.274363e+00    2.786208e+00
  2.290239e+00    2.671437e+00
  2.306115e+00    2.661455e+00
  2.321990e+00    2.661534e+00
  2.337866e+00    2.730065e+00
  2.353741e+00    2.745622e+00
  2.369617e+00    2.743623e+00
  2.385492e+00    2.573457e+00
  2.401368e+00    2.702775e+00
  2.417244e+00    2.829993e+00
  2.433119e+00    2.791562e+00
  2.448995e+00    2.770995e+00
  2.464870e+00    2.719753e+00
  2.480746e+00    2.762971e+00
  2.496621e+00    2.793695e+00
  2.512497e+00    2.832124e+00
  2.528373e+00    2.693426e+00
  2.544248e+00    2.763812e+00
  2.560124e+00    2.847575e+00
  2.575999e+00    2.735627e+00
  2.591875e+00    2.664964e+00
  2.607750e+00    2.711271e+00
  2.623626e+00    2.737084e+00
  2.639502e+00    2.695230e+00
  2.655377e+00    2.675853e+00
  2.671253e+00    2.775622e+00
  2.687128e+00    2.768536e+00
  2.703004e+00    2.759778e+00
  2.718879e+00    2.746019e+00
  2.734755e+00    2.801407e+00
  2.750631e+00    2.825285e+00
  2.766506e+00    2.759888e+00
  2.782382e+00    2.781091e+00
  2.798257e+00    2.827719e+00
  2.814133e+00    2.880167e+00
  2.830008e+00    2.857632e+00
  2.845884e+00    2.800183e+00
  2.861760e+00    2.844302e+00
  2.877635e+00    2.863474e+00
  2.893511e+00    2.840459e+00
  2.909386e+00    2.778691e+00
  2.925262e+00    2.863275e+00
  2.941137e+00    2.836060e+00
  2.957013e+00    2.753259e+00
  2.972889e+00    2.694037e+00
  2.988764e+00    2.702317e+00
  3.004640e+00    2.777335e+00
  3.020515e+00    2.722080e+00
  3.036391e+00    2.866083e+00
  3.052266e+00    2.852858e+00
  3.068142e+00    2.822508e+00
  3.084018e+00    2.858932e+00
  3.099893e+00    2.829722e+00
  3.115769e+00    2.828390e+00
  3.131644e+00    2.874882e+00
  3.147520e+00    2.890520e+00
  3.163395e+00    2.873187e+00
  3.179271e+00    2.917037e+00
  3.195147e+00    2.872200e+00
  3.211022e+00    2.896199e+00
  3.226898e+00    2.827683e+00
  3.242773e+00    2.803794e+00
  3.258649e+00    2.874611e+00
  3.274525e+00    2.850579e+00
  3.290400e+00    2.898898e+00
  3.306276e+00    2.981361e+00
  3.322151e+00    2.894362e+00
  3.338027e+00    2.880794e+00
  3.353902e+00    2.866847e+00
  3.369778e+00    2.834736e+00
  3.385654e+00    2.876970e+00
  3.401529e+00    2.809240e+00
  3.417405e+00    2.806955e+00
  3.433280e+00    2.876971e+00
  3.449156e+00    2.931249e+00
  3.465031e+00    2.926122e+00
  3.480907e+00    2.865864e+00
  3.496783e+00    2.999850e+00
  3.512658e+00    2.955124e+00
  3.528534e+00    2.924718e+00
  3.544409e+00    2.954106e+00
  3.560285e+00    2.909526e+00
  3.576160e+00    2.950662e+00
  3.592036e+00    2.942567e+00
  3.607912e+00    2.916929e+00
  3.623787e+00    2.929655e+00
  3.639663e+00    2.953380e+00
  3.655538e+00    2.891284e+00
  3.671414e+00    2.871579e+00
  3.687289e+00    2.905801e+00
  3.703165e+00    2.987120e+00
  3.719041e+00    3.018823e+00
  3.734916e+00    3.011664e+00
  3.750792e+00    2.958308e+00
  3.766667e+00    2.957284e+00
  3.782543e+00    2.945603e+00
  3.798418e+00    2.972724e+00
  3.814294e+00    2.982001e+00
  3.830170e+00    2.986964e+00
  3.846045e+00    2.965108e+00
  3.861921e+00    2.891629e+00
  3.877796e+00    2.866532e+00
  3.893672e+00    2.854503e+00
  3.909547e+00    2.919992e+00
  3.925423e+00    2.966562e+00
  3.941299e+00    2.960566e+00
  3.957174e+00    3.030858e+00
  3.973050e+00    2.993295e+00
  3.988925e+00    2.950125e+00
  4.004801e+00    2.974663e+00
  4.020676e+00    2.919159e+00
  4.036552e+00    2.899463e+00
  4.052428e+00    2.941856e+00
  4.068303e+00    2.957840e+00
  4.084179e+00    2.955245e+00
  4.100054e+00    2.923764e+00
  4.115930e+00    2.919481e+00
  4.131806e+00    2.931023e+00
  4.147681e+00    2.978483e+00
  4.163557e+00    2.974028e+00
  4.179432e+00    2.931953e+00
  4.195308e+00    2.921019e+00
  4.211183e+00    2.927087e+00
  4.227059e+00    2.938909e+00
  4.242935e+00    3.073550e+00
  4.258810e+00    3.017890e+00
  4.274686e+00    2.990403e+00
  4.290561e+00    3.021329e+00
  4.306437e+00    3.085055e+00
  4.322312e+00    3.077454e+00
  4.338188e+00    3.004248e+00
  4.354064e+00    3.055799e+00
  4.369939e+00    3.035156e+00
  4.385815e+00    3.028888e+00
  4.401690e+00    2.999269e+00
  4.417566e+00    2.985883e+00
  4.433441e+00    3.061929e+00
  4.449317e+00    3.015795e+00
  4.465193e+00    3.042456e+00
  4.481068e+00    3.077404e+00
  4.496944e+00    3.021187e+00
  4.512819e+00    2.976041e+00
  4.528695e+00    3.016185e+00
  4.544570e+00    3.035970e+00
  4.560446e+00    3.029754e+00
  4.576322e+00    3.098628e+00
  4.592197e+00    3.081028e+00
  4.608073e+00    3.092874e+00
  4.623948e+00    3.098778e+00
  4.639824e+00    3.069298e+00
  4.655699e+00    3.045144e+00
  4.671575e+00    3.031404e+00
  4.687451e+00    3.001098e+00
  4.703326e+00    3.023378e+00
  4.719202e+00    3.043013e+00
  4.735077e+00    3.059551e+00
  4.750953e+00    3.070171e+00
  4.766828e+00    3.029694e+00
  4.782704e+00    3.043742e+00
  4.798580e+00    3.005276e+00
  4.814455e+00    3.040822e+00
  4.830331e+00    3.052077e+00
  4.846206e+00    3.103183e+00
  4.862082e+00    3.123088e+00
  4.877957e+00    3.127668e+00
  4.893833e+00    3.070528e+00
  4.909709e+00    3.038565e+00
  4.925584e+00    3.057329e+00
  4.941460e+00    3.069318e+00
  4.957335e+00    3.051211e+00
  4.973211e+00    3.075396e+00
  4.989086e+00    3.027859e+00
  5.004962e+00    3.056097e+00
  5.020838e+00    3.064919e+00
  5.036713e+00    3.025684e+00
  5.052589e+00    3.095351e+00
  5.068464e+00    3.119727e+00
  5.084340e+00    3.149359e+00
  5.100216e+00    3.123390e+00
  5.116091e+00    3.102083e+00
  5.131967e+00    2.987283e+00
  5.147842e+00    2.990669e+00
  5.163718e+00    3.045922e+00
  5.179593e+00    3.061653e+00
  5.195469e+00    3.067924e+00
  5.211345e+00    3.101301e+00
  5.227220e+00    3.176231e+00
  5.243096e+00    3.110604e+00
  5.258971e+00    3.082836e+00
  5.274847e+00    3.032172e+00
  5.290722e+00    2.983483e+00
  5.306598e+00    3.055856e+00
  5.322474e+00    3.070625e+00
  5.338349e+00    3.011556e+00
  5.354225e+00    3.099775e+00
  5.370100e+00    3.108346e+00
  5.385976e+00    3.065921e+00
  5.401851e+00    3.096444e+00
  5.417727e+00    3.038965e+00
  5.433603e+00    3.052972e+00
  5.449478e+00    3.031081e+00
  5.465354e+00    2.983797e+00
  5.481229e+00    3.014848e+00
  5.497105e+00    3.015989e+00
  5.512980e+00    3.083095e+00
  5.528856e+00    3.061811e+00
  5.544732e+00    2.986832e+00
  5.560607e+00    3.049974e+00
  5.576483e+00    3.014046e+00
  5.592358e+00    2.989786e+00
  5.608234e+00    2.974489e+00
  5.624109e+00    3.054546e+00
  5.639985e+00    3.106843e+00
  5.655861e+00    3.054930e+00
  5.671736e+00    3.011124e+00
  5.687612e+00    3.086110e+00
  5.703487e+00    3.016317e+00
  5.719363e+00    3.119045e+00
  5.735238e+00    3.062370e+00
  5.751114e+00    2.982290e+00
  5.766990e+00    3.129493e+00
  5.782865e+00    3.069740e+00
  5.798741e+00    3.021632e+00
  5.814616e+00    3.008634e+00
  5.830492e+00    3.098078e+00
  5.846367e+00    3.029699e+00
  5.862243e+00    3.003198e+00
  5.878119e+00    2.908716e+00
  5.893994e+00    2.917771e+00
  5.909870e+00    2.908085e+00
  5.925745e+00    2.915205e+00
  5.941621e+00    2.948021e+00
  5.957497e+00    2.939195e+00
  5.973372e+00    2.933044e+00
  5.989248e+00    2.920113e+00
  6.005123e+00    2.930629e+00
  6.020999e+00    2.941721e+00
  6.036874e+00    2.995860e+00
  6.052750e+00    3.026941e+00
  6.068626e+00    2.988586e+00
  6.084501e+00    3.039125e+00
  6.100377e+00    3.104452e+00
  6.116252e+00    3.110321e+00
  6.132128e+00    3.074656e+00
  6.148003e+00    3.045569e+00
  6.163879e+00    3.023819e+00
  6.179755e+00    3.047846e+00
  6.195630e+00    3.028774e+00
  6.211506e+00    2.957344e+00
  6.227381e+00    3.012575e+00
  6.243257e+00    2.991007e+00
  6.259132e+00    2.963923e+00
  6.275008e+00    2.987842e+00
  6.290884e+00    3.030873e+00
  6.306759e+00    3.008222e+00
  6.322635e+00    3.019242e+00
  6.338510e+00    3.023992e+00
  6.354386e+00    2.976635e+00
  6.370261e+00    2.960496e+00
  6.386137e+00    2.981356e+00
  6.402013e+00    2.978822e+00
  6.417888e+00    3.008870e+00
  6.433764e+00    2.955365e+00
  6.449639e+00    2.958263e+00
  6.465515e+00    3.031744e+00
  6.481390e+00    3.058208e+00
  6.497266e+00    3.070318e+00
  6.513142e+00    3.028386e+00
  6.529017e+00    2.979664e+00
  6.544893e+00    2.975008e+00
  6.560768e+00    3.054925e+00
  6.576644e+00    3.009111e+00
  6.592519e+00    2.910536e+00
  6.608395e+00    2.914734e+00
  6.624271e+00    3.003517e+00
  6.640146e+00    2.954839e+00
  6.656022e+00    2.986517e+00
  6.671897e+00    2.971521e+00
  6.687773e+00    3.014784e+00
  6.703648e+00    3.077630e+00
  6.719524e+00    2.994139e+00
  6.735400e+00    2.977750e+00
  6.751275e+00    2.998724e+00
  6.767151e+00    2.999775e+00
  6.783026e+00    2.929058e+00
  6.798902e+00    3.001554e+00
  6.814777e+00    2.959274e+00
  6.830653e+00    2.984865e+00
  6.846529e+00    3.030572e+00
  6.862404e+00    2.981965e+00
  6.878280e+00    3.056458e+00
  6.894155e+00    2.979328e+00
  6.910031e+00    2.927976e+00
  6.925907e+00    2.979443e+00
  6.941782e+00    2.978730e+00
  6.957658e+00    2.981154e+00
  6.973533e+00    2.966372e+00
  6.989409e+00    2.954782e+00
  7.005284e+00    2.966380e+00
  7.021160e+00    3.013393e+00
  7.037036e+00    2.987183e+00
  7.052911e+00    2.890094e+00
  7.068787e+00    2.932680e+00
  7.084662e+00    3.002835e+00
  7.100538e+00    2.946249e+00
  7.116413e+00    2.883173e+00
  7.132289e+00    2.962596e+00
  7.148165e+00    2.942117e+00
  7.164040e+00    2.935862e+00
  7.179916e+00    2.945985e+00
  7.195791e+00    3.070353e+00
  7.211667e+00    3.053351e+00
  7.227542e+00    2.934034e+00
  7.243418e+00    2.972363e+00
  7.259294e+00    2.958355e+00
  7.275169e+00    2.980575e+00
  7.291045e+00    2.950490e+00
  7.306920e+00    2.939015e+00
  7.322796e+00    2.929740e+00
  7.338671e+00    2.917443e+00
  7.354547e+00    2.894809e+00
  7.370423e+00    2.928013e+00
  7.386298e+00    2.923002e+00
  7.402174e+00    2.964027e+00
  7.418049e+00    2.960982e+00
  7.433925e+00    2.888453e+00
  7.449800e+00    2.861513e+00
  7.465676e+00    2.885997e+00
  7.481552e+00    2.840644e+00
  7.497427e+00    2.940206e+00
  7.513303e+00    2.910142e+00
  7.529178e+00    2.902789e+00
  7.545054e+00    2.911959e+00
  7.560929e+00    2.866870e+00
  7.576805e+00    2.871135e+00
  7.592681e+00    2.902652e+00
  7.608556e+00    2.920371e+00
  7.624432e+00    2.917456e+00
  7.640307e+00    2.911677e+00
  7.656183e+00    2.890558e+00
  7.672058e+00    2.871133e+00
  7.687934e+00    2.887045e+00
  7.703810e+00    2.889208e+00
  7.719685e+00    2.902659e+00
  7.735561e+00    2.918132e+00
  7.751436e+00    2.901819e+00
  7.767312e+00    2.885035e+00
  7.783187e+00    2.879101e+00
  7.799063e+00    2.879310e+00
  7.814939e+00    2.871964e+00
  7.830814e+00    2.872566e+00
  7.846690e+00    2.907224e+00
  7.862565e+00    2.892177e+00
  7.878441e+00    2.929819e+00
  7.894317e+00    2.945031e+00
  7.910192e+00    2.944111e+00
  7.926068e+00    2.915270e+00
  7.941943e+00    2.948965e+00
  7.957819e+00    2.924273e+00
  7.973694e+00    2.866543e+00
  7.989570e+00    2.869452e+00
  8.005446e+00    2.850141e+00
  8.021321e+00    2.902909e+00
  8.037197e+00    2.890785e+00
  8.053072e+00    2.885421e+00
  8.068948e+00    2.910996e+00
  8.084823e+00    2.865098e+00
  8.100699e+00    2.867887e+00
  8.116575e+00    2.956201e+00
  8.132450e+00    2.925081e+00
  8.148326e+00    2.929535e+00
  8.164201e+00    2.908402e+00
  8.180077e+00    2.879312e+00
  8.195952e+00    2.881005e+00
  8.211828e+00    2.932315e+00
  8.227704e+00    2.922526e+00
  8.243579e+00    2.903769e+00
  8.259455e+00    2.866032e+00
  8.275330e+00    2.895934e+00
  8.291206e+00    2.895396e+00
  8.307081e+00    2.835536e+00
  8.322957e+00    2.848451e+00
  8.338833e+00    2.840770e+00
  8.354708e+00    2.847854e+00
  8.370584e+00    2.861080e+00
  8.386459e+00    2.857468e+00
  8.402335e+00    2.855649e+00
  8.418210e+00    2.823805e+00
  8.434086e+00    2.884628e+00
  8.449962e+00    2.889394e+00
  8.465837e+00    2.845157e+00
  8.481713e+00    2.810744e+00
  8.497588e+00    2.812186e+00
  8.513464e+00    2.856527e+00
  8.529339e+00    2.833013e+00
  8.545215e+00    2.816000e+00
  8.561091e+00    2.769044e+00
  8.576966e+00    2.805155e+00
  8.592842e+00    2.865904e+00
  8.608717e+00    2.861620e+00
  8.624593e+00    2.835362e+00
  8.640468e+00    2.831216e+00
  8.656344e+00    2.838253e+00
  8.672220e+00    2.757402e+00
  8.688095e+00    2.774651e+00
  8.703971e+00    2.826644e+00
  8.719846e+00    2.815557e+00
  8.735722e+00    2.817233e+00
  8.751598e+00    2.830663e+00
  8.767473e+00    2.813178e+00
  8.783349e+00    2.776618e+00
  8.799224e+00    2.803134e+00
  8.815100e+00    2.794937e+00
  8.830975e+00    2.771505e+00
  8.846851e+00    2.799233e+00
  8.862727e+00    2.844687e+00
  8.878602e+00    2.803781e+00
  8.894478e+00    2.789929e+00
  8.910353e+00    2.763403e+00
  8.926229e+00    2.721552e+00
  8.942104e+00    2.762539e+00
  8.957980e+00    2.801466e+00
  8.973856e+00    2.807857e+00
  8.989731e+00    2.759314e+00
  9.005607e+00    2.702975e+00
  9.021482e+00    2.755990e+00
  9.037358e+00    2.790622e+00
  9.053233e+00    2.742944e+00
  9.069109e+00    2.744257e+00
  9.084985e+00    2.757280e+00
  9.100860e+00    2.796117e+00
  9.116736e+00    2.790115e+00
  9.132611e+00    2.771566e+00
  9.148487e+00    2.760190e+00
  9.164362e+00    2.748969e+00
  9.180238e+00    2.721144e+00
  9.196114e+00    2.703101e+00
  9.211989e+00    2.710046e+00
  9.227865e+00    2.699637e+00
  9.243740e+00    2.725147e+00
  9.259616e+00    2.672986e+00
  9.275491e+00    2.654553e+00
  9.291367e+00    2.716395e+00
  9.307243e+00    2.732468e+00
  9.323118e+00    2.714760e+00
  9.338994e+00    2.754106e+00
  9.354869e+00    2.720029e+00
  9.370745e+00    2.758419e+00
  9.386620e+00    2.724670e+00
  9.402496e+00    2.704856e+00
  9.418372e+00    2.693163e+00
  9.434247e+00    2.653421e+00
  9.450123e+00    2.707350e+00
  9.465998e+00    2.754532e+00
  9.481874e+00    2.779692e+00
  9.497749e+00    2.685823e+00
  9.513625e+00    2.690406e+00
  9.529501e+00    2.718082e+00
  9.545376e+00    2.678761e+00
  9.561252e+00    2.650601e+00
  9.577127e+00    2.677527e+00
  9.593003e+00    2.738214e+00
  9.608878e+00    2.771487e+00
  9.624754e+00    2.748816e+00
  9.640630e+00    2.717842e+00
  9.656505e+00    2.693639e+00
  9.672381e+00    2.709174e+00
  9.688256e+00    2.645993e+00
  9.704132e+00    2.653318e+00
  9.720008e+00    2.682869e+00
  9.735883e+00    2.641618e+00
  9.751759e+00    2.685241e+00
  9.767634e+00    2.707776e+00
  9.783510e+00    2.677744e+00
  9.799385e+00    2.673071e+00
  9.815261e+00    2.686535e+00
  9.831137e+00    2.689413e+00
  9.847012e+00    2.666787e+00
  9.862888e+00    2.666279e+00
  9.878763e+00    2.634709e+00
  9.894639e+00    2.658742e+00
  9.910514e+00    2.631516e+00
  9.926390e+00    2.633163e+00
  9.942266e+00    2.694861e+00
  9.958141e+00    2.639073e+00
  9.974017e+00    2.655800e+00
  9.989892e+00    2.639705e+00
  1.000577e+01    2.637726e+00
  1.002164e+01    2.633559e+00
  1.003752e+01    2.545778e+00
  1.005339e+01    2.571826e+00
  1.006927e+01    2.630104e+00
  1.008515e+01    2.657542e+00
  1.010102e+01    2.616889e+00
  1.011690e+01    2.644600e+00
  1.013277e+01    2.642303e+00
  1.014865e+01    2.651834e+00
  1.016452e+01    2.579287e+00
  1.018040e+01    2.612179e+00
  1.019627e+01    2.673132e+00
  1.021215e+01    2.636809e+00
  1.022803e+01    2.612586e+00
  1.024390e+01    2.555606e+00
  1.025978e+01    2.586596e+00
  1.027565e+01    2.605523e+00
  1.029153e+01    2.594766e+00
  1.030740e+01    2.613975e+00
  1.032328e+01    2.601207e+00
  1.033915e+01    2.598319e+00
  1.035503e+01    2.586653e+00
  1.037091e+01    2.556363e+00
  1.038678e+01    2.611928e+00
  1.040266e+01    2.611349e+00
  1.041853e+01    2.542905e+00
  1.043441e+01    2.533711e+00
  1.045028e+01    2.566581e+00
  1.046616e+01    2.539640e+00
  1.048204e+01    2.540709e+00
  1.049791e+01    2.504503e+00
  1.051379e+01    2.548338e+00
  1.052966e+01    2.540718e+00
  1.054554e+01    2.570365e+00
  1.056141e+01    2.573147e+00
  1.057729e+01    2.524958e+00
  1.059316e+01    2.496240e+00
  1.060904e+01    2.521550e+00
  1.062492e+01    2.551181e+00
  1.064079e+01    2.518004e+00
  1.065667e+01    2.464917e+00
  1.067254e+01    2.497576e+00
  1.068842e+01    2.523638e+00
  1.070429e+01    2.523207e+00
  1.072017e+01    2.509706e+00
  1.073604e+01    2.455853e+00
  1.075192e+01    2.475568e+00
  1.076780e+01    2.527076e+00
  1.078367e+01    2.497403e+00
  1.079955e+01    2.457782e+00
  1.081542e+01    2.494609e+00
  1.083130e+01    2.481809e+00
  1.084717e+01    2.493890e+00
  1.086305e+01    2.489449e+00
  1.087892e+01    2.460664e+00
  1.089480e+01    2.461032e+00
  1.091068e+01    2.415517e+00
  1.092655e+01    2.453689e+00
  1.094243e+01    2.479933e+00
  1.095830e+01    2.516277e+00
  1.097418e+01    2.476612e+00
  1.099005e+01    2.424980e+00
  1.100593e+01    2.415371e+00
  1.102180e+01    2.444663e+00
  1.103768e+01    2.432902e+00
  1.105356e+01    2.430363e+00
  1.106943e+01    2.381012e+00
  1.108531e+01    2.468332e+00
  1.110118e+01    2.437465e+00
  1.111706e+01    2.466861e+00
  1.113293e+01    2.477189e+00
  1.114881e+01    2.417082e+00
  1.116468e+01    2.388785e+00
  1.118056e+01    2.389154e+00
  1.119644e+01    2.372038e+00
  1.121231e+01    2.366523e+00
  1.122819e+01    2.428641e+00
  1.124406e+01    2.406338e+00
  1.125994e+01    2.373306e+00
  1.127581e+01    2.441918e+00
  1.129169e+01    2.459200e+00
  1.130756e+01    2.447025e+00
  1.132344e+01    2.475110e+00
  1.133932e+01    2.401371e+00
  1.135519e+01    2.406103e+00
  1.137107e+01    2.334210e+00
  1.138694e+01    2.363468e+00
  1.140282e+01    2.413373e+00
  1.141869e+01    2.422228e+00
  1.143457e+01    2.443176e+00
  1.145045e+01    2.401798e+00
  1.146632e+01    2.333229e+00
  1.148220e+01    2.390136e+00
  1.149807e+01    2.426717e+00
  1.151395e+01    2.395598e+00
  1.152982e+01    2.371911e+00
  1.154570e+01    2.337230e+00
  1.156157e+01    2.289092e+00
  1.157745e+01    2.345330e+00
  1.159333e+01    2.376248e+00
  1.160920e+01    2.380436e+00
  1.162508e+01    2.339207e+00
  1.164095e+01    2.374702e+00
  1.165683e+01    2.351783e+00
  1.167270e+01    2.353845e+00
  1.168858e+01    2.328382e+00
  1.170445e+01    2.312968e+00
  1.172033e+01    2.331909e+00
  1.173621e+01    2.298107e+00
  1.175208e+01    2.337182e+00
  1.176796e+01    2.357772e+00
  1.178383e+01    2.348153e+00
  1.179971e+01    2.322125e+00
  1.181558e+01    2.331599e+00
  1.183146e+01    2.341739e+00
  1.184733e+01    2.341143e+00
  1.186321e+01    2.300116e+00
  1.187909e+01    2.304378e+00
  1.189496e+01    2.330282e+00
  1.191084e+01    2.298713e+00
  1.192671e+01    2.333724e+00
  1.194259e+01    2.331212e+00
  1.195846e+01    2.303788e+00
  1.197434e+01    2.309773e+00
  1.199021e+01    2.306948e+00
  1.200609e+01    2.314621e+00
  1.202197e+01    2.327365e+00
  1.203784e+01    2.328254e+00
  1.205372e+01    2.318082e+00
  1.206959e+01    2.301327e+00
  1.208547e+01    2.273330e+00
  1.210134e+01    2.268423e+00
  1.211722e+01    2.270413e+00
  1.213309e+01    2.269256e+00
  1.214897e+01    2.262884e+00
  1.216485e+01    2.296113e+00
  1.218072e+01    2.278408e+00
  1.219660e+01    2.299122e+00
  1.221247e+01    2.283259e+00
  1.222835e+01    2.271337e+00
  1.224422e+01    2.284687e+00
  1.226010e+01    2.286979e+00
  1.227597e+01    2.256530e+00
  1.229185e+01    2.295079e+00
  1.230773e+01    2.316267e+00
  1.232360e+01    2.315499e+00
  1.233948e+01    2.291517e+00
  1.235535e+01    2.307177e+00
  1.237123e+01    2.280435e+00
  1.238710e+01    2.278759e+00
  1.240298e+01    2.301004e+00
  1.241886e+01    2.292144e+00
  1.243473e+01    2.261551e+00
  1.245061e+01    2.301444e+00
  1.246648e+01    2.325471e+00
  1.248236e+01    2.277411e+00
  1.249823e+01    2.300507e+00
  1.251411e+01    2.337862e+00
  1.252998e+01    2.345384e+00
  1.254586e+01    2.333739e+00
  1.256174e+01    2.365350e+00
  1.257761e+01    2.362364e+00
  1.259349e+01    2.352743e+00
  1.260936e+01    2.328082e+00
  1.262524e+01    2.373862e+00
  1.264111e+01    2.369576e+00
  1.265699e+01    2.360069e+00
  1.267286e+01    2.411628e+00
  1.268874e+01    2.404070e+00
  1.270462e+01    2.460982e+00
  1.272049e+01    2.468419e+00
  1.273637e+01    2.508686e+00
  1.275224e+01    2.559236e+00
  1.276812e+01    2.585454e+00
  1.278399e+01    2.563803e+00
  1.279987e+01    2.590427e+00
  1.281574e+01    2.639722e+00
  1.283162e+01    2.725867e+00
  1.284750e+01    2.780984e+00
  1.286337e+01    2.911231e+00
  1.287925e+01    3.018127e+00
  1.289512e+01    3.097131e+00
  1.291100e+01    3.211728e+00
  1.292687e+01    3.368955e+00
  1.294275e+01    3.651153e+00
  1.295862e+01    3.915831e+00
  1.297450e+01    4.249062e+00
  1.299038e+01    4.630980e+00
  1.300625e+01    5.213681e+00
  1.302213e+01    5.924738e+00
  1.303800e+01    6.897470e+00
  1.305388e+01    7.984517e+00
  1.306975e+01    9.236022e+00
  1.308563e+01    1.061653e+01
  1.310150e+01    1.197213e+01
  1.311738e+01    1.349230e+01
  1.313326e+01    1.477614e+01
  1.314913e+01    1.602140e+01
  1.316501e+01    1.711490e+01
  1.318088e+01    1.786438e+01
  1.319676e+01    1.777009e+01
  1.321263e+01    1.700068e+01
  1.322851e+01    1.546464e+01
  1.324438e+01    1.333060e+01
  1.326026e+01    1.120352e+01
  1.327614e+01    9.329779e+00
  1.329201e+01    7.940073e+00
  1.330789e+01    6.796963e+00
  1.332376e+01    5.954742e+00
  1.333964e+01    5.288157e+00
  1.335551e+01    4.665128e+00
  1.337139e+01    4.268033e+00
  1.338727e+01    3.908188e+00
  1.340314e+01    3.638982e+00
  1.341902e+01    3.437100e+00
  1.343489e+01    3.205528e+00
  1.345077e+01    3.054932e+00
  1.346664e+01    2.957283e+00
  1.348252e+01    2.845706e+00
  1.349839e+01    2.741475e+00
  1.351427e+01    2.656733e+00
  1.353015e+01    2.587014e+00
  1.354602e+01    2.555008e+00
  1.356190e+01    2.518047e+00
  1.357777e+01    2.455423e+00
  1.359365e+01    2.421034e+00
  1.360952e+01    2.333019e+00
  1.362540e+01    2.312226e+00
  1.364127e+01    2.298252e+00
  1.365715e+01    2.269586e+00
  1.367303e+01    2.310859e+00
  1.368890e+01    2.304713e+00
  1.370478e+01    2.260853e+00
  1.372065e+01    2.236802e+00
  1.373653e+01    2.208854e+00
  1.375240e+01    2.209389e+00
  1.376828e+01    2.173513e+00
  1.378415e+01    2.101042e+00
  1.380003e+01    2.124989e+00
  1.381591e+01    2.140794e+00
  1.383178e+01    2.096392e+00
  1.384766e+01    2.078963e+00
  1.386353e+01    2.095701e+00
  1.387941e+01    2.093786e+00
  1.389528e+01    2.089575e+00
  1.391116e+01    2.074184e+00
  1.392703e+01    2.052107e+00
  1.394291e+01    2.027417e+00
  1.395879e+01    2.036507e+00
  1.397466e+01    2.028220e+00
  1.399054e+01    1.998958e+00
  1.400641e+01    2.005617e+00
  1.402229e+01    2.042304e+00
  1.403816e+01    2.029528e+00
  1.405404e+01    2.008786e+00
  1.406991e+01    2.006586e+00
  1.408579e+01    1.989147e+00
  1.410167e+01    1.976074e+00
  1.411754e+01    1.957911e+00
  1.413342e+01    1.960217e+00
  1.414929e+01    1.943900e+00
  1.416517e+01    1.973930e+00
  1.418104e+01    1.967750e+00
  1.419692e+01    1.971069e+00
  1.421279e+01    1.980809e+00
  1.422867e+01    1.955048e+00
  1.424455e+01    1.925418e+00
  1.426042e+01    1.939592e+00
  1.427630e+01    1.928468e+00
  1.429217e+01    1.953375e+00
  1.430805e+01    1.941560e+00
  1.432392e+01    1.908840e+00
  1.433980e+01    1.942293e+00
  1.435568e+01    1.979148e+00
  1.437155e+01    1.942653e+00
  1.438743e+01    1.923674e+00
  1.440330e+01    1.909019e+00
  1.441918e+01    1.950409e+00
  1.443505e+01    1.926754e+00
  1.445093e+01    1.887860e+00
  1.446680e+01    1.910173e+00
  1.448268e+01    1.908148e+00
  1.449856e+01    1.893346e+00
  1.451443e+01    1.916324e+00
  1.453031e+01    1.890004e+00
  1.454618e+01    1.908124e+00
  1.456206e+01    1.865885e+00
  1.457793e+01    1.888991e+00
  1.459381e+01    1.920142e+00
  1.460968e+01    1.905903e+00
  1.462556e+01    1.887957e+00
  1.464144e+01    1.904018e+00
  1.465731e+01    1.901575e+00
  1.467319e+01    1.873200e+00
  1.468906e+01    1.883068e+00
  1.470494e+01    1.894060e+00
  1.472081e+01    1.861924e+00
  1.473669e+01    1.866487e+00
  1.475256e+01    1.862884e+00
  1.476844e+01    1.888445e+00
  1.478432e+01    1.859090e+00
  1.480019e+01    1.865773e+00
  1.481607e+01    1.905546e+00
  1.483194e+01    1.933433e+00
  1.484782e+01    1.939123e+00
  1.486369e+01    1.893496e+00
  1.487957e+01    1.918432e+00
  1.489544e+01    1.936919e+00
  1.491132e+01    1.976219e+00
  1.492720e+01    1.921426e+00
  1.494307e+01    1.962560e+00
  1.495895e+01    2.023725e+00
  1.497482e+01    2.027825e+00
  1.499070e+01    2.033325e+00
  1.500657e+01    2.092100e+00
  1.502245e+01    2.203965e+00
  1.503832e+01    2.265951e+00
  1.505420e+01    2.369065e+00
  1.507008e+01    2.469527e+00
  1.508595e+01    2.600354e+00
  1.510183e+01    2.809815e+00
  1.511770e+01    3.107806e+00
  1.513358e+01    3.361810e+00
  1.514945e+01    3.668703e+00
  1.516533e+01    4.072485e+00
  1.518120e+01    4.441902e+00
  1.519708e+01    4.745562e+00
  1.521296e+01    5.164391e+00
  1.522883e+01    5.468289e+00
  1.524471e+01    5.714820e+00
  1.526058e+01    5.968545e+00
  1.527646e+01    6.059826e+00
  1.529233e+01    6.062678e+00
  1.530821e+01    5.768358e+00
  1.532409e+01    5.264711e+00
  1.533996e+01    4.702131e+00
  1.535584e+01    4.193604e+00
  1.537171e+01    3.726630e+00
  1.538759e+01    3.317056e+00
  1.540346e+01    2.984903e+00
  1.541934e+01    2.716872e+00
  1.543521e+01    2.559785e+00
  1.545109e+01    2.433725e+00
  1.546697e+01    2.279450e+00
  1.548284e+01    2.164878e+00
  1.549872e+01    2.106014e+00
  1.551459e+01    2.058209e+00
  1.553047e+01    1.970509e+00
  1.554634e+01    1.916000e+00
  1.556222e+01    1.920325e+00
  1.557809e+01    1.859389e+00
  1.559397e+01    1.851065e+00
  1.560985e+01    1.810499e+00
  1.562572e+01    1.777909e+00
  1.564160e+01    1.734557e+00
  1.565747e+01    1.781538e+00
  1.567335e+01    1.751265e+00
  1.568922e+01    1.724282e+00
  1.570510e+01    1.694917e+00
  1.572097e+01    1.726722e+00
  1.573685e+01    1.717152e+00
  1.575273e+01    1.712577e+00
  1.576860e+01    1.703966e+00
  1.578448e+01    1.720683e+00
  1.580035e+01    1.688903e+00
  1.581623e+01    1.636283e+00
  1.583210e+01    1.605098e+00
  1.584798e+01    1.619396e+00
  1.586385e+01    1.635313e+00
  1.587973e+01    1.654598e+00
  1.589561e+01    1.660400e+00
  1.591148e+01    1.635523e+00
  1.592736e+01    1.624511e+00
  1.594323e+01    1.647643e+00
  1.595911e+01    1.605694e+00
  1.597498e+01    1.611013e+00
  1.599086e+01    1.606765e+00
  1.600673e+01    1.596855e+00
  1.602261e+01    1.571668e+00
  1.603849e+01    1.566820e+00
  1.605436e+01    1.582965e+00
  1.607024e+01    1.601935e+00
  1.608611e+01    1.594270e+00
  1.610199e+01    1.606604e+00
  1.611786e+01    1.555795e+00
  1.613374e+01    1.547925e+00
  1.614961e+01    1.545498e+00
  1.616549e+01    1.541132e+00
  1.618137e+01    1.500223e+00
  1.619724e+01    1.534343e+00
  1.621312e+01    1.563533e+00
  1.622899e+01    1.538522e+00
  1.624487e+01    1.541114e+00
  1.626074e+01    1.509392e+00
  1.627662e+01    1.551353e+00
  1.629250e+01    1.543488e+00
  1.630837e+01    1.533679e+00
  1.632425e+01    1.531727e+00
  1.634012e+01    1.531780e+00
  1.635600e+01    1.522645e+00
  1.637187e+01    1.492178e+00
  1.638775e+01    1.511540e+00
  1.640362e+01    1.525128e+00
  1.641950e+01    1.522456e+00
  1.643538e+01    1.541889e+00
  1.645125e+01    1.503220e+00
  1.646713e+01    1.491359e+00
  1.648300e+01    1.507205e+00
  1.649888e+01    1.516214e+00
  1.651475e+01    1.519239e+00
  1.653063e+01    1.486498e+00
  1.654650e+01    1.455872e+00
  1.656238e+01    1.498774e+00
  1.657826e+01    1.521124e+00
  1.659413e+01    1.495497e+00
  1.661001e+01    1.521024e+00
  1.662588e+01    1.484327e+00
  1.664176e+01    1.496643e+00
  1.665763e+01    1.467866e+00
  1.667351e+01    1.469250e+00
  1.668938e+01    1.458701e+00
  1.670526e+01    1.439842e+00
  1.672114e+01    1.453648e+00
  1.673701e+01    1.450397e+00
  1.675289e+01    1.485643e+00
  1.676876e+01    1.464656e+00
  1.678464e+01    1.464085e+00
  1.680051e+01    1.451923e+00
  1.681639e+01    1.458638e+00
  1.683226e+01    1.429912e+00
  1.684814e+01    1.436132e+00
  1.686402e+01    1.436903e+00
  1.687989e+01    1.449200e+00
  1.689577e+01    1.453415e+00
  1.691164e+01    1.440810e+00
  1.692752e+01    1.416346e+00
  1.694339e+01    1.417182e+00
  1.695927e+01    1.401237e+00
  1.697514e+01    1.413389e+00
  1.699102e+01    1.440620e+00
  1.700690e+01    1.422412e+00
  1.702277e+01    1.421985e+00
  1.703865e+01    1.433013e+00
  1.705452e+01    1.412280e+00
  1.707040e+01    1.417009e+00
  1.708627e+01    1.436902e+00
  1.710215e+01    1.420395e+00
  1.711802e+01    1.412393e+00
  1.713390e+01    1.402502e+00
  1.714978e+01    1.401429e+00
  1.716565e+01    1.379366e+00
  1.718153e+01    1.377680e+00
  1.719740e+01    1.362671e+00
  1.721328e+01    1.359727e+00
  1.722915e+01    1.362737e+00
  1.724503e+01    1.408485e+00
  1.726091e+01    1.389699e+00
  1.727678e+01    1.354972e+00
  1.729266e+01    1.373857e+00
  1.730853e+01    1.351413e+00
  1.732441e+01    1.360051e+00
  1.734028e+01    1.374342e+00
  1.735616e+01    1.393824e+00
  1.737203e+01    1.344526e+00
  1.738791e+01    1.328760e+00
  1.740379e+01    1.364799e+00
  1.741966e+01    1.375596e+00
  1.743554e+01    1.354959e+00
  1.745141e+01    1.352326e+00
  1.746729e+01    1.333527e+00
  1.748316e+01    1.353824e+00
  1.749904e+01    1.352265e+00
  1.751491e+01    1.311190e+00
  1.753079e+01    1.338813e+00
  1.754667e+01    1.360340e+00
  1.756254e+01    1.340943e+00
  1.757842e+01    1.339975e+00
  1.759429e+01    1.347379e+00
  1.761017e+01    1.356642e+00
  1.762604e+01    1.331189e+00
  1.764192e+01    1.308666e+00
  1.765779e+01    1.328680e+00
  1.767367e+01    1.334598e+00
  1.768955e+01    1.322115e+00
  1.770542e+01    1.348777e+00
  1.772130e+01    1.348049e+00
  1.773717e+01    1.326890e+00
  1.775305e+01    1.330407e+00
  1.776892e+01    1.312463e+00
  1.778480e+01    1.305111e+00
  1.780067e+01    1.310434e+00
  1.781655e+01    1.333771e+00
  1.783243e+01    1.316293e+00
  1.784830e+01    1.322085e+00
  1.786418e+01    1.309894e+00
  1.788005e+01    1.295592e+00
  1.789593e+01    1.296181e+00
  1.791180e+01    1.312979e+00
  1.792768e+01    1.290964e+00
  1.794355e+01    1.291764e+00
  1.795943e+01    1.290539e+00
  1.797531e+01    1.296432e+00
  1.799118e+01    1.276764e+00
  1.800706e+01    1.268955e+00
  1.802293e+01    1.277829e+00
  1.803881e+01    1.318743e+00
  1.805468e+01    1.296514e+00
  1.807056e+01    1.267643e+00
  1.808643e+01    1.274896e+00
  1.810231e+01    1.257133e+00
  1.811819e+01    1.230736e+00
  1.813406e+01    1.241243e+00
  1.814994e+01    1.250804e+00
  1.816581e+01    1.266189e+00
  1.818169e+01    1.260126e+00
  1.819756e+01    1.248745e+00
  1.821344e+01    1.273390e+00
  1.822932e+01    1.302938e+00
  1.824519e+01    1.264507e+00
  1.826107e+01    1.248583e+00
  1.827694e+01    1.251994e+00
  1.829282e+01    1.242793e+00
  1.830869e+01    1.245422e+00
  1.832457e+01    1.237609e+00
  1.834044e+01    1.226281e+00
  1.835632e+01    1.239234e+00
  1.837220e+01    1.250286e+00
  1.838807e+01    1.268098e+00
  1.840395e+01    1.234664e+00
  1.841982e+01    1.213506e+00
  1.843570e+01    1.214761e+00
  1.845157e+01    1.247252e+00
  1.846745e+01    1.240577e+00
  1.848332e+01    1.248538e+00
  1.849920e+01    1.245125e+00
  1.851508e+01    1.248604e+00
  1.853095e+01    1.242067e+00
  1.854683e+01    1.241003e+00
  1.856270e+01    1.229579e+00
  1.857858e+01    1.212747e+00
  1.859445e+01    1.207843e+00
  1.861033e+01    1.191055e+00
  1.862620e+01    1.199445e+00
  1.864208e+01    1.198987e+00
  1.865796e+01    1.211606e+00
  1.867383e+01    1.203779e+00
  1.868971e+01    1.194381e+00
  1.870558e+01    1.211799e+00
  1.872146e+01    1.233751e+00
  1.873733e+01    1.216667e+00
  1.875321e+01    1.201110e+00
  1.876908e+01    1.200392e+00
  1.878496e+01    1.193081e+00
  1.880084e+01    1.189776e+00
  1.881671e+01    1.198087e+00
  1.883259e+01    1.215080e+00
  1.884846e+01    1.212886e+00
  1.886434e+01    1.204531e+00
  1.888021e+01    1.208182e+00
  1.889609e+01    1.192129e+00
  1.891196e+01    1.167050e+00
  1.892784e+01    1.178240e+00
  1.894372e+01    1.176029e+00
  1.895959e+01    1.197013e+00
  1.897547e+01    1.193992e+00
  1.899134e+01    1.203323e+00
  1.900722e+01    1.211882e+00
  1.902309e+01    1.209028e+00
  1.903897e+01    1.191281e+00
  1.905484e+01    1.177789e+00
  1.907072e+01    1.174825e+00
  1.908660e+01    1.162983e+00
  1.910247e+01    1.170272e+00
  1.911835e+01    1.174849e+00
  1.913422e+01    1.199404e+00
  1.915010e+01    1.179960e+00
  1.916597e+01    1.175980e+00
  1.918185e+01    1.163774e+00
  1.919773e+01    1.139603e+00
  1.921360e+01    1.152111e+00
  1.922948e+01    1.162560e+00
  1.924535e+01    1.153052e+00
  1.926123e+01    1.162492e+00
  1.927710e+01    1.176151e+00
  1.929298e+01    1.154128e+00
  1.930885e+01    1.158281e+00
  1.932473e+01    1.151866e+00
  1.934061e+01    1.141320e+00
  1.935648e+01    1.171535e+00
  1.937236e+01    1.172907e+00
  1.938823e+01    1.190061e+00
  1.940411e+01    1.168236e+00
  1.941998e+01    1.134274e+00
  1.943586e+01    1.129748e+00
  1.945173e+01    1.130332e+00
  1.946761e+01    1.151875e+00
  1.948349e+01    1.137414e+00
  1.949936e+01    1.130998e+00
  1.951524e+01    1.152658e+00
  1.953111e+01    1.151763e+00
  1.954699e+01    1.160845e+00
  1.956286e+01    1.152240e+00
  1.957874e+01    1.147812e+00
  1.959461e+01    1.117653e+00
  1.961049e+01    1.125828e+00
  1.962637e+01    1.126976e+00
  1.964224e+01    1.144429e+00
  1.965812e+01    1.155161e+00
  1.967399e+01    1.149332e+00
  1.968987e+01    1.126786e+00
  1.970574e+01    1.134190e+00
  1.972162e+01    1.141084e+00
  1.973749e+01    1.127509e+00
  1.975337e+01    1.117314e+00
  1.976925e+01    1.136988e+00
  1.978512e+01    1.131498e+00
  1.980100e+01    1.135633e+00
  1.981687e+01    1.136590e+00
  1.983275e+01    1.149795e+00
  1.984862e+01    1.119825e+00
  1.986450e+01    1.100925e+00
  1.988037e+01    1.117873e+00
  1.989625e+01    1.104014e+00
  1.991213e+01    1.093778e+00
  1.992800e+01    1.097852e+00
  1.994388e+01    1.124882e+00
  1.995975e+01    1.105747e+00
  1.997563e+01    1.098141e+00
  1.999150e+01    1.098630e+00
  2.000738e+01    1.104787e+00
  2.002325e+01    1.096958e+00
  2.003913e+01    1.115538e+00
  2.005501e+01    1.106198e+00
  2.007088e+01    1.093824e+00
  2.008676e+01    1.107049e+00
  2.010263e+01    1.091957e+00
  2.011851e+01    1.075229e+00
  2.013438e+01    1.086219e+00
  2.015026e+01    1.078580e+00
  2.016614e+01    1.071827e+00
  2.018201e+01    1.090599e+00
  2.019789e+01    1.103904e+00
  2.021376e+01    1.098247e+00
  2.022964e+01    1.105153e+00
  2.024551e+01    1.089836e+00
  2.026139e+01    1.095230e+00
  2.027726e+01    1.075882e+00
  2.029314e+01    1.053677e+00
  2.030902e+01    1.075343e+00
  2.032489e+01    1.091745e+00
  2.034077e+01    1.095469e+00
  2.035664e+01    1.093847e+00
  2.037252e+01    1.075616e+00
  2.038839e+01    1.071062e+00
  2.040427e+01    1.084234e+00
  2.042014e+01    1.087969e+00
  2.043602e+01    1.085053e+00
  2.045190e+01    1.078466e+00
  2.046777e+01    1.068407e+00
  2.048365e+01    1.073618e+00
  2.049952e+01    1.075780e+00
  2.051540e+01    1.080096e+00
  2.053127e+01    1.076391e+00
  2.054715e+01    1.062696e+00
  2.056302e+01    1.071624e+00
  2.057890e+01    1.067413e+00
  2.059478e+01    1.068276e+00
  2.061065e+01    1.057227e+00
  2.062653e+01    1.062560e+00
  2.064240e+01    1.067572e+00
  2.065828e+01    1.055968e+00
  2.067415e+01    1.063527e+00
  2.069003e+01    1.062216e+00
  2.070590e+01    1.071704e+00
  2.072178e+01    1.083220e+00
  2.073766e+01    1.076465e+00
  2.075353e+01    1.080850e+00
  2.076941e+01    1.062940e+00
  2.078528e+01    1.070160e+00
  2.080116e+01    1.081697e+00
  2.081703e+01    1.058990e+00
  2.083291e+01    1.069096e+00
  2.084878e+01    1.054482e+00
  2.086466e+01    1.076438e+00
  2.088054e+01    1.077087e+00
  2.089641e+01    1.068267e+00
  2.091229e+01    1.081154e+00
  2.092816e+01    1.086176e+00
  2.094404e+01    1.076190e+00
  2.095991e+01    1.062623e+00
  2.097579e+01    1.079412e+00
  2.099166e+01    1.084154e+00
  2.100754e+01    1.069818e+00
  2.102342e+01    1.078147e+00
  2.103929e+01    1.081972e+00
  2.105517e+01    1.106129e+00
  2.107104e+01    1.096493e+00
  2.108692e+01    1.072839e+00
  2.110279e+01    1.055940e+00
  2.111867e+01    1.059805e+00
  2.113455e+01    1.078346e+00
  2.115042e+01    1.051386e+00
  2.116630e+01    1.053537e+00
  2.118217e+01    1.069323e+00
  2.119805e+01    1.094426e+00
  2.121392e+01    1.082265e+00
  2.122980e+01    1.077038e+00
  2.124567e+01    1.088228e+00
  2.126155e+01    1.098963e+00
  2.127743e+01    1.092139e+00
  2.129330e+01    1.121838e+00
  2.130918e+01    1.125706e+00
  2.132505e+01    1.125948e+00
  2.134093e+01    1.122299e+00
  2.135680e+01    1.127942e+00
  2.137268e+01    1.130972e+00
  2.138855e+01    1.131175e+00
  2.140443e+01    1.170694e+00
  2.142031e+01    1.171432e+00
  2.143618e+01    1.198342e+00
  2.145206e+01    1.211109e+00
  2.146793e+01    1.215652e+00
  2.148381e+01    1.232783e+00
  2.149968e+01    1.282543e+00
  2.151556e+01    1.300867e+00
  2.153143e+01    1.323034e+00
  2.154731e+01    1.353265e+00
  2.156319e+01    1.413205e+00
  2.157906e+01    1.458277e+00
  2.159494e+01    1.520692e+00
  2.161081e+01    1.581375e+00
  2.162669e+01    1.647522e+00
  2.164256e+01    1.759391e+00
  2.165844e+01    1.885147e+00
  2.167431e+01    2.010184e+00
  2.169019e+01    2.190795e+00
  2.170607e+01    2.425161e+00
  2.172194e+01    2.678686e+00
  2.173782e+01    3.020943e+00
  2.175369e+01    3.464795e+00
  2.176957e+01    4.002437e+00
  2.178544e+01    4.521416e+00
  2.180132e+01    5.218680e+00
  2.181719e+01    5.915139e+00
  2.183307e+01    6.610654e+00
  2.184895e+01    7.429111e+00
  2.186482e+01    8.146913e+00
  2.188070e+01    8.956460e+00
  2.189657e+01    9.499152e+00
  2.191245e+01    9.818964e+00
  2.192832e+01    9.785542e+00
  2.194420e+01    9.296318e+00
  2.196007e+01    8.516568e+00
  2.197595e+01    7.469182e+00
  2.199183e+01    6.345116e+00
  2.200770e+01    5.375895e+00
  2.202358e+01    4.532836e+00
  2.203945e+01    3.826174e+00
  2.205533e+01    3.348166e+00
  2.207120e+01    2.970589e+00
  2.208708e+01    2.609756e+00
  2.210296e+01    2.339595e+00
  2.211883e+01    2.109576e+00
  2.213471e+01    1.964049e+00
  2.215058e+01    1.816304e+00
  2.216646e+01    1.698568e+00
  2.218233e+01    1.624075e+00
  2.219821e+01    1.514475e+00
  2.221408e+01    1.450729e+00
  2.222996e+01    1.403057e+00
  2.224584e+01    1.344981e+00
  2.226171e+01    1.298720e+00
  2.227759e+01    1.281468e+00
  2.229346e+01    1.245532e+00
  2.230934e+01    1.211555e+00
  2.232521e+01    1.170508e+00
  2.234109e+01    1.147710e+00
  2.235696e+01    1.113503e+00
  2.237284e+01    1.104206e+00
  2.238872e+01    1.107637e+00
  2.240459e+01    1.069107e+00
  2.242047e+01    1.075024e+00
  2.243634e+01    1.057978e+00
  2.245222e+01    1.053049e+00
  2.246809e+01    1.057633e+00
  2.248397e+01    1.022471e+00
  2.249984e+01    1.020317e+00
  2.251572e+01    1.012585e+00
  2.253160e+01    1.026054e+00
  2.254747e+01    9.991871e-01
  2.256335e+01    9.891902e-01
  2.257922e+01    9.738872e-01
  2.259510e+01    9.679317e-01
  2.261097e+01    9.651846e-01
  2.262685e+01    9.680310e-01
  2.264272e+01    9.738661e-01
  2.265860e+01    9.641309e-01
  2.267448e+01    9.398971e-01
  2.269035e+01    9.572120e-01
  2.270623e+01    9.651347e-01
  2.272210e+01    9.499657e-01
  2.273798e+01    9.159640e-01
  2.275385e+01    9.038001e-01
  2.276973e+01    9.263958e-01
  2.278560e+01    9.317418e-01
  2.280148e+01    9.428703e-01
  2.281736e+01    9.339899e-01
  2.283323e+01    9.181000e-01
  2.284911e+01    9.285656e-01
  2.286498e+01    9.267945e-01
  2.288086e+01    9.000095e-01
  2.289673e+01    9.087113e-01
  2.291261e+01    8.912128e-01
  2.292848e+01    8.784698e-01
  2.294436e+01    8.923660e-01
  2.296024e+01    8.682863e-01
  2.297611e+01    8.826336e-01
  2.299199e+01    8.838193e-01
  2.300786e+01    8.998917e-01
  2.302374e+01    8.765137e-01
  2.303961e+01    8.825445e-01
  2.305549e+01    8.954275e-01
  2.307137e+01    8.752086e-01
  2.308724e+01    8.642139e-01
  2.310312e+01    8.703660e-01
  2.311899e+01    8.648333e-01
  2.313487e+01    8.724558e-01
  2.315074e+01    8.976388e-01
  2.316662e+01    9.047039e-01
  2.318249e+01    8.905680e-01
  2.319837e+01    8.535852e-01
  2.321425e+01    8.513096e-01
  2.323012e+01    8.672808e-01
  2.324600e+01    8.550425e-01
  2.326187e+01    8.612274e-01
  2.327775e+01    8.563265e-01
  2.329362e+01    8.573018e-01
  2.330950e+01    8.519700e-01
  2.332537e+01    8.787280e-01
  2.334125e+01    8.746724e-01
  2.335713e+01    8.272575e-01
  2.337300e+01    8.268626e-01
  2.338888e+01    8.447840e-01
  2.340475e+01    8.585946e-01
  2.342063e+01    8.633597e-01
  2.343650e+01    8.593757e-01
  2.345238e+01    8.310208e-01
  2.346825e+01    8.183761e-01
  2.348413e+01    8.339763e-01
  2.350001e+01    8.450930e-01
  2.351588e+01    8.366912e-01
  2.353176e+01    8.337827e-01
  2.354763e+01    8.490464e-01
  2.356351e+01    8.437890e-01
  2.357938e+01    8.347898e-01
  2.359526e+01    8.273408e-01
  2.361113e+01    8.256101e-01
  2.362701e+01    8.238899e-01
  2.364289e+01    8.134421e-01
  2.365876e+01    8.228579e-01
  2.367464e+01    8.238784e-01
  2.369051e+01    8.218436e-01
  2.370639e+01    8.371536e-01
  2.372226e+01    8.256028e-01
  2.373814e+01    8.260913e-01
  2.375401e+01    8.487191e-01
  2.376989e+01    8.053153e-01
  2.378577e+01    8.019577e-01
  2.380164e+01    8.130382e-01
  2.381752e+01    8.153469e-01
  2.383339e+01    7.875592e-01
  2.384927e+01    8.001578e-01
  2.386514e+01    8.001038e-01
  2.388102e+01    7.852141e-01
  2.389689e+01    8.043982e-01
  2.391277e+01    7.955011e-01
  2.392865e+01    7.634875e-01
  2.394452e+01    7.733185e-01
  2.396040e+01    7.841889e-01
  2.397627e+01    7.920990e-01
  2.399215e+01    7.811657e-01
  2.400802e+01    7.773659e-01
  2.402390e+01    7.762848e-01
  2.403978e+01    7.923824e-01
  2.405565e+01    7.798732e-01
  2.407153e+01    7.821372e-01
  2.408740e+01    7.790192e-01
  2.410328e+01    7.604797e-01
  2.411915e+01    7.785388e-01
  2.413503e+01    7.987041e-01
  2.415090e+01    7.874951e-01
  2.416678e+01    7.716393e-01
  2.418266e+01    7.805873e-01
  2.419853e+01    7.605768e-01
  2.421441e+01    7.572064e-01
  2.423028e+01    7.562613e-01
  2.424616e+01    7.929772e-01
  2.426203e+01    8.043547e-01
  2.427791e+01    7.862098e-01
  2.429378e+01    7.893548e-01
  2.430966e+01    7.718197e-01
  2.432554e+01    7.643336e-01
  2.434141e+01    7.841349e-01
  2.435729e+01    7.680912e-01
  2.437316e+01    7.768885e-01
  2.438904e+01    7.864278e-01
  2.440491e+01    7.889382e-01
  2.442079e+01    7.742920e-01
  2.443666e+01    7.755585e-01
  2.445254e+01    7.787533e-01
  2.446842e+01    7.888533e-01
  2.448429e+01    8.060110e-01
  2.450017e+01    8.016220e-01
  2.451604e+01    7.827561e-01
  2.453192e+01    7.685572e-01
  2.454779e+01    7.942148e-01
  2.456367e+01    7.797343e-01
  2.457954e+01    7.885767e-01
  2.459542e+01    7.792411e-01
  2.461130e+01    7.887495e-01
  2.462717e+01    7.810575e-01
  2.464305e+01    7.899913e-01
  2.465892e+01    7.933643e-01
  2.467480e+01    7.570370e-01
  2.469067e+01    7.763879e-01
  2.470655e+01    8.019891e-01
  2.472242e+01    7.971744e-01
  2.473830e+01    7.894899e-01
  2.475418e+01    7.868009e-01
  2.477005e+01    7.775089e-01
  2.478593e+01    7.742284e-01
  2.480180e+01    7.763297e-01
  2.481768e+01    7.753085e-01
  2.483355e+01    7.953390e-01
  2.484943e+01    7.785936e-01
  2.486530e+01    7.787894e-01
  2.488118e+01    7.779965e-01
  2.489706e+01    7.870343e-01
  2.491293e+01    7.996423e-01
  2.492881e+01    7.942995e-01
  2.494468e+01    7.831900e-01
  2.496056e+01    7.886091e-01
  2.497643e+01    7.955667e-01
  2.499231e+01    8.002623e-01
  2.500819e+01    7.922689e-01
  2.502406e+01    7.851062e-01
  2.503994e+01    7.953520e-01
  2.505581e+01    8.000231e-01
  2.507169e+01    7.969043e-01
  2.508756e+01    7.997149e-01
  2.510344e+01    8.128123e-01
  2.511931e+01    7.978665e-01
  2.513519e+01    8.195617e-01
  2.515107e+01    8.145956e-01
  2.516694e+01    8.039992e-01
  2.518282e+01    8.213022e-01
  2.519869e+01    8.073789e-01
  2.521457e+01    8.120612e-01
  2.523044e+01    8.289225e-01
  2.524632e+01    8.358837e-01
  2.526219e+01    8.355682e-01
  2.527807e+01    8.506565e-01
  2.529395e+01    8.533533e-01
  2.530982e+01    8.632995e-01
  2.532570e+01    8.629435e-01
  2.534157e+01    8.415042e-01
  2.535745e+01    8.756706e-01
  2.537332e+01    8.793204e-01
  2.538920e+01    8.836476e-01
  2.540507e+01    8.874126e-01
  2.542095e+01    8.954193e-01
  2.543683e+01    9.202534e-01
  2.545270e+01    9.149089e-01
  2.546858e+01    9.157445e-01
  2.548445e+01    9.600194e-01
  2.550033e+01    9.430670e-01
  2.551620e+01    9.630740e-01
  2.553208e+01    9.583243e-01
  2.554795e+01    1.006242e+00
  2.556383e+01    1.031866e+00
  2.557971e+01    1.062963e+00
  2.559558e+01    1.076090e+00
  2.561146e+01    1.098262e+00
  2.562733e+01    1.147752e+00
  2.564321e+01    1.196190e+00
  2.565908e+01    1.225954e+00
  2.567496e+01    1.288864e+00
  2.569083e+01    1.376699e+00
  2.570671e+01    1.434075e+00
  2.572259e+01    1.528307e+00
  2.573846e+01    1.635425e+00
  2.575434e+01    1.789268e+00
  2.577021e+01    1.941709e+00
  2.578609e+01    2.159494e+00
  2.580196e+01    2.401634e+00
  2.581784e+01    2.706839e+00
  2.583371e+01    3.081619e+00
  2.584959e+01    3.491942e+00
  2.586547e+01    3.997671e+00
  2.588134e+01    4.617941e+00
  2.589722e+01    5.327784e+00
  2.591309e+01    5.963649e+00
  2.592897e+01    6.709283e+00
  2.594484e+01    7.379487e+00
  2.596072e+01    7.904968e+00
  2.597660e+01    8.130043e+00
  2.599247e+01    8.166739e+00
  2.600835e+01    7.834441e+00
  2.602422e+01    7.167925e+00
  2.604010e+01    6.406374e+00
  2.605597e+01    5.595531e+00
  2.607185e+01    4.726655e+00
  2.608772e+01    4.022511e+00
  2.610360e+01    3.483167e+00
  2.611948e+01    3.013831e+00
  2.613535e+01    2.660902e+00
  2.615123e+01    2.316567e+00
  2.616710e+01    2.080857e+00
  2.618298e+01    1.936129e+00
  2.619885e+01    1.754945e+00
  2.621473e+01    1.625090e+00
  2.623060e+01    1.555992e+00
  2.624648e+01    1.420768e+00
  2.626236e+01    1.330850e+00
  2.627823e+01    1.280233e+00
  2.629411e+01    1.237573e+00
  2.630998e+01    1.204904e+00
  2.632586e+01    1.153248e+00
  2.634173e+01    1.111971e+00
  2.635761e+01    1.081001e+00
  2.637348e+01    1.062924e+00
  2.638936e+01    1.032462e+00
  2.640524e+01    1.026985e+00
  2.642111e+01    1.009842e+00
  2.643699e+01    9.760973e-01
  2.645286e+01    9.895620e-01
  2.646874e+01    9.688253e-01
  2.648461e+01    9.408845e-01
  2.650049e+01    9.547656e-01
  2.651636e+01    9.499589e-01
  2.653224e+01    9.369692e-01
  2.654812e+01    9.331689e-01
  2.656399e+01    9.235086e-01
  2.657987e+01    8.931302e-01
  2.659574e+01    8.904830e-01
  2.661162e+01    9.099686e-01
  2.662749e+01    9.239047e-01
  2.664337e+01    9.149358e-01
  2.665924e+01    9.099963e-01
  2.667512e+01    9.060118e-01
  2.669100e+01    8.954521e-01
  2.670687e+01    9.122910e-01
  2.672275e+01    8.944896e-01
  2.673862e+01    8.809698e-01
  2.675450e+01    8.733031e-01
  2.677037e+01    8.736199e-01
  2.678625e+01    8.695068e-01
  2.680212e+01    8.847852e-01
  2.681800e+01    9.102541e-01
  2.683388e+01    9.192892e-01
  2.684975e+01    9.157024e-01
  2.686563e+01    9.124590e-01
  2.688150e+01    8.988615e-01
  2.689738e+01    9.169713e-01
  2.691325e+01    9.298086e-01
  2.692913e+01    9.380207e-01
  2.694501e+01    9.221222e-01
  2.696088e+01    9.408462e-01
  2.697676e+01    9.532604e-01
  2.699263e+01    9.761620e-01
  2.700851e+01    1.031282e+00
  2.702438e+01    1.040166e+00
  2.704026e+01    1.079168e+00
  2.705613e+01    1.137109e+00
  2.707201e+01    1.181155e+00
  2.708789e+01    1.255454e+00
  2.710376e+01    1.343062e+00
  2.711964e+01    1.436852e+00
  2.713551e+01    1.537610e+00
  2.715139e+01    1.678366e+00
  2.716726e+01    1.823395e+00
  2.718314e+01    1.964284e+00
  2.719901e+01    2.099349e+00
  2.721489e+01    2.258228e+00
  2.723077e+01    2.362251e+00
  2.724664e+01    2.382200e+00
  2.726252e+01    2.347615e+00
  2.727839e+01    2.250932e+00
  2.729427e+01    2.058809e+00
  2.731014e+01    1.867963e+00
  2.732602e+01    1.691091e+00
  2.734189e+01    1.543748e+00
  2.735777e+01    1.452525e+00
  2.737365e+01    1.352624e+00
  2.738952e+01    1.246147e+00
  2.740540e+01    1.179802e+00
  2.742127e+01    1.134056e+00
  2.743715e+01    1.060009e+00
  2.745302e+01    1.031076e+00
  2.746890e+01    1.003141e+00
  2.748477e+01    9.701405e-01
  2.750065e+01    9.346427e-01
  2.751653e+01    9.164379e-01
  2.753240e+01    9.251319e-01
  2.754828e+01    8.870787e-01
  2.756415e+01    8.873446e-01
  2.758003e+01    8.723634e-01
  2.759590e+01    8.867840e-01
  2.761178e+01    8.740159e-01
  2.762765e+01    8.547695e-01
  2.764353e+01    8.262569e-01
  2.765941e+01    8.252591e-01
  2.767528e+01    8.222892e-01
  2.769116e+01    8.478880e-01
  2.770703e+01    8.313274e-01
  2.772291e+01    8.121781e-01
  2.773878e+01    7.889315e-01
  2.775466e+01    8.054731e-01
  2.777054e+01    8.022343e-01
  2.778641e+01    8.221465e-01
  2.780229e+01    8.308765e-01
  2.781816e+01    8.105618e-01
  2.783404e+01    8.124427e-01
  2.784991e+01    8.003901e-01
  2.786579e+01    7.955614e-01
  2.788166e+01    8.079446e-01
  2.789754e+01    8.019619e-01
  2.791342e+01    7.994907e-01
  2.792929e+01    8.026931e-01
  2.794517e+01    8.173779e-01
  2.796104e+01    7.961133e-01
  2.797692e+01    7.817629e-01
  2.799279e+01    7.761924e-01
  2.800867e+01    7.821807e-01
  2.802454e+01    7.900423e-01
  2.804042e+01    7.818200e-01
  2.805630e+01    7.842360e-01
  2.807217e+01    7.731488e-01
  2.808805e+01    7.704104e-01
  2.810392e+01    7.473516e-01
  2.811980e+01    7.529969e-01
  2.813567e+01    7.594240e-01
  2.815155e+01    7.738475e-01
  2.816742e+01    7.878731e-01
  2.818330e+01    7.757254e-01
  2.819918e+01    7.622319e-01
  2.821505e+01    7.735766e-01
  2.823093e+01    7.951167e-01
  2.824680e+01    7.892891e-01
  2.826268e+01    7.817575e-01
  2.827855e+01    7.650532e-01
  2.829443e+01    7.723863e-01
  2.831030e+01    7.356681e-01
  2.832618e+01    7.362159e-01
  2.834206e+01    7.640437e-01
  2.835793e+01    7.661210e-01
  2.837381e+01    7.662828e-01
  2.838968e+01    7.615520e-01
  2.840556e+01    7.490962e-01
  2.842143e+01    7.441387e-01
  2.843731e+01    7.651587e-01
  2.845318e+01    7.598658e-01
  2.846906e+01    7.544697e-01
  2.848494e+01    7.596952e-01
  2.850081e+01    7.556033e-01
  2.851669e+01    7.610686e-01
  2.853256e+01    7.517077e-01
  2.854844e+01    7.530141e-01
  2.856431e+01    7.551286e-01
  2.858019e+01    7.501373e-01
  2.859606e+01    7.613297e-01
  2.861194e+01    7.435880e-01
  2.862782e+01    7.443655e-01
  2.864369e+01    7.659375e-01
  2.865957e+01    7.461203e-01
  2.867544e+01    7.478632e-01
  2.869132e+01    7.459216e-01
  2.870719e+01    7.600012e-01
  2.872307e+01    7.503442e-01
  2.873895e+01    7.547324e-01
  2.875482e+01    7.610264e-01
  2.877070e+01    7.648180e-01
  2.878657e+01    7.333733e-01
  2.880245e+01    7.403708e-01
  2.881832e+01    7.244535e-01
  2.883420e+01    7.474328e-01
  2.885007e+01    7.298838e-01
  2.886595e+01    7.374950e-01
  2.888183e+01    7.539324e-01
  2.889770e+01    7.561390e-01
  2.891358e+01    7.424509e-01
  2.892945e+01    7.363177e-01
  2.894533e+01    7.448627e-01
  2.896120e+01    7.462537e-01
  2.897708e+01    7.372537e-01
  2.899295e+01    7.322322e-01
  2.900883e+01    7.209188e-01
  2.902471e+01    7.358230e-01
  2.904058e+01    7.194931e-01
  2.905646e+01    7.145464e-01
  2.907233e+01    7.290226e-01
  2.908821e+01    7.131270e-01
  2.910408e+01    7.231678e-01
  2.911996e+01    7.242708e-01
  2.913583e+01    7.258190e-01
  2.915171e+01    7.461613e-01
  2.916759e+01    7.484188e-01
  2.918346e+01    7.369973e-01
  2.919934e+01    7.348493e-01
  2.921521e+01    7.143093e-01
  2.923109e+01    7.183215e-01
  2.924696e+01    7.443072e-01
  2.926284e+01    7.315185e-01
  2.927871e+01    7.308244e-01
  2.929459e+01    7.385898e-01
  2.931047e+01    7.292144e-01
  2.932634e+01    7.175069e-01
  2.934222e+01    7.183209e-01
  2.935809e+01    7.255268e-01
  2.937397e+01    7.334936e-01
  2.938984e+01    7.310253e-01
  2.940572e+01    7.352650e-01
  2.942159e+01    7.154174e-01
  2.943747e+01    7.125298e-01
  2.945335e+01    7.304804e-01
  2.946922e+01    7.303022e-01
  2.948510e+01    7.290126e-01
  2.950097e+01    7.249008e-01
  2.951685e+01    7.078138e-01
  2.953272e+01    7.102136e-01
  2.954860e+01    7.193191e-01
  2.956447e+01    7.127440e-01
  2.958035e+01    6.947170e-01
  2.959623e+01    7.101089e-01
  2.961210e+01    7.238579e-01
  2.962798e+01    7.348599e-01
  2.964385e+01    7.160171e-01
  2.965973e+01    7.142450e-01
  2.967560e+01    7.097516e-01
  2.969148e+01    7.037683e-01
  2.970736e+01    6.995947e-01
  2.972323e+01    7.014810e-01
  2.973911e+01    7.089833e-01
  2.975498e+01    6.962909e-01
  2.977086e+01    6.924426e-01
  2.978673e+01    6.959314e-01
  2.980261e+01    7.065353e-01
  2.981848e+01    7.136604e-01
  2.983436e+01    7.216874e-01
  2.985024e+01    7.092887e-01
  2.986611e+01    6.911416e-01
  2.988199e+01    7.290834e-01
  2.989786e+01    7.302607e-01
  2.991374e+01    7.078512e-01
  2.992961e+01    7.022532e-01
  2.994549e+01    7.182508e-01
  2.996136e+01    7.397538e-01
  2.997724e+01    7.349317e-01
  2.999312e+01    7.215867e-01
  3.000899e+01    7.295506e-01
  3.002487e+01    7.430557e-01
  3.004074e+01    7.536867e-01
  3.005662e+01    7.295936e-01
  3.007249e+01    7.195483e-01
  3.008837e+01    7.334852e-01
  3.010424e+01    7.249144e-01
  3.012012e+01    7.222205e-01
  3.013600e+01    7.199519e-01
  3.015187e+01    7.123072e-01
  3.016775e+01    6.984559e-01
  3.018362e+01    6.954193e-01
  3.019950e+01    6.907812e-01
  3.021537e+01    6.974308e-01
  3.023125e+01    7.027666e-01
  3.024712e+01    7.057544e-01
  3.026300e+01    6.892965e-01
  3.027888e+01    6.989474e-01
  3.029475e+01    7.127736e-01
  3.031063e+01    7.185306e-01
  3.032650e+01    7.055205e-01
  3.034238e+01    7.150856e-01
  3.035825e+01    7.017815e-01
  3.037413e+01    7.001822e-01
  3.039000e+01    7.008528e-01
  3.040588e+01    7.130871e-01
  3.042176e+01    7.065096e-01
  3.043763e+01    7.052227e-01
  3.045351e+01    7.029920e-01
  3.046938e+01    7.071362e-01
  3.048526e+01    7.109421e-01
  3.050113e+01    7.067344e-01
  3.051701e+01    7.011970e-01
  3.053288e+01    7.104403e-01
  3.054876e+01    7.203380e-01
  3.056464e+01    7.336340e-01
  3.058051e+01    7.197253e-01
  3.059639e+01    7.248894e-01
  3.061226e+01    7.031383e-01
  3.062814e+01    7.250066e-01
  3.064401e+01    6.997453e-01
  3.065989e+01    6.985337e-01
  3.067577e+01    7.009296e-01
  3.069164e+01    6.924570e-01
  3.070752e+01    7.100177e-01
  3.072339e+01    7.048872e-01
  3.073927e+01    7.013984e-01
  3.075514e+01    6.973438e-01
  3.077102e+01    7.003242e-01
  3.078689e+01    7.283029e-01
  3.080277e+01    7.207688e-01
  3.081865e+01    7.216811e-01
  3.083452e+01    7.150983e-01
  3.085040e+01    7.239754e-01
  3.086627e+01    7.059967e-01
  3.088215e+01    7.216703e-01
  3.089802e+01    7.157045e-01
  3.091390e+01    7.082336e-01
  3.092977e+01    7.128411e-01
  3.094565e+01    7.074273e-01
  3.096153e+01    7.091246e-01
  3.097740e+01    6.945082e-01
  3.099328e+01    7.008541e-01
  3.100915e+01    7.069202e-01
  3.102503e+01    7.113991e-01
  3.104090e+01    7.191719e-01
  3.105678e+01    7.159402e-01
  3.107265e+01    6.917149e-01
  3.108853e+01    6.899629e-01
  3.110441e+01    7.087216e-01
  3.112028e+01    6.981119e-01
  3.113616e+01    7.140425e-01
  3.115203e+01    7.081679e-01
  3.116791e+01    7.160344e-01
  3.118378e+01    7.162595e-01
  3.119966e+01    7.248498e-01
  3.121553e+01    7.099438e-01
  3.123141e+01    7.282380e-01
  3.124729e+01    7.419127e-01
  3.126316e+01    7.154511e-01
  3.127904e+01    7.162245e-01
  3.129491e+01    7.510890e-01
  3.131079e+01    7.454412e-01
  3.132666e+01    7.467958e-01
  3.134254e+01    7.246131e-01
  3.135841e+01    7.295734e-01
  3.137429e+01    7.528880e-01
  3.139017e+01    7.428178e-01
  3.140604e+01    7.544039e-01
  3.142192e+01    7.366757e-01
  3.143779e+01    7.559761e-01
  3.145367e+01    7.382806e-01
  3.146954e+01    7.474964e-01
  3.148542e+01    7.678388e-01
  3.150129e+01    7.460666e-01
  3.151717e+01    7.478552e-01
  3.153305e+01    7.727249e-01
  3.154892e+01    8.002914e-01
  3.156480e+01    7.898691e-01
  3.158067e+01    7.998935e-01
  3.159655e+01    7.995356e-01
  3.161242e+01    8.179635e-01
  3.162830e+01    8.332992e-01
  3.164418e+01    8.497786e-01
  3.166005e+01    8.538126e-01
  3.167593e+01    8.962442e-01
  3.169180e+01    8.972414e-01
  3.170768e+01    9.242868e-01
  3.172355e+01    9.588247e-01
  3.173943e+01    1.005231e+00
  3.175530e+01    1.022804e+00
  3.177118e+01    1.107700e+00
  3.178706e+01    1.197283e+00
  3.180293e+01    1.303264e+00
  3.181881e+01    1.408968e+00
  3.183468e+01    1.517006e+00
  3.185056e+01    1.639820e+00
  3.186643e+01    1.819383e+00
  3.188231e+01    2.035445e+00
  3.189818e+01    2.166705e+00
  3.191406e+01    2.302088e+00
  3.192994e+01    2.351686e+00
  3.194581e+01    2.331418e+00
  3.196169e+01    2.276015e+00
  3.197756e+01    2.167474e+00
  3.199344e+01    1.976720e+00
  3.200931e+01    1.791500e+00
  3.202519e+01    1.614298e+00
  3.204106e+01    1.483840e+00
  3.205694e+01    1.357396e+00
  3.207282e+01    1.240551e+00
  3.208869e+01    1.137602e+00
  3.210457e+01    1.054373e+00
  3.212044e+01    1.020138e+00
  3.213632e+01    9.812785e-01
  3.215219e+01    9.272996e-01
  3.216807e+01    9.043881e-01
  3.218394e+01    8.750372e-01
  3.219982e+01    8.751833e-01
  3.221570e+01    8.177344e-01
  3.223157e+01    7.871144e-01
  3.224745e+01    8.066043e-01
  3.226332e+01    8.055905e-01
  3.227920e+01    7.848637e-01
  3.229507e+01    7.703915e-01
  3.231095e+01    7.787139e-01
  3.232682e+01    7.824725e-01
  3.234270e+01    7.719956e-01
  3.235858e+01    7.681596e-01
  3.237445e+01    7.402376e-01
  3.239033e+01    7.361254e-01
  3.240620e+01    7.183380e-01
  3.242208e+01    7.129878e-01
  3.243795e+01    7.207178e-01
  3.245383e+01    7.194263e-01
  3.246970e+01    7.408528e-01
  3.248558e+01    7.233574e-01
  3.250146e+01    7.354434e-01
  3.251733e+01    7.543324e-01
  3.253321e+01    7.373630e-01
  3.254908e+01    7.154243e-01
