# == pyFAI calibration ==
# Distance Sample to Detector: 0.3999999939076516 m
# PONI: 9.750e-02, 1.135e-01 m
# Rotations: -0.000175 0.000000 -0.000000 rad
# 
# == Fit2d calibration ==
# Distance Sample-beamCenter: 400.000 mm
# Center: x=1514.000, y=1300.000 pix
# Tilt: 0.010 deg  TiltPlanRot: 0.010 deg
# 
# Detector Detector	 Spline= None	 PixelSize= 7.500e-05, 7.500e-05 m
#    Detector has a mask: False 
#    Detector has a dark current: False 
#    detector has a flat field: False 
# 
# Wavelength: 6.888e-11 m
# Mask applied: user provided
# Dark current applied: False
# Flat field applied: False
# Polarization factor: 0.99
# Normalization factor: 1.0
# --> /home/myspot/data/2024_07_Rosario/Ru-CGO-ex/2024-07-27_002_Ru-CGO-ex_Activtation_ramp_000002_data_000165.dat
#       q_nm^-1             I 
  2.003187e-02    0.000000e+00
  3.590745e-02    1.058695e-01
  5.178302e-02    1.922968e-01
  6.765859e-02    1.524773e-01
  8.353417e-02    5.264984e-02
  9.940974e-02    3.675203e-02
  1.152853e-01    4.374819e-02
  1.311609e-01    5.730603e-02
  1.470365e-01    2.886013e-02
  1.629120e-01    4.598268e-02
  1.787876e-01    5.052418e-02
  1.946632e-01    2.523239e-02
  2.105388e-01    7.027114e-03
  2.264143e-01    7.595686e-03
  2.422899e-01    4.960593e-02
  2.581655e-01    5.972220e-02
  2.740411e-01    5.629131e-02
  2.899166e-01    5.227606e-02
  3.057922e-01    5.395940e-02
  3.216678e-01    6.843314e-02
  3.375433e-01    4.229457e-02
  3.534189e-01    4.948752e-02
  3.692945e-01    7.590440e-02
  3.851701e-01    2.448783e-02
  4.010456e-01    6.721946e-02
  4.169212e-01    6.770249e-02
  4.327968e-01    3.782858e-02
  4.486724e-01    3.119674e-02
  4.645479e-01    3.020974e-02
  4.804235e-01    1.125375e-02
  4.962991e-01    3.596568e-02
  5.121747e-01    2.999886e-02
  5.280502e-01    3.544670e-02
  5.439258e-01    5.299976e-02
  5.598014e-01    4.267341e-02
  5.756770e-01    2.878307e-02
  5.915525e-01    2.144911e-02
  6.074281e-01    4.010336e-02
  6.233037e-01    5.057312e-02
  6.391793e-01    3.552889e-02
  6.550548e-01    1.853348e-02
  6.709304e-01    3.605454e-02
  6.868060e-01    3.173828e-02
  7.026815e-01    6.096518e-02
  7.185571e-01    6.335980e-02
  7.344327e-01    2.089808e-02
  7.503083e-01    3.728595e-02
  7.661838e-01    7.989407e-02
  7.820594e-01    1.129329e-01
  7.979350e-01    1.717619e-01
  8.138106e-01    1.740747e-01
  8.296861e-01    2.105528e-01
  8.455617e-01    3.125783e-01
  8.614373e-01    3.967637e-01
  8.773129e-01    5.080100e-01
  8.931884e-01    5.557457e-01
  9.090640e-01    6.016486e-01
  9.249396e-01    6.437435e-01
  9.408152e-01    7.069644e-01
  9.566907e-01    7.494705e-01
  9.725663e-01    8.435530e-01
  9.884419e-01    9.272100e-01
  1.004317e+00    1.019571e+00
  1.020193e+00    1.126975e+00
  1.036069e+00    1.270534e+00
  1.051944e+00    1.238285e+00
  1.067820e+00    1.248474e+00
  1.083695e+00    1.316501e+00
  1.099571e+00    1.435467e+00
  1.115446e+00    1.396356e+00
  1.131322e+00    1.385111e+00
  1.147198e+00    1.464749e+00
  1.163073e+00    1.561628e+00
  1.178949e+00    1.519965e+00
  1.194824e+00    1.608764e+00
  1.210700e+00    1.783827e+00
  1.226575e+00    2.110878e+00
  1.242451e+00    2.250779e+00
  1.258327e+00    2.299374e+00
  1.274202e+00    2.363554e+00
  1.290078e+00    2.384498e+00
  1.305953e+00    2.543824e+00
  1.321829e+00    2.579742e+00
  1.337705e+00    2.418469e+00
  1.353580e+00    2.424708e+00
  1.369456e+00    2.548312e+00
  1.385331e+00    2.502973e+00
  1.401207e+00    2.604386e+00
  1.417082e+00    2.718672e+00
  1.432958e+00    2.544048e+00
  1.448834e+00    2.612592e+00
  1.464709e+00    2.726636e+00
  1.480585e+00    2.784059e+00
  1.496460e+00    2.799696e+00
  1.512336e+00    2.898301e+00
  1.528211e+00    2.859289e+00
  1.544087e+00    2.849273e+00
  1.559963e+00    2.931289e+00
  1.575838e+00    2.905645e+00
  1.591714e+00    2.804562e+00
  1.607589e+00    2.898807e+00
  1.623465e+00    2.912526e+00
  1.639340e+00    2.830607e+00
  1.655216e+00    2.818606e+00
  1.671092e+00    2.949915e+00
  1.686967e+00    2.780444e+00
  1.702843e+00    2.736072e+00
  1.718718e+00    2.754353e+00
  1.734594e+00    2.729179e+00
  1.750469e+00    2.845932e+00
  1.766345e+00    2.891772e+00
  1.782221e+00    2.785453e+00
  1.798096e+00    2.579983e+00
  1.813972e+00    2.710710e+00
  1.829847e+00    2.610274e+00
  1.845723e+00    2.610488e+00
  1.861598e+00    2.702188e+00
  1.877474e+00    2.598017e+00
  1.893350e+00    2.632092e+00
  1.909225e+00    2.822009e+00
  1.925101e+00    2.700802e+00
  1.940976e+00    2.527012e+00
  1.956852e+00    2.519875e+00
  1.972727e+00    2.704553e+00
  1.988603e+00    2.702233e+00
  2.004479e+00    2.688912e+00
  2.020354e+00    2.739919e+00
  2.036230e+00    2.787954e+00
  2.052105e+00    2.699683e+00
  2.067981e+00    2.691998e+00
  2.083856e+00    2.684810e+00
  2.099732e+00    2.746213e+00
  2.115608e+00    2.761018e+00
  2.131483e+00    2.738727e+00
  2.147359e+00    2.742805e+00
  2.163234e+00    2.633727e+00
  2.179110e+00    2.728599e+00
  2.194985e+00    2.779334e+00
  2.210861e+00    2.756409e+00
  2.226737e+00    2.706679e+00
  2.242612e+00    2.587974e+00
  2.258488e+00    2.666670e+00
  2.274363e+00    2.784571e+00
  2.290239e+00    2.832625e+00
  2.306115e+00    2.775683e+00
  2.321990e+00    2.682673e+00
  2.337866e+00    2.705463e+00
  2.353741e+00    2.672911e+00
  2.369617e+00    2.669443e+00
  2.385492e+00    2.674996e+00
  2.401368e+00    2.757617e+00
  2.417244e+00    2.782070e+00
  2.433119e+00    2.757093e+00
  2.448995e+00    2.714920e+00
  2.464870e+00    2.883634e+00
  2.480746e+00    2.851845e+00
  2.496621e+00    2.854696e+00
  2.512497e+00    2.758551e+00
  2.528373e+00    2.752372e+00
  2.544248e+00    2.726940e+00
  2.560124e+00    2.653058e+00
  2.575999e+00    2.731047e+00
  2.591875e+00    2.715566e+00
  2.607750e+00    2.686502e+00
  2.623626e+00    2.778601e+00
  2.639502e+00    2.810054e+00
  2.655377e+00    2.844794e+00
  2.671253e+00    2.811652e+00
  2.687128e+00    2.856496e+00
  2.703004e+00    2.788059e+00
  2.718879e+00    2.871669e+00
  2.734755e+00    2.867648e+00
  2.750631e+00    2.820845e+00
  2.766506e+00    2.839140e+00
  2.782382e+00    2.757503e+00
  2.798257e+00    2.792645e+00
  2.814133e+00    2.857535e+00
  2.830008e+00    2.913790e+00
  2.845884e+00    2.856278e+00
  2.861760e+00    2.809215e+00
  2.877635e+00    2.842558e+00
  2.893511e+00    2.841340e+00
  2.909386e+00    2.876373e+00
  2.925262e+00    2.842479e+00
  2.941137e+00    2.773000e+00
  2.957013e+00    2.917886e+00
  2.972889e+00    2.954772e+00
  2.988764e+00    2.810746e+00
  3.004640e+00    2.905765e+00
  3.020515e+00    2.767188e+00
  3.036391e+00    2.789978e+00
  3.052266e+00    2.883689e+00
  3.068142e+00    2.860750e+00
  3.084018e+00    2.893415e+00
  3.099893e+00    2.932604e+00
  3.115769e+00    2.911147e+00
  3.131644e+00    2.852401e+00
  3.147520e+00    2.862001e+00
  3.163395e+00    2.857423e+00
  3.179271e+00    2.871003e+00
  3.195147e+00    2.822421e+00
  3.211022e+00    2.851973e+00
  3.226898e+00    2.926814e+00
  3.242773e+00    2.932887e+00
  3.258649e+00    2.916679e+00
  3.274525e+00    2.869345e+00
  3.290400e+00    2.941116e+00
  3.306276e+00    2.915112e+00
  3.322151e+00    2.916194e+00
  3.338027e+00    2.976236e+00
  3.353902e+00    2.914072e+00
  3.369778e+00    2.864721e+00
  3.385654e+00    2.845524e+00
  3.401529e+00    2.828740e+00
  3.417405e+00    2.884499e+00
  3.433280e+00    2.986608e+00
  3.449156e+00    3.015938e+00
  3.465031e+00    3.049354e+00
  3.480907e+00    2.912687e+00
  3.496783e+00    2.900804e+00
  3.512658e+00    2.982694e+00
  3.528534e+00    2.935318e+00
  3.544409e+00    2.983212e+00
  3.560285e+00    2.899750e+00
  3.576160e+00    2.873646e+00
  3.592036e+00    2.887255e+00
  3.607912e+00    2.918460e+00
  3.623787e+00    2.917018e+00
  3.639663e+00    2.952200e+00
  3.655538e+00    2.989933e+00
  3.671414e+00    3.022489e+00
  3.687289e+00    2.965329e+00
  3.703165e+00    3.028699e+00
  3.719041e+00    3.062226e+00
  3.734916e+00    2.988588e+00
  3.750792e+00    3.063134e+00
  3.766667e+00    3.035964e+00
  3.782543e+00    3.000286e+00
  3.798418e+00    3.030284e+00
  3.814294e+00    3.044238e+00
  3.830170e+00    2.986123e+00
  3.846045e+00    2.974278e+00
  3.861921e+00    3.022396e+00
  3.877796e+00    3.076629e+00
  3.893672e+00    3.004505e+00
  3.909547e+00    3.012968e+00
  3.925423e+00    3.055913e+00
  3.941299e+00    3.007553e+00
  3.957174e+00    3.011500e+00
  3.973050e+00    3.057926e+00
  3.988925e+00    3.075095e+00
  4.004801e+00    2.988472e+00
  4.020676e+00    2.975350e+00
  4.036552e+00    3.009929e+00
  4.052428e+00    3.047345e+00
  4.068303e+00    3.021232e+00
  4.084179e+00    3.061302e+00
  4.100054e+00    3.030473e+00
  4.115930e+00    3.059303e+00
  4.131806e+00    3.066470e+00
  4.147681e+00    3.067151e+00
  4.163557e+00    3.101341e+00
  4.179432e+00    3.082125e+00
  4.195308e+00    3.064949e+00
  4.211183e+00    2.993589e+00
  4.227059e+00    3.013974e+00
  4.242935e+00    2.997652e+00
  4.258810e+00    2.959581e+00
  4.274686e+00    2.994657e+00
  4.290561e+00    3.112437e+00
  4.306437e+00    3.106143e+00
  4.322312e+00    3.012183e+00
  4.338188e+00    3.065206e+00
  4.354064e+00    3.120644e+00
  4.369939e+00    3.127928e+00
  4.385815e+00    2.972476e+00
  4.401690e+00    3.042781e+00
  4.417566e+00    3.053940e+00
  4.433441e+00    3.059885e+00
  4.449317e+00    3.048998e+00
  4.465193e+00    3.024956e+00
  4.481068e+00    3.094930e+00
  4.496944e+00    3.110535e+00
  4.512819e+00    3.095263e+00
  4.528695e+00    3.021674e+00
  4.544570e+00    3.035929e+00
  4.560446e+00    3.077338e+00
  4.576322e+00    2.981241e+00
  4.592197e+00    3.047777e+00
  4.608073e+00    3.108899e+00
  4.623948e+00    3.065410e+00
  4.639824e+00    3.050714e+00
  4.655699e+00    3.065086e+00
  4.671575e+00    3.180797e+00
  4.687451e+00    3.096838e+00
  4.703326e+00    3.059585e+00
  4.719202e+00    3.114638e+00
  4.735077e+00    3.287022e+00
  4.750953e+00    3.201520e+00
  4.766828e+00    3.044180e+00
  4.782704e+00    3.057513e+00
  4.798580e+00    3.060604e+00
  4.814455e+00    3.069047e+00
  4.830331e+00    3.132501e+00
  4.846206e+00    3.137680e+00
  4.862082e+00    3.144213e+00
  4.877957e+00    3.095413e+00
  4.893833e+00    3.134532e+00
  4.909709e+00    3.140750e+00
  4.925584e+00    3.107199e+00
  4.941460e+00    3.108621e+00
  4.957335e+00    3.152746e+00
  4.973211e+00    3.193736e+00
  4.989086e+00    3.165797e+00
  5.004962e+00    3.122949e+00
  5.020838e+00    3.188070e+00
  5.036713e+00    3.132034e+00
  5.052589e+00    3.104145e+00
  5.068464e+00    3.093696e+00
  5.084340e+00    3.127948e+00
  5.100216e+00    3.064420e+00
  5.116091e+00    3.086360e+00
  5.131967e+00    3.177421e+00
  5.147842e+00    3.106240e+00
  5.163718e+00    3.194446e+00
  5.179593e+00    3.134100e+00
  5.195469e+00    3.135245e+00
  5.211345e+00    3.201036e+00
  5.227220e+00    3.163157e+00
  5.243096e+00    3.149626e+00
  5.258971e+00    3.132062e+00
  5.274847e+00    3.060181e+00
  5.290722e+00    3.095222e+00
  5.306598e+00    3.219287e+00
  5.322474e+00    3.121560e+00
  5.338349e+00    3.099507e+00
  5.354225e+00    3.133199e+00
  5.370100e+00    3.107018e+00
  5.385976e+00    3.129181e+00
  5.401851e+00    3.127091e+00
  5.417727e+00    3.059867e+00
  5.433603e+00    3.053836e+00
  5.449478e+00    3.056298e+00
  5.465354e+00    3.123755e+00
  5.481229e+00    3.005954e+00
  5.497105e+00    3.012779e+00
  5.512980e+00    3.196839e+00
  5.528856e+00    3.115279e+00
  5.544732e+00    3.014691e+00
  5.560607e+00    3.095196e+00
  5.576483e+00    3.109285e+00
  5.592358e+00    3.062706e+00
  5.608234e+00    3.047065e+00
  5.624109e+00    3.151215e+00
  5.639985e+00    3.168651e+00
  5.655861e+00    3.103926e+00
  5.671736e+00    3.014129e+00
  5.687612e+00    3.024199e+00
  5.703487e+00    3.070625e+00
  5.719363e+00    3.126799e+00
  5.735238e+00    3.115487e+00
  5.751114e+00    3.081154e+00
  5.766990e+00    2.966402e+00
  5.782865e+00    2.960076e+00
  5.798741e+00    3.042255e+00
  5.814616e+00    3.117550e+00
  5.830492e+00    3.040369e+00
  5.846367e+00    3.033266e+00
  5.862243e+00    3.120964e+00
  5.878119e+00    3.080854e+00
  5.893994e+00    3.052530e+00
  5.909870e+00    3.071438e+00
  5.925745e+00    3.004533e+00
  5.941621e+00    2.966531e+00
  5.957497e+00    2.966768e+00
  5.973372e+00    2.983241e+00
  5.989248e+00    3.030548e+00
  6.005123e+00    2.989701e+00
  6.020999e+00    3.046957e+00
  6.036874e+00    3.022762e+00
  6.052750e+00    3.054717e+00
  6.068626e+00    3.042342e+00
  6.084501e+00    3.004081e+00
  6.100377e+00    3.110224e+00
  6.116252e+00    3.111722e+00
  6.132128e+00    3.123722e+00
  6.148003e+00    3.151265e+00
  6.163879e+00    3.052212e+00
  6.179755e+00    3.036596e+00
  6.195630e+00    3.058729e+00
  6.211506e+00    3.090455e+00
  6.227381e+00    3.150871e+00
  6.243257e+00    3.091004e+00
  6.259132e+00    3.062447e+00
  6.275008e+00    3.028990e+00
  6.290884e+00    3.063347e+00
  6.306759e+00    2.998154e+00
  6.322635e+00    3.052818e+00
  6.338510e+00    3.091823e+00
  6.354386e+00    3.040762e+00
  6.370261e+00    3.041575e+00
  6.386137e+00    2.992449e+00
  6.402013e+00    2.992144e+00
  6.417888e+00    3.044348e+00
  6.433764e+00    3.124233e+00
  6.449639e+00    3.065621e+00
  6.465515e+00    2.994680e+00
  6.481390e+00    3.088094e+00
  6.497266e+00    3.107008e+00
  6.513142e+00    3.107679e+00
  6.529017e+00    3.044758e+00
  6.544893e+00    3.006113e+00
  6.560768e+00    3.095701e+00
  6.576644e+00    3.060063e+00
  6.592519e+00    3.070396e+00
  6.608395e+00    3.120991e+00
  6.624271e+00    2.993610e+00
  6.640146e+00    2.988775e+00
  6.656022e+00    3.035161e+00
  6.671897e+00    3.021087e+00
  6.687773e+00    2.995551e+00
  6.703648e+00    3.038861e+00
  6.719524e+00    3.017031e+00
  6.735400e+00    3.058287e+00
  6.751275e+00    3.113931e+00
  6.767151e+00    3.031897e+00
  6.783026e+00    3.006495e+00
  6.798902e+00    3.016747e+00
  6.814777e+00    3.067568e+00
  6.830653e+00    3.054396e+00
  6.846529e+00    3.085998e+00
  6.862404e+00    2.995300e+00
  6.878280e+00    2.994143e+00
  6.894155e+00    3.030065e+00
  6.910031e+00    2.980539e+00
  6.925907e+00    2.996176e+00
  6.941782e+00    3.112541e+00
  6.957658e+00    3.151407e+00
  6.973533e+00    3.106009e+00
  6.989409e+00    3.093940e+00
  7.005284e+00    3.037818e+00
  7.021160e+00    3.069874e+00
  7.037036e+00    3.159082e+00
  7.052911e+00    3.059985e+00
  7.068787e+00    3.029545e+00
  7.084662e+00    3.049559e+00
  7.100538e+00    3.050418e+00
  7.116413e+00    2.982429e+00
  7.132289e+00    2.971280e+00
  7.148165e+00    3.049596e+00
  7.164040e+00    3.075187e+00
  7.179916e+00    3.014946e+00
  7.195791e+00    3.051102e+00
  7.211667e+00    3.014867e+00
  7.227542e+00    3.008851e+00
  7.243418e+00    2.976073e+00
  7.259294e+00    3.030066e+00
  7.275169e+00    3.040821e+00
  7.291045e+00    3.017546e+00
  7.306920e+00    3.013709e+00
  7.322796e+00    3.008867e+00
  7.338671e+00    2.983864e+00
  7.354547e+00    3.037094e+00
  7.370423e+00    3.033269e+00
  7.386298e+00    3.049034e+00
  7.402174e+00    2.985657e+00
  7.418049e+00    2.964268e+00
  7.433925e+00    3.031257e+00
  7.449800e+00    3.019915e+00
  7.465676e+00    3.045259e+00
  7.481552e+00    2.953689e+00
  7.497427e+00    2.955839e+00
  7.513303e+00    2.990300e+00
  7.529178e+00    2.945624e+00
  7.545054e+00    2.930080e+00
  7.560929e+00    2.997063e+00
  7.576805e+00    2.980542e+00
  7.592681e+00    2.919524e+00
  7.608556e+00    2.971228e+00
  7.624432e+00    2.999226e+00
  7.640307e+00    2.978295e+00
  7.656183e+00    2.938582e+00
  7.672058e+00    2.952190e+00
  7.687934e+00    2.992196e+00
  7.703810e+00    2.971159e+00
  7.719685e+00    2.989609e+00
  7.735561e+00    2.975219e+00
  7.751436e+00    2.954541e+00
  7.767312e+00    2.921419e+00
  7.783187e+00    2.891493e+00
  7.799063e+00    2.942027e+00
  7.814939e+00    3.002114e+00
  7.830814e+00    3.039568e+00
  7.846690e+00    3.040977e+00
  7.862565e+00    3.032742e+00
  7.878441e+00    2.992476e+00
  7.894317e+00    2.937543e+00
  7.910192e+00    2.947942e+00
  7.926068e+00    2.902231e+00
  7.941943e+00    2.906388e+00
  7.957819e+00    2.974846e+00
  7.973694e+00    2.916700e+00
  7.989570e+00    2.873966e+00
  8.005446e+00    2.954097e+00
  8.021321e+00    2.960961e+00
  8.037197e+00    2.963606e+00
  8.053072e+00    2.970811e+00
  8.068948e+00    2.977883e+00
  8.084823e+00    2.922771e+00
  8.100699e+00    2.964412e+00
  8.116575e+00    2.932456e+00
  8.132450e+00    2.925720e+00
  8.148326e+00    2.919220e+00
  8.164201e+00    2.985963e+00
  8.180077e+00    3.031822e+00
  8.195952e+00    3.017861e+00
  8.211828e+00    3.024118e+00
  8.227704e+00    2.959582e+00
  8.243579e+00    3.003633e+00
  8.259455e+00    2.976764e+00
  8.275330e+00    2.928102e+00
  8.291206e+00    2.926751e+00
  8.307081e+00    2.879477e+00
  8.322957e+00    2.901682e+00
  8.338833e+00    2.925809e+00
  8.354708e+00    2.877967e+00
  8.370584e+00    2.923671e+00
  8.386459e+00    2.992940e+00
  8.402335e+00    2.940251e+00
  8.418210e+00    2.926364e+00
  8.434086e+00    2.876428e+00
  8.449962e+00    2.902442e+00
  8.465837e+00    2.952580e+00
  8.481713e+00    2.931021e+00
  8.497588e+00    2.865039e+00
  8.513464e+00    2.931178e+00
  8.529339e+00    2.930600e+00
  8.545215e+00    2.932979e+00
  8.561091e+00    2.900591e+00
  8.576966e+00    2.859427e+00
  8.592842e+00    2.921537e+00
  8.608717e+00    2.952172e+00
  8.624593e+00    2.938856e+00
  8.640468e+00    2.878693e+00
  8.656344e+00    2.835771e+00
  8.672220e+00    2.816958e+00
  8.688095e+00    2.813585e+00
  8.703971e+00    2.797944e+00
  8.719846e+00    2.827576e+00
  8.735722e+00    2.848381e+00
  8.751598e+00    2.881505e+00
  8.767473e+00    2.864288e+00
  8.783349e+00    2.853468e+00
  8.799224e+00    2.902605e+00
  8.815100e+00    2.869993e+00
  8.830975e+00    2.815044e+00
  8.846851e+00    2.844727e+00
  8.862727e+00    2.832648e+00
  8.878602e+00    2.903319e+00
  8.894478e+00    2.881660e+00
  8.910353e+00    2.806265e+00
  8.926229e+00    2.851088e+00
  8.942104e+00    2.827642e+00
  8.957980e+00    2.817334e+00
  8.973856e+00    2.816753e+00
  8.989731e+00    2.863913e+00
  9.005607e+00    2.872141e+00
  9.021482e+00    2.751409e+00
  9.037358e+00    2.773448e+00
  9.053233e+00    2.809636e+00
  9.069109e+00    2.788527e+00
  9.084985e+00    2.814481e+00
  9.100860e+00    2.861043e+00
  9.116736e+00    2.840669e+00
  9.132611e+00    2.809020e+00
  9.148487e+00    2.771071e+00
  9.164362e+00    2.771661e+00
  9.180238e+00    2.851030e+00
  9.196114e+00    2.843710e+00
  9.211989e+00    2.838980e+00
  9.227865e+00    2.857236e+00
  9.243740e+00    2.770604e+00
  9.259616e+00    2.779964e+00
  9.275491e+00    2.782020e+00
  9.291367e+00    2.756965e+00
  9.307243e+00    2.789499e+00
  9.323118e+00    2.762966e+00
  9.338994e+00    2.754377e+00
  9.354869e+00    2.794047e+00
  9.370745e+00    2.730499e+00
  9.386620e+00    2.717649e+00
  9.402496e+00    2.736281e+00
  9.418372e+00    2.754513e+00
  9.434247e+00    2.844599e+00
  9.450123e+00    2.796775e+00
  9.465998e+00    2.741694e+00
  9.481874e+00    2.795196e+00
  9.497749e+00    2.843558e+00
  9.513625e+00    2.840145e+00
  9.529501e+00    2.758264e+00
  9.545376e+00    2.794762e+00
  9.561252e+00    2.819011e+00
  9.577127e+00    2.761136e+00
  9.593003e+00    2.736108e+00
  9.608878e+00    2.763627e+00
  9.624754e+00    2.729271e+00
  9.640630e+00    2.776327e+00
  9.656505e+00    2.773319e+00
  9.672381e+00    2.729196e+00
  9.688256e+00    2.747267e+00
  9.704132e+00    2.747923e+00
  9.720008e+00    2.767544e+00
  9.735883e+00    2.740780e+00
  9.751759e+00    2.790895e+00
  9.767634e+00    2.785958e+00
  9.783510e+00    2.707148e+00
  9.799385e+00    2.708165e+00
  9.815261e+00    2.751147e+00
  9.831137e+00    2.734848e+00
  9.847012e+00    2.739544e+00
  9.862888e+00    2.748275e+00
  9.878763e+00    2.725474e+00
  9.894639e+00    2.710741e+00
  9.910514e+00    2.727964e+00
  9.926390e+00    2.625901e+00
  9.942266e+00    2.614430e+00
  9.958141e+00    2.672349e+00
  9.974017e+00    2.738070e+00
  9.989892e+00    2.668290e+00
  1.000577e+01    2.648790e+00
  1.002164e+01    2.643816e+00
  1.003752e+01    2.661644e+00
  1.005339e+01    2.662095e+00
  1.006927e+01    2.640323e+00
  1.008515e+01    2.642117e+00
  1.010102e+01    2.687183e+00
  1.011690e+01    2.710711e+00
  1.013277e+01    2.715672e+00
  1.014865e+01    2.638776e+00
  1.016452e+01    2.655369e+00
  1.018040e+01    2.696885e+00
  1.019627e+01    2.654569e+00
  1.021215e+01    2.609652e+00
  1.022803e+01    2.629463e+00
  1.024390e+01    2.579708e+00
  1.025978e+01    2.628186e+00
  1.027565e+01    2.695983e+00
  1.029153e+01    2.655523e+00
  1.030740e+01    2.624671e+00
  1.032328e+01    2.617261e+00
  1.033915e+01    2.595548e+00
  1.035503e+01    2.627811e+00
  1.037091e+01    2.640062e+00
  1.038678e+01    2.650814e+00
  1.040266e+01    2.683012e+00
  1.041853e+01    2.657362e+00
  1.043441e+01    2.615869e+00
  1.045028e+01    2.617404e+00
  1.046616e+01    2.620331e+00
  1.048204e+01    2.611826e+00
  1.049791e+01    2.561695e+00
  1.051379e+01    2.615924e+00
  1.052966e+01    2.617738e+00
  1.054554e+01    2.613709e+00
  1.056141e+01    2.609167e+00
  1.057729e+01    2.638122e+00
  1.059316e+01    2.601956e+00
  1.060904e+01    2.552736e+00
  1.062492e+01    2.556139e+00
  1.064079e+01    2.563905e+00
  1.065667e+01    2.586622e+00
  1.067254e+01    2.568388e+00
  1.068842e+01    2.561821e+00
  1.070429e+01    2.574269e+00
  1.072017e+01    2.541892e+00
  1.073604e+01    2.548940e+00
  1.075192e+01    2.568159e+00
  1.076780e+01    2.573712e+00
  1.078367e+01    2.555828e+00
  1.079955e+01    2.558069e+00
  1.081542e+01    2.549035e+00
  1.083130e+01    2.582206e+00
  1.084717e+01    2.548065e+00
  1.086305e+01    2.519161e+00
  1.087892e+01    2.496332e+00
  1.089480e+01    2.533065e+00
  1.091068e+01    2.520093e+00
  1.092655e+01    2.470851e+00
  1.094243e+01    2.505166e+00
  1.095830e+01    2.514462e+00
  1.097418e+01    2.512142e+00
  1.099005e+01    2.528967e+00
  1.100593e+01    2.445109e+00
  1.102180e+01    2.483227e+00
  1.103768e+01    2.514836e+00
  1.105356e+01    2.504021e+00
  1.106943e+01    2.491614e+00
  1.108531e+01    2.536604e+00
  1.110118e+01    2.551847e+00
  1.111706e+01    2.482959e+00
  1.113293e+01    2.497458e+00
  1.114881e+01    2.521896e+00
  1.116468e+01    2.501880e+00
  1.118056e+01    2.445622e+00
  1.119644e+01    2.469900e+00
  1.121231e+01    2.425663e+00
  1.122819e+01    2.404812e+00
  1.124406e+01    2.438679e+00
  1.125994e+01    2.447513e+00
  1.127581e+01    2.418666e+00
  1.129169e+01    2.451592e+00
  1.130756e+01    2.482897e+00
  1.132344e+01    2.488352e+00
  1.133932e+01    2.443307e+00
  1.135519e+01    2.425741e+00
  1.137107e+01    2.453606e+00
  1.138694e+01    2.488582e+00
  1.140282e+01    2.463967e+00
  1.141869e+01    2.438985e+00
  1.143457e+01    2.425217e+00
  1.145045e+01    2.425357e+00
  1.146632e+01    2.422837e+00
  1.148220e+01    2.459851e+00
  1.149807e+01    2.480211e+00
  1.151395e+01    2.442794e+00
  1.152982e+01    2.401195e+00
  1.154570e+01    2.434636e+00
  1.156157e+01    2.418086e+00
  1.157745e+01    2.394614e+00
  1.159333e+01    2.389206e+00
  1.160920e+01    2.412006e+00
  1.162508e+01    2.378204e+00
  1.164095e+01    2.397323e+00
  1.165683e+01    2.359043e+00
  1.167270e+01    2.393616e+00
  1.168858e+01    2.373383e+00
  1.170445e+01    2.386511e+00
  1.172033e+01    2.401858e+00
  1.173621e+01    2.376318e+00
  1.175208e+01    2.334979e+00
  1.176796e+01    2.378540e+00
  1.178383e+01    2.361939e+00
  1.179971e+01    2.336565e+00
  1.181558e+01    2.304645e+00
  1.183146e+01    2.379857e+00
  1.184733e+01    2.369069e+00
  1.186321e+01    2.347636e+00
  1.187909e+01    2.345644e+00
  1.189496e+01    2.333517e+00
  1.191084e+01    2.351004e+00
  1.192671e+01    2.368651e+00
  1.194259e+01    2.361312e+00
  1.195846e+01    2.343287e+00
  1.197434e+01    2.358026e+00
  1.199021e+01    2.361694e+00
  1.200609e+01    2.347767e+00
  1.202197e+01    2.322392e+00
  1.203784e+01    2.355968e+00
  1.205372e+01    2.339586e+00
  1.206959e+01    2.316145e+00
  1.208547e+01    2.331452e+00
  1.210134e+01    2.387304e+00
  1.211722e+01    2.371253e+00
  1.213309e+01    2.321805e+00
  1.214897e+01    2.299998e+00
  1.216485e+01    2.294741e+00
  1.218072e+01    2.297098e+00
  1.219660e+01    2.328627e+00
  1.221247e+01    2.330408e+00
  1.222835e+01    2.325459e+00
  1.224422e+01    2.343077e+00
  1.226010e+01    2.357877e+00
  1.227597e+01    2.323779e+00
  1.229185e+01    2.360580e+00
  1.230773e+01    2.291718e+00
  1.232360e+01    2.300407e+00
  1.233948e+01    2.313929e+00
  1.235535e+01    2.345993e+00
  1.237123e+01    2.317975e+00
  1.238710e+01    2.314308e+00
  1.240298e+01    2.293744e+00
  1.241886e+01    2.355931e+00
  1.243473e+01    2.343667e+00
  1.245061e+01    2.324776e+00
  1.246648e+01    2.383936e+00
  1.248236e+01    2.410699e+00
  1.249823e+01    2.377747e+00
  1.251411e+01    2.382496e+00
  1.252998e+01    2.337262e+00
  1.254586e+01    2.363065e+00
  1.256174e+01    2.357420e+00
  1.257761e+01    2.346200e+00
  1.259349e+01    2.400159e+00
  1.260936e+01    2.438582e+00
  1.262524e+01    2.428763e+00
  1.264111e+01    2.409842e+00
  1.265699e+01    2.412750e+00
  1.267286e+01    2.490920e+00
  1.268874e+01    2.510625e+00
  1.270462e+01    2.534929e+00
  1.272049e+01    2.538406e+00
  1.273637e+01    2.540056e+00
  1.275224e+01    2.580233e+00
  1.276812e+01    2.595614e+00
  1.278399e+01    2.620474e+00
  1.279987e+01    2.681790e+00
  1.281574e+01    2.672586e+00
  1.283162e+01    2.735417e+00
  1.284750e+01    2.868789e+00
  1.286337e+01    2.931322e+00
  1.287925e+01    2.987864e+00
  1.289512e+01    3.105743e+00
  1.291100e+01    3.276565e+00
  1.292687e+01    3.490906e+00
  1.294275e+01    3.700495e+00
  1.295862e+01    4.002348e+00
  1.297450e+01    4.440961e+00
  1.299038e+01    4.827787e+00
  1.300625e+01    5.445794e+00
  1.302213e+01    6.234652e+00
  1.303800e+01    7.144342e+00
  1.305388e+01    8.342529e+00
  1.306975e+01    9.541656e+00
  1.308563e+01    1.073446e+01
  1.310150e+01    1.199201e+01
  1.311738e+01    1.321524e+01
  1.313326e+01    1.429929e+01
  1.314913e+01    1.515905e+01
  1.316501e+01    1.604064e+01
  1.318088e+01    1.634111e+01
  1.319676e+01    1.580114e+01
  1.321263e+01    1.437768e+01
  1.322851e+01    1.267640e+01
  1.324438e+01    1.069485e+01
  1.326026e+01    9.073268e+00
  1.327614e+01    7.709875e+00
  1.329201e+01    6.513701e+00
  1.330789e+01    5.580599e+00
  1.332376e+01    5.012302e+00
  1.333964e+01    4.590306e+00
  1.335551e+01    4.165212e+00
  1.337139e+01    3.804208e+00
  1.338727e+01    3.572141e+00
  1.340314e+01    3.327529e+00
  1.341902e+01    3.146227e+00
  1.343489e+01    3.015543e+00
  1.345077e+01    2.928917e+00
  1.346664e+01    2.832901e+00
  1.348252e+01    2.759560e+00
  1.349839e+01    2.707071e+00
  1.351427e+01    2.640487e+00
  1.353015e+01    2.552316e+00
  1.354602e+01    2.540755e+00
  1.356190e+01    2.499564e+00
  1.357777e+01    2.449437e+00
  1.359365e+01    2.380274e+00
  1.360952e+01    2.379161e+00
  1.362540e+01    2.361584e+00
  1.364127e+01    2.311261e+00
  1.365715e+01    2.312993e+00
  1.367303e+01    2.323753e+00
  1.368890e+01    2.215122e+00
  1.370478e+01    2.230435e+00
  1.372065e+01    2.229348e+00
  1.373653e+01    2.166966e+00
  1.375240e+01    2.188655e+00
  1.376828e+01    2.225317e+00
  1.378415e+01    2.163089e+00
  1.380003e+01    2.117626e+00
  1.381591e+01    2.141537e+00
  1.383178e+01    2.136945e+00
  1.384766e+01    2.161939e+00
  1.386353e+01    2.137839e+00
  1.387941e+01    2.085590e+00
  1.389528e+01    2.079463e+00
  1.391116e+01    2.099268e+00
  1.392703e+01    2.131279e+00
  1.394291e+01    2.098665e+00
  1.395879e+01    2.087356e+00
  1.397466e+01    2.074569e+00
  1.399054e+01    2.063407e+00
  1.400641e+01    2.040990e+00
  1.402229e+01    2.072125e+00
  1.403816e+01    2.080745e+00
  1.405404e+01    2.019422e+00
  1.406991e+01    1.993940e+00
  1.408579e+01    2.009396e+00
  1.410167e+01    2.012465e+00
  1.411754e+01    2.013986e+00
  1.413342e+01    1.999752e+00
  1.414929e+01    2.012892e+00
  1.416517e+01    1.975866e+00
  1.418104e+01    1.965540e+00
  1.419692e+01    1.999393e+00
  1.421279e+01    2.014101e+00
  1.422867e+01    1.981662e+00
  1.424455e+01    1.975114e+00
  1.426042e+01    1.984024e+00
  1.427630e+01    1.972557e+00
  1.429217e+01    1.999028e+00
  1.430805e+01    1.998571e+00
  1.432392e+01    1.961098e+00
  1.433980e+01    1.934743e+00
  1.435568e+01    1.958288e+00
  1.437155e+01    1.960696e+00
  1.438743e+01    1.926289e+00
  1.440330e+01    1.930064e+00
  1.441918e+01    1.947463e+00
  1.443505e+01    1.956003e+00
  1.445093e+01    1.949119e+00
  1.446680e+01    1.963682e+00
  1.448268e+01    1.935768e+00
  1.449856e+01    1.910316e+00
  1.451443e+01    1.939396e+00
  1.453031e+01    1.944387e+00
  1.454618e+01    1.887305e+00
  1.456206e+01    1.899477e+00
  1.457793e+01    1.914773e+00
  1.459381e+01    1.910298e+00
  1.460968e+01    1.935880e+00
  1.462556e+01    1.906826e+00
  1.464144e+01    1.910637e+00
  1.465731e+01    1.937393e+00
  1.467319e+01    1.973252e+00
  1.468906e+01    1.939144e+00
  1.470494e+01    1.911835e+00
  1.472081e+01    1.937900e+00
  1.473669e+01    1.924777e+00
  1.475256e+01    1.918764e+00
  1.476844e+01    1.894598e+00
  1.478432e+01    1.917539e+00
  1.480019e+01    1.943112e+00
  1.481607e+01    1.935084e+00
  1.483194e+01    1.933160e+00
  1.484782e+01    1.932055e+00
  1.486369e+01    1.933569e+00
  1.487957e+01    1.924594e+00
  1.489544e+01    1.918167e+00
  1.491132e+01    1.949806e+00
  1.492720e+01    2.036952e+00
  1.494307e+01    2.047095e+00
  1.495895e+01    2.032872e+00
  1.497482e+01    2.068643e+00
  1.499070e+01    2.106260e+00
  1.500657e+01    2.175777e+00
  1.502245e+01    2.211443e+00
  1.503832e+01    2.346186e+00
  1.505420e+01    2.427675e+00
  1.507008e+01    2.586684e+00
  1.508595e+01    2.722070e+00
  1.510183e+01    2.932045e+00
  1.511770e+01    3.237461e+00
  1.513358e+01    3.534214e+00
  1.514945e+01    3.796174e+00
  1.516533e+01    4.151986e+00
  1.518120e+01    4.525668e+00
  1.519708e+01    4.843579e+00
  1.521296e+01    5.064602e+00
  1.522883e+01    5.281474e+00
  1.524471e+01    5.514654e+00
  1.526058e+01    5.632186e+00
  1.527646e+01    5.473180e+00
  1.529233e+01    5.351453e+00
  1.530821e+01    5.023458e+00
  1.532409e+01    4.516189e+00
  1.533996e+01    4.002656e+00
  1.535584e+01    3.569473e+00
  1.537171e+01    3.191719e+00
  1.538759e+01    2.899020e+00
  1.540346e+01    2.663693e+00
  1.541934e+01    2.550874e+00
  1.543521e+01    2.354118e+00
  1.545109e+01    2.257085e+00
  1.546697e+01    2.173259e+00
  1.548284e+01    2.101578e+00
  1.549872e+01    2.046668e+00
  1.551459e+01    1.964570e+00
  1.553047e+01    1.915964e+00
  1.554634e+01    1.909112e+00
  1.556222e+01    1.864769e+00
  1.557809e+01    1.846923e+00
  1.559397e+01    1.808901e+00
  1.560985e+01    1.789014e+00
  1.562572e+01    1.786522e+00
  1.564160e+01    1.786144e+00
  1.565747e+01    1.775564e+00
  1.567335e+01    1.774036e+00
  1.568922e+01    1.754447e+00
  1.570510e+01    1.782310e+00
  1.572097e+01    1.762954e+00
  1.573685e+01    1.716721e+00
  1.575273e+01    1.694131e+00
  1.576860e+01    1.680687e+00
  1.578448e+01    1.639797e+00
  1.580035e+01    1.659801e+00
  1.581623e+01    1.684369e+00
  1.583210e+01    1.669930e+00
  1.584798e+01    1.679905e+00
  1.586385e+01    1.657468e+00
  1.587973e+01    1.650725e+00
  1.589561e+01    1.630201e+00
  1.591148e+01    1.636123e+00
  1.592736e+01    1.629359e+00
  1.594323e+01    1.645020e+00
  1.595911e+01    1.632264e+00
  1.597498e+01    1.640597e+00
  1.599086e+01    1.662111e+00
  1.600673e+01    1.625172e+00
  1.602261e+01    1.623032e+00
  1.603849e+01    1.611245e+00
  1.605436e+01    1.620241e+00
  1.607024e+01    1.628254e+00
  1.608611e+01    1.592051e+00
  1.610199e+01    1.564174e+00
  1.611786e+01    1.601220e+00
  1.613374e+01    1.599998e+00
  1.614961e+01    1.606240e+00
  1.616549e+01    1.581718e+00
  1.618137e+01    1.572477e+00
  1.619724e+01    1.581172e+00
  1.621312e+01    1.562631e+00
  1.622899e+01    1.552650e+00
  1.624487e+01    1.562574e+00
  1.626074e+01    1.589618e+00
  1.627662e+01    1.568735e+00
  1.629250e+01    1.539205e+00
  1.630837e+01    1.554930e+00
  1.632425e+01    1.582421e+00
  1.634012e+01    1.577263e+00
  1.635600e+01    1.546743e+00
  1.637187e+01    1.551306e+00
  1.638775e+01    1.538349e+00
  1.640362e+01    1.553322e+00
  1.641950e+01    1.526882e+00
  1.643538e+01    1.543896e+00
  1.645125e+01    1.521302e+00
  1.646713e+01    1.528226e+00
  1.648300e+01    1.498471e+00
  1.649888e+01    1.493981e+00
  1.651475e+01    1.538839e+00
  1.653063e+01    1.530290e+00
  1.654650e+01    1.491543e+00
  1.656238e+01    1.504304e+00
  1.657826e+01    1.489221e+00
  1.659413e+01    1.492219e+00
  1.661001e+01    1.500456e+00
  1.662588e+01    1.476087e+00
  1.664176e+01    1.472327e+00
  1.665763e+01    1.513124e+00
  1.667351e+01    1.490209e+00
  1.668938e+01    1.474874e+00
  1.670526e+01    1.474961e+00
  1.672114e+01    1.503246e+00
  1.673701e+01    1.501290e+00
  1.675289e+01    1.460756e+00
  1.676876e+01    1.456155e+00
  1.678464e+01    1.480450e+00
  1.680051e+01    1.460603e+00
  1.681639e+01    1.466502e+00
  1.683226e+01    1.437938e+00
  1.684814e+01    1.473545e+00
  1.686402e+01    1.476015e+00
  1.687989e+01    1.449936e+00
  1.689577e+01    1.486900e+00
  1.691164e+01    1.491401e+00
  1.692752e+01    1.451807e+00
  1.694339e+01    1.481556e+00
  1.695927e+01    1.489827e+00
  1.697514e+01    1.456027e+00
  1.699102e+01    1.431546e+00
  1.700690e+01    1.448263e+00
  1.702277e+01    1.476229e+00
  1.703865e+01    1.449381e+00
  1.705452e+01    1.459293e+00
  1.707040e+01    1.429029e+00
  1.708627e+01    1.425902e+00
  1.710215e+01    1.414352e+00
  1.711802e+01    1.463496e+00
  1.713390e+01    1.443632e+00
  1.714978e+01    1.408273e+00
  1.716565e+01    1.382959e+00
  1.718153e+01    1.391453e+00
  1.719740e+01    1.419013e+00
  1.721328e+01    1.417200e+00
  1.722915e+01    1.397843e+00
  1.724503e+01    1.382972e+00
  1.726091e+01    1.393955e+00
  1.727678e+01    1.422571e+00
  1.729266e+01    1.399425e+00
  1.730853e+01    1.371690e+00
  1.732441e+01    1.396436e+00
  1.734028e+01    1.390100e+00
  1.735616e+01    1.400984e+00
  1.737203e+01    1.365185e+00
  1.738791e+01    1.350188e+00
  1.740379e+01    1.359363e+00
  1.741966e+01    1.376523e+00
  1.743554e+01    1.385260e+00
  1.745141e+01    1.364025e+00
  1.746729e+01    1.365271e+00
  1.748316e+01    1.380512e+00
  1.749904e+01    1.360653e+00
  1.751491e+01    1.353135e+00
  1.753079e+01    1.395344e+00
  1.754667e+01    1.378837e+00
  1.756254e+01    1.339931e+00
  1.757842e+01    1.308007e+00
  1.759429e+01    1.333259e+00
  1.761017e+01    1.334200e+00
  1.762604e+01    1.335118e+00
  1.764192e+01    1.356675e+00
  1.765779e+01    1.371883e+00
  1.767367e+01    1.351152e+00
  1.768955e+01    1.352355e+00
  1.770542e+01    1.357151e+00
  1.772130e+01    1.351122e+00
  1.773717e+01    1.342942e+00
  1.775305e+01    1.317007e+00
  1.776892e+01    1.330778e+00
  1.778480e+01    1.348364e+00
  1.780067e+01    1.347255e+00
  1.781655e+01    1.373311e+00
  1.783243e+01    1.372395e+00
  1.784830e+01    1.323866e+00
  1.786418e+01    1.302919e+00
  1.788005e+01    1.291183e+00
  1.789593e+01    1.325013e+00
  1.791180e+01    1.338068e+00
  1.792768e+01    1.328876e+00
  1.794355e+01    1.305100e+00
  1.795943e+01    1.309150e+00
  1.797531e+01    1.302223e+00
  1.799118e+01    1.319930e+00
  1.800706e+01    1.339652e+00
  1.802293e+01    1.324630e+00
  1.803881e+01    1.315495e+00
  1.805468e+01    1.297311e+00
  1.807056e+01    1.291451e+00
  1.808643e+01    1.281223e+00
  1.810231e+01    1.275998e+00
  1.811819e+01    1.307418e+00
  1.813406e+01    1.313523e+00
  1.814994e+01    1.291763e+00
  1.816581e+01    1.274569e+00
  1.818169e+01    1.275892e+00
  1.819756e+01    1.288851e+00
  1.821344e+01    1.268878e+00
  1.822932e+01    1.255718e+00
  1.824519e+01    1.251010e+00
  1.826107e+01    1.270600e+00
  1.827694e+01    1.256963e+00
  1.829282e+01    1.261578e+00
  1.830869e+01    1.268884e+00
  1.832457e+01    1.259368e+00
  1.834044e+01    1.268779e+00
  1.835632e+01    1.260788e+00
  1.837220e+01    1.287976e+00
  1.838807e+01    1.251524e+00
  1.840395e+01    1.271172e+00
  1.841982e+01    1.267862e+00
  1.843570e+01    1.268092e+00
  1.845157e+01    1.268066e+00
  1.846745e+01    1.269528e+00
  1.848332e+01    1.268247e+00
  1.849920e+01    1.278679e+00
  1.851508e+01    1.275333e+00
  1.853095e+01    1.272045e+00
  1.854683e+01    1.243541e+00
  1.856270e+01    1.218083e+00
  1.857858e+01    1.230924e+00
  1.859445e+01    1.246454e+00
  1.861033e+01    1.249745e+00
  1.862620e+01    1.239643e+00
  1.864208e+01    1.273887e+00
  1.865796e+01    1.257770e+00
  1.867383e+01    1.234674e+00
  1.868971e+01    1.219555e+00
  1.870558e+01    1.194897e+00
  1.872146e+01    1.205404e+00
  1.873733e+01    1.233450e+00
  1.875321e+01    1.241060e+00
  1.876908e+01    1.229241e+00
  1.878496e+01    1.215853e+00
  1.880084e+01    1.215726e+00
  1.881671e+01    1.229770e+00
  1.883259e+01    1.233756e+00
  1.884846e+01    1.214131e+00
  1.886434e+01    1.237873e+00
  1.888021e+01    1.236283e+00
  1.889609e+01    1.212538e+00
  1.891196e+01    1.229313e+00
  1.892784e+01    1.216209e+00
  1.894372e+01    1.208708e+00
  1.895959e+01    1.217409e+00
  1.897547e+01    1.186855e+00
  1.899134e+01    1.186206e+00
  1.900722e+01    1.182782e+00
  1.902309e+01    1.205067e+00
  1.903897e+01    1.221468e+00
  1.905484e+01    1.192488e+00
  1.907072e+01    1.200924e+00
  1.908660e+01    1.183135e+00
  1.910247e+01    1.176283e+00
  1.911835e+01    1.218020e+00
  1.913422e+01    1.210292e+00
  1.915010e+01    1.201985e+00
  1.916597e+01    1.226246e+00
  1.918185e+01    1.215963e+00
  1.919773e+01    1.194783e+00
  1.921360e+01    1.171904e+00
  1.922948e+01    1.199924e+00
  1.924535e+01    1.185147e+00
  1.926123e+01    1.169873e+00
  1.927710e+01    1.168324e+00
  1.929298e+01    1.156931e+00
  1.930885e+01    1.191949e+00
  1.932473e+01    1.174921e+00
  1.934061e+01    1.164779e+00
  1.935648e+01    1.173457e+00
  1.937236e+01    1.169197e+00
  1.938823e+01    1.167212e+00
  1.940411e+01    1.192401e+00
  1.941998e+01    1.172687e+00
  1.943586e+01    1.163497e+00
  1.945173e+01    1.149039e+00
  1.946761e+01    1.167573e+00
  1.948349e+01    1.163416e+00
  1.949936e+01    1.149140e+00
  1.951524e+01    1.137363e+00
  1.953111e+01    1.146481e+00
  1.954699e+01    1.158796e+00
  1.956286e+01    1.162577e+00
  1.957874e+01    1.156824e+00
  1.959461e+01    1.148787e+00
  1.961049e+01    1.142566e+00
  1.962637e+01    1.147927e+00
  1.964224e+01    1.143379e+00
  1.965812e+01    1.151740e+00
  1.967399e+01    1.134662e+00
  1.968987e+01    1.124070e+00
  1.970574e+01    1.121746e+00
  1.972162e+01    1.168167e+00
  1.973749e+01    1.155768e+00
  1.975337e+01    1.121219e+00
  1.976925e+01    1.148270e+00
  1.978512e+01    1.143710e+00
  1.980100e+01    1.141096e+00
  1.981687e+01    1.129173e+00
  1.983275e+01    1.112143e+00
  1.984862e+01    1.120250e+00
  1.986450e+01    1.121879e+00
  1.988037e+01    1.139637e+00
  1.989625e+01    1.158444e+00
  1.991213e+01    1.122318e+00
  1.992800e+01    1.113704e+00
  1.994388e+01    1.111763e+00
  1.995975e+01    1.141809e+00
  1.997563e+01    1.122155e+00
  1.999150e+01    1.106212e+00
  2.000738e+01    1.101726e+00
  2.002325e+01    1.100409e+00
  2.003913e+01    1.126512e+00
  2.005501e+01    1.113181e+00
  2.007088e+01    1.107189e+00
  2.008676e+01    1.128901e+00
  2.010263e+01    1.104550e+00
  2.011851e+01    1.098079e+00
  2.013438e+01    1.104070e+00
  2.015026e+01    1.118475e+00
  2.016614e+01    1.108957e+00
  2.018201e+01    1.116906e+00
  2.019789e+01    1.091894e+00
  2.021376e+01    1.100259e+00
  2.022964e+01    1.094957e+00
  2.024551e+01    1.113834e+00
  2.026139e+01    1.103248e+00
  2.027726e+01    1.097848e+00
  2.029314e+01    1.099470e+00
  2.030902e+01    1.105519e+00
  2.032489e+01    1.085233e+00
  2.034077e+01    1.074852e+00
  2.035664e+01    1.084306e+00
  2.037252e+01    1.101189e+00
  2.038839e+01    1.099469e+00
  2.040427e+01    1.083760e+00
  2.042014e+01    1.090101e+00
  2.043602e+01    1.103810e+00
  2.045190e+01    1.130187e+00
  2.046777e+01    1.105646e+00
  2.048365e+01    1.086892e+00
  2.049952e+01    1.100735e+00
  2.051540e+01    1.103931e+00
  2.053127e+01    1.110034e+00
  2.054715e+01    1.062783e+00
  2.056302e+01    1.078993e+00
  2.057890e+01    1.093174e+00
  2.059478e+01    1.099547e+00
  2.061065e+01    1.103628e+00
  2.062653e+01    1.092301e+00
  2.064240e+01    1.074207e+00
  2.065828e+01    1.069889e+00
  2.067415e+01    1.102133e+00
  2.069003e+01    1.075402e+00
  2.070590e+01    1.070002e+00
  2.072178e+01    1.092098e+00
  2.073766e+01    1.085745e+00
  2.075353e+01    1.069978e+00
  2.076941e+01    1.083259e+00
  2.078528e+01    1.068440e+00
  2.080116e+01    1.098442e+00
  2.081703e+01    1.082339e+00
  2.083291e+01    1.057878e+00
  2.084878e+01    1.069776e+00
  2.086466e+01    1.073426e+00
  2.088054e+01    1.084524e+00
  2.089641e+01    1.074698e+00
  2.091229e+01    1.088337e+00
  2.092816e+01    1.086120e+00
  2.094404e+01    1.090883e+00
  2.095991e+01    1.085955e+00
  2.097579e+01    1.096054e+00
  2.099166e+01    1.079508e+00
  2.100754e+01    1.082112e+00
  2.102342e+01    1.071748e+00
  2.103929e+01    1.065345e+00
  2.105517e+01    1.057823e+00
  2.107104e+01    1.081501e+00
  2.108692e+01    1.101854e+00
  2.110279e+01    1.074584e+00
  2.111867e+01    1.069571e+00
  2.113455e+01    1.075200e+00
  2.115042e+01    1.076234e+00
  2.116630e+01    1.086851e+00
  2.118217e+01    1.071763e+00
  2.119805e+01    1.079994e+00
  2.121392e+01    1.088630e+00
  2.122980e+01    1.073885e+00
  2.124567e+01    1.077300e+00
  2.126155e+01    1.097023e+00
  2.127743e+01    1.100761e+00
  2.129330e+01    1.110508e+00
  2.130918e+01    1.110737e+00
  2.132505e+01    1.117523e+00
  2.134093e+01    1.120667e+00
  2.135680e+01    1.149199e+00
  2.137268e+01    1.170606e+00
  2.138855e+01    1.161701e+00
  2.140443e+01    1.159985e+00
  2.142031e+01    1.193758e+00
  2.143618e+01    1.208361e+00
  2.145206e+01    1.241733e+00
  2.146793e+01    1.234282e+00
  2.148381e+01    1.273747e+00
  2.149968e+01    1.327407e+00
  2.151556e+01    1.347072e+00
  2.153143e+01    1.369347e+00
  2.154731e+01    1.360025e+00
  2.156319e+01    1.435669e+00
  2.157906e+01    1.481564e+00
  2.159494e+01    1.535943e+00
  2.161081e+01    1.645087e+00
  2.162669e+01    1.704402e+00
  2.164256e+01    1.831090e+00
  2.165844e+01    1.986369e+00
  2.167431e+01    2.142730e+00
  2.169019e+01    2.383898e+00
  2.170607e+01    2.623050e+00
  2.172194e+01    2.944737e+00
  2.173782e+01    3.327225e+00
  2.175369e+01    3.812616e+00
  2.176957e+01    4.340416e+00
  2.178544e+01    4.910715e+00
  2.180132e+01    5.594764e+00
  2.181719e+01    6.295420e+00
  2.183307e+01    6.909303e+00
  2.184895e+01    7.545764e+00
  2.186482e+01    8.211353e+00
  2.188070e+01    8.707732e+00
  2.189657e+01    8.991412e+00
  2.191245e+01    8.887678e+00
  2.192832e+01    8.455912e+00
  2.194420e+01    7.643434e+00
  2.196007e+01    6.629155e+00
  2.197595e+01    5.675447e+00
  2.199183e+01    4.819268e+00
  2.200770e+01    4.096927e+00
  2.202358e+01    3.533900e+00
  2.203945e+01    3.051824e+00
  2.205533e+01    2.671956e+00
  2.207120e+01    2.391469e+00
  2.208708e+01    2.205806e+00
  2.210296e+01    2.006543e+00
  2.211883e+01    1.873078e+00
  2.213471e+01    1.720866e+00
  2.215058e+01    1.632346e+00
  2.216646e+01    1.507552e+00
  2.218233e+01    1.447755e+00
  2.219821e+01    1.407531e+00
  2.221408e+01    1.354455e+00
  2.222996e+01    1.311607e+00
  2.224584e+01    1.284089e+00
  2.226171e+01    1.250121e+00
  2.227759e+01    1.205520e+00
  2.229346e+01    1.182840e+00
  2.230934e+01    1.152434e+00
  2.232521e+01    1.151690e+00
  2.234109e+01    1.150295e+00
  2.235696e+01    1.102762e+00
  2.237284e+01    1.083837e+00
  2.238872e+01    1.089001e+00
  2.240459e+01    1.064964e+00
  2.242047e+01    1.066083e+00
  2.243634e+01    1.057035e+00
  2.245222e+01    1.039693e+00
  2.246809e+01    1.025440e+00
  2.248397e+01    1.034495e+00
  2.249984e+01    1.013893e+00
  2.251572e+01    1.001883e+00
  2.253160e+01    1.004961e+00
  2.254747e+01    1.002595e+00
  2.256335e+01    9.920387e-01
  2.257922e+01    9.837729e-01
  2.259510e+01    9.819760e-01
  2.261097e+01    9.745948e-01
  2.262685e+01    9.917631e-01
  2.264272e+01    9.781791e-01
  2.265860e+01    9.728094e-01
  2.267448e+01    9.533995e-01
  2.269035e+01    9.572359e-01
  2.270623e+01    9.646376e-01
  2.272210e+01    9.429502e-01
  2.273798e+01    9.283032e-01
  2.275385e+01    9.197430e-01
  2.276973e+01    9.446342e-01
  2.278560e+01    9.430720e-01
  2.280148e+01    9.471692e-01
  2.281736e+01    9.476706e-01
  2.283323e+01    9.524619e-01
  2.284911e+01    9.351683e-01
  2.286498e+01    9.111888e-01
  2.288086e+01    9.182307e-01
  2.289673e+01    8.985223e-01
  2.291261e+01    9.085984e-01
  2.292848e+01    8.994647e-01
  2.294436e+01    9.065244e-01
  2.296024e+01    8.988264e-01
  2.297611e+01    9.017946e-01
  2.299199e+01    9.055545e-01
  2.300786e+01    8.915496e-01
  2.302374e+01    9.111458e-01
  2.303961e+01    9.237190e-01
  2.305549e+01    9.011841e-01
  2.307137e+01    8.766796e-01
  2.308724e+01    8.788672e-01
  2.310312e+01    8.954354e-01
  2.311899e+01    8.953823e-01
  2.313487e+01    8.815151e-01
  2.315074e+01    8.787867e-01
  2.316662e+01    8.796125e-01
  2.318249e+01    8.541370e-01
  2.319837e+01    8.933986e-01
  2.321425e+01    8.849072e-01
  2.323012e+01    8.931707e-01
  2.324600e+01    8.846244e-01
  2.326187e+01    8.658385e-01
  2.327775e+01    8.546733e-01
  2.329362e+01    8.726833e-01
  2.330950e+01    8.736283e-01
  2.332537e+01    8.728923e-01
  2.334125e+01    8.705643e-01
  2.335713e+01    8.507499e-01
  2.337300e+01    8.441459e-01
  2.338888e+01    8.650852e-01
  2.340475e+01    8.583125e-01
  2.342063e+01    8.591899e-01
  2.343650e+01    8.406556e-01
  2.345238e+01    8.200608e-01
  2.346825e+01    8.500665e-01
  2.348413e+01    8.693404e-01
  2.350001e+01    8.660920e-01
  2.351588e+01    8.430169e-01
  2.353176e+01    8.325164e-01
  2.354763e+01    8.420568e-01
  2.356351e+01    8.268127e-01
  2.357938e+01    8.554933e-01
  2.359526e+01    8.521845e-01
  2.361113e+01    8.324360e-01
  2.362701e+01    8.384596e-01
  2.364289e+01    8.337680e-01
  2.365876e+01    8.371384e-01
  2.367464e+01    8.268809e-01
  2.369051e+01    8.271521e-01
  2.370639e+01    8.329529e-01
  2.372226e+01    8.280489e-01
  2.373814e+01    8.221241e-01
  2.375401e+01    8.324131e-01
  2.376989e+01    8.260735e-01
  2.378577e+01    8.125843e-01
  2.380164e+01    8.324544e-01
  2.381752e+01    8.178560e-01
  2.383339e+01    7.938670e-01
  2.384927e+01    7.952391e-01
  2.386514e+01    8.105087e-01
  2.388102e+01    7.992309e-01
  2.389689e+01    7.959722e-01
  2.391277e+01    7.959461e-01
  2.392865e+01    7.835114e-01
  2.394452e+01    7.751221e-01
  2.396040e+01    7.987617e-01
  2.397627e+01    7.966604e-01
  2.399215e+01    7.931029e-01
  2.400802e+01    7.812740e-01
  2.402390e+01    7.940084e-01
  2.403978e+01    7.894480e-01
  2.405565e+01    7.789165e-01
  2.407153e+01    7.799974e-01
  2.408740e+01    7.994056e-01
  2.410328e+01    7.883744e-01
  2.411915e+01    7.784904e-01
  2.413503e+01    7.883281e-01
  2.415090e+01    8.027089e-01
  2.416678e+01    7.943467e-01
  2.418266e+01    7.804857e-01
  2.419853e+01    7.719922e-01
  2.421441e+01    7.677239e-01
  2.423028e+01    7.868897e-01
  2.424616e+01    7.903526e-01
  2.426203e+01    7.925847e-01
  2.427791e+01    7.878145e-01
  2.429378e+01    7.905599e-01
  2.430966e+01    8.011749e-01
  2.432554e+01    7.867143e-01
  2.434141e+01    7.805618e-01
  2.435729e+01    7.767861e-01
  2.437316e+01    8.042344e-01
  2.438904e+01    7.885967e-01
  2.440491e+01    7.684867e-01
  2.442079e+01    7.694888e-01
  2.443666e+01    7.600501e-01
  2.445254e+01    7.719042e-01
  2.446842e+01    7.984238e-01
  2.448429e+01    8.023716e-01
  2.450017e+01    7.886525e-01
  2.451604e+01    7.922953e-01
  2.453192e+01    7.915935e-01
  2.454779e+01    7.800440e-01
  2.456367e+01    7.861395e-01
  2.457954e+01    7.735702e-01
  2.459542e+01    7.828092e-01
  2.461130e+01    7.921951e-01
  2.462717e+01    7.990434e-01
  2.464305e+01    7.743833e-01
  2.465892e+01    7.848008e-01
  2.467480e+01    7.999212e-01
  2.469067e+01    7.945164e-01
  2.470655e+01    7.987588e-01
  2.472242e+01    7.777969e-01
  2.473830e+01    7.941381e-01
  2.475418e+01    8.182313e-01
  2.477005e+01    8.098236e-01
  2.478593e+01    7.974440e-01
  2.480180e+01    8.086581e-01
  2.481768e+01    7.984879e-01
  2.483355e+01    7.909669e-01
  2.484943e+01    7.938991e-01
  2.486530e+01    7.906694e-01
  2.488118e+01    7.927294e-01
  2.489706e+01    7.960446e-01
  2.491293e+01    7.990774e-01
  2.492881e+01    8.013189e-01
  2.494468e+01    8.015953e-01
  2.496056e+01    8.213825e-01
  2.497643e+01    8.177804e-01
  2.499231e+01    8.089931e-01
  2.500819e+01    8.071667e-01
  2.502406e+01    8.102698e-01
  2.503994e+01    7.934365e-01
  2.505581e+01    8.068092e-01
  2.507169e+01    8.018800e-01
  2.508756e+01    7.953115e-01
  2.510344e+01    8.085842e-01
  2.511931e+01    8.218485e-01
  2.513519e+01    7.992911e-01
  2.515107e+01    8.157709e-01
  2.516694e+01    8.082054e-01
  2.518282e+01    7.997236e-01
  2.519869e+01    8.057742e-01
  2.521457e+01    8.267388e-01
  2.523044e+01    8.293149e-01
  2.524632e+01    8.253224e-01
  2.526219e+01    8.264865e-01
  2.527807e+01    8.284003e-01
  2.529395e+01    8.561848e-01
  2.530982e+01    8.694945e-01
  2.532570e+01    8.839461e-01
  2.534157e+01    8.653243e-01
  2.535745e+01    8.804598e-01
  2.537332e+01    8.868182e-01
  2.538920e+01    8.902933e-01
  2.540507e+01    9.077690e-01
  2.542095e+01    9.234017e-01
  2.543683e+01    9.267547e-01
  2.545270e+01    9.402440e-01
  2.546858e+01    9.389335e-01
  2.548445e+01    9.594953e-01
  2.550033e+01    9.613674e-01
  2.551620e+01    9.888908e-01
  2.553208e+01    1.027477e+00
  2.554795e+01    1.048598e+00
  2.556383e+01    1.042427e+00
  2.557971e+01    1.064430e+00
  2.559558e+01    1.099122e+00
  2.561146e+01    1.126658e+00
  2.562733e+01    1.165235e+00
  2.564321e+01    1.221679e+00
  2.565908e+01    1.283558e+00
  2.567496e+01    1.362297e+00
  2.569083e+01    1.451734e+00
  2.570671e+01    1.525011e+00
  2.572259e+01    1.621244e+00
  2.573846e+01    1.726835e+00
  2.575434e+01    1.883277e+00
  2.577021e+01    2.147236e+00
  2.578609e+01    2.422982e+00
  2.580196e+01    2.699847e+00
  2.581784e+01    3.036806e+00
  2.583371e+01    3.499444e+00
  2.584959e+01    3.989372e+00
  2.586547e+01    4.531533e+00
  2.588134e+01    5.113806e+00
  2.589722e+01    5.723549e+00
  2.591309e+01    6.270783e+00
  2.592897e+01    6.790492e+00
  2.594484e+01    7.162148e+00
  2.596072e+01    7.340179e+00
  2.597660e+01    7.133658e+00
  2.599247e+01    6.777799e+00
  2.600835e+01    6.182868e+00
  2.602422e+01    5.394465e+00
  2.604010e+01    4.646754e+00
  2.605597e+01    4.008566e+00
  2.607185e+01    3.481862e+00
  2.608772e+01    3.008111e+00
  2.610360e+01    2.643668e+00
  2.611948e+01    2.327301e+00
  2.613535e+01    2.068531e+00
  2.615123e+01    1.896100e+00
  2.616710e+01    1.724580e+00
  2.618298e+01    1.580652e+00
  2.619885e+01    1.482547e+00
  2.621473e+01    1.422866e+00
  2.623060e+01    1.342180e+00
  2.624648e+01    1.250232e+00
  2.626236e+01    1.203758e+00
  2.627823e+01    1.164583e+00
  2.629411e+01    1.127410e+00
  2.630998e+01    1.090187e+00
  2.632586e+01    1.070130e+00
  2.634173e+01    1.041021e+00
  2.635761e+01    1.019148e+00
  2.637348e+01    9.891097e-01
  2.638936e+01    9.544877e-01
  2.640524e+01    9.238123e-01
  2.642111e+01    9.458355e-01
  2.643699e+01    9.603525e-01
  2.645286e+01    9.388147e-01
  2.646874e+01    9.196739e-01
  2.648461e+01    9.246835e-01
  2.650049e+01    9.413667e-01
  2.651636e+01    8.899439e-01
  2.653224e+01    9.076097e-01
  2.654812e+01    9.099941e-01
  2.656399e+01    9.024052e-01
  2.657987e+01    8.913679e-01
  2.659574e+01    9.108841e-01
  2.661162e+01    9.099721e-01
  2.662749e+01    8.790383e-01
  2.664337e+01    8.735983e-01
  2.665924e+01    8.850302e-01
  2.667512e+01    8.768424e-01
  2.669100e+01    8.599929e-01
  2.670687e+01    8.506966e-01
  2.672275e+01    8.755106e-01
  2.673862e+01    8.842461e-01
  2.675450e+01    8.846501e-01
  2.677037e+01    8.813065e-01
  2.678625e+01    8.974171e-01
  2.680212e+01    8.738131e-01
  2.681800e+01    8.605371e-01
  2.683388e+01    8.903311e-01
  2.684975e+01    8.813089e-01
  2.686563e+01    8.882892e-01
  2.688150e+01    8.934163e-01
  2.689738e+01    8.971488e-01
  2.691325e+01    9.288713e-01
  2.692913e+01    9.284418e-01
  2.694501e+01    9.327507e-01
  2.696088e+01    9.494370e-01
  2.697676e+01    9.709232e-01
  2.699263e+01    9.922940e-01
  2.700851e+01    1.011729e+00
  2.702438e+01    1.059002e+00
  2.704026e+01    1.112175e+00
  2.705613e+01    1.148245e+00
  2.707201e+01    1.196097e+00
  2.708789e+01    1.291908e+00
  2.710376e+01    1.419345e+00
  2.711964e+01    1.523887e+00
  2.713551e+01    1.621496e+00
  2.715139e+01    1.767536e+00
  2.716726e+01    1.880984e+00
  2.718314e+01    2.005200e+00
  2.719901e+01    2.111383e+00
  2.721489e+01    2.159338e+00
  2.723077e+01    2.144892e+00
  2.724664e+01    2.121686e+00
  2.726252e+01    2.038276e+00
  2.727839e+01    1.874761e+00
  2.729427e+01    1.675482e+00
  2.731014e+01    1.522472e+00
  2.732602e+01    1.390536e+00
  2.734189e+01    1.339795e+00
  2.735777e+01    1.230391e+00
  2.737365e+01    1.169266e+00
  2.738952e+01    1.093771e+00
  2.740540e+01    1.051478e+00
  2.742127e+01    1.028310e+00
  2.743715e+01    9.847705e-01
  2.745302e+01    9.336457e-01
  2.746890e+01    9.221209e-01
  2.748477e+01    9.262013e-01
  2.750065e+01    8.981994e-01
  2.751653e+01    8.734434e-01
  2.753240e+01    8.679298e-01
  2.754828e+01    8.860486e-01
  2.756415e+01    8.702353e-01
  2.758003e+01    8.394921e-01
  2.759590e+01    8.442751e-01
  2.761178e+01    8.427266e-01
  2.762765e+01    8.554996e-01
  2.764353e+01    8.441261e-01
  2.765941e+01    8.231395e-01
  2.767528e+01    8.353963e-01
  2.769116e+01    8.269262e-01
  2.770703e+01    8.266776e-01
  2.772291e+01    8.408460e-01
  2.773878e+01    8.247572e-01
  2.775466e+01    8.393884e-01
  2.777054e+01    8.159219e-01
  2.778641e+01    7.964860e-01
  2.780229e+01    8.166282e-01
  2.781816e+01    7.922598e-01
  2.783404e+01    7.888150e-01
  2.784991e+01    7.896633e-01
  2.786579e+01    7.806383e-01
  2.788166e+01    7.880756e-01
  2.789754e+01    7.775360e-01
  2.791342e+01    7.866188e-01
  2.792929e+01    7.899958e-01
  2.794517e+01    8.052440e-01
  2.796104e+01    7.878925e-01
  2.797692e+01    7.948866e-01
  2.799279e+01    7.731853e-01
  2.800867e+01    7.944998e-01
  2.802454e+01    7.712659e-01
  2.804042e+01    7.560007e-01
  2.805630e+01    7.643026e-01
  2.807217e+01    7.818704e-01
  2.808805e+01    7.681259e-01
  2.810392e+01    7.485054e-01
  2.811980e+01    7.592138e-01
  2.813567e+01    7.586694e-01
  2.815155e+01    7.539320e-01
  2.816742e+01    7.660462e-01
  2.818330e+01    7.801861e-01
  2.819918e+01    7.818494e-01
  2.821505e+01    7.516170e-01
  2.823093e+01    7.600065e-01
  2.824680e+01    7.699552e-01
  2.826268e+01    7.774756e-01
  2.827855e+01    7.870352e-01
  2.829443e+01    7.703564e-01
  2.831030e+01    7.615855e-01
  2.832618e+01    7.675940e-01
  2.834206e+01    7.673329e-01
  2.835793e+01    7.448373e-01
  2.837381e+01    7.528486e-01
  2.838968e+01    7.584683e-01
  2.840556e+01    7.758409e-01
  2.842143e+01    7.499128e-01
  2.843731e+01    7.494683e-01
  2.845318e+01    7.485906e-01
  2.846906e+01    7.473966e-01
  2.848494e+01    7.624816e-01
  2.850081e+01    7.530299e-01
  2.851669e+01    7.474434e-01
  2.853256e+01    7.611526e-01
  2.854844e+01    7.654495e-01
  2.856431e+01    7.607083e-01
  2.858019e+01    7.397792e-01
  2.859606e+01    7.321064e-01
  2.861194e+01    7.632244e-01
  2.862782e+01    7.534932e-01
  2.864369e+01    7.599025e-01
  2.865957e+01    7.584064e-01
  2.867544e+01    7.551380e-01
  2.869132e+01    7.610637e-01
  2.870719e+01    7.456246e-01
  2.872307e+01    7.201434e-01
  2.873895e+01    7.421303e-01
  2.875482e+01    7.329924e-01
  2.877070e+01    7.426375e-01
  2.878657e+01    7.457917e-01
  2.880245e+01    7.321862e-01
  2.881832e+01    7.366821e-01
  2.883420e+01    7.471237e-01
  2.885007e+01    7.436615e-01
  2.886595e+01    7.516165e-01
  2.888183e+01    7.375087e-01
  2.889770e+01    7.215695e-01
  2.891358e+01    7.238482e-01
  2.892945e+01    7.459985e-01
  2.894533e+01    7.464661e-01
  2.896120e+01    7.494055e-01
  2.897708e+01    7.424271e-01
  2.899295e+01    7.441671e-01
  2.900883e+01    7.232293e-01
  2.902471e+01    7.246134e-01
  2.904058e+01    7.303344e-01
  2.905646e+01    7.328099e-01
  2.907233e+01    7.330021e-01
  2.908821e+01    7.286080e-01
  2.910408e+01    7.330623e-01
  2.911996e+01    7.325303e-01
  2.913583e+01    7.408062e-01
  2.915171e+01    7.359136e-01
  2.916759e+01    7.366036e-01
  2.918346e+01    7.394732e-01
  2.919934e+01    7.370493e-01
  2.921521e+01    7.378237e-01
  2.923109e+01    7.397962e-01
  2.924696e+01    7.392761e-01
  2.926284e+01    7.256899e-01
  2.927871e+01    7.210777e-01
  2.929459e+01    7.434123e-01
  2.931047e+01    7.356608e-01
  2.932634e+01    7.112845e-01
  2.934222e+01    7.186195e-01
  2.935809e+01    7.350688e-01
  2.937397e+01    7.494130e-01
  2.938984e+01    7.244394e-01
  2.940572e+01    7.057622e-01
  2.942159e+01    7.197438e-01
  2.943747e+01    7.156698e-01
  2.945335e+01    7.269340e-01
  2.946922e+01    7.188908e-01
  2.948510e+01    7.108086e-01
  2.950097e+01    7.298744e-01
  2.951685e+01    7.425049e-01
  2.953272e+01    7.371179e-01
  2.954860e+01    7.355358e-01
  2.956447e+01    7.209491e-01
  2.958035e+01    7.195780e-01
  2.959623e+01    7.264557e-01
  2.961210e+01    7.356983e-01
  2.962798e+01    7.198119e-01
  2.964385e+01    7.389165e-01
  2.965973e+01    7.220146e-01
  2.967560e+01    7.318570e-01
  2.969148e+01    6.985753e-01
  2.970736e+01    7.133449e-01
  2.972323e+01    6.956443e-01
  2.973911e+01    7.117957e-01
  2.975498e+01    7.384146e-01
  2.977086e+01    7.303681e-01
  2.978673e+01    7.264907e-01
  2.980261e+01    7.219498e-01
  2.981848e+01    7.055191e-01
  2.983436e+01    6.996590e-01
  2.985024e+01    7.153449e-01
  2.986611e+01    7.236420e-01
  2.988199e+01    7.173780e-01
  2.989786e+01    7.293797e-01
  2.991374e+01    7.291741e-01
  2.992961e+01    7.220938e-01
  2.994549e+01    7.108835e-01
  2.996136e+01    7.112498e-01
  2.997724e+01    7.266368e-01
  2.999312e+01    7.277933e-01
  3.000899e+01    7.225847e-01
  3.002487e+01    7.333618e-01
  3.004074e+01    7.404811e-01
  3.005662e+01    7.407872e-01
  3.007249e+01    7.568212e-01
  3.008837e+01    7.535468e-01
  3.010424e+01    7.325221e-01
  3.012012e+01    7.391060e-01
  3.013600e+01    7.324642e-01
  3.015187e+01    7.254936e-01
  3.016775e+01    6.978559e-01
  3.018362e+01    7.092348e-01
  3.019950e+01    7.109932e-01
  3.021537e+01    7.136441e-01
  3.023125e+01    6.969537e-01
  3.024712e+01    6.862101e-01
  3.026300e+01    7.004099e-01
  3.027888e+01    7.050505e-01
  3.029475e+01    6.985901e-01
  3.031063e+01    7.102195e-01
  3.032650e+01    7.081236e-01
  3.034238e+01    6.981751e-01
  3.035825e+01    7.114516e-01
  3.037413e+01    7.118236e-01
  3.039000e+01    6.979210e-01
  3.040588e+01    7.135778e-01
  3.042176e+01    7.204002e-01
  3.043763e+01    7.006659e-01
  3.045351e+01    7.279423e-01
  3.046938e+01    7.144546e-01
  3.048526e+01    7.058404e-01
  3.050113e+01    6.921644e-01
  3.051701e+01    7.092721e-01
  3.053288e+01    6.976663e-01
  3.054876e+01    7.015432e-01
  3.056464e+01    7.248198e-01
  3.058051e+01    7.194293e-01
  3.059639e+01    7.092591e-01
  3.061226e+01    7.266470e-01
  3.062814e+01    7.192947e-01
  3.064401e+01    7.138741e-01
  3.065989e+01    6.974127e-01
  3.067577e+01    7.167680e-01
  3.069164e+01    7.036815e-01
  3.070752e+01    6.920732e-01
  3.072339e+01    6.862023e-01
  3.073927e+01    7.154251e-01
  3.075514e+01    7.105996e-01
  3.077102e+01    7.013609e-01
  3.078689e+01    7.053754e-01
  3.080277e+01    7.196084e-01
  3.081865e+01    7.073241e-01
  3.083452e+01    7.059680e-01
  3.085040e+01    7.310722e-01
  3.086627e+01    7.242196e-01
  3.088215e+01    7.221565e-01
  3.089802e+01    7.082326e-01
  3.091390e+01    6.870127e-01
  3.092977e+01    7.127643e-01
  3.094565e+01    7.006952e-01
  3.096153e+01    6.921001e-01
  3.097740e+01    7.040878e-01
  3.099328e+01    6.996070e-01
  3.100915e+01    7.111528e-01
  3.102503e+01    7.036107e-01
  3.104090e+01    7.218276e-01
  3.105678e+01    7.200791e-01
  3.107265e+01    7.078851e-01
  3.108853e+01    6.928617e-01
  3.110441e+01    6.980671e-01
  3.112028e+01    7.149684e-01
  3.113616e+01    7.089013e-01
  3.115203e+01    7.217956e-01
  3.116791e+01    6.931191e-01
  3.118378e+01    7.238580e-01
  3.119966e+01    7.282676e-01
  3.121553e+01    7.223415e-01
  3.123141e+01    7.126974e-01
  3.124729e+01    7.103903e-01
  3.126316e+01    7.206829e-01
  3.127904e+01    7.281988e-01
  3.129491e+01    7.387257e-01
  3.131079e+01    7.150803e-01
  3.132666e+01    7.386880e-01
  3.134254e+01    7.357310e-01
  3.135841e+01    7.303845e-01
  3.137429e+01    7.308520e-01
  3.139017e+01    7.330062e-01
  3.140604e+01    7.318333e-01
  3.142192e+01    7.512396e-01
  3.143779e+01    7.293687e-01
  3.145367e+01    7.431565e-01
  3.146954e+01    7.363054e-01
  3.148542e+01    7.437297e-01
  3.150129e+01    7.559758e-01
  3.151717e+01    7.788193e-01
  3.153305e+01    7.600138e-01
  3.154892e+01    7.850585e-01
  3.156480e+01    7.783762e-01
  3.158067e+01    8.086909e-01
  3.159655e+01    8.246006e-01
  3.161242e+01    8.286184e-01
  3.162830e+01    8.236083e-01
  3.164418e+01    8.475768e-01
  3.166005e+01    8.627205e-01
  3.167593e+01    9.074502e-01
  3.169180e+01    9.505833e-01
  3.170768e+01    9.651068e-01
  3.172355e+01    9.914476e-01
  3.173943e+01    1.056355e+00
  3.175530e+01    1.109217e+00
  3.177118e+01    1.203692e+00
  3.178706e+01    1.299714e+00
  3.180293e+01    1.402334e+00
  3.181881e+01    1.544162e+00
  3.183468e+01    1.658496e+00
  3.185056e+01    1.817091e+00
  3.186643e+01    1.937435e+00
  3.188231e+01    2.028382e+00
  3.189818e+01    2.119216e+00
  3.191406e+01    2.150645e+00
  3.192994e+01    2.104183e+00
  3.194581e+01    2.030843e+00
  3.196169e+01    1.828721e+00
  3.197756e+01    1.695572e+00
  3.199344e+01    1.560423e+00
  3.200931e+01    1.438129e+00
  3.202519e+01    1.309789e+00
  3.204106e+01    1.200349e+00
  3.205694e+01    1.103167e+00
  3.207282e+01    1.057456e+00
  3.208869e+01    9.943578e-01
  3.210457e+01    9.464334e-01
  3.212044e+01    8.979421e-01
  3.213632e+01    8.789067e-01
  3.215219e+01    8.345131e-01
  3.216807e+01    8.421821e-01
  3.218394e+01    8.356569e-01
  3.219982e+01    8.143022e-01
  3.221570e+01    7.975631e-01
  3.223157e+01    7.891139e-01
  3.224745e+01    8.034495e-01
  3.226332e+01    7.679490e-01
  3.227920e+01    7.604914e-01
  3.229507e+01    7.573114e-01
  3.231095e+01    7.462992e-01
  3.232682e+01    7.309904e-01
  3.234270e+01    7.375895e-01
  3.235858e+01    7.570684e-01
  3.237445e+01    7.170113e-01
  3.239033e+01    7.211479e-01
  3.240620e+01    7.224371e-01
  3.242208e+01    7.305504e-01
  3.243795e+01    7.390047e-01
  3.245383e+01    7.310721e-01
  3.246970e+01    7.286552e-01
  3.248558e+01    7.277139e-01
  3.250146e+01    7.116043e-01
  3.251733e+01    7.128082e-01
  3.253321e+01    7.263904e-01
  3.254908e+01    7.148507e-01
