# == pyFAI calibration ==
# Distance Sample to Detector: 0.3999999939076516 m
# PONI: 9.750e-02, 1.135e-01 m
# Rotations: -0.000175 0.000000 -0.000000 rad
# 
# == Fit2d calibration ==
# Distance Sample-beamCenter: 400.000 mm
# Center: x=1514.000, y=1300.000 pix
# Tilt: 0.010 deg  TiltPlanRot: 0.010 deg
# 
# Detector Detector	 Spline= None	 PixelSize= 7.500e-05, 7.500e-05 m
#    Detector has a mask: False 
#    Detector has a dark current: False 
#    detector has a flat field: False 
# 
# Wavelength: 6.888e-11 m
# Mask applied: user provided
# Dark current applied: False
# Flat field applied: False
# Polarization factor: 0.99
# Normalization factor: 1.0
# --> /home/myspot/data/2024_07_Rosario/Ru-CGO-ex/2024-07-27_002_Ru-CGO-ex_Activtation_ramp_000002_data_000104.dat
#       q_nm^-1             I 
  2.003187e-02    0.000000e+00
  3.590745e-02    0.000000e+00
  5.178302e-02    2.670345e-02
  6.765859e-02    1.623986e-01
  8.353417e-02    1.730379e-01
  9.940974e-02    4.273004e-02
  1.152853e-01    4.418371e-02
  1.311609e-01    9.577664e-02
  1.470365e-01    7.199467e-02
  1.629120e-01    6.273117e-02
  1.787876e-01    7.802333e-02
  1.946632e-01    5.037232e-02
  2.105388e-01    3.291861e-02
  2.264143e-01    4.275197e-02
  2.422899e-01    2.806027e-02
  2.581655e-01    2.718052e-02
  2.740411e-01    4.835742e-02
  2.899166e-01    2.849117e-02
  3.057922e-01    3.734796e-02
  3.216678e-01    4.174879e-02
  3.375433e-01    9.118216e-02
  3.534189e-01    6.162198e-02
  3.692945e-01    3.346188e-02
  3.851701e-01    3.726127e-02
  4.010456e-01    3.648018e-02
  4.169212e-01    1.733218e-02
  4.327968e-01    2.932528e-02
  4.486724e-01    2.379685e-02
  4.645479e-01    2.114651e-02
  4.804235e-01    4.261546e-02
  4.962991e-01    7.174748e-02
  5.121747e-01    2.699094e-02
  5.280502e-01    3.138062e-02
  5.439258e-01    5.107893e-02
  5.598014e-01    2.172059e-02
  5.756770e-01    2.568423e-02
  5.915525e-01    4.786460e-02
  6.074281e-01    4.210060e-02
  6.233037e-01    2.912061e-02
  6.391793e-01    2.569789e-02
  6.550548e-01    3.112659e-02
  6.709304e-01    3.031866e-02
  6.868060e-01    4.607815e-02
  7.026815e-01    4.875148e-02
  7.185571e-01    3.236874e-02
  7.344327e-01    3.944359e-02
  7.503083e-01    4.149392e-02
  7.661838e-01    4.867087e-02
  7.820594e-01    7.807402e-02
  7.979350e-01    1.341043e-01
  8.138106e-01    1.963656e-01
  8.296861e-01    2.342891e-01
  8.455617e-01    2.637007e-01
  8.614373e-01    4.245078e-01
  8.773129e-01    4.844015e-01
  8.931884e-01    5.408322e-01
  9.090640e-01    6.427218e-01
  9.249396e-01    7.141802e-01
  9.408152e-01    7.818589e-01
  9.566907e-01    7.852362e-01
  9.725663e-01    8.464315e-01
  9.884419e-01    1.016343e+00
  1.004317e+00    1.056913e+00
  1.020193e+00    1.061154e+00
  1.036069e+00    1.073116e+00
  1.051944e+00    1.214116e+00
  1.067820e+00    1.273336e+00
  1.083695e+00    1.412751e+00
  1.099571e+00    1.320749e+00
  1.115446e+00    1.337546e+00
  1.131322e+00    1.471536e+00
  1.147198e+00    1.460374e+00
  1.163073e+00    1.518146e+00
  1.178949e+00    1.528262e+00
  1.194824e+00    1.622787e+00
  1.210700e+00    1.770761e+00
  1.226575e+00    2.118790e+00
  1.242451e+00    2.193369e+00
  1.258327e+00    2.160023e+00
  1.274202e+00    2.260071e+00
  1.290078e+00    2.407130e+00
  1.305953e+00    2.460036e+00
  1.321829e+00    2.513126e+00
  1.337705e+00    2.471914e+00
  1.353580e+00    2.612856e+00
  1.369456e+00    2.607861e+00
  1.385331e+00    2.572991e+00
  1.401207e+00    2.634418e+00
  1.417082e+00    2.679086e+00
  1.432958e+00    2.623911e+00
  1.448834e+00    2.663409e+00
  1.464709e+00    2.593463e+00
  1.480585e+00    2.761678e+00
  1.496460e+00    2.850675e+00
  1.512336e+00    2.783950e+00
  1.528211e+00    2.898587e+00
  1.544087e+00    2.950730e+00
  1.559963e+00    2.928601e+00
  1.575838e+00    2.879619e+00
  1.591714e+00    2.930324e+00
  1.607589e+00    2.917031e+00
  1.623465e+00    2.846416e+00
  1.639340e+00    2.756747e+00
  1.655216e+00    2.706561e+00
  1.671092e+00    2.873654e+00
  1.686967e+00    2.892098e+00
  1.702843e+00    2.950443e+00
  1.718718e+00    2.899831e+00
  1.734594e+00    2.779793e+00
  1.750469e+00    2.785698e+00
  1.766345e+00    2.811847e+00
  1.782221e+00    2.796905e+00
  1.798096e+00    2.660081e+00
  1.813972e+00    2.603564e+00
  1.829847e+00    2.693299e+00
  1.845723e+00    2.664442e+00
  1.861598e+00    2.652602e+00
  1.877474e+00    2.641942e+00
  1.893350e+00    2.683999e+00
  1.909225e+00    2.745574e+00
  1.925101e+00    2.715859e+00
  1.940976e+00    2.832556e+00
  1.956852e+00    2.740315e+00
  1.972727e+00    2.764925e+00
  1.988603e+00    2.725868e+00
  2.004479e+00    2.739386e+00
  2.020354e+00    2.678946e+00
  2.036230e+00    2.617959e+00
  2.052105e+00    2.725208e+00
  2.067981e+00    2.698205e+00
  2.083856e+00    2.641340e+00
  2.099732e+00    2.645372e+00
  2.115608e+00    2.715991e+00
  2.131483e+00    2.747832e+00
  2.147359e+00    2.721324e+00
  2.163234e+00    2.679471e+00
  2.179110e+00    2.637656e+00
  2.194985e+00    2.756201e+00
  2.210861e+00    2.598492e+00
  2.226737e+00    2.625479e+00
  2.242612e+00    2.748919e+00
  2.258488e+00    2.696946e+00
  2.274363e+00    2.643114e+00
  2.290239e+00    2.778385e+00
  2.306115e+00    2.696133e+00
  2.321990e+00    2.662717e+00
  2.337866e+00    2.772770e+00
  2.353741e+00    2.646867e+00
  2.369617e+00    2.614709e+00
  2.385492e+00    2.682770e+00
  2.401368e+00    2.696110e+00
  2.417244e+00    2.715371e+00
  2.433119e+00    2.730635e+00
  2.448995e+00    2.716910e+00
  2.464870e+00    2.719674e+00
  2.480746e+00    2.765107e+00
  2.496621e+00    2.851328e+00
  2.512497e+00    2.834778e+00
  2.528373e+00    2.770076e+00
  2.544248e+00    2.754008e+00
  2.560124e+00    2.704998e+00
  2.575999e+00    2.826883e+00
  2.591875e+00    2.746790e+00
  2.607750e+00    2.716562e+00
  2.623626e+00    2.725267e+00
  2.639502e+00    2.822644e+00
  2.655377e+00    2.736982e+00
  2.671253e+00    2.779298e+00
  2.687128e+00    2.785098e+00
  2.703004e+00    2.706130e+00
  2.718879e+00    2.756811e+00
  2.734755e+00    2.800421e+00
  2.750631e+00    2.826319e+00
  2.766506e+00    2.771874e+00
  2.782382e+00    2.780096e+00
  2.798257e+00    2.694815e+00
  2.814133e+00    2.701362e+00
  2.830008e+00    2.823315e+00
  2.845884e+00    2.782680e+00
  2.861760e+00    2.801242e+00
  2.877635e+00    2.703995e+00
  2.893511e+00    2.802244e+00
  2.909386e+00    2.791646e+00
  2.925262e+00    2.861209e+00
  2.941137e+00    2.808385e+00
  2.957013e+00    2.819725e+00
  2.972889e+00    2.830618e+00
  2.988764e+00    2.795764e+00
  3.004640e+00    2.865076e+00
  3.020515e+00    2.929750e+00
  3.036391e+00    2.855673e+00
  3.052266e+00    2.912746e+00
  3.068142e+00    2.887295e+00
  3.084018e+00    2.779410e+00
  3.099893e+00    2.765004e+00
  3.115769e+00    2.846770e+00
  3.131644e+00    2.889700e+00
  3.147520e+00    2.852821e+00
  3.163395e+00    2.889121e+00
  3.179271e+00    2.855043e+00
  3.195147e+00    2.777987e+00
  3.211022e+00    2.882627e+00
  3.226898e+00    2.880887e+00
  3.242773e+00    2.904035e+00
  3.258649e+00    2.836194e+00
  3.274525e+00    2.764650e+00
  3.290400e+00    2.778947e+00
  3.306276e+00    2.852851e+00
  3.322151e+00    2.921335e+00
  3.338027e+00    2.993590e+00
  3.353902e+00    2.955781e+00
  3.369778e+00    2.880916e+00
  3.385654e+00    2.843809e+00
  3.401529e+00    2.912532e+00
  3.417405e+00    2.909819e+00
  3.433280e+00    2.931254e+00
  3.449156e+00    2.884844e+00
  3.465031e+00    2.959206e+00
  3.480907e+00    2.997745e+00
  3.496783e+00    2.970953e+00
  3.512658e+00    2.906167e+00
  3.528534e+00    2.891437e+00
  3.544409e+00    2.887859e+00
  3.560285e+00    2.863418e+00
  3.576160e+00    2.811160e+00
  3.592036e+00    2.932271e+00
  3.607912e+00    2.925857e+00
  3.623787e+00    2.938733e+00
  3.639663e+00    2.958037e+00
  3.655538e+00    2.985153e+00
  3.671414e+00    2.973860e+00
  3.687289e+00    2.984275e+00
  3.703165e+00    2.964128e+00
  3.719041e+00    2.973735e+00
  3.734916e+00    2.942623e+00
  3.750792e+00    2.925696e+00
  3.766667e+00    2.956740e+00
  3.782543e+00    2.924185e+00
  3.798418e+00    2.924777e+00
  3.814294e+00    2.907251e+00
  3.830170e+00    2.986806e+00
  3.846045e+00    3.058111e+00
  3.861921e+00    3.011044e+00
  3.877796e+00    2.932239e+00
  3.893672e+00    2.946134e+00
  3.909547e+00    2.948869e+00
  3.925423e+00    3.058620e+00
  3.941299e+00    2.990554e+00
  3.957174e+00    2.937588e+00
  3.973050e+00    2.993027e+00
  3.988925e+00    2.981360e+00
  4.004801e+00    2.967833e+00
  4.020676e+00    2.904906e+00
  4.036552e+00    2.976048e+00
  4.052428e+00    2.945591e+00
  4.068303e+00    2.895316e+00
  4.084179e+00    2.960410e+00
  4.100054e+00    3.034142e+00
  4.115930e+00    2.939022e+00
  4.131806e+00    3.017067e+00
  4.147681e+00    3.020340e+00
  4.163557e+00    3.023052e+00
  4.179432e+00    2.970707e+00
  4.195308e+00    3.029554e+00
  4.211183e+00    2.935058e+00
  4.227059e+00    2.970448e+00
  4.242935e+00    3.012199e+00
  4.258810e+00    3.019487e+00
  4.274686e+00    2.988384e+00
  4.290561e+00    3.029993e+00
  4.306437e+00    3.068345e+00
  4.322312e+00    3.021939e+00
  4.338188e+00    2.989290e+00
  4.354064e+00    3.074724e+00
  4.369939e+00    3.079243e+00
  4.385815e+00    3.050663e+00
  4.401690e+00    3.010409e+00
  4.417566e+00    2.991046e+00
  4.433441e+00    3.032348e+00
  4.449317e+00    3.061834e+00
  4.465193e+00    3.054359e+00
  4.481068e+00    3.045530e+00
  4.496944e+00    3.043968e+00
  4.512819e+00    3.059846e+00
  4.528695e+00    3.074956e+00
  4.544570e+00    3.014377e+00
  4.560446e+00    3.052705e+00
  4.576322e+00    3.054260e+00
  4.592197e+00    3.037165e+00
  4.608073e+00    3.092206e+00
  4.623948e+00    3.152327e+00
  4.639824e+00    3.031386e+00
  4.655699e+00    2.969813e+00
  4.671575e+00    2.982556e+00
  4.687451e+00    3.062500e+00
  4.703326e+00    3.014226e+00
  4.719202e+00    2.965587e+00
  4.735077e+00    3.001292e+00
  4.750953e+00    3.054761e+00
  4.766828e+00    3.115968e+00
  4.782704e+00    3.152837e+00
  4.798580e+00    3.068830e+00
  4.814455e+00    3.056547e+00
  4.830331e+00    3.062852e+00
  4.846206e+00    3.033941e+00
  4.862082e+00    3.014659e+00
  4.877957e+00    3.091064e+00
  4.893833e+00    3.059047e+00
  4.909709e+00    3.088382e+00
  4.925584e+00    3.110032e+00
  4.941460e+00    3.113702e+00
  4.957335e+00    3.102742e+00
  4.973211e+00    3.062419e+00
  4.989086e+00    3.085268e+00
  5.004962e+00    3.103095e+00
  5.020838e+00    2.997921e+00
  5.036713e+00    2.989898e+00
  5.052589e+00    3.049999e+00
  5.068464e+00    3.052988e+00
  5.084340e+00    3.000776e+00
  5.100216e+00    3.030897e+00
  5.116091e+00    3.075883e+00
  5.131967e+00    3.089216e+00
  5.147842e+00    3.120728e+00
  5.163718e+00    3.075243e+00
  5.179593e+00    3.036946e+00
  5.195469e+00    3.020397e+00
  5.211345e+00    3.029287e+00
  5.227220e+00    3.097926e+00
  5.243096e+00    3.054878e+00
  5.258971e+00    3.009134e+00
  5.274847e+00    3.025634e+00
  5.290722e+00    3.099963e+00
  5.306598e+00    3.105663e+00
  5.322474e+00    3.061805e+00
  5.338349e+00    3.080017e+00
  5.354225e+00    3.119033e+00
  5.370100e+00    3.116054e+00
  5.385976e+00    3.098322e+00
  5.401851e+00    3.076518e+00
  5.417727e+00    3.078947e+00
  5.433603e+00    3.059856e+00
  5.449478e+00    3.061009e+00
  5.465354e+00    3.080135e+00
  5.481229e+00    3.111840e+00
  5.497105e+00    3.037946e+00
  5.512980e+00    3.056362e+00
  5.528856e+00    3.137053e+00
  5.544732e+00    3.056430e+00
  5.560607e+00    3.047710e+00
  5.576483e+00    2.977866e+00
  5.592358e+00    3.020021e+00
  5.608234e+00    3.015418e+00
  5.624109e+00    3.083238e+00
  5.639985e+00    3.076630e+00
  5.655861e+00    2.970791e+00
  5.671736e+00    2.985953e+00
  5.687612e+00    3.013947e+00
  5.703487e+00    2.976053e+00
  5.719363e+00    3.000352e+00
  5.735238e+00    3.080366e+00
  5.751114e+00    2.985124e+00
  5.766990e+00    2.924974e+00
  5.782865e+00    2.919904e+00
  5.798741e+00    2.925466e+00
  5.814616e+00    3.042689e+00
  5.830492e+00    2.976303e+00
  5.846367e+00    2.932876e+00
  5.862243e+00    2.910399e+00
  5.878119e+00    2.997053e+00
  5.893994e+00    3.047851e+00
  5.909870e+00    3.025909e+00
  5.925745e+00    2.954209e+00
  5.941621e+00    2.933351e+00
  5.957497e+00    2.911679e+00
  5.973372e+00    2.952311e+00
  5.989248e+00    2.963134e+00
  6.005123e+00    2.902097e+00
  6.020999e+00    2.914844e+00
  6.036874e+00    2.971639e+00
  6.052750e+00    2.987954e+00
  6.068626e+00    2.964656e+00
  6.084501e+00    2.960108e+00
  6.100377e+00    3.021167e+00
  6.116252e+00    2.960980e+00
  6.132128e+00    3.033336e+00
  6.148003e+00    2.968468e+00
  6.163879e+00    2.957181e+00
  6.179755e+00    3.027896e+00
  6.195630e+00    2.986293e+00
  6.211506e+00    2.991608e+00
  6.227381e+00    2.997793e+00
  6.243257e+00    3.036651e+00
  6.259132e+00    2.931783e+00
  6.275008e+00    2.923453e+00
  6.290884e+00    2.992043e+00
  6.306759e+00    2.944396e+00
  6.322635e+00    2.956560e+00
  6.338510e+00    2.965302e+00
  6.354386e+00    2.983134e+00
  6.370261e+00    3.027466e+00
  6.386137e+00    2.976276e+00
  6.402013e+00    2.969900e+00
  6.417888e+00    3.058823e+00
  6.433764e+00    3.013678e+00
  6.449639e+00    3.025598e+00
  6.465515e+00    3.063817e+00
  6.481390e+00    2.995794e+00
  6.497266e+00    2.980374e+00
  6.513142e+00    3.031173e+00
  6.529017e+00    2.978454e+00
  6.544893e+00    2.937038e+00
  6.560768e+00    2.991418e+00
  6.576644e+00    2.982908e+00
  6.592519e+00    2.938824e+00
  6.608395e+00    2.958977e+00
  6.624271e+00    2.972205e+00
  6.640146e+00    2.988271e+00
  6.656022e+00    2.990871e+00
  6.671897e+00    2.985443e+00
  6.687773e+00    2.895700e+00
  6.703648e+00    2.895183e+00
  6.719524e+00    3.009024e+00
  6.735400e+00    3.037558e+00
  6.751275e+00    3.028621e+00
  6.767151e+00    2.941388e+00
  6.783026e+00    2.963816e+00
  6.798902e+00    3.021206e+00
  6.814777e+00    3.026370e+00
  6.830653e+00    2.995180e+00
  6.846529e+00    2.927389e+00
  6.862404e+00    2.918106e+00
  6.878280e+00    2.937941e+00
  6.894155e+00    2.905111e+00
  6.910031e+00    2.943572e+00
  6.925907e+00    3.023157e+00
  6.941782e+00    2.985812e+00
  6.957658e+00    2.988698e+00
  6.973533e+00    2.938839e+00
  6.989409e+00    2.906160e+00
  7.005284e+00    2.927691e+00
  7.021160e+00    2.925289e+00
  7.037036e+00    2.973291e+00
  7.052911e+00    3.031233e+00
  7.068787e+00    3.002834e+00
  7.084662e+00    3.006755e+00
  7.100538e+00    2.968733e+00
  7.116413e+00    2.965709e+00
  7.132289e+00    2.948807e+00
  7.148165e+00    2.933683e+00
  7.164040e+00    2.875100e+00
  7.179916e+00    2.925245e+00
  7.195791e+00    3.006000e+00
  7.211667e+00    2.971843e+00
  7.227542e+00    2.913328e+00
  7.243418e+00    2.888490e+00
  7.259294e+00    2.959667e+00
  7.275169e+00    2.906930e+00
  7.291045e+00    2.933867e+00
  7.306920e+00    3.003756e+00
  7.322796e+00    2.993138e+00
  7.338671e+00    2.923946e+00
  7.354547e+00    2.906396e+00
  7.370423e+00    2.962592e+00
  7.386298e+00    2.953125e+00
  7.402174e+00    2.970820e+00
  7.418049e+00    2.913237e+00
  7.433925e+00    2.975816e+00
  7.449800e+00    2.910044e+00
  7.465676e+00    2.935317e+00
  7.481552e+00    2.952914e+00
  7.497427e+00    2.928993e+00
  7.513303e+00    2.938910e+00
  7.529178e+00    2.974109e+00
  7.545054e+00    2.931177e+00
  7.560929e+00    2.920416e+00
  7.576805e+00    2.891476e+00
  7.592681e+00    2.835007e+00
  7.608556e+00    2.873373e+00
  7.624432e+00    2.876271e+00
  7.640307e+00    2.919113e+00
  7.656183e+00    2.949537e+00
  7.672058e+00    2.934429e+00
  7.687934e+00    2.928328e+00
  7.703810e+00    2.880087e+00
  7.719685e+00    2.896773e+00
  7.735561e+00    2.947465e+00
  7.751436e+00    2.922211e+00
  7.767312e+00    2.897070e+00
  7.783187e+00    2.885619e+00
  7.799063e+00    2.843829e+00
  7.814939e+00    2.836778e+00
  7.830814e+00    2.867882e+00
  7.846690e+00    2.907118e+00
  7.862565e+00    2.866285e+00
  7.878441e+00    2.846496e+00
  7.894317e+00    2.872554e+00
  7.910192e+00    2.867687e+00
  7.926068e+00    2.946159e+00
  7.941943e+00    2.925425e+00
  7.957819e+00    2.831338e+00
  7.973694e+00    2.797024e+00
  7.989570e+00    2.854548e+00
  8.005446e+00    2.811242e+00
  8.021321e+00    2.876994e+00
  8.037197e+00    2.882530e+00
  8.053072e+00    2.938364e+00
  8.068948e+00    2.941116e+00
  8.084823e+00    2.896625e+00
  8.100699e+00    2.889371e+00
  8.116575e+00    2.866627e+00
  8.132450e+00    2.826940e+00
  8.148326e+00    2.850612e+00
  8.164201e+00    2.833560e+00
  8.180077e+00    2.871378e+00
  8.195952e+00    2.925798e+00
  8.211828e+00    2.938056e+00
  8.227704e+00    2.965899e+00
  8.243579e+00    2.933673e+00
  8.259455e+00    2.926018e+00
  8.275330e+00    2.831187e+00
  8.291206e+00    2.821316e+00
  8.307081e+00    2.850244e+00
  8.322957e+00    2.847715e+00
  8.338833e+00    2.845249e+00
  8.354708e+00    2.897050e+00
  8.370584e+00    2.816229e+00
  8.386459e+00    2.857467e+00
  8.402335e+00    2.824854e+00
  8.418210e+00    2.804388e+00
  8.434086e+00    2.806246e+00
  8.449962e+00    2.868239e+00
  8.465837e+00    2.859581e+00
  8.481713e+00    2.883212e+00
  8.497588e+00    2.819959e+00
  8.513464e+00    2.812770e+00
  8.529339e+00    2.828153e+00
  8.545215e+00    2.849747e+00
  8.561091e+00    2.810482e+00
  8.576966e+00    2.810256e+00
  8.592842e+00    2.818428e+00
  8.608717e+00    2.810126e+00
  8.624593e+00    2.848735e+00
  8.640468e+00    2.779814e+00
  8.656344e+00    2.802239e+00
  8.672220e+00    2.831435e+00
  8.688095e+00    2.824903e+00
  8.703971e+00    2.787903e+00
  8.719846e+00    2.786789e+00
  8.735722e+00    2.860945e+00
  8.751598e+00    2.869833e+00
  8.767473e+00    2.816574e+00
  8.783349e+00    2.764634e+00
  8.799224e+00    2.773314e+00
  8.815100e+00    2.797150e+00
  8.830975e+00    2.794445e+00
  8.846851e+00    2.758887e+00
  8.862727e+00    2.774155e+00
  8.878602e+00    2.786804e+00
  8.894478e+00    2.801830e+00
  8.910353e+00    2.796158e+00
  8.926229e+00    2.791388e+00
  8.942104e+00    2.794122e+00
  8.957980e+00    2.819128e+00
  8.973856e+00    2.767206e+00
  8.989731e+00    2.740946e+00
  9.005607e+00    2.810897e+00
  9.021482e+00    2.790933e+00
  9.037358e+00    2.810469e+00
  9.053233e+00    2.829930e+00
  9.069109e+00    2.808948e+00
  9.084985e+00    2.783626e+00
  9.100860e+00    2.748424e+00
  9.116736e+00    2.756232e+00
  9.132611e+00    2.742925e+00
  9.148487e+00    2.759801e+00
  9.164362e+00    2.737759e+00
  9.180238e+00    2.732268e+00
  9.196114e+00    2.730957e+00
  9.211989e+00    2.736327e+00
  9.227865e+00    2.783751e+00
  9.243740e+00    2.748205e+00
  9.259616e+00    2.753228e+00
  9.275491e+00    2.691664e+00
  9.291367e+00    2.726471e+00
  9.307243e+00    2.748478e+00
  9.323118e+00    2.752119e+00
  9.338994e+00    2.755032e+00
  9.354869e+00    2.720209e+00
  9.370745e+00    2.741666e+00
  9.386620e+00    2.750845e+00
  9.402496e+00    2.749167e+00
  9.418372e+00    2.694107e+00
  9.434247e+00    2.683328e+00
  9.450123e+00    2.750966e+00
  9.465998e+00    2.684136e+00
  9.481874e+00    2.745455e+00
  9.497749e+00    2.733190e+00
  9.513625e+00    2.729113e+00
  9.529501e+00    2.681069e+00
  9.545376e+00    2.718098e+00
  9.561252e+00    2.755904e+00
  9.577127e+00    2.719137e+00
  9.593003e+00    2.718600e+00
  9.608878e+00    2.714127e+00
  9.624754e+00    2.714364e+00
  9.640630e+00    2.708662e+00
  9.656505e+00    2.698000e+00
  9.672381e+00    2.692422e+00
  9.688256e+00    2.668561e+00
  9.704132e+00    2.672190e+00
  9.720008e+00    2.657734e+00
  9.735883e+00    2.653057e+00
  9.751759e+00    2.650579e+00
  9.767634e+00    2.685040e+00
  9.783510e+00    2.727242e+00
  9.799385e+00    2.664359e+00
  9.815261e+00    2.658911e+00
  9.831137e+00    2.636444e+00
  9.847012e+00    2.694536e+00
  9.862888e+00    2.673774e+00
  9.878763e+00    2.652729e+00
  9.894639e+00    2.621591e+00
  9.910514e+00    2.644560e+00
  9.926390e+00    2.616643e+00
  9.942266e+00    2.600610e+00
  9.958141e+00    2.629585e+00
  9.974017e+00    2.636181e+00
  9.989892e+00    2.609611e+00
  1.000577e+01    2.598284e+00
  1.002164e+01    2.602279e+00
  1.003752e+01    2.651263e+00
  1.005339e+01    2.671463e+00
  1.006927e+01    2.636055e+00
  1.008515e+01    2.611223e+00
  1.010102e+01    2.594873e+00
  1.011690e+01    2.556890e+00
  1.013277e+01    2.625410e+00
  1.014865e+01    2.640988e+00
  1.016452e+01    2.630633e+00
  1.018040e+01    2.636138e+00
  1.019627e+01    2.596135e+00
  1.021215e+01    2.587929e+00
  1.022803e+01    2.554301e+00
  1.024390e+01    2.572039e+00
  1.025978e+01    2.559224e+00
  1.027565e+01    2.585758e+00
  1.029153e+01    2.576017e+00
  1.030740e+01    2.531351e+00
  1.032328e+01    2.538438e+00
  1.033915e+01    2.537882e+00
  1.035503e+01    2.570495e+00
  1.037091e+01    2.580590e+00
  1.038678e+01    2.565660e+00
  1.040266e+01    2.586775e+00
  1.041853e+01    2.556567e+00
  1.043441e+01    2.540900e+00
  1.045028e+01    2.527125e+00
  1.046616e+01    2.560573e+00
  1.048204e+01    2.520477e+00
  1.049791e+01    2.503107e+00
  1.051379e+01    2.539286e+00
  1.052966e+01    2.541094e+00
  1.054554e+01    2.556081e+00
  1.056141e+01    2.599213e+00
  1.057729e+01    2.569706e+00
  1.059316e+01    2.557875e+00
  1.060904e+01    2.543666e+00
  1.062492e+01    2.550367e+00
  1.064079e+01    2.553736e+00
  1.065667e+01    2.528402e+00
  1.067254e+01    2.490480e+00
  1.068842e+01    2.487314e+00
  1.070429e+01    2.482456e+00
  1.072017e+01    2.490693e+00
  1.073604e+01    2.480334e+00
  1.075192e+01    2.542085e+00
  1.076780e+01    2.529193e+00
  1.078367e+01    2.523346e+00
  1.079955e+01    2.544183e+00
  1.081542e+01    2.525202e+00
  1.083130e+01    2.484537e+00
  1.084717e+01    2.489709e+00
  1.086305e+01    2.438830e+00
  1.087892e+01    2.482988e+00
  1.089480e+01    2.484977e+00
  1.091068e+01    2.476748e+00
  1.092655e+01    2.412612e+00
  1.094243e+01    2.397562e+00
  1.095830e+01    2.431853e+00
  1.097418e+01    2.479001e+00
  1.099005e+01    2.465721e+00
  1.100593e+01    2.450444e+00
  1.102180e+01    2.488211e+00
  1.103768e+01    2.476929e+00
  1.105356e+01    2.478295e+00
  1.106943e+01    2.452915e+00
  1.108531e+01    2.442924e+00
  1.110118e+01    2.465135e+00
  1.111706e+01    2.468265e+00
  1.113293e+01    2.437592e+00
  1.114881e+01    2.415698e+00
  1.116468e+01    2.366015e+00
  1.118056e+01    2.395397e+00
  1.119644e+01    2.442094e+00
  1.121231e+01    2.460566e+00
  1.122819e+01    2.465010e+00
  1.124406e+01    2.421439e+00
  1.125994e+01    2.346892e+00
  1.127581e+01    2.386173e+00
  1.129169e+01    2.367091e+00
  1.130756e+01    2.353185e+00
  1.132344e+01    2.396622e+00
  1.133932e+01    2.374629e+00
  1.135519e+01    2.379281e+00
  1.137107e+01    2.425918e+00
  1.138694e+01    2.386023e+00
  1.140282e+01    2.362434e+00
  1.141869e+01    2.363474e+00
  1.143457e+01    2.408323e+00
  1.145045e+01    2.385591e+00
  1.146632e+01    2.365849e+00
  1.148220e+01    2.383810e+00
  1.149807e+01    2.363277e+00
  1.151395e+01    2.409139e+00
  1.152982e+01    2.332643e+00
  1.154570e+01    2.341793e+00
  1.156157e+01    2.364015e+00
  1.157745e+01    2.324505e+00
  1.159333e+01    2.329578e+00
  1.160920e+01    2.331464e+00
  1.162508e+01    2.379665e+00
  1.164095e+01    2.386062e+00
  1.165683e+01    2.393477e+00
  1.167270e+01    2.368342e+00
  1.168858e+01    2.360875e+00
  1.170445e+01    2.351873e+00
  1.172033e+01    2.414691e+00
  1.173621e+01    2.380921e+00
  1.175208e+01    2.354506e+00
  1.176796e+01    2.353915e+00
  1.178383e+01    2.315269e+00
  1.179971e+01    2.332180e+00
  1.181558e+01    2.322333e+00
  1.183146e+01    2.302487e+00
  1.184733e+01    2.309756e+00
  1.186321e+01    2.304924e+00
  1.187909e+01    2.314323e+00
  1.189496e+01    2.272763e+00
  1.191084e+01    2.293192e+00
  1.192671e+01    2.316975e+00
  1.194259e+01    2.314568e+00
  1.195846e+01    2.322865e+00
  1.197434e+01    2.313892e+00
  1.199021e+01    2.294979e+00
  1.200609e+01    2.338769e+00
  1.202197e+01    2.321545e+00
  1.203784e+01    2.281599e+00
  1.205372e+01    2.279212e+00
  1.206959e+01    2.316296e+00
  1.208547e+01    2.277072e+00
  1.210134e+01    2.285297e+00
  1.211722e+01    2.290330e+00
  1.213309e+01    2.286588e+00
  1.214897e+01    2.309978e+00
  1.216485e+01    2.316655e+00
  1.218072e+01    2.256021e+00
  1.219660e+01    2.211139e+00
  1.221247e+01    2.257311e+00
  1.222835e+01    2.259378e+00
  1.224422e+01    2.312189e+00
  1.226010e+01    2.339263e+00
  1.227597e+01    2.342412e+00
  1.229185e+01    2.305402e+00
  1.230773e+01    2.286019e+00
  1.232360e+01    2.316627e+00
  1.233948e+01    2.333239e+00
  1.235535e+01    2.276782e+00
  1.237123e+01    2.305122e+00
  1.238710e+01    2.254385e+00
  1.240298e+01    2.267021e+00
  1.241886e+01    2.298361e+00
  1.243473e+01    2.292604e+00
  1.245061e+01    2.260623e+00
  1.246648e+01    2.292313e+00
  1.248236e+01    2.345522e+00
  1.249823e+01    2.282356e+00
  1.251411e+01    2.305720e+00
  1.252998e+01    2.359111e+00
  1.254586e+01    2.314678e+00
  1.256174e+01    2.336226e+00
  1.257761e+01    2.353574e+00
  1.259349e+01    2.340360e+00
  1.260936e+01    2.348054e+00
  1.262524e+01    2.325176e+00
  1.264111e+01    2.384442e+00
  1.265699e+01    2.372181e+00
  1.267286e+01    2.396347e+00
  1.268874e+01    2.438595e+00
  1.270462e+01    2.444571e+00
  1.272049e+01    2.477384e+00
  1.273637e+01    2.544090e+00
  1.275224e+01    2.535282e+00
  1.276812e+01    2.574604e+00
  1.278399e+01    2.627141e+00
  1.279987e+01    2.635282e+00
  1.281574e+01    2.689831e+00
  1.283162e+01    2.715120e+00
  1.284750e+01    2.786732e+00
  1.286337e+01    2.931635e+00
  1.287925e+01    3.019125e+00
  1.289512e+01    3.106439e+00
  1.291100e+01    3.222740e+00
  1.292687e+01    3.448386e+00
  1.294275e+01    3.655494e+00
  1.295862e+01    3.950005e+00
  1.297450e+01    4.323454e+00
  1.299038e+01    4.800005e+00
  1.300625e+01    5.352385e+00
  1.302213e+01    6.096700e+00
  1.303800e+01    6.978817e+00
  1.305388e+01    8.011750e+00
  1.306975e+01    9.325912e+00
  1.308563e+01    1.084152e+01
  1.310150e+01    1.216552e+01
  1.311738e+01    1.351123e+01
  1.313326e+01    1.477650e+01
  1.314913e+01    1.584286e+01
  1.316501e+01    1.690664e+01
  1.318088e+01    1.759132e+01
  1.319676e+01    1.746901e+01
  1.321263e+01    1.644876e+01
  1.322851e+01    1.469636e+01
  1.324438e+01    1.269057e+01
  1.326026e+01    1.064689e+01
  1.327614e+01    9.005871e+00
  1.329201e+01    7.664928e+00
  1.330789e+01    6.540877e+00
  1.332376e+01    5.713373e+00
  1.333964e+01    5.069537e+00
  1.335551e+01    4.573201e+00
  1.337139e+01    4.149177e+00
  1.338727e+01    3.808745e+00
  1.340314e+01    3.578668e+00
  1.341902e+01    3.346370e+00
  1.343489e+01    3.163342e+00
  1.345077e+01    3.045652e+00
  1.346664e+01    2.886224e+00
  1.348252e+01    2.780912e+00
  1.349839e+01    2.751729e+00
  1.351427e+01    2.645746e+00
  1.353015e+01    2.582688e+00
  1.354602e+01    2.519348e+00
  1.356190e+01    2.449372e+00
  1.357777e+01    2.409445e+00
  1.359365e+01    2.366193e+00
  1.360952e+01    2.394836e+00
  1.362540e+01    2.358464e+00
  1.364127e+01    2.295307e+00
  1.365715e+01    2.266315e+00
  1.367303e+01    2.208560e+00
  1.368890e+01    2.223607e+00
  1.370478e+01    2.222286e+00
  1.372065e+01    2.162108e+00
  1.373653e+01    2.141625e+00
  1.375240e+01    2.192915e+00
  1.376828e+01    2.201510e+00
  1.378415e+01    2.184642e+00
  1.380003e+01    2.195586e+00
  1.381591e+01    2.149139e+00
  1.383178e+01    2.156665e+00
  1.384766e+01    2.126854e+00
  1.386353e+01    2.078997e+00
  1.387941e+01    2.093036e+00
  1.389528e+01    2.070393e+00
  1.391116e+01    2.050418e+00
  1.392703e+01    2.048678e+00
  1.394291e+01    2.048116e+00
  1.395879e+01    2.055784e+00
  1.397466e+01    2.060327e+00
  1.399054e+01    2.025757e+00
  1.400641e+01    2.058676e+00
  1.402229e+01    2.017609e+00
  1.403816e+01    1.980610e+00
  1.405404e+01    2.007151e+00
  1.406991e+01    2.001300e+00
  1.408579e+01    2.003753e+00
  1.410167e+01    2.037590e+00
  1.411754e+01    2.004208e+00
  1.413342e+01    1.995793e+00
  1.414929e+01    1.976047e+00
  1.416517e+01    1.939770e+00
  1.418104e+01    1.920806e+00
  1.419692e+01    1.968130e+00
  1.421279e+01    1.966874e+00
  1.422867e+01    1.965239e+00
  1.424455e+01    1.991650e+00
  1.426042e+01    1.950660e+00
  1.427630e+01    1.942826e+00
  1.429217e+01    1.948774e+00
  1.430805e+01    1.971222e+00
  1.432392e+01    1.998461e+00
  1.433980e+01    1.953496e+00
  1.435568e+01    1.891903e+00
  1.437155e+01    1.918003e+00
  1.438743e+01    1.941579e+00
  1.440330e+01    1.959382e+00
  1.441918e+01    1.919695e+00
  1.443505e+01    1.913234e+00
  1.445093e+01    1.895867e+00
  1.446680e+01    1.901518e+00
  1.448268e+01    1.894971e+00
  1.449856e+01    1.900965e+00
  1.451443e+01    1.875001e+00
  1.453031e+01    1.893289e+00
  1.454618e+01    1.914896e+00
  1.456206e+01    1.903420e+00
  1.457793e+01    1.900490e+00
  1.459381e+01    1.866817e+00
  1.460968e+01    1.888713e+00
  1.462556e+01    1.904948e+00
  1.464144e+01    1.885217e+00
  1.465731e+01    1.824749e+00
  1.467319e+01    1.853615e+00
  1.468906e+01    1.871198e+00
  1.470494e+01    1.851315e+00
  1.472081e+01    1.871513e+00
  1.473669e+01    1.894491e+00
  1.475256e+01    1.895797e+00
  1.476844e+01    1.850748e+00
  1.478432e+01    1.849710e+00
  1.480019e+01    1.882905e+00
  1.481607e+01    1.895594e+00
  1.483194e+01    1.876574e+00
  1.484782e+01    1.925334e+00
  1.486369e+01    1.950893e+00
  1.487957e+01    1.895873e+00
  1.489544e+01    1.914168e+00
  1.491132e+01    1.962313e+00
  1.492720e+01    1.995586e+00
  1.494307e+01    1.965085e+00
  1.495895e+01    1.961606e+00
  1.497482e+01    2.017865e+00
  1.499070e+01    2.086873e+00
  1.500657e+01    2.140088e+00
  1.502245e+01    2.188902e+00
  1.503832e+01    2.284317e+00
  1.505420e+01    2.325698e+00
  1.507008e+01    2.460406e+00
  1.508595e+01    2.581832e+00
  1.510183e+01    2.808599e+00
  1.511770e+01    3.049857e+00
  1.513358e+01    3.365330e+00
  1.514945e+01    3.722523e+00
  1.516533e+01    4.099106e+00
  1.518120e+01    4.482980e+00
  1.519708e+01    4.847305e+00
  1.521296e+01    5.204629e+00
  1.522883e+01    5.475080e+00
  1.524471e+01    5.761091e+00
  1.526058e+01    5.942443e+00
  1.527646e+01    5.905560e+00
  1.529233e+01    5.853358e+00
  1.530821e+01    5.627757e+00
  1.532409e+01    5.140127e+00
  1.533996e+01    4.575642e+00
  1.535584e+01    4.054718e+00
  1.537171e+01    3.605441e+00
  1.538759e+01    3.150820e+00
  1.540346e+01    2.890923e+00
  1.541934e+01    2.682610e+00
  1.543521e+01    2.496681e+00
  1.545109e+01    2.331965e+00
  1.546697e+01    2.250401e+00
  1.548284e+01    2.182602e+00
  1.549872e+01    2.104877e+00
  1.551459e+01    1.968042e+00
  1.553047e+01    1.949305e+00
  1.554634e+01    1.957613e+00
  1.556222e+01    1.892324e+00
  1.557809e+01    1.893009e+00
  1.559397e+01    1.834644e+00
  1.560985e+01    1.809332e+00
  1.562572e+01    1.780974e+00
  1.564160e+01    1.770946e+00
  1.565747e+01    1.741077e+00
  1.567335e+01    1.732963e+00
  1.568922e+01    1.746396e+00
  1.570510e+01    1.741913e+00
  1.572097e+01    1.738987e+00
  1.573685e+01    1.697402e+00
  1.575273e+01    1.713844e+00
  1.576860e+01    1.697945e+00
  1.578448e+01    1.663882e+00
  1.580035e+01    1.658533e+00
  1.581623e+01    1.664484e+00
  1.583210e+01    1.651072e+00
  1.584798e+01    1.651173e+00
  1.586385e+01    1.653821e+00
  1.587973e+01    1.649716e+00
  1.589561e+01    1.654369e+00
  1.591148e+01    1.616239e+00
  1.592736e+01    1.634322e+00
  1.594323e+01    1.615024e+00
  1.595911e+01    1.610034e+00
  1.597498e+01    1.601501e+00
  1.599086e+01    1.578121e+00
  1.600673e+01    1.600122e+00
  1.602261e+01    1.578094e+00
  1.603849e+01    1.564493e+00
  1.605436e+01    1.535534e+00
  1.607024e+01    1.560948e+00
  1.608611e+01    1.562668e+00
  1.610199e+01    1.560653e+00
  1.611786e+01    1.543831e+00
  1.613374e+01    1.569597e+00
  1.614961e+01    1.593475e+00
  1.616549e+01    1.569250e+00
  1.618137e+01    1.543176e+00
  1.619724e+01    1.552824e+00
  1.621312e+01    1.557236e+00
  1.622899e+01    1.535136e+00
  1.624487e+01    1.530935e+00
  1.626074e+01    1.539880e+00
  1.627662e+01    1.531234e+00
  1.629250e+01    1.521885e+00
  1.630837e+01    1.540755e+00
  1.632425e+01    1.555213e+00
  1.634012e+01    1.543750e+00
  1.635600e+01    1.508865e+00
  1.637187e+01    1.530927e+00
  1.638775e+01    1.532313e+00
  1.640362e+01    1.518556e+00
  1.641950e+01    1.503987e+00
  1.643538e+01    1.472566e+00
  1.645125e+01    1.479078e+00
  1.646713e+01    1.484001e+00
  1.648300e+01    1.477448e+00
  1.649888e+01    1.486803e+00
  1.651475e+01    1.475072e+00
  1.653063e+01    1.497978e+00
  1.654650e+01    1.475801e+00
  1.656238e+01    1.506717e+00
  1.657826e+01    1.495801e+00
  1.659413e+01    1.490389e+00
  1.661001e+01    1.496548e+00
  1.662588e+01    1.488898e+00
  1.664176e+01    1.495056e+00
  1.665763e+01    1.503328e+00
  1.667351e+01    1.468977e+00
  1.668938e+01    1.433346e+00
  1.670526e+01    1.433372e+00
  1.672114e+01    1.475451e+00
  1.673701e+01    1.463683e+00
  1.675289e+01    1.449757e+00
  1.676876e+01    1.443997e+00
  1.678464e+01    1.436899e+00
  1.680051e+01    1.428726e+00
  1.681639e+01    1.433849e+00
  1.683226e+01    1.432763e+00
  1.684814e+01    1.439288e+00
  1.686402e+01    1.430614e+00
  1.687989e+01    1.432264e+00
  1.689577e+01    1.430763e+00
  1.691164e+01    1.421698e+00
  1.692752e+01    1.422902e+00
  1.694339e+01    1.397123e+00
  1.695927e+01    1.399332e+00
  1.697514e+01    1.434599e+00
  1.699102e+01    1.405240e+00
  1.700690e+01    1.384660e+00
  1.702277e+01    1.417818e+00
  1.703865e+01    1.398770e+00
  1.705452e+01    1.422979e+00
  1.707040e+01    1.418020e+00
  1.708627e+01    1.413604e+00
  1.710215e+01    1.432612e+00
  1.711802e+01    1.428309e+00
  1.713390e+01    1.405751e+00
  1.714978e+01    1.397110e+00
  1.716565e+01    1.405691e+00
  1.718153e+01    1.401853e+00
  1.719740e+01    1.390690e+00
  1.721328e+01    1.396137e+00
  1.722915e+01    1.389400e+00
  1.724503e+01    1.406182e+00
  1.726091e+01    1.387892e+00
  1.727678e+01    1.400366e+00
  1.729266e+01    1.407899e+00
  1.730853e+01    1.373663e+00
  1.732441e+01    1.362518e+00
  1.734028e+01    1.386316e+00
  1.735616e+01    1.353433e+00
  1.737203e+01    1.327774e+00
  1.738791e+01    1.336251e+00
  1.740379e+01    1.356005e+00
  1.741966e+01    1.373191e+00
  1.743554e+01    1.354292e+00
  1.745141e+01    1.340709e+00
  1.746729e+01    1.336516e+00
  1.748316e+01    1.390113e+00
  1.749904e+01    1.378956e+00
  1.751491e+01    1.346529e+00
  1.753079e+01    1.324243e+00
  1.754667e+01    1.323052e+00
  1.756254e+01    1.346988e+00
  1.757842e+01    1.343774e+00
  1.759429e+01    1.356637e+00
  1.761017e+01    1.333811e+00
  1.762604e+01    1.337448e+00
  1.764192e+01    1.308591e+00
  1.765779e+01    1.333001e+00
  1.767367e+01    1.328796e+00
  1.768955e+01    1.306943e+00
  1.770542e+01    1.302908e+00
  1.772130e+01    1.317512e+00
  1.773717e+01    1.296098e+00
  1.775305e+01    1.326184e+00
  1.776892e+01    1.329955e+00
  1.778480e+01    1.307432e+00
  1.780067e+01    1.304028e+00
  1.781655e+01    1.314497e+00
  1.783243e+01    1.291691e+00
  1.784830e+01    1.315046e+00
  1.786418e+01    1.326090e+00
  1.788005e+01    1.306847e+00
  1.789593e+01    1.314393e+00
  1.791180e+01    1.284305e+00
  1.792768e+01    1.299107e+00
  1.794355e+01    1.284592e+00
  1.795943e+01    1.287217e+00
  1.797531e+01    1.261983e+00
  1.799118e+01    1.298952e+00
  1.800706e+01    1.317091e+00
  1.802293e+01    1.298392e+00
  1.803881e+01    1.274578e+00
  1.805468e+01    1.257071e+00
  1.807056e+01    1.268035e+00
  1.808643e+01    1.276757e+00
  1.810231e+01    1.267665e+00
  1.811819e+01    1.253800e+00
  1.813406e+01    1.260075e+00
  1.814994e+01    1.293360e+00
  1.816581e+01    1.280703e+00
  1.818169e+01    1.281658e+00
  1.819756e+01    1.281404e+00
  1.821344e+01    1.293916e+00
  1.822932e+01    1.273858e+00
  1.824519e+01    1.251017e+00
  1.826107e+01    1.238649e+00
  1.827694e+01    1.271008e+00
  1.829282e+01    1.256964e+00
  1.830869e+01    1.264129e+00
  1.832457e+01    1.248665e+00
  1.834044e+01    1.239383e+00
  1.835632e+01    1.241733e+00
  1.837220e+01    1.241184e+00
  1.838807e+01    1.232092e+00
  1.840395e+01    1.238767e+00
  1.841982e+01    1.207059e+00
  1.843570e+01    1.210763e+00
  1.845157e+01    1.231328e+00
  1.846745e+01    1.242679e+00
  1.848332e+01    1.221269e+00
  1.849920e+01    1.239357e+00
  1.851508e+01    1.230064e+00
  1.853095e+01    1.217689e+00
  1.854683e+01    1.230246e+00
  1.856270e+01    1.217952e+00
  1.857858e+01    1.219149e+00
  1.859445e+01    1.221727e+00
  1.861033e+01    1.211928e+00
  1.862620e+01    1.226068e+00
  1.864208e+01    1.218398e+00
  1.865796e+01    1.222858e+00
  1.867383e+01    1.237911e+00
  1.868971e+01    1.220534e+00
  1.870558e+01    1.197044e+00
  1.872146e+01    1.181459e+00
  1.873733e+01    1.212529e+00
  1.875321e+01    1.212502e+00
  1.876908e+01    1.217700e+00
  1.878496e+01    1.199499e+00
  1.880084e+01    1.218092e+00
  1.881671e+01    1.232349e+00
  1.883259e+01    1.222795e+00
  1.884846e+01    1.202894e+00
  1.886434e+01    1.188589e+00
  1.888021e+01    1.203007e+00
  1.889609e+01    1.200858e+00
  1.891196e+01    1.217316e+00
  1.892784e+01    1.221091e+00
  1.894372e+01    1.201793e+00
  1.895959e+01    1.188129e+00
  1.897547e+01    1.181529e+00
  1.899134e+01    1.188042e+00
  1.900722e+01    1.205675e+00
  1.902309e+01    1.196825e+00
  1.903897e+01    1.184843e+00
  1.905484e+01    1.208553e+00
  1.907072e+01    1.182506e+00
  1.908660e+01    1.159203e+00
  1.910247e+01    1.168021e+00
  1.911835e+01    1.191194e+00
  1.913422e+01    1.200492e+00
  1.915010e+01    1.169704e+00
  1.916597e+01    1.177359e+00
  1.918185e+01    1.174196e+00
  1.919773e+01    1.182268e+00
  1.921360e+01    1.174268e+00
  1.922948e+01    1.166767e+00
  1.924535e+01    1.157530e+00
  1.926123e+01    1.136767e+00
  1.927710e+01    1.143497e+00
  1.929298e+01    1.158420e+00
  1.930885e+01    1.158393e+00
  1.932473e+01    1.173325e+00
  1.934061e+01    1.182388e+00
  1.935648e+01    1.161765e+00
  1.937236e+01    1.138682e+00
  1.938823e+01    1.130834e+00
  1.940411e+01    1.143925e+00
  1.941998e+01    1.141008e+00
  1.943586e+01    1.144598e+00
  1.945173e+01    1.146225e+00
  1.946761e+01    1.126154e+00
  1.948349e+01    1.150373e+00
  1.949936e+01    1.155173e+00
  1.951524e+01    1.143259e+00
  1.953111e+01    1.146217e+00
  1.954699e+01    1.153397e+00
  1.956286e+01    1.151587e+00
  1.957874e+01    1.141023e+00
  1.959461e+01    1.141750e+00
  1.961049e+01    1.142783e+00
  1.962637e+01    1.127525e+00
  1.964224e+01    1.142300e+00
  1.965812e+01    1.136004e+00
  1.967399e+01    1.134280e+00
  1.968987e+01    1.123289e+00
  1.970574e+01    1.122445e+00
  1.972162e+01    1.144217e+00
  1.973749e+01    1.141820e+00
  1.975337e+01    1.129756e+00
  1.976925e+01    1.120149e+00
  1.978512e+01    1.136787e+00
  1.980100e+01    1.134487e+00
  1.981687e+01    1.111856e+00
  1.983275e+01    1.103769e+00
  1.984862e+01    1.129830e+00
  1.986450e+01    1.144851e+00
  1.988037e+01    1.137111e+00
  1.989625e+01    1.106451e+00
  1.991213e+01    1.096354e+00
  1.992800e+01    1.080907e+00
  1.994388e+01    1.090615e+00
  1.995975e+01    1.110269e+00
  1.997563e+01    1.130221e+00
  1.999150e+01    1.111107e+00
  2.000738e+01    1.104935e+00
  2.002325e+01    1.115837e+00
  2.003913e+01    1.125859e+00
  2.005501e+01    1.119527e+00
  2.007088e+01    1.091422e+00
  2.008676e+01    1.101869e+00
  2.010263e+01    1.098655e+00
  2.011851e+01    1.089740e+00
  2.013438e+01    1.093090e+00
  2.015026e+01    1.090392e+00
  2.016614e+01    1.104476e+00
  2.018201e+01    1.103580e+00
  2.019789e+01    1.109792e+00
  2.021376e+01    1.097857e+00
  2.022964e+01    1.066297e+00
  2.024551e+01    1.081091e+00
  2.026139e+01    1.108616e+00
  2.027726e+01    1.090549e+00
  2.029314e+01    1.104541e+00
  2.030902e+01    1.091330e+00
  2.032489e+01    1.078558e+00
  2.034077e+01    1.076180e+00
  2.035664e+01    1.091650e+00
  2.037252e+01    1.085914e+00
  2.038839e+01    1.058676e+00
  2.040427e+01    1.064107e+00
  2.042014e+01    1.065829e+00
  2.043602e+01    1.068085e+00
  2.045190e+01    1.086994e+00
  2.046777e+01    1.080325e+00
  2.048365e+01    1.071417e+00
  2.049952e+01    1.060951e+00
  2.051540e+01    1.076127e+00
  2.053127e+01    1.080307e+00
  2.054715e+01    1.083051e+00
  2.056302e+01    1.071369e+00
  2.057890e+01    1.065485e+00
  2.059478e+01    1.056491e+00
  2.061065e+01    1.061761e+00
  2.062653e+01    1.066675e+00
  2.064240e+01    1.073851e+00
  2.065828e+01    1.095412e+00
  2.067415e+01    1.091919e+00
  2.069003e+01    1.062021e+00
  2.070590e+01    1.067186e+00
  2.072178e+01    1.041087e+00
  2.073766e+01    1.028578e+00
  2.075353e+01    1.047319e+00
  2.076941e+01    1.061697e+00
  2.078528e+01    1.072244e+00
  2.080116e+01    1.068904e+00
  2.081703e+01    1.061279e+00
  2.083291e+01    1.046180e+00
  2.084878e+01    1.051154e+00
  2.086466e+01    1.058421e+00
  2.088054e+01    1.090687e+00
  2.089641e+01    1.056319e+00
  2.091229e+01    1.076028e+00
  2.092816e+01    1.071133e+00
  2.094404e+01    1.064146e+00
  2.095991e+01    1.079459e+00
  2.097579e+01    1.067644e+00
  2.099166e+01    1.089440e+00
  2.100754e+01    1.083704e+00
  2.102342e+01    1.046019e+00
  2.103929e+01    1.053190e+00
  2.105517e+01    1.096435e+00
  2.107104e+01    1.082458e+00
  2.108692e+01    1.059710e+00
  2.110279e+01    1.058969e+00
  2.111867e+01    1.062425e+00
  2.113455e+01    1.070296e+00
  2.115042e+01    1.096351e+00
  2.116630e+01    1.073106e+00
  2.118217e+01    1.082991e+00
  2.119805e+01    1.071473e+00
  2.121392e+01    1.070692e+00
  2.122980e+01    1.075429e+00
  2.124567e+01    1.085641e+00
  2.126155e+01    1.103475e+00
  2.127743e+01    1.102191e+00
  2.129330e+01    1.113111e+00
  2.130918e+01    1.121928e+00
  2.132505e+01    1.115217e+00
  2.134093e+01    1.114451e+00
  2.135680e+01    1.129336e+00
  2.137268e+01    1.152260e+00
  2.138855e+01    1.162291e+00
  2.140443e+01    1.163552e+00
  2.142031e+01    1.179476e+00
  2.143618e+01    1.190849e+00
  2.145206e+01    1.222698e+00
  2.146793e+01    1.238501e+00
  2.148381e+01    1.249121e+00
  2.149968e+01    1.256596e+00
  2.151556e+01    1.292851e+00
  2.153143e+01    1.317756e+00
  2.154731e+01    1.353861e+00
  2.156319e+01    1.404306e+00
  2.157906e+01    1.440944e+00
  2.159494e+01    1.513197e+00
  2.161081e+01    1.598448e+00
  2.162669e+01    1.679943e+00
  2.164256e+01    1.756711e+00
  2.165844e+01    1.875426e+00
  2.167431e+01    2.064911e+00
  2.169019e+01    2.262859e+00
  2.170607e+01    2.451182e+00
  2.172194e+01    2.757823e+00
  2.173782e+01    3.139238e+00
  2.175369e+01    3.544807e+00
  2.176957e+01    4.128167e+00
  2.178544e+01    4.684392e+00
  2.180132e+01    5.326964e+00
  2.181719e+01    6.044009e+00
  2.183307e+01    6.773557e+00
  2.184895e+01    7.559463e+00
  2.186482e+01    8.328786e+00
  2.188070e+01    9.007677e+00
  2.189657e+01    9.576940e+00
  2.191245e+01    9.801355e+00
  2.192832e+01    9.575526e+00
  2.194420e+01    8.952888e+00
  2.196007e+01    8.050732e+00
  2.197595e+01    7.007799e+00
  2.199183e+01    5.993600e+00
  2.200770e+01    5.055076e+00
  2.202358e+01    4.262992e+00
  2.203945e+01    3.660114e+00
  2.205533e+01    3.205759e+00
  2.207120e+01    2.803310e+00
  2.208708e+01    2.480228e+00
  2.210296e+01    2.221925e+00
  2.211883e+01    2.065682e+00
  2.213471e+01    1.911436e+00
  2.215058e+01    1.785747e+00
  2.216646e+01    1.672465e+00
  2.218233e+01    1.575578e+00
  2.219821e+01    1.494785e+00
  2.221408e+01    1.430089e+00
  2.222996e+01    1.385469e+00
  2.224584e+01    1.319498e+00
  2.226171e+01    1.299025e+00
  2.227759e+01    1.258032e+00
  2.229346e+01    1.212005e+00
  2.230934e+01    1.207912e+00
  2.232521e+01    1.161458e+00
  2.234109e+01    1.145898e+00
  2.235696e+01    1.126104e+00
  2.237284e+01    1.098672e+00
  2.238872e+01    1.090863e+00
  2.240459e+01    1.095325e+00
  2.242047e+01    1.071016e+00
  2.243634e+01    1.047062e+00
  2.245222e+01    1.037954e+00
  2.246809e+01    1.045448e+00
  2.248397e+01    1.027558e+00
  2.249984e+01    1.017948e+00
  2.251572e+01    1.006255e+00
  2.253160e+01    9.982112e-01
  2.254747e+01    9.908770e-01
  2.256335e+01    9.853372e-01
  2.257922e+01    9.793937e-01
  2.259510e+01    9.918219e-01
  2.261097e+01    9.822152e-01
  2.262685e+01    9.527832e-01
  2.264272e+01    9.454769e-01
  2.265860e+01    9.567318e-01
  2.267448e+01    9.680292e-01
  2.269035e+01    9.550475e-01
  2.270623e+01    9.608079e-01
  2.272210e+01    9.635724e-01
  2.273798e+01    9.489083e-01
  2.275385e+01    9.316545e-01
  2.276973e+01    9.121979e-01
  2.278560e+01    9.299998e-01
  2.280148e+01    9.228454e-01
  2.281736e+01    9.086317e-01
  2.283323e+01    9.271173e-01
  2.284911e+01    9.000036e-01
  2.286498e+01    9.160214e-01
  2.288086e+01    9.148324e-01
  2.289673e+01    9.102637e-01
  2.291261e+01    9.052322e-01
  2.292848e+01    9.108749e-01
  2.294436e+01    8.867584e-01
  2.296024e+01    8.980170e-01
  2.297611e+01    8.946628e-01
  2.299199e+01    9.116883e-01
  2.300786e+01    9.129061e-01
  2.302374e+01    8.967972e-01
  2.303961e+01    8.787438e-01
  2.305549e+01    8.898186e-01
  2.307137e+01    8.863487e-01
  2.308724e+01    8.681942e-01
  2.310312e+01    8.906584e-01
  2.311899e+01    8.824322e-01
  2.313487e+01    8.627672e-01
  2.315074e+01    8.784646e-01
  2.316662e+01    8.579933e-01
  2.318249e+01    8.561401e-01
  2.319837e+01    8.481325e-01
  2.321425e+01    8.514578e-01
  2.323012e+01    8.693479e-01
  2.324600e+01    8.584131e-01
  2.326187e+01    8.583368e-01
  2.327775e+01    8.574957e-01
  2.329362e+01    8.654410e-01
  2.330950e+01    8.611885e-01
  2.332537e+01    8.658771e-01
  2.334125e+01    8.576327e-01
  2.335713e+01    8.435125e-01
  2.337300e+01    8.532344e-01
  2.338888e+01    8.657945e-01
  2.340475e+01    8.366649e-01
  2.342063e+01    8.421166e-01
  2.343650e+01    8.566089e-01
  2.345238e+01    8.660430e-01
  2.346825e+01    8.546808e-01
  2.348413e+01    8.513820e-01
  2.350001e+01    8.341649e-01
  2.351588e+01    8.394008e-01
  2.353176e+01    8.427797e-01
  2.354763e+01    8.605357e-01
  2.356351e+01    8.618610e-01
  2.357938e+01    8.318805e-01
  2.359526e+01    8.290960e-01
  2.361113e+01    8.479890e-01
  2.362701e+01    8.315930e-01
  2.364289e+01    8.234850e-01
  2.365876e+01    8.258898e-01
  2.367464e+01    8.260530e-01
  2.369051e+01    8.305007e-01
  2.370639e+01    8.178712e-01
  2.372226e+01    8.049408e-01
  2.373814e+01    8.024935e-01
  2.375401e+01    8.064440e-01
  2.376989e+01    8.053211e-01
  2.378577e+01    8.126613e-01
  2.380164e+01    8.062093e-01
  2.381752e+01    7.993757e-01
  2.383339e+01    7.799975e-01
  2.384927e+01    7.708939e-01
  2.386514e+01    7.959290e-01
  2.388102e+01    7.966866e-01
  2.389689e+01    8.003442e-01
  2.391277e+01    7.913780e-01
  2.392865e+01    8.070385e-01
  2.394452e+01    8.119323e-01
  2.396040e+01    8.002284e-01
  2.397627e+01    7.758088e-01
  2.399215e+01    8.043168e-01
  2.400802e+01    7.870777e-01
  2.402390e+01    7.672469e-01
  2.403978e+01    7.691699e-01
  2.405565e+01    7.787946e-01
  2.407153e+01    7.758480e-01
  2.408740e+01    7.744830e-01
  2.410328e+01    7.887888e-01
  2.411915e+01    7.601745e-01
  2.413503e+01    7.585850e-01
  2.415090e+01    7.615165e-01
  2.416678e+01    7.367248e-01
  2.418266e+01    7.404174e-01
  2.419853e+01    7.731730e-01
  2.421441e+01    7.734177e-01
  2.423028e+01    7.830773e-01
  2.424616e+01    7.821221e-01
  2.426203e+01    7.608896e-01
  2.427791e+01    7.817881e-01
  2.429378e+01    7.887921e-01
  2.430966e+01    7.892461e-01
  2.432554e+01    7.871034e-01
  2.434141e+01    7.921239e-01
  2.435729e+01    8.039671e-01
  2.437316e+01    7.899454e-01
  2.438904e+01    7.935328e-01
  2.440491e+01    7.944623e-01
  2.442079e+01    7.944524e-01
  2.443666e+01    7.893953e-01
  2.445254e+01    7.717051e-01
  2.446842e+01    7.784176e-01
  2.448429e+01    7.681767e-01
  2.450017e+01    7.819005e-01
  2.451604e+01    7.808824e-01
  2.453192e+01    7.861995e-01
  2.454779e+01    7.885118e-01
  2.456367e+01    7.832420e-01
  2.457954e+01    7.858464e-01
  2.459542e+01    7.727441e-01
  2.461130e+01    7.835293e-01
  2.462717e+01    7.928682e-01
  2.464305e+01    7.882686e-01
  2.465892e+01    7.817077e-01
  2.467480e+01    7.818276e-01
  2.469067e+01    7.868413e-01
  2.470655e+01    7.781577e-01
  2.472242e+01    7.735783e-01
  2.473830e+01    8.042862e-01
  2.475418e+01    8.047628e-01
  2.477005e+01    8.135808e-01
  2.478593e+01    7.910737e-01
  2.480180e+01    7.854967e-01
  2.481768e+01    7.764095e-01
  2.483355e+01    7.836967e-01
  2.484943e+01    7.959459e-01
  2.486530e+01    7.722861e-01
  2.488118e+01    7.742037e-01
  2.489706e+01    7.890748e-01
  2.491293e+01    8.051421e-01
  2.492881e+01    8.030095e-01
  2.494468e+01    7.785645e-01
  2.496056e+01    7.861994e-01
  2.497643e+01    8.058435e-01
  2.499231e+01    8.055941e-01
  2.500819e+01    8.045648e-01
  2.502406e+01    8.068661e-01
  2.503994e+01    7.995930e-01
  2.505581e+01    7.898001e-01
  2.507169e+01    7.943457e-01
  2.508756e+01    8.004938e-01
  2.510344e+01    7.960486e-01
  2.511931e+01    8.136166e-01
  2.513519e+01    8.161256e-01
  2.515107e+01    8.279836e-01
  2.516694e+01    8.235929e-01
  2.518282e+01    8.247435e-01
  2.519869e+01    8.397906e-01
  2.521457e+01    8.381135e-01
  2.523044e+01    8.255930e-01
  2.524632e+01    8.286639e-01
  2.526219e+01    8.484859e-01
  2.527807e+01    8.338385e-01
  2.529395e+01    8.537153e-01
  2.530982e+01    8.606374e-01
  2.532570e+01    8.549779e-01
  2.534157e+01    8.698426e-01
  2.535745e+01    8.747206e-01
  2.537332e+01    8.815577e-01
  2.538920e+01    8.808867e-01
  2.540507e+01    8.984998e-01
  2.542095e+01    9.125718e-01
  2.543683e+01    9.021153e-01
  2.545270e+01    9.196585e-01
  2.546858e+01    9.304374e-01
  2.548445e+01    9.415570e-01
  2.550033e+01    9.478391e-01
  2.551620e+01    9.666191e-01
  2.553208e+01    9.810478e-01
  2.554795e+01    9.961832e-01
  2.556383e+01    1.026033e+00
  2.557971e+01    1.053914e+00
  2.559558e+01    1.087709e+00
  2.561146e+01    1.125566e+00
  2.562733e+01    1.155667e+00
  2.564321e+01    1.193472e+00
  2.565908e+01    1.246642e+00
  2.567496e+01    1.315024e+00
  2.569083e+01    1.369161e+00
  2.570671e+01    1.457611e+00
  2.572259e+01    1.507845e+00
  2.573846e+01    1.625615e+00
  2.575434e+01    1.816173e+00
  2.577021e+01    1.973508e+00
  2.578609e+01    2.185297e+00
  2.580196e+01    2.459112e+00
  2.581784e+01    2.777769e+00
  2.583371e+01    3.213025e+00
  2.584959e+01    3.650569e+00
  2.586547e+01    4.193686e+00
  2.588134e+01    4.744465e+00
  2.589722e+01    5.461198e+00
  2.591309e+01    6.171253e+00
  2.592897e+01    6.817592e+00
  2.594484e+01    7.449401e+00
  2.596072e+01    7.885298e+00
  2.597660e+01    7.972613e+00
  2.599247e+01    7.873030e+00
  2.600835e+01    7.445678e+00
  2.602422e+01    6.840891e+00
  2.604010e+01    6.016641e+00
  2.605597e+01    5.226504e+00
  2.607185e+01    4.459902e+00
  2.608772e+01    3.791355e+00
  2.610360e+01    3.271370e+00
  2.611948e+01    2.868664e+00
  2.613535e+01    2.513044e+00
  2.615123e+01    2.228642e+00
  2.616710e+01    2.016961e+00
  2.618298e+01    1.836236e+00
  2.619885e+01    1.679380e+00
  2.621473e+01    1.572002e+00
  2.623060e+01    1.466160e+00
  2.624648e+01    1.387012e+00
  2.626236e+01    1.334133e+00
  2.627823e+01    1.273201e+00
  2.629411e+01    1.174630e+00
  2.630998e+01    1.146843e+00
  2.632586e+01    1.136793e+00
  2.634173e+01    1.109894e+00
  2.635761e+01    1.052636e+00
  2.637348e+01    1.030910e+00
  2.638936e+01    1.015034e+00
  2.640524e+01    1.008740e+00
  2.642111e+01    9.956173e-01
  2.643699e+01    9.697083e-01
  2.645286e+01    9.643189e-01
  2.646874e+01    9.570030e-01
  2.648461e+01    9.318294e-01
  2.650049e+01    9.264770e-01
  2.651636e+01    9.287073e-01
  2.653224e+01    9.374980e-01
  2.654812e+01    9.117577e-01
  2.656399e+01    9.171785e-01
  2.657987e+01    9.235626e-01
  2.659574e+01    9.067746e-01
  2.661162e+01    8.980438e-01
  2.662749e+01    9.089543e-01
  2.664337e+01    9.084375e-01
  2.665924e+01    8.937395e-01
  2.667512e+01    8.865345e-01
  2.669100e+01    9.036725e-01
  2.670687e+01    9.107434e-01
  2.672275e+01    8.820375e-01
  2.673862e+01    8.730428e-01
  2.675450e+01    9.002603e-01
  2.677037e+01    8.849640e-01
  2.678625e+01    8.939816e-01
  2.680212e+01    8.896430e-01
  2.681800e+01    9.012201e-01
  2.683388e+01    9.243653e-01
  2.684975e+01    9.057639e-01
  2.686563e+01    9.041031e-01
  2.688150e+01    9.021385e-01
  2.689738e+01    9.074752e-01
  2.691325e+01    9.071819e-01
  2.692913e+01    9.231870e-01
  2.694501e+01    9.371893e-01
  2.696088e+01    9.282927e-01
  2.697676e+01    9.714248e-01
  2.699263e+01    9.989575e-01
  2.700851e+01    1.013992e+00
  2.702438e+01    1.047726e+00
  2.704026e+01    1.059504e+00
  2.705613e+01    1.122690e+00
  2.707201e+01    1.196867e+00
  2.708789e+01    1.250063e+00
  2.710376e+01    1.341311e+00
  2.711964e+01    1.464706e+00
  2.713551e+01    1.553737e+00
  2.715139e+01    1.712662e+00
  2.716726e+01    1.856932e+00
  2.718314e+01    2.038773e+00
  2.719901e+01    2.174819e+00
  2.721489e+01    2.259602e+00
  2.723077e+01    2.332994e+00
  2.724664e+01    2.338475e+00
  2.726252e+01    2.291491e+00
  2.727839e+01    2.185877e+00
  2.729427e+01    2.005521e+00
  2.731014e+01    1.793977e+00
  2.732602e+01    1.634245e+00
  2.734189e+01    1.485115e+00
  2.735777e+01    1.376951e+00
  2.737365e+01    1.288917e+00
  2.738952e+01    1.193508e+00
  2.740540e+01    1.122898e+00
  2.742127e+01    1.090158e+00
  2.743715e+01    1.064429e+00
  2.745302e+01    1.019453e+00
  2.746890e+01    9.978849e-01
  2.748477e+01    9.696035e-01
  2.750065e+01    9.459065e-01
  2.751653e+01    9.097246e-01
  2.753240e+01    8.970026e-01
  2.754828e+01    8.909330e-01
  2.756415e+01    8.804651e-01
  2.758003e+01    8.826105e-01
  2.759590e+01    8.597634e-01
  2.761178e+01    8.529404e-01
  2.762765e+01    8.399030e-01
  2.764353e+01    8.357217e-01
  2.765941e+01    8.233398e-01
  2.767528e+01    8.153395e-01
  2.769116e+01    8.084216e-01
  2.770703e+01    8.294804e-01
  2.772291e+01    8.129100e-01
  2.773878e+01    8.010483e-01
  2.775466e+01    8.175058e-01
  2.777054e+01    8.239419e-01
  2.778641e+01    8.143337e-01
  2.780229e+01    8.163937e-01
  2.781816e+01    8.083828e-01
  2.783404e+01    8.112602e-01
  2.784991e+01    8.127992e-01
  2.786579e+01    7.936917e-01
  2.788166e+01    7.761141e-01
  2.789754e+01    7.892395e-01
  2.791342e+01    7.875271e-01
  2.792929e+01    7.903418e-01
  2.794517e+01    7.980293e-01
  2.796104e+01    7.948349e-01
  2.797692e+01    7.839487e-01
  2.799279e+01    7.751068e-01
  2.800867e+01    7.789384e-01
  2.802454e+01    7.847729e-01
  2.804042e+01    7.830269e-01
  2.805630e+01    7.882288e-01
  2.807217e+01    8.098406e-01
  2.808805e+01    7.766227e-01
  2.810392e+01    7.672277e-01
  2.811980e+01    7.694761e-01
  2.813567e+01    7.504427e-01
  2.815155e+01    7.335629e-01
  2.816742e+01    7.639642e-01
  2.818330e+01    7.520458e-01
  2.819918e+01    7.531643e-01
  2.821505e+01    7.631654e-01
  2.823093e+01    7.827101e-01
  2.824680e+01    7.470697e-01
  2.826268e+01    7.548432e-01
  2.827855e+01    7.579306e-01
  2.829443e+01    7.394031e-01
  2.831030e+01    7.730083e-01
  2.832618e+01    7.815421e-01
  2.834206e+01    7.643658e-01
  2.835793e+01    7.538154e-01
  2.837381e+01    7.315676e-01
  2.838968e+01    7.553548e-01
  2.840556e+01    7.748726e-01
  2.842143e+01    7.731246e-01
  2.843731e+01    7.587963e-01
  2.845318e+01    7.450477e-01
  2.846906e+01    7.378961e-01
  2.848494e+01    7.464628e-01
  2.850081e+01    7.364017e-01
  2.851669e+01    7.506256e-01
  2.853256e+01    7.463486e-01
  2.854844e+01    7.496367e-01
  2.856431e+01    7.536566e-01
  2.858019e+01    7.476838e-01
  2.859606e+01    7.490343e-01
  2.861194e+01    7.661642e-01
  2.862782e+01    7.443660e-01
  2.864369e+01    7.397255e-01
  2.865957e+01    7.493100e-01
  2.867544e+01    7.449880e-01
  2.869132e+01    7.464300e-01
  2.870719e+01    7.614836e-01
  2.872307e+01    7.523535e-01
  2.873895e+01    7.509238e-01
  2.875482e+01    7.359026e-01
  2.877070e+01    7.330635e-01
  2.878657e+01    7.477150e-01
  2.880245e+01    7.526758e-01
  2.881832e+01    7.308050e-01
  2.883420e+01    7.106559e-01
  2.885007e+01    7.287469e-01
  2.886595e+01    7.159198e-01
  2.888183e+01    7.047987e-01
  2.889770e+01    7.221062e-01
  2.891358e+01    7.449065e-01
  2.892945e+01    7.352397e-01
  2.894533e+01    7.313157e-01
  2.896120e+01    7.230862e-01
  2.897708e+01    7.284576e-01
  2.899295e+01    7.348821e-01
  2.900883e+01    7.363748e-01
  2.902471e+01    7.320687e-01
  2.904058e+01    7.140635e-01
  2.905646e+01    7.323999e-01
  2.907233e+01    7.299716e-01
  2.908821e+01    7.126248e-01
  2.910408e+01    7.190593e-01
  2.911996e+01    7.189242e-01
  2.913583e+01    7.287897e-01
  2.915171e+01    7.079509e-01
  2.916759e+01    7.139367e-01
  2.918346e+01    7.331672e-01
  2.919934e+01    7.335633e-01
  2.921521e+01    7.284354e-01
  2.923109e+01    7.318448e-01
  2.924696e+01    7.326055e-01
  2.926284e+01    7.328608e-01
  2.927871e+01    7.252808e-01
  2.929459e+01    7.062165e-01
  2.931047e+01    7.289150e-01
  2.932634e+01    7.428561e-01
  2.934222e+01    7.522207e-01
  2.935809e+01    7.370898e-01
  2.937397e+01    7.142075e-01
  2.938984e+01    7.286127e-01
  2.940572e+01    7.149990e-01
  2.942159e+01    7.235704e-01
  2.943747e+01    7.257453e-01
  2.945335e+01    7.250412e-01
  2.946922e+01    7.123940e-01
  2.948510e+01    7.091823e-01
  2.950097e+01    7.121955e-01
  2.951685e+01    6.957829e-01
  2.953272e+01    6.958049e-01
  2.954860e+01    7.149103e-01
  2.956447e+01    7.109664e-01
  2.958035e+01    7.329163e-01
  2.959623e+01    6.986243e-01
  2.961210e+01    7.022865e-01
  2.962798e+01    7.179676e-01
  2.964385e+01    7.164937e-01
  2.965973e+01    6.960815e-01
  2.967560e+01    7.022063e-01
  2.969148e+01    7.052166e-01
  2.970736e+01    7.000985e-01
  2.972323e+01    7.180521e-01
  2.973911e+01    7.052233e-01
  2.975498e+01    7.067840e-01
  2.977086e+01    7.145652e-01
  2.978673e+01    7.202809e-01
  2.980261e+01    7.015345e-01
  2.981848e+01    7.236785e-01
  2.983436e+01    7.163490e-01
  2.985024e+01    7.031806e-01
  2.986611e+01    7.107755e-01
  2.988199e+01    7.225148e-01
  2.989786e+01    7.067806e-01
  2.991374e+01    7.176460e-01
  2.992961e+01    7.052751e-01
  2.994549e+01    7.001557e-01
  2.996136e+01    7.015903e-01
  2.997724e+01    7.072797e-01
  2.999312e+01    7.113944e-01
  3.000899e+01    7.184099e-01
  3.002487e+01    7.323536e-01
  3.004074e+01    7.170894e-01
  3.005662e+01    7.072135e-01
  3.007249e+01    7.143829e-01
  3.008837e+01    7.165768e-01
  3.010424e+01    7.338045e-01
  3.012012e+01    7.114027e-01
  3.013600e+01    7.073805e-01
  3.015187e+01    6.925977e-01
  3.016775e+01    6.926970e-01
  3.018362e+01    6.941507e-01
  3.019950e+01    7.065831e-01
  3.021537e+01    7.038124e-01
  3.023125e+01    7.139421e-01
  3.024712e+01    7.166427e-01
  3.026300e+01    7.061931e-01
  3.027888e+01    6.989868e-01
  3.029475e+01    7.069865e-01
  3.031063e+01    7.005264e-01
  3.032650e+01    7.068513e-01
  3.034238e+01    7.071176e-01
  3.035825e+01    7.087693e-01
  3.037413e+01    7.012035e-01
  3.039000e+01    7.104992e-01
  3.040588e+01    7.047930e-01
  3.042176e+01    6.769766e-01
  3.043763e+01    7.028889e-01
  3.045351e+01    7.230580e-01
  3.046938e+01    7.073760e-01
  3.048526e+01    7.092686e-01
  3.050113e+01    7.221912e-01
  3.051701e+01    7.046687e-01
  3.053288e+01    7.007059e-01
  3.054876e+01    6.979051e-01
  3.056464e+01    7.117629e-01
  3.058051e+01    7.081411e-01
  3.059639e+01    7.136216e-01
  3.061226e+01    6.988989e-01
  3.062814e+01    6.929334e-01
  3.064401e+01    7.009181e-01
  3.065989e+01    7.097246e-01
  3.067577e+01    7.089257e-01
  3.069164e+01    6.941410e-01
  3.070752e+01    7.038793e-01
  3.072339e+01    7.095411e-01
  3.073927e+01    7.079155e-01
  3.075514e+01    7.049879e-01
  3.077102e+01    7.085596e-01
  3.078689e+01    7.256643e-01
  3.080277e+01    7.134910e-01
  3.081865e+01    6.978822e-01
  3.083452e+01    6.970252e-01
  3.085040e+01    7.037402e-01
  3.086627e+01    6.917098e-01
  3.088215e+01    7.130404e-01
  3.089802e+01    6.991772e-01
  3.091390e+01    6.990641e-01
  3.092977e+01    7.180873e-01
  3.094565e+01    7.093303e-01
  3.096153e+01    7.128040e-01
  3.097740e+01    6.994518e-01
  3.099328e+01    7.146049e-01
  3.100915e+01    7.270818e-01
  3.102503e+01    7.180200e-01
  3.104090e+01    7.407062e-01
  3.105678e+01    7.087367e-01
  3.107265e+01    7.209153e-01
  3.108853e+01    6.963441e-01
  3.110441e+01    7.081558e-01
  3.112028e+01    7.133920e-01
  3.113616e+01    7.120985e-01
  3.115203e+01    7.041671e-01
  3.116791e+01    6.943072e-01
  3.118378e+01    7.119390e-01
  3.119966e+01    7.231746e-01
  3.121553e+01    7.492926e-01
  3.123141e+01    7.345740e-01
  3.124729e+01    7.303823e-01
  3.126316e+01    7.098724e-01
  3.127904e+01    7.336978e-01
  3.129491e+01    7.508270e-01
  3.131079e+01    7.391185e-01
  3.132666e+01    7.217426e-01
  3.134254e+01    7.374253e-01
  3.135841e+01    7.404262e-01
  3.137429e+01    7.316970e-01
  3.139017e+01    7.092510e-01
  3.140604e+01    7.286213e-01
  3.142192e+01    7.289974e-01
  3.143779e+01    7.306026e-01
  3.145367e+01    7.403207e-01
  3.146954e+01    7.228779e-01
  3.148542e+01    7.665047e-01
  3.150129e+01    7.510422e-01
  3.151717e+01    7.454004e-01
  3.153305e+01    7.772222e-01
  3.154892e+01    7.868550e-01
  3.156480e+01    7.691310e-01
  3.158067e+01    7.852778e-01
  3.159655e+01    8.104150e-01
  3.161242e+01    8.312093e-01
  3.162830e+01    8.280909e-01
  3.164418e+01    8.344179e-01
  3.166005e+01    8.456766e-01
  3.167593e+01    8.653821e-01
  3.169180e+01    8.961685e-01
  3.170768e+01    9.403022e-01
  3.172355e+01    9.911524e-01
  3.173943e+01    1.010753e+00
  3.175530e+01    1.074242e+00
  3.177118e+01    1.146753e+00
  3.178706e+01    1.222628e+00
  3.180293e+01    1.313522e+00
  3.181881e+01    1.444273e+00
  3.183468e+01    1.599330e+00
  3.185056e+01    1.752962e+00
  3.186643e+01    1.884547e+00
  3.188231e+01    2.067852e+00
  3.189818e+01    2.179083e+00
  3.191406e+01    2.259442e+00
  3.192994e+01    2.268820e+00
  3.194581e+01    2.295132e+00
  3.196169e+01    2.223316e+00
  3.197756e+01    2.054820e+00
  3.199344e+01    1.874081e+00
  3.200931e+01    1.699230e+00
  3.202519e+01    1.543108e+00
  3.204106e+01    1.435047e+00
  3.205694e+01    1.298818e+00
  3.207282e+01    1.182330e+00
  3.208869e+01    1.100140e+00
  3.210457e+01    1.033430e+00
  3.212044e+01    9.962838e-01
  3.213632e+01    9.494178e-01
  3.215219e+01    9.116276e-01
  3.216807e+01    8.826788e-01
  3.218394e+01    8.575779e-01
  3.219982e+01    8.481241e-01
  3.221570e+01    8.355827e-01
  3.223157e+01    8.160337e-01
  3.224745e+01    8.016501e-01
  3.226332e+01    7.814817e-01
  3.227920e+01    7.793232e-01
  3.229507e+01    7.637376e-01
  3.231095e+01    7.652435e-01
  3.232682e+01    7.622687e-01
  3.234270e+01    7.666856e-01
  3.235858e+01    7.586447e-01
  3.237445e+01    7.640066e-01
  3.239033e+01    7.560458e-01
  3.240620e+01    7.689466e-01
  3.242208e+01    7.554480e-01
  3.243795e+01    7.062234e-01
  3.245383e+01    7.158316e-01
  3.246970e+01    7.317137e-01
  3.248558e+01    7.500087e-01
  3.250146e+01    7.371130e-01
  3.251733e+01    7.449083e-01
  3.253321e+01    7.495842e-01
  3.254908e+01    7.125054e-01
