# == pyFAI calibration ==
# Distance Sample to Detector: 0.3999999939076516 m
# PONI: 9.750e-02, 1.135e-01 m
# Rotations: -0.000175 0.000000 -0.000000 rad
# 
# == Fit2d calibration ==
# Distance Sample-beamCenter: 400.000 mm
# Center: x=1514.000, y=1300.000 pix
# Tilt: 0.010 deg  TiltPlanRot: 0.010 deg
# 
# Detector Detector	 Spline= None	 PixelSize= 7.500e-05, 7.500e-05 m
#    Detector has a mask: False 
#    Detector has a dark current: False 
#    detector has a flat field: False 
# 
# Wavelength: 6.888e-11 m
# Mask applied: user provided
# Dark current applied: False
# Flat field applied: False
# Polarization factor: 0.99
# Normalization factor: 1.0
# --> /home/myspot/data/2024_07_Rosario/Ru-CGO-ex/2024-07-27_002_Ru-CGO-ex_Activtation_ramp_000002_data_000069.dat
#       q_nm^-1             I 
  2.003187e-02    0.000000e+00
  3.590745e-02    0.000000e+00
  5.178302e-02    2.670345e-02
  6.765859e-02    5.597643e-02
  8.353417e-02    1.021717e-01
  9.940974e-02    1.191830e-01
  1.152853e-01    1.766353e-02
  1.311609e-01    2.321696e-02
  1.470365e-01    5.639378e-02
  1.629120e-01    3.494308e-04
  1.787876e-01    6.288453e-02
  1.946632e-01    3.609255e-02
  2.105388e-01    3.862128e-02
  2.264143e-01    3.682084e-02
  2.422899e-01    9.660430e-02
  2.581655e-01    8.348455e-02
  2.740411e-01    5.178647e-02
  2.899166e-01    5.671390e-02
  3.057922e-01    7.355891e-02
  3.216678e-01    6.724154e-02
  3.375433e-01    5.248874e-02
  3.534189e-01    1.999048e-02
  3.692945e-01    4.040553e-02
  3.851701e-01    5.735132e-02
  4.010456e-01    7.089877e-02
  4.169212e-01    9.464760e-02
  4.327968e-01    4.518990e-02
  4.486724e-01    2.398090e-02
  4.645479e-01    2.785063e-02
  4.804235e-01    1.097183e-02
  4.962991e-01    3.308350e-02
  5.121747e-01    4.887312e-02
  5.280502e-01    3.419515e-02
  5.439258e-01    2.172461e-02
  5.598014e-01    1.142715e-02
  5.756770e-01    4.827126e-02
  5.915525e-01    4.906010e-02
  6.074281e-01    2.633642e-02
  6.233037e-01    2.625046e-02
  6.391793e-01    2.824708e-02
  6.550548e-01    5.056557e-02
  6.709304e-01    6.142785e-02
  6.868060e-01    2.832879e-02
  7.026815e-01    2.301193e-02
  7.185571e-01    5.133530e-02
  7.344327e-01    4.665722e-02
  7.503083e-01    5.376862e-02
  7.661838e-01    8.635265e-02
  7.820594e-01    8.469570e-02
  7.979350e-01    1.524595e-01
  8.138106e-01    2.113513e-01
  8.296861e-01    2.308182e-01
  8.455617e-01    2.984372e-01
  8.614373e-01    3.803607e-01
  8.773129e-01    4.503849e-01
  8.931884e-01    5.169458e-01
  9.090640e-01    5.774377e-01
  9.249396e-01    6.378725e-01
  9.408152e-01    7.473357e-01
  9.566907e-01    8.124388e-01
  9.725663e-01    8.168992e-01
  9.884419e-01    9.405814e-01
  1.004317e+00    1.119166e+00
  1.020193e+00    1.126899e+00
  1.036069e+00    1.182613e+00
  1.051944e+00    1.197996e+00
  1.067820e+00    1.201524e+00
  1.083695e+00    1.198878e+00
  1.099571e+00    1.452072e+00
  1.115446e+00    1.467624e+00
  1.131322e+00    1.428572e+00
  1.147198e+00    1.527161e+00
  1.163073e+00    1.551588e+00
  1.178949e+00    1.499838e+00
  1.194824e+00    1.622959e+00
  1.210700e+00    1.889094e+00
  1.226575e+00    2.086007e+00
  1.242451e+00    2.285446e+00
  1.258327e+00    2.325830e+00
  1.274202e+00    2.420616e+00
  1.290078e+00    2.455238e+00
  1.305953e+00    2.445884e+00
  1.321829e+00    2.479882e+00
  1.337705e+00    2.603397e+00
  1.353580e+00    2.543376e+00
  1.369456e+00    2.513493e+00
  1.385331e+00    2.592875e+00
  1.401207e+00    2.599002e+00
  1.417082e+00    2.727081e+00
  1.432958e+00    2.804643e+00
  1.448834e+00    2.794023e+00
  1.464709e+00    2.862835e+00
  1.480585e+00    2.819844e+00
  1.496460e+00    2.747577e+00
  1.512336e+00    2.832910e+00
  1.528211e+00    2.742956e+00
  1.544087e+00    2.976227e+00
  1.559963e+00    3.106797e+00
  1.575838e+00    3.142715e+00
  1.591714e+00    3.024901e+00
  1.607589e+00    2.859074e+00
  1.623465e+00    2.904941e+00
  1.639340e+00    2.873414e+00
  1.655216e+00    2.980211e+00
  1.671092e+00    2.974658e+00
  1.686967e+00    2.876748e+00
  1.702843e+00    2.799645e+00
  1.718718e+00    2.909782e+00
  1.734594e+00    2.841970e+00
  1.750469e+00    2.793611e+00
  1.766345e+00    2.830907e+00
  1.782221e+00    2.925934e+00
  1.798096e+00    2.921242e+00
  1.813972e+00    2.825952e+00
  1.829847e+00    2.802807e+00
  1.845723e+00    2.823654e+00
  1.861598e+00    2.815855e+00
  1.877474e+00    2.851879e+00
  1.893350e+00    2.740593e+00
  1.909225e+00    2.723398e+00
  1.925101e+00    2.767887e+00
  1.940976e+00    2.771573e+00
  1.956852e+00    2.818447e+00
  1.972727e+00    2.718230e+00
  1.988603e+00    2.764260e+00
  2.004479e+00    2.776106e+00
  2.020354e+00    2.789843e+00
  2.036230e+00    2.667470e+00
  2.052105e+00    2.679038e+00
  2.067981e+00    2.717801e+00
  2.083856e+00    2.720548e+00
  2.099732e+00    2.650435e+00
  2.115608e+00    2.885633e+00
  2.131483e+00    2.898312e+00
  2.147359e+00    2.816790e+00
  2.163234e+00    2.789544e+00
  2.179110e+00    2.763925e+00
  2.194985e+00    2.844467e+00
  2.210861e+00    2.805547e+00
  2.226737e+00    2.754871e+00
  2.242612e+00    2.762476e+00
  2.258488e+00    2.782112e+00
  2.274363e+00    2.739898e+00
  2.290239e+00    2.877476e+00
  2.306115e+00    2.902684e+00
  2.321990e+00    2.790751e+00
  2.337866e+00    2.867268e+00
  2.353741e+00    2.742847e+00
  2.369617e+00    2.701362e+00
  2.385492e+00    2.773672e+00
  2.401368e+00    2.822569e+00
  2.417244e+00    2.826381e+00
  2.433119e+00    2.800390e+00
  2.448995e+00    2.789459e+00
  2.464870e+00    2.697930e+00
  2.480746e+00    2.727968e+00
  2.496621e+00    2.709849e+00
  2.512497e+00    2.680005e+00
  2.528373e+00    2.712487e+00
  2.544248e+00    2.698650e+00
  2.560124e+00    2.803858e+00
  2.575999e+00    2.824070e+00
  2.591875e+00    2.823787e+00
  2.607750e+00    2.829538e+00
  2.623626e+00    2.880991e+00
  2.639502e+00    2.852479e+00
  2.655377e+00    2.858317e+00
  2.671253e+00    2.878888e+00
  2.687128e+00    2.838756e+00
  2.703004e+00    2.771235e+00
  2.718879e+00    2.810229e+00
  2.734755e+00    2.781503e+00
  2.750631e+00    2.836317e+00
  2.766506e+00    2.790796e+00
  2.782382e+00    2.851272e+00
  2.798257e+00    2.843435e+00
  2.814133e+00    2.936181e+00
  2.830008e+00    2.909502e+00
  2.845884e+00    2.912208e+00
  2.861760e+00    2.842110e+00
  2.877635e+00    2.780231e+00
  2.893511e+00    2.776669e+00
  2.909386e+00    2.818445e+00
  2.925262e+00    2.818223e+00
  2.941137e+00    2.773508e+00
  2.957013e+00    2.761749e+00
  2.972889e+00    2.867805e+00
  2.988764e+00    2.885908e+00
  3.004640e+00    2.799785e+00
  3.020515e+00    2.856220e+00
  3.036391e+00    2.945581e+00
  3.052266e+00    2.940234e+00
  3.068142e+00    2.960130e+00
  3.084018e+00    2.916492e+00
  3.099893e+00    2.874674e+00
  3.115769e+00    2.905463e+00
  3.131644e+00    2.886601e+00
  3.147520e+00    2.890793e+00
  3.163395e+00    2.994214e+00
  3.179271e+00    2.945964e+00
  3.195147e+00    2.889920e+00
  3.211022e+00    2.908584e+00
  3.226898e+00    3.000330e+00
  3.242773e+00    2.990756e+00
  3.258649e+00    2.926813e+00
  3.274525e+00    2.895295e+00
  3.290400e+00    2.928384e+00
  3.306276e+00    2.940962e+00
  3.322151e+00    2.998682e+00
  3.338027e+00    2.909126e+00
  3.353902e+00    2.955864e+00
  3.369778e+00    2.955788e+00
  3.385654e+00    2.987454e+00
  3.401529e+00    2.938287e+00
  3.417405e+00    2.967652e+00
  3.433280e+00    2.946957e+00
  3.449156e+00    2.933561e+00
  3.465031e+00    2.919707e+00
  3.480907e+00    2.886762e+00
  3.496783e+00    2.898959e+00
  3.512658e+00    2.956715e+00
  3.528534e+00    2.976833e+00
  3.544409e+00    2.996837e+00
  3.560285e+00    2.989443e+00
  3.576160e+00    2.995273e+00
  3.592036e+00    2.957958e+00
  3.607912e+00    2.954716e+00
  3.623787e+00    2.955544e+00
  3.639663e+00    2.918782e+00
  3.655538e+00    2.977497e+00
  3.671414e+00    3.004714e+00
  3.687289e+00    2.951914e+00
  3.703165e+00    2.896086e+00
  3.719041e+00    2.923814e+00
  3.734916e+00    2.885849e+00
  3.750792e+00    3.050752e+00
  3.766667e+00    3.038221e+00
  3.782543e+00    2.993905e+00
  3.798418e+00    3.024992e+00
  3.814294e+00    2.999563e+00
  3.830170e+00    2.935336e+00
  3.846045e+00    2.934166e+00
  3.861921e+00    2.964025e+00
  3.877796e+00    2.977731e+00
  3.893672e+00    2.990282e+00
  3.909547e+00    3.046665e+00
  3.925423e+00    3.035458e+00
  3.941299e+00    2.963669e+00
  3.957174e+00    3.008312e+00
  3.973050e+00    3.027721e+00
  3.988925e+00    3.025808e+00
  4.004801e+00    3.050994e+00
  4.020676e+00    2.979421e+00
  4.036552e+00    2.938225e+00
  4.052428e+00    2.955367e+00
  4.068303e+00    2.949551e+00
  4.084179e+00    2.949027e+00
  4.100054e+00    3.017286e+00
  4.115930e+00    2.996615e+00
  4.131806e+00    2.933846e+00
  4.147681e+00    3.143915e+00
  4.163557e+00    3.110085e+00
  4.179432e+00    2.961918e+00
  4.195308e+00    3.016340e+00
  4.211183e+00    2.992016e+00
  4.227059e+00    2.993990e+00
  4.242935e+00    3.028429e+00
  4.258810e+00    3.030055e+00
  4.274686e+00    3.016829e+00
  4.290561e+00    3.048223e+00
  4.306437e+00    3.127167e+00
  4.322312e+00    3.065255e+00
  4.338188e+00    3.000244e+00
  4.354064e+00    3.050889e+00
  4.369939e+00    3.028632e+00
  4.385815e+00    3.005242e+00
  4.401690e+00    3.005057e+00
  4.417566e+00    3.044760e+00
  4.433441e+00    3.115905e+00
  4.449317e+00    3.118690e+00
  4.465193e+00    3.128127e+00
  4.481068e+00    3.121704e+00
  4.496944e+00    3.005387e+00
  4.512819e+00    2.995784e+00
  4.528695e+00    2.980663e+00
  4.544570e+00    3.052871e+00
  4.560446e+00    3.069961e+00
  4.576322e+00    3.020271e+00
  4.592197e+00    3.027217e+00
  4.608073e+00    3.098836e+00
  4.623948e+00    3.119883e+00
  4.639824e+00    3.050466e+00
  4.655699e+00    2.990866e+00
  4.671575e+00    3.062398e+00
  4.687451e+00    3.078653e+00
  4.703326e+00    3.075237e+00
  4.719202e+00    3.053162e+00
  4.735077e+00    3.130543e+00
  4.750953e+00    3.121688e+00
  4.766828e+00    3.121569e+00
  4.782704e+00    3.097226e+00
  4.798580e+00    3.117433e+00
  4.814455e+00    3.209373e+00
  4.830331e+00    3.132324e+00
  4.846206e+00    3.123362e+00
  4.862082e+00    3.117282e+00
  4.877957e+00    3.021567e+00
  4.893833e+00    3.064036e+00
  4.909709e+00    3.120117e+00
  4.925584e+00    3.115412e+00
  4.941460e+00    3.184121e+00
  4.957335e+00    3.163726e+00
  4.973211e+00    3.100731e+00
  4.989086e+00    3.044520e+00
  5.004962e+00    3.078772e+00
  5.020838e+00    3.070142e+00
  5.036713e+00    3.098221e+00
  5.052589e+00    3.048126e+00
  5.068464e+00    3.123413e+00
  5.084340e+00    3.153633e+00
  5.100216e+00    3.115378e+00
  5.116091e+00    3.103795e+00
  5.131967e+00    3.166729e+00
  5.147842e+00    3.104153e+00
  5.163718e+00    3.081363e+00
  5.179593e+00    3.098810e+00
  5.195469e+00    3.156548e+00
  5.211345e+00    3.164600e+00
  5.227220e+00    3.120769e+00
  5.243096e+00    3.094328e+00
  5.258971e+00    3.081039e+00
  5.274847e+00    3.153447e+00
  5.290722e+00    3.107349e+00
  5.306598e+00    3.088122e+00
  5.322474e+00    3.066612e+00
  5.338349e+00    3.075679e+00
  5.354225e+00    3.098708e+00
  5.370100e+00    3.106819e+00
  5.385976e+00    3.154611e+00
  5.401851e+00    3.103913e+00
  5.417727e+00    3.052854e+00
  5.433603e+00    3.026854e+00
  5.449478e+00    3.009991e+00
  5.465354e+00    3.025888e+00
  5.481229e+00    3.047710e+00
  5.497105e+00    3.036422e+00
  5.512980e+00    3.116726e+00
  5.528856e+00    3.108727e+00
  5.544732e+00    3.047903e+00
  5.560607e+00    3.111464e+00
  5.576483e+00    3.073422e+00
  5.592358e+00    3.073156e+00
  5.608234e+00    3.101053e+00
  5.624109e+00    3.122714e+00
  5.639985e+00    3.063404e+00
  5.655861e+00    3.065683e+00
  5.671736e+00    3.121539e+00
  5.687612e+00    3.087821e+00
  5.703487e+00    3.068745e+00
  5.719363e+00    3.065933e+00
  5.735238e+00    3.039438e+00
  5.751114e+00    3.040756e+00
  5.766990e+00    2.976401e+00
  5.782865e+00    2.990910e+00
  5.798741e+00    3.015551e+00
  5.814616e+00    2.991271e+00
  5.830492e+00    3.053874e+00
  5.846367e+00    2.989480e+00
  5.862243e+00    3.002784e+00
  5.878119e+00    3.064905e+00
  5.893994e+00    3.000327e+00
  5.909870e+00    2.988638e+00
  5.925745e+00    2.919338e+00
  5.941621e+00    2.984243e+00
  5.957497e+00    3.069944e+00
  5.973372e+00    3.042089e+00
  5.989248e+00    2.953695e+00
  6.005123e+00    2.950610e+00
  6.020999e+00    3.005217e+00
  6.036874e+00    3.004928e+00
  6.052750e+00    2.989519e+00
  6.068626e+00    3.004408e+00
  6.084501e+00    3.075367e+00
  6.100377e+00    3.123157e+00
  6.116252e+00    3.091488e+00
  6.132128e+00    3.005379e+00
  6.148003e+00    2.960630e+00
  6.163879e+00    3.100693e+00
  6.179755e+00    3.095433e+00
  6.195630e+00    3.090191e+00
  6.211506e+00    3.004445e+00
  6.227381e+00    3.015050e+00
  6.243257e+00    3.108075e+00
  6.259132e+00    3.112192e+00
  6.275008e+00    3.031455e+00
  6.290884e+00    3.019861e+00
  6.306759e+00    2.971607e+00
  6.322635e+00    2.950067e+00
  6.338510e+00    2.973363e+00
  6.354386e+00    2.977699e+00
  6.370261e+00    2.968992e+00
  6.386137e+00    2.981284e+00
  6.402013e+00    2.947369e+00
  6.417888e+00    3.022777e+00
  6.433764e+00    3.003361e+00
  6.449639e+00    2.992955e+00
  6.465515e+00    3.080729e+00
  6.481390e+00    3.009926e+00
  6.497266e+00    2.983213e+00
  6.513142e+00    3.085573e+00
  6.529017e+00    3.070810e+00
  6.544893e+00    2.990854e+00
  6.560768e+00    3.065147e+00
  6.576644e+00    3.012467e+00
  6.592519e+00    3.024173e+00
  6.608395e+00    3.030552e+00
  6.624271e+00    2.975952e+00
  6.640146e+00    2.992161e+00
  6.656022e+00    3.028331e+00
  6.671897e+00    3.017406e+00
  6.687773e+00    3.075629e+00
  6.703648e+00    3.082618e+00
  6.719524e+00    3.057559e+00
  6.735400e+00    3.052327e+00
  6.751275e+00    3.063750e+00
  6.767151e+00    3.017752e+00
  6.783026e+00    3.007251e+00
  6.798902e+00    3.033157e+00
  6.814777e+00    3.036461e+00
  6.830653e+00    3.027597e+00
  6.846529e+00    2.975415e+00
  6.862404e+00    2.938387e+00
  6.878280e+00    2.971124e+00
  6.894155e+00    2.998613e+00
  6.910031e+00    3.051461e+00
  6.925907e+00    2.978359e+00
  6.941782e+00    3.004972e+00
  6.957658e+00    2.994698e+00
  6.973533e+00    2.954509e+00
  6.989409e+00    2.941605e+00
  7.005284e+00    3.034916e+00
  7.021160e+00    3.011675e+00
  7.037036e+00    3.032956e+00
  7.052911e+00    3.039827e+00
  7.068787e+00    2.987632e+00
  7.084662e+00    2.997132e+00
  7.100538e+00    3.059004e+00
  7.116413e+00    3.062810e+00
  7.132289e+00    3.021854e+00
  7.148165e+00    3.004063e+00
  7.164040e+00    2.952148e+00
  7.179916e+00    2.946903e+00
  7.195791e+00    3.008059e+00
  7.211667e+00    2.971577e+00
  7.227542e+00    2.936271e+00
  7.243418e+00    2.974244e+00
  7.259294e+00    2.965117e+00
  7.275169e+00    3.021865e+00
  7.291045e+00    3.081565e+00
  7.306920e+00    3.046751e+00
  7.322796e+00    2.999343e+00
  7.338671e+00    2.940295e+00
  7.354547e+00    2.946888e+00
  7.370423e+00    2.972273e+00
  7.386298e+00    3.018468e+00
  7.402174e+00    3.034296e+00
  7.418049e+00    3.050204e+00
  7.433925e+00    3.011065e+00
  7.449800e+00    2.994565e+00
  7.465676e+00    2.953150e+00
  7.481552e+00    2.966107e+00
  7.497427e+00    2.951329e+00
  7.513303e+00    2.950270e+00
  7.529178e+00    2.936131e+00
  7.545054e+00    2.923028e+00
  7.560929e+00    2.940059e+00
  7.576805e+00    2.937209e+00
  7.592681e+00    2.950152e+00
  7.608556e+00    2.913938e+00
  7.624432e+00    2.869554e+00
  7.640307e+00    2.867759e+00
  7.656183e+00    2.894436e+00
  7.672058e+00    2.865246e+00
  7.687934e+00    2.896313e+00
  7.703810e+00    2.940476e+00
  7.719685e+00    2.956386e+00
  7.735561e+00    2.926160e+00
  7.751436e+00    2.916361e+00
  7.767312e+00    2.950017e+00
  7.783187e+00    2.877376e+00
  7.799063e+00    2.860348e+00
  7.814939e+00    2.892018e+00
  7.830814e+00    2.916003e+00
  7.846690e+00    2.947891e+00
  7.862565e+00    2.949633e+00
  7.878441e+00    2.892374e+00
  7.894317e+00    2.908754e+00
  7.910192e+00    2.970014e+00
  7.926068e+00    2.938100e+00
  7.941943e+00    2.994165e+00
  7.957819e+00    2.890143e+00
  7.973694e+00    2.921210e+00
  7.989570e+00    2.943759e+00
  8.005446e+00    2.933709e+00
  8.021321e+00    2.907968e+00
  8.037197e+00    2.881859e+00
  8.053072e+00    2.867077e+00
  8.068948e+00    2.894587e+00
  8.084823e+00    2.922767e+00
  8.100699e+00    2.948324e+00
  8.116575e+00    2.990080e+00
  8.132450e+00    3.008357e+00
  8.148326e+00    3.045346e+00
  8.164201e+00    2.949974e+00
  8.180077e+00    2.925185e+00
  8.195952e+00    2.927271e+00
  8.211828e+00    3.032767e+00
  8.227704e+00    3.024287e+00
  8.243579e+00    2.915665e+00
  8.259455e+00    2.930755e+00
  8.275330e+00    2.888539e+00
  8.291206e+00    2.817503e+00
  8.307081e+00    2.850647e+00
  8.322957e+00    2.821600e+00
  8.338833e+00    2.853620e+00
  8.354708e+00    2.855152e+00
  8.370584e+00    2.852124e+00
  8.386459e+00    2.899867e+00
  8.402335e+00    2.939885e+00
  8.418210e+00    2.961843e+00
  8.434086e+00    2.902427e+00
  8.449962e+00    2.859715e+00
  8.465837e+00    2.869513e+00
  8.481713e+00    2.813335e+00
  8.497588e+00    2.816905e+00
  8.513464e+00    2.879839e+00
  8.529339e+00    2.867781e+00
  8.545215e+00    2.836054e+00
  8.561091e+00    2.824062e+00
  8.576966e+00    2.862488e+00
  8.592842e+00    2.837086e+00
  8.608717e+00    2.831840e+00
  8.624593e+00    2.828729e+00
  8.640468e+00    2.843379e+00
  8.656344e+00    2.827517e+00
  8.672220e+00    2.829711e+00
  8.688095e+00    2.857224e+00
  8.703971e+00    2.863222e+00
  8.719846e+00    2.822356e+00
  8.735722e+00    2.818792e+00
  8.751598e+00    2.741931e+00
  8.767473e+00    2.808555e+00
  8.783349e+00    2.875004e+00
  8.799224e+00    2.900026e+00
  8.815100e+00    2.850328e+00
  8.830975e+00    2.809109e+00
  8.846851e+00    2.865628e+00
  8.862727e+00    2.860791e+00
  8.878602e+00    2.763371e+00
  8.894478e+00    2.803712e+00
  8.910353e+00    2.816111e+00
  8.926229e+00    2.814102e+00
  8.942104e+00    2.852354e+00
  8.957980e+00    2.747850e+00
  8.973856e+00    2.777003e+00
  8.989731e+00    2.859369e+00
  9.005607e+00    2.868251e+00
  9.021482e+00    2.878017e+00
  9.037358e+00    2.832884e+00
  9.053233e+00    2.801898e+00
  9.069109e+00    2.749346e+00
  9.084985e+00    2.826329e+00
  9.100860e+00    2.810011e+00
  9.116736e+00    2.712628e+00
  9.132611e+00    2.788001e+00
  9.148487e+00    2.850720e+00
  9.164362e+00    2.855792e+00
  9.180238e+00    2.800774e+00
  9.196114e+00    2.825502e+00
  9.211989e+00    2.824781e+00
  9.227865e+00    2.733515e+00
  9.243740e+00    2.758776e+00
  9.259616e+00    2.816399e+00
  9.275491e+00    2.785441e+00
  9.291367e+00    2.767758e+00
  9.307243e+00    2.746187e+00
  9.323118e+00    2.708372e+00
  9.338994e+00    2.765006e+00
  9.354869e+00    2.829027e+00
  9.370745e+00    2.795785e+00
  9.386620e+00    2.734045e+00
  9.402496e+00    2.722674e+00
  9.418372e+00    2.702518e+00
  9.434247e+00    2.727936e+00
  9.450123e+00    2.753521e+00
  9.465998e+00    2.810707e+00
  9.481874e+00    2.802665e+00
  9.497749e+00    2.741558e+00
  9.513625e+00    2.733793e+00
  9.529501e+00    2.768865e+00
  9.545376e+00    2.741245e+00
  9.561252e+00    2.725996e+00
  9.577127e+00    2.729227e+00
  9.593003e+00    2.733360e+00
  9.608878e+00    2.758522e+00
  9.624754e+00    2.710205e+00
  9.640630e+00    2.772027e+00
  9.656505e+00    2.775654e+00
  9.672381e+00    2.730139e+00
  9.688256e+00    2.729281e+00
  9.704132e+00    2.700813e+00
  9.720008e+00    2.714395e+00
  9.735883e+00    2.718218e+00
  9.751759e+00    2.714045e+00
  9.767634e+00    2.639278e+00
  9.783510e+00    2.696935e+00
  9.799385e+00    2.686590e+00
  9.815261e+00    2.702790e+00
  9.831137e+00    2.701557e+00
  9.847012e+00    2.729575e+00
  9.862888e+00    2.704365e+00
  9.878763e+00    2.680755e+00
  9.894639e+00    2.661782e+00
  9.910514e+00    2.639462e+00
  9.926390e+00    2.638614e+00
  9.942266e+00    2.636347e+00
  9.958141e+00    2.660061e+00
  9.974017e+00    2.694423e+00
  9.989892e+00    2.690246e+00
  1.000577e+01    2.688351e+00
  1.002164e+01    2.665695e+00
  1.003752e+01    2.655535e+00
  1.005339e+01    2.619030e+00
  1.006927e+01    2.572496e+00
  1.008515e+01    2.644993e+00
  1.010102e+01    2.624445e+00
  1.011690e+01    2.626819e+00
  1.013277e+01    2.641670e+00
  1.014865e+01    2.655002e+00
  1.016452e+01    2.647692e+00
  1.018040e+01    2.634125e+00
  1.019627e+01    2.613861e+00
  1.021215e+01    2.667614e+00
  1.022803e+01    2.621095e+00
  1.024390e+01    2.634609e+00
  1.025978e+01    2.643222e+00
  1.027565e+01    2.626472e+00
  1.029153e+01    2.585922e+00
  1.030740e+01    2.608253e+00
  1.032328e+01    2.645763e+00
  1.033915e+01    2.597108e+00
  1.035503e+01    2.577497e+00
  1.037091e+01    2.647848e+00
  1.038678e+01    2.627436e+00
  1.040266e+01    2.619980e+00
  1.041853e+01    2.670305e+00
  1.043441e+01    2.665648e+00
  1.045028e+01    2.645931e+00
  1.046616e+01    2.616028e+00
  1.048204e+01    2.590777e+00
  1.049791e+01    2.615853e+00
  1.051379e+01    2.590157e+00
  1.052966e+01    2.603556e+00
  1.054554e+01    2.629778e+00
  1.056141e+01    2.651652e+00
  1.057729e+01    2.601149e+00
  1.059316e+01    2.606020e+00
  1.060904e+01    2.585405e+00
  1.062492e+01    2.564672e+00
  1.064079e+01    2.589671e+00
  1.065667e+01    2.587885e+00
  1.067254e+01    2.497476e+00
  1.068842e+01    2.525774e+00
  1.070429e+01    2.573249e+00
  1.072017e+01    2.530114e+00
  1.073604e+01    2.575675e+00
  1.075192e+01    2.529660e+00
  1.076780e+01    2.487151e+00
  1.078367e+01    2.530766e+00
  1.079955e+01    2.522924e+00
  1.081542e+01    2.558615e+00
  1.083130e+01    2.522435e+00
  1.084717e+01    2.482938e+00
  1.086305e+01    2.484021e+00
  1.087892e+01    2.467874e+00
  1.089480e+01    2.544496e+00
  1.091068e+01    2.564805e+00
  1.092655e+01    2.521792e+00
  1.094243e+01    2.461525e+00
  1.095830e+01    2.476285e+00
  1.097418e+01    2.516239e+00
  1.099005e+01    2.499285e+00
  1.100593e+01    2.570926e+00
  1.102180e+01    2.532309e+00
  1.103768e+01    2.492020e+00
  1.105356e+01    2.467925e+00
  1.106943e+01    2.495577e+00
  1.108531e+01    2.496670e+00
  1.110118e+01    2.488060e+00
  1.111706e+01    2.471663e+00
  1.113293e+01    2.488493e+00
  1.114881e+01    2.486761e+00
  1.116468e+01    2.417065e+00
  1.118056e+01    2.493602e+00
  1.119644e+01    2.503024e+00
  1.121231e+01    2.428733e+00
  1.122819e+01    2.435660e+00
  1.124406e+01    2.435379e+00
  1.125994e+01    2.428679e+00
  1.127581e+01    2.380897e+00
  1.129169e+01    2.396296e+00
  1.130756e+01    2.434865e+00
  1.132344e+01    2.446037e+00
  1.133932e+01    2.377259e+00
  1.135519e+01    2.415898e+00
  1.137107e+01    2.435454e+00
  1.138694e+01    2.411165e+00
  1.140282e+01    2.414357e+00
  1.141869e+01    2.389581e+00
  1.143457e+01    2.426358e+00
  1.145045e+01    2.429816e+00
  1.146632e+01    2.436817e+00
  1.148220e+01    2.410894e+00
  1.149807e+01    2.406500e+00
  1.151395e+01    2.374222e+00
  1.152982e+01    2.370013e+00
  1.154570e+01    2.403607e+00
  1.156157e+01    2.396474e+00
  1.157745e+01    2.397135e+00
  1.159333e+01    2.420802e+00
  1.160920e+01    2.444361e+00
  1.162508e+01    2.390433e+00
  1.164095e+01    2.377334e+00
  1.165683e+01    2.381266e+00
  1.167270e+01    2.380364e+00
  1.168858e+01    2.405529e+00
  1.170445e+01    2.374574e+00
  1.172033e+01    2.356007e+00
  1.173621e+01    2.309462e+00
  1.175208e+01    2.311258e+00
  1.176796e+01    2.308371e+00
  1.178383e+01    2.327376e+00
  1.179971e+01    2.306091e+00
  1.181558e+01    2.323963e+00
  1.183146e+01    2.362619e+00
  1.184733e+01    2.328958e+00
  1.186321e+01    2.364712e+00
  1.187909e+01    2.338526e+00
  1.189496e+01    2.323502e+00
  1.191084e+01    2.306483e+00
  1.192671e+01    2.342403e+00
  1.194259e+01    2.324915e+00
  1.195846e+01    2.311610e+00
  1.197434e+01    2.329343e+00
  1.199021e+01    2.289153e+00
  1.200609e+01    2.299420e+00
  1.202197e+01    2.320776e+00
  1.203784e+01    2.307716e+00
  1.205372e+01    2.346909e+00
  1.206959e+01    2.350594e+00
  1.208547e+01    2.324060e+00
  1.210134e+01    2.289387e+00
  1.211722e+01    2.293706e+00
  1.213309e+01    2.290526e+00
  1.214897e+01    2.320986e+00
  1.216485e+01    2.328184e+00
  1.218072e+01    2.306535e+00
  1.219660e+01    2.313952e+00
  1.221247e+01    2.337928e+00
  1.222835e+01    2.330216e+00
  1.224422e+01    2.337973e+00
  1.226010e+01    2.337342e+00
  1.227597e+01    2.332252e+00
  1.229185e+01    2.279989e+00
  1.230773e+01    2.273987e+00
  1.232360e+01    2.290575e+00
  1.233948e+01    2.319155e+00
  1.235535e+01    2.358974e+00
  1.237123e+01    2.322979e+00
  1.238710e+01    2.276687e+00
  1.240298e+01    2.291925e+00
  1.241886e+01    2.335393e+00
  1.243473e+01    2.371186e+00
  1.245061e+01    2.339413e+00
  1.246648e+01    2.337314e+00
  1.248236e+01    2.359582e+00
  1.249823e+01    2.337118e+00
  1.251411e+01    2.310212e+00
  1.252998e+01    2.308966e+00
  1.254586e+01    2.362409e+00
  1.256174e+01    2.371304e+00
  1.257761e+01    2.397238e+00
  1.259349e+01    2.342210e+00
  1.260936e+01    2.386024e+00
  1.262524e+01    2.427408e+00
  1.264111e+01    2.436444e+00
  1.265699e+01    2.432018e+00
  1.267286e+01    2.451018e+00
  1.268874e+01    2.469983e+00
  1.270462e+01    2.436030e+00
  1.272049e+01    2.494624e+00
  1.273637e+01    2.557433e+00
  1.275224e+01    2.547384e+00
  1.276812e+01    2.581029e+00
  1.278399e+01    2.649504e+00
  1.279987e+01    2.667201e+00
  1.281574e+01    2.691063e+00
  1.283162e+01    2.727714e+00
  1.284750e+01    2.767155e+00
  1.286337e+01    2.907749e+00
  1.287925e+01    3.036532e+00
  1.289512e+01    3.137175e+00
  1.291100e+01    3.276688e+00
  1.292687e+01    3.434816e+00
  1.294275e+01    3.661479e+00
  1.295862e+01    3.949025e+00
  1.297450e+01    4.287308e+00
  1.299038e+01    4.763875e+00
  1.300625e+01    5.307969e+00
  1.302213e+01    6.036282e+00
  1.303800e+01    6.938456e+00
  1.305388e+01    7.978414e+00
  1.306975e+01    9.227618e+00
  1.308563e+01    1.065149e+01
  1.310150e+01    1.212686e+01
  1.311738e+01    1.360480e+01
  1.313326e+01    1.489985e+01
  1.314913e+01    1.623977e+01
  1.316501e+01    1.748044e+01
  1.318088e+01    1.842698e+01
  1.319676e+01    1.867174e+01
  1.321263e+01    1.793581e+01
  1.322851e+01    1.632689e+01
  1.324438e+01    1.417009e+01
  1.326026e+01    1.198165e+01
  1.327614e+01    1.003001e+01
  1.329201e+01    8.509860e+00
  1.330789e+01    7.231050e+00
  1.332376e+01    6.278167e+00
  1.333964e+01    5.550941e+00
  1.335551e+01    4.908480e+00
  1.337139e+01    4.432564e+00
  1.338727e+01    4.089730e+00
  1.340314e+01    3.793264e+00
  1.341902e+01    3.522157e+00
  1.343489e+01    3.356019e+00
  1.345077e+01    3.190734e+00
  1.346664e+01    3.058697e+00
  1.348252e+01    2.883315e+00
  1.349839e+01    2.757442e+00
  1.351427e+01    2.713675e+00
  1.353015e+01    2.673340e+00
  1.354602e+01    2.579214e+00
  1.356190e+01    2.524925e+00
  1.357777e+01    2.506871e+00
  1.359365e+01    2.505619e+00
  1.360952e+01    2.402411e+00
  1.362540e+01    2.373381e+00
  1.364127e+01    2.348816e+00
  1.365715e+01    2.320666e+00
  1.367303e+01    2.305116e+00
  1.368890e+01    2.313457e+00
  1.370478e+01    2.303768e+00
  1.372065e+01    2.254764e+00
  1.373653e+01    2.222875e+00
  1.375240e+01    2.184808e+00
  1.376828e+01    2.205785e+00
  1.378415e+01    2.181137e+00
  1.380003e+01    2.144466e+00
  1.381591e+01    2.165403e+00
  1.383178e+01    2.155170e+00
  1.384766e+01    2.139621e+00
  1.386353e+01    2.149526e+00
  1.387941e+01    2.149884e+00
  1.389528e+01    2.122347e+00
  1.391116e+01    2.105210e+00
  1.392703e+01    2.112939e+00
  1.394291e+01    2.099390e+00
  1.395879e+01    2.047282e+00
  1.397466e+01    2.037594e+00
  1.399054e+01    2.044847e+00
  1.400641e+01    2.070249e+00
  1.402229e+01    2.047400e+00
  1.403816e+01    2.037050e+00
  1.405404e+01    2.038750e+00
  1.406991e+01    2.049559e+00
  1.408579e+01    1.999799e+00
  1.410167e+01    1.964307e+00
  1.411754e+01    1.992855e+00
  1.413342e+01    1.994181e+00
  1.414929e+01    1.979536e+00
  1.416517e+01    1.995918e+00
  1.418104e+01    1.980264e+00
  1.419692e+01    1.983754e+00
  1.421279e+01    1.976161e+00
  1.422867e+01    1.981619e+00
  1.424455e+01    1.908749e+00
  1.426042e+01    1.937272e+00
  1.427630e+01    1.966976e+00
  1.429217e+01    1.982903e+00
  1.430805e+01    1.994857e+00
  1.432392e+01    1.977520e+00
  1.433980e+01    1.984181e+00
  1.435568e+01    1.981586e+00
  1.437155e+01    1.971079e+00
  1.438743e+01    1.965296e+00
  1.440330e+01    1.947854e+00
  1.441918e+01    1.933240e+00
  1.443505e+01    1.914531e+00
  1.445093e+01    1.908473e+00
  1.446680e+01    1.957974e+00
  1.448268e+01    1.960213e+00
  1.449856e+01    1.935452e+00
  1.451443e+01    1.924676e+00
  1.453031e+01    1.934375e+00
  1.454618e+01    1.917534e+00
  1.456206e+01    1.927788e+00
  1.457793e+01    1.936566e+00
  1.459381e+01    1.933993e+00
  1.460968e+01    1.938993e+00
  1.462556e+01    1.941353e+00
  1.464144e+01    1.918796e+00
  1.465731e+01    1.960609e+00
  1.467319e+01    1.914677e+00
  1.468906e+01    1.882693e+00
  1.470494e+01    1.909150e+00
  1.472081e+01    1.911978e+00
  1.473669e+01    1.886568e+00
  1.475256e+01    1.929786e+00
  1.476844e+01    1.929737e+00
  1.478432e+01    1.912203e+00
  1.480019e+01    1.922009e+00
  1.481607e+01    1.938361e+00
  1.483194e+01    1.870211e+00
  1.484782e+01    1.918616e+00
  1.486369e+01    1.944592e+00
  1.487957e+01    1.967554e+00
  1.489544e+01    1.957305e+00
  1.491132e+01    1.975202e+00
  1.492720e+01    2.004855e+00
  1.494307e+01    1.994665e+00
  1.495895e+01    2.011438e+00
  1.497482e+01    2.049050e+00
  1.499070e+01    2.078530e+00
  1.500657e+01    2.100822e+00
  1.502245e+01    2.182956e+00
  1.503832e+01    2.271552e+00
  1.505420e+01    2.397933e+00
  1.507008e+01    2.505751e+00
  1.508595e+01    2.648447e+00
  1.510183e+01    2.802388e+00
  1.511770e+01    3.023829e+00
  1.513358e+01    3.308358e+00
  1.514945e+01    3.667442e+00
  1.516533e+01    4.077796e+00
  1.518120e+01    4.482199e+00
  1.519708e+01    4.894890e+00
  1.521296e+01    5.239120e+00
  1.522883e+01    5.602045e+00
  1.524471e+01    5.900000e+00
  1.526058e+01    6.113957e+00
  1.527646e+01    6.205657e+00
  1.529233e+01    6.193440e+00
  1.530821e+01    6.060880e+00
  1.532409e+01    5.645748e+00
  1.533996e+01    5.120344e+00
  1.535584e+01    4.411243e+00
  1.537171e+01    3.882098e+00
  1.538759e+01    3.472002e+00
  1.540346e+01    3.157185e+00
  1.541934e+01    2.887558e+00
  1.543521e+01    2.643226e+00
  1.545109e+01    2.482277e+00
  1.546697e+01    2.342535e+00
  1.548284e+01    2.254363e+00
  1.549872e+01    2.153278e+00
  1.551459e+01    2.084624e+00
  1.553047e+01    2.028220e+00
  1.554634e+01    2.014642e+00
  1.556222e+01    1.939829e+00
  1.557809e+01    1.883664e+00
  1.559397e+01    1.878831e+00
  1.560985e+01    1.857048e+00
  1.562572e+01    1.833572e+00
  1.564160e+01    1.836068e+00
  1.565747e+01    1.795730e+00
  1.567335e+01    1.794777e+00
  1.568922e+01    1.764651e+00
  1.570510e+01    1.756730e+00
  1.572097e+01    1.702948e+00
  1.573685e+01    1.675981e+00
  1.575273e+01    1.731210e+00
  1.576860e+01    1.715084e+00
  1.578448e+01    1.687858e+00
  1.580035e+01    1.692673e+00
  1.581623e+01    1.710938e+00
  1.583210e+01    1.673328e+00
  1.584798e+01    1.656448e+00
  1.586385e+01    1.638487e+00
  1.587973e+01    1.638854e+00
  1.589561e+01    1.622455e+00
  1.591148e+01    1.628473e+00
  1.592736e+01    1.648664e+00
  1.594323e+01    1.651293e+00
  1.595911e+01    1.661457e+00
  1.597498e+01    1.635734e+00
  1.599086e+01    1.631613e+00
  1.600673e+01    1.611292e+00
  1.602261e+01    1.579197e+00
  1.603849e+01    1.596219e+00
  1.605436e+01    1.616301e+00
  1.607024e+01    1.599613e+00
  1.608611e+01    1.616250e+00
  1.610199e+01    1.597843e+00
  1.611786e+01    1.591230e+00
  1.613374e+01    1.596050e+00
  1.614961e+01    1.607915e+00
  1.616549e+01    1.584425e+00
  1.618137e+01    1.592835e+00
  1.619724e+01    1.567908e+00
  1.621312e+01    1.539051e+00
  1.622899e+01    1.563497e+00
  1.624487e+01    1.564730e+00
  1.626074e+01    1.558612e+00
  1.627662e+01    1.539059e+00
  1.629250e+01    1.573320e+00
  1.630837e+01    1.553735e+00
  1.632425e+01    1.526313e+00
  1.634012e+01    1.525876e+00
  1.635600e+01    1.568371e+00
  1.637187e+01    1.543852e+00
  1.638775e+01    1.484442e+00
  1.640362e+01    1.504310e+00
  1.641950e+01    1.521673e+00
  1.643538e+01    1.489243e+00
  1.645125e+01    1.531486e+00
  1.646713e+01    1.544349e+00
  1.648300e+01    1.531201e+00
  1.649888e+01    1.512161e+00
  1.651475e+01    1.480936e+00
  1.653063e+01    1.464886e+00
  1.654650e+01    1.507352e+00
  1.656238e+01    1.512979e+00
  1.657826e+01    1.493176e+00
  1.659413e+01    1.486078e+00
  1.661001e+01    1.504526e+00
  1.662588e+01    1.491273e+00
  1.664176e+01    1.481290e+00
  1.665763e+01    1.473462e+00
  1.667351e+01    1.451751e+00
  1.668938e+01    1.449640e+00
  1.670526e+01    1.461720e+00
  1.672114e+01    1.445272e+00
  1.673701e+01    1.475308e+00
  1.675289e+01    1.471642e+00
  1.676876e+01    1.459840e+00
  1.678464e+01    1.455733e+00
  1.680051e+01    1.468040e+00
  1.681639e+01    1.463057e+00
  1.683226e+01    1.483318e+00
  1.684814e+01    1.485389e+00
  1.686402e+01    1.437339e+00
  1.687989e+01    1.430032e+00
  1.689577e+01    1.449881e+00
  1.691164e+01    1.448087e+00
  1.692752e+01    1.466404e+00
  1.694339e+01    1.438009e+00
  1.695927e+01    1.454012e+00
  1.697514e+01    1.448271e+00
  1.699102e+01    1.457234e+00
  1.700690e+01    1.440920e+00
  1.702277e+01    1.395048e+00
  1.703865e+01    1.405807e+00
  1.705452e+01    1.421710e+00
  1.707040e+01    1.433682e+00
  1.708627e+01    1.462012e+00
  1.710215e+01    1.449363e+00
  1.711802e+01    1.429317e+00
  1.713390e+01    1.411353e+00
  1.714978e+01    1.426394e+00
  1.716565e+01    1.412406e+00
  1.718153e+01    1.400600e+00
  1.719740e+01    1.391032e+00
  1.721328e+01    1.380225e+00
  1.722915e+01    1.367367e+00
  1.724503e+01    1.374126e+00
  1.726091e+01    1.394244e+00
  1.727678e+01    1.401729e+00
  1.729266e+01    1.383988e+00
  1.730853e+01    1.364948e+00
  1.732441e+01    1.371557e+00
  1.734028e+01    1.395981e+00
  1.735616e+01    1.378953e+00
  1.737203e+01    1.390373e+00
  1.738791e+01    1.389022e+00
  1.740379e+01    1.362890e+00
  1.741966e+01    1.350806e+00
  1.743554e+01    1.355045e+00
  1.745141e+01    1.345449e+00
  1.746729e+01    1.373270e+00
  1.748316e+01    1.372995e+00
  1.749904e+01    1.363994e+00
  1.751491e+01    1.362188e+00
  1.753079e+01    1.376800e+00
  1.754667e+01    1.358712e+00
  1.756254e+01    1.332154e+00
  1.757842e+01    1.345842e+00
  1.759429e+01    1.371329e+00
  1.761017e+01    1.370536e+00
  1.762604e+01    1.343078e+00
  1.764192e+01    1.327452e+00
  1.765779e+01    1.340907e+00
  1.767367e+01    1.354714e+00
  1.768955e+01    1.352924e+00
  1.770542e+01    1.343776e+00
  1.772130e+01    1.347364e+00
  1.773717e+01    1.336207e+00
  1.775305e+01    1.311054e+00
  1.776892e+01    1.319680e+00
  1.778480e+01    1.328320e+00
  1.780067e+01    1.346603e+00
  1.781655e+01    1.345613e+00
  1.783243e+01    1.327397e+00
  1.784830e+01    1.328219e+00
  1.786418e+01    1.351599e+00
  1.788005e+01    1.336026e+00
  1.789593e+01    1.334143e+00
  1.791180e+01    1.329469e+00
  1.792768e+01    1.335805e+00
  1.794355e+01    1.312495e+00
  1.795943e+01    1.308834e+00
  1.797531e+01    1.277574e+00
  1.799118e+01    1.264725e+00
  1.800706e+01    1.276196e+00
  1.802293e+01    1.280663e+00
  1.803881e+01    1.302878e+00
  1.805468e+01    1.295930e+00
  1.807056e+01    1.285571e+00
  1.808643e+01    1.288830e+00
  1.810231e+01    1.283031e+00
  1.811819e+01    1.281539e+00
  1.813406e+01    1.263036e+00
  1.814994e+01    1.300996e+00
  1.816581e+01    1.298792e+00
  1.818169e+01    1.277500e+00
  1.819756e+01    1.243360e+00
  1.821344e+01    1.286284e+00
  1.822932e+01    1.294818e+00
  1.824519e+01    1.264601e+00
  1.826107e+01    1.246743e+00
  1.827694e+01    1.257710e+00
  1.829282e+01    1.262745e+00
  1.830869e+01    1.267837e+00
  1.832457e+01    1.268726e+00
  1.834044e+01    1.273197e+00
  1.835632e+01    1.265582e+00
  1.837220e+01    1.265043e+00
  1.838807e+01    1.242905e+00
  1.840395e+01    1.255962e+00
  1.841982e+01    1.262583e+00
  1.843570e+01    1.242537e+00
  1.845157e+01    1.244658e+00
  1.846745e+01    1.245186e+00
  1.848332e+01    1.233332e+00
  1.849920e+01    1.243896e+00
  1.851508e+01    1.246262e+00
  1.853095e+01    1.234207e+00
  1.854683e+01    1.227235e+00
  1.856270e+01    1.221767e+00
  1.857858e+01    1.240960e+00
  1.859445e+01    1.231074e+00
  1.861033e+01    1.244741e+00
  1.862620e+01    1.238420e+00
  1.864208e+01    1.262973e+00
  1.865796e+01    1.275546e+00
  1.867383e+01    1.252173e+00
  1.868971e+01    1.216096e+00
  1.870558e+01    1.218293e+00
  1.872146e+01    1.252423e+00
  1.873733e+01    1.217647e+00
  1.875321e+01    1.202465e+00
  1.876908e+01    1.215256e+00
  1.878496e+01    1.199913e+00
  1.880084e+01    1.211560e+00
  1.881671e+01    1.249643e+00
  1.883259e+01    1.217725e+00
  1.884846e+01    1.191498e+00
  1.886434e+01    1.204200e+00
  1.888021e+01    1.220271e+00
  1.889609e+01    1.216664e+00
  1.891196e+01    1.197317e+00
  1.892784e+01    1.211181e+00
  1.894372e+01    1.208651e+00
  1.895959e+01    1.198621e+00
  1.897547e+01    1.194915e+00
  1.899134e+01    1.204161e+00
  1.900722e+01    1.216343e+00
  1.902309e+01    1.187105e+00
  1.903897e+01    1.158467e+00
  1.905484e+01    1.185782e+00
  1.907072e+01    1.177134e+00
  1.908660e+01    1.173061e+00
  1.910247e+01    1.208800e+00
  1.911835e+01    1.234244e+00
  1.913422e+01    1.217510e+00
  1.915010e+01    1.205059e+00
  1.916597e+01    1.206343e+00
  1.918185e+01    1.197221e+00
  1.919773e+01    1.178530e+00
  1.921360e+01    1.173441e+00
  1.922948e+01    1.214911e+00
  1.924535e+01    1.210564e+00
  1.926123e+01    1.190398e+00
  1.927710e+01    1.180057e+00
  1.929298e+01    1.164920e+00
  1.930885e+01    1.170235e+00
  1.932473e+01    1.186010e+00
  1.934061e+01    1.178163e+00
  1.935648e+01    1.167596e+00
  1.937236e+01    1.175732e+00
  1.938823e+01    1.172608e+00
  1.940411e+01    1.177711e+00
  1.941998e+01    1.149577e+00
  1.943586e+01    1.146709e+00
  1.945173e+01    1.157036e+00
  1.946761e+01    1.161320e+00
  1.948349e+01    1.157216e+00
  1.949936e+01    1.135503e+00
  1.951524e+01    1.155239e+00
  1.953111e+01    1.151651e+00
  1.954699e+01    1.163776e+00
  1.956286e+01    1.178370e+00
  1.957874e+01    1.159385e+00
  1.959461e+01    1.174934e+00
  1.961049e+01    1.163797e+00
  1.962637e+01    1.146193e+00
  1.964224e+01    1.172727e+00
  1.965812e+01    1.156273e+00
  1.967399e+01    1.136675e+00
  1.968987e+01    1.177929e+00
  1.970574e+01    1.146126e+00
  1.972162e+01    1.133249e+00
  1.973749e+01    1.169944e+00
  1.975337e+01    1.143022e+00
  1.976925e+01    1.137596e+00
  1.978512e+01    1.118581e+00
  1.980100e+01    1.129636e+00
  1.981687e+01    1.145865e+00
  1.983275e+01    1.149862e+00
  1.984862e+01    1.119902e+00
  1.986450e+01    1.137019e+00
  1.988037e+01    1.128568e+00
  1.989625e+01    1.110089e+00
  1.991213e+01    1.109646e+00
  1.992800e+01    1.120142e+00
  1.994388e+01    1.111089e+00
  1.995975e+01    1.119389e+00
  1.997563e+01    1.120723e+00
  1.999150e+01    1.123927e+00
  2.000738e+01    1.149771e+00
  2.002325e+01    1.124756e+00
  2.003913e+01    1.098251e+00
  2.005501e+01    1.114531e+00
  2.007088e+01    1.110167e+00
  2.008676e+01    1.123542e+00
  2.010263e+01    1.121791e+00
  2.011851e+01    1.094812e+00
  2.013438e+01    1.115071e+00
  2.015026e+01    1.117566e+00
  2.016614e+01    1.125680e+00
  2.018201e+01    1.129425e+00
  2.019789e+01    1.098130e+00
  2.021376e+01    1.116291e+00
  2.022964e+01    1.105660e+00
  2.024551e+01    1.111357e+00
  2.026139e+01    1.115003e+00
  2.027726e+01    1.103740e+00
  2.029314e+01    1.107891e+00
  2.030902e+01    1.076810e+00
  2.032489e+01    1.093217e+00
  2.034077e+01    1.084893e+00
  2.035664e+01    1.080354e+00
  2.037252e+01    1.083680e+00
  2.038839e+01    1.097550e+00
  2.040427e+01    1.101580e+00
  2.042014e+01    1.096365e+00
  2.043602e+01    1.092763e+00
  2.045190e+01    1.094589e+00
  2.046777e+01    1.095237e+00
  2.048365e+01    1.091179e+00
  2.049952e+01    1.104041e+00
  2.051540e+01    1.094734e+00
  2.053127e+01    1.083990e+00
  2.054715e+01    1.096618e+00
  2.056302e+01    1.091606e+00
  2.057890e+01    1.075121e+00
  2.059478e+01    1.102090e+00
  2.061065e+01    1.099924e+00
  2.062653e+01    1.093681e+00
  2.064240e+01    1.084996e+00
  2.065828e+01    1.088853e+00
  2.067415e+01    1.072334e+00
  2.069003e+01    1.077664e+00
  2.070590e+01    1.064998e+00
  2.072178e+01    1.042809e+00
  2.073766e+01    1.038152e+00
  2.075353e+01    1.078693e+00
  2.076941e+01    1.074609e+00
  2.078528e+01    1.054182e+00
  2.080116e+01    1.077881e+00
  2.081703e+01    1.095265e+00
  2.083291e+01    1.076628e+00
  2.084878e+01    1.073256e+00
  2.086466e+01    1.073202e+00
  2.088054e+01    1.094580e+00
  2.089641e+01    1.093579e+00
  2.091229e+01    1.100995e+00
  2.092816e+01    1.100523e+00
  2.094404e+01    1.101065e+00
  2.095991e+01    1.101628e+00
  2.097579e+01    1.105375e+00
  2.099166e+01    1.085078e+00
  2.100754e+01    1.074070e+00
  2.102342e+01    1.096898e+00
  2.103929e+01    1.080431e+00
  2.105517e+01    1.083881e+00
  2.107104e+01    1.092898e+00
  2.108692e+01    1.080789e+00
  2.110279e+01    1.094385e+00
  2.111867e+01    1.091994e+00
  2.113455e+01    1.086857e+00
  2.115042e+01    1.071709e+00
  2.116630e+01    1.083049e+00
  2.118217e+01    1.092286e+00
  2.119805e+01    1.091927e+00
  2.121392e+01    1.084153e+00
  2.122980e+01    1.100230e+00
  2.124567e+01    1.116421e+00
  2.126155e+01    1.120467e+00
  2.127743e+01    1.107923e+00
  2.129330e+01    1.094222e+00
  2.130918e+01    1.117319e+00
  2.132505e+01    1.135850e+00
  2.134093e+01    1.130777e+00
  2.135680e+01    1.150487e+00
  2.137268e+01    1.159673e+00
  2.138855e+01    1.162169e+00
  2.140443e+01    1.211004e+00
  2.142031e+01    1.195632e+00
  2.143618e+01    1.194706e+00
  2.145206e+01    1.227284e+00
  2.146793e+01    1.233569e+00
  2.148381e+01    1.237967e+00
  2.149968e+01    1.275360e+00
  2.151556e+01    1.276386e+00
  2.153143e+01    1.317165e+00
  2.154731e+01    1.391964e+00
  2.156319e+01    1.423549e+00
  2.157906e+01    1.479258e+00
  2.159494e+01    1.522403e+00
  2.161081e+01    1.583410e+00
  2.162669e+01    1.671002e+00
  2.164256e+01    1.754503e+00
  2.165844e+01    1.845082e+00
  2.167431e+01    1.972979e+00
  2.169019e+01    2.185189e+00
  2.170607e+01    2.415213e+00
  2.172194e+01    2.683285e+00
  2.173782e+01    2.984710e+00
  2.175369e+01    3.385142e+00
  2.176957e+01    3.858968e+00
  2.178544e+01    4.422313e+00
  2.180132e+01    5.145462e+00
  2.181719e+01    5.923041e+00
  2.183307e+01    6.684082e+00
  2.184895e+01    7.397733e+00
  2.186482e+01    8.291082e+00
  2.188070e+01    9.120309e+00
  2.189657e+01    9.758738e+00
  2.191245e+01    1.016955e+01
  2.192832e+01    1.027406e+01
  2.194420e+01    9.917053e+00
  2.196007e+01    9.108424e+00
  2.197595e+01    8.091762e+00
  2.199183e+01    6.941354e+00
  2.200770e+01    5.903372e+00
  2.202358e+01    5.016458e+00
  2.203945e+01    4.233046e+00
  2.205533e+01    3.630432e+00
  2.207120e+01    3.189343e+00
  2.208708e+01    2.822074e+00
  2.210296e+01    2.521822e+00
  2.211883e+01    2.245903e+00
  2.213471e+01    2.065227e+00
  2.215058e+01    1.918908e+00
  2.216646e+01    1.812201e+00
  2.218233e+01    1.690206e+00
  2.219821e+01    1.579401e+00
  2.221408e+01    1.497049e+00
  2.222996e+01    1.449551e+00
  2.224584e+01    1.394882e+00
  2.226171e+01    1.343436e+00
  2.227759e+01    1.305804e+00
  2.229346e+01    1.280163e+00
  2.230934e+01    1.244654e+00
  2.232521e+01    1.222388e+00
  2.234109e+01    1.201046e+00
  2.235696e+01    1.169852e+00
  2.237284e+01    1.167590e+00
  2.238872e+01    1.161238e+00
  2.240459e+01    1.140216e+00
  2.242047e+01    1.089438e+00
  2.243634e+01    1.073415e+00
  2.245222e+01    1.073218e+00
  2.246809e+01    1.070519e+00
  2.248397e+01    1.084504e+00
  2.249984e+01    1.066798e+00
  2.251572e+01    1.057420e+00
  2.253160e+01    1.025256e+00
  2.254747e+01    1.035319e+00
  2.256335e+01    1.029306e+00
  2.257922e+01    1.004329e+00
  2.259510e+01    1.014898e+00
  2.261097e+01    1.010020e+00
  2.262685e+01    9.900343e-01
  2.264272e+01    9.694318e-01
  2.265860e+01    9.757664e-01
  2.267448e+01    9.780149e-01
  2.269035e+01    9.711640e-01
  2.270623e+01    9.709574e-01
  2.272210e+01    9.619610e-01
  2.273798e+01    9.633878e-01
  2.275385e+01    9.495475e-01
  2.276973e+01    9.331953e-01
  2.278560e+01    8.992664e-01
  2.280148e+01    9.204155e-01
  2.281736e+01    9.339704e-01
  2.283323e+01    9.400796e-01
  2.284911e+01    9.464893e-01
  2.286498e+01    9.393195e-01
  2.288086e+01    9.184397e-01
  2.289673e+01    9.259054e-01
  2.291261e+01    9.032136e-01
  2.292848e+01    9.330646e-01
  2.294436e+01    9.063423e-01
  2.296024e+01    9.000550e-01
  2.297611e+01    9.082513e-01
  2.299199e+01    9.071544e-01
  2.300786e+01    8.985051e-01
  2.302374e+01    8.894345e-01
  2.303961e+01    8.938056e-01
  2.305549e+01    9.039705e-01
  2.307137e+01    9.244961e-01
  2.308724e+01    9.164661e-01
  2.310312e+01    8.924814e-01
  2.311899e+01    8.862802e-01
  2.313487e+01    8.917521e-01
  2.315074e+01    9.047973e-01
  2.316662e+01    8.897412e-01
  2.318249e+01    8.796154e-01
  2.319837e+01    8.564485e-01
  2.321425e+01    8.627890e-01
  2.323012e+01    8.858458e-01
  2.324600e+01    8.751476e-01
  2.326187e+01    8.798224e-01
  2.327775e+01    8.558699e-01
  2.329362e+01    8.630545e-01
  2.330950e+01    8.670123e-01
  2.332537e+01    8.656621e-01
  2.334125e+01    8.539197e-01
  2.335713e+01    8.570523e-01
  2.337300e+01    8.639238e-01
  2.338888e+01    8.715462e-01
  2.340475e+01    8.572519e-01
  2.342063e+01    8.275941e-01
  2.343650e+01    8.580468e-01
  2.345238e+01    8.558667e-01
  2.346825e+01    8.513801e-01
  2.348413e+01    8.645431e-01
  2.350001e+01    8.434290e-01
  2.351588e+01    8.412463e-01
  2.353176e+01    8.399978e-01
  2.354763e+01    8.483208e-01
  2.356351e+01    8.635166e-01
  2.357938e+01    8.469298e-01
  2.359526e+01    8.417128e-01
  2.361113e+01    8.743700e-01
  2.362701e+01    8.774917e-01
  2.364289e+01    8.574216e-01
  2.365876e+01    8.334509e-01
  2.367464e+01    8.461754e-01
  2.369051e+01    8.245579e-01
  2.370639e+01    8.068596e-01
  2.372226e+01    8.290173e-01
  2.373814e+01    8.266805e-01
  2.375401e+01    7.946394e-01
  2.376989e+01    8.251638e-01
  2.378577e+01    8.188928e-01
  2.380164e+01    8.144213e-01
  2.381752e+01    8.174037e-01
  2.383339e+01    8.115464e-01
  2.384927e+01    8.069512e-01
  2.386514e+01    8.071619e-01
  2.388102e+01    8.163080e-01
  2.389689e+01    8.104920e-01
  2.391277e+01    7.922863e-01
  2.392865e+01    8.079560e-01
  2.394452e+01    8.149896e-01
  2.396040e+01    8.021229e-01
  2.397627e+01    7.975312e-01
  2.399215e+01    7.847782e-01
  2.400802e+01    7.929715e-01
  2.402390e+01    8.003816e-01
  2.403978e+01    8.020994e-01
  2.405565e+01    8.017896e-01
  2.407153e+01    8.006989e-01
  2.408740e+01    7.819540e-01
  2.410328e+01    7.679359e-01
  2.411915e+01    7.639380e-01
  2.413503e+01    7.857234e-01
  2.415090e+01    7.936852e-01
  2.416678e+01    8.037257e-01
  2.418266e+01    8.109735e-01
  2.419853e+01    7.963298e-01
  2.421441e+01    7.954528e-01
  2.423028e+01    8.066232e-01
  2.424616e+01    8.156502e-01
  2.426203e+01    7.730680e-01
  2.427791e+01    7.927095e-01
  2.429378e+01    8.077347e-01
  2.430966e+01    8.066103e-01
  2.432554e+01    8.109371e-01
  2.434141e+01    8.062372e-01
  2.435729e+01    7.956606e-01
  2.437316e+01    7.983796e-01
  2.438904e+01    7.897015e-01
  2.440491e+01    7.956326e-01
  2.442079e+01    7.942604e-01
  2.443666e+01    7.803794e-01
  2.445254e+01    7.891166e-01
  2.446842e+01    7.857550e-01
  2.448429e+01    7.891994e-01
  2.450017e+01    7.845387e-01
  2.451604e+01    7.983236e-01
  2.453192e+01    8.037830e-01
  2.454779e+01    7.724985e-01
  2.456367e+01    7.779915e-01
  2.457954e+01    7.984768e-01
  2.459542e+01    8.091744e-01
  2.461130e+01    8.186631e-01
  2.462717e+01    7.845294e-01
  2.464305e+01    7.927822e-01
  2.465892e+01    7.979088e-01
  2.467480e+01    7.899446e-01
  2.469067e+01    7.839965e-01
  2.470655e+01    7.874191e-01
  2.472242e+01    7.918671e-01
  2.473830e+01    7.704434e-01
  2.475418e+01    7.982065e-01
  2.477005e+01    8.105010e-01
  2.478593e+01    7.916821e-01
  2.480180e+01    7.834828e-01
  2.481768e+01    7.877808e-01
  2.483355e+01    7.814161e-01
  2.484943e+01    7.962126e-01
  2.486530e+01    7.918137e-01
  2.488118e+01    8.081197e-01
  2.489706e+01    7.853303e-01
  2.491293e+01    8.103849e-01
  2.492881e+01    8.038170e-01
  2.494468e+01    7.953306e-01
  2.496056e+01    8.036345e-01
  2.497643e+01    7.856043e-01
  2.499231e+01    7.772537e-01
  2.500819e+01    8.056808e-01
  2.502406e+01    7.985978e-01
  2.503994e+01    8.085372e-01
  2.505581e+01    7.971176e-01
  2.507169e+01    7.879342e-01
  2.508756e+01    8.040145e-01
  2.510344e+01    8.250026e-01
  2.511931e+01    8.297002e-01
  2.513519e+01    8.143471e-01
  2.515107e+01    8.176084e-01
  2.516694e+01    8.181789e-01
  2.518282e+01    8.332331e-01
  2.519869e+01    8.455693e-01
  2.521457e+01    8.322771e-01
  2.523044e+01    8.352506e-01
  2.524632e+01    8.620974e-01
  2.526219e+01    8.698637e-01
  2.527807e+01    8.462571e-01
  2.529395e+01    8.701969e-01
  2.530982e+01    8.688053e-01
  2.532570e+01    8.625615e-01
  2.534157e+01    8.534786e-01
  2.535745e+01    8.653158e-01
  2.537332e+01    8.888501e-01
  2.538920e+01    9.031861e-01
  2.540507e+01    8.959371e-01
  2.542095e+01    8.976115e-01
  2.543683e+01    9.226746e-01
  2.545270e+01    9.354495e-01
  2.546858e+01    9.428146e-01
  2.548445e+01    9.360845e-01
  2.550033e+01    9.625644e-01
  2.551620e+01    9.892981e-01
  2.553208e+01    1.028175e+00
  2.554795e+01    1.061102e+00
  2.556383e+01    1.051724e+00
  2.557971e+01    1.045531e+00
  2.559558e+01    1.076822e+00
  2.561146e+01    1.103660e+00
  2.562733e+01    1.150974e+00
  2.564321e+01    1.196411e+00
  2.565908e+01    1.229585e+00
  2.567496e+01    1.274665e+00
  2.569083e+01    1.346817e+00
  2.570671e+01    1.442472e+00
  2.572259e+01    1.527696e+00
  2.573846e+01    1.638485e+00
  2.575434e+01    1.743565e+00
  2.577021e+01    1.922264e+00
  2.578609e+01    2.112421e+00
  2.580196e+01    2.363842e+00
  2.581784e+01    2.646774e+00
  2.583371e+01    2.996691e+00
  2.584959e+01    3.415834e+00
  2.586547e+01    3.957702e+00
  2.588134e+01    4.553948e+00
  2.589722e+01    5.251832e+00
  2.591309e+01    5.950329e+00
  2.592897e+01    6.660451e+00
  2.594484e+01    7.355885e+00
  2.596072e+01    7.936268e+00
  2.597660e+01    8.351184e+00
  2.599247e+01    8.503492e+00
  2.600835e+01    8.342619e+00
  2.602422e+01    7.784167e+00
  2.604010e+01    7.043756e+00
  2.605597e+01    6.164542e+00
  2.607185e+01    5.308197e+00
  2.608772e+01    4.556496e+00
  2.610360e+01    3.885065e+00
  2.611948e+01    3.331449e+00
  2.613535e+01    2.896737e+00
  2.615123e+01    2.584002e+00
  2.616710e+01    2.318118e+00
  2.618298e+01    2.047124e+00
  2.619885e+01    1.853599e+00
  2.621473e+01    1.726114e+00
  2.623060e+01    1.601877e+00
  2.624648e+01    1.513652e+00
  2.626236e+01    1.405531e+00
  2.627823e+01    1.339535e+00
  2.629411e+01    1.293404e+00
  2.630998e+01    1.228866e+00
  2.632586e+01    1.180445e+00
  2.634173e+01    1.114364e+00
  2.635761e+01    1.118464e+00
  2.637348e+01    1.108804e+00
  2.638936e+01    1.079233e+00
  2.640524e+01    1.042868e+00
  2.642111e+01    1.010636e+00
  2.643699e+01    1.051279e+00
  2.645286e+01    1.018420e+00
  2.646874e+01    9.674572e-01
  2.648461e+01    9.851604e-01
  2.650049e+01    9.823154e-01
  2.651636e+01    9.338406e-01
  2.653224e+01    9.287339e-01
  2.654812e+01    9.455020e-01
  2.656399e+01    9.595846e-01
  2.657987e+01    9.552393e-01
  2.659574e+01    9.151710e-01
  2.661162e+01    9.132426e-01
  2.662749e+01    9.173281e-01
  2.664337e+01    9.164694e-01
  2.665924e+01    9.083707e-01
  2.667512e+01    9.009755e-01
  2.669100e+01    9.134893e-01
  2.670687e+01    9.032202e-01
  2.672275e+01    9.260906e-01
  2.673862e+01    9.253398e-01
  2.675450e+01    9.139940e-01
  2.677037e+01    8.963417e-01
  2.678625e+01    9.138183e-01
  2.680212e+01    9.338647e-01
  2.681800e+01    9.144256e-01
  2.683388e+01    8.889179e-01
  2.684975e+01    8.963051e-01
  2.686563e+01    8.973169e-01
  2.688150e+01    8.938478e-01
  2.689738e+01    9.012271e-01
  2.691325e+01    9.333194e-01
  2.692913e+01    9.345129e-01
  2.694501e+01    9.407201e-01
  2.696088e+01    9.430125e-01
  2.697676e+01    9.708967e-01
  2.699263e+01    9.953809e-01
  2.700851e+01    1.025389e+00
  2.702438e+01    1.049099e+00
  2.704026e+01    1.061532e+00
  2.705613e+01    1.112966e+00
  2.707201e+01    1.162312e+00
  2.708789e+01    1.215884e+00
  2.710376e+01    1.291345e+00
  2.711964e+01    1.414859e+00
  2.713551e+01    1.539296e+00
  2.715139e+01    1.653515e+00
  2.716726e+01    1.783018e+00
  2.718314e+01    1.961232e+00
  2.719901e+01    2.108536e+00
  2.721489e+01    2.264196e+00
  2.723077e+01    2.420332e+00
  2.724664e+01    2.466063e+00
  2.726252e+01    2.469426e+00
  2.727839e+01    2.372428e+00
  2.729427e+01    2.217595e+00
  2.731014e+01    2.059073e+00
  2.732602e+01    1.873096e+00
  2.734189e+01    1.731425e+00
  2.735777e+01    1.544175e+00
  2.737365e+01    1.384767e+00
  2.738952e+01    1.274513e+00
  2.740540e+01    1.214494e+00
  2.742127e+01    1.151768e+00
  2.743715e+01    1.108197e+00
  2.745302e+01    1.072571e+00
  2.746890e+01    1.048344e+00
  2.748477e+01    1.003305e+00
  2.750065e+01    9.701099e-01
  2.751653e+01    9.376405e-01
  2.753240e+01    9.238322e-01
  2.754828e+01    9.181945e-01
  2.756415e+01    9.204710e-01
  2.758003e+01    9.077947e-01
  2.759590e+01    8.778231e-01
  2.761178e+01    8.626034e-01
  2.762765e+01    8.609533e-01
  2.764353e+01    8.442189e-01
  2.765941e+01    8.457344e-01
  2.767528e+01    8.656585e-01
  2.769116e+01    8.412624e-01
  2.770703e+01    8.194961e-01
  2.772291e+01    8.578171e-01
  2.773878e+01    8.567954e-01
  2.775466e+01    8.403632e-01
  2.777054e+01    8.069682e-01
  2.778641e+01    8.034506e-01
  2.780229e+01    8.185807e-01
  2.781816e+01    8.350698e-01
  2.783404e+01    8.169091e-01
  2.784991e+01    7.986602e-01
  2.786579e+01    8.078284e-01
  2.788166e+01    8.238977e-01
  2.789754e+01    8.103245e-01
  2.791342e+01    8.169744e-01
  2.792929e+01    7.899368e-01
  2.794517e+01    7.927462e-01
  2.796104e+01    8.104407e-01
  2.797692e+01    7.979552e-01
  2.799279e+01    8.055454e-01
  2.800867e+01    8.114540e-01
  2.802454e+01    8.129423e-01
  2.804042e+01    8.060998e-01
  2.805630e+01    8.005710e-01
  2.807217e+01    7.956141e-01
  2.808805e+01    7.821764e-01
  2.810392e+01    8.018942e-01
  2.811980e+01    7.922997e-01
  2.813567e+01    8.077780e-01
  2.815155e+01    7.882357e-01
  2.816742e+01    7.678887e-01
  2.818330e+01    7.898951e-01
  2.819918e+01    7.677438e-01
  2.821505e+01    7.688971e-01
  2.823093e+01    7.984232e-01
  2.824680e+01    7.854122e-01
  2.826268e+01    7.740486e-01
  2.827855e+01    7.856603e-01
  2.829443e+01    8.040819e-01
  2.831030e+01    7.779195e-01
  2.832618e+01    7.753037e-01
  2.834206e+01    7.841247e-01
  2.835793e+01    7.743855e-01
  2.837381e+01    7.741601e-01
  2.838968e+01    7.768928e-01
  2.840556e+01    7.697196e-01
  2.842143e+01    7.834088e-01
  2.843731e+01    7.770754e-01
  2.845318e+01    7.548756e-01
  2.846906e+01    7.556612e-01
  2.848494e+01    7.670132e-01
  2.850081e+01    7.439739e-01
  2.851669e+01    7.683453e-01
  2.853256e+01    7.706284e-01
  2.854844e+01    7.655306e-01
  2.856431e+01    7.454202e-01
  2.858019e+01    7.609488e-01
  2.859606e+01    7.768074e-01
  2.861194e+01    7.728633e-01
  2.862782e+01    7.659370e-01
  2.864369e+01    7.695284e-01
  2.865957e+01    7.606211e-01
  2.867544e+01    7.628372e-01
  2.869132e+01    7.462996e-01
  2.870719e+01    7.687122e-01
  2.872307e+01    7.693084e-01
  2.873895e+01    7.502714e-01
  2.875482e+01    7.567123e-01
  2.877070e+01    7.423479e-01
  2.878657e+01    7.347993e-01
  2.880245e+01    7.738211e-01
  2.881832e+01    7.633319e-01
  2.883420e+01    7.528380e-01
  2.885007e+01    7.496456e-01
  2.886595e+01    7.502598e-01
  2.888183e+01    7.319854e-01
  2.889770e+01    7.379431e-01
  2.891358e+01    7.442517e-01
  2.892945e+01    7.542536e-01
  2.894533e+01    7.487366e-01
  2.896120e+01    7.249447e-01
  2.897708e+01    7.541116e-01
  2.899295e+01    7.447994e-01
  2.900883e+01    7.357944e-01
  2.902471e+01    7.141805e-01
  2.904058e+01    7.259277e-01
  2.905646e+01    7.442596e-01
  2.907233e+01    7.589151e-01
  2.908821e+01    7.374296e-01
  2.910408e+01    7.341076e-01
  2.911996e+01    7.495672e-01
  2.913583e+01    7.442675e-01
  2.915171e+01    7.476348e-01
  2.916759e+01    7.340908e-01
  2.918346e+01    7.313620e-01
  2.919934e+01    7.437488e-01
  2.921521e+01    7.440889e-01
  2.923109e+01    7.341452e-01
  2.924696e+01    7.040656e-01
  2.926284e+01    7.230970e-01
  2.927871e+01    7.476050e-01
  2.929459e+01    7.464483e-01
  2.931047e+01    7.445701e-01
  2.932634e+01    7.506388e-01
  2.934222e+01    7.397970e-01
  2.935809e+01    7.290570e-01
  2.937397e+01    7.354619e-01
  2.938984e+01    7.447392e-01
  2.940572e+01    7.370105e-01
  2.942159e+01    7.442851e-01
  2.943747e+01    7.296602e-01
  2.945335e+01    7.224416e-01
  2.946922e+01    7.349505e-01
  2.948510e+01    7.473341e-01
  2.950097e+01    7.287755e-01
  2.951685e+01    7.330666e-01
  2.953272e+01    7.523862e-01
  2.954860e+01    7.386588e-01
  2.956447e+01    7.108471e-01
  2.958035e+01    7.254949e-01
  2.959623e+01    7.130552e-01
  2.961210e+01    7.091819e-01
  2.962798e+01    7.039570e-01
  2.964385e+01    7.173579e-01
  2.965973e+01    7.143556e-01
  2.967560e+01    7.118581e-01
  2.969148e+01    7.238807e-01
  2.970736e+01    7.393768e-01
  2.972323e+01    7.268533e-01
  2.973911e+01    7.158487e-01
  2.975498e+01    7.136883e-01
  2.977086e+01    7.177699e-01
  2.978673e+01    7.040503e-01
  2.980261e+01    7.193467e-01
  2.981848e+01    7.360559e-01
  2.983436e+01    7.183087e-01
  2.985024e+01    7.357182e-01
  2.986611e+01    7.297124e-01
  2.988199e+01    7.140595e-01
  2.989786e+01    7.071300e-01
  2.991374e+01    7.240701e-01
  2.992961e+01    7.329428e-01
  2.994549e+01    7.198888e-01
  2.996136e+01    7.246628e-01
  2.997724e+01    7.251867e-01
  2.999312e+01    7.128908e-01
  3.000899e+01    7.335957e-01
  3.002487e+01    7.232554e-01
  3.004074e+01    7.259455e-01
  3.005662e+01    7.324281e-01
  3.007249e+01    7.518759e-01
  3.008837e+01    7.452306e-01
  3.010424e+01    7.227358e-01
  3.012012e+01    7.216853e-01
  3.013600e+01    7.428389e-01
  3.015187e+01    7.428077e-01
  3.016775e+01    7.129670e-01
  3.018362e+01    7.053894e-01
  3.019950e+01    7.139668e-01
  3.021537e+01    7.074376e-01
  3.023125e+01    7.282599e-01
  3.024712e+01    7.351323e-01
  3.026300e+01    7.253994e-01
  3.027888e+01    7.341532e-01
  3.029475e+01    7.415732e-01
  3.031063e+01    7.272609e-01
  3.032650e+01    7.059966e-01
  3.034238e+01    7.005368e-01
  3.035825e+01    6.925493e-01
  3.037413e+01    7.030154e-01
  3.039000e+01    7.203258e-01
  3.040588e+01    7.243460e-01
  3.042176e+01    7.007994e-01
  3.043763e+01    7.156679e-01
  3.045351e+01    7.050660e-01
  3.046938e+01    6.904356e-01
  3.048526e+01    7.036405e-01
  3.050113e+01    7.153556e-01
  3.051701e+01    7.022709e-01
  3.053288e+01    7.085460e-01
  3.054876e+01    7.138270e-01
  3.056464e+01    6.736993e-01
  3.058051e+01    6.917920e-01
  3.059639e+01    7.126947e-01
  3.061226e+01    7.212035e-01
  3.062814e+01    7.232457e-01
  3.064401e+01    6.848434e-01
  3.065989e+01    7.053227e-01
  3.067577e+01    7.370233e-01
  3.069164e+01    7.193825e-01
  3.070752e+01    7.210571e-01
  3.072339e+01    7.027999e-01
  3.073927e+01    6.844984e-01
  3.075514e+01    7.191446e-01
  3.077102e+01    7.065295e-01
  3.078689e+01    7.176226e-01
  3.080277e+01    7.109045e-01
  3.081865e+01    7.222541e-01
  3.083452e+01    7.116371e-01
  3.085040e+01    7.193114e-01
  3.086627e+01    7.133001e-01
  3.088215e+01    7.341535e-01
  3.089802e+01    7.337002e-01
  3.091390e+01    7.119213e-01
  3.092977e+01    7.120351e-01
  3.094565e+01    6.922496e-01
  3.096153e+01    7.150124e-01
  3.097740e+01    7.280797e-01
  3.099328e+01    7.266099e-01
  3.100915e+01    7.226957e-01
  3.102503e+01    7.338455e-01
  3.104090e+01    7.202109e-01
  3.105678e+01    7.107311e-01
  3.107265e+01    7.179852e-01
  3.108853e+01    7.297172e-01
  3.110441e+01    7.109891e-01
  3.112028e+01    7.105342e-01
  3.113616e+01    6.997086e-01
  3.115203e+01    7.127953e-01
  3.116791e+01    7.255242e-01
  3.118378e+01    7.270996e-01
  3.119966e+01    7.563733e-01
  3.121553e+01    7.295431e-01
  3.123141e+01    7.173191e-01
  3.124729e+01    7.201518e-01
  3.126316e+01    7.295489e-01
  3.127904e+01    7.199336e-01
  3.129491e+01    7.083786e-01
  3.131079e+01    7.339852e-01
  3.132666e+01    7.495107e-01
  3.134254e+01    7.255772e-01
  3.135841e+01    7.247556e-01
  3.137429e+01    7.572477e-01
  3.139017e+01    7.516373e-01
  3.140604e+01    7.503783e-01
  3.142192e+01    7.379041e-01
  3.143779e+01    7.421229e-01
  3.145367e+01    7.617325e-01
  3.146954e+01    7.644600e-01
  3.148542e+01    7.664470e-01
  3.150129e+01    7.913147e-01
  3.151717e+01    7.935476e-01
  3.153305e+01    7.741373e-01
  3.154892e+01    7.777212e-01
  3.156480e+01    8.004137e-01
  3.158067e+01    7.967812e-01
  3.159655e+01    8.067521e-01
  3.161242e+01    8.117793e-01
  3.162830e+01    8.223805e-01
  3.164418e+01    8.165327e-01
  3.166005e+01    8.739216e-01
  3.167593e+01    8.783074e-01
  3.169180e+01    8.949998e-01
  3.170768e+01    9.209324e-01
  3.172355e+01    9.514489e-01
  3.173943e+01    9.909939e-01
  3.175530e+01    1.058194e+00
  3.177118e+01    1.100463e+00
  3.178706e+01    1.187201e+00
  3.180293e+01    1.248851e+00
  3.181881e+01    1.330903e+00
  3.183468e+01    1.491575e+00
  3.185056e+01    1.630750e+00
  3.186643e+01    1.803702e+00
  3.188231e+01    1.995325e+00
  3.189818e+01    2.157326e+00
  3.191406e+01    2.324292e+00
  3.192994e+01    2.404494e+00
  3.194581e+01    2.430031e+00
  3.196169e+01    2.412516e+00
  3.197756e+01    2.256801e+00
  3.199344e+01    2.108488e+00
  3.200931e+01    1.949907e+00
  3.202519e+01    1.780290e+00
  3.204106e+01    1.617428e+00
  3.205694e+01    1.491147e+00
  3.207282e+01    1.343103e+00
  3.208869e+01    1.217981e+00
  3.210457e+01    1.116774e+00
  3.212044e+01    1.064586e+00
  3.213632e+01    9.961357e-01
  3.215219e+01    9.694726e-01
  3.216807e+01    9.075496e-01
  3.218394e+01    8.955404e-01
  3.219982e+01    8.702925e-01
  3.221570e+01    8.507060e-01
  3.223157e+01    8.476229e-01
  3.224745e+01    8.428585e-01
  3.226332e+01    8.253844e-01
  3.227920e+01    8.299659e-01
  3.229507e+01    8.163969e-01
  3.231095e+01    7.667968e-01
  3.232682e+01    7.721880e-01
  3.234270e+01    7.552103e-01
  3.235858e+01    7.494740e-01
  3.237445e+01    7.401130e-01
  3.239033e+01    7.603436e-01
  3.240620e+01    7.486209e-01
  3.242208e+01    7.651522e-01
  3.243795e+01    7.475548e-01
  3.245383e+01    7.490051e-01
  3.246970e+01    7.339441e-01
  3.248558e+01    7.263845e-01
  3.250146e+01    7.298567e-01
  3.251733e+01    7.439085e-01
  3.253321e+01    7.506950e-01
  3.254908e+01    7.265376e-01
