# == pyFAI calibration ==
# Distance Sample to Detector: 0.3999999939076516 m
# PONI: 9.750e-02, 1.135e-01 m
# Rotations: -0.000175 0.000000 -0.000000 rad
# 
# == Fit2d calibration ==
# Distance Sample-beamCenter: 400.000 mm
# Center: x=1514.000, y=1300.000 pix
# Tilt: 0.010 deg  TiltPlanRot: 0.010 deg
# 
# Detector Detector	 Spline= None	 PixelSize= 7.500e-05, 7.500e-05 m
#    Detector has a mask: False 
#    Detector has a dark current: False 
#    detector has a flat field: False 
# 
# Wavelength: 6.888e-11 m
# Mask applied: user provided
# Dark current applied: False
# Flat field applied: False
# Polarization factor: 0.99
# Normalization factor: 1.0
# --> /home/myspot/data/2024_07_Rosario/Ru-CGO-ex/2024-07-27_002_Ru-CGO-ex_Activtation_ramp_000002_data_000031.dat
#       q_nm^-1             I 
  2.003187e-02    1.424646e-01
  3.590745e-02    3.429401e-02
  5.178302e-02    6.857615e-02
  6.765859e-02    4.631919e-02
  8.353417e-02    1.380180e-01
  9.940974e-02    4.858873e-02
  1.152853e-01    1.117665e-01
  1.311609e-01    7.824729e-02
  1.470365e-01    2.316308e-02
  1.629120e-01    6.858048e-02
  1.787876e-01    2.794793e-02
  1.946632e-01    9.237427e-03
  2.105388e-01    3.862524e-02
  2.264143e-01    4.260721e-02
  2.422899e-01    2.463277e-02
  2.581655e-01    4.856310e-02
  2.740411e-01    3.606771e-02
  2.899166e-01    2.347210e-02
  3.057922e-01    4.360334e-02
  3.216678e-01    8.579813e-02
  3.375433e-01    4.852757e-02
  3.534189e-01    8.399946e-03
  3.692945e-01    1.495208e-03
  3.851701e-01    2.447349e-02
  4.010456e-01    3.280980e-02
  4.169212e-01    7.570025e-02
  4.327968e-01    5.580880e-02
  4.486724e-01    3.278700e-02
  4.645479e-01    6.005621e-02
  4.804235e-01    6.340276e-02
  4.962991e-01    1.441875e-02
  5.121747e-01    1.560333e-02
  5.280502e-01    4.044480e-02
  5.439258e-01    2.707395e-02
  5.598014e-01    5.113945e-02
  5.756770e-01    3.718200e-02
  5.915525e-01    1.465211e-02
  6.074281e-01    2.312580e-02
  6.233037e-01    2.958236e-02
  6.391793e-01    3.982206e-02
  6.550548e-01    3.717571e-02
  6.709304e-01    4.644747e-02
  6.868060e-01    2.987225e-02
  7.026815e-01    2.942029e-02
  7.185571e-01    4.476284e-02
  7.344327e-01    4.982180e-02
  7.503083e-01    6.824290e-02
  7.661838e-01    6.636924e-02
  7.820594e-01    8.053277e-02
  7.979350e-01    1.170348e-01
  8.138106e-01    1.913655e-01
  8.296861e-01    2.673674e-01
  8.455617e-01    3.176542e-01
  8.614373e-01    4.484302e-01
  8.773129e-01    5.141944e-01
  8.931884e-01    5.326784e-01
  9.090640e-01    6.380564e-01
  9.249396e-01    6.332849e-01
  9.408152e-01    7.057416e-01
  9.566907e-01    8.290868e-01
  9.725663e-01    8.770804e-01
  9.884419e-01    1.017137e+00
  1.004317e+00    1.104762e+00
  1.020193e+00    1.190650e+00
  1.036069e+00    1.306204e+00
  1.051944e+00    1.293068e+00
  1.067820e+00    1.283866e+00
  1.083695e+00    1.327054e+00
  1.099571e+00    1.359463e+00
  1.115446e+00    1.436905e+00
  1.131322e+00    1.416976e+00
  1.147198e+00    1.483028e+00
  1.163073e+00    1.444687e+00
  1.178949e+00    1.421185e+00
  1.194824e+00    1.550526e+00
  1.210700e+00    1.879141e+00
  1.226575e+00    2.160846e+00
  1.242451e+00    2.266186e+00
  1.258327e+00    2.354935e+00
  1.274202e+00    2.530075e+00
  1.290078e+00    2.471372e+00
  1.305953e+00    2.516034e+00
  1.321829e+00    2.615597e+00
  1.337705e+00    2.552250e+00
  1.353580e+00    2.648516e+00
  1.369456e+00    2.763237e+00
  1.385331e+00    2.734660e+00
  1.401207e+00    2.704251e+00
  1.417082e+00    2.746155e+00
  1.432958e+00    2.865883e+00
  1.448834e+00    2.904768e+00
  1.464709e+00    2.928380e+00
  1.480585e+00    2.960722e+00
  1.496460e+00    2.963577e+00
  1.512336e+00    3.146028e+00
  1.528211e+00    3.107058e+00
  1.544087e+00    3.040458e+00
  1.559963e+00    3.071758e+00
  1.575838e+00    2.962690e+00
  1.591714e+00    2.858575e+00
  1.607589e+00    2.960492e+00
  1.623465e+00    2.912127e+00
  1.639340e+00    2.941360e+00
  1.655216e+00    2.947330e+00
  1.671092e+00    2.972805e+00
  1.686967e+00    2.951228e+00
  1.702843e+00    2.927089e+00
  1.718718e+00    2.925452e+00
  1.734594e+00    2.935065e+00
  1.750469e+00    2.966245e+00
  1.766345e+00    2.913796e+00
  1.782221e+00    2.856041e+00
  1.798096e+00    2.871989e+00
  1.813972e+00    2.889565e+00
  1.829847e+00    2.941147e+00
  1.845723e+00    2.940220e+00
  1.861598e+00    2.858587e+00
  1.877474e+00    2.970670e+00
  1.893350e+00    2.959104e+00
  1.909225e+00    2.712756e+00
  1.925101e+00    2.761865e+00
  1.940976e+00    2.876562e+00
  1.956852e+00    2.783804e+00
  1.972727e+00    2.800515e+00
  1.988603e+00    2.766002e+00
  2.004479e+00    2.774705e+00
  2.020354e+00    2.728560e+00
  2.036230e+00    2.747210e+00
  2.052105e+00    2.904535e+00
  2.067981e+00    2.894330e+00
  2.083856e+00    2.720460e+00
  2.099732e+00    2.753717e+00
  2.115608e+00    2.734316e+00
  2.131483e+00    2.796091e+00
  2.147359e+00    2.763469e+00
  2.163234e+00    2.788813e+00
  2.179110e+00    2.818864e+00
  2.194985e+00    2.917143e+00
  2.210861e+00    2.901352e+00
  2.226737e+00    2.925743e+00
  2.242612e+00    2.938988e+00
  2.258488e+00    2.843946e+00
  2.274363e+00    2.705064e+00
  2.290239e+00    2.755983e+00
  2.306115e+00    2.733513e+00
  2.321990e+00    2.835743e+00
  2.337866e+00    2.780004e+00
  2.353741e+00    2.842817e+00
  2.369617e+00    2.838912e+00
  2.385492e+00    2.777873e+00
  2.401368e+00    2.770019e+00
  2.417244e+00    2.854602e+00
  2.433119e+00    2.810615e+00
  2.448995e+00    2.884849e+00
  2.464870e+00    2.858293e+00
  2.480746e+00    2.854830e+00
  2.496621e+00    2.909488e+00
  2.512497e+00    2.844469e+00
  2.528373e+00    2.790895e+00
  2.544248e+00    2.786946e+00
  2.560124e+00    2.768952e+00
  2.575999e+00    2.761995e+00
  2.591875e+00    2.830773e+00
  2.607750e+00    2.871955e+00
  2.623626e+00    2.832916e+00
  2.639502e+00    2.860833e+00
  2.655377e+00    2.931169e+00
  2.671253e+00    2.868909e+00
  2.687128e+00    2.876540e+00
  2.703004e+00    2.911938e+00
  2.718879e+00    2.939362e+00
  2.734755e+00    2.845463e+00
  2.750631e+00    2.847526e+00
  2.766506e+00    2.835736e+00
  2.782382e+00    2.819076e+00
  2.798257e+00    2.835438e+00
  2.814133e+00    2.833025e+00
  2.830008e+00    2.845125e+00
  2.845884e+00    2.895763e+00
  2.861760e+00    2.895356e+00
  2.877635e+00    2.825609e+00
  2.893511e+00    2.804553e+00
  2.909386e+00    2.926145e+00
  2.925262e+00    2.890146e+00
  2.941137e+00    2.813238e+00
  2.957013e+00    2.755910e+00
  2.972889e+00    2.819507e+00
  2.988764e+00    2.762902e+00
  3.004640e+00    2.871652e+00
  3.020515e+00    2.887468e+00
  3.036391e+00    2.925466e+00
  3.052266e+00    2.906763e+00
  3.068142e+00    2.857990e+00
  3.084018e+00    2.952233e+00
  3.099893e+00    2.914462e+00
  3.115769e+00    2.899643e+00
  3.131644e+00    2.990617e+00
  3.147520e+00    2.947050e+00
  3.163395e+00    2.994223e+00
  3.179271e+00    3.011729e+00
  3.195147e+00    2.902470e+00
  3.211022e+00    2.860521e+00
  3.226898e+00    2.950622e+00
  3.242773e+00    2.971276e+00
  3.258649e+00    2.968529e+00
  3.274525e+00    2.945257e+00
  3.290400e+00    2.978623e+00
  3.306276e+00    2.868274e+00
  3.322151e+00    2.878498e+00
  3.338027e+00    2.945220e+00
  3.353902e+00    2.969823e+00
  3.369778e+00    2.923008e+00
  3.385654e+00    2.971493e+00
  3.401529e+00    2.971959e+00
  3.417405e+00    2.886082e+00
  3.433280e+00    2.949553e+00
  3.449156e+00    3.063280e+00
  3.465031e+00    2.941745e+00
  3.480907e+00    2.889907e+00
  3.496783e+00    2.945445e+00
  3.512658e+00    2.979687e+00
  3.528534e+00    3.002632e+00
  3.544409e+00    2.992178e+00
  3.560285e+00    2.927294e+00
  3.576160e+00    2.925505e+00
  3.592036e+00    3.007959e+00
  3.607912e+00    2.975333e+00
  3.623787e+00    3.011957e+00
  3.639663e+00    3.060404e+00
  3.655538e+00    3.098787e+00
  3.671414e+00    3.037412e+00
  3.687289e+00    3.020740e+00
  3.703165e+00    3.011345e+00
  3.719041e+00    3.055773e+00
  3.734916e+00    3.007635e+00
  3.750792e+00    3.044066e+00
  3.766667e+00    3.069195e+00
  3.782543e+00    2.939515e+00
  3.798418e+00    2.921304e+00
  3.814294e+00    3.070444e+00
  3.830170e+00    2.968629e+00
  3.846045e+00    3.017937e+00
  3.861921e+00    2.959733e+00
  3.877796e+00    3.067654e+00
  3.893672e+00    3.057654e+00
  3.909547e+00    3.058864e+00
  3.925423e+00    2.994631e+00
  3.941299e+00    2.991599e+00
  3.957174e+00    3.034496e+00
  3.973050e+00    3.004293e+00
  3.988925e+00    2.996104e+00
  4.004801e+00    2.980959e+00
  4.020676e+00    3.080503e+00
  4.036552e+00    3.002673e+00
  4.052428e+00    2.943657e+00
  4.068303e+00    2.947167e+00
  4.084179e+00    3.041301e+00
  4.100054e+00    3.139510e+00
  4.115930e+00    3.135217e+00
  4.131806e+00    3.062487e+00
  4.147681e+00    3.045166e+00
  4.163557e+00    3.036057e+00
  4.179432e+00    2.975137e+00
  4.195308e+00    2.948241e+00
  4.211183e+00    3.019168e+00
  4.227059e+00    3.009589e+00
  4.242935e+00    3.043933e+00
  4.258810e+00    3.080213e+00
  4.274686e+00    3.108164e+00
  4.290561e+00    3.151597e+00
  4.306437e+00    3.143363e+00
  4.322312e+00    3.083538e+00
  4.338188e+00    3.026515e+00
  4.354064e+00    3.067346e+00
  4.369939e+00    3.061070e+00
  4.385815e+00    3.070185e+00
  4.401690e+00    3.085981e+00
  4.417566e+00    3.056509e+00
  4.433441e+00    3.062298e+00
  4.449317e+00    3.060269e+00
  4.465193e+00    3.114554e+00
  4.481068e+00    3.037393e+00
  4.496944e+00    3.055567e+00
  4.512819e+00    3.095866e+00
  4.528695e+00    3.125821e+00
  4.544570e+00    3.107176e+00
  4.560446e+00    3.081965e+00
  4.576322e+00    3.106789e+00
  4.592197e+00    3.082021e+00
  4.608073e+00    3.032006e+00
  4.623948e+00    3.031002e+00
  4.639824e+00    3.080145e+00
  4.655699e+00    3.092162e+00
  4.671575e+00    3.037974e+00
  4.687451e+00    3.049312e+00
  4.703326e+00    3.155685e+00
  4.719202e+00    3.179742e+00
  4.735077e+00    3.373236e+00
  4.750953e+00    3.279932e+00
  4.766828e+00    3.124311e+00
  4.782704e+00    3.116869e+00
  4.798580e+00    3.114740e+00
  4.814455e+00    3.177339e+00
  4.830331e+00    3.065944e+00
  4.846206e+00    3.027691e+00
  4.862082e+00    3.120811e+00
  4.877957e+00    3.180754e+00
  4.893833e+00    3.095132e+00
  4.909709e+00    3.089473e+00
  4.925584e+00    3.122145e+00
  4.941460e+00    3.047663e+00
  4.957335e+00    3.135546e+00
  4.973211e+00    3.141119e+00
  4.989086e+00    3.098347e+00
  5.004962e+00    3.092656e+00
  5.020838e+00    3.100632e+00
  5.036713e+00    3.140818e+00
  5.052589e+00    3.165332e+00
  5.068464e+00    3.121158e+00
  5.084340e+00    3.107188e+00
  5.100216e+00    3.196958e+00
  5.116091e+00    3.208197e+00
  5.131967e+00    3.162271e+00
  5.147842e+00    3.103893e+00
  5.163718e+00    3.067155e+00
  5.179593e+00    3.120148e+00
  5.195469e+00    3.135293e+00
  5.211345e+00    3.163424e+00
  5.227220e+00    3.151780e+00
  5.243096e+00    3.219939e+00
  5.258971e+00    3.183700e+00
  5.274847e+00    3.069589e+00
  5.290722e+00    3.099492e+00
  5.306598e+00    3.062358e+00
  5.322474e+00    3.124873e+00
  5.338349e+00    3.179595e+00
  5.354225e+00    3.230886e+00
  5.370100e+00    3.202599e+00
  5.385976e+00    3.169827e+00
  5.401851e+00    3.167952e+00
  5.417727e+00    3.149453e+00
  5.433603e+00    3.094197e+00
  5.449478e+00    3.129030e+00
  5.465354e+00    3.142541e+00
  5.481229e+00    3.101711e+00
  5.497105e+00    3.101012e+00
  5.512980e+00    3.154977e+00
  5.528856e+00    3.126240e+00
  5.544732e+00    3.096830e+00
  5.560607e+00    3.101619e+00
  5.576483e+00    3.115797e+00
  5.592358e+00    3.090177e+00
  5.608234e+00    3.110492e+00
  5.624109e+00    3.115614e+00
  5.639985e+00    3.159362e+00
  5.655861e+00    3.042649e+00
  5.671736e+00    3.036917e+00
  5.687612e+00    3.090793e+00
  5.703487e+00    3.127845e+00
  5.719363e+00    3.113060e+00
  5.735238e+00    3.174564e+00
  5.751114e+00    3.117810e+00
  5.766990e+00    3.019354e+00
  5.782865e+00    3.018427e+00
  5.798741e+00    3.147858e+00
  5.814616e+00    3.178739e+00
  5.830492e+00    3.052537e+00
  5.846367e+00    3.009925e+00
  5.862243e+00    2.981179e+00
  5.878119e+00    3.043532e+00
  5.893994e+00    3.063870e+00
  5.909870e+00    3.005287e+00
  5.925745e+00    3.047703e+00
  5.941621e+00    3.015304e+00
  5.957497e+00    2.980496e+00
  5.973372e+00    3.012773e+00
  5.989248e+00    3.038251e+00
  6.005123e+00    3.112827e+00
  6.020999e+00    3.058484e+00
  6.036874e+00    3.047452e+00
  6.052750e+00    3.100182e+00
  6.068626e+00    3.093581e+00
  6.084501e+00    3.144240e+00
  6.100377e+00    3.053369e+00
  6.116252e+00    3.026387e+00
  6.132128e+00    3.055718e+00
  6.148003e+00    3.024579e+00
  6.163879e+00    3.021658e+00
  6.179755e+00    3.064698e+00
  6.195630e+00    2.989558e+00
  6.211506e+00    2.964047e+00
  6.227381e+00    2.988132e+00
  6.243257e+00    3.053173e+00
  6.259132e+00    3.030990e+00
  6.275008e+00    3.025250e+00
  6.290884e+00    3.015807e+00
  6.306759e+00    3.037051e+00
  6.322635e+00    3.088941e+00
  6.338510e+00    3.115146e+00
  6.354386e+00    3.135440e+00
  6.370261e+00    3.058143e+00
  6.386137e+00    3.035023e+00
  6.402013e+00    3.037690e+00
  6.417888e+00    3.094341e+00
  6.433764e+00    3.126797e+00
  6.449639e+00    3.068991e+00
  6.465515e+00    3.055739e+00
  6.481390e+00    3.026206e+00
  6.497266e+00    3.013892e+00
  6.513142e+00    3.061682e+00
  6.529017e+00    3.059991e+00
  6.544893e+00    3.114095e+00
  6.560768e+00    3.066687e+00
  6.576644e+00    2.991202e+00
  6.592519e+00    3.050143e+00
  6.608395e+00    3.113948e+00
  6.624271e+00    3.095830e+00
  6.640146e+00    3.067476e+00
  6.656022e+00    3.048933e+00
  6.671897e+00    3.059068e+00
  6.687773e+00    3.055463e+00
  6.703648e+00    3.050462e+00
  6.719524e+00    2.972208e+00
  6.735400e+00    2.981694e+00
  6.751275e+00    3.014421e+00
  6.767151e+00    3.020528e+00
  6.783026e+00    3.080910e+00
  6.798902e+00    3.089874e+00
  6.814777e+00    3.069074e+00
  6.830653e+00    2.984448e+00
  6.846529e+00    3.050426e+00
  6.862404e+00    3.100016e+00
  6.878280e+00    3.054352e+00
  6.894155e+00    3.011195e+00
  6.910031e+00    3.002872e+00
  6.925907e+00    3.041822e+00
  6.941782e+00    3.095927e+00
  6.957658e+00    3.079470e+00
  6.973533e+00    3.077032e+00
  6.989409e+00    3.070075e+00
  7.005284e+00    3.089998e+00
  7.021160e+00    3.015146e+00
  7.037036e+00    2.979926e+00
  7.052911e+00    3.027551e+00
  7.068787e+00    3.023350e+00
  7.084662e+00    3.078820e+00
  7.100538e+00    3.117147e+00
  7.116413e+00    3.105132e+00
  7.132289e+00    3.036747e+00
  7.148165e+00    2.963028e+00
  7.164040e+00    2.989818e+00
  7.179916e+00    2.988667e+00
  7.195791e+00    2.994593e+00
  7.211667e+00    3.023041e+00
  7.227542e+00    3.096930e+00
  7.243418e+00    3.088254e+00
  7.259294e+00    2.982851e+00
  7.275169e+00    3.060511e+00
  7.291045e+00    3.143897e+00
  7.306920e+00    3.002986e+00
  7.322796e+00    3.010132e+00
  7.338671e+00    3.040323e+00
  7.354547e+00    3.022439e+00
  7.370423e+00    3.034097e+00
  7.386298e+00    3.007231e+00
  7.402174e+00    3.039971e+00
  7.418049e+00    3.018505e+00
  7.433925e+00    2.972958e+00
  7.449800e+00    3.007305e+00
  7.465676e+00    3.004285e+00
  7.481552e+00    3.068036e+00
  7.497427e+00    3.022543e+00
  7.513303e+00    2.989724e+00
  7.529178e+00    2.882383e+00
  7.545054e+00    2.879296e+00
  7.560929e+00    2.931357e+00
  7.576805e+00    2.980731e+00
  7.592681e+00    3.052099e+00
  7.608556e+00    2.993775e+00
  7.624432e+00    2.999617e+00
  7.640307e+00    2.999990e+00
  7.656183e+00    2.965467e+00
  7.672058e+00    3.014117e+00
  7.687934e+00    3.033202e+00
  7.703810e+00    2.925425e+00
  7.719685e+00    2.934021e+00
  7.735561e+00    2.971054e+00
  7.751436e+00    2.929904e+00
  7.767312e+00    2.971093e+00
  7.783187e+00    3.039099e+00
  7.799063e+00    3.052847e+00
  7.814939e+00    2.971181e+00
  7.830814e+00    2.979838e+00
  7.846690e+00    2.945050e+00
  7.862565e+00    2.916634e+00
  7.878441e+00    2.943320e+00
  7.894317e+00    2.913747e+00
  7.910192e+00    2.920540e+00
  7.926068e+00    2.957800e+00
  7.941943e+00    2.959242e+00
  7.957819e+00    2.937315e+00
  7.973694e+00    2.941777e+00
  7.989570e+00    2.981120e+00
  8.005446e+00    2.953362e+00
  8.021321e+00    2.949636e+00
  8.037197e+00    2.926316e+00
  8.053072e+00    2.973394e+00
  8.068948e+00    2.928722e+00
  8.084823e+00    2.872282e+00
  8.100699e+00    2.928609e+00
  8.116575e+00    2.930074e+00
  8.132450e+00    2.950674e+00
  8.148326e+00    2.987304e+00
  8.164201e+00    3.042754e+00
  8.180077e+00    2.967261e+00
  8.195952e+00    2.974426e+00
  8.211828e+00    2.949908e+00
  8.227704e+00    2.991625e+00
  8.243579e+00    3.000679e+00
  8.259455e+00    2.973458e+00
  8.275330e+00    2.973806e+00
  8.291206e+00    2.968036e+00
  8.307081e+00    2.942489e+00
  8.322957e+00    2.934355e+00
  8.338833e+00    2.964710e+00
  8.354708e+00    2.994883e+00
  8.370584e+00    2.933043e+00
  8.386459e+00    2.943026e+00
  8.402335e+00    2.950369e+00
  8.418210e+00    2.977308e+00
  8.434086e+00    2.910352e+00
  8.449962e+00    2.911726e+00
  8.465837e+00    2.938224e+00
  8.481713e+00    2.900110e+00
  8.497588e+00    2.818769e+00
  8.513464e+00    2.872771e+00
  8.529339e+00    2.960009e+00
  8.545215e+00    2.926680e+00
  8.561091e+00    2.945922e+00
  8.576966e+00    2.955672e+00
  8.592842e+00    2.898203e+00
  8.608717e+00    2.903908e+00
  8.624593e+00    2.880246e+00
  8.640468e+00    2.881164e+00
  8.656344e+00    2.866044e+00
  8.672220e+00    2.885699e+00
  8.688095e+00    2.916633e+00
  8.703971e+00    2.910513e+00
  8.719846e+00    2.891973e+00
  8.735722e+00    2.869868e+00
  8.751598e+00    2.918698e+00
  8.767473e+00    2.875786e+00
  8.783349e+00    2.876434e+00
  8.799224e+00    2.831575e+00
  8.815100e+00    2.834886e+00
  8.830975e+00    2.872718e+00
  8.846851e+00    2.920558e+00
  8.862727e+00    2.918590e+00
  8.878602e+00    2.901378e+00
  8.894478e+00    2.841587e+00
  8.910353e+00    2.798875e+00
  8.926229e+00    2.827819e+00
  8.942104e+00    2.854245e+00
  8.957980e+00    2.916016e+00
  8.973856e+00    2.859376e+00
  8.989731e+00    2.796853e+00
  9.005607e+00    2.862823e+00
  9.021482e+00    2.852113e+00
  9.037358e+00    2.797727e+00
  9.053233e+00    2.815084e+00
  9.069109e+00    2.807030e+00
  9.084985e+00    2.815049e+00
  9.100860e+00    2.828334e+00
  9.116736e+00    2.821582e+00
  9.132611e+00    2.773649e+00
  9.148487e+00    2.783626e+00
  9.164362e+00    2.809342e+00
  9.180238e+00    2.809777e+00
  9.196114e+00    2.854868e+00
  9.211989e+00    2.854010e+00
  9.227865e+00    2.832808e+00
  9.243740e+00    2.815386e+00
  9.259616e+00    2.802146e+00
  9.275491e+00    2.836154e+00
  9.291367e+00    2.810102e+00
  9.307243e+00    2.777392e+00
  9.323118e+00    2.797392e+00
  9.338994e+00    2.743026e+00
  9.354869e+00    2.734757e+00
  9.370745e+00    2.761974e+00
  9.386620e+00    2.758951e+00
  9.402496e+00    2.774103e+00
  9.418372e+00    2.739314e+00
  9.434247e+00    2.789602e+00
  9.450123e+00    2.791608e+00
  9.465998e+00    2.783576e+00
  9.481874e+00    2.798120e+00
  9.497749e+00    2.773870e+00
  9.513625e+00    2.796222e+00
  9.529501e+00    2.804091e+00
  9.545376e+00    2.797301e+00
  9.561252e+00    2.784520e+00
  9.577127e+00    2.743800e+00
  9.593003e+00    2.740089e+00
  9.608878e+00    2.797246e+00
  9.624754e+00    2.834686e+00
  9.640630e+00    2.798213e+00
  9.656505e+00    2.818447e+00
  9.672381e+00    2.781642e+00
  9.688256e+00    2.794425e+00
  9.704132e+00    2.736099e+00
  9.720008e+00    2.727702e+00
  9.735883e+00    2.713953e+00
  9.751759e+00    2.716112e+00
  9.767634e+00    2.694319e+00
  9.783510e+00    2.730601e+00
  9.799385e+00    2.709498e+00
  9.815261e+00    2.753720e+00
  9.831137e+00    2.709970e+00
  9.847012e+00    2.718778e+00
  9.862888e+00    2.717658e+00
  9.878763e+00    2.719784e+00
  9.894639e+00    2.711010e+00
  9.910514e+00    2.709856e+00
  9.926390e+00    2.698837e+00
  9.942266e+00    2.679794e+00
  9.958141e+00    2.682212e+00
  9.974017e+00    2.722837e+00
  9.989892e+00    2.758248e+00
  1.000577e+01    2.708765e+00
  1.002164e+01    2.666862e+00
  1.003752e+01    2.699418e+00
  1.005339e+01    2.739255e+00
  1.006927e+01    2.707720e+00
  1.008515e+01    2.670448e+00
  1.010102e+01    2.706992e+00
  1.011690e+01    2.739897e+00
  1.013277e+01    2.713519e+00
  1.014865e+01    2.646703e+00
  1.016452e+01    2.658147e+00
  1.018040e+01    2.649357e+00
  1.019627e+01    2.733635e+00
  1.021215e+01    2.717192e+00
  1.022803e+01    2.695866e+00
  1.024390e+01    2.729041e+00
  1.025978e+01    2.629951e+00
  1.027565e+01    2.623911e+00
  1.029153e+01    2.674012e+00
  1.030740e+01    2.628598e+00
  1.032328e+01    2.648524e+00
  1.033915e+01    2.651925e+00
  1.035503e+01    2.642535e+00
  1.037091e+01    2.645164e+00
  1.038678e+01    2.664320e+00
  1.040266e+01    2.643726e+00
  1.041853e+01    2.615440e+00
  1.043441e+01    2.622432e+00
  1.045028e+01    2.624664e+00
  1.046616e+01    2.631481e+00
  1.048204e+01    2.692583e+00
  1.049791e+01    2.653541e+00
  1.051379e+01    2.624097e+00
  1.052966e+01    2.658970e+00
  1.054554e+01    2.660503e+00
  1.056141e+01    2.627913e+00
  1.057729e+01    2.634403e+00
  1.059316e+01    2.628882e+00
  1.060904e+01    2.624705e+00
  1.062492e+01    2.568201e+00
  1.064079e+01    2.544103e+00
  1.065667e+01    2.540059e+00
  1.067254e+01    2.566056e+00
  1.068842e+01    2.585234e+00
  1.070429e+01    2.618066e+00
  1.072017e+01    2.640548e+00
  1.073604e+01    2.585726e+00
  1.075192e+01    2.558225e+00
  1.076780e+01    2.561692e+00
  1.078367e+01    2.597421e+00
  1.079955e+01    2.584089e+00
  1.081542e+01    2.569518e+00
  1.083130e+01    2.563142e+00
  1.084717e+01    2.556127e+00
  1.086305e+01    2.535844e+00
  1.087892e+01    2.540995e+00
  1.089480e+01    2.562127e+00
  1.091068e+01    2.531209e+00
  1.092655e+01    2.521755e+00
  1.094243e+01    2.519537e+00
  1.095830e+01    2.518304e+00
  1.097418e+01    2.510078e+00
  1.099005e+01    2.509812e+00
  1.100593e+01    2.512389e+00
  1.102180e+01    2.495471e+00
  1.103768e+01    2.520929e+00
  1.105356e+01    2.551595e+00
  1.106943e+01    2.552001e+00
  1.108531e+01    2.524445e+00
  1.110118e+01    2.529398e+00
  1.111706e+01    2.457445e+00
  1.113293e+01    2.483310e+00
  1.114881e+01    2.477575e+00
  1.116468e+01    2.475913e+00
  1.118056e+01    2.483489e+00
  1.119644e+01    2.498408e+00
  1.121231e+01    2.491977e+00
  1.122819e+01    2.445593e+00
  1.124406e+01    2.488965e+00
  1.125994e+01    2.477459e+00
  1.127581e+01    2.451983e+00
  1.129169e+01    2.480183e+00
  1.130756e+01    2.473257e+00
  1.132344e+01    2.475741e+00
  1.133932e+01    2.460610e+00
  1.135519e+01    2.422212e+00
  1.137107e+01    2.395340e+00
  1.138694e+01    2.458556e+00
  1.140282e+01    2.481922e+00
  1.141869e+01    2.443536e+00
  1.143457e+01    2.430008e+00
  1.145045e+01    2.441994e+00
  1.146632e+01    2.455314e+00
  1.148220e+01    2.432896e+00
  1.149807e+01    2.413242e+00
  1.151395e+01    2.435853e+00
  1.152982e+01    2.457634e+00
  1.154570e+01    2.445211e+00
  1.156157e+01    2.431283e+00
  1.157745e+01    2.441607e+00
  1.159333e+01    2.439468e+00
  1.160920e+01    2.412714e+00
  1.162508e+01    2.369305e+00
  1.164095e+01    2.400093e+00
  1.165683e+01    2.434155e+00
  1.167270e+01    2.402608e+00
  1.168858e+01    2.400174e+00
  1.170445e+01    2.406359e+00
  1.172033e+01    2.376476e+00
  1.173621e+01    2.389086e+00
  1.175208e+01    2.352391e+00
  1.176796e+01    2.372427e+00
  1.178383e+01    2.402014e+00
  1.179971e+01    2.342351e+00
  1.181558e+01    2.312121e+00
  1.183146e+01    2.410202e+00
  1.184733e+01    2.421182e+00
  1.186321e+01    2.392054e+00
  1.187909e+01    2.348832e+00
  1.189496e+01    2.334106e+00
  1.191084e+01    2.377240e+00
  1.192671e+01    2.363056e+00
  1.194259e+01    2.366882e+00
  1.195846e+01    2.370456e+00
  1.197434e+01    2.339768e+00
  1.199021e+01    2.327842e+00
  1.200609e+01    2.361290e+00
  1.202197e+01    2.362965e+00
  1.203784e+01    2.352924e+00
  1.205372e+01    2.342423e+00
  1.206959e+01    2.363318e+00
  1.208547e+01    2.354424e+00
  1.210134e+01    2.340082e+00
  1.211722e+01    2.324332e+00
  1.213309e+01    2.316267e+00
  1.214897e+01    2.315965e+00
  1.216485e+01    2.357054e+00
  1.218072e+01    2.351921e+00
  1.219660e+01    2.340758e+00
  1.221247e+01    2.382822e+00
  1.222835e+01    2.360255e+00
  1.224422e+01    2.387263e+00
  1.226010e+01    2.352541e+00
  1.227597e+01    2.316412e+00
  1.229185e+01    2.312369e+00
  1.230773e+01    2.328640e+00
  1.232360e+01    2.367614e+00
  1.233948e+01    2.374836e+00
  1.235535e+01    2.356690e+00
  1.237123e+01    2.360412e+00
  1.238710e+01    2.355427e+00
  1.240298e+01    2.327976e+00
  1.241886e+01    2.322802e+00
  1.243473e+01    2.405074e+00
  1.245061e+01    2.380300e+00
  1.246648e+01    2.347447e+00
  1.248236e+01    2.328249e+00
  1.249823e+01    2.326473e+00
  1.251411e+01    2.373775e+00
  1.252998e+01    2.372530e+00
  1.254586e+01    2.409199e+00
  1.256174e+01    2.427186e+00
  1.257761e+01    2.385551e+00
  1.259349e+01    2.437132e+00
  1.260936e+01    2.441772e+00
  1.262524e+01    2.429215e+00
  1.264111e+01    2.448596e+00
  1.265699e+01    2.490014e+00
  1.267286e+01    2.457608e+00
  1.268874e+01    2.438639e+00
  1.270462e+01    2.508540e+00
  1.272049e+01    2.515471e+00
  1.273637e+01    2.528426e+00
  1.275224e+01    2.570597e+00
  1.276812e+01    2.591670e+00
  1.278399e+01    2.655733e+00
  1.279987e+01    2.748399e+00
  1.281574e+01    2.811445e+00
  1.283162e+01    2.823750e+00
  1.284750e+01    2.853341e+00
  1.286337e+01    2.930887e+00
  1.287925e+01    3.007523e+00
  1.289512e+01    3.161832e+00
  1.291100e+01    3.326142e+00
  1.292687e+01    3.523171e+00
  1.294275e+01    3.733378e+00
  1.295862e+01    3.982301e+00
  1.297450e+01    4.319655e+00
  1.299038e+01    4.730155e+00
  1.300625e+01    5.291993e+00
  1.302213e+01    5.921995e+00
  1.303800e+01    6.798469e+00
  1.305388e+01    7.865774e+00
  1.306975e+01    9.174409e+00
  1.308563e+01    1.061096e+01
  1.310150e+01    1.225801e+01
  1.311738e+01    1.374264e+01
  1.313326e+01    1.509962e+01
  1.314913e+01    1.654149e+01
  1.316501e+01    1.785456e+01
  1.318088e+01    1.916161e+01
  1.319676e+01    1.978554e+01
  1.321263e+01    1.935308e+01
  1.322851e+01    1.803937e+01
  1.324438e+01    1.604053e+01
  1.326026e+01    1.364934e+01
  1.327614e+01    1.145072e+01
  1.329201e+01    9.585285e+00
  1.330789e+01    8.098249e+00
  1.332376e+01    6.975285e+00
  1.333964e+01    6.082327e+00
  1.335551e+01    5.391126e+00
  1.337139e+01    4.845706e+00
  1.338727e+01    4.361829e+00
  1.340314e+01    4.063188e+00
  1.341902e+01    3.812129e+00
  1.343489e+01    3.573675e+00
  1.345077e+01    3.337885e+00
  1.346664e+01    3.161424e+00
  1.348252e+01    3.013435e+00
  1.349839e+01    2.880755e+00
  1.351427e+01    2.821993e+00
  1.353015e+01    2.817937e+00
  1.354602e+01    2.714591e+00
  1.356190e+01    2.623062e+00
  1.357777e+01    2.579270e+00
  1.359365e+01    2.532081e+00
  1.360952e+01    2.489511e+00
  1.362540e+01    2.454408e+00
  1.364127e+01    2.453826e+00
  1.365715e+01    2.367878e+00
  1.367303e+01    2.351661e+00
  1.368890e+01    2.359873e+00
  1.370478e+01    2.341375e+00
  1.372065e+01    2.340476e+00
  1.373653e+01    2.252625e+00
  1.375240e+01    2.223602e+00
  1.376828e+01    2.251901e+00
  1.378415e+01    2.232868e+00
  1.380003e+01    2.227803e+00
  1.381591e+01    2.218153e+00
  1.383178e+01    2.214816e+00
  1.384766e+01    2.205834e+00
  1.386353e+01    2.143697e+00
  1.387941e+01    2.167998e+00
  1.389528e+01    2.203053e+00
  1.391116e+01    2.164326e+00
  1.392703e+01    2.136091e+00
  1.394291e+01    2.151628e+00
  1.395879e+01    2.104726e+00
  1.397466e+01    2.087942e+00
  1.399054e+01    2.090828e+00
  1.400641e+01    2.115679e+00
  1.402229e+01    2.118514e+00
  1.403816e+01    2.122787e+00
  1.405404e+01    2.063025e+00
  1.406991e+01    2.043141e+00
  1.408579e+01    2.023246e+00
  1.410167e+01    2.060966e+00
  1.411754e+01    2.059427e+00
  1.413342e+01    2.037737e+00
  1.414929e+01    2.011925e+00
  1.416517e+01    2.014106e+00
  1.418104e+01    1.991296e+00
  1.419692e+01    2.016063e+00
  1.421279e+01    2.008658e+00
  1.422867e+01    1.998359e+00
  1.424455e+01    1.990398e+00
  1.426042e+01    2.022494e+00
  1.427630e+01    2.038138e+00
  1.429217e+01    1.981450e+00
  1.430805e+01    1.974683e+00
  1.432392e+01    1.954632e+00
  1.433980e+01    2.036398e+00
  1.435568e+01    1.990821e+00
  1.437155e+01    1.950771e+00
  1.438743e+01    1.962978e+00
  1.440330e+01    1.965874e+00
  1.441918e+01    1.989142e+00
  1.443505e+01    1.960961e+00
  1.445093e+01    1.944910e+00
  1.446680e+01    1.963594e+00
  1.448268e+01    1.957951e+00
  1.449856e+01    1.964729e+00
  1.451443e+01    1.959825e+00
  1.453031e+01    1.964381e+00
  1.454618e+01    1.972209e+00
  1.456206e+01    1.942550e+00
  1.457793e+01    1.944787e+00
  1.459381e+01    1.965009e+00
  1.460968e+01    1.939934e+00
  1.462556e+01    1.939551e+00
  1.464144e+01    1.949880e+00
  1.465731e+01    1.945138e+00
  1.467319e+01    1.943034e+00
  1.468906e+01    1.924281e+00
  1.470494e+01    1.889021e+00
  1.472081e+01    1.936130e+00
  1.473669e+01    1.963775e+00
  1.475256e+01    1.951902e+00
  1.476844e+01    1.936801e+00
  1.478432e+01    1.921007e+00
  1.480019e+01    1.936122e+00
  1.481607e+01    1.921579e+00
  1.483194e+01    1.894680e+00
  1.484782e+01    1.922039e+00
  1.486369e+01    1.923740e+00
  1.487957e+01    1.934079e+00
  1.489544e+01    1.954832e+00
  1.491132e+01    2.018813e+00
  1.492720e+01    2.044712e+00
  1.494307e+01    2.028770e+00
  1.495895e+01    1.993018e+00
  1.497482e+01    2.048382e+00
  1.499070e+01    2.123410e+00
  1.500657e+01    2.189661e+00
  1.502245e+01    2.225181e+00
  1.503832e+01    2.277832e+00
  1.505420e+01    2.350420e+00
  1.507008e+01    2.476265e+00
  1.508595e+01    2.584515e+00
  1.510183e+01    2.763167e+00
  1.511770e+01    3.043149e+00
  1.513358e+01    3.283878e+00
  1.514945e+01    3.606401e+00
  1.516533e+01    4.007603e+00
  1.518120e+01    4.389413e+00
  1.519708e+01    4.911277e+00
  1.521296e+01    5.306331e+00
  1.522883e+01    5.741211e+00
  1.524471e+01    6.067188e+00
  1.526058e+01    6.362461e+00
  1.527646e+01    6.444425e+00
  1.529233e+01    6.562587e+00
  1.530821e+01    6.551802e+00
  1.532409e+01    6.186964e+00
  1.533996e+01    5.536316e+00
  1.535584e+01    4.956678e+00
  1.537171e+01    4.386059e+00
  1.538759e+01    3.846241e+00
  1.540346e+01    3.412250e+00
  1.541934e+01    3.044513e+00
  1.543521e+01    2.827956e+00
  1.545109e+01    2.578091e+00
  1.546697e+01    2.485265e+00
  1.548284e+01    2.385766e+00
  1.549872e+01    2.277230e+00
  1.551459e+01    2.137793e+00
  1.553047e+01    2.127244e+00
  1.554634e+01    2.089501e+00
  1.556222e+01    2.045590e+00
  1.557809e+01    1.973107e+00
  1.559397e+01    1.937740e+00
  1.560985e+01    1.876541e+00
  1.562572e+01    1.868811e+00
  1.564160e+01    1.844883e+00
  1.565747e+01    1.824685e+00
  1.567335e+01    1.850138e+00
  1.568922e+01    1.828349e+00
  1.570510e+01    1.812129e+00
  1.572097e+01    1.780690e+00
  1.573685e+01    1.760479e+00
  1.575273e+01    1.722265e+00
  1.576860e+01    1.704902e+00
  1.578448e+01    1.708117e+00
  1.580035e+01    1.712285e+00
  1.581623e+01    1.678678e+00
  1.583210e+01    1.706868e+00
  1.584798e+01    1.704470e+00
  1.586385e+01    1.689674e+00
  1.587973e+01    1.682690e+00
  1.589561e+01    1.695470e+00
  1.591148e+01    1.693665e+00
  1.592736e+01    1.672494e+00
  1.594323e+01    1.657973e+00
  1.595911e+01    1.641437e+00
  1.597498e+01    1.628425e+00
  1.599086e+01    1.661311e+00
  1.600673e+01    1.650014e+00
  1.602261e+01    1.666560e+00
  1.603849e+01    1.657530e+00
  1.605436e+01    1.639481e+00
  1.607024e+01    1.613671e+00
  1.608611e+01    1.634002e+00
  1.610199e+01    1.631296e+00
  1.611786e+01    1.598184e+00
  1.613374e+01    1.577618e+00
  1.614961e+01    1.611704e+00
  1.616549e+01    1.613829e+00
  1.618137e+01    1.635058e+00
  1.619724e+01    1.608219e+00
  1.621312e+01    1.627970e+00
  1.622899e+01    1.631094e+00
  1.624487e+01    1.601142e+00
  1.626074e+01    1.582073e+00
  1.627662e+01    1.583425e+00
  1.629250e+01    1.590104e+00
  1.630837e+01    1.575287e+00
  1.632425e+01    1.561669e+00
  1.634012e+01    1.547802e+00
  1.635600e+01    1.560483e+00
  1.637187e+01    1.550950e+00
  1.638775e+01    1.537308e+00
  1.640362e+01    1.523643e+00
  1.641950e+01    1.539150e+00
  1.643538e+01    1.578503e+00
  1.645125e+01    1.532922e+00
  1.646713e+01    1.516838e+00
  1.648300e+01    1.540416e+00
  1.649888e+01    1.543984e+00
  1.651475e+01    1.513692e+00
  1.653063e+01    1.513993e+00
  1.654650e+01    1.524281e+00
  1.656238e+01    1.496661e+00
  1.657826e+01    1.546182e+00
  1.659413e+01    1.536757e+00
  1.661001e+01    1.494830e+00
  1.662588e+01    1.523076e+00
  1.664176e+01    1.535023e+00
  1.665763e+01    1.510562e+00
  1.667351e+01    1.514310e+00
  1.668938e+01    1.529045e+00
  1.670526e+01    1.535863e+00
  1.672114e+01    1.498146e+00
  1.673701e+01    1.500329e+00
  1.675289e+01    1.507188e+00
  1.676876e+01    1.487855e+00
  1.678464e+01    1.480555e+00
  1.680051e+01    1.471098e+00
  1.681639e+01    1.480876e+00
  1.683226e+01    1.513704e+00
  1.684814e+01    1.475515e+00
  1.686402e+01    1.477370e+00
  1.687989e+01    1.474278e+00
  1.689577e+01    1.522314e+00
  1.691164e+01    1.487912e+00
  1.692752e+01    1.448433e+00
  1.694339e+01    1.465399e+00
  1.695927e+01    1.461751e+00
  1.697514e+01    1.442067e+00
  1.699102e+01    1.455762e+00
  1.700690e+01    1.411713e+00
  1.702277e+01    1.436796e+00
  1.703865e+01    1.448733e+00
  1.705452e+01    1.460081e+00
  1.707040e+01    1.453317e+00
  1.708627e+01    1.457973e+00
  1.710215e+01    1.453152e+00
  1.711802e+01    1.443595e+00
  1.713390e+01    1.460449e+00
  1.714978e+01    1.428187e+00
  1.716565e+01    1.411283e+00
  1.718153e+01    1.411103e+00
  1.719740e+01    1.415109e+00
  1.721328e+01    1.424121e+00
  1.722915e+01    1.428076e+00
  1.724503e+01    1.402431e+00
  1.726091e+01    1.435634e+00
  1.727678e+01    1.416629e+00
  1.729266e+01    1.414616e+00
  1.730853e+01    1.406395e+00
  1.732441e+01    1.413088e+00
  1.734028e+01    1.403576e+00
  1.735616e+01    1.421826e+00
  1.737203e+01    1.395442e+00
  1.738791e+01    1.367553e+00
  1.740379e+01    1.375610e+00
  1.741966e+01    1.393945e+00
  1.743554e+01    1.383766e+00
  1.745141e+01    1.372454e+00
  1.746729e+01    1.384353e+00
  1.748316e+01    1.379897e+00
  1.749904e+01    1.391122e+00
  1.751491e+01    1.391053e+00
  1.753079e+01    1.369064e+00
  1.754667e+01    1.375841e+00
  1.756254e+01    1.402481e+00
  1.757842e+01    1.362603e+00
  1.759429e+01    1.356634e+00
  1.761017e+01    1.369367e+00
  1.762604e+01    1.387513e+00
  1.764192e+01    1.374159e+00
  1.765779e+01    1.351202e+00
  1.767367e+01    1.375593e+00
  1.768955e+01    1.365039e+00
  1.770542e+01    1.350847e+00
  1.772130e+01    1.353565e+00
  1.773717e+01    1.378244e+00
  1.775305e+01    1.375332e+00
  1.776892e+01    1.337533e+00
  1.778480e+01    1.354966e+00
  1.780067e+01    1.357622e+00
  1.781655e+01    1.337094e+00
  1.783243e+01    1.343921e+00
  1.784830e+01    1.330841e+00
  1.786418e+01    1.336725e+00
  1.788005e+01    1.345442e+00
  1.789593e+01    1.316650e+00
  1.791180e+01    1.331993e+00
  1.792768e+01    1.316072e+00
  1.794355e+01    1.313921e+00
  1.795943e+01    1.332856e+00
  1.797531e+01    1.323731e+00
  1.799118e+01    1.329023e+00
  1.800706e+01    1.330561e+00
  1.802293e+01    1.309879e+00
  1.803881e+01    1.325826e+00
  1.805468e+01    1.314804e+00
  1.807056e+01    1.278406e+00
  1.808643e+01    1.269119e+00
  1.810231e+01    1.321505e+00
  1.811819e+01    1.329420e+00
  1.813406e+01    1.313340e+00
  1.814994e+01    1.290606e+00
  1.816581e+01    1.298284e+00
  1.818169e+01    1.314980e+00
  1.819756e+01    1.298945e+00
  1.821344e+01    1.298495e+00
  1.822932e+01    1.296654e+00
  1.824519e+01    1.297051e+00
  1.826107e+01    1.275862e+00
  1.827694e+01    1.270788e+00
  1.829282e+01    1.291796e+00
  1.830869e+01    1.289621e+00
  1.832457e+01    1.287992e+00
  1.834044e+01    1.282118e+00
  1.835632e+01    1.280287e+00
  1.837220e+01    1.270820e+00
  1.838807e+01    1.282949e+00
  1.840395e+01    1.275964e+00
  1.841982e+01    1.277622e+00
  1.843570e+01    1.281305e+00
  1.845157e+01    1.298018e+00
  1.846745e+01    1.245693e+00
  1.848332e+01    1.259944e+00
  1.849920e+01    1.286748e+00
  1.851508e+01    1.262682e+00
  1.853095e+01    1.251746e+00
  1.854683e+01    1.259560e+00
  1.856270e+01    1.235394e+00
  1.857858e+01    1.238148e+00
  1.859445e+01    1.268647e+00
  1.861033e+01    1.276437e+00
  1.862620e+01    1.267208e+00
  1.864208e+01    1.265271e+00
  1.865796e+01    1.266067e+00
  1.867383e+01    1.263322e+00
  1.868971e+01    1.235523e+00
  1.870558e+01    1.232331e+00
  1.872146e+01    1.237182e+00
  1.873733e+01    1.254210e+00
  1.875321e+01    1.258028e+00
  1.876908e+01    1.260279e+00
  1.878496e+01    1.257351e+00
  1.880084e+01    1.259759e+00
  1.881671e+01    1.259994e+00
  1.883259e+01    1.254284e+00
  1.884846e+01    1.246489e+00
  1.886434e+01    1.242521e+00
  1.888021e+01    1.238627e+00
  1.889609e+01    1.227690e+00
  1.891196e+01    1.241510e+00
  1.892784e+01    1.226272e+00
  1.894372e+01    1.224941e+00
  1.895959e+01    1.212552e+00
  1.897547e+01    1.207897e+00
  1.899134e+01    1.227676e+00
  1.900722e+01    1.206328e+00
  1.902309e+01    1.220448e+00
  1.903897e+01    1.240795e+00
  1.905484e+01    1.221301e+00
  1.907072e+01    1.232883e+00
  1.908660e+01    1.235057e+00
  1.910247e+01    1.212526e+00
  1.911835e+01    1.211809e+00
  1.913422e+01    1.196919e+00
  1.915010e+01    1.183428e+00
  1.916597e+01    1.211113e+00
  1.918185e+01    1.199787e+00
  1.919773e+01    1.204425e+00
  1.921360e+01    1.218565e+00
  1.922948e+01    1.211171e+00
  1.924535e+01    1.180055e+00
  1.926123e+01    1.203556e+00
  1.927710e+01    1.206169e+00
  1.929298e+01    1.178585e+00
  1.930885e+01    1.183852e+00
  1.932473e+01    1.186477e+00
  1.934061e+01    1.175510e+00
  1.935648e+01    1.190486e+00
  1.937236e+01    1.196038e+00
  1.938823e+01    1.184761e+00
  1.940411e+01    1.195801e+00
  1.941998e+01    1.204586e+00
  1.943586e+01    1.174774e+00
  1.945173e+01    1.183725e+00
  1.946761e+01    1.184837e+00
  1.948349e+01    1.159267e+00
  1.949936e+01    1.181881e+00
  1.951524e+01    1.196580e+00
  1.953111e+01    1.204317e+00
  1.954699e+01    1.195796e+00
  1.956286e+01    1.188426e+00
  1.957874e+01    1.165339e+00
  1.959461e+01    1.155330e+00
  1.961049e+01    1.156748e+00
  1.962637e+01    1.156887e+00
  1.964224e+01    1.155420e+00
  1.965812e+01    1.165608e+00
  1.967399e+01    1.182333e+00
  1.968987e+01    1.176390e+00
  1.970574e+01    1.161716e+00
  1.972162e+01    1.164101e+00
  1.973749e+01    1.171183e+00
  1.975337e+01    1.156588e+00
  1.976925e+01    1.154592e+00
  1.978512e+01    1.147838e+00
  1.980100e+01    1.142570e+00
  1.981687e+01    1.143410e+00
  1.983275e+01    1.165427e+00
  1.984862e+01    1.144690e+00
  1.986450e+01    1.152031e+00
  1.988037e+01    1.145096e+00
  1.989625e+01    1.126255e+00
  1.991213e+01    1.120744e+00
  1.992800e+01    1.138209e+00
  1.994388e+01    1.139951e+00
  1.995975e+01    1.157956e+00
  1.997563e+01    1.147793e+00
  1.999150e+01    1.142440e+00
  2.000738e+01    1.138340e+00
  2.002325e+01    1.131387e+00
  2.003913e+01    1.153297e+00
  2.005501e+01    1.137415e+00
  2.007088e+01    1.128063e+00
  2.008676e+01    1.125514e+00
  2.010263e+01    1.109469e+00
  2.011851e+01    1.132810e+00
  2.013438e+01    1.137169e+00
  2.015026e+01    1.148301e+00
  2.016614e+01    1.099401e+00
  2.018201e+01    1.115665e+00
  2.019789e+01    1.113023e+00
  2.021376e+01    1.119052e+00
  2.022964e+01    1.132654e+00
  2.024551e+01    1.134994e+00
  2.026139e+01    1.138369e+00
  2.027726e+01    1.128865e+00
  2.029314e+01    1.117162e+00
  2.030902e+01    1.134560e+00
  2.032489e+01    1.135022e+00
  2.034077e+01    1.146694e+00
  2.035664e+01    1.132617e+00
  2.037252e+01    1.142533e+00
  2.038839e+01    1.133183e+00
  2.040427e+01    1.114762e+00
  2.042014e+01    1.116473e+00
  2.043602e+01    1.116141e+00
  2.045190e+01    1.099025e+00
  2.046777e+01    1.125926e+00
  2.048365e+01    1.144438e+00
  2.049952e+01    1.111821e+00
  2.051540e+01    1.093793e+00
  2.053127e+01    1.105734e+00
  2.054715e+01    1.094107e+00
  2.056302e+01    1.104956e+00
  2.057890e+01    1.095311e+00
  2.059478e+01    1.106358e+00
  2.061065e+01    1.124069e+00
  2.062653e+01    1.108656e+00
  2.064240e+01    1.113635e+00
  2.065828e+01    1.119835e+00
  2.067415e+01    1.103911e+00
  2.069003e+01    1.091579e+00
  2.070590e+01    1.081490e+00
  2.072178e+01    1.109120e+00
  2.073766e+01    1.104169e+00
  2.075353e+01    1.120296e+00
  2.076941e+01    1.093491e+00
  2.078528e+01    1.083234e+00
  2.080116e+01    1.093945e+00
  2.081703e+01    1.076646e+00
  2.083291e+01    1.086020e+00
  2.084878e+01    1.090296e+00
  2.086466e+01    1.073474e+00
  2.088054e+01    1.092449e+00
  2.089641e+01    1.115212e+00
  2.091229e+01    1.105368e+00
  2.092816e+01    1.094834e+00
  2.094404e+01    1.096637e+00
  2.095991e+01    1.108774e+00
  2.097579e+01    1.090403e+00
  2.099166e+01    1.096677e+00
  2.100754e+01    1.087177e+00
  2.102342e+01    1.059206e+00
  2.103929e+01    1.089277e+00
  2.105517e+01    1.097647e+00
  2.107104e+01    1.114291e+00
  2.108692e+01    1.113172e+00
  2.110279e+01    1.121910e+00
  2.111867e+01    1.112659e+00
  2.113455e+01    1.102575e+00
  2.115042e+01    1.110033e+00
  2.116630e+01    1.126800e+00
  2.118217e+01    1.136201e+00
  2.119805e+01    1.121140e+00
  2.121392e+01    1.100714e+00
  2.122980e+01    1.092754e+00
  2.124567e+01    1.094462e+00
  2.126155e+01    1.105799e+00
  2.127743e+01    1.142509e+00
  2.129330e+01    1.142679e+00
  2.130918e+01    1.162318e+00
  2.132505e+01    1.154649e+00
  2.134093e+01    1.162703e+00
  2.135680e+01    1.168077e+00
  2.137268e+01    1.168806e+00
  2.138855e+01    1.188531e+00
  2.140443e+01    1.191168e+00
  2.142031e+01    1.191246e+00
  2.143618e+01    1.210735e+00
  2.145206e+01    1.232866e+00
  2.146793e+01    1.221011e+00
  2.148381e+01    1.257752e+00
  2.149968e+01    1.316040e+00
  2.151556e+01    1.321721e+00
  2.153143e+01    1.322241e+00
  2.154731e+01    1.375854e+00
  2.156319e+01    1.417952e+00
  2.157906e+01    1.468377e+00
  2.159494e+01    1.507637e+00
  2.161081e+01    1.587412e+00
  2.162669e+01    1.660553e+00
  2.164256e+01    1.764107e+00
  2.165844e+01    1.852989e+00
  2.167431e+01    1.964024e+00
  2.169019e+01    2.109878e+00
  2.170607e+01    2.356537e+00
  2.172194e+01    2.553126e+00
  2.173782e+01    2.822173e+00
  2.175369e+01    3.255111e+00
  2.176957e+01    3.687409e+00
  2.178544e+01    4.286968e+00
  2.180132e+01    4.954595e+00
  2.181719e+01    5.678057e+00
  2.183307e+01    6.462625e+00
  2.184895e+01    7.260225e+00
  2.186482e+01    8.108584e+00
  2.188070e+01    9.054819e+00
  2.189657e+01    9.914440e+00
  2.191245e+01    1.049885e+01
  2.192832e+01    1.096377e+01
  2.194420e+01    1.091951e+01
  2.196007e+01    1.035858e+01
  2.197595e+01    9.353158e+00
  2.199183e+01    8.211566e+00
  2.200770e+01    7.009077e+00
  2.202358e+01    5.870148e+00
  2.203945e+01    4.952245e+00
  2.205533e+01    4.251387e+00
  2.207120e+01    3.631526e+00
  2.208708e+01    3.190457e+00
  2.210296e+01    2.860221e+00
  2.211883e+01    2.590105e+00
  2.213471e+01    2.322912e+00
  2.215058e+01    2.124670e+00
  2.216646e+01    1.930289e+00
  2.218233e+01    1.806714e+00
  2.219821e+01    1.720774e+00
  2.221408e+01    1.640181e+00
  2.222996e+01    1.552926e+00
  2.224584e+01    1.475501e+00
  2.226171e+01    1.400585e+00
  2.227759e+01    1.360534e+00
  2.229346e+01    1.350756e+00
  2.230934e+01    1.293417e+00
  2.232521e+01    1.248518e+00
  2.234109e+01    1.217911e+00
  2.235696e+01    1.205151e+00
  2.237284e+01    1.189190e+00
  2.238872e+01    1.171019e+00
  2.240459e+01    1.134510e+00
  2.242047e+01    1.138227e+00
  2.243634e+01    1.125485e+00
  2.245222e+01    1.101469e+00
  2.246809e+01    1.111199e+00
  2.248397e+01    1.076758e+00
  2.249984e+01    1.051862e+00
  2.251572e+01    1.062092e+00
  2.253160e+01    1.065307e+00
  2.254747e+01    1.034430e+00
  2.256335e+01    1.044596e+00
  2.257922e+01    1.022011e+00
  2.259510e+01    1.029724e+00
  2.261097e+01    1.027201e+00
  2.262685e+01    1.006471e+00
  2.264272e+01    9.940984e-01
  2.265860e+01    1.004602e+00
  2.267448e+01    9.907499e-01
  2.269035e+01    9.954603e-01
  2.270623e+01    9.992990e-01
  2.272210e+01    1.002523e+00
  2.273798e+01    9.862262e-01
  2.275385e+01    9.791792e-01
  2.276973e+01    9.804517e-01
  2.278560e+01    9.548020e-01
  2.280148e+01    9.487363e-01
  2.281736e+01    9.461575e-01
  2.283323e+01    9.330402e-01
  2.284911e+01    9.309262e-01
  2.286498e+01    9.403464e-01
  2.288086e+01    9.251887e-01
  2.289673e+01    9.351953e-01
  2.291261e+01    9.161823e-01
  2.292848e+01    9.252707e-01
  2.294436e+01    9.288708e-01
  2.296024e+01    9.281267e-01
  2.297611e+01    9.044980e-01
  2.299199e+01    9.274179e-01
  2.300786e+01    9.232702e-01
  2.302374e+01    9.159731e-01
  2.303961e+01    9.353490e-01
  2.305549e+01    9.197002e-01
  2.307137e+01    9.052770e-01
  2.308724e+01    9.092187e-01
  2.310312e+01    8.927030e-01
  2.311899e+01    9.092038e-01
  2.313487e+01    9.024578e-01
  2.315074e+01    9.062495e-01
  2.316662e+01    9.270771e-01
  2.318249e+01    8.949145e-01
  2.319837e+01    8.658381e-01
  2.321425e+01    8.700942e-01
  2.323012e+01    8.942856e-01
  2.324600e+01    9.014636e-01
  2.326187e+01    8.819122e-01
  2.327775e+01    8.777519e-01
  2.329362e+01    8.783062e-01
  2.330950e+01    8.855077e-01
  2.332537e+01    9.045008e-01
  2.334125e+01    8.945085e-01
  2.335713e+01    8.824030e-01
  2.337300e+01    8.752864e-01
  2.338888e+01    8.828037e-01
  2.340475e+01    8.693826e-01
  2.342063e+01    8.850760e-01
  2.343650e+01    8.588351e-01
  2.345238e+01    8.727608e-01
  2.346825e+01    8.659607e-01
  2.348413e+01    8.596910e-01
  2.350001e+01    8.573841e-01
  2.351588e+01    8.782279e-01
  2.353176e+01    8.592421e-01
  2.354763e+01    8.660810e-01
  2.356351e+01    8.759732e-01
  2.357938e+01    8.716127e-01
  2.359526e+01    8.681312e-01
  2.361113e+01    8.659048e-01
  2.362701e+01    8.486906e-01
  2.364289e+01    8.802800e-01
  2.365876e+01    8.537711e-01
  2.367464e+01    8.398497e-01
  2.369051e+01    8.395414e-01
  2.370639e+01    8.359088e-01
  2.372226e+01    8.372261e-01
  2.373814e+01    8.369182e-01
  2.375401e+01    8.410933e-01
  2.376989e+01    8.413806e-01
  2.378577e+01    8.356339e-01
  2.380164e+01    8.282939e-01
  2.381752e+01    8.134646e-01
  2.383339e+01    8.237741e-01
  2.384927e+01    8.309865e-01
  2.386514e+01    8.496799e-01
  2.388102e+01    8.220191e-01
  2.389689e+01    8.052050e-01
  2.391277e+01    8.319213e-01
  2.392865e+01    8.361561e-01
  2.394452e+01    8.305967e-01
  2.396040e+01    8.103554e-01
  2.397627e+01    8.235614e-01
  2.399215e+01    8.188223e-01
  2.400802e+01    7.964057e-01
  2.402390e+01    8.014982e-01
  2.403978e+01    8.070642e-01
  2.405565e+01    8.008883e-01
  2.407153e+01    7.835578e-01
  2.408740e+01    7.978487e-01
  2.410328e+01    8.036684e-01
  2.411915e+01    7.911416e-01
  2.413503e+01    8.125443e-01
  2.415090e+01    8.048722e-01
  2.416678e+01    7.713911e-01
  2.418266e+01    8.028586e-01
  2.419853e+01    7.931575e-01
  2.421441e+01    7.730094e-01
  2.423028e+01    7.705079e-01
  2.424616e+01    7.798489e-01
  2.426203e+01    8.029476e-01
  2.427791e+01    8.126839e-01
  2.429378e+01    7.870391e-01
  2.430966e+01    8.008046e-01
  2.432554e+01    8.032755e-01
  2.434141e+01    7.936492e-01
  2.435729e+01    7.946526e-01
  2.437316e+01    8.117602e-01
  2.438904e+01    8.211526e-01
  2.440491e+01    8.145935e-01
  2.442079e+01    7.973686e-01
  2.443666e+01    8.015006e-01
  2.445254e+01    8.083003e-01
  2.446842e+01    8.087708e-01
  2.448429e+01    8.094309e-01
  2.450017e+01    7.998025e-01
  2.451604e+01    7.971763e-01
  2.453192e+01    8.097593e-01
  2.454779e+01    8.292149e-01
  2.456367e+01    8.089803e-01
  2.457954e+01    7.947977e-01
  2.459542e+01    7.975491e-01
  2.461130e+01    8.016676e-01
  2.462717e+01    8.059244e-01
  2.464305e+01    8.053073e-01
  2.465892e+01    8.123201e-01
  2.467480e+01    8.143454e-01
  2.469067e+01    8.101585e-01
  2.470655e+01    7.970008e-01
  2.472242e+01    8.230538e-01
  2.473830e+01    8.153799e-01
  2.475418e+01    8.069200e-01
  2.477005e+01    8.057086e-01
  2.478593e+01    8.027075e-01
  2.480180e+01    8.006816e-01
  2.481768e+01    8.074360e-01
  2.483355e+01    8.114869e-01
  2.484943e+01    8.042479e-01
  2.486530e+01    8.135756e-01
  2.488118e+01    8.084511e-01
  2.489706e+01    8.076249e-01
  2.491293e+01    8.014090e-01
  2.492881e+01    8.059648e-01
  2.494468e+01    8.112466e-01
  2.496056e+01    7.921747e-01
  2.497643e+01    8.000590e-01
  2.499231e+01    8.139141e-01
  2.500819e+01    8.101186e-01
  2.502406e+01    8.131011e-01
  2.503994e+01    8.034761e-01
  2.505581e+01    8.136007e-01
  2.507169e+01    8.230272e-01
  2.508756e+01    8.192774e-01
  2.510344e+01    8.234423e-01
  2.511931e+01    8.288863e-01
  2.513519e+01    8.278202e-01
  2.515107e+01    8.155696e-01
  2.516694e+01    8.390624e-01
  2.518282e+01    8.559205e-01
  2.519869e+01    8.599781e-01
  2.521457e+01    8.652187e-01
  2.523044e+01    8.604438e-01
  2.524632e+01    8.751163e-01
  2.526219e+01    8.662599e-01
  2.527807e+01    8.611115e-01
  2.529395e+01    8.723179e-01
  2.530982e+01    8.888677e-01
  2.532570e+01    9.012057e-01
  2.534157e+01    9.124677e-01
  2.535745e+01    9.079435e-01
  2.537332e+01    9.114875e-01
  2.538920e+01    9.199818e-01
  2.540507e+01    9.357710e-01
  2.542095e+01    9.215032e-01
  2.543683e+01    9.098678e-01
  2.545270e+01    9.215096e-01
  2.546858e+01    9.323660e-01
  2.548445e+01    9.583684e-01
  2.550033e+01    9.598722e-01
  2.551620e+01    9.863278e-01
  2.553208e+01    1.009920e+00
  2.554795e+01    1.018168e+00
  2.556383e+01    1.049037e+00
  2.557971e+01    1.069257e+00
  2.559558e+01    1.092414e+00
  2.561146e+01    1.127595e+00
  2.562733e+01    1.160319e+00
  2.564321e+01    1.200289e+00
  2.565908e+01    1.221679e+00
  2.567496e+01    1.241168e+00
  2.569083e+01    1.292320e+00
  2.570671e+01    1.385686e+00
  2.572259e+01    1.481335e+00
  2.573846e+01    1.560040e+00
  2.575434e+01    1.704808e+00
  2.577021e+01    1.880076e+00
  2.578609e+01    2.024518e+00
  2.580196e+01    2.211175e+00
  2.581784e+01    2.500728e+00
  2.583371e+01    2.839209e+00
  2.584959e+01    3.225019e+00
  2.586547e+01    3.700280e+00
  2.588134e+01    4.256835e+00
  2.589722e+01    4.892731e+00
  2.591309e+01    5.649125e+00
  2.592897e+01    6.420452e+00
  2.594484e+01    7.185158e+00
  2.596072e+01    7.913621e+00
  2.597660e+01    8.582346e+00
  2.599247e+01    8.945708e+00
  2.600835e+01    9.044982e+00
  2.602422e+01    8.797764e+00
  2.604010e+01    8.151519e+00
  2.605597e+01    7.325580e+00
  2.607185e+01    6.398785e+00
  2.608772e+01    5.542420e+00
  2.610360e+01    4.706423e+00
  2.611948e+01    4.009109e+00
  2.613535e+01    3.448234e+00
  2.615123e+01    3.020639e+00
  2.616710e+01    2.682944e+00
  2.618298e+01    2.410967e+00
  2.619885e+01    2.145477e+00
  2.621473e+01    1.950972e+00
  2.623060e+01    1.811939e+00
  2.624648e+01    1.643688e+00
  2.626236e+01    1.550358e+00
  2.627823e+01    1.459157e+00
  2.629411e+01    1.391694e+00
  2.630998e+01    1.322980e+00
  2.632586e+01    1.255247e+00
  2.634173e+01    1.222086e+00
  2.635761e+01    1.187877e+00
  2.637348e+01    1.137804e+00
  2.638936e+01    1.107531e+00
  2.640524e+01    1.102998e+00
  2.642111e+01    1.076746e+00
  2.643699e+01    1.064656e+00
  2.645286e+01    1.026959e+00
  2.646874e+01    1.014133e+00
  2.648461e+01    9.892682e-01
  2.650049e+01    1.016891e+00
  2.651636e+01    9.887038e-01
  2.653224e+01    9.702417e-01
  2.654812e+01    9.570982e-01
  2.656399e+01    9.599836e-01
  2.657987e+01    9.485018e-01
  2.659574e+01    9.632133e-01
  2.661162e+01    9.560537e-01
  2.662749e+01    9.668165e-01
  2.664337e+01    9.622476e-01
  2.665924e+01    9.441933e-01
  2.667512e+01    9.466777e-01
  2.669100e+01    9.357117e-01
  2.670687e+01    9.141800e-01
  2.672275e+01    9.427915e-01
  2.673862e+01    9.508616e-01
  2.675450e+01    9.408590e-01
  2.677037e+01    9.605248e-01
  2.678625e+01    9.479853e-01
  2.680212e+01    9.289436e-01
  2.681800e+01    9.360213e-01
  2.683388e+01    9.354051e-01
  2.684975e+01    9.420503e-01
  2.686563e+01    9.103743e-01
  2.688150e+01    9.247970e-01
  2.689738e+01    9.398677e-01
  2.691325e+01    9.341501e-01
  2.692913e+01    9.228253e-01
  2.694501e+01    9.438624e-01
  2.696088e+01    9.921877e-01
  2.697676e+01    9.851606e-01
  2.699263e+01    9.777678e-01
  2.700851e+01    1.014134e+00
  2.702438e+01    1.057321e+00
  2.704026e+01    1.081621e+00
  2.705613e+01    1.112593e+00
  2.707201e+01    1.141446e+00
  2.708789e+01    1.185468e+00
  2.710376e+01    1.266802e+00
  2.711964e+01    1.368239e+00
  2.713551e+01    1.466441e+00
  2.715139e+01    1.593020e+00
  2.716726e+01    1.748937e+00
  2.718314e+01    1.872838e+00
  2.719901e+01    2.091824e+00
  2.721489e+01    2.258539e+00
  2.723077e+01    2.402621e+00
  2.724664e+01    2.499346e+00
  2.726252e+01    2.579646e+00
  2.727839e+01    2.537982e+00
  2.729427e+01    2.427724e+00
  2.731014e+01    2.290011e+00
  2.732602e+01    2.143952e+00
  2.734189e+01    1.911089e+00
  2.735777e+01    1.740337e+00
  2.737365e+01    1.621847e+00
  2.738952e+01    1.491483e+00
  2.740540e+01    1.360052e+00
  2.742127e+01    1.254624e+00
  2.743715e+01    1.189663e+00
  2.745302e+01    1.153539e+00
  2.746890e+01    1.110912e+00
  2.748477e+01    1.072828e+00
  2.750065e+01    1.017493e+00
  2.751653e+01    1.005582e+00
  2.753240e+01    9.858107e-01
  2.754828e+01    9.613967e-01
  2.756415e+01    9.525139e-01
  2.758003e+01    9.207560e-01
  2.759590e+01    9.045963e-01
  2.761178e+01    8.881667e-01
  2.762765e+01    8.713751e-01
  2.764353e+01    8.895678e-01
  2.765941e+01    8.694581e-01
  2.767528e+01    8.556600e-01
  2.769116e+01    8.745363e-01
  2.770703e+01    8.846063e-01
  2.772291e+01    8.736814e-01
  2.773878e+01    8.476908e-01
  2.775466e+01    8.422575e-01
  2.777054e+01    8.420552e-01
  2.778641e+01    8.488115e-01
  2.780229e+01    8.165492e-01
  2.781816e+01    8.162916e-01
  2.783404e+01    8.270610e-01
  2.784991e+01    8.257343e-01
  2.786579e+01    8.391126e-01
  2.788166e+01    8.044120e-01
  2.789754e+01    8.097777e-01
  2.791342e+01    8.191184e-01
  2.792929e+01    8.262199e-01
  2.794517e+01    8.438351e-01
  2.796104e+01    8.310523e-01
  2.797692e+01    8.056450e-01
  2.799279e+01    7.999501e-01
  2.800867e+01    8.087398e-01
  2.802454e+01    8.344265e-01
  2.804042e+01    8.219455e-01
  2.805630e+01    8.084843e-01
  2.807217e+01    8.022635e-01
  2.808805e+01    8.076462e-01
  2.810392e+01    7.978945e-01
  2.811980e+01    7.974504e-01
  2.813567e+01    7.910892e-01
  2.815155e+01    7.952799e-01
  2.816742e+01    8.060421e-01
  2.818330e+01    7.983937e-01
  2.819918e+01    7.999140e-01
  2.821505e+01    8.093604e-01
  2.823093e+01    8.029842e-01
  2.824680e+01    7.953228e-01
  2.826268e+01    8.033419e-01
  2.827855e+01    7.910324e-01
  2.829443e+01    7.912505e-01
  2.831030e+01    7.948598e-01
  2.832618e+01    7.934437e-01
  2.834206e+01    7.723193e-01
  2.835793e+01    7.751014e-01
  2.837381e+01    7.807886e-01
  2.838968e+01    7.885754e-01
  2.840556e+01    7.980122e-01
  2.842143e+01    7.964813e-01
  2.843731e+01    7.771936e-01
  2.845318e+01    7.796160e-01
  2.846906e+01    7.671317e-01
  2.848494e+01    7.679383e-01
  2.850081e+01    7.775573e-01
  2.851669e+01    7.847031e-01
  2.853256e+01    7.649845e-01
  2.854844e+01    7.604567e-01
  2.856431e+01    7.831234e-01
  2.858019e+01    7.772235e-01
  2.859606e+01    7.724696e-01
  2.861194e+01    7.820708e-01
  2.862782e+01    7.756451e-01
  2.864369e+01    7.919064e-01
  2.865957e+01    8.006942e-01
  2.867544e+01    7.803649e-01
  2.869132e+01    7.699036e-01
  2.870719e+01    7.746385e-01
  2.872307e+01    7.637526e-01
  2.873895e+01    7.688471e-01
  2.875482e+01    7.603759e-01
  2.877070e+01    7.617911e-01
  2.878657e+01    7.612288e-01
  2.880245e+01    7.507592e-01
  2.881832e+01    7.587544e-01
  2.883420e+01    7.600494e-01
  2.885007e+01    7.498068e-01
  2.886595e+01    7.600693e-01
  2.888183e+01    7.400650e-01
  2.889770e+01    7.409171e-01
  2.891358e+01    7.434726e-01
  2.892945e+01    7.447118e-01
  2.894533e+01    7.688001e-01
  2.896120e+01    7.690531e-01
  2.897708e+01    7.592300e-01
  2.899295e+01    7.578894e-01
  2.900883e+01    7.583963e-01
  2.902471e+01    7.562621e-01
  2.904058e+01    7.494171e-01
  2.905646e+01    7.518392e-01
  2.907233e+01    7.538075e-01
  2.908821e+01    7.547539e-01
  2.910408e+01    7.379425e-01
  2.911996e+01    7.477401e-01
  2.913583e+01    7.359613e-01
  2.915171e+01    7.275662e-01
  2.916759e+01    7.395411e-01
  2.918346e+01    7.436754e-01
  2.919934e+01    7.362846e-01
  2.921521e+01    7.375441e-01
  2.923109e+01    7.620115e-01
  2.924696e+01    7.654976e-01
  2.926284e+01    7.287195e-01
  2.927871e+01    7.445329e-01
  2.929459e+01    7.349623e-01
  2.931047e+01    7.475345e-01
  2.932634e+01    7.457540e-01
  2.934222e+01    7.329534e-01
  2.935809e+01    7.244788e-01
  2.937397e+01    7.411927e-01
  2.938984e+01    7.477177e-01
  2.940572e+01    7.487364e-01
  2.942159e+01    7.413290e-01
  2.943747e+01    7.301576e-01
  2.945335e+01    7.244825e-01
  2.946922e+01    7.455791e-01
  2.948510e+01    7.374082e-01
  2.950097e+01    7.289709e-01
  2.951685e+01    7.366164e-01
  2.953272e+01    7.265034e-01
  2.954860e+01    7.282653e-01
  2.956447e+01    7.452759e-01
  2.958035e+01    7.405207e-01
  2.959623e+01    7.368062e-01
  2.961210e+01    7.321454e-01
  2.962798e+01    7.201447e-01
  2.964385e+01    7.213935e-01
  2.965973e+01    7.126860e-01
  2.967560e+01    7.209048e-01
  2.969148e+01    7.361405e-01
  2.970736e+01    7.480797e-01
  2.972323e+01    7.332705e-01
  2.973911e+01    7.365043e-01
  2.975498e+01    7.251961e-01
  2.977086e+01    7.238821e-01
  2.978673e+01    7.415367e-01
  2.980261e+01    7.283996e-01
  2.981848e+01    7.325073e-01
  2.983436e+01    7.401024e-01
  2.985024e+01    7.447819e-01
  2.986611e+01    7.362683e-01
  2.988199e+01    7.264266e-01
  2.989786e+01    7.217534e-01
  2.991374e+01    7.312638e-01
  2.992961e+01    7.495298e-01
  2.994549e+01    7.437884e-01
  2.996136e+01    7.376854e-01
  2.997724e+01    7.129784e-01
  2.999312e+01    7.395741e-01
  3.000899e+01    7.668468e-01
  3.002487e+01    7.456191e-01
  3.004074e+01    7.465283e-01
  3.005662e+01    7.591446e-01
  3.007249e+01    7.624962e-01
  3.008837e+01    7.471159e-01
  3.010424e+01    7.317553e-01
  3.012012e+01    7.325064e-01
  3.013600e+01    7.306226e-01
  3.015187e+01    7.329310e-01
  3.016775e+01    7.414185e-01
  3.018362e+01    7.268583e-01
  3.019950e+01    7.373852e-01
  3.021537e+01    7.389699e-01
  3.023125e+01    7.265753e-01
  3.024712e+01    7.346798e-01
  3.026300e+01    7.256484e-01
  3.027888e+01    7.175655e-01
  3.029475e+01    7.226288e-01
  3.031063e+01    7.434729e-01
  3.032650e+01    7.453835e-01
  3.034238e+01    7.491481e-01
  3.035825e+01    7.259464e-01
  3.037413e+01    7.116497e-01
  3.039000e+01    7.130237e-01
  3.040588e+01    7.134800e-01
  3.042176e+01    7.288907e-01
  3.043763e+01    7.296138e-01
  3.045351e+01    7.304112e-01
  3.046938e+01    7.268317e-01
  3.048526e+01    7.269875e-01
  3.050113e+01    7.403657e-01
  3.051701e+01    7.225214e-01
  3.053288e+01    7.297264e-01
  3.054876e+01    7.272672e-01
  3.056464e+01    7.254183e-01
  3.058051e+01    7.202072e-01
  3.059639e+01    7.346542e-01
  3.061226e+01    7.251087e-01
  3.062814e+01    7.203777e-01
  3.064401e+01    7.183837e-01
  3.065989e+01    7.399973e-01
  3.067577e+01    7.322630e-01
  3.069164e+01    7.318149e-01
  3.070752e+01    7.149358e-01
  3.072339e+01    7.243178e-01
  3.073927e+01    7.112895e-01
  3.075514e+01    7.198375e-01
  3.077102e+01    7.346272e-01
  3.078689e+01    7.282410e-01
  3.080277e+01    7.133936e-01
  3.081865e+01    7.169875e-01
  3.083452e+01    7.188330e-01
  3.085040e+01    7.305660e-01
  3.086627e+01    7.426111e-01
  3.088215e+01    7.504790e-01
  3.089802e+01    7.382616e-01
  3.091390e+01    7.210659e-01
  3.092977e+01    7.324456e-01
  3.094565e+01    7.275622e-01
  3.096153e+01    7.517245e-01
  3.097740e+01    7.230732e-01
  3.099328e+01    7.163076e-01
  3.100915e+01    7.300364e-01
  3.102503e+01    7.266467e-01
  3.104090e+01    7.443155e-01
  3.105678e+01    7.303082e-01
  3.107265e+01    7.234654e-01
  3.108853e+01    7.358516e-01
  3.110441e+01    7.427576e-01
  3.112028e+01    7.316578e-01
  3.113616e+01    7.217717e-01
  3.115203e+01    7.262430e-01
  3.116791e+01    7.435514e-01
  3.118378e+01    7.351431e-01
  3.119966e+01    7.319874e-01
  3.121553e+01    7.441748e-01
  3.123141e+01    7.206271e-01
  3.124729e+01    7.418920e-01
  3.126316e+01    7.393177e-01
  3.127904e+01    7.388853e-01
  3.129491e+01    7.380192e-01
  3.131079e+01    7.302142e-01
  3.132666e+01    7.430047e-01
  3.134254e+01    7.419615e-01
  3.135841e+01    7.398511e-01
  3.137429e+01    7.590149e-01
  3.139017e+01    7.604852e-01
  3.140604e+01    7.547139e-01
  3.142192e+01    7.564567e-01
  3.143779e+01    7.660619e-01
  3.145367e+01    7.692111e-01
  3.146954e+01    7.677284e-01
  3.148542e+01    7.602946e-01
  3.150129e+01    7.917203e-01
  3.151717e+01    7.637967e-01
  3.153305e+01    7.519722e-01
  3.154892e+01    7.960761e-01
  3.156480e+01    7.958462e-01
  3.158067e+01    8.069836e-01
  3.159655e+01    8.264510e-01
  3.161242e+01    8.143921e-01
  3.162830e+01    8.371737e-01
  3.164418e+01    8.420054e-01
  3.166005e+01    8.683468e-01
  3.167593e+01    8.793305e-01
  3.169180e+01    8.988939e-01
  3.170768e+01    9.332401e-01
  3.172355e+01    9.579188e-01
  3.173943e+01    9.905338e-01
  3.175530e+01    1.051827e+00
  3.177118e+01    1.095688e+00
  3.178706e+01    1.148253e+00
  3.180293e+01    1.210636e+00
  3.181881e+01    1.308738e+00
  3.183468e+01    1.413921e+00
  3.185056e+01    1.526691e+00
  3.186643e+01    1.679337e+00
  3.188231e+01    1.852657e+00
  3.189818e+01    2.035606e+00
  3.191406e+01    2.263747e+00
  3.192994e+01    2.465971e+00
  3.194581e+01    2.548549e+00
  3.196169e+01    2.571477e+00
  3.197756e+01    2.558763e+00
  3.199344e+01    2.459869e+00
  3.200931e+01    2.293017e+00
  3.202519e+01    2.118803e+00
  3.204106e+01    1.882570e+00
  3.205694e+01    1.723436e+00
  3.207282e+01    1.553044e+00
  3.208869e+01    1.358455e+00
  3.210457e+01    1.277658e+00
  3.212044e+01    1.201506e+00
  3.213632e+01    1.104161e+00
  3.215219e+01    1.041839e+00
  3.216807e+01    1.000500e+00
  3.218394e+01    9.792516e-01
  3.219982e+01    9.292910e-01
  3.221570e+01    8.930814e-01
  3.223157e+01    8.998333e-01
  3.224745e+01    8.870928e-01
  3.226332e+01    8.512189e-01
  3.227920e+01    8.735242e-01
  3.229507e+01    8.568305e-01
  3.231095e+01    8.082561e-01
  3.232682e+01    7.758950e-01
  3.234270e+01    7.885450e-01
  3.235858e+01    7.870349e-01
  3.237445e+01    7.977967e-01
  3.239033e+01    7.639846e-01
  3.240620e+01    7.668830e-01
  3.242208e+01    7.694162e-01
  3.243795e+01    7.542798e-01
  3.245383e+01    7.376613e-01
  3.246970e+01    7.755631e-01
  3.248558e+01    7.583598e-01
  3.250146e+01    7.612013e-01
  3.251733e+01    7.543553e-01
  3.253321e+01    7.396044e-01
  3.254908e+01    7.349841e-01
