# == pyFAI calibration ==
# Distance Sample to Detector: 0.3999999939076516 m
# PONI: 9.750e-02, 1.135e-01 m
# Rotations: -0.000175 0.000000 -0.000000 rad
# 
# == Fit2d calibration ==
# Distance Sample-beamCenter: 400.000 mm
# Center: x=1514.000, y=1300.000 pix
# Tilt: 0.010 deg  TiltPlanRot: 0.010 deg
# 
# Detector Detector	 Spline= None	 PixelSize= 7.500e-05, 7.500e-05 m
#    Detector has a mask: False 
#    Detector has a dark current: False 
#    detector has a flat field: False 
# 
# Wavelength: 6.888e-11 m
# Mask applied: user provided
# Dark current applied: False
# Flat field applied: False
# Polarization factor: 0.99
# Normalization factor: 1.0
# --> /home/myspot/data/2024_07_Rosario/Ru-CGO-ex/2024-07-27_002_Ru-CGO-ex_Activtation_ramp_000002_data_000182.dat
#       q_nm^-1             I 
  2.003187e-02    0.000000e+00
  3.590745e-02    0.000000e+00
  5.178302e-02    4.718721e-02
  6.765859e-02    1.692409e-01
  8.353417e-02    9.393039e-02
  9.940974e-02    1.974752e-02
  1.152853e-01    8.461617e-02
  1.311609e-01    3.919510e-02
  1.470365e-01    1.572512e-02
  1.629120e-01    6.759470e-02
  1.787876e-01    3.572363e-02
  1.946632e-01    3.969741e-02
  2.105388e-01    7.767924e-03
  2.264143e-01    1.822240e-02
  2.422899e-01    4.163101e-03
  2.581655e-01    1.218203e-02
  2.740411e-01    1.965884e-02
  2.899166e-01    1.022931e-02
  3.057922e-01    1.888973e-02
  3.216678e-01    3.140292e-02
  3.375433e-01    4.713335e-02
  3.534189e-01    6.719930e-02
  3.692945e-01    8.568361e-02
  3.851701e-01    3.791339e-02
  4.010456e-01    4.121036e-02
  4.169212e-01    4.516890e-02
  4.327968e-01    2.396645e-02
  4.486724e-01    6.348027e-02
  4.645479e-01    5.182726e-02
  4.804235e-01    4.329494e-02
  4.962991e-01    3.194102e-02
  5.121747e-01    2.999156e-02
  5.280502e-01    4.399542e-02
  5.439258e-01    4.518232e-02
  5.598014e-01    5.282420e-02
  5.756770e-01    2.852187e-02
  5.915525e-01    2.606884e-02
  6.074281e-01    4.896166e-02
  6.233037e-01    3.755525e-02
  6.391793e-01    6.215698e-03
  6.550548e-01    2.827511e-02
  6.709304e-01    4.634252e-02
  6.868060e-01    5.910364e-02
  7.026815e-01    5.576810e-02
  7.185571e-01    6.141305e-02
  7.344327e-01    4.836109e-02
  7.503083e-01    7.017279e-02
  7.661838e-01    6.144673e-02
  7.820594e-01    1.066094e-01
  7.979350e-01    1.201918e-01
  8.138106e-01    1.942093e-01
  8.296861e-01    2.518193e-01
  8.455617e-01    2.994269e-01
  8.614373e-01    4.049312e-01
  8.773129e-01    4.680340e-01
  8.931884e-01    5.435358e-01
  9.090640e-01    6.016473e-01
  9.249396e-01    6.847598e-01
  9.408152e-01    6.916415e-01
  9.566907e-01    7.859235e-01
  9.725663e-01    9.110483e-01
  9.884419e-01    9.924818e-01
  1.004317e+00    1.025842e+00
  1.020193e+00    1.089415e+00
  1.036069e+00    1.203836e+00
  1.051944e+00    1.219960e+00
  1.067820e+00    1.295784e+00
  1.083695e+00    1.296419e+00
  1.099571e+00    1.396698e+00
  1.115446e+00    1.530820e+00
  1.131322e+00    1.442099e+00
  1.147198e+00    1.449366e+00
  1.163073e+00    1.484835e+00
  1.178949e+00    1.583045e+00
  1.194824e+00    1.674564e+00
  1.210700e+00    1.731199e+00
  1.226575e+00    1.968204e+00
  1.242451e+00    1.990644e+00
  1.258327e+00    2.191095e+00
  1.274202e+00    2.300699e+00
  1.290078e+00    2.390997e+00
  1.305953e+00    2.417891e+00
  1.321829e+00    2.428027e+00
  1.337705e+00    2.462111e+00
  1.353580e+00    2.448230e+00
  1.369456e+00    2.518487e+00
  1.385331e+00    2.613101e+00
  1.401207e+00    2.539187e+00
  1.417082e+00    2.467998e+00
  1.432958e+00    2.583017e+00
  1.448834e+00    2.645514e+00
  1.464709e+00    2.657289e+00
  1.480585e+00    2.703925e+00
  1.496460e+00    2.713753e+00
  1.512336e+00    2.750838e+00
  1.528211e+00    2.867838e+00
  1.544087e+00    2.948132e+00
  1.559963e+00    3.009940e+00
  1.575838e+00    2.913338e+00
  1.591714e+00    2.776782e+00
  1.607589e+00    2.889889e+00
  1.623465e+00    2.872556e+00
  1.639340e+00    2.833737e+00
  1.655216e+00    2.821556e+00
  1.671092e+00    2.724359e+00
  1.686967e+00    2.608116e+00
  1.702843e+00    2.643843e+00
  1.718718e+00    2.719008e+00
  1.734594e+00    2.820399e+00
  1.750469e+00    2.842696e+00
  1.766345e+00    2.711405e+00
  1.782221e+00    2.582670e+00
  1.798096e+00    2.663812e+00
  1.813972e+00    2.758215e+00
  1.829847e+00    2.748520e+00
  1.845723e+00    2.698130e+00
  1.861598e+00    2.626268e+00
  1.877474e+00    2.619575e+00
  1.893350e+00    2.608440e+00
  1.909225e+00    2.665662e+00
  1.925101e+00    2.681712e+00
  1.940976e+00    2.709245e+00
  1.956852e+00    2.769474e+00
  1.972727e+00    2.776409e+00
  1.988603e+00    2.763494e+00
  2.004479e+00    2.764570e+00
  2.020354e+00    2.699618e+00
  2.036230e+00    2.636619e+00
  2.052105e+00    2.702275e+00
  2.067981e+00    2.763517e+00
  2.083856e+00    2.710826e+00
  2.099732e+00    2.724717e+00
  2.115608e+00    2.777418e+00
  2.131483e+00    2.799747e+00
  2.147359e+00    2.752322e+00
  2.163234e+00    2.696525e+00
  2.179110e+00    2.763637e+00
  2.194985e+00    2.786901e+00
  2.210861e+00    2.783595e+00
  2.226737e+00    2.798179e+00
  2.242612e+00    2.746099e+00
  2.258488e+00    2.714603e+00
  2.274363e+00    2.721932e+00
  2.290239e+00    2.753483e+00
  2.306115e+00    2.740458e+00
  2.321990e+00    2.752884e+00
  2.337866e+00    2.725812e+00
  2.353741e+00    2.727249e+00
  2.369617e+00    2.780206e+00
  2.385492e+00    2.709408e+00
  2.401368e+00    2.755828e+00
  2.417244e+00    2.799948e+00
  2.433119e+00    2.810970e+00
  2.448995e+00    2.772837e+00
  2.464870e+00    2.759242e+00
  2.480746e+00    2.767694e+00
  2.496621e+00    2.777923e+00
  2.512497e+00    2.822982e+00
  2.528373e+00    2.790860e+00
  2.544248e+00    2.799386e+00
  2.560124e+00    2.710743e+00
  2.575999e+00    2.709962e+00
  2.591875e+00    2.703056e+00
  2.607750e+00    2.824135e+00
  2.623626e+00    2.840347e+00
  2.639502e+00    2.819928e+00
  2.655377e+00    2.773669e+00
  2.671253e+00    2.873841e+00
  2.687128e+00    2.781260e+00
  2.703004e+00    2.804571e+00
  2.718879e+00    2.841213e+00
  2.734755e+00    2.818230e+00
  2.750631e+00    2.825562e+00
  2.766506e+00    2.847512e+00
  2.782382e+00    2.991169e+00
  2.798257e+00    2.806642e+00
  2.814133e+00    2.721347e+00
  2.830008e+00    2.864767e+00
  2.845884e+00    2.919415e+00
  2.861760e+00    2.945928e+00
  2.877635e+00    2.871945e+00
  2.893511e+00    2.785407e+00
  2.909386e+00    2.827092e+00
  2.925262e+00    2.739340e+00
  2.941137e+00    2.779679e+00
  2.957013e+00    2.851824e+00
  2.972889e+00    2.954833e+00
  2.988764e+00    3.022293e+00
  3.004640e+00    2.962938e+00
  3.020515e+00    2.812168e+00
  3.036391e+00    2.872755e+00
  3.052266e+00    3.009679e+00
  3.068142e+00    2.955324e+00
  3.084018e+00    2.848946e+00
  3.099893e+00    2.816433e+00
  3.115769e+00    2.893338e+00
  3.131644e+00    2.962251e+00
  3.147520e+00    2.970783e+00
  3.163395e+00    2.848663e+00
  3.179271e+00    2.925123e+00
  3.195147e+00    2.945892e+00
  3.211022e+00    2.895525e+00
  3.226898e+00    2.890384e+00
  3.242773e+00    2.997192e+00
  3.258649e+00    2.967560e+00
  3.274525e+00    2.840553e+00
  3.290400e+00    2.814338e+00
  3.306276e+00    2.903647e+00
  3.322151e+00    2.958341e+00
  3.338027e+00    2.939473e+00
  3.353902e+00    2.995503e+00
  3.369778e+00    2.996443e+00
  3.385654e+00    2.917442e+00
  3.401529e+00    2.989563e+00
  3.417405e+00    3.060901e+00
  3.433280e+00    3.041425e+00
  3.449156e+00    2.987770e+00
  3.465031e+00    2.964571e+00
  3.480907e+00    3.009701e+00
  3.496783e+00    3.004054e+00
  3.512658e+00    3.050074e+00
  3.528534e+00    3.012465e+00
  3.544409e+00    2.989180e+00
  3.560285e+00    2.994129e+00
  3.576160e+00    2.960350e+00
  3.592036e+00    2.926161e+00
  3.607912e+00    2.994747e+00
  3.623787e+00    3.072550e+00
  3.639663e+00    3.018834e+00
  3.655538e+00    3.025825e+00
  3.671414e+00    3.093421e+00
  3.687289e+00    3.053009e+00
  3.703165e+00    3.102807e+00
  3.719041e+00    3.058032e+00
  3.734916e+00    3.154569e+00
  3.750792e+00    3.073034e+00
  3.766667e+00    2.957969e+00
  3.782543e+00    2.999411e+00
  3.798418e+00    2.944455e+00
  3.814294e+00    3.048886e+00
  3.830170e+00    3.030324e+00
  3.846045e+00    2.953752e+00
  3.861921e+00    2.955222e+00
  3.877796e+00    3.045800e+00
  3.893672e+00    3.015959e+00
  3.909547e+00    3.076366e+00
  3.925423e+00    3.102812e+00
  3.941299e+00    3.030066e+00
  3.957174e+00    2.982979e+00
  3.973050e+00    2.987000e+00
  3.988925e+00    3.058976e+00
  4.004801e+00    3.113062e+00
  4.020676e+00    3.119289e+00
  4.036552e+00    3.130644e+00
  4.052428e+00    3.069167e+00
  4.068303e+00    3.063234e+00
  4.084179e+00    3.076683e+00
  4.100054e+00    3.095366e+00
  4.115930e+00    3.039929e+00
  4.131806e+00    3.016941e+00
  4.147681e+00    3.034651e+00
  4.163557e+00    3.003038e+00
  4.179432e+00    3.111882e+00
  4.195308e+00    3.074660e+00
  4.211183e+00    3.037160e+00
  4.227059e+00    3.063169e+00
  4.242935e+00    3.125803e+00
  4.258810e+00    3.082274e+00
  4.274686e+00    3.060119e+00
  4.290561e+00    3.119256e+00
  4.306437e+00    3.035377e+00
  4.322312e+00    3.008969e+00
  4.338188e+00    3.020000e+00
  4.354064e+00    3.029361e+00
  4.369939e+00    3.013101e+00
  4.385815e+00    3.073278e+00
  4.401690e+00    3.075593e+00
  4.417566e+00    3.075245e+00
  4.433441e+00    3.148281e+00
  4.449317e+00    3.196817e+00
  4.465193e+00    3.127913e+00
  4.481068e+00    3.127651e+00
  4.496944e+00    3.140523e+00
  4.512819e+00    3.135259e+00
  4.528695e+00    3.036683e+00
  4.544570e+00    2.970415e+00
  4.560446e+00    3.037490e+00
  4.576322e+00    3.111615e+00
  4.592197e+00    3.152569e+00
  4.608073e+00    3.109396e+00
  4.623948e+00    3.070727e+00
  4.639824e+00    3.165886e+00
  4.655699e+00    3.141532e+00
  4.671575e+00    3.131804e+00
  4.687451e+00    3.106978e+00
  4.703326e+00    3.098827e+00
  4.719202e+00    3.157234e+00
  4.735077e+00    3.150839e+00
  4.750953e+00    3.158023e+00
  4.766828e+00    3.132163e+00
  4.782704e+00    3.115339e+00
  4.798580e+00    3.141855e+00
  4.814455e+00    3.119496e+00
  4.830331e+00    3.136279e+00
  4.846206e+00    3.108868e+00
  4.862082e+00    3.018941e+00
  4.877957e+00    3.001233e+00
  4.893833e+00    3.112494e+00
  4.909709e+00    3.132814e+00
  4.925584e+00    3.095816e+00
  4.941460e+00    3.123410e+00
  4.957335e+00    3.159962e+00
  4.973211e+00    3.149182e+00
  4.989086e+00    3.141836e+00
  5.004962e+00    3.136804e+00
  5.020838e+00    3.126374e+00
  5.036713e+00    3.144354e+00
  5.052589e+00    3.189777e+00
  5.068464e+00    3.185527e+00
  5.084340e+00    3.141171e+00
  5.100216e+00    3.114665e+00
  5.116091e+00    3.179544e+00
  5.131967e+00    3.128060e+00
  5.147842e+00    3.138606e+00
  5.163718e+00    3.235645e+00
  5.179593e+00    3.195943e+00
  5.195469e+00    3.211130e+00
  5.211345e+00    3.190744e+00
  5.227220e+00    3.094055e+00
  5.243096e+00    3.114795e+00
  5.258971e+00    3.138022e+00
  5.274847e+00    3.174813e+00
  5.290722e+00    3.242067e+00
  5.306598e+00    3.149808e+00
  5.322474e+00    3.154689e+00
  5.338349e+00    3.162976e+00
  5.354225e+00    3.114155e+00
  5.370100e+00    3.089652e+00
  5.385976e+00    3.119875e+00
  5.401851e+00    3.155818e+00
  5.417727e+00    3.149485e+00
  5.433603e+00    3.158670e+00
  5.449478e+00    3.072321e+00
  5.465354e+00    3.006036e+00
  5.481229e+00    3.077889e+00
  5.497105e+00    3.125203e+00
  5.512980e+00    3.109655e+00
  5.528856e+00    3.055775e+00
  5.544732e+00    3.088453e+00
  5.560607e+00    3.174226e+00
  5.576483e+00    3.171280e+00
  5.592358e+00    3.211411e+00
  5.608234e+00    3.106524e+00
  5.624109e+00    3.021122e+00
  5.639985e+00    3.029845e+00
  5.655861e+00    3.083756e+00
  5.671736e+00    3.096689e+00
  5.687612e+00    3.092039e+00
  5.703487e+00    3.047880e+00
  5.719363e+00    3.025817e+00
  5.735238e+00    3.111825e+00
  5.751114e+00    3.147943e+00
  5.766990e+00    3.073594e+00
  5.782865e+00    3.055974e+00
  5.798741e+00    3.078524e+00
  5.814616e+00    3.029596e+00
  5.830492e+00    3.164663e+00
  5.846367e+00    3.149304e+00
  5.862243e+00    3.102540e+00
  5.878119e+00    3.087288e+00
  5.893994e+00    3.066362e+00
  5.909870e+00    3.010556e+00
  5.925745e+00    3.052517e+00
  5.941621e+00    3.049648e+00
  5.957497e+00    3.092914e+00
  5.973372e+00    3.039486e+00
  5.989248e+00    2.971445e+00
  6.005123e+00    3.063753e+00
  6.020999e+00    3.091108e+00
  6.036874e+00    3.005409e+00
  6.052750e+00    3.062525e+00
  6.068626e+00    3.103611e+00
  6.084501e+00    3.155345e+00
  6.100377e+00    3.062397e+00
  6.116252e+00    3.051659e+00
  6.132128e+00    3.064765e+00
  6.148003e+00    3.050396e+00
  6.163879e+00    3.111788e+00
  6.179755e+00    3.080772e+00
  6.195630e+00    3.080360e+00
  6.211506e+00    3.115240e+00
  6.227381e+00    3.059453e+00
  6.243257e+00    3.115029e+00
  6.259132e+00    3.073728e+00
  6.275008e+00    3.073568e+00
  6.290884e+00    3.124578e+00
  6.306759e+00    3.059756e+00
  6.322635e+00    3.084555e+00
  6.338510e+00    3.127376e+00
  6.354386e+00    3.167343e+00
  6.370261e+00    3.079010e+00
  6.386137e+00    3.077093e+00
  6.402013e+00    2.998854e+00
  6.417888e+00    3.029665e+00
  6.433764e+00    3.049217e+00
  6.449639e+00    3.134645e+00
  6.465515e+00    3.114448e+00
  6.481390e+00    3.036934e+00
  6.497266e+00    3.116848e+00
  6.513142e+00    3.068067e+00
  6.529017e+00    3.087616e+00
  6.544893e+00    3.093578e+00
  6.560768e+00    3.093779e+00
  6.576644e+00    3.044299e+00
  6.592519e+00    3.078487e+00
  6.608395e+00    3.117269e+00
  6.624271e+00    3.101683e+00
  6.640146e+00    3.005831e+00
  6.656022e+00    3.006382e+00
  6.671897e+00    2.996396e+00
  6.687773e+00    3.034281e+00
  6.703648e+00    3.078365e+00
  6.719524e+00    3.082074e+00
  6.735400e+00    3.124801e+00
  6.751275e+00    3.096320e+00
  6.767151e+00    3.042217e+00
  6.783026e+00    3.017768e+00
  6.798902e+00    3.079905e+00
  6.814777e+00    3.129906e+00
  6.830653e+00    3.096817e+00
  6.846529e+00    3.032356e+00
  6.862404e+00    3.036850e+00
  6.878280e+00    3.003681e+00
  6.894155e+00    2.967921e+00
  6.910031e+00    3.029875e+00
  6.925907e+00    3.094271e+00
  6.941782e+00    3.013617e+00
  6.957658e+00    3.068696e+00
  6.973533e+00    3.058259e+00
  6.989409e+00    3.085279e+00
  7.005284e+00    3.010503e+00
  7.021160e+00    3.046406e+00
  7.037036e+00    3.104037e+00
  7.052911e+00    3.087991e+00
  7.068787e+00    3.054136e+00
  7.084662e+00    3.040126e+00
  7.100538e+00    3.003147e+00
  7.116413e+00    3.044447e+00
  7.132289e+00    3.011044e+00
  7.148165e+00    3.070231e+00
  7.164040e+00    3.036953e+00
  7.179916e+00    2.998508e+00
  7.195791e+00    3.017689e+00
  7.211667e+00    2.982680e+00
  7.227542e+00    3.032444e+00
  7.243418e+00    3.059216e+00
  7.259294e+00    3.015099e+00
  7.275169e+00    3.006608e+00
  7.291045e+00    2.988152e+00
  7.306920e+00    2.997027e+00
  7.322796e+00    3.026869e+00
  7.338671e+00    2.999632e+00
  7.354547e+00    3.031624e+00
  7.370423e+00    3.063170e+00
  7.386298e+00    3.029087e+00
  7.402174e+00    3.002554e+00
  7.418049e+00    2.971204e+00
  7.433925e+00    2.964352e+00
  7.449800e+00    3.039398e+00
  7.465676e+00    3.016891e+00
  7.481552e+00    2.939213e+00
  7.497427e+00    2.905117e+00
  7.513303e+00    2.954315e+00
  7.529178e+00    2.950983e+00
  7.545054e+00    2.956172e+00
  7.560929e+00    2.987153e+00
  7.576805e+00    3.020238e+00
  7.592681e+00    2.978566e+00
  7.608556e+00    2.927456e+00
  7.624432e+00    2.991792e+00
  7.640307e+00    2.971535e+00
  7.656183e+00    3.006088e+00
  7.672058e+00    3.014241e+00
  7.687934e+00    3.019366e+00
  7.703810e+00    2.906065e+00
  7.719685e+00    2.876312e+00
  7.735561e+00    2.913403e+00
  7.751436e+00    2.899989e+00
  7.767312e+00    2.975292e+00
  7.783187e+00    2.952396e+00
  7.799063e+00    2.957752e+00
  7.814939e+00    2.929173e+00
  7.830814e+00    2.948199e+00
  7.846690e+00    2.981867e+00
  7.862565e+00    2.942319e+00
  7.878441e+00    2.930351e+00
  7.894317e+00    2.966782e+00
  7.910192e+00    2.934588e+00
  7.926068e+00    2.971818e+00
  7.941943e+00    2.972027e+00
  7.957819e+00    2.949774e+00
  7.973694e+00    2.983887e+00
  7.989570e+00    2.936653e+00
  8.005446e+00    2.962802e+00
  8.021321e+00    2.958105e+00
  8.037197e+00    2.953605e+00
  8.053072e+00    3.006489e+00
  8.068948e+00    2.991190e+00
  8.084823e+00    2.924422e+00
  8.100699e+00    2.895473e+00
  8.116575e+00    2.900254e+00
  8.132450e+00    2.978164e+00
  8.148326e+00    2.947895e+00
  8.164201e+00    3.002072e+00
  8.180077e+00    3.036250e+00
  8.195952e+00    2.971179e+00
  8.211828e+00    2.986326e+00
  8.227704e+00    3.022600e+00
  8.243579e+00    3.090110e+00
  8.259455e+00    3.015543e+00
  8.275330e+00    2.962681e+00
  8.291206e+00    2.968637e+00
  8.307081e+00    2.941756e+00
  8.322957e+00    2.960156e+00
  8.338833e+00    2.927607e+00
  8.354708e+00    2.958510e+00
  8.370584e+00    2.929377e+00
  8.386459e+00    2.888007e+00
  8.402335e+00    2.932217e+00
  8.418210e+00    2.885664e+00
  8.434086e+00    2.913339e+00
  8.449962e+00    2.891797e+00
  8.465837e+00    2.867498e+00
  8.481713e+00    2.925743e+00
  8.497588e+00    2.879730e+00
  8.513464e+00    2.870603e+00
  8.529339e+00    2.932391e+00
  8.545215e+00    2.996751e+00
  8.561091e+00    2.922458e+00
  8.576966e+00    2.878331e+00
  8.592842e+00    2.905932e+00
  8.608717e+00    2.891878e+00
  8.624593e+00    2.844752e+00
  8.640468e+00    2.835979e+00
  8.656344e+00    2.823086e+00
  8.672220e+00    2.887684e+00
  8.688095e+00    2.881209e+00
  8.703971e+00    2.837210e+00
  8.719846e+00    2.875734e+00
  8.735722e+00    2.930320e+00
  8.751598e+00    2.862560e+00
  8.767473e+00    2.863192e+00
  8.783349e+00    2.845462e+00
  8.799224e+00    2.856725e+00
  8.815100e+00    2.909362e+00
  8.830975e+00    2.902760e+00
  8.846851e+00    2.812975e+00
  8.862727e+00    2.754336e+00
  8.878602e+00    2.794926e+00
  8.894478e+00    2.831605e+00
  8.910353e+00    2.871590e+00
  8.926229e+00    2.905633e+00
  8.942104e+00    2.842666e+00
  8.957980e+00    2.886124e+00
  8.973856e+00    2.823468e+00
  8.989731e+00    2.810535e+00
  9.005607e+00    2.791347e+00
  9.021482e+00    2.801283e+00
  9.037358e+00    2.823889e+00
  9.053233e+00    2.807518e+00
  9.069109e+00    2.849245e+00
  9.084985e+00    2.814762e+00
  9.100860e+00    2.808212e+00
  9.116736e+00    2.814245e+00
  9.132611e+00    2.773654e+00
  9.148487e+00    2.816314e+00
  9.164362e+00    2.821118e+00
  9.180238e+00    2.786113e+00
  9.196114e+00    2.798276e+00
  9.211989e+00    2.790949e+00
  9.227865e+00    2.769029e+00
  9.243740e+00    2.722894e+00
  9.259616e+00    2.738145e+00
  9.275491e+00    2.777650e+00
  9.291367e+00    2.771630e+00
  9.307243e+00    2.800186e+00
  9.323118e+00    2.824524e+00
  9.338994e+00    2.809936e+00
  9.354869e+00    2.805559e+00
  9.370745e+00    2.777102e+00
  9.386620e+00    2.781738e+00
  9.402496e+00    2.859741e+00
  9.418372e+00    2.799655e+00
  9.434247e+00    2.777637e+00
  9.450123e+00    2.745290e+00
  9.465998e+00    2.708093e+00
  9.481874e+00    2.754102e+00
  9.497749e+00    2.809121e+00
  9.513625e+00    2.756993e+00
  9.529501e+00    2.740050e+00
  9.545376e+00    2.712808e+00
  9.561252e+00    2.738181e+00
  9.577127e+00    2.726175e+00
  9.593003e+00    2.731679e+00
  9.608878e+00    2.751176e+00
  9.624754e+00    2.826469e+00
  9.640630e+00    2.806193e+00
  9.656505e+00    2.776333e+00
  9.672381e+00    2.738428e+00
  9.688256e+00    2.741265e+00
  9.704132e+00    2.738611e+00
  9.720008e+00    2.689019e+00
  9.735883e+00    2.746139e+00
  9.751759e+00    2.752747e+00
  9.767634e+00    2.769775e+00
  9.783510e+00    2.744033e+00
  9.799385e+00    2.769169e+00
  9.815261e+00    2.724126e+00
  9.831137e+00    2.730215e+00
  9.847012e+00    2.732920e+00
  9.862888e+00    2.669940e+00
  9.878763e+00    2.681266e+00
  9.894639e+00    2.643077e+00
  9.910514e+00    2.677946e+00
  9.926390e+00    2.716361e+00
  9.942266e+00    2.708294e+00
  9.958141e+00    2.668178e+00
  9.974017e+00    2.661000e+00
  9.989892e+00    2.699909e+00
  1.000577e+01    2.723794e+00
  1.002164e+01    2.688219e+00
  1.003752e+01    2.645789e+00
  1.005339e+01    2.677732e+00
  1.006927e+01    2.658788e+00
  1.008515e+01    2.636709e+00
  1.010102e+01    2.715173e+00
  1.011690e+01    2.682255e+00
  1.013277e+01    2.697918e+00
  1.014865e+01    2.729410e+00
  1.016452e+01    2.685875e+00
  1.018040e+01    2.665062e+00
  1.019627e+01    2.670930e+00
  1.021215e+01    2.666479e+00
  1.022803e+01    2.689154e+00
  1.024390e+01    2.652081e+00
  1.025978e+01    2.622581e+00
  1.027565e+01    2.655915e+00
  1.029153e+01    2.686660e+00
  1.030740e+01    2.668867e+00
  1.032328e+01    2.624213e+00
  1.033915e+01    2.577673e+00
  1.035503e+01    2.639226e+00
  1.037091e+01    2.630367e+00
  1.038678e+01    2.622876e+00
  1.040266e+01    2.627934e+00
  1.041853e+01    2.608025e+00
  1.043441e+01    2.586831e+00
  1.045028e+01    2.648452e+00
  1.046616e+01    2.648677e+00
  1.048204e+01    2.591418e+00
  1.049791e+01    2.595291e+00
  1.051379e+01    2.550063e+00
  1.052966e+01    2.533391e+00
  1.054554e+01    2.600806e+00
  1.056141e+01    2.616087e+00
  1.057729e+01    2.624271e+00
  1.059316e+01    2.623041e+00
  1.060904e+01    2.586246e+00
  1.062492e+01    2.588842e+00
  1.064079e+01    2.593179e+00
  1.065667e+01    2.622227e+00
  1.067254e+01    2.546222e+00
  1.068842e+01    2.521834e+00
  1.070429e+01    2.529707e+00
  1.072017e+01    2.567791e+00
  1.073604e+01    2.594676e+00
  1.075192e+01    2.580510e+00
  1.076780e+01    2.568935e+00
  1.078367e+01    2.509346e+00
  1.079955e+01    2.538959e+00
  1.081542e+01    2.564280e+00
  1.083130e+01    2.528378e+00
  1.084717e+01    2.538706e+00
  1.086305e+01    2.541413e+00
  1.087892e+01    2.535368e+00
  1.089480e+01    2.482442e+00
  1.091068e+01    2.512181e+00
  1.092655e+01    2.534361e+00
  1.094243e+01    2.473092e+00
  1.095830e+01    2.498056e+00
  1.097418e+01    2.529164e+00
  1.099005e+01    2.506733e+00
  1.100593e+01    2.444817e+00
  1.102180e+01    2.514694e+00
  1.103768e+01    2.552978e+00
  1.105356e+01    2.509824e+00
  1.106943e+01    2.491508e+00
  1.108531e+01    2.507983e+00
  1.110118e+01    2.489605e+00
  1.111706e+01    2.440557e+00
  1.113293e+01    2.446626e+00
  1.114881e+01    2.501295e+00
  1.116468e+01    2.508896e+00
  1.118056e+01    2.484860e+00
  1.119644e+01    2.515636e+00
  1.121231e+01    2.480785e+00
  1.122819e+01    2.463857e+00
  1.124406e+01    2.487792e+00
  1.125994e+01    2.462065e+00
  1.127581e+01    2.472418e+00
  1.129169e+01    2.491135e+00
  1.130756e+01    2.511631e+00
  1.132344e+01    2.472261e+00
  1.133932e+01    2.446557e+00
  1.135519e+01    2.460253e+00
  1.137107e+01    2.405521e+00
  1.138694e+01    2.434254e+00
  1.140282e+01    2.455244e+00
  1.141869e+01    2.426498e+00
  1.143457e+01    2.423548e+00
  1.145045e+01    2.408111e+00
  1.146632e+01    2.418597e+00
  1.148220e+01    2.439547e+00
  1.149807e+01    2.434487e+00
  1.151395e+01    2.454205e+00
  1.152982e+01    2.415892e+00
  1.154570e+01    2.420326e+00
  1.156157e+01    2.385302e+00
  1.157745e+01    2.396071e+00
  1.159333e+01    2.375880e+00
  1.160920e+01    2.354066e+00
  1.162508e+01    2.379256e+00
  1.164095e+01    2.418917e+00
  1.165683e+01    2.401960e+00
  1.167270e+01    2.384784e+00
  1.168858e+01    2.377774e+00
  1.170445e+01    2.425935e+00
  1.172033e+01    2.437434e+00
  1.173621e+01    2.374880e+00
  1.175208e+01    2.379510e+00
  1.176796e+01    2.329772e+00
  1.178383e+01    2.349590e+00
  1.179971e+01    2.394383e+00
  1.181558e+01    2.331824e+00
  1.183146e+01    2.349134e+00
  1.184733e+01    2.379425e+00
  1.186321e+01    2.377308e+00
  1.187909e+01    2.346592e+00
  1.189496e+01    2.347996e+00
  1.191084e+01    2.363748e+00
  1.192671e+01    2.404462e+00
  1.194259e+01    2.385387e+00
  1.195846e+01    2.351950e+00
  1.197434e+01    2.318668e+00
  1.199021e+01    2.337902e+00
  1.200609e+01    2.339523e+00
  1.202197e+01    2.336656e+00
  1.203784e+01    2.316093e+00
  1.205372e+01    2.342331e+00
  1.206959e+01    2.305963e+00
  1.208547e+01    2.324814e+00
  1.210134e+01    2.354335e+00
  1.211722e+01    2.338914e+00
  1.213309e+01    2.321822e+00
  1.214897e+01    2.330378e+00
  1.216485e+01    2.332277e+00
  1.218072e+01    2.343981e+00
  1.219660e+01    2.380280e+00
  1.221247e+01    2.319195e+00
  1.222835e+01    2.298500e+00
  1.224422e+01    2.291642e+00
  1.226010e+01    2.355552e+00
  1.227597e+01    2.316102e+00
  1.229185e+01    2.306637e+00
  1.230773e+01    2.313238e+00
  1.232360e+01    2.311319e+00
  1.233948e+01    2.350506e+00
  1.235535e+01    2.380436e+00
  1.237123e+01    2.337501e+00
  1.238710e+01    2.316592e+00
  1.240298e+01    2.314824e+00
  1.241886e+01    2.290896e+00
  1.243473e+01    2.333006e+00
  1.245061e+01    2.336382e+00
  1.246648e+01    2.320488e+00
  1.248236e+01    2.361536e+00
  1.249823e+01    2.369219e+00
  1.251411e+01    2.351444e+00
  1.252998e+01    2.379685e+00
  1.254586e+01    2.372727e+00
  1.256174e+01    2.407903e+00
  1.257761e+01    2.431435e+00
  1.259349e+01    2.370606e+00
  1.260936e+01    2.396701e+00
  1.262524e+01    2.360619e+00
  1.264111e+01    2.406870e+00
  1.265699e+01    2.433484e+00
  1.267286e+01    2.443913e+00
  1.268874e+01    2.399349e+00
  1.270462e+01    2.457307e+00
  1.272049e+01    2.496494e+00
  1.273637e+01    2.521135e+00
  1.275224e+01    2.524952e+00
  1.276812e+01    2.553786e+00
  1.278399e+01    2.592585e+00
  1.279987e+01    2.612621e+00
  1.281574e+01    2.706118e+00
  1.283162e+01    2.775913e+00
  1.284750e+01    2.821871e+00
  1.286337e+01    2.899241e+00
  1.287925e+01    2.962871e+00
  1.289512e+01    3.149460e+00
  1.291100e+01    3.278772e+00
  1.292687e+01    3.453790e+00
  1.294275e+01    3.711379e+00
  1.295862e+01    3.981105e+00
  1.297450e+01    4.383739e+00
  1.299038e+01    4.896664e+00
  1.300625e+01    5.442909e+00
  1.302213e+01    6.125722e+00
  1.303800e+01    7.076753e+00
  1.305388e+01    8.146866e+00
  1.306975e+01    9.420839e+00
  1.308563e+01    1.065463e+01
  1.310150e+01    1.186825e+01
  1.311738e+01    1.300011e+01
  1.313326e+01    1.407031e+01
  1.314913e+01    1.488769e+01
  1.316501e+01    1.560445e+01
  1.318088e+01    1.596189e+01
  1.319676e+01    1.543979e+01
  1.321263e+01    1.412627e+01
  1.322851e+01    1.232897e+01
  1.324438e+01    1.044030e+01
  1.326026e+01    8.763510e+00
  1.327614e+01    7.423198e+00
  1.329201e+01    6.482455e+00
  1.330789e+01    5.668869e+00
  1.332376e+01    5.001564e+00
  1.333964e+01    4.468920e+00
  1.335551e+01    4.055726e+00
  1.337139e+01    3.771950e+00
  1.338727e+01    3.518720e+00
  1.340314e+01    3.326210e+00
  1.341902e+01    3.163946e+00
  1.343489e+01    3.048586e+00
  1.345077e+01    2.865721e+00
  1.346664e+01    2.767277e+00
  1.348252e+01    2.681068e+00
  1.349839e+01    2.609684e+00
  1.351427e+01    2.584294e+00
  1.353015e+01    2.519669e+00
  1.354602e+01    2.481495e+00
  1.356190e+01    2.430649e+00
  1.357777e+01    2.382737e+00
  1.359365e+01    2.327118e+00
  1.360952e+01    2.279513e+00
  1.362540e+01    2.318529e+00
  1.364127e+01    2.279675e+00
  1.365715e+01    2.317824e+00
  1.367303e+01    2.297215e+00
  1.368890e+01    2.244943e+00
  1.370478e+01    2.192586e+00
  1.372065e+01    2.184214e+00
  1.373653e+01    2.156584e+00
  1.375240e+01    2.177527e+00
  1.376828e+01    2.175753e+00
  1.378415e+01    2.200718e+00
  1.380003e+01    2.253421e+00
  1.381591e+01    2.197238e+00
  1.383178e+01    2.190764e+00
  1.384766e+01    2.186586e+00
  1.386353e+01    2.137802e+00
  1.387941e+01    2.129519e+00
  1.389528e+01    2.089880e+00
  1.391116e+01    2.099947e+00
  1.392703e+01    2.097525e+00
  1.394291e+01    2.058616e+00
  1.395879e+01    2.036988e+00
  1.397466e+01    2.085801e+00
  1.399054e+01    2.093785e+00
  1.400641e+01    2.055964e+00
  1.402229e+01    2.072987e+00
  1.403816e+01    2.054720e+00
  1.405404e+01    2.026430e+00
  1.406991e+01    2.035176e+00
  1.408579e+01    2.030535e+00
  1.410167e+01    2.015043e+00
  1.411754e+01    2.010072e+00
  1.413342e+01    2.015955e+00
  1.414929e+01    2.032199e+00
  1.416517e+01    2.055616e+00
  1.418104e+01    2.039373e+00
  1.419692e+01    2.023620e+00
  1.421279e+01    1.991877e+00
  1.422867e+01    1.982456e+00
  1.424455e+01    1.999479e+00
  1.426042e+01    1.967343e+00
  1.427630e+01    1.954174e+00
  1.429217e+01    1.932252e+00
  1.430805e+01    1.943131e+00
  1.432392e+01    1.956021e+00
  1.433980e+01    1.944237e+00
  1.435568e+01    1.955892e+00
  1.437155e+01    1.938980e+00
  1.438743e+01    1.933322e+00
  1.440330e+01    1.963473e+00
  1.441918e+01    2.003671e+00
  1.443505e+01    1.980347e+00
  1.445093e+01    1.922413e+00
  1.446680e+01    1.887105e+00
  1.448268e+01    1.902652e+00
  1.449856e+01    1.921660e+00
  1.451443e+01    1.908763e+00
  1.453031e+01    1.941239e+00
  1.454618e+01    1.912096e+00
  1.456206e+01    1.934879e+00
  1.457793e+01    1.920247e+00
  1.459381e+01    1.932991e+00
  1.460968e+01    1.926831e+00
  1.462556e+01    1.925481e+00
  1.464144e+01    1.935455e+00
  1.465731e+01    1.973882e+00
  1.467319e+01    1.897689e+00
  1.468906e+01    1.907834e+00
  1.470494e+01    1.962288e+00
  1.472081e+01    1.959430e+00
  1.473669e+01    1.933130e+00
  1.475256e+01    1.946036e+00
  1.476844e+01    1.921785e+00
  1.478432e+01    1.896556e+00
  1.480019e+01    1.903915e+00
  1.481607e+01    1.919465e+00
  1.483194e+01    1.921196e+00
  1.484782e+01    1.911925e+00
  1.486369e+01    1.898965e+00
  1.487957e+01    1.939847e+00
  1.489544e+01    1.959817e+00
  1.491132e+01    1.966025e+00
  1.492720e+01    1.990161e+00
  1.494307e+01    1.984155e+00
  1.495895e+01    2.029175e+00
  1.497482e+01    2.048095e+00
  1.499070e+01    2.081064e+00
  1.500657e+01    2.134672e+00
  1.502245e+01    2.238286e+00
  1.503832e+01    2.349936e+00
  1.505420e+01    2.400707e+00
  1.507008e+01    2.519360e+00
  1.508595e+01    2.695238e+00
  1.510183e+01    2.893277e+00
  1.511770e+01    3.120289e+00
  1.513358e+01    3.431078e+00
  1.514945e+01    3.807676e+00
  1.516533e+01    4.187840e+00
  1.518120e+01    4.500362e+00
  1.519708e+01    4.801486e+00
  1.521296e+01    5.092557e+00
  1.522883e+01    5.278004e+00
  1.524471e+01    5.397739e+00
  1.526058e+01    5.514963e+00
  1.527646e+01    5.466633e+00
  1.529233e+01    5.243616e+00
  1.530821e+01    4.906034e+00
  1.532409e+01    4.400404e+00
  1.533996e+01    3.971492e+00
  1.535584e+01    3.552406e+00
  1.537171e+01    3.163580e+00
  1.538759e+01    2.878864e+00
  1.540346e+01    2.668018e+00
  1.541934e+01    2.477787e+00
  1.543521e+01    2.332271e+00
  1.545109e+01    2.241068e+00
  1.546697e+01    2.171388e+00
  1.548284e+01    2.108034e+00
  1.549872e+01    2.033146e+00
  1.551459e+01    1.982043e+00
  1.553047e+01    1.920902e+00
  1.554634e+01    1.903285e+00
  1.556222e+01    1.897799e+00
  1.557809e+01    1.868214e+00
  1.559397e+01    1.856906e+00
  1.560985e+01    1.802762e+00
  1.562572e+01    1.782106e+00
  1.564160e+01    1.788628e+00
  1.565747e+01    1.759239e+00
  1.567335e+01    1.765922e+00
  1.568922e+01    1.775262e+00
  1.570510e+01    1.756287e+00
  1.572097e+01    1.715406e+00
  1.573685e+01    1.726622e+00
  1.575273e+01    1.720253e+00
  1.576860e+01    1.705337e+00
  1.578448e+01    1.671912e+00
  1.580035e+01    1.656545e+00
  1.581623e+01    1.675486e+00
  1.583210e+01    1.671461e+00
  1.584798e+01    1.686056e+00
  1.586385e+01    1.670731e+00
  1.587973e+01    1.661192e+00
  1.589561e+01    1.652519e+00
  1.591148e+01    1.650851e+00
  1.592736e+01    1.625878e+00
  1.594323e+01    1.641422e+00
  1.595911e+01    1.654104e+00
  1.597498e+01    1.631538e+00
  1.599086e+01    1.624379e+00
  1.600673e+01    1.673319e+00
  1.602261e+01    1.634340e+00
  1.603849e+01    1.624008e+00
  1.605436e+01    1.618806e+00
  1.607024e+01    1.605166e+00
  1.608611e+01    1.599205e+00
  1.610199e+01    1.636487e+00
  1.611786e+01    1.584799e+00
  1.613374e+01    1.578331e+00
  1.614961e+01    1.579817e+00
  1.616549e+01    1.552462e+00
  1.618137e+01    1.582728e+00
  1.619724e+01    1.615583e+00
  1.621312e+01    1.558652e+00
  1.622899e+01    1.580988e+00
  1.624487e+01    1.609351e+00
  1.626074e+01    1.579048e+00
  1.627662e+01    1.562042e+00
  1.629250e+01    1.563183e+00
  1.630837e+01    1.550359e+00
  1.632425e+01    1.558518e+00
  1.634012e+01    1.557234e+00
  1.635600e+01    1.567152e+00
  1.637187e+01    1.571077e+00
  1.638775e+01    1.554705e+00
  1.640362e+01    1.519581e+00
  1.641950e+01    1.554273e+00
  1.643538e+01    1.563973e+00
  1.645125e+01    1.513515e+00
  1.646713e+01    1.534971e+00
  1.648300e+01    1.534426e+00
  1.649888e+01    1.520650e+00
  1.651475e+01    1.535295e+00
  1.653063e+01    1.518076e+00
  1.654650e+01    1.525651e+00
  1.656238e+01    1.525936e+00
  1.657826e+01    1.538425e+00
  1.659413e+01    1.539149e+00
  1.661001e+01    1.522164e+00
  1.662588e+01    1.499734e+00
  1.664176e+01    1.507843e+00
  1.665763e+01    1.490469e+00
  1.667351e+01    1.479042e+00
  1.668938e+01    1.500710e+00
  1.670526e+01    1.525446e+00
  1.672114e+01    1.477677e+00
  1.673701e+01    1.496174e+00
  1.675289e+01    1.490895e+00
  1.676876e+01    1.472856e+00
  1.678464e+01    1.442378e+00
  1.680051e+01    1.456286e+00
  1.681639e+01    1.493246e+00
  1.683226e+01    1.483159e+00
  1.684814e+01    1.478342e+00
  1.686402e+01    1.463123e+00
  1.687989e+01    1.459346e+00
  1.689577e+01    1.454925e+00
  1.691164e+01    1.455450e+00
  1.692752e+01    1.423931e+00
  1.694339e+01    1.435940e+00
  1.695927e+01    1.438162e+00
  1.697514e+01    1.459462e+00
  1.699102e+01    1.459332e+00
  1.700690e+01    1.443156e+00
  1.702277e+01    1.418968e+00
  1.703865e+01    1.449124e+00
  1.705452e+01    1.458776e+00
  1.707040e+01    1.448728e+00
  1.708627e+01    1.437978e+00
  1.710215e+01    1.471616e+00
  1.711802e+01    1.437890e+00
  1.713390e+01    1.425960e+00
  1.714978e+01    1.429379e+00
  1.716565e+01    1.415899e+00
  1.718153e+01    1.402761e+00
  1.719740e+01    1.386141e+00
  1.721328e+01    1.408519e+00
  1.722915e+01    1.397467e+00
  1.724503e+01    1.400622e+00
  1.726091e+01    1.425446e+00
  1.727678e+01    1.413399e+00
  1.729266e+01    1.418595e+00
  1.730853e+01    1.422750e+00
  1.732441e+01    1.402906e+00
  1.734028e+01    1.367116e+00
  1.735616e+01    1.388516e+00
  1.737203e+01    1.376349e+00
  1.738791e+01    1.389864e+00
  1.740379e+01    1.394430e+00
  1.741966e+01    1.368643e+00
  1.743554e+01    1.365864e+00
  1.745141e+01    1.364696e+00
  1.746729e+01    1.366851e+00
  1.748316e+01    1.391168e+00
  1.749904e+01    1.373736e+00
  1.751491e+01    1.373674e+00
  1.753079e+01    1.360779e+00
  1.754667e+01    1.349262e+00
  1.756254e+01    1.372888e+00
  1.757842e+01    1.380484e+00
  1.759429e+01    1.375805e+00
  1.761017e+01    1.349379e+00
  1.762604e+01    1.353627e+00
  1.764192e+01    1.326035e+00
  1.765779e+01    1.323316e+00
  1.767367e+01    1.346457e+00
  1.768955e+01    1.337722e+00
  1.770542e+01    1.344242e+00
  1.772130e+01    1.345376e+00
  1.773717e+01    1.334425e+00
  1.775305e+01    1.320755e+00
  1.776892e+01    1.334448e+00
  1.778480e+01    1.300755e+00
  1.780067e+01    1.332885e+00
  1.781655e+01    1.356156e+00
  1.783243e+01    1.324395e+00
  1.784830e+01    1.323298e+00
  1.786418e+01    1.331525e+00
  1.788005e+01    1.329995e+00
  1.789593e+01    1.329002e+00
  1.791180e+01    1.326871e+00
  1.792768e+01    1.294721e+00
  1.794355e+01    1.297670e+00
  1.795943e+01    1.311370e+00
  1.797531e+01    1.334035e+00
  1.799118e+01    1.335192e+00
  1.800706e+01    1.302039e+00
  1.802293e+01    1.299421e+00
  1.803881e+01    1.285839e+00
  1.805468e+01    1.290202e+00
  1.807056e+01    1.296045e+00
  1.808643e+01    1.311084e+00
  1.810231e+01    1.286000e+00
  1.811819e+01    1.279904e+00
  1.813406e+01    1.277950e+00
  1.814994e+01    1.285339e+00
  1.816581e+01    1.294943e+00
  1.818169e+01    1.298063e+00
  1.819756e+01    1.284955e+00
  1.821344e+01    1.283395e+00
  1.822932e+01    1.296646e+00
  1.824519e+01    1.284234e+00
  1.826107e+01    1.256249e+00
  1.827694e+01    1.303205e+00
  1.829282e+01    1.282896e+00
  1.830869e+01    1.279907e+00
  1.832457e+01    1.294079e+00
  1.834044e+01    1.284168e+00
  1.835632e+01    1.277586e+00
  1.837220e+01    1.253160e+00
  1.838807e+01    1.277472e+00
  1.840395e+01    1.290046e+00
  1.841982e+01    1.266303e+00
  1.843570e+01    1.265003e+00
  1.845157e+01    1.285761e+00
  1.846745e+01    1.292214e+00
  1.848332e+01    1.264211e+00
  1.849920e+01    1.252813e+00
  1.851508e+01    1.242725e+00
  1.853095e+01    1.226856e+00
  1.854683e+01    1.234103e+00
  1.856270e+01    1.265002e+00
  1.857858e+01    1.244028e+00
  1.859445e+01    1.236620e+00
  1.861033e+01    1.264627e+00
  1.862620e+01    1.243082e+00
  1.864208e+01    1.249969e+00
  1.865796e+01    1.236988e+00
  1.867383e+01    1.247553e+00
  1.868971e+01    1.246599e+00
  1.870558e+01    1.230137e+00
  1.872146e+01    1.232129e+00
  1.873733e+01    1.243756e+00
  1.875321e+01    1.235847e+00
  1.876908e+01    1.209240e+00
  1.878496e+01    1.207454e+00
  1.880084e+01    1.205855e+00
  1.881671e+01    1.210698e+00
  1.883259e+01    1.206893e+00
  1.884846e+01    1.209980e+00
  1.886434e+01    1.195454e+00
  1.888021e+01    1.247068e+00
  1.889609e+01    1.235307e+00
  1.891196e+01    1.214053e+00
  1.892784e+01    1.236234e+00
  1.894372e+01    1.220617e+00
  1.895959e+01    1.191672e+00
  1.897547e+01    1.200129e+00
  1.899134e+01    1.203014e+00
  1.900722e+01    1.195574e+00
  1.902309e+01    1.184791e+00
  1.903897e+01    1.184201e+00
  1.905484e+01    1.196221e+00
  1.907072e+01    1.213787e+00
  1.908660e+01    1.197383e+00
  1.910247e+01    1.179489e+00
  1.911835e+01    1.169904e+00
  1.913422e+01    1.215296e+00
  1.915010e+01    1.211722e+00
  1.916597e+01    1.187434e+00
  1.918185e+01    1.190925e+00
  1.919773e+01    1.189603e+00
  1.921360e+01    1.185643e+00
  1.922948e+01    1.178689e+00
  1.924535e+01    1.179501e+00
  1.926123e+01    1.182233e+00
  1.927710e+01    1.207915e+00
  1.929298e+01    1.205113e+00
  1.930885e+01    1.169445e+00
  1.932473e+01    1.179471e+00
  1.934061e+01    1.190730e+00
  1.935648e+01    1.188995e+00
  1.937236e+01    1.155594e+00
  1.938823e+01    1.169570e+00
  1.940411e+01    1.157811e+00
  1.941998e+01    1.175861e+00
  1.943586e+01    1.172764e+00
  1.945173e+01    1.168442e+00
  1.946761e+01    1.172049e+00
  1.948349e+01    1.183826e+00
  1.949936e+01    1.182891e+00
  1.951524e+01    1.173824e+00
  1.953111e+01    1.150934e+00
  1.954699e+01    1.162717e+00
  1.956286e+01    1.144349e+00
  1.957874e+01    1.167074e+00
  1.959461e+01    1.140292e+00
  1.961049e+01    1.159766e+00
  1.962637e+01    1.160650e+00
  1.964224e+01    1.159832e+00
  1.965812e+01    1.152279e+00
  1.967399e+01    1.150106e+00
  1.968987e+01    1.157572e+00
  1.970574e+01    1.144579e+00
  1.972162e+01    1.131462e+00
  1.973749e+01    1.131756e+00
  1.975337e+01    1.134058e+00
  1.976925e+01    1.134551e+00
  1.978512e+01    1.118935e+00
  1.980100e+01    1.124419e+00
  1.981687e+01    1.127525e+00
  1.983275e+01    1.135473e+00
  1.984862e+01    1.138651e+00
  1.986450e+01    1.120983e+00
  1.988037e+01    1.120939e+00
  1.989625e+01    1.119637e+00
  1.991213e+01    1.129676e+00
  1.992800e+01    1.113920e+00
  1.994388e+01    1.128211e+00
  1.995975e+01    1.131599e+00
  1.997563e+01    1.108174e+00
  1.999150e+01    1.126459e+00
  2.000738e+01    1.115037e+00
  2.002325e+01    1.120823e+00
  2.003913e+01    1.107360e+00
  2.005501e+01    1.113358e+00
  2.007088e+01    1.119312e+00
  2.008676e+01    1.096850e+00
  2.010263e+01    1.098319e+00
  2.011851e+01    1.085378e+00
  2.013438e+01    1.104034e+00
  2.015026e+01    1.115525e+00
  2.016614e+01    1.114980e+00
  2.018201e+01    1.105916e+00
  2.019789e+01    1.079571e+00
  2.021376e+01    1.082427e+00
  2.022964e+01    1.100235e+00
  2.024551e+01    1.142806e+00
  2.026139e+01    1.123615e+00
  2.027726e+01    1.114378e+00
  2.029314e+01    1.091961e+00
  2.030902e+01    1.095084e+00
  2.032489e+01    1.085371e+00
  2.034077e+01    1.096256e+00
  2.035664e+01    1.092529e+00
  2.037252e+01    1.102160e+00
  2.038839e+01    1.124904e+00
  2.040427e+01    1.105076e+00
  2.042014e+01    1.088882e+00
  2.043602e+01    1.106677e+00
  2.045190e+01    1.098160e+00
  2.046777e+01    1.090275e+00
  2.048365e+01    1.082466e+00
  2.049952e+01    1.086268e+00
  2.051540e+01    1.089455e+00
  2.053127e+01    1.090888e+00
  2.054715e+01    1.088536e+00
  2.056302e+01    1.081666e+00
  2.057890e+01    1.090922e+00
  2.059478e+01    1.094400e+00
  2.061065e+01    1.065430e+00
  2.062653e+01    1.054340e+00
  2.064240e+01    1.076875e+00
  2.065828e+01    1.080154e+00
  2.067415e+01    1.053221e+00
  2.069003e+01    1.089332e+00
  2.070590e+01    1.063078e+00
  2.072178e+01    1.082452e+00
  2.073766e+01    1.082274e+00
  2.075353e+01    1.066048e+00
  2.076941e+01    1.069858e+00
  2.078528e+01    1.090963e+00
  2.080116e+01    1.077996e+00
  2.081703e+01    1.071711e+00
  2.083291e+01    1.090057e+00
  2.084878e+01    1.098717e+00
  2.086466e+01    1.094930e+00
  2.088054e+01    1.090633e+00
  2.089641e+01    1.086960e+00
  2.091229e+01    1.078250e+00
  2.092816e+01    1.106864e+00
  2.094404e+01    1.068748e+00
  2.095991e+01    1.052536e+00
  2.097579e+01    1.048759e+00
  2.099166e+01    1.068111e+00
  2.100754e+01    1.069365e+00
  2.102342e+01    1.075961e+00
  2.103929e+01    1.086476e+00
  2.105517e+01    1.065171e+00
  2.107104e+01    1.072325e+00
  2.108692e+01    1.070662e+00
  2.110279e+01    1.082464e+00
  2.111867e+01    1.068412e+00
  2.113455e+01    1.066528e+00
  2.115042e+01    1.086303e+00
  2.116630e+01    1.082875e+00
  2.118217e+01    1.098305e+00
  2.119805e+01    1.114066e+00
  2.121392e+01    1.112379e+00
  2.122980e+01    1.109160e+00
  2.124567e+01    1.096536e+00
  2.126155e+01    1.122917e+00
  2.127743e+01    1.135228e+00
  2.129330e+01    1.123630e+00
  2.130918e+01    1.131588e+00
  2.132505e+01    1.108518e+00
  2.134093e+01    1.127162e+00
  2.135680e+01    1.123935e+00
  2.137268e+01    1.168582e+00
  2.138855e+01    1.179637e+00
  2.140443e+01    1.159833e+00
  2.142031e+01    1.202936e+00
  2.143618e+01    1.209447e+00
  2.145206e+01    1.194608e+00
  2.146793e+01    1.222097e+00
  2.148381e+01    1.240572e+00
  2.149968e+01    1.278723e+00
  2.151556e+01    1.316830e+00
  2.153143e+01    1.337497e+00
  2.154731e+01    1.342826e+00
  2.156319e+01    1.403541e+00
  2.157906e+01    1.489558e+00
  2.159494e+01    1.545131e+00
  2.161081e+01    1.586300e+00
  2.162669e+01    1.690318e+00
  2.164256e+01    1.831764e+00
  2.165844e+01    1.946382e+00
  2.167431e+01    2.103541e+00
  2.169019e+01    2.287668e+00
  2.170607e+01    2.571218e+00
  2.172194e+01    2.878739e+00
  2.173782e+01    3.278209e+00
  2.175369e+01    3.757277e+00
  2.176957e+01    4.289060e+00
  2.178544e+01    4.840046e+00
  2.180132e+01    5.502005e+00
  2.181719e+01    6.134157e+00
  2.183307e+01    6.768699e+00
  2.184895e+01    7.429555e+00
  2.186482e+01    8.019988e+00
  2.188070e+01    8.486260e+00
  2.189657e+01    8.735201e+00
  2.191245e+01    8.627636e+00
  2.192832e+01    8.200095e+00
  2.194420e+01    7.408138e+00
  2.196007e+01    6.509210e+00
  2.197595e+01    5.551682e+00
  2.199183e+01    4.710762e+00
  2.200770e+01    4.012350e+00
  2.202358e+01    3.486902e+00
  2.203945e+01    3.050364e+00
  2.205533e+01    2.656004e+00
  2.207120e+01    2.379128e+00
  2.208708e+01    2.175763e+00
  2.210296e+01    1.991896e+00
  2.211883e+01    1.839108e+00
  2.213471e+01    1.723499e+00
  2.215058e+01    1.599418e+00
  2.216646e+01    1.549338e+00
  2.218233e+01    1.468494e+00
  2.219821e+01    1.390128e+00
  2.221408e+01    1.332512e+00
  2.222996e+01    1.289613e+00
  2.224584e+01    1.247430e+00
  2.226171e+01    1.235446e+00
  2.227759e+01    1.211798e+00
  2.229346e+01    1.191517e+00
  2.230934e+01    1.172044e+00
  2.232521e+01    1.149459e+00
  2.234109e+01    1.127870e+00
  2.235696e+01    1.089133e+00
  2.237284e+01    1.094993e+00
  2.238872e+01    1.082550e+00
  2.240459e+01    1.059650e+00
  2.242047e+01    1.015396e+00
  2.243634e+01    1.023712e+00
  2.245222e+01    1.020854e+00
  2.246809e+01    1.050052e+00
  2.248397e+01    1.040181e+00
  2.249984e+01    1.013502e+00
  2.251572e+01    1.014985e+00
  2.253160e+01    1.023476e+00
  2.254747e+01    1.000624e+00
  2.256335e+01    9.943528e-01
  2.257922e+01    9.803134e-01
  2.259510e+01    9.969050e-01
  2.261097e+01    9.726762e-01
  2.262685e+01    9.472746e-01
  2.264272e+01    9.594821e-01
  2.265860e+01    9.544056e-01
  2.267448e+01    9.538313e-01
  2.269035e+01    9.634708e-01
  2.270623e+01    9.685416e-01
  2.272210e+01    9.702687e-01
  2.273798e+01    9.635811e-01
  2.275385e+01    9.576604e-01
  2.276973e+01    9.321452e-01
  2.278560e+01    9.246393e-01
  2.280148e+01    9.227683e-01
  2.281736e+01    9.360976e-01
  2.283323e+01    9.357269e-01
  2.284911e+01    9.368362e-01
  2.286498e+01    9.130347e-01
  2.288086e+01    9.036260e-01
  2.289673e+01    9.060355e-01
  2.291261e+01    8.978882e-01
  2.292848e+01    9.275447e-01
  2.294436e+01    9.029756e-01
  2.296024e+01    9.044203e-01
  2.297611e+01    9.045858e-01
  2.299199e+01    8.855662e-01
  2.300786e+01    8.933622e-01
  2.302374e+01    8.984185e-01
  2.303961e+01    8.748087e-01
  2.305549e+01    9.094798e-01
  2.307137e+01    9.001799e-01
  2.308724e+01    8.754534e-01
  2.310312e+01    8.757115e-01
  2.311899e+01    8.683764e-01
  2.313487e+01    8.640200e-01
  2.315074e+01    8.844872e-01
  2.316662e+01    8.959984e-01
  2.318249e+01    9.007516e-01
  2.319837e+01    8.945335e-01
  2.321425e+01    8.665216e-01
  2.323012e+01    8.629465e-01
  2.324600e+01    8.786268e-01
  2.326187e+01    8.796796e-01
  2.327775e+01    8.832482e-01
  2.329362e+01    8.807134e-01
  2.330950e+01    8.593979e-01
  2.332537e+01    8.720905e-01
  2.334125e+01    8.698936e-01
  2.335713e+01    8.496671e-01
  2.337300e+01    8.669573e-01
  2.338888e+01    8.710980e-01
  2.340475e+01    8.450458e-01
  2.342063e+01    8.444664e-01
  2.343650e+01    8.466330e-01
  2.345238e+01    8.476312e-01
  2.346825e+01    8.673998e-01
  2.348413e+01    8.660791e-01
  2.350001e+01    8.522247e-01
  2.351588e+01    8.444300e-01
  2.353176e+01    8.345187e-01
  2.354763e+01    8.491603e-01
  2.356351e+01    8.352389e-01
  2.357938e+01    8.559833e-01
  2.359526e+01    8.577143e-01
  2.361113e+01    8.337556e-01
  2.362701e+01    8.506529e-01
  2.364289e+01    8.504137e-01
  2.365876e+01    8.348804e-01
  2.367464e+01    8.191496e-01
  2.369051e+01    8.198080e-01
  2.370639e+01    8.294765e-01
  2.372226e+01    8.290204e-01
  2.373814e+01    8.323076e-01
  2.375401e+01    8.345866e-01
  2.376989e+01    8.362324e-01
  2.378577e+01    8.250815e-01
  2.380164e+01    7.992850e-01
  2.381752e+01    7.849426e-01
  2.383339e+01    8.049303e-01
  2.384927e+01    8.041677e-01
  2.386514e+01    8.095939e-01
  2.388102e+01    8.182129e-01
  2.389689e+01    7.978508e-01
  2.391277e+01    7.719871e-01
  2.392865e+01    7.890255e-01
  2.394452e+01    7.865976e-01
  2.396040e+01    7.669286e-01
  2.397627e+01    7.799250e-01
  2.399215e+01    8.083612e-01
  2.400802e+01    8.057933e-01
  2.402390e+01    7.892852e-01
  2.403978e+01    7.933413e-01
  2.405565e+01    8.010187e-01
  2.407153e+01    7.982092e-01
  2.408740e+01    7.766114e-01
  2.410328e+01    7.863192e-01
  2.411915e+01    7.982709e-01
  2.413503e+01    7.864793e-01
  2.415090e+01    8.024147e-01
  2.416678e+01    7.872989e-01
  2.418266e+01    7.819716e-01
  2.419853e+01    7.737065e-01
  2.421441e+01    7.851307e-01
  2.423028e+01    7.848215e-01
  2.424616e+01    7.901562e-01
  2.426203e+01    7.780620e-01
  2.427791e+01    7.877405e-01
  2.429378e+01    7.785969e-01
  2.430966e+01    7.979192e-01
  2.432554e+01    7.936784e-01
  2.434141e+01    7.745591e-01
  2.435729e+01    7.728232e-01
  2.437316e+01    7.722453e-01
  2.438904e+01    7.759188e-01
  2.440491e+01    7.790646e-01
  2.442079e+01    7.859500e-01
  2.443666e+01    7.942732e-01
  2.445254e+01    7.871258e-01
  2.446842e+01    7.843581e-01
  2.448429e+01    7.726403e-01
  2.450017e+01    7.747861e-01
  2.451604e+01    7.721109e-01
  2.453192e+01    7.754763e-01
  2.454779e+01    7.908423e-01
  2.456367e+01    8.037491e-01
  2.457954e+01    7.873517e-01
  2.459542e+01    7.992165e-01
  2.461130e+01    7.894455e-01
  2.462717e+01    7.747172e-01
  2.464305e+01    7.871367e-01
  2.465892e+01    8.029699e-01
  2.467480e+01    7.836924e-01
  2.469067e+01    7.731130e-01
  2.470655e+01    7.952918e-01
  2.472242e+01    8.019902e-01
  2.473830e+01    7.862912e-01
  2.475418e+01    7.847432e-01
  2.477005e+01    7.925246e-01
  2.478593e+01    7.901224e-01
  2.480180e+01    7.837297e-01
  2.481768e+01    7.998648e-01
  2.483355e+01    7.965557e-01
  2.484943e+01    7.922528e-01
  2.486530e+01    8.016425e-01
  2.488118e+01    7.940860e-01
  2.489706e+01    8.078871e-01
  2.491293e+01    8.024259e-01
  2.492881e+01    7.824222e-01
  2.494468e+01    7.868024e-01
  2.496056e+01    7.859720e-01
  2.497643e+01    8.000061e-01
  2.499231e+01    8.036790e-01
  2.500819e+01    7.874446e-01
  2.502406e+01    8.089268e-01
  2.503994e+01    7.964764e-01
  2.505581e+01    7.954366e-01
  2.507169e+01    8.031124e-01
  2.508756e+01    8.070768e-01
  2.510344e+01    8.252686e-01
  2.511931e+01    8.198769e-01
  2.513519e+01    8.112053e-01
  2.515107e+01    8.081841e-01
  2.516694e+01    8.031716e-01
  2.518282e+01    7.951910e-01
  2.519869e+01    8.190980e-01
  2.521457e+01    8.176915e-01
  2.523044e+01    8.359854e-01
  2.524632e+01    8.261735e-01
  2.526219e+01    8.307381e-01
  2.527807e+01    8.607092e-01
  2.529395e+01    8.534670e-01
  2.530982e+01    8.463568e-01
  2.532570e+01    8.639114e-01
  2.534157e+01    8.650740e-01
  2.535745e+01    8.895137e-01
  2.537332e+01    8.853123e-01
  2.538920e+01    8.986220e-01
  2.540507e+01    9.027416e-01
  2.542095e+01    8.998042e-01
  2.543683e+01    9.209802e-01
  2.545270e+01    9.450487e-01
  2.546858e+01    9.484539e-01
  2.548445e+01    9.666477e-01
  2.550033e+01    9.626630e-01
  2.551620e+01    9.935356e-01
  2.553208e+01    1.021973e+00
  2.554795e+01    1.015185e+00
  2.556383e+01    1.033108e+00
  2.557971e+01    1.091934e+00
  2.559558e+01    1.109356e+00
  2.561146e+01    1.124549e+00
  2.562733e+01    1.161849e+00
  2.564321e+01    1.207157e+00
  2.565908e+01    1.256187e+00
  2.567496e+01    1.316178e+00
  2.569083e+01    1.390767e+00
  2.570671e+01    1.489836e+00
  2.572259e+01    1.600313e+00
  2.573846e+01    1.727373e+00
  2.575434e+01    1.878862e+00
  2.577021e+01    2.119240e+00
  2.578609e+01    2.389485e+00
  2.580196e+01    2.662075e+00
  2.581784e+01    3.029556e+00
  2.583371e+01    3.450707e+00
  2.584959e+01    3.900549e+00
  2.586547e+01    4.419827e+00
  2.588134e+01    4.996499e+00
  2.589722e+01    5.582416e+00
  2.591309e+01    6.143323e+00
  2.592897e+01    6.626196e+00
  2.594484e+01    6.949664e+00
  2.596072e+01    7.114508e+00
  2.597660e+01    7.033605e+00
  2.599247e+01    6.625224e+00
  2.600835e+01    6.029388e+00
  2.602422e+01    5.304900e+00
  2.604010e+01    4.575267e+00
  2.605597e+01    3.978033e+00
  2.607185e+01    3.401018e+00
  2.608772e+01    2.914749e+00
  2.610360e+01    2.571217e+00
  2.611948e+01    2.283431e+00
  2.613535e+01    2.012526e+00
  2.615123e+01    1.827137e+00
  2.616710e+01    1.708079e+00
  2.618298e+01    1.580116e+00
  2.619885e+01    1.481411e+00
  2.621473e+01    1.405381e+00
  2.623060e+01    1.315424e+00
  2.624648e+01    1.245667e+00
  2.626236e+01    1.206907e+00
  2.627823e+01    1.156434e+00
  2.629411e+01    1.115960e+00
  2.630998e+01    1.078982e+00
  2.632586e+01    1.047639e+00
  2.634173e+01    1.032772e+00
  2.635761e+01    1.017540e+00
  2.637348e+01    9.997730e-01
  2.638936e+01    9.563594e-01
  2.640524e+01    9.495557e-01
  2.642111e+01    9.625608e-01
  2.643699e+01    9.534001e-01
  2.645286e+01    9.377568e-01
  2.646874e+01    9.325067e-01
  2.648461e+01    9.198220e-01
  2.650049e+01    9.279298e-01
  2.651636e+01    9.278546e-01
  2.653224e+01    9.042860e-01
  2.654812e+01    8.927732e-01
  2.656399e+01    9.030767e-01
  2.657987e+01    9.019867e-01
  2.659574e+01    8.897643e-01
  2.661162e+01    9.071018e-01
  2.662749e+01    8.714487e-01
  2.664337e+01    8.714364e-01
  2.665924e+01    8.939471e-01
  2.667512e+01    8.688028e-01
  2.669100e+01    8.480681e-01
  2.670687e+01    8.803086e-01
  2.672275e+01    8.745449e-01
  2.673862e+01    8.824880e-01
  2.675450e+01    8.584318e-01
  2.677037e+01    8.622693e-01
  2.678625e+01    8.677209e-01
  2.680212e+01    8.625927e-01
  2.681800e+01    8.702235e-01
  2.683388e+01    8.989608e-01
  2.684975e+01    8.948228e-01
  2.686563e+01    8.762442e-01
  2.688150e+01    9.026226e-01
  2.689738e+01    9.000570e-01
  2.691325e+01    9.100568e-01
  2.692913e+01    9.178002e-01
  2.694501e+01    9.430563e-01
  2.696088e+01    9.491292e-01
  2.697676e+01    9.700547e-01
  2.699263e+01    9.865608e-01
  2.700851e+01    1.034270e+00
  2.702438e+01    1.065467e+00
  2.704026e+01    1.108957e+00
  2.705613e+01    1.164528e+00
  2.707201e+01    1.244454e+00
  2.708789e+01    1.297136e+00
  2.710376e+01    1.383943e+00
  2.711964e+01    1.485931e+00
  2.713551e+01    1.645260e+00
  2.715139e+01    1.752273e+00
  2.716726e+01    1.895422e+00
  2.718314e+01    1.987972e+00
  2.719901e+01    2.088042e+00
  2.721489e+01    2.162862e+00
  2.723077e+01    2.146823e+00
  2.724664e+01    2.062892e+00
  2.726252e+01    1.950802e+00
  2.727839e+01    1.820552e+00
  2.729427e+01    1.662673e+00
  2.731014e+01    1.513625e+00
  2.732602e+01    1.407733e+00
  2.734189e+01    1.286645e+00
  2.735777e+01    1.176913e+00
  2.737365e+01    1.123212e+00
  2.738952e+01    1.085451e+00
  2.740540e+01    1.048451e+00
  2.742127e+01    1.013026e+00
  2.743715e+01    9.663533e-01
  2.745302e+01    9.444508e-01
  2.746890e+01    9.242980e-01
  2.748477e+01    9.134232e-01
  2.750065e+01    9.077652e-01
  2.751653e+01    8.950792e-01
  2.753240e+01    8.725333e-01
  2.754828e+01    8.858969e-01
  2.756415e+01    8.521608e-01
  2.758003e+01    8.391837e-01
  2.759590e+01    8.350044e-01
  2.761178e+01    8.189231e-01
  2.762765e+01    8.150786e-01
  2.764353e+01    8.393843e-01
  2.765941e+01    8.437227e-01
  2.767528e+01    8.307464e-01
  2.769116e+01    8.154964e-01
  2.770703e+01    8.050934e-01
  2.772291e+01    7.967613e-01
  2.773878e+01    8.096983e-01
  2.775466e+01    7.972957e-01
  2.777054e+01    8.090398e-01
  2.778641e+01    8.193425e-01
  2.780229e+01    8.121523e-01
  2.781816e+01    7.935094e-01
  2.783404e+01    7.878438e-01
  2.784991e+01    8.012955e-01
  2.786579e+01    7.852075e-01
  2.788166e+01    7.970068e-01
  2.789754e+01    8.034277e-01
  2.791342e+01    7.799937e-01
  2.792929e+01    7.890129e-01
  2.794517e+01    7.863938e-01
  2.796104e+01    7.804127e-01
  2.797692e+01    7.957770e-01
  2.799279e+01    7.710209e-01
  2.800867e+01    7.981013e-01
  2.802454e+01    7.957816e-01
  2.804042e+01    7.749358e-01
  2.805630e+01    7.694973e-01
  2.807217e+01    7.841634e-01
  2.808805e+01    7.797221e-01
  2.810392e+01    7.955803e-01
  2.811980e+01    7.662388e-01
  2.813567e+01    7.777534e-01
  2.815155e+01    7.768530e-01
  2.816742e+01    7.610049e-01
  2.818330e+01    7.503684e-01
  2.819918e+01    7.759401e-01
  2.821505e+01    8.072728e-01
  2.823093e+01    7.754689e-01
  2.824680e+01    7.579963e-01
  2.826268e+01    7.693935e-01
  2.827855e+01    7.609360e-01
  2.829443e+01    7.538210e-01
  2.831030e+01    7.410081e-01
  2.832618e+01    7.408520e-01
  2.834206e+01    7.687839e-01
  2.835793e+01    7.405651e-01
  2.837381e+01    7.387204e-01
  2.838968e+01    7.376937e-01
  2.840556e+01    7.670796e-01
  2.842143e+01    7.617184e-01
  2.843731e+01    7.297483e-01
  2.845318e+01    7.310489e-01
  2.846906e+01    7.755238e-01
  2.848494e+01    7.713854e-01
  2.850081e+01    7.466701e-01
  2.851669e+01    7.489185e-01
  2.853256e+01    7.428545e-01
  2.854844e+01    7.642148e-01
  2.856431e+01    7.648924e-01
  2.858019e+01    7.617500e-01
  2.859606e+01    7.696874e-01
  2.861194e+01    7.848274e-01
  2.862782e+01    7.686970e-01
  2.864369e+01    7.523525e-01
  2.865957e+01    7.482939e-01
  2.867544e+01    7.272525e-01
  2.869132e+01    7.354307e-01
  2.870719e+01    7.451417e-01
  2.872307e+01    7.368894e-01
  2.873895e+01    7.523907e-01
  2.875482e+01    7.263277e-01
  2.877070e+01    7.303032e-01
  2.878657e+01    7.343854e-01
  2.880245e+01    7.406164e-01
  2.881832e+01    7.373805e-01
  2.883420e+01    7.471731e-01
  2.885007e+01    7.479941e-01
  2.886595e+01    7.433732e-01
  2.888183e+01    7.366024e-01
  2.889770e+01    7.216488e-01
  2.891358e+01    7.391831e-01
  2.892945e+01    7.302787e-01
  2.894533e+01    7.384542e-01
  2.896120e+01    7.194000e-01
  2.897708e+01    7.263966e-01
  2.899295e+01    7.475482e-01
  2.900883e+01    7.537791e-01
  2.902471e+01    7.619049e-01
  2.904058e+01    7.313691e-01
  2.905646e+01    7.187201e-01
  2.907233e+01    7.361917e-01
  2.908821e+01    7.314716e-01
  2.910408e+01    7.387767e-01
  2.911996e+01    7.458779e-01
  2.913583e+01    7.462201e-01
  2.915171e+01    7.249920e-01
  2.916759e+01    7.303654e-01
  2.918346e+01    7.254716e-01
  2.919934e+01    7.119528e-01
  2.921521e+01    7.152681e-01
  2.923109e+01    7.311536e-01
  2.924696e+01    7.365452e-01
  2.926284e+01    7.355649e-01
  2.927871e+01    7.154483e-01
  2.929459e+01    7.213238e-01
  2.931047e+01    7.201844e-01
  2.932634e+01    7.199966e-01
  2.934222e+01    7.357507e-01
  2.935809e+01    7.404743e-01
  2.937397e+01    7.318591e-01
  2.938984e+01    7.187880e-01
  2.940572e+01    7.184352e-01
  2.942159e+01    7.145048e-01
  2.943747e+01    7.380475e-01
  2.945335e+01    7.151975e-01
  2.946922e+01    7.305664e-01
  2.948510e+01    7.231054e-01
  2.950097e+01    7.261940e-01
  2.951685e+01    7.068858e-01
  2.953272e+01    7.030637e-01
  2.954860e+01    7.272111e-01
  2.956447e+01    7.302535e-01
  2.958035e+01    7.205935e-01
  2.959623e+01    7.177976e-01
  2.961210e+01    7.196925e-01
  2.962798e+01    7.126517e-01
  2.964385e+01    7.147939e-01
  2.965973e+01    7.175189e-01
  2.967560e+01    7.085733e-01
  2.969148e+01    7.192338e-01
  2.970736e+01    7.052783e-01
  2.972323e+01    7.030184e-01
  2.973911e+01    6.921074e-01
  2.975498e+01    7.091081e-01
  2.977086e+01    7.274182e-01
  2.978673e+01    7.329953e-01
  2.980261e+01    7.520349e-01
  2.981848e+01    7.227438e-01
  2.983436e+01    7.074851e-01
  2.985024e+01    7.084135e-01
  2.986611e+01    7.015891e-01
  2.988199e+01    6.865003e-01
  2.989786e+01    7.140114e-01
  2.991374e+01    7.261709e-01
  2.992961e+01    7.183946e-01
  2.994549e+01    7.221270e-01
  2.996136e+01    7.192562e-01
  2.997724e+01    7.165524e-01
  2.999312e+01    7.305334e-01
  3.000899e+01    7.169482e-01
  3.002487e+01    7.298234e-01
  3.004074e+01    7.376613e-01
  3.005662e+01    7.147536e-01
  3.007249e+01    7.248253e-01
  3.008837e+01    7.229299e-01
  3.010424e+01    7.344112e-01
  3.012012e+01    7.171516e-01
  3.013600e+01    7.071722e-01
  3.015187e+01    7.079481e-01
  3.016775e+01    7.190190e-01
  3.018362e+01    7.148214e-01
  3.019950e+01    7.009293e-01
  3.021537e+01    6.957440e-01
  3.023125e+01    7.116675e-01
  3.024712e+01    7.116829e-01
  3.026300e+01    7.248920e-01
  3.027888e+01    7.249672e-01
  3.029475e+01    7.148433e-01
  3.031063e+01    6.975089e-01
  3.032650e+01    6.990386e-01
  3.034238e+01    6.807297e-01
  3.035825e+01    6.964170e-01
  3.037413e+01    7.153280e-01
  3.039000e+01    7.107060e-01
  3.040588e+01    7.030076e-01
  3.042176e+01    7.259612e-01
  3.043763e+01    7.095979e-01
  3.045351e+01    7.162931e-01
  3.046938e+01    7.060938e-01
  3.048526e+01    7.130435e-01
  3.050113e+01    7.211766e-01
  3.051701e+01    6.851687e-01
  3.053288e+01    6.916357e-01
  3.054876e+01    7.037769e-01
  3.056464e+01    7.103456e-01
  3.058051e+01    7.052153e-01
  3.059639e+01    7.082686e-01
  3.061226e+01    7.113089e-01
  3.062814e+01    7.237573e-01
  3.064401e+01    7.304220e-01
  3.065989e+01    7.046695e-01
  3.067577e+01    7.144763e-01
  3.069164e+01    7.137612e-01
  3.070752e+01    7.028062e-01
  3.072339e+01    6.928877e-01
  3.073927e+01    6.838695e-01
  3.075514e+01    6.955613e-01
  3.077102e+01    7.378923e-01
  3.078689e+01    7.193993e-01
  3.080277e+01    6.902387e-01
  3.081865e+01    6.908301e-01
  3.083452e+01    7.056214e-01
  3.085040e+01    7.150677e-01
  3.086627e+01    6.984914e-01
  3.088215e+01    6.906176e-01
  3.089802e+01    6.823249e-01
  3.091390e+01    7.003714e-01
  3.092977e+01    6.979611e-01
  3.094565e+01    6.969572e-01
  3.096153e+01    7.127287e-01
  3.097740e+01    7.065110e-01
  3.099328e+01    7.325963e-01
  3.100915e+01    7.151045e-01
  3.102503e+01    7.052216e-01
  3.104090e+01    6.901043e-01
  3.105678e+01    7.088764e-01
  3.107265e+01    7.139249e-01
  3.108853e+01    7.140412e-01
  3.110441e+01    6.976740e-01
  3.112028e+01    7.151173e-01
  3.113616e+01    7.223150e-01
  3.115203e+01    7.345616e-01
  3.116791e+01    7.325610e-01
  3.118378e+01    7.385091e-01
  3.119966e+01    7.272758e-01
  3.121553e+01    7.353529e-01
  3.123141e+01    7.403238e-01
  3.124729e+01    7.464969e-01
  3.126316e+01    7.272028e-01
  3.127904e+01    7.334771e-01
  3.129491e+01    7.242936e-01
  3.131079e+01    7.355011e-01
  3.132666e+01    7.274983e-01
  3.134254e+01    7.363066e-01
  3.135841e+01    7.414814e-01
  3.137429e+01    7.361696e-01
  3.139017e+01    7.122549e-01
  3.140604e+01    7.248600e-01
  3.142192e+01    7.317524e-01
  3.143779e+01    7.169434e-01
  3.145367e+01    7.223995e-01
  3.146954e+01    7.462477e-01
  3.148542e+01    7.568198e-01
  3.150129e+01    7.618856e-01
  3.151717e+01    7.726620e-01
  3.153305e+01    7.690716e-01
  3.154892e+01    7.472836e-01
  3.156480e+01    7.802732e-01
  3.158067e+01    7.907556e-01
  3.159655e+01    8.100321e-01
  3.161242e+01    8.264518e-01
  3.162830e+01    8.481327e-01
  3.164418e+01    8.739783e-01
  3.166005e+01    8.994988e-01
  3.167593e+01    8.979288e-01
  3.169180e+01    9.422634e-01
  3.170768e+01    9.537994e-01
  3.172355e+01    9.860244e-01
  3.173943e+01    1.035462e+00
  3.175530e+01    1.093979e+00
  3.177118e+01    1.185289e+00
  3.178706e+01    1.304107e+00
  3.180293e+01    1.413219e+00
  3.181881e+01    1.523896e+00
  3.183468e+01    1.634793e+00
  3.185056e+01    1.807441e+00
  3.186643e+01    1.946860e+00
  3.188231e+01    2.041816e+00
  3.189818e+01    2.069966e+00
  3.191406e+01    2.133427e+00
  3.192994e+01    2.034418e+00
  3.194581e+01    1.972059e+00
  3.196169e+01    1.824246e+00
  3.197756e+01    1.690821e+00
  3.199344e+01    1.562019e+00
  3.200931e+01    1.395195e+00
  3.202519e+01    1.263656e+00
  3.204106e+01    1.192937e+00
  3.205694e+01    1.122650e+00
  3.207282e+01    1.038895e+00
  3.208869e+01    9.722479e-01
  3.210457e+01    9.370454e-01
  3.212044e+01    9.068930e-01
  3.213632e+01    8.825337e-01
  3.215219e+01    8.552680e-01
  3.216807e+01    8.349670e-01
  3.218394e+01    8.148813e-01
  3.219982e+01    8.196432e-01
  3.221570e+01    8.037216e-01
  3.223157e+01    7.898624e-01
  3.224745e+01    7.712823e-01
  3.226332e+01    7.674095e-01
  3.227920e+01    7.901800e-01
  3.229507e+01    7.773264e-01
  3.231095e+01    7.435178e-01
  3.232682e+01    7.549602e-01
  3.234270e+01    7.313839e-01
  3.235858e+01    7.300091e-01
  3.237445e+01    7.106489e-01
  3.239033e+01    7.276158e-01
  3.240620e+01    7.061342e-01
  3.242208e+01    7.228215e-01
  3.243795e+01    7.250431e-01
  3.245383e+01    7.020296e-01
  3.246970e+01    6.982043e-01
  3.248558e+01    7.219692e-01
  3.250146e+01    7.107836e-01
  3.251733e+01    7.127181e-01
  3.253321e+01    6.889847e-01
  3.254908e+01    7.314437e-01
