# == pyFAI calibration ==
# Distance Sample to Detector: 0.3999999939076516 m
# PONI: 9.750e-02, 1.135e-01 m
# Rotations: -0.000175 0.000000 -0.000000 rad
# 
# == Fit2d calibration ==
# Distance Sample-beamCenter: 400.000 mm
# Center: x=1514.000, y=1300.000 pix
# Tilt: 0.010 deg  TiltPlanRot: 0.010 deg
# 
# Detector Detector	 Spline= None	 PixelSize= 7.500e-05, 7.500e-05 m
#    Detector has a mask: False 
#    Detector has a dark current: False 
#    detector has a flat field: False 
# 
# Wavelength: 6.888e-11 m
# Mask applied: user provided
# Dark current applied: False
# Flat field applied: False
# Polarization factor: 0.99
# Normalization factor: 1.0
# --> /home/myspot/data/2024_07_Rosario/Ru-CGO-ex/2024-07-27_002_Ru-CGO-ex_Activtation_ramp_000002_data_000022.dat
#       q_nm^-1             I 
  2.003187e-02    0.000000e+00
  3.590745e-02    1.432016e-01
  5.178302e-02    1.468228e-01
  6.765859e-02    1.467882e-01
  8.353417e-02    1.832796e-01
  9.940974e-02    7.740072e-02
  1.152853e-01    9.015574e-02
  1.311609e-01    5.304856e-02
  1.470365e-01    5.639377e-02
  1.629120e-01    0.000000e+00
  1.787876e-01    2.446095e-02
  1.946632e-01    3.395969e-02
  2.105388e-01    2.418817e-02
  2.264143e-01    3.365869e-02
  2.422899e-01    4.015121e-02
  2.581655e-01    4.565422e-02
  2.740411e-01    1.485702e-02
  2.899166e-01    2.759922e-02
  3.057922e-01    4.176353e-02
  3.216678e-01    3.969577e-02
  3.375433e-01    5.696462e-02
  3.534189e-01    4.824753e-02
  3.692945e-01    5.111467e-02
  3.851701e-01    3.775096e-02
  4.010456e-01    1.463460e-02
  4.169212e-01    6.798361e-02
  4.327968e-01    4.997339e-02
  4.486724e-01    8.077425e-02
  4.645479e-01    4.794788e-02
  4.804235e-01    2.428039e-02
  4.962991e-01    3.119979e-02
  5.121747e-01    3.977498e-02
  5.280502e-01    3.139519e-02
  5.439258e-01    3.531213e-02
  5.598014e-01    2.663938e-02
  5.756770e-01    2.477553e-02
  5.915525e-01    4.026034e-02
  6.074281e-01    2.620139e-02
  6.233037e-01    3.122484e-02
  6.391793e-01    3.391758e-02
  6.550548e-01    3.646520e-02
  6.709304e-01    2.719956e-02
  6.868060e-01    1.890171e-02
  7.026815e-01    2.605981e-02
  7.185571e-01    4.516299e-02
  7.344327e-01    4.529488e-02
  7.503083e-01    5.430795e-02
  7.661838e-01    5.425745e-02
  7.820594e-01    8.094205e-02
  7.979350e-01    1.274091e-01
  8.138106e-01    1.602673e-01
  8.296861e-01    2.241726e-01
  8.455617e-01    3.135493e-01
  8.614373e-01    3.955920e-01
  8.773129e-01    4.300133e-01
  8.931884e-01    5.376330e-01
  9.090640e-01    6.377197e-01
  9.249396e-01    5.624596e-01
  9.408152e-01    6.877365e-01
  9.566907e-01    8.228182e-01
  9.725663e-01    8.874075e-01
  9.884419e-01    9.102512e-01
  1.004317e+00    9.927524e-01
  1.020193e+00    1.042618e+00
  1.036069e+00    1.134274e+00
  1.051944e+00    1.252918e+00
  1.067820e+00    1.284544e+00
  1.083695e+00    1.365782e+00
  1.099571e+00    1.473905e+00
  1.115446e+00    1.483852e+00
  1.131322e+00    1.518199e+00
  1.147198e+00    1.572143e+00
  1.163073e+00    1.552774e+00
  1.178949e+00    1.611703e+00
  1.194824e+00    1.732357e+00
  1.210700e+00    1.915447e+00
  1.226575e+00    2.072685e+00
  1.242451e+00    2.359432e+00
  1.258327e+00    2.512833e+00
  1.274202e+00    2.438206e+00
  1.290078e+00    2.524633e+00
  1.305953e+00    2.544382e+00
  1.321829e+00    2.665346e+00
  1.337705e+00    2.763225e+00
  1.353580e+00    2.640409e+00
  1.369456e+00    2.784221e+00
  1.385331e+00    2.740357e+00
  1.401207e+00    2.633841e+00
  1.417082e+00    2.606413e+00
  1.432958e+00    2.698686e+00
  1.448834e+00    2.855340e+00
  1.464709e+00    2.928665e+00
  1.480585e+00    2.966997e+00
  1.496460e+00    3.020426e+00
  1.512336e+00    2.850074e+00
  1.528211e+00    2.857373e+00
  1.544087e+00    3.109401e+00
  1.559963e+00    2.999843e+00
  1.575838e+00    2.910780e+00
  1.591714e+00    2.995302e+00
  1.607589e+00    2.967546e+00
  1.623465e+00    2.980062e+00
  1.639340e+00    2.985543e+00
  1.655216e+00    3.052647e+00
  1.671092e+00    3.018895e+00
  1.686967e+00    2.856893e+00
  1.702843e+00    2.934261e+00
  1.718718e+00    2.959367e+00
  1.734594e+00    2.854002e+00
  1.750469e+00    2.882897e+00
  1.766345e+00    2.978807e+00
  1.782221e+00    2.816028e+00
  1.798096e+00    2.755152e+00
  1.813972e+00    2.858848e+00
  1.829847e+00    2.993722e+00
  1.845723e+00    2.893626e+00
  1.861598e+00    2.844559e+00
  1.877474e+00    2.820210e+00
  1.893350e+00    2.792886e+00
  1.909225e+00    2.657811e+00
  1.925101e+00    2.760912e+00
  1.940976e+00    2.770837e+00
  1.956852e+00    2.837957e+00
  1.972727e+00    2.924798e+00
  1.988603e+00    2.815889e+00
  2.004479e+00    2.850441e+00
  2.020354e+00    2.785714e+00
  2.036230e+00    2.757765e+00
  2.052105e+00    2.834764e+00
  2.067981e+00    2.862939e+00
  2.083856e+00    2.919758e+00
  2.099732e+00    2.761512e+00
  2.115608e+00    2.659883e+00
  2.131483e+00    2.716542e+00
  2.147359e+00    2.739816e+00
  2.163234e+00    2.800034e+00
  2.179110e+00    2.773766e+00
  2.194985e+00    2.804615e+00
  2.210861e+00    2.754426e+00
  2.226737e+00    2.766295e+00
  2.242612e+00    2.770001e+00
  2.258488e+00    2.821200e+00
  2.274363e+00    2.927922e+00
  2.290239e+00    2.761539e+00
  2.306115e+00    2.822731e+00
  2.321990e+00    2.843713e+00
  2.337866e+00    2.870222e+00
  2.353741e+00    2.849465e+00
  2.369617e+00    2.862928e+00
  2.385492e+00    2.867506e+00
  2.401368e+00    2.896559e+00
  2.417244e+00    2.943956e+00
  2.433119e+00    2.891669e+00
  2.448995e+00    2.815317e+00
  2.464870e+00    2.715390e+00
  2.480746e+00    2.779204e+00
  2.496621e+00    2.836505e+00
  2.512497e+00    2.828039e+00
  2.528373e+00    2.767995e+00
  2.544248e+00    2.825219e+00
  2.560124e+00    2.739281e+00
  2.575999e+00    2.877321e+00
  2.591875e+00    2.784896e+00
  2.607750e+00    2.741068e+00
  2.623626e+00    2.907010e+00
  2.639502e+00    2.800966e+00
  2.655377e+00    2.825862e+00
  2.671253e+00    2.830189e+00
  2.687128e+00    2.854587e+00
  2.703004e+00    2.812335e+00
  2.718879e+00    2.852034e+00
  2.734755e+00    2.831594e+00
  2.750631e+00    2.843088e+00
  2.766506e+00    2.817888e+00
  2.782382e+00    2.838774e+00
  2.798257e+00    2.971088e+00
  2.814133e+00    2.883587e+00
  2.830008e+00    2.911081e+00
  2.845884e+00    2.892075e+00
  2.861760e+00    2.859365e+00
  2.877635e+00    2.875087e+00
  2.893511e+00    2.801910e+00
  2.909386e+00    2.813609e+00
  2.925262e+00    2.867682e+00
  2.941137e+00    2.900609e+00
  2.957013e+00    3.026713e+00
  2.972889e+00    2.981027e+00
  2.988764e+00    2.969055e+00
  3.004640e+00    2.914646e+00
  3.020515e+00    2.928247e+00
  3.036391e+00    2.964369e+00
  3.052266e+00    2.967370e+00
  3.068142e+00    2.994134e+00
  3.084018e+00    2.836891e+00
  3.099893e+00    2.865442e+00
  3.115769e+00    2.926095e+00
  3.131644e+00    2.893661e+00
  3.147520e+00    2.890202e+00
  3.163395e+00    2.921277e+00
  3.179271e+00    2.907463e+00
  3.195147e+00    2.952174e+00
  3.211022e+00    2.870522e+00
  3.226898e+00    2.830061e+00
  3.242773e+00    2.983794e+00
  3.258649e+00    3.060271e+00
  3.274525e+00    2.972769e+00
  3.290400e+00    2.945645e+00
  3.306276e+00    3.087442e+00
  3.322151e+00    2.968236e+00
  3.338027e+00    2.865340e+00
  3.353902e+00    2.846802e+00
  3.369778e+00    2.916390e+00
  3.385654e+00    3.079391e+00
  3.401529e+00    2.943976e+00
  3.417405e+00    2.914066e+00
  3.433280e+00    2.939852e+00
  3.449156e+00    2.970059e+00
  3.465031e+00    2.872011e+00
  3.480907e+00    2.916369e+00
  3.496783e+00    2.942533e+00
  3.512658e+00    2.958304e+00
  3.528534e+00    2.906289e+00
  3.544409e+00    2.905405e+00
  3.560285e+00    3.025175e+00
  3.576160e+00    3.029793e+00
  3.592036e+00    2.947162e+00
  3.607912e+00    2.976832e+00
  3.623787e+00    2.967174e+00
  3.639663e+00    3.036983e+00
  3.655538e+00    3.060106e+00
  3.671414e+00    3.057766e+00
  3.687289e+00    2.975147e+00
  3.703165e+00    2.978709e+00
  3.719041e+00    3.051897e+00
  3.734916e+00    3.027633e+00
  3.750792e+00    3.109861e+00
  3.766667e+00    3.001640e+00
  3.782543e+00    3.013495e+00
  3.798418e+00    2.990958e+00
  3.814294e+00    2.943051e+00
  3.830170e+00    3.003450e+00
  3.846045e+00    3.006176e+00
  3.861921e+00    2.973282e+00
  3.877796e+00    3.079957e+00
  3.893672e+00    3.017544e+00
  3.909547e+00    3.006624e+00
  3.925423e+00    3.020703e+00
  3.941299e+00    3.062052e+00
  3.957174e+00    3.068170e+00
  3.973050e+00    3.003143e+00
  3.988925e+00    3.030196e+00
  4.004801e+00    3.026264e+00
  4.020676e+00    3.010727e+00
  4.036552e+00    3.011288e+00
  4.052428e+00    3.017184e+00
  4.068303e+00    3.093797e+00
  4.084179e+00    3.145885e+00
  4.100054e+00    3.129772e+00
  4.115930e+00    3.064190e+00
  4.131806e+00    3.054667e+00
  4.147681e+00    3.089612e+00
  4.163557e+00    3.060484e+00
  4.179432e+00    3.087564e+00
  4.195308e+00    2.993659e+00
  4.211183e+00    3.057550e+00
  4.227059e+00    3.093189e+00
  4.242935e+00    3.032395e+00
  4.258810e+00    3.008416e+00
  4.274686e+00    3.038430e+00
  4.290561e+00    3.030889e+00
  4.306437e+00    3.046062e+00
  4.322312e+00    3.109898e+00
  4.338188e+00    3.093302e+00
  4.354064e+00    3.063070e+00
  4.369939e+00    3.006636e+00
  4.385815e+00    3.016948e+00
  4.401690e+00    3.048995e+00
  4.417566e+00    3.048745e+00
  4.433441e+00    3.085969e+00
  4.449317e+00    3.096773e+00
  4.465193e+00    3.156628e+00
  4.481068e+00    3.089113e+00
  4.496944e+00    3.069670e+00
  4.512819e+00    3.097697e+00
  4.528695e+00    3.073927e+00
  4.544570e+00    3.075053e+00
  4.560446e+00    3.135782e+00
  4.576322e+00    3.110279e+00
  4.592197e+00    3.077486e+00
  4.608073e+00    2.982691e+00
  4.623948e+00    3.074713e+00
  4.639824e+00    3.100103e+00
  4.655699e+00    3.043613e+00
  4.671575e+00    3.111145e+00
  4.687451e+00    3.187740e+00
  4.703326e+00    3.130938e+00
  4.719202e+00    3.162150e+00
  4.735077e+00    3.172656e+00
  4.750953e+00    3.148615e+00
  4.766828e+00    3.121545e+00
  4.782704e+00    3.130576e+00
  4.798580e+00    3.128744e+00
  4.814455e+00    3.121895e+00
  4.830331e+00    3.137510e+00
  4.846206e+00    3.121297e+00
  4.862082e+00    3.139489e+00
  4.877957e+00    3.124020e+00
  4.893833e+00    3.140418e+00
  4.909709e+00    3.070638e+00
  4.925584e+00    3.113757e+00
  4.941460e+00    3.238529e+00
  4.957335e+00    3.162950e+00
  4.973211e+00    3.110229e+00
  4.989086e+00    3.128638e+00
  5.004962e+00    3.155865e+00
  5.020838e+00    3.115736e+00
  5.036713e+00    3.139374e+00
  5.052589e+00    3.111928e+00
  5.068464e+00    3.099504e+00
  5.084340e+00    3.207348e+00
  5.100216e+00    3.168647e+00
  5.116091e+00    3.133038e+00
  5.131967e+00    3.135613e+00
  5.147842e+00    3.129725e+00
  5.163718e+00    3.150888e+00
  5.179593e+00    3.125201e+00
  5.195469e+00    3.054744e+00
  5.211345e+00    3.101554e+00
  5.227220e+00    3.078762e+00
  5.243096e+00    3.074397e+00
  5.258971e+00    3.049320e+00
  5.274847e+00    3.125666e+00
  5.290722e+00    3.120545e+00
  5.306598e+00    3.067290e+00
  5.322474e+00    3.124994e+00
  5.338349e+00    3.162601e+00
  5.354225e+00    3.140539e+00
  5.370100e+00    3.205901e+00
  5.385976e+00    3.201609e+00
  5.401851e+00    3.167626e+00
  5.417727e+00    3.170710e+00
  5.433603e+00    3.192360e+00
  5.449478e+00    3.188248e+00
  5.465354e+00    3.119071e+00
  5.481229e+00    3.106893e+00
  5.497105e+00    3.130598e+00
  5.512980e+00    3.139214e+00
  5.528856e+00    3.100906e+00
  5.544732e+00    3.107337e+00
  5.560607e+00    3.116815e+00
  5.576483e+00    3.177758e+00
  5.592358e+00    3.209974e+00
  5.608234e+00    3.110842e+00
  5.624109e+00    3.064571e+00
  5.639985e+00    3.094484e+00
  5.655861e+00    3.154203e+00
  5.671736e+00    3.127753e+00
  5.687612e+00    3.059083e+00
  5.703487e+00    3.150888e+00
  5.719363e+00    3.180868e+00
  5.735238e+00    3.082450e+00
  5.751114e+00    3.093274e+00
  5.766990e+00    3.200595e+00
  5.782865e+00    3.183250e+00
  5.798741e+00    3.134842e+00
  5.814616e+00    3.041296e+00
  5.830492e+00    3.019950e+00
  5.846367e+00    3.079035e+00
  5.862243e+00    3.090693e+00
  5.878119e+00    3.039905e+00
  5.893994e+00    3.036892e+00
  5.909870e+00    3.091449e+00
  5.925745e+00    3.075186e+00
  5.941621e+00    3.044585e+00
  5.957497e+00    2.983843e+00
  5.973372e+00    2.975664e+00
  5.989248e+00    3.006464e+00
  6.005123e+00    3.002570e+00
  6.020999e+00    3.047265e+00
  6.036874e+00    3.018996e+00
  6.052750e+00    2.975774e+00
  6.068626e+00    3.059084e+00
  6.084501e+00    3.051394e+00
  6.100377e+00    3.127416e+00
  6.116252e+00    3.040357e+00
  6.132128e+00    3.090658e+00
  6.148003e+00    3.160948e+00
  6.163879e+00    3.042043e+00
  6.179755e+00    3.019149e+00
  6.195630e+00    3.041867e+00
  6.211506e+00    3.045991e+00
  6.227381e+00    3.026939e+00
  6.243257e+00    3.037536e+00
  6.259132e+00    3.080040e+00
  6.275008e+00    3.098922e+00
  6.290884e+00    3.113694e+00
  6.306759e+00    3.074269e+00
  6.322635e+00    3.073967e+00
  6.338510e+00    3.069767e+00
  6.354386e+00    3.110596e+00
  6.370261e+00    3.061810e+00
  6.386137e+00    3.006547e+00
  6.402013e+00    3.029842e+00
  6.417888e+00    3.013631e+00
  6.433764e+00    3.048974e+00
  6.449639e+00    3.049380e+00
  6.465515e+00    3.005003e+00
  6.481390e+00    3.050047e+00
  6.497266e+00    3.058428e+00
  6.513142e+00    3.084418e+00
  6.529017e+00    3.081324e+00
  6.544893e+00    3.048758e+00
  6.560768e+00    3.071956e+00
  6.576644e+00    3.024247e+00
  6.592519e+00    2.985378e+00
  6.608395e+00    2.986334e+00
  6.624271e+00    3.013495e+00
  6.640146e+00    3.100111e+00
  6.656022e+00    3.067035e+00
  6.671897e+00    3.052513e+00
  6.687773e+00    3.113343e+00
  6.703648e+00    3.078605e+00
  6.719524e+00    3.053627e+00
  6.735400e+00    3.092098e+00
  6.751275e+00    3.019673e+00
  6.767151e+00    3.033048e+00
  6.783026e+00    3.047343e+00
  6.798902e+00    3.014456e+00
  6.814777e+00    3.003672e+00
  6.830653e+00    3.112504e+00
  6.846529e+00    3.022930e+00
  6.862404e+00    2.968644e+00
  6.878280e+00    3.024484e+00
  6.894155e+00    3.028446e+00
  6.910031e+00    3.047742e+00
  6.925907e+00    3.034547e+00
  6.941782e+00    2.960320e+00
  6.957658e+00    2.972034e+00
  6.973533e+00    3.068207e+00
  6.989409e+00    3.040750e+00
  7.005284e+00    2.989565e+00
  7.021160e+00    3.066724e+00
  7.037036e+00    3.073104e+00
  7.052911e+00    3.012624e+00
  7.068787e+00    3.014919e+00
  7.084662e+00    3.079971e+00
  7.100538e+00    2.994796e+00
  7.116413e+00    2.987873e+00
  7.132289e+00    2.987668e+00
  7.148165e+00    3.039027e+00
  7.164040e+00    3.093742e+00
  7.179916e+00    3.077779e+00
  7.195791e+00    3.004384e+00
  7.211667e+00    2.947049e+00
  7.227542e+00    2.988426e+00
  7.243418e+00    2.992907e+00
  7.259294e+00    2.990166e+00
  7.275169e+00    3.029896e+00
  7.291045e+00    3.035350e+00
  7.306920e+00    3.042629e+00
  7.322796e+00    2.991430e+00
  7.338671e+00    3.006710e+00
  7.354547e+00    2.996186e+00
  7.370423e+00    3.007977e+00
  7.386298e+00    2.991585e+00
  7.402174e+00    3.014240e+00
  7.418049e+00    2.939415e+00
  7.433925e+00    2.971454e+00
  7.449800e+00    2.975360e+00
  7.465676e+00    3.059181e+00
  7.481552e+00    3.037640e+00
  7.497427e+00    3.006339e+00
  7.513303e+00    3.007027e+00
  7.529178e+00    2.948947e+00
  7.545054e+00    2.981588e+00
  7.560929e+00    2.996543e+00
  7.576805e+00    3.021096e+00
  7.592681e+00    2.959122e+00
  7.608556e+00    2.946375e+00
  7.624432e+00    3.055018e+00
  7.640307e+00    3.049739e+00
  7.656183e+00    2.983446e+00
  7.672058e+00    2.953861e+00
  7.687934e+00    2.946409e+00
  7.703810e+00    3.033315e+00
  7.719685e+00    2.983698e+00
  7.735561e+00    2.959032e+00
  7.751436e+00    2.956490e+00
  7.767312e+00    2.947120e+00
  7.783187e+00    2.912580e+00
  7.799063e+00    2.901284e+00
  7.814939e+00    2.948221e+00
  7.830814e+00    2.941937e+00
  7.846690e+00    2.963235e+00
  7.862565e+00    3.000337e+00
  7.878441e+00    2.997778e+00
  7.894317e+00    2.991233e+00
  7.910192e+00    2.943617e+00
  7.926068e+00    2.976036e+00
  7.941943e+00    2.911681e+00
  7.957819e+00    2.909705e+00
  7.973694e+00    2.898966e+00
  7.989570e+00    2.870157e+00
  8.005446e+00    2.950538e+00
  8.021321e+00    2.992942e+00
  8.037197e+00    2.950994e+00
  8.053072e+00    2.939418e+00
  8.068948e+00    2.956749e+00
  8.084823e+00    2.946229e+00
  8.100699e+00    2.927253e+00
  8.116575e+00    2.937858e+00
  8.132450e+00    2.987035e+00
  8.148326e+00    2.981770e+00
  8.164201e+00    2.978240e+00
  8.180077e+00    2.945790e+00
  8.195952e+00    2.976007e+00
  8.211828e+00    3.071679e+00
  8.227704e+00    2.949022e+00
  8.243579e+00    2.927786e+00
  8.259455e+00    2.963395e+00
  8.275330e+00    2.932326e+00
  8.291206e+00    2.882015e+00
  8.307081e+00    2.950564e+00
  8.322957e+00    2.991814e+00
  8.338833e+00    2.961380e+00
  8.354708e+00    2.959925e+00
  8.370584e+00    2.953056e+00
  8.386459e+00    2.956694e+00
  8.402335e+00    2.899456e+00
  8.418210e+00    2.855056e+00
  8.434086e+00    2.870781e+00
  8.449962e+00    2.907842e+00
  8.465837e+00    2.889851e+00
  8.481713e+00    2.892472e+00
  8.497588e+00    2.946915e+00
  8.513464e+00    2.856910e+00
  8.529339e+00    2.865552e+00
  8.545215e+00    2.808492e+00
  8.561091e+00    2.869145e+00
  8.576966e+00    2.944841e+00
  8.592842e+00    2.919542e+00
  8.608717e+00    2.890663e+00
  8.624593e+00    2.949104e+00
  8.640468e+00    2.890165e+00
  8.656344e+00    2.856786e+00
  8.672220e+00    2.850586e+00
  8.688095e+00    2.847080e+00
  8.703971e+00    2.855947e+00
  8.719846e+00    2.884325e+00
  8.735722e+00    2.829264e+00
  8.751598e+00    2.844958e+00
  8.767473e+00    2.906982e+00
  8.783349e+00    2.883200e+00
  8.799224e+00    2.853149e+00
  8.815100e+00    2.885078e+00
  8.830975e+00    2.875457e+00
  8.846851e+00    2.857719e+00
  8.862727e+00    2.789550e+00
  8.878602e+00    2.865057e+00
  8.894478e+00    2.866610e+00
  8.910353e+00    2.871825e+00
  8.926229e+00    2.853839e+00
  8.942104e+00    2.873654e+00
  8.957980e+00    2.884184e+00
  8.973856e+00    2.893107e+00
  8.989731e+00    2.829643e+00
  9.005607e+00    2.825144e+00
  9.021482e+00    2.836030e+00
  9.037358e+00    2.811783e+00
  9.053233e+00    2.795365e+00
  9.069109e+00    2.808767e+00
  9.084985e+00    2.783898e+00
  9.100860e+00    2.786634e+00
  9.116736e+00    2.803738e+00
  9.132611e+00    2.831610e+00
  9.148487e+00    2.813586e+00
  9.164362e+00    2.797846e+00
  9.180238e+00    2.829163e+00
  9.196114e+00    2.832320e+00
  9.211989e+00    2.795362e+00
  9.227865e+00    2.803139e+00
  9.243740e+00    2.865656e+00
  9.259616e+00    2.799307e+00
  9.275491e+00    2.784041e+00
  9.291367e+00    2.834392e+00
  9.307243e+00    2.845575e+00
  9.323118e+00    2.846702e+00
  9.338994e+00    2.778589e+00
  9.354869e+00    2.735302e+00
  9.370745e+00    2.766358e+00
  9.386620e+00    2.780244e+00
  9.402496e+00    2.813544e+00
  9.418372e+00    2.787294e+00
  9.434247e+00    2.839006e+00
  9.450123e+00    2.788154e+00
  9.465998e+00    2.756725e+00
  9.481874e+00    2.809425e+00
  9.497749e+00    2.784522e+00
  9.513625e+00    2.773371e+00
  9.529501e+00    2.786365e+00
  9.545376e+00    2.782258e+00
  9.561252e+00    2.796862e+00
  9.577127e+00    2.795645e+00
  9.593003e+00    2.794753e+00
  9.608878e+00    2.759149e+00
  9.624754e+00    2.754612e+00
  9.640630e+00    2.791170e+00
  9.656505e+00    2.766052e+00
  9.672381e+00    2.738467e+00
  9.688256e+00    2.748215e+00
  9.704132e+00    2.796964e+00
  9.720008e+00    2.710787e+00
  9.735883e+00    2.714437e+00
  9.751759e+00    2.687767e+00
  9.767634e+00    2.683895e+00
  9.783510e+00    2.751424e+00
  9.799385e+00    2.765514e+00
  9.815261e+00    2.720423e+00
  9.831137e+00    2.771354e+00
  9.847012e+00    2.729631e+00
  9.862888e+00    2.707422e+00
  9.878763e+00    2.699399e+00
  9.894639e+00    2.707809e+00
  9.910514e+00    2.789086e+00
  9.926390e+00    2.796306e+00
  9.942266e+00    2.743978e+00
  9.958141e+00    2.742507e+00
  9.974017e+00    2.672757e+00
  9.989892e+00    2.639957e+00
  1.000577e+01    2.672862e+00
  1.002164e+01    2.640468e+00
  1.003752e+01    2.681262e+00
  1.005339e+01    2.676519e+00
  1.006927e+01    2.688240e+00
  1.008515e+01    2.662899e+00
  1.010102e+01    2.690933e+00
  1.011690e+01    2.667862e+00
  1.013277e+01    2.621882e+00
  1.014865e+01    2.630176e+00
  1.016452e+01    2.665578e+00
  1.018040e+01    2.646810e+00
  1.019627e+01    2.662061e+00
  1.021215e+01    2.638691e+00
  1.022803e+01    2.676979e+00
  1.024390e+01    2.711984e+00
  1.025978e+01    2.643148e+00
  1.027565e+01    2.613352e+00
  1.029153e+01    2.693799e+00
  1.030740e+01    2.679600e+00
  1.032328e+01    2.653059e+00
  1.033915e+01    2.665767e+00
  1.035503e+01    2.612140e+00
  1.037091e+01    2.620544e+00
  1.038678e+01    2.632754e+00
  1.040266e+01    2.584796e+00
  1.041853e+01    2.548633e+00
  1.043441e+01    2.620930e+00
  1.045028e+01    2.586493e+00
  1.046616e+01    2.594521e+00
  1.048204e+01    2.615979e+00
  1.049791e+01    2.613874e+00
  1.051379e+01    2.613741e+00
  1.052966e+01    2.623872e+00
  1.054554e+01    2.625745e+00
  1.056141e+01    2.601979e+00
  1.057729e+01    2.629093e+00
  1.059316e+01    2.622723e+00
  1.060904e+01    2.622988e+00
  1.062492e+01    2.602633e+00
  1.064079e+01    2.565182e+00
  1.065667e+01    2.595556e+00
  1.067254e+01    2.565757e+00
  1.068842e+01    2.540913e+00
  1.070429e+01    2.539802e+00
  1.072017e+01    2.538629e+00
  1.073604e+01    2.568097e+00
  1.075192e+01    2.599689e+00
  1.076780e+01    2.550639e+00
  1.078367e+01    2.561895e+00
  1.079955e+01    2.554362e+00
  1.081542e+01    2.524930e+00
  1.083130e+01    2.508655e+00
  1.084717e+01    2.539911e+00
  1.086305e+01    2.501895e+00
  1.087892e+01    2.513148e+00
  1.089480e+01    2.529227e+00
  1.091068e+01    2.564068e+00
  1.092655e+01    2.515000e+00
  1.094243e+01    2.586232e+00
  1.095830e+01    2.504799e+00
  1.097418e+01    2.502207e+00
  1.099005e+01    2.462496e+00
  1.100593e+01    2.522781e+00
  1.102180e+01    2.538538e+00
  1.103768e+01    2.535665e+00
  1.105356e+01    2.529046e+00
  1.106943e+01    2.521124e+00
  1.108531e+01    2.466746e+00
  1.110118e+01    2.485727e+00
  1.111706e+01    2.529610e+00
  1.113293e+01    2.504994e+00
  1.114881e+01    2.478848e+00
  1.116468e+01    2.503509e+00
  1.118056e+01    2.487302e+00
  1.119644e+01    2.454271e+00
  1.121231e+01    2.432983e+00
  1.122819e+01    2.442098e+00
  1.124406e+01    2.450956e+00
  1.125994e+01    2.456290e+00
  1.127581e+01    2.474627e+00
  1.129169e+01    2.496412e+00
  1.130756e+01    2.535311e+00
  1.132344e+01    2.511216e+00
  1.133932e+01    2.446085e+00
  1.135519e+01    2.405493e+00
  1.137107e+01    2.386012e+00
  1.138694e+01    2.432890e+00
  1.140282e+01    2.432638e+00
  1.141869e+01    2.428769e+00
  1.143457e+01    2.418525e+00
  1.145045e+01    2.374596e+00
  1.146632e+01    2.386441e+00
  1.148220e+01    2.453551e+00
  1.149807e+01    2.424044e+00
  1.151395e+01    2.388485e+00
  1.152982e+01    2.399468e+00
  1.154570e+01    2.428309e+00
  1.156157e+01    2.434789e+00
  1.157745e+01    2.414716e+00
  1.159333e+01    2.397000e+00
  1.160920e+01    2.393232e+00
  1.162508e+01    2.404680e+00
  1.164095e+01    2.390908e+00
  1.165683e+01    2.389623e+00
  1.167270e+01    2.391054e+00
  1.168858e+01    2.369712e+00
  1.170445e+01    2.372127e+00
  1.172033e+01    2.384356e+00
  1.173621e+01    2.386317e+00
  1.175208e+01    2.380764e+00
  1.176796e+01    2.349553e+00
  1.178383e+01    2.359613e+00
  1.179971e+01    2.399220e+00
  1.181558e+01    2.361918e+00
  1.183146e+01    2.360712e+00
  1.184733e+01    2.351678e+00
  1.186321e+01    2.337765e+00
  1.187909e+01    2.359896e+00
  1.189496e+01    2.335631e+00
  1.191084e+01    2.319810e+00
  1.192671e+01    2.415748e+00
  1.194259e+01    2.420443e+00
  1.195846e+01    2.411008e+00
  1.197434e+01    2.369111e+00
  1.199021e+01    2.324284e+00
  1.200609e+01    2.360726e+00
  1.202197e+01    2.330942e+00
  1.203784e+01    2.354935e+00
  1.205372e+01    2.313813e+00
  1.206959e+01    2.289268e+00
  1.208547e+01    2.329736e+00
  1.210134e+01    2.320726e+00
  1.211722e+01    2.377201e+00
  1.213309e+01    2.341029e+00
  1.214897e+01    2.334650e+00
  1.216485e+01    2.329667e+00
  1.218072e+01    2.315738e+00
  1.219660e+01    2.339512e+00
  1.221247e+01    2.348757e+00
  1.222835e+01    2.379707e+00
  1.224422e+01    2.356960e+00
  1.226010e+01    2.306529e+00
  1.227597e+01    2.299509e+00
  1.229185e+01    2.347503e+00
  1.230773e+01    2.331017e+00
  1.232360e+01    2.346918e+00
  1.233948e+01    2.340939e+00
  1.235535e+01    2.345396e+00
  1.237123e+01    2.370103e+00
  1.238710e+01    2.359682e+00
  1.240298e+01    2.363053e+00
  1.241886e+01    2.368079e+00
  1.243473e+01    2.373357e+00
  1.245061e+01    2.377313e+00
  1.246648e+01    2.347208e+00
  1.248236e+01    2.348687e+00
  1.249823e+01    2.396399e+00
  1.251411e+01    2.383651e+00
  1.252998e+01    2.372525e+00
  1.254586e+01    2.398561e+00
  1.256174e+01    2.385849e+00
  1.257761e+01    2.370173e+00
  1.259349e+01    2.375124e+00
  1.260936e+01    2.429736e+00
  1.262524e+01    2.444013e+00
  1.264111e+01    2.422609e+00
  1.265699e+01    2.432289e+00
  1.267286e+01    2.462035e+00
  1.268874e+01    2.514246e+00
  1.270462e+01    2.475086e+00
  1.272049e+01    2.522557e+00
  1.273637e+01    2.532129e+00
  1.275224e+01    2.596729e+00
  1.276812e+01    2.650371e+00
  1.278399e+01    2.622592e+00
  1.279987e+01    2.661123e+00
  1.281574e+01    2.762375e+00
  1.283162e+01    2.786203e+00
  1.284750e+01    2.839326e+00
  1.286337e+01    2.918393e+00
  1.287925e+01    3.046732e+00
  1.289512e+01    3.194506e+00
  1.291100e+01    3.319317e+00
  1.292687e+01    3.462650e+00
  1.294275e+01    3.669797e+00
  1.295862e+01    3.936199e+00
  1.297450e+01    4.254866e+00
  1.299038e+01    4.712200e+00
  1.300625e+01    5.159750e+00
  1.302213e+01    5.835742e+00
  1.303800e+01    6.640665e+00
  1.305388e+01    7.745060e+00
  1.306975e+01    9.086589e+00
  1.308563e+01    1.059221e+01
  1.310150e+01    1.211752e+01
  1.311738e+01    1.366160e+01
  1.313326e+01    1.510152e+01
  1.314913e+01    1.649058e+01
  1.316501e+01    1.793283e+01
  1.318088e+01    1.902821e+01
  1.319676e+01    1.974762e+01
  1.321263e+01    1.952339e+01
  1.322851e+01    1.826554e+01
  1.324438e+01    1.621560e+01
  1.326026e+01    1.377340e+01
  1.327614e+01    1.158410e+01
  1.329201e+01    9.721021e+00
  1.330789e+01    8.209127e+00
  1.332376e+01    7.094953e+00
  1.333964e+01    6.153131e+00
  1.335551e+01    5.447190e+00
  1.337139e+01    4.887181e+00
  1.338727e+01    4.415703e+00
  1.340314e+01    4.056711e+00
  1.341902e+01    3.750512e+00
  1.343489e+01    3.525599e+00
  1.345077e+01    3.332607e+00
  1.346664e+01    3.159660e+00
  1.348252e+01    3.001604e+00
  1.349839e+01    2.914794e+00
  1.351427e+01    2.834684e+00
  1.353015e+01    2.734530e+00
  1.354602e+01    2.693292e+00
  1.356190e+01    2.673145e+00
  1.357777e+01    2.555268e+00
  1.359365e+01    2.524058e+00
  1.360952e+01    2.471374e+00
  1.362540e+01    2.448191e+00
  1.364127e+01    2.474648e+00
  1.365715e+01    2.408796e+00
  1.367303e+01    2.360679e+00
  1.368890e+01    2.342665e+00
  1.370478e+01    2.298334e+00
  1.372065e+01    2.283206e+00
  1.373653e+01    2.281333e+00
  1.375240e+01    2.245906e+00
  1.376828e+01    2.242372e+00
  1.378415e+01    2.223366e+00
  1.380003e+01    2.222944e+00
  1.381591e+01    2.183667e+00
  1.383178e+01    2.198194e+00
  1.384766e+01    2.194287e+00
  1.386353e+01    2.156719e+00
  1.387941e+01    2.130049e+00
  1.389528e+01    2.117565e+00
  1.391116e+01    2.112746e+00
  1.392703e+01    2.140670e+00
  1.394291e+01    2.142124e+00
  1.395879e+01    2.139168e+00
  1.397466e+01    2.154767e+00
  1.399054e+01    2.119347e+00
  1.400641e+01    2.065486e+00
  1.402229e+01    2.078023e+00
  1.403816e+01    2.074310e+00
  1.405404e+01    2.025546e+00
  1.406991e+01    2.017823e+00
  1.408579e+01    2.037723e+00
  1.410167e+01    2.034341e+00
  1.411754e+01    1.998822e+00
  1.413342e+01    2.010369e+00
  1.414929e+01    2.041382e+00
  1.416517e+01    2.024481e+00
  1.418104e+01    2.022880e+00
  1.419692e+01    2.045050e+00
  1.421279e+01    2.004752e+00
  1.422867e+01    1.990274e+00
  1.424455e+01    2.037326e+00
  1.426042e+01    2.003090e+00
  1.427630e+01    1.966377e+00
  1.429217e+01    1.977322e+00
  1.430805e+01    1.997714e+00
  1.432392e+01    1.996324e+00
  1.433980e+01    1.978122e+00
  1.435568e+01    1.952699e+00
  1.437155e+01    1.948187e+00
  1.438743e+01    1.949537e+00
  1.440330e+01    1.977934e+00
  1.441918e+01    1.980567e+00
  1.443505e+01    1.987353e+00
  1.445093e+01    1.960676e+00
  1.446680e+01    1.943577e+00
  1.448268e+01    1.908619e+00
  1.449856e+01    1.917701e+00
  1.451443e+01    1.934641e+00
  1.453031e+01    1.886309e+00
  1.454618e+01    1.911046e+00
  1.456206e+01    1.924899e+00
  1.457793e+01    1.922526e+00
  1.459381e+01    1.950780e+00
  1.460968e+01    1.968680e+00
  1.462556e+01    1.943063e+00
  1.464144e+01    1.936165e+00
  1.465731e+01    1.935739e+00
  1.467319e+01    1.942020e+00
  1.468906e+01    1.934421e+00
  1.470494e+01    1.948192e+00
  1.472081e+01    1.944761e+00
  1.473669e+01    1.927748e+00
  1.475256e+01    1.898970e+00
  1.476844e+01    1.880052e+00
  1.478432e+01    1.921633e+00
  1.480019e+01    1.909542e+00
  1.481607e+01    1.906398e+00
  1.483194e+01    1.901654e+00
  1.484782e+01    1.939380e+00
  1.486369e+01    1.949682e+00
  1.487957e+01    1.982402e+00
  1.489544e+01    1.977958e+00
  1.491132e+01    1.972113e+00
  1.492720e+01    1.973082e+00
  1.494307e+01    1.991389e+00
  1.495895e+01    2.027066e+00
  1.497482e+01    2.068089e+00
  1.499070e+01    2.096618e+00
  1.500657e+01    2.128251e+00
  1.502245e+01    2.208196e+00
  1.503832e+01    2.276644e+00
  1.505420e+01    2.349705e+00
  1.507008e+01    2.470610e+00
  1.508595e+01    2.592508e+00
  1.510183e+01    2.763247e+00
  1.511770e+01    2.986716e+00
  1.513358e+01    3.283952e+00
  1.514945e+01    3.599049e+00
  1.516533e+01    3.929970e+00
  1.518120e+01    4.354011e+00
  1.519708e+01    4.832253e+00
  1.521296e+01    5.248746e+00
  1.522883e+01    5.674263e+00
  1.524471e+01    6.067566e+00
  1.526058e+01    6.378541e+00
  1.527646e+01    6.512849e+00
  1.529233e+01    6.564495e+00
  1.530821e+01    6.474117e+00
  1.532409e+01    6.232306e+00
  1.533996e+01    5.659062e+00
  1.535584e+01    5.023788e+00
  1.537171e+01    4.393914e+00
  1.538759e+01    3.866042e+00
  1.540346e+01    3.471111e+00
  1.541934e+01    3.125646e+00
  1.543521e+01    2.872069e+00
  1.545109e+01    2.681572e+00
  1.546697e+01    2.552081e+00
  1.548284e+01    2.379838e+00
  1.549872e+01    2.229530e+00
  1.551459e+01    2.193321e+00
  1.553047e+01    2.120407e+00
  1.554634e+01    2.047827e+00
  1.556222e+01    2.027438e+00
  1.557809e+01    1.954246e+00
  1.559397e+01    1.929989e+00
  1.560985e+01    1.889461e+00
  1.562572e+01    1.834578e+00
  1.564160e+01    1.841641e+00
  1.565747e+01    1.844187e+00
  1.567335e+01    1.807446e+00
  1.568922e+01    1.794439e+00
  1.570510e+01    1.780222e+00
  1.572097e+01    1.775518e+00
  1.573685e+01    1.749755e+00
  1.575273e+01    1.741857e+00
  1.576860e+01    1.720360e+00
  1.578448e+01    1.753879e+00
  1.580035e+01    1.741001e+00
  1.581623e+01    1.744460e+00
  1.583210e+01    1.739441e+00
  1.584798e+01    1.736487e+00
  1.586385e+01    1.683672e+00
  1.587973e+01    1.691824e+00
  1.589561e+01    1.712544e+00
  1.591148e+01    1.693319e+00
  1.592736e+01    1.660235e+00
  1.594323e+01    1.633707e+00
  1.595911e+01    1.663034e+00
  1.597498e+01    1.614166e+00
  1.599086e+01    1.651020e+00
  1.600673e+01    1.650688e+00
  1.602261e+01    1.659133e+00
  1.603849e+01    1.651027e+00
  1.605436e+01    1.663291e+00
  1.607024e+01    1.666922e+00
  1.608611e+01    1.604722e+00
  1.610199e+01    1.589843e+00
  1.611786e+01    1.635960e+00
  1.613374e+01    1.617923e+00
  1.614961e+01    1.601041e+00
  1.616549e+01    1.609219e+00
  1.618137e+01    1.594127e+00
  1.619724e+01    1.580197e+00
  1.621312e+01    1.580976e+00
  1.622899e+01    1.606475e+00
  1.624487e+01    1.600868e+00
  1.626074e+01    1.572791e+00
  1.627662e+01    1.586508e+00
  1.629250e+01    1.568754e+00
  1.630837e+01    1.575127e+00
  1.632425e+01    1.555672e+00
  1.634012e+01    1.522689e+00
  1.635600e+01    1.517875e+00
  1.637187e+01    1.566278e+00
  1.638775e+01    1.537710e+00
  1.640362e+01    1.556318e+00
  1.641950e+01    1.543985e+00
  1.643538e+01    1.532009e+00
  1.645125e+01    1.532005e+00
  1.646713e+01    1.516733e+00
  1.648300e+01    1.526134e+00
  1.649888e+01    1.529612e+00
  1.651475e+01    1.500619e+00
  1.653063e+01    1.524864e+00
  1.654650e+01    1.525936e+00
  1.656238e+01    1.511204e+00
  1.657826e+01    1.482455e+00
  1.659413e+01    1.527527e+00
  1.661001e+01    1.495541e+00
  1.662588e+01    1.474831e+00
  1.664176e+01    1.509867e+00
  1.665763e+01    1.509385e+00
  1.667351e+01    1.492844e+00
  1.668938e+01    1.507874e+00
  1.670526e+01    1.505780e+00
  1.672114e+01    1.502661e+00
  1.673701e+01    1.506066e+00
  1.675289e+01    1.489819e+00
  1.676876e+01    1.499807e+00
  1.678464e+01    1.475198e+00
  1.680051e+01    1.469833e+00
  1.681639e+01    1.475717e+00
  1.683226e+01    1.475890e+00
  1.684814e+01    1.472062e+00
  1.686402e+01    1.486513e+00
  1.687989e+01    1.471933e+00
  1.689577e+01    1.477960e+00
  1.691164e+01    1.481566e+00
  1.692752e+01    1.455574e+00
  1.694339e+01    1.460301e+00
  1.695927e+01    1.467623e+00
  1.697514e+01    1.456502e+00
  1.699102e+01    1.440824e+00
  1.700690e+01    1.472093e+00
  1.702277e+01    1.441608e+00
  1.703865e+01    1.451034e+00
  1.705452e+01    1.458540e+00
  1.707040e+01    1.441171e+00
  1.708627e+01    1.412227e+00
  1.710215e+01    1.417255e+00
  1.711802e+01    1.448497e+00
  1.713390e+01    1.430130e+00
  1.714978e+01    1.426115e+00
  1.716565e+01    1.432331e+00
  1.718153e+01    1.416983e+00
  1.719740e+01    1.430299e+00
  1.721328e+01    1.449390e+00
  1.722915e+01    1.437023e+00
  1.724503e+01    1.389610e+00
  1.726091e+01    1.372012e+00
  1.727678e+01    1.355757e+00
  1.729266e+01    1.401581e+00
  1.730853e+01    1.384270e+00
  1.732441e+01    1.383164e+00
  1.734028e+01    1.413532e+00
  1.735616e+01    1.406580e+00
  1.737203e+01    1.390541e+00
  1.738791e+01    1.401695e+00
  1.740379e+01    1.431999e+00
  1.741966e+01    1.403139e+00
  1.743554e+01    1.374123e+00
  1.745141e+01    1.397238e+00
  1.746729e+01    1.377961e+00
  1.748316e+01    1.403400e+00
  1.749904e+01    1.404133e+00
  1.751491e+01    1.376797e+00
  1.753079e+01    1.377741e+00
  1.754667e+01    1.343889e+00
  1.756254e+01    1.352872e+00
  1.757842e+01    1.350540e+00
  1.759429e+01    1.357143e+00
  1.761017e+01    1.371832e+00
  1.762604e+01    1.404134e+00
  1.764192e+01    1.405603e+00
  1.765779e+01    1.371512e+00
  1.767367e+01    1.354553e+00
  1.768955e+01    1.359855e+00
  1.770542e+01    1.354213e+00
  1.772130e+01    1.360075e+00
  1.773717e+01    1.353402e+00
  1.775305e+01    1.321284e+00
  1.776892e+01    1.329497e+00
  1.778480e+01    1.324327e+00
  1.780067e+01    1.371587e+00
  1.781655e+01    1.338898e+00
  1.783243e+01    1.316888e+00
  1.784830e+01    1.348695e+00
  1.786418e+01    1.329323e+00
  1.788005e+01    1.320693e+00
  1.789593e+01    1.347563e+00
  1.791180e+01    1.332442e+00
  1.792768e+01    1.335487e+00
  1.794355e+01    1.337959e+00
  1.795943e+01    1.333949e+00
  1.797531e+01    1.332505e+00
  1.799118e+01    1.322745e+00
  1.800706e+01    1.328305e+00
  1.802293e+01    1.321302e+00
  1.803881e+01    1.326926e+00
  1.805468e+01    1.309597e+00
  1.807056e+01    1.320679e+00
  1.808643e+01    1.297053e+00
  1.810231e+01    1.290121e+00
  1.811819e+01    1.280247e+00
  1.813406e+01    1.287071e+00
  1.814994e+01    1.302440e+00
  1.816581e+01    1.291459e+00
  1.818169e+01    1.278944e+00
  1.819756e+01    1.288221e+00
  1.821344e+01    1.303483e+00
  1.822932e+01    1.274462e+00
  1.824519e+01    1.254610e+00
  1.826107e+01    1.259219e+00
  1.827694e+01    1.267173e+00
  1.829282e+01    1.300719e+00
  1.830869e+01    1.294669e+00
  1.832457e+01    1.256666e+00
  1.834044e+01    1.275715e+00
  1.835632e+01    1.303832e+00
  1.837220e+01    1.279144e+00
  1.838807e+01    1.287700e+00
  1.840395e+01    1.267947e+00
  1.841982e+01    1.285702e+00
  1.843570e+01    1.269906e+00
  1.845157e+01    1.255233e+00
  1.846745e+01    1.288790e+00
  1.848332e+01    1.274096e+00
  1.849920e+01    1.250222e+00
  1.851508e+01    1.262766e+00
  1.853095e+01    1.275612e+00
  1.854683e+01    1.283510e+00
  1.856270e+01    1.291453e+00
  1.857858e+01    1.276217e+00
  1.859445e+01    1.254179e+00
  1.861033e+01    1.225725e+00
  1.862620e+01    1.231865e+00
  1.864208e+01    1.256976e+00
  1.865796e+01    1.253699e+00
  1.867383e+01    1.251586e+00
  1.868971e+01    1.240676e+00
  1.870558e+01    1.234382e+00
  1.872146e+01    1.250307e+00
  1.873733e+01    1.266384e+00
  1.875321e+01    1.254227e+00
  1.876908e+01    1.255184e+00
  1.878496e+01    1.241749e+00
  1.880084e+01    1.226845e+00
  1.881671e+01    1.249377e+00
  1.883259e+01    1.233297e+00
  1.884846e+01    1.214214e+00
  1.886434e+01    1.212318e+00
  1.888021e+01    1.200783e+00
  1.889609e+01    1.198116e+00
  1.891196e+01    1.224517e+00
  1.892784e+01    1.246153e+00
  1.894372e+01    1.225693e+00
  1.895959e+01    1.202043e+00
  1.897547e+01    1.194479e+00
  1.899134e+01    1.209418e+00
  1.900722e+01    1.219246e+00
  1.902309e+01    1.195098e+00
  1.903897e+01    1.208756e+00
  1.905484e+01    1.217931e+00
  1.907072e+01    1.237413e+00
  1.908660e+01    1.208111e+00
  1.910247e+01    1.186554e+00
  1.911835e+01    1.197187e+00
  1.913422e+01    1.214845e+00
  1.915010e+01    1.210232e+00
  1.916597e+01    1.195549e+00
  1.918185e+01    1.201685e+00
  1.919773e+01    1.201520e+00
  1.921360e+01    1.226275e+00
  1.922948e+01    1.205728e+00
  1.924535e+01    1.196095e+00
  1.926123e+01    1.200423e+00
  1.927710e+01    1.169107e+00
  1.929298e+01    1.158083e+00
  1.930885e+01    1.189420e+00
  1.932473e+01    1.186587e+00
  1.934061e+01    1.212140e+00
  1.935648e+01    1.180793e+00
  1.937236e+01    1.177545e+00
  1.938823e+01    1.184255e+00
  1.940411e+01    1.185386e+00
  1.941998e+01    1.198924e+00
  1.943586e+01    1.180392e+00
  1.945173e+01    1.178993e+00
  1.946761e+01    1.194248e+00
  1.948349e+01    1.191244e+00
  1.949936e+01    1.181679e+00
  1.951524e+01    1.153616e+00
  1.953111e+01    1.159645e+00
  1.954699e+01    1.169511e+00
  1.956286e+01    1.176820e+00
  1.957874e+01    1.145006e+00
  1.959461e+01    1.189692e+00
  1.961049e+01    1.187782e+00
  1.962637e+01    1.164776e+00
  1.964224e+01    1.157333e+00
  1.965812e+01    1.132855e+00
  1.967399e+01    1.184471e+00
  1.968987e+01    1.171052e+00
  1.970574e+01    1.157754e+00
  1.972162e+01    1.151314e+00
  1.973749e+01    1.129793e+00
  1.975337e+01    1.124986e+00
  1.976925e+01    1.151912e+00
  1.978512e+01    1.133978e+00
  1.980100e+01    1.135468e+00
  1.981687e+01    1.124813e+00
  1.983275e+01    1.125744e+00
  1.984862e+01    1.136500e+00
  1.986450e+01    1.139546e+00
  1.988037e+01    1.112950e+00
  1.989625e+01    1.135319e+00
  1.991213e+01    1.144061e+00
  1.992800e+01    1.149427e+00
  1.994388e+01    1.163241e+00
  1.995975e+01    1.165439e+00
  1.997563e+01    1.168457e+00
  1.999150e+01    1.162342e+00
  2.000738e+01    1.149679e+00
  2.002325e+01    1.154855e+00
  2.003913e+01    1.142606e+00
  2.005501e+01    1.124505e+00
  2.007088e+01    1.112119e+00
  2.008676e+01    1.141999e+00
  2.010263e+01    1.132600e+00
  2.011851e+01    1.123612e+00
  2.013438e+01    1.111186e+00
  2.015026e+01    1.114936e+00
  2.016614e+01    1.125809e+00
  2.018201e+01    1.124562e+00
  2.019789e+01    1.123824e+00
  2.021376e+01    1.107694e+00
  2.022964e+01    1.114865e+00
  2.024551e+01    1.110454e+00
  2.026139e+01    1.131539e+00
  2.027726e+01    1.122796e+00
  2.029314e+01    1.136303e+00
  2.030902e+01    1.125811e+00
  2.032489e+01    1.096901e+00
  2.034077e+01    1.128931e+00
  2.035664e+01    1.115087e+00
  2.037252e+01    1.089097e+00
  2.038839e+01    1.115118e+00
  2.040427e+01    1.106425e+00
  2.042014e+01    1.097911e+00
  2.043602e+01    1.099757e+00
  2.045190e+01    1.102057e+00
  2.046777e+01    1.109313e+00
  2.048365e+01    1.128270e+00
  2.049952e+01    1.149253e+00
  2.051540e+01    1.125215e+00
  2.053127e+01    1.122420e+00
  2.054715e+01    1.113168e+00
  2.056302e+01    1.084063e+00
  2.057890e+01    1.087443e+00
  2.059478e+01    1.095410e+00
  2.061065e+01    1.086786e+00
  2.062653e+01    1.101366e+00
  2.064240e+01    1.104445e+00
  2.065828e+01    1.102832e+00
  2.067415e+01    1.079374e+00
  2.069003e+01    1.090394e+00
  2.070590e+01    1.080326e+00
  2.072178e+01    1.097803e+00
  2.073766e+01    1.108333e+00
  2.075353e+01    1.088257e+00
  2.076941e+01    1.086636e+00
  2.078528e+01    1.111828e+00
  2.080116e+01    1.085848e+00
  2.081703e+01    1.081641e+00
  2.083291e+01    1.106441e+00
  2.084878e+01    1.103842e+00
  2.086466e+01    1.102602e+00
  2.088054e+01    1.092593e+00
  2.089641e+01    1.094326e+00
  2.091229e+01    1.085642e+00
  2.092816e+01    1.090208e+00
  2.094404e+01    1.077703e+00
  2.095991e+01    1.100074e+00
  2.097579e+01    1.104437e+00
  2.099166e+01    1.090825e+00
  2.100754e+01    1.101920e+00
  2.102342e+01    1.084046e+00
  2.103929e+01    1.091098e+00
  2.105517e+01    1.103871e+00
  2.107104e+01    1.115351e+00
  2.108692e+01    1.090930e+00
  2.110279e+01    1.088969e+00
  2.111867e+01    1.098311e+00
  2.113455e+01    1.124015e+00
  2.115042e+01    1.107655e+00
  2.116630e+01    1.112289e+00
  2.118217e+01    1.118112e+00
  2.119805e+01    1.103685e+00
  2.121392e+01    1.124356e+00
  2.122980e+01    1.113512e+00
  2.124567e+01    1.120002e+00
  2.126155e+01    1.134608e+00
  2.127743e+01    1.143206e+00
  2.129330e+01    1.134918e+00
  2.130918e+01    1.151483e+00
  2.132505e+01    1.141633e+00
  2.134093e+01    1.140543e+00
  2.135680e+01    1.152861e+00
  2.137268e+01    1.152424e+00
  2.138855e+01    1.172449e+00
  2.140443e+01    1.193425e+00
  2.142031e+01    1.194198e+00
  2.143618e+01    1.223346e+00
  2.145206e+01    1.237726e+00
  2.146793e+01    1.252345e+00
  2.148381e+01    1.288039e+00
  2.149968e+01    1.288440e+00
  2.151556e+01    1.303565e+00
  2.153143e+01    1.321569e+00
  2.154731e+01    1.339543e+00
  2.156319e+01    1.408323e+00
  2.157906e+01    1.455254e+00
  2.159494e+01    1.480962e+00
  2.161081e+01    1.553904e+00
  2.162669e+01    1.638674e+00
  2.164256e+01    1.687272e+00
  2.165844e+01    1.819138e+00
  2.167431e+01    1.973154e+00
  2.169019e+01    2.140293e+00
  2.170607e+01    2.337386e+00
  2.172194e+01    2.546082e+00
  2.173782e+01    2.854710e+00
  2.175369e+01    3.204712e+00
  2.176957e+01    3.647392e+00
  2.178544e+01    4.231606e+00
  2.180132e+01    4.869095e+00
  2.181719e+01    5.610868e+00
  2.183307e+01    6.358474e+00
  2.184895e+01    7.164833e+00
  2.186482e+01    8.075550e+00
  2.188070e+01    8.974225e+00
  2.189657e+01    9.860929e+00
  2.191245e+01    1.055734e+01
  2.192832e+01    1.097360e+01
  2.194420e+01    1.092939e+01
  2.196007e+01    1.045656e+01
  2.197595e+01    9.545238e+00
  2.199183e+01    8.438432e+00
  2.200770e+01    7.189190e+00
  2.202358e+01    6.037788e+00
  2.203945e+01    5.082193e+00
  2.205533e+01    4.414557e+00
  2.207120e+01    3.752674e+00
  2.208708e+01    3.246728e+00
  2.210296e+01    2.925353e+00
  2.211883e+01    2.585189e+00
  2.213471e+01    2.340680e+00
  2.215058e+01    2.148106e+00
  2.216646e+01    1.968003e+00
  2.218233e+01    1.838862e+00
  2.219821e+01    1.729185e+00
  2.221408e+01    1.608827e+00
  2.222996e+01    1.543086e+00
  2.224584e+01    1.487505e+00
  2.226171e+01    1.454573e+00
  2.227759e+01    1.379486e+00
  2.229346e+01    1.351107e+00
  2.230934e+01    1.296987e+00
  2.232521e+01    1.248817e+00
  2.234109e+01    1.249714e+00
  2.235696e+01    1.190693e+00
  2.237284e+01    1.178616e+00
  2.238872e+01    1.154954e+00
  2.240459e+01    1.143482e+00
  2.242047e+01    1.129472e+00
  2.243634e+01    1.122011e+00
  2.245222e+01    1.110005e+00
  2.246809e+01    1.103628e+00
  2.248397e+01    1.085602e+00
  2.249984e+01    1.075161e+00
  2.251572e+01    1.056451e+00
  2.253160e+01    1.028595e+00
  2.254747e+01    1.042598e+00
  2.256335e+01    1.015859e+00
  2.257922e+01    1.030921e+00
  2.259510e+01    1.010636e+00
  2.261097e+01    1.007976e+00
  2.262685e+01    1.015781e+00
  2.264272e+01    1.017352e+00
  2.265860e+01    9.835364e-01
  2.267448e+01    9.785613e-01
  2.269035e+01    9.962169e-01
  2.270623e+01    9.583662e-01
  2.272210e+01    9.530205e-01
  2.273798e+01    9.750223e-01
  2.275385e+01    9.655573e-01
  2.276973e+01    9.525992e-01
  2.278560e+01    9.495375e-01
  2.280148e+01    9.551381e-01
  2.281736e+01    9.689285e-01
  2.283323e+01    9.571967e-01
  2.284911e+01    9.495910e-01
  2.286498e+01    9.326249e-01
  2.288086e+01    9.433357e-01
  2.289673e+01    9.474182e-01
  2.291261e+01    9.613854e-01
  2.292848e+01    9.350476e-01
  2.294436e+01    9.308400e-01
  2.296024e+01    9.273606e-01
  2.297611e+01    9.179494e-01
  2.299199e+01    9.306867e-01
  2.300786e+01    9.140236e-01
  2.302374e+01    8.837470e-01
  2.303961e+01    9.032626e-01
  2.305549e+01    9.195203e-01
  2.307137e+01    9.007791e-01
  2.308724e+01    8.967909e-01
  2.310312e+01    9.036267e-01
  2.311899e+01    9.050311e-01
  2.313487e+01    9.306366e-01
  2.315074e+01    9.039668e-01
  2.316662e+01    9.038568e-01
  2.318249e+01    8.822318e-01
  2.319837e+01    8.855428e-01
  2.321425e+01    8.860033e-01
  2.323012e+01    8.833108e-01
  2.324600e+01    8.972216e-01
  2.326187e+01    9.053631e-01
  2.327775e+01    9.032530e-01
  2.329362e+01    8.987760e-01
  2.330950e+01    8.740220e-01
  2.332537e+01    8.758450e-01
  2.334125e+01    8.817301e-01
  2.335713e+01    8.702673e-01
  2.337300e+01    8.805444e-01
  2.338888e+01    8.918505e-01
  2.340475e+01    8.661289e-01
  2.342063e+01    8.720019e-01
  2.343650e+01    8.862135e-01
  2.345238e+01    8.894426e-01
  2.346825e+01    8.827998e-01
  2.348413e+01    8.637205e-01
  2.350001e+01    8.501223e-01
  2.351588e+01    8.536776e-01
  2.353176e+01    8.571010e-01
  2.354763e+01    8.425095e-01
  2.356351e+01    8.633958e-01
  2.357938e+01    8.672429e-01
  2.359526e+01    8.615678e-01
  2.361113e+01    8.624589e-01
  2.362701e+01    8.544496e-01
  2.364289e+01    8.494830e-01
  2.365876e+01    8.473813e-01
  2.367464e+01    8.426360e-01
  2.369051e+01    8.526288e-01
  2.370639e+01    8.629428e-01
  2.372226e+01    8.503426e-01
  2.373814e+01    8.325598e-01
  2.375401e+01    8.304606e-01
  2.376989e+01    8.275371e-01
  2.378577e+01    8.302392e-01
  2.380164e+01    8.372142e-01
  2.381752e+01    8.322126e-01
  2.383339e+01    8.241983e-01
  2.384927e+01    8.056709e-01
  2.386514e+01    8.089046e-01
  2.388102e+01    7.988825e-01
  2.389689e+01    8.111810e-01
  2.391277e+01    7.891669e-01
  2.392865e+01    8.162771e-01
  2.394452e+01    8.264219e-01
  2.396040e+01    8.152536e-01
  2.397627e+01    8.071477e-01
  2.399215e+01    7.939647e-01
  2.400802e+01    8.126710e-01
  2.402390e+01    8.105977e-01
  2.403978e+01    7.968079e-01
  2.405565e+01    8.051607e-01
  2.407153e+01    8.104993e-01
  2.408740e+01    8.028727e-01
  2.410328e+01    7.950025e-01
  2.411915e+01    8.050418e-01
  2.413503e+01    8.018237e-01
  2.415090e+01    7.971674e-01
  2.416678e+01    7.940543e-01
  2.418266e+01    7.848573e-01
  2.419853e+01    7.944892e-01
  2.421441e+01    7.805609e-01
  2.423028e+01    7.935441e-01
  2.424616e+01    7.830498e-01
  2.426203e+01    7.986953e-01
  2.427791e+01    8.104649e-01
  2.429378e+01    8.179705e-01
  2.430966e+01    8.013408e-01
  2.432554e+01    8.064813e-01
  2.434141e+01    8.188739e-01
  2.435729e+01    8.186027e-01
  2.437316e+01    8.221118e-01
  2.438904e+01    7.987902e-01
  2.440491e+01    7.973350e-01
  2.442079e+01    7.984028e-01
  2.443666e+01    8.052012e-01
  2.445254e+01    8.015795e-01
  2.446842e+01    7.916446e-01
  2.448429e+01    7.839240e-01
  2.450017e+01    8.085808e-01
  2.451604e+01    8.051133e-01
  2.453192e+01    8.138075e-01
  2.454779e+01    8.026146e-01
  2.456367e+01    7.868609e-01
  2.457954e+01    7.981195e-01
  2.459542e+01    8.043616e-01
  2.461130e+01    8.131703e-01
  2.462717e+01    8.109868e-01
  2.464305e+01    8.046774e-01
  2.465892e+01    7.976925e-01
  2.467480e+01    8.068529e-01
  2.469067e+01    8.110077e-01
  2.470655e+01    7.917829e-01
  2.472242e+01    8.049032e-01
  2.473830e+01    8.047355e-01
  2.475418e+01    8.082421e-01
  2.477005e+01    8.130106e-01
  2.478593e+01    7.901834e-01
  2.480180e+01    7.907200e-01
  2.481768e+01    8.108128e-01
  2.483355e+01    8.141906e-01
  2.484943e+01    7.967083e-01
  2.486530e+01    8.089632e-01
  2.488118e+01    8.045712e-01
  2.489706e+01    7.996044e-01
  2.491293e+01    8.092486e-01
  2.492881e+01    8.140070e-01
  2.494468e+01    8.058258e-01
  2.496056e+01    8.198344e-01
  2.497643e+01    8.029393e-01
  2.499231e+01    8.027127e-01
  2.500819e+01    8.099757e-01
  2.502406e+01    8.274609e-01
  2.503994e+01    8.243325e-01
  2.505581e+01    8.309281e-01
  2.507169e+01    8.240735e-01
  2.508756e+01    8.161422e-01
  2.510344e+01    8.268113e-01
  2.511931e+01    8.216005e-01
  2.513519e+01    8.273479e-01
  2.515107e+01    8.264513e-01
  2.516694e+01    8.413668e-01
  2.518282e+01    8.588779e-01
  2.519869e+01    8.781261e-01
  2.521457e+01    8.708714e-01
  2.523044e+01    8.597603e-01
  2.524632e+01    8.410977e-01
  2.526219e+01    8.431299e-01
  2.527807e+01    8.608815e-01
  2.529395e+01    8.750534e-01
  2.530982e+01    8.853083e-01
  2.532570e+01    8.882254e-01
  2.534157e+01    9.114419e-01
  2.535745e+01    9.194478e-01
  2.537332e+01    8.942716e-01
  2.538920e+01    9.339535e-01
  2.540507e+01    9.356254e-01
  2.542095e+01    9.347452e-01
  2.543683e+01    9.491550e-01
  2.545270e+01    9.561350e-01
  2.546858e+01    9.584984e-01
  2.548445e+01    9.675084e-01
  2.550033e+01    9.670219e-01
  2.551620e+01    9.833329e-01
  2.553208e+01    1.003886e+00
  2.554795e+01    1.025136e+00
  2.556383e+01    1.014980e+00
  2.557971e+01    1.038858e+00
  2.559558e+01    1.077020e+00
  2.561146e+01    1.105316e+00
  2.562733e+01    1.149488e+00
  2.564321e+01    1.175098e+00
  2.565908e+01    1.199390e+00
  2.567496e+01    1.262773e+00
  2.569083e+01    1.303910e+00
  2.570671e+01    1.393802e+00
  2.572259e+01    1.473381e+00
  2.573846e+01    1.589230e+00
  2.575434e+01    1.689330e+00
  2.577021e+01    1.819262e+00
  2.578609e+01    1.993681e+00
  2.580196e+01    2.233673e+00
  2.581784e+01    2.467438e+00
  2.583371e+01    2.755423e+00
  2.584959e+01    3.200085e+00
  2.586547e+01    3.645740e+00
  2.588134e+01    4.170194e+00
  2.589722e+01    4.806061e+00
  2.591309e+01    5.552349e+00
  2.592897e+01    6.327769e+00
  2.594484e+01    7.170180e+00
  2.596072e+01    7.869586e+00
  2.597660e+01    8.569407e+00
  2.599247e+01    9.010835e+00
  2.600835e+01    9.160424e+00
  2.602422e+01    8.923809e+00
  2.604010e+01    8.377427e+00
  2.605597e+01    7.513235e+00
  2.607185e+01    6.627648e+00
  2.608772e+01    5.680042e+00
  2.610360e+01    4.862549e+00
  2.611948e+01    4.133982e+00
  2.613535e+01    3.540930e+00
  2.615123e+01    3.122605e+00
  2.616710e+01    2.701168e+00
  2.618298e+01    2.384782e+00
  2.619885e+01    2.149532e+00
  2.621473e+01    1.949392e+00
  2.623060e+01    1.793086e+00
  2.624648e+01    1.676280e+00
  2.626236e+01    1.566692e+00
  2.627823e+01    1.495656e+00
  2.629411e+01    1.409368e+00
  2.630998e+01    1.337640e+00
  2.632586e+01    1.273784e+00
  2.634173e+01    1.212642e+00
  2.635761e+01    1.188272e+00
  2.637348e+01    1.146034e+00
  2.638936e+01    1.125974e+00
  2.640524e+01    1.068119e+00
  2.642111e+01    1.071097e+00
  2.643699e+01    1.054936e+00
  2.645286e+01    1.042051e+00
  2.646874e+01    1.028928e+00
  2.648461e+01    1.020268e+00
  2.650049e+01    1.007019e+00
  2.651636e+01    9.864683e-01
  2.653224e+01    9.628202e-01
  2.654812e+01    9.547638e-01
  2.656399e+01    9.667029e-01
  2.657987e+01    9.502346e-01
  2.659574e+01    9.572437e-01
  2.661162e+01    9.768970e-01
  2.662749e+01    9.566036e-01
  2.664337e+01    9.395560e-01
  2.665924e+01    9.269720e-01
  2.667512e+01    9.242104e-01
  2.669100e+01    9.119689e-01
  2.670687e+01    9.123990e-01
  2.672275e+01    9.392357e-01
  2.673862e+01    9.255021e-01
  2.675450e+01    9.050635e-01
  2.677037e+01    9.322668e-01
  2.678625e+01    9.199915e-01
  2.680212e+01    9.347818e-01
  2.681800e+01    9.211988e-01
  2.683388e+01    9.061362e-01
  2.684975e+01    9.345313e-01
  2.686563e+01    9.374915e-01
  2.688150e+01    9.390381e-01
  2.689738e+01    9.335139e-01
  2.691325e+01    9.546400e-01
  2.692913e+01    9.427716e-01
  2.694501e+01    9.588772e-01
  2.696088e+01    9.537984e-01
  2.697676e+01    9.697829e-01
  2.699263e+01    1.003281e+00
  2.700851e+01    1.029341e+00
  2.702438e+01    1.027085e+00
  2.704026e+01    1.072191e+00
  2.705613e+01    1.092711e+00
  2.707201e+01    1.125587e+00
  2.708789e+01    1.202247e+00
  2.710376e+01    1.274481e+00
  2.711964e+01    1.344260e+00
  2.713551e+01    1.430011e+00
  2.715139e+01    1.560036e+00
  2.716726e+01    1.695081e+00
  2.718314e+01    1.883755e+00
  2.719901e+01    2.059024e+00
  2.721489e+01    2.223118e+00
  2.723077e+01    2.421013e+00
  2.724664e+01    2.509133e+00
  2.726252e+01    2.584269e+00
  2.727839e+01    2.597263e+00
  2.729427e+01    2.515522e+00
  2.731014e+01    2.359356e+00
  2.732602e+01    2.200232e+00
  2.734189e+01    1.990610e+00
  2.735777e+01    1.770208e+00
  2.737365e+01    1.634453e+00
  2.738952e+01    1.483694e+00
  2.740540e+01    1.403449e+00
  2.742127e+01    1.295224e+00
  2.743715e+01    1.212574e+00
  2.745302e+01    1.163510e+00
  2.746890e+01    1.084123e+00
  2.748477e+01    1.079780e+00
  2.750065e+01    1.054000e+00
  2.751653e+01    1.020285e+00
  2.753240e+01    1.016938e+00
  2.754828e+01    9.530745e-01
  2.756415e+01    9.262050e-01
  2.758003e+01    9.184467e-01
  2.759590e+01    8.997812e-01
  2.761178e+01    9.026350e-01
  2.762765e+01    8.856580e-01
  2.764353e+01    8.863571e-01
  2.765941e+01    8.672901e-01
  2.767528e+01    8.522259e-01
  2.769116e+01    8.664277e-01
  2.770703e+01    8.635716e-01
  2.772291e+01    8.492175e-01
  2.773878e+01    8.468891e-01
  2.775466e+01    8.548309e-01
  2.777054e+01    8.544319e-01
  2.778641e+01    8.371967e-01
  2.780229e+01    8.328144e-01
  2.781816e+01    8.204615e-01
  2.783404e+01    8.371519e-01
  2.784991e+01    8.312821e-01
  2.786579e+01    8.198718e-01
  2.788166e+01    8.343134e-01
  2.789754e+01    8.371471e-01
  2.791342e+01    8.229488e-01
  2.792929e+01    8.003808e-01
  2.794517e+01    8.081506e-01
  2.796104e+01    8.014687e-01
  2.797692e+01    8.130437e-01
  2.799279e+01    8.069067e-01
  2.800867e+01    8.147458e-01
  2.802454e+01    8.159723e-01
  2.804042e+01    8.137795e-01
  2.805630e+01    7.979211e-01
  2.807217e+01    8.057734e-01
  2.808805e+01    8.039897e-01
  2.810392e+01    8.132561e-01
  2.811980e+01    8.184311e-01
  2.813567e+01    8.049083e-01
  2.815155e+01    8.020648e-01
  2.816742e+01    8.050958e-01
  2.818330e+01    7.842604e-01
  2.819918e+01    7.789981e-01
  2.821505e+01    7.756336e-01
  2.823093e+01    7.855105e-01
  2.824680e+01    7.834479e-01
  2.826268e+01    7.967700e-01
  2.827855e+01    7.885548e-01
  2.829443e+01    8.078143e-01
  2.831030e+01    8.027365e-01
  2.832618e+01    7.847139e-01
  2.834206e+01    7.843913e-01
  2.835793e+01    8.019118e-01
  2.837381e+01    8.014457e-01
  2.838968e+01    7.877138e-01
  2.840556e+01    7.730758e-01
  2.842143e+01    7.700037e-01
  2.843731e+01    7.746471e-01
  2.845318e+01    8.026925e-01
  2.846906e+01    7.945632e-01
  2.848494e+01    7.751743e-01
  2.850081e+01    7.701737e-01
  2.851669e+01    7.895111e-01
  2.853256e+01    7.819566e-01
  2.854844e+01    7.755364e-01
  2.856431e+01    7.621493e-01
  2.858019e+01    7.775863e-01
  2.859606e+01    7.766159e-01
  2.861194e+01    7.649422e-01
  2.862782e+01    7.650896e-01
  2.864369e+01    7.640343e-01
  2.865957e+01    7.487824e-01
  2.867544e+01    7.691625e-01
  2.869132e+01    7.768553e-01
  2.870719e+01    7.584214e-01
  2.872307e+01    7.790289e-01
  2.873895e+01    7.642096e-01
  2.875482e+01    7.686316e-01
  2.877070e+01    7.547253e-01
  2.878657e+01    7.768772e-01
  2.880245e+01    7.713516e-01
  2.881832e+01    7.838565e-01
  2.883420e+01    7.813560e-01
  2.885007e+01    7.866328e-01
  2.886595e+01    7.614086e-01
  2.888183e+01    7.489609e-01
  2.889770e+01    7.659923e-01
  2.891358e+01    7.672465e-01
  2.892945e+01    7.384436e-01
  2.894533e+01    7.562175e-01
  2.896120e+01    7.688892e-01
  2.897708e+01    7.587307e-01
  2.899295e+01    7.517628e-01
  2.900883e+01    7.560387e-01
  2.902471e+01    7.450057e-01
  2.904058e+01    7.445288e-01
  2.905646e+01    7.763146e-01
  2.907233e+01    7.806188e-01
  2.908821e+01    7.688988e-01
  2.910408e+01    7.796101e-01
  2.911996e+01    7.605923e-01
  2.913583e+01    7.644188e-01
  2.915171e+01    7.531808e-01
  2.916759e+01    7.474530e-01
  2.918346e+01    7.215580e-01
  2.919934e+01    7.240940e-01
  2.921521e+01    7.420232e-01
  2.923109e+01    7.471251e-01
  2.924696e+01    7.433860e-01
  2.926284e+01    7.374219e-01
  2.927871e+01    7.337844e-01
  2.929459e+01    7.568922e-01
  2.931047e+01    7.424616e-01
  2.932634e+01    7.262304e-01
  2.934222e+01    7.198018e-01
  2.935809e+01    7.375289e-01
  2.937397e+01    7.278585e-01
  2.938984e+01    7.260772e-01
  2.940572e+01    7.405527e-01
  2.942159e+01    7.437370e-01
  2.943747e+01    7.263189e-01
  2.945335e+01    7.533502e-01
  2.946922e+01    7.510235e-01
  2.948510e+01    7.387946e-01
  2.950097e+01    7.373062e-01
  2.951685e+01    7.378915e-01
  2.953272e+01    7.249115e-01
  2.954860e+01    7.326564e-01
  2.956447e+01    7.319426e-01
  2.958035e+01    7.359052e-01
  2.959623e+01    7.362530e-01
  2.961210e+01    7.410574e-01
  2.962798e+01    7.489709e-01
  2.964385e+01    7.311149e-01
  2.965973e+01    7.325866e-01
  2.967560e+01    7.401577e-01
  2.969148e+01    7.424977e-01
  2.970736e+01    7.254065e-01
  2.972323e+01    7.329570e-01
  2.973911e+01    7.284282e-01
  2.975498e+01    7.291381e-01
  2.977086e+01    7.348576e-01
  2.978673e+01    7.327846e-01
  2.980261e+01    7.524297e-01
  2.981848e+01    7.401083e-01
  2.983436e+01    7.351640e-01
  2.985024e+01    7.313720e-01
  2.986611e+01    7.343172e-01
  2.988199e+01    7.520168e-01
  2.989786e+01    7.361115e-01
  2.991374e+01    7.205010e-01
  2.992961e+01    7.279390e-01
  2.994549e+01    7.332294e-01
  2.996136e+01    7.170709e-01
  2.997724e+01    7.369011e-01
  2.999312e+01    7.454581e-01
  3.000899e+01    7.468258e-01
  3.002487e+01    7.592033e-01
  3.004074e+01    7.395850e-01
  3.005662e+01    7.175567e-01
  3.007249e+01    7.302867e-01
  3.008837e+01    7.331051e-01
  3.010424e+01    7.331838e-01
  3.012012e+01    7.219725e-01
  3.013600e+01    7.260314e-01
  3.015187e+01    7.321566e-01
  3.016775e+01    7.293960e-01
  3.018362e+01    7.169313e-01
  3.019950e+01    7.297907e-01
  3.021537e+01    7.578173e-01
  3.023125e+01    7.462351e-01
  3.024712e+01    7.289078e-01
  3.026300e+01    7.265392e-01
  3.027888e+01    7.375530e-01
  3.029475e+01    7.076533e-01
  3.031063e+01    7.129288e-01
  3.032650e+01    7.296408e-01
  3.034238e+01    7.504546e-01
  3.035825e+01    7.255686e-01
  3.037413e+01    6.995421e-01
  3.039000e+01    7.182579e-01
  3.040588e+01    7.268907e-01
  3.042176e+01    7.240615e-01
  3.043763e+01    7.345477e-01
  3.045351e+01    7.309330e-01
  3.046938e+01    7.161562e-01
  3.048526e+01    7.295762e-01
  3.050113e+01    7.403657e-01
  3.051701e+01    7.346748e-01
  3.053288e+01    7.343149e-01
  3.054876e+01    7.078996e-01
  3.056464e+01    7.150997e-01
  3.058051e+01    7.039785e-01
  3.059639e+01    6.882121e-01
  3.061226e+01    6.992906e-01
  3.062814e+01    7.353103e-01
  3.064401e+01    7.347715e-01
  3.065989e+01    7.146819e-01
  3.067577e+01    7.155852e-01
  3.069164e+01    7.307857e-01
  3.070752e+01    7.311519e-01
  3.072339e+01    7.376283e-01
  3.073927e+01    7.361055e-01
  3.075514e+01    7.486175e-01
  3.077102e+01    7.232128e-01
  3.078689e+01    7.030089e-01
  3.080277e+01    7.136225e-01
  3.081865e+01    7.368086e-01
  3.083452e+01    7.282259e-01
  3.085040e+01    7.321084e-01
  3.086627e+01    7.371921e-01
  3.088215e+01    7.410052e-01
  3.089802e+01    7.314226e-01
  3.091390e+01    7.410737e-01
  3.092977e+01    7.336900e-01
  3.094565e+01    7.465229e-01
  3.096153e+01    7.319698e-01
  3.097740e+01    7.418902e-01
  3.099328e+01    7.499641e-01
  3.100915e+01    7.297574e-01
  3.102503e+01    7.304181e-01
  3.104090e+01    7.226122e-01
  3.105678e+01    7.326160e-01
  3.107265e+01    7.358456e-01
  3.108853e+01    7.206748e-01
  3.110441e+01    7.233590e-01
  3.112028e+01    7.523187e-01
  3.113616e+01    7.329043e-01
  3.115203e+01    7.245762e-01
  3.116791e+01    7.387161e-01
  3.118378e+01    7.409530e-01
  3.119966e+01    7.348231e-01
  3.121553e+01    7.422561e-01
  3.123141e+01    7.378882e-01
  3.124729e+01    7.576132e-01
  3.126316e+01    7.501410e-01
  3.127904e+01    7.419606e-01
  3.129491e+01    7.545654e-01
  3.131079e+01    7.437082e-01
  3.132666e+01    7.580880e-01
  3.134254e+01    7.684640e-01
  3.135841e+01    7.619654e-01
  3.137429e+01    7.653906e-01
  3.139017e+01    7.500512e-01
  3.140604e+01    7.696048e-01
  3.142192e+01    7.664918e-01
  3.143779e+01    7.843602e-01
  3.145367e+01    7.720888e-01
  3.146954e+01    7.436824e-01
  3.148542e+01    7.735089e-01
  3.150129e+01    8.010784e-01
  3.151717e+01    7.870192e-01
  3.153305e+01    7.980059e-01
  3.154892e+01    7.923650e-01
  3.156480e+01    7.897125e-01
  3.158067e+01    7.736943e-01
  3.159655e+01    8.073274e-01
  3.161242e+01    8.273936e-01
  3.162830e+01    8.209734e-01
  3.164418e+01    8.176563e-01
  3.166005e+01    8.362757e-01
  3.167593e+01    8.631272e-01
  3.169180e+01    8.830175e-01
  3.170768e+01    9.226123e-01
  3.172355e+01    9.424600e-01
  3.173943e+01    9.840533e-01
  3.175530e+01    1.015299e+00
  3.177118e+01    1.082070e+00
  3.178706e+01    1.134235e+00
  3.180293e+01    1.203471e+00
  3.181881e+01    1.284908e+00
  3.183468e+01    1.389987e+00
  3.185056e+01    1.536570e+00
  3.186643e+01    1.693247e+00
  3.188231e+01    1.843550e+00
  3.189818e+01    2.035744e+00
  3.191406e+01    2.232703e+00
  3.192994e+01    2.403147e+00
  3.194581e+01    2.523107e+00
  3.196169e+01    2.591054e+00
  3.197756e+01    2.580188e+00
  3.199344e+01    2.463296e+00
  3.200931e+01    2.332141e+00
  3.202519e+01    2.153595e+00
  3.204106e+01    1.946957e+00
  3.205694e+01    1.761164e+00
  3.207282e+01    1.544447e+00
  3.208869e+01    1.430576e+00
  3.210457e+01    1.321894e+00
  3.212044e+01    1.181797e+00
  3.213632e+01    1.105322e+00
  3.215219e+01    1.077663e+00
  3.216807e+01    1.015183e+00
  3.218394e+01    9.509329e-01
  3.219982e+01    9.072585e-01
  3.221570e+01    9.052785e-01
  3.223157e+01    9.063153e-01
  3.224745e+01    8.539145e-01
  3.226332e+01    8.533241e-01
  3.227920e+01    8.351551e-01
  3.229507e+01    8.112620e-01
  3.231095e+01    8.104205e-01
  3.232682e+01    8.054657e-01
  3.234270e+01    7.762463e-01
  3.235858e+01    7.815387e-01
  3.237445e+01    7.651149e-01
  3.239033e+01    7.766236e-01
  3.240620e+01    7.757690e-01
  3.242208e+01    7.848770e-01
  3.243795e+01    7.747513e-01
  3.245383e+01    7.664915e-01
  3.246970e+01    7.599046e-01
  3.248558e+01    7.418184e-01
  3.250146e+01    7.637798e-01
  3.251733e+01    7.650039e-01
  3.253321e+01    7.365034e-01
  3.254908e+01    7.440042e-01
