# == pyFAI calibration ==
# Distance Sample to Detector: 0.3999999939076516 m
# PONI: 9.750e-02, 1.135e-01 m
# Rotations: -0.000175 0.000000 -0.000000 rad
# 
# == Fit2d calibration ==
# Distance Sample-beamCenter: 400.000 mm
# Center: x=1514.000, y=1300.000 pix
# Tilt: 0.010 deg  TiltPlanRot: 0.010 deg
# 
# Detector Detector	 Spline= None	 PixelSize= 7.500e-05, 7.500e-05 m
#    Detector has a mask: False 
#    Detector has a dark current: False 
#    detector has a flat field: False 
# 
# Wavelength: 6.888e-11 m
# Mask applied: user provided
# Dark current applied: False
# Flat field applied: False
# Polarization factor: 0.99
# Normalization factor: 1.0
# --> /home/myspot/data/2024_07_Rosario/Ru-CGO-ex/2024-07-27_002_Ru-CGO-ex_Activtation_ramp_000002_data_000093.dat
#       q_nm^-1             I 
  2.003187e-02    0.000000e+00
  3.590745e-02    3.429401e-02
  5.178302e-02    9.527961e-02
  6.765859e-02    1.491516e-01
  8.353417e-02    1.724706e-01
  9.940974e-02    2.349718e-01
  1.152853e-01    1.324316e-01
  1.311609e-01    4.707323e-02
  1.470365e-01    1.604889e-02
  1.629120e-01    3.038508e-02
  1.787876e-01    1.797003e-03
  1.946632e-01    2.098279e-02
  2.105388e-01    1.941700e-02
  2.264143e-01    6.001344e-02
  2.422899e-01    5.799422e-02
  2.581655e-01    3.408228e-02
  2.740411e-01    4.219547e-03
  2.899166e-01    8.168857e-03
  3.057922e-01    2.157723e-02
  3.216678e-01    3.783897e-02
  3.375433e-01    6.560403e-02
  3.534189e-01    3.470326e-02
  3.692945e-01    1.335052e-02
  3.851701e-01    3.973294e-02
  4.010456e-01    5.003750e-02
  4.169212e-01    2.030604e-02
  4.327968e-01    3.989166e-02
  4.486724e-01    3.482176e-02
  4.645479e-01    2.596617e-02
  4.804235e-01    2.255365e-02
  4.962991e-01    3.718830e-02
  5.121747e-01    2.407644e-02
  5.280502e-01    2.898464e-02
  5.439258e-01    3.389912e-02
  5.598014e-01    1.693749e-02
  5.756770e-01    3.267522e-02
  5.915525e-01    5.561252e-02
  6.074281e-01    5.753383e-02
  6.233037e-01    3.063992e-02
  6.391793e-01    3.548234e-02
  6.550548e-01    1.635412e-02
  6.709304e-01    1.379028e-02
  6.868060e-01    3.882701e-02
  7.026815e-01    4.640784e-02
  7.185571e-01    5.097487e-02
  7.344327e-01    3.723022e-02
  7.503083e-01    4.878873e-02
  7.661838e-01    7.808448e-02
  7.820594e-01    1.198070e-01
  7.979350e-01    1.270446e-01
  8.138106e-01    2.020776e-01
  8.296861e-01    2.500024e-01
  8.455617e-01    3.292083e-01
  8.614373e-01    3.085254e-01
  8.773129e-01    4.548656e-01
  8.931884e-01    5.108019e-01
  9.090640e-01    5.786728e-01
  9.249396e-01    6.281692e-01
  9.408152e-01    6.630343e-01
  9.566907e-01    7.344403e-01
  9.725663e-01    8.367453e-01
  9.884419e-01    9.257835e-01
  1.004317e+00    9.149253e-01
  1.020193e+00    1.086007e+00
  1.036069e+00    1.159179e+00
  1.051944e+00    1.164460e+00
  1.067820e+00    1.239583e+00
  1.083695e+00    1.316626e+00
  1.099571e+00    1.395564e+00
  1.115446e+00    1.505844e+00
  1.131322e+00    1.565760e+00
  1.147198e+00    1.412917e+00
  1.163073e+00    1.428294e+00
  1.178949e+00    1.526255e+00
  1.194824e+00    1.574567e+00
  1.210700e+00    1.831498e+00
  1.226575e+00    1.974535e+00
  1.242451e+00    2.125667e+00
  1.258327e+00    2.218714e+00
  1.274202e+00    2.298821e+00
  1.290078e+00    2.455635e+00
  1.305953e+00    2.475892e+00
  1.321829e+00    2.602561e+00
  1.337705e+00    2.672287e+00
  1.353580e+00    2.629880e+00
  1.369456e+00    2.536799e+00
  1.385331e+00    2.525010e+00
  1.401207e+00    2.537354e+00
  1.417082e+00    2.664356e+00
  1.432958e+00    2.635737e+00
  1.448834e+00    2.650629e+00
  1.464709e+00    2.764805e+00
  1.480585e+00    2.867304e+00
  1.496460e+00    2.852967e+00
  1.512336e+00    2.836060e+00
  1.528211e+00    2.887708e+00
  1.544087e+00    2.758970e+00
  1.559963e+00    2.874928e+00
  1.575838e+00    2.952351e+00
  1.591714e+00    2.893038e+00
  1.607589e+00    2.835289e+00
  1.623465e+00    2.842627e+00
  1.639340e+00    2.838870e+00
  1.655216e+00    2.823726e+00
  1.671092e+00    2.832166e+00
  1.686967e+00    2.857051e+00
  1.702843e+00    2.830765e+00
  1.718718e+00    2.810893e+00
  1.734594e+00    2.807683e+00
  1.750469e+00    2.733125e+00
  1.766345e+00    2.731975e+00
  1.782221e+00    2.825275e+00
  1.798096e+00    2.935715e+00
  1.813972e+00    2.817469e+00
  1.829847e+00    2.713471e+00
  1.845723e+00    2.772285e+00
  1.861598e+00    2.716802e+00
  1.877474e+00    2.546138e+00
  1.893350e+00    2.674576e+00
  1.909225e+00    2.783941e+00
  1.925101e+00    2.881037e+00
  1.940976e+00    2.771359e+00
  1.956852e+00    2.730265e+00
  1.972727e+00    2.752774e+00
  1.988603e+00    2.726686e+00
  2.004479e+00    2.745401e+00
  2.020354e+00    2.769135e+00
  2.036230e+00    2.656125e+00
  2.052105e+00    2.705177e+00
  2.067981e+00    2.711025e+00
  2.083856e+00    2.556309e+00
  2.099732e+00    2.703353e+00
  2.115608e+00    2.728752e+00
  2.131483e+00    2.767084e+00
  2.147359e+00    2.791496e+00
  2.163234e+00    2.676387e+00
  2.179110e+00    2.583720e+00
  2.194985e+00    2.757448e+00
  2.210861e+00    2.821501e+00
  2.226737e+00    2.722618e+00
  2.242612e+00    2.707084e+00
  2.258488e+00    2.706060e+00
  2.274363e+00    2.689249e+00
  2.290239e+00    2.733554e+00
  2.306115e+00    2.704170e+00
  2.321990e+00    2.757684e+00
  2.337866e+00    2.758069e+00
  2.353741e+00    2.756179e+00
  2.369617e+00    2.715760e+00
  2.385492e+00    2.764005e+00
  2.401368e+00    2.749101e+00
  2.417244e+00    2.762508e+00
  2.433119e+00    2.801316e+00
  2.448995e+00    2.806783e+00
  2.464870e+00    2.743064e+00
  2.480746e+00    2.705508e+00
  2.496621e+00    2.796095e+00
  2.512497e+00    2.755824e+00
  2.528373e+00    2.748929e+00
  2.544248e+00    2.707660e+00
  2.560124e+00    2.736709e+00
  2.575999e+00    2.790958e+00
  2.591875e+00    2.780166e+00
  2.607750e+00    2.718364e+00
  2.623626e+00    2.820584e+00
  2.639502e+00    2.892630e+00
  2.655377e+00    2.893728e+00
  2.671253e+00    2.811096e+00
  2.687128e+00    2.742208e+00
  2.703004e+00    2.682530e+00
  2.718879e+00    2.677975e+00
  2.734755e+00    2.754323e+00
  2.750631e+00    2.778646e+00
  2.766506e+00    2.696497e+00
  2.782382e+00    2.679803e+00
  2.798257e+00    2.725228e+00
  2.814133e+00    2.772432e+00
  2.830008e+00    2.762207e+00
  2.845884e+00    2.680631e+00
  2.861760e+00    2.711453e+00
  2.877635e+00    2.787046e+00
  2.893511e+00    2.815286e+00
  2.909386e+00    2.834844e+00
  2.925262e+00    2.814404e+00
  2.941137e+00    2.952991e+00
  2.957013e+00    2.846994e+00
  2.972889e+00    2.757201e+00
  2.988764e+00    2.796012e+00
  3.004640e+00    2.885778e+00
  3.020515e+00    2.879804e+00
  3.036391e+00    2.798755e+00
  3.052266e+00    2.892706e+00
  3.068142e+00    2.824400e+00
  3.084018e+00    2.746758e+00
  3.099893e+00    2.758552e+00
  3.115769e+00    2.841511e+00
  3.131644e+00    2.867981e+00
  3.147520e+00    2.934613e+00
  3.163395e+00    2.746262e+00
  3.179271e+00    2.687280e+00
  3.195147e+00    2.815623e+00
  3.211022e+00    2.869284e+00
  3.226898e+00    2.890845e+00
  3.242773e+00    2.914044e+00
  3.258649e+00    2.924077e+00
  3.274525e+00    2.845759e+00
  3.290400e+00    2.843493e+00
  3.306276e+00    2.924131e+00
  3.322151e+00    2.925651e+00
  3.338027e+00    2.839381e+00
  3.353902e+00    2.836405e+00
  3.369778e+00    2.868200e+00
  3.385654e+00    2.934938e+00
  3.401529e+00    2.910264e+00
  3.417405e+00    2.941402e+00
  3.433280e+00    2.807618e+00
  3.449156e+00    2.781916e+00
  3.465031e+00    2.941987e+00
  3.480907e+00    2.930648e+00
  3.496783e+00    2.968017e+00
  3.512658e+00    2.960195e+00
  3.528534e+00    2.942240e+00
  3.544409e+00    2.914646e+00
  3.560285e+00    2.979735e+00
  3.576160e+00    2.976851e+00
  3.592036e+00    2.925936e+00
  3.607912e+00    2.949674e+00
  3.623787e+00    2.920114e+00
  3.639663e+00    3.011527e+00
  3.655538e+00    2.976360e+00
  3.671414e+00    2.930496e+00
  3.687289e+00    2.937301e+00
  3.703165e+00    3.008778e+00
  3.719041e+00    3.028624e+00
  3.734916e+00    2.908440e+00
  3.750792e+00    2.879291e+00
  3.766667e+00    2.953999e+00
  3.782543e+00    3.034705e+00
  3.798418e+00    2.952954e+00
  3.814294e+00    2.930607e+00
  3.830170e+00    2.921811e+00
  3.846045e+00    2.877971e+00
  3.861921e+00    2.895287e+00
  3.877796e+00    2.873540e+00
  3.893672e+00    2.969031e+00
  3.909547e+00    2.988476e+00
  3.925423e+00    2.930888e+00
  3.941299e+00    2.851910e+00
  3.957174e+00    2.873300e+00
  3.973050e+00    2.935357e+00
  3.988925e+00    2.904700e+00
  4.004801e+00    2.943419e+00
  4.020676e+00    2.991899e+00
  4.036552e+00    3.108333e+00
  4.052428e+00    3.004142e+00
  4.068303e+00    3.060297e+00
  4.084179e+00    2.973687e+00
  4.100054e+00    2.992413e+00
  4.115930e+00    3.042536e+00
  4.131806e+00    3.056594e+00
  4.147681e+00    2.978684e+00
  4.163557e+00    2.905556e+00
  4.179432e+00    2.914663e+00
  4.195308e+00    2.943480e+00
  4.211183e+00    3.013285e+00
  4.227059e+00    3.025034e+00
  4.242935e+00    3.000928e+00
  4.258810e+00    2.979591e+00
  4.274686e+00    3.022096e+00
  4.290561e+00    3.100996e+00
  4.306437e+00    3.039070e+00
  4.322312e+00    3.019028e+00
  4.338188e+00    2.988965e+00
  4.354064e+00    3.058326e+00
  4.369939e+00    3.070822e+00
  4.385815e+00    3.001200e+00
  4.401690e+00    3.000158e+00
  4.417566e+00    3.024579e+00
  4.433441e+00    2.927910e+00
  4.449317e+00    2.971380e+00
  4.465193e+00    3.009032e+00
  4.481068e+00    3.056335e+00
  4.496944e+00    3.070302e+00
  4.512819e+00    3.042092e+00
  4.528695e+00    3.008661e+00
  4.544570e+00    2.996015e+00
  4.560446e+00    2.995426e+00
  4.576322e+00    3.063343e+00
  4.592197e+00    3.087123e+00
  4.608073e+00    2.977258e+00
  4.623948e+00    2.986238e+00
  4.639824e+00    3.028958e+00
  4.655699e+00    3.076156e+00
  4.671575e+00    3.034757e+00
  4.687451e+00    3.062157e+00
  4.703326e+00    3.115758e+00
  4.719202e+00    3.113111e+00
  4.735077e+00    3.032862e+00
  4.750953e+00    3.045666e+00
  4.766828e+00    3.139803e+00
  4.782704e+00    3.119455e+00
  4.798580e+00    3.084563e+00
  4.814455e+00    3.065599e+00
  4.830331e+00    3.006862e+00
  4.846206e+00    3.132853e+00
  4.862082e+00    3.136722e+00
  4.877957e+00    3.103975e+00
  4.893833e+00    3.084152e+00
  4.909709e+00    3.092432e+00
  4.925584e+00    3.052006e+00
  4.941460e+00    3.059191e+00
  4.957335e+00    3.067639e+00
  4.973211e+00    3.074044e+00
  4.989086e+00    3.071355e+00
  5.004962e+00    3.158860e+00
  5.020838e+00    3.117965e+00
  5.036713e+00    3.092806e+00
  5.052589e+00    3.031940e+00
  5.068464e+00    3.009919e+00
  5.084340e+00    3.065609e+00
  5.100216e+00    3.120734e+00
  5.116091e+00    3.090123e+00
  5.131967e+00    3.175610e+00
  5.147842e+00    3.172914e+00
  5.163718e+00    3.113912e+00
  5.179593e+00    3.077928e+00
  5.195469e+00    3.046638e+00
  5.211345e+00    3.031062e+00
  5.227220e+00    3.062671e+00
  5.243096e+00    3.076298e+00
  5.258971e+00    3.065691e+00
  5.274847e+00    3.021744e+00
  5.290722e+00    3.044664e+00
  5.306598e+00    3.115999e+00
  5.322474e+00    3.080268e+00
  5.338349e+00    3.058382e+00
  5.354225e+00    3.010656e+00
  5.370100e+00    3.128424e+00
  5.385976e+00    3.124376e+00
  5.401851e+00    3.089059e+00
  5.417727e+00    3.045805e+00
  5.433603e+00    3.023677e+00
  5.449478e+00    3.064214e+00
  5.465354e+00    3.022838e+00
  5.481229e+00    3.092798e+00
  5.497105e+00    3.067616e+00
  5.512980e+00    3.033542e+00
  5.528856e+00    3.010125e+00
  5.544732e+00    2.972571e+00
  5.560607e+00    3.013505e+00
  5.576483e+00    3.042917e+00
  5.592358e+00    2.994332e+00
  5.608234e+00    3.027910e+00
  5.624109e+00    3.048426e+00
  5.639985e+00    2.990954e+00
  5.655861e+00    3.011648e+00
  5.671736e+00    3.044359e+00
  5.687612e+00    2.968011e+00
  5.703487e+00    2.966746e+00
  5.719363e+00    2.965048e+00
  5.735238e+00    3.021550e+00
  5.751114e+00    2.999779e+00
  5.766990e+00    2.975477e+00
  5.782865e+00    3.035762e+00
  5.798741e+00    3.019701e+00
  5.814616e+00    2.896981e+00
  5.830492e+00    2.960635e+00
  5.846367e+00    3.046115e+00
  5.862243e+00    2.946386e+00
  5.878119e+00    2.971127e+00
  5.893994e+00    2.999957e+00
  5.909870e+00    3.020737e+00
  5.925745e+00    3.029265e+00
  5.941621e+00    3.011391e+00
  5.957497e+00    2.996899e+00
  5.973372e+00    2.981063e+00
  5.989248e+00    3.039766e+00
  6.005123e+00    3.032526e+00
  6.020999e+00    2.947125e+00
  6.036874e+00    2.948683e+00
  6.052750e+00    3.030606e+00
  6.068626e+00    3.014377e+00
  6.084501e+00    2.936142e+00
  6.100377e+00    3.011041e+00
  6.116252e+00    3.085330e+00
  6.132128e+00    3.092459e+00
  6.148003e+00    3.042486e+00
  6.163879e+00    3.013640e+00
  6.179755e+00    3.025088e+00
  6.195630e+00    2.967966e+00
  6.211506e+00    2.982434e+00
  6.227381e+00    2.946730e+00
  6.243257e+00    2.937015e+00
  6.259132e+00    3.028189e+00
  6.275008e+00    3.026207e+00
  6.290884e+00    2.964908e+00
  6.306759e+00    2.913731e+00
  6.322635e+00    2.839923e+00
  6.338510e+00    2.924805e+00
  6.354386e+00    2.997788e+00
  6.370261e+00    3.017570e+00
  6.386137e+00    3.090913e+00
  6.402013e+00    2.991308e+00
  6.417888e+00    3.012126e+00
  6.433764e+00    2.983755e+00
  6.449639e+00    2.996403e+00
  6.465515e+00    3.033567e+00
  6.481390e+00    2.984798e+00
  6.497266e+00    3.061077e+00
  6.513142e+00    3.075100e+00
  6.529017e+00    2.992591e+00
  6.544893e+00    2.992505e+00
  6.560768e+00    2.945009e+00
  6.576644e+00    2.984526e+00
  6.592519e+00    3.008996e+00
  6.608395e+00    2.968621e+00
  6.624271e+00    2.988122e+00
  6.640146e+00    2.964110e+00
  6.656022e+00    3.013586e+00
  6.671897e+00    3.048835e+00
  6.687773e+00    3.028986e+00
  6.703648e+00    2.962979e+00
  6.719524e+00    3.024632e+00
  6.735400e+00    2.982697e+00
  6.751275e+00    2.991100e+00
  6.767151e+00    2.937818e+00
  6.783026e+00    2.948181e+00
  6.798902e+00    2.915612e+00
  6.814777e+00    2.950853e+00
  6.830653e+00    2.977017e+00
  6.846529e+00    2.946595e+00
  6.862404e+00    2.911993e+00
  6.878280e+00    2.948133e+00
  6.894155e+00    2.958233e+00
  6.910031e+00    2.977539e+00
  6.925907e+00    3.005975e+00
  6.941782e+00    2.961216e+00
  6.957658e+00    3.006806e+00
  6.973533e+00    2.998572e+00
  6.989409e+00    2.968191e+00
  7.005284e+00    2.919296e+00
  7.021160e+00    2.945412e+00
  7.037036e+00    2.967175e+00
  7.052911e+00    2.996913e+00
  7.068787e+00    2.990217e+00
  7.084662e+00    3.030665e+00
  7.100538e+00    2.921194e+00
  7.116413e+00    2.890213e+00
  7.132289e+00    2.990191e+00
  7.148165e+00    2.989424e+00
  7.164040e+00    3.004012e+00
  7.179916e+00    2.972899e+00
  7.195791e+00    2.960249e+00
  7.211667e+00    2.949461e+00
  7.227542e+00    2.948350e+00
  7.243418e+00    2.926763e+00
  7.259294e+00    2.987851e+00
  7.275169e+00    3.014019e+00
  7.291045e+00    2.920921e+00
  7.306920e+00    2.922711e+00
  7.322796e+00    2.912769e+00
  7.338671e+00    2.920229e+00
  7.354547e+00    2.890544e+00
  7.370423e+00    2.947017e+00
  7.386298e+00    2.984259e+00
  7.402174e+00    2.897860e+00
  7.418049e+00    2.941437e+00
  7.433925e+00    2.995091e+00
  7.449800e+00    2.934843e+00
  7.465676e+00    2.909305e+00
  7.481552e+00    2.862964e+00
  7.497427e+00    2.882618e+00
  7.513303e+00    2.918350e+00
  7.529178e+00    2.922120e+00
  7.545054e+00    2.913266e+00
  7.560929e+00    2.966009e+00
  7.576805e+00    2.930232e+00
  7.592681e+00    2.895970e+00
  7.608556e+00    2.891276e+00
  7.624432e+00    2.949951e+00
  7.640307e+00    2.918353e+00
  7.656183e+00    2.916398e+00
  7.672058e+00    2.897936e+00
  7.687934e+00    2.959635e+00
  7.703810e+00    2.966796e+00
  7.719685e+00    2.843872e+00
  7.735561e+00    2.880703e+00
  7.751436e+00    2.933461e+00
  7.767312e+00    2.962878e+00
  7.783187e+00    2.929929e+00
  7.799063e+00    2.877671e+00
  7.814939e+00    2.933349e+00
  7.830814e+00    2.910320e+00
  7.846690e+00    2.895881e+00
  7.862565e+00    2.910831e+00
  7.878441e+00    2.876567e+00
  7.894317e+00    2.859915e+00
  7.910192e+00    2.878809e+00
  7.926068e+00    2.879102e+00
  7.941943e+00    2.866449e+00
  7.957819e+00    2.868399e+00
  7.973694e+00    2.831469e+00
  7.989570e+00    2.911498e+00
  8.005446e+00    2.881392e+00
  8.021321e+00    2.837948e+00
  8.037197e+00    2.816040e+00
  8.053072e+00    2.830411e+00
  8.068948e+00    2.850919e+00
  8.084823e+00    2.821466e+00
  8.100699e+00    2.886719e+00
  8.116575e+00    2.929273e+00
  8.132450e+00    2.899976e+00
  8.148326e+00    2.878414e+00
  8.164201e+00    2.838594e+00
  8.180077e+00    2.889823e+00
  8.195952e+00    2.918033e+00
  8.211828e+00    2.946913e+00
  8.227704e+00    2.922492e+00
  8.243579e+00    2.909852e+00
  8.259455e+00    2.889314e+00
  8.275330e+00    2.834722e+00
  8.291206e+00    2.815241e+00
  8.307081e+00    2.820214e+00
  8.322957e+00    2.846725e+00
  8.338833e+00    2.821832e+00
  8.354708e+00    2.848292e+00
  8.370584e+00    2.805034e+00
  8.386459e+00    2.858570e+00
  8.402335e+00    2.886708e+00
  8.418210e+00    2.863829e+00
  8.434086e+00    2.828112e+00
  8.449962e+00    2.865506e+00
  8.465837e+00    2.917593e+00
  8.481713e+00    2.880631e+00
  8.497588e+00    2.834512e+00
  8.513464e+00    2.910281e+00
  8.529339e+00    2.909851e+00
  8.545215e+00    2.858622e+00
  8.561091e+00    2.877417e+00
  8.576966e+00    2.857415e+00
  8.592842e+00    2.874565e+00
  8.608717e+00    2.797863e+00
  8.624593e+00    2.791334e+00
  8.640468e+00    2.800204e+00
  8.656344e+00    2.855593e+00
  8.672220e+00    2.852712e+00
  8.688095e+00    2.795913e+00
  8.703971e+00    2.771838e+00
  8.719846e+00    2.795370e+00
  8.735722e+00    2.823871e+00
  8.751598e+00    2.817274e+00
  8.767473e+00    2.831557e+00
  8.783349e+00    2.811301e+00
  8.799224e+00    2.832560e+00
  8.815100e+00    2.835416e+00
  8.830975e+00    2.757677e+00
  8.846851e+00    2.739218e+00
  8.862727e+00    2.817187e+00
  8.878602e+00    2.813374e+00
  8.894478e+00    2.787110e+00
  8.910353e+00    2.799998e+00
  8.926229e+00    2.789166e+00
  8.942104e+00    2.799446e+00
  8.957980e+00    2.757462e+00
  8.973856e+00    2.732268e+00
  8.989731e+00    2.762915e+00
  9.005607e+00    2.799234e+00
  9.021482e+00    2.742591e+00
  9.037358e+00    2.756837e+00
  9.053233e+00    2.759950e+00
  9.069109e+00    2.728115e+00
  9.084985e+00    2.768262e+00
  9.100860e+00    2.748034e+00
  9.116736e+00    2.688098e+00
  9.132611e+00    2.675020e+00
  9.148487e+00    2.731529e+00
  9.164362e+00    2.737321e+00
  9.180238e+00    2.752525e+00
  9.196114e+00    2.753896e+00
  9.211989e+00    2.783196e+00
  9.227865e+00    2.712122e+00
  9.243740e+00    2.800657e+00
  9.259616e+00    2.775479e+00
  9.275491e+00    2.714687e+00
  9.291367e+00    2.708242e+00
  9.307243e+00    2.722936e+00
  9.323118e+00    2.705306e+00
  9.338994e+00    2.711112e+00
  9.354869e+00    2.705082e+00
  9.370745e+00    2.697968e+00
  9.386620e+00    2.762465e+00
  9.402496e+00    2.760078e+00
  9.418372e+00    2.702264e+00
  9.434247e+00    2.655174e+00
  9.450123e+00    2.676505e+00
  9.465998e+00    2.719842e+00
  9.481874e+00    2.689582e+00
  9.497749e+00    2.742215e+00
  9.513625e+00    2.742850e+00
  9.529501e+00    2.701131e+00
  9.545376e+00    2.705621e+00
  9.561252e+00    2.727456e+00
  9.577127e+00    2.713507e+00
  9.593003e+00    2.676028e+00
  9.608878e+00    2.690609e+00
  9.624754e+00    2.706633e+00
  9.640630e+00    2.744365e+00
  9.656505e+00    2.694015e+00
  9.672381e+00    2.706475e+00
  9.688256e+00    2.648619e+00
  9.704132e+00    2.692229e+00
  9.720008e+00    2.689770e+00
  9.735883e+00    2.714639e+00
  9.751759e+00    2.723752e+00
  9.767634e+00    2.673015e+00
  9.783510e+00    2.685486e+00
  9.799385e+00    2.697796e+00
  9.815261e+00    2.696138e+00
  9.831137e+00    2.646758e+00
  9.847012e+00    2.672093e+00
  9.862888e+00    2.650610e+00
  9.878763e+00    2.653871e+00
  9.894639e+00    2.637568e+00
  9.910514e+00    2.658202e+00
  9.926390e+00    2.635889e+00
  9.942266e+00    2.625656e+00
  9.958141e+00    2.639830e+00
  9.974017e+00    2.635498e+00
  9.989892e+00    2.611950e+00
  1.000577e+01    2.627703e+00
  1.002164e+01    2.614739e+00
  1.003752e+01    2.633991e+00
  1.005339e+01    2.603157e+00
  1.006927e+01    2.624325e+00
  1.008515e+01    2.661599e+00
  1.010102e+01    2.593524e+00
  1.011690e+01    2.619187e+00
  1.013277e+01    2.587213e+00
  1.014865e+01    2.617686e+00
  1.016452e+01    2.553967e+00
  1.018040e+01    2.546407e+00
  1.019627e+01    2.586146e+00
  1.021215e+01    2.594526e+00
  1.022803e+01    2.592382e+00
  1.024390e+01    2.551840e+00
  1.025978e+01    2.547764e+00
  1.027565e+01    2.531311e+00
  1.029153e+01    2.587773e+00
  1.030740e+01    2.599751e+00
  1.032328e+01    2.598240e+00
  1.033915e+01    2.586423e+00
  1.035503e+01    2.585678e+00
  1.037091e+01    2.581773e+00
  1.038678e+01    2.578609e+00
  1.040266e+01    2.598879e+00
  1.041853e+01    2.594640e+00
  1.043441e+01    2.532106e+00
  1.045028e+01    2.531370e+00
  1.046616e+01    2.499002e+00
  1.048204e+01    2.487901e+00
  1.049791e+01    2.559871e+00
  1.051379e+01    2.581196e+00
  1.052966e+01    2.499758e+00
  1.054554e+01    2.478275e+00
  1.056141e+01    2.552428e+00
  1.057729e+01    2.502955e+00
  1.059316e+01    2.485687e+00
  1.060904e+01    2.531131e+00
  1.062492e+01    2.527709e+00
  1.064079e+01    2.529472e+00
  1.065667e+01    2.545914e+00
  1.067254e+01    2.530586e+00
  1.068842e+01    2.512570e+00
  1.070429e+01    2.535266e+00
  1.072017e+01    2.505944e+00
  1.073604e+01    2.481671e+00
  1.075192e+01    2.451020e+00
  1.076780e+01    2.472631e+00
  1.078367e+01    2.437401e+00
  1.079955e+01    2.441306e+00
  1.081542e+01    2.481668e+00
  1.083130e+01    2.483763e+00
  1.084717e+01    2.453220e+00
  1.086305e+01    2.482318e+00
  1.087892e+01    2.548013e+00
  1.089480e+01    2.449739e+00
  1.091068e+01    2.496159e+00
  1.092655e+01    2.531924e+00
  1.094243e+01    2.477777e+00
  1.095830e+01    2.452794e+00
  1.097418e+01    2.494950e+00
  1.099005e+01    2.464646e+00
  1.100593e+01    2.440235e+00
  1.102180e+01    2.465559e+00
  1.103768e+01    2.458368e+00
  1.105356e+01    2.431183e+00
  1.106943e+01    2.412092e+00
  1.108531e+01    2.455298e+00
  1.110118e+01    2.461235e+00
  1.111706e+01    2.427670e+00
  1.113293e+01    2.415426e+00
  1.114881e+01    2.404976e+00
  1.116468e+01    2.400628e+00
  1.118056e+01    2.404192e+00
  1.119644e+01    2.420638e+00
  1.121231e+01    2.377800e+00
  1.122819e+01    2.422217e+00
  1.124406e+01    2.420553e+00
  1.125994e+01    2.429519e+00
  1.127581e+01    2.446060e+00
  1.129169e+01    2.392245e+00
  1.130756e+01    2.391673e+00
  1.132344e+01    2.402292e+00
  1.133932e+01    2.392568e+00
  1.135519e+01    2.322525e+00
  1.137107e+01    2.357639e+00
  1.138694e+01    2.387090e+00
  1.140282e+01    2.354630e+00
  1.141869e+01    2.362610e+00
  1.143457e+01    2.357265e+00
  1.145045e+01    2.341605e+00
  1.146632e+01    2.390489e+00
  1.148220e+01    2.356668e+00
  1.149807e+01    2.399126e+00
  1.151395e+01    2.425455e+00
  1.152982e+01    2.408934e+00
  1.154570e+01    2.343317e+00
  1.156157e+01    2.316664e+00
  1.157745e+01    2.338394e+00
  1.159333e+01    2.314409e+00
  1.160920e+01    2.346975e+00
  1.162508e+01    2.408267e+00
  1.164095e+01    2.405402e+00
  1.165683e+01    2.390351e+00
  1.167270e+01    2.376775e+00
  1.168858e+01    2.337687e+00
  1.170445e+01    2.285594e+00
  1.172033e+01    2.353017e+00
  1.173621e+01    2.389086e+00
  1.175208e+01    2.343307e+00
  1.176796e+01    2.322332e+00
  1.178383e+01    2.339009e+00
  1.179971e+01    2.343304e+00
  1.181558e+01    2.336866e+00
  1.183146e+01    2.341757e+00
  1.184733e+01    2.318967e+00
  1.186321e+01    2.290835e+00
  1.187909e+01    2.311855e+00
  1.189496e+01    2.297236e+00
  1.191084e+01    2.296498e+00
  1.192671e+01    2.316036e+00
  1.194259e+01    2.306958e+00
  1.195846e+01    2.357344e+00
  1.197434e+01    2.327658e+00
  1.199021e+01    2.299987e+00
  1.200609e+01    2.331381e+00
  1.202197e+01    2.285344e+00
  1.203784e+01    2.314095e+00
  1.205372e+01    2.279269e+00
  1.206959e+01    2.288635e+00
  1.208547e+01    2.324578e+00
  1.210134e+01    2.283869e+00
  1.211722e+01    2.270453e+00
  1.213309e+01    2.278783e+00
  1.214897e+01    2.243682e+00
  1.216485e+01    2.287734e+00
  1.218072e+01    2.278496e+00
  1.219660e+01    2.287353e+00
  1.221247e+01    2.253702e+00
  1.222835e+01    2.280519e+00
  1.224422e+01    2.261560e+00
  1.226010e+01    2.228404e+00
  1.227597e+01    2.285121e+00
  1.229185e+01    2.255904e+00
  1.230773e+01    2.302929e+00
  1.232360e+01    2.330793e+00
  1.233948e+01    2.331880e+00
  1.235535e+01    2.280093e+00
  1.237123e+01    2.255468e+00
  1.238710e+01    2.308870e+00
  1.240298e+01    2.321245e+00
  1.241886e+01    2.325070e+00
  1.243473e+01    2.315125e+00
  1.245061e+01    2.304523e+00
  1.246648e+01    2.297860e+00
  1.248236e+01    2.294482e+00
  1.249823e+01    2.303614e+00
  1.251411e+01    2.349747e+00
  1.252998e+01    2.381334e+00
  1.254586e+01    2.381719e+00
  1.256174e+01    2.370842e+00
  1.257761e+01    2.342256e+00
  1.259349e+01    2.333004e+00
  1.260936e+01    2.356698e+00
  1.262524e+01    2.402709e+00
  1.264111e+01    2.420797e+00
  1.265699e+01    2.372544e+00
  1.267286e+01    2.358707e+00
  1.268874e+01    2.406591e+00
  1.270462e+01    2.445035e+00
  1.272049e+01    2.450901e+00
  1.273637e+01    2.464110e+00
  1.275224e+01    2.494428e+00
  1.276812e+01    2.550803e+00
  1.278399e+01    2.584731e+00
  1.279987e+01    2.595893e+00
  1.281574e+01    2.707344e+00
  1.283162e+01    2.786954e+00
  1.284750e+01    2.851071e+00
  1.286337e+01    2.918954e+00
  1.287925e+01    3.019638e+00
  1.289512e+01    3.074060e+00
  1.291100e+01    3.184199e+00
  1.292687e+01    3.388174e+00
  1.294275e+01    3.672513e+00
  1.295862e+01    3.961146e+00
  1.297450e+01    4.266981e+00
  1.299038e+01    4.755538e+00
  1.300625e+01    5.341448e+00
  1.302213e+01    6.028586e+00
  1.303800e+01    6.870434e+00
  1.305388e+01    7.990140e+00
  1.306975e+01    9.277210e+00
  1.308563e+01    1.068823e+01
  1.310150e+01    1.200482e+01
  1.311738e+01    1.338788e+01
  1.313326e+01    1.471460e+01
  1.314913e+01    1.601061e+01
  1.316501e+01    1.719479e+01
  1.318088e+01    1.790268e+01
  1.319676e+01    1.794997e+01
  1.321263e+01    1.701177e+01
  1.322851e+01    1.526195e+01
  1.324438e+01    1.324241e+01
  1.326026e+01    1.114027e+01
  1.327614e+01    9.322735e+00
  1.329201e+01    7.874321e+00
  1.330789e+01    6.733406e+00
  1.332376e+01    5.771880e+00
  1.333964e+01    5.203262e+00
  1.335551e+01    4.719413e+00
  1.337139e+01    4.271459e+00
  1.338727e+01    3.960250e+00
  1.340314e+01    3.674793e+00
  1.341902e+01    3.447665e+00
  1.343489e+01    3.220638e+00
  1.345077e+01    3.116042e+00
  1.346664e+01    2.969258e+00
  1.348252e+01    2.847719e+00
  1.349839e+01    2.720374e+00
  1.351427e+01    2.612639e+00
  1.353015e+01    2.602594e+00
  1.354602e+01    2.588666e+00
  1.356190e+01    2.510512e+00
  1.357777e+01    2.410110e+00
  1.359365e+01    2.406823e+00
  1.360952e+01    2.412051e+00
  1.362540e+01    2.415245e+00
  1.364127e+01    2.334066e+00
  1.365715e+01    2.296844e+00
  1.367303e+01    2.304167e+00
  1.368890e+01    2.262485e+00
  1.370478e+01    2.269071e+00
  1.372065e+01    2.258006e+00
  1.373653e+01    2.186914e+00
  1.375240e+01    2.155830e+00
  1.376828e+01    2.164926e+00
  1.378415e+01    2.191052e+00
  1.380003e+01    2.161085e+00
  1.381591e+01    2.111983e+00
  1.383178e+01    2.110916e+00
  1.384766e+01    2.106695e+00
  1.386353e+01    2.106189e+00
  1.387941e+01    2.066124e+00
  1.389528e+01    2.065983e+00
  1.391116e+01    2.045224e+00
  1.392703e+01    2.063940e+00
  1.394291e+01    2.024182e+00
  1.395879e+01    2.014194e+00
  1.397466e+01    2.024349e+00
  1.399054e+01    2.006084e+00
  1.400641e+01    2.041311e+00
  1.402229e+01    2.043507e+00
  1.403816e+01    2.017381e+00
  1.405404e+01    2.022761e+00
  1.406991e+01    2.007479e+00
  1.408579e+01    2.042851e+00
  1.410167e+01    1.995685e+00
  1.411754e+01    2.003501e+00
  1.413342e+01    1.991206e+00
  1.414929e+01    1.987436e+00
  1.416517e+01    1.971475e+00
  1.418104e+01    2.004072e+00
  1.419692e+01    2.016144e+00
  1.421279e+01    1.955149e+00
  1.422867e+01    1.942712e+00
  1.424455e+01    1.960814e+00
  1.426042e+01    1.971374e+00
  1.427630e+01    1.942677e+00
  1.429217e+01    1.970224e+00
  1.430805e+01    1.948287e+00
  1.432392e+01    1.931567e+00
  1.433980e+01    1.937979e+00
  1.435568e+01    1.919431e+00
  1.437155e+01    1.935499e+00
  1.438743e+01    1.951752e+00
  1.440330e+01    1.925080e+00
  1.441918e+01    1.928661e+00
  1.443505e+01    1.941776e+00
  1.445093e+01    1.946611e+00
  1.446680e+01    1.932778e+00
  1.448268e+01    1.917035e+00
  1.449856e+01    1.905480e+00
  1.451443e+01    1.906424e+00
  1.453031e+01    1.909923e+00
  1.454618e+01    1.906954e+00
  1.456206e+01    1.903586e+00
  1.457793e+01    1.879217e+00
  1.459381e+01    1.867490e+00
  1.460968e+01    1.882623e+00
  1.462556e+01    1.866116e+00
  1.464144e+01    1.877588e+00
  1.465731e+01    1.889085e+00
  1.467319e+01    1.874843e+00
  1.468906e+01    1.858743e+00
  1.470494e+01    1.843900e+00
  1.472081e+01    1.884325e+00
  1.473669e+01    1.904719e+00
  1.475256e+01    1.904437e+00
  1.476844e+01    1.898068e+00
  1.478432e+01    1.890177e+00
  1.480019e+01    1.900422e+00
  1.481607e+01    1.916686e+00
  1.483194e+01    1.868093e+00
  1.484782e+01    1.890381e+00
  1.486369e+01    1.911396e+00
  1.487957e+01    1.932073e+00
  1.489544e+01    1.945713e+00
  1.491132e+01    1.973856e+00
  1.492720e+01    1.942937e+00
  1.494307e+01    1.955194e+00
  1.495895e+01    1.941831e+00
  1.497482e+01    2.013283e+00
  1.499070e+01    2.043555e+00
  1.500657e+01    2.084380e+00
  1.502245e+01    2.144202e+00
  1.503832e+01    2.246935e+00
  1.505420e+01    2.359186e+00
  1.507008e+01    2.486172e+00
  1.508595e+01    2.601333e+00
  1.510183e+01    2.769266e+00
  1.511770e+01    3.003316e+00
  1.513358e+01    3.348965e+00
  1.514945e+01    3.729430e+00
  1.516533e+01    4.097932e+00
  1.518120e+01    4.478663e+00
  1.519708e+01    4.781026e+00
  1.521296e+01    5.160565e+00
  1.522883e+01    5.495014e+00
  1.524471e+01    5.760979e+00
  1.526058e+01    5.953911e+00
  1.527646e+01    6.072775e+00
  1.529233e+01    5.952067e+00
  1.530821e+01    5.705179e+00
  1.532409e+01    5.266895e+00
  1.533996e+01    4.703887e+00
  1.535584e+01    4.133073e+00
  1.537171e+01    3.699140e+00
  1.538759e+01    3.299436e+00
  1.540346e+01    2.999310e+00
  1.541934e+01    2.747396e+00
  1.543521e+01    2.566865e+00
  1.545109e+01    2.422340e+00
  1.546697e+01    2.268390e+00
  1.548284e+01    2.178839e+00
  1.549872e+01    2.090524e+00
  1.551459e+01    2.037960e+00
  1.553047e+01    1.997907e+00
  1.554634e+01    1.969733e+00
  1.556222e+01    1.916504e+00
  1.557809e+01    1.840670e+00
  1.559397e+01    1.849181e+00
  1.560985e+01    1.826103e+00
  1.562572e+01    1.836571e+00
  1.564160e+01    1.782574e+00
  1.565747e+01    1.781988e+00
  1.567335e+01    1.776408e+00
  1.568922e+01    1.743962e+00
  1.570510e+01    1.734459e+00
  1.572097e+01    1.702114e+00
  1.573685e+01    1.704538e+00
  1.575273e+01    1.692136e+00
  1.576860e+01    1.668939e+00
  1.578448e+01    1.699560e+00
  1.580035e+01    1.678741e+00
  1.581623e+01    1.633194e+00
  1.583210e+01    1.656298e+00
  1.584798e+01    1.640494e+00
  1.586385e+01    1.629724e+00
  1.587973e+01    1.598500e+00
  1.589561e+01    1.605515e+00
  1.591148e+01    1.632211e+00
  1.592736e+01    1.606569e+00
  1.594323e+01    1.612441e+00
  1.595911e+01    1.601375e+00
  1.597498e+01    1.607108e+00
  1.599086e+01    1.602325e+00
  1.600673e+01    1.601931e+00
  1.602261e+01    1.579229e+00
  1.603849e+01    1.583768e+00
  1.605436e+01    1.586515e+00
  1.607024e+01    1.582880e+00
  1.608611e+01    1.570330e+00
  1.610199e+01    1.554087e+00
  1.611786e+01    1.545847e+00
  1.613374e+01    1.571829e+00
  1.614961e+01    1.586327e+00
  1.616549e+01    1.571117e+00
  1.618137e+01    1.546813e+00
  1.619724e+01    1.554293e+00
  1.621312e+01    1.553562e+00
  1.622899e+01    1.559743e+00
  1.624487e+01    1.546371e+00
  1.626074e+01    1.558394e+00
  1.627662e+01    1.528871e+00
  1.629250e+01    1.499892e+00
  1.630837e+01    1.535764e+00
  1.632425e+01    1.517407e+00
  1.634012e+01    1.532883e+00
  1.635600e+01    1.529595e+00
  1.637187e+01    1.514511e+00
  1.638775e+01    1.557331e+00
  1.640362e+01    1.550866e+00
  1.641950e+01    1.516985e+00
  1.643538e+01    1.481035e+00
  1.645125e+01    1.497028e+00
  1.646713e+01    1.507293e+00
  1.648300e+01    1.468066e+00
  1.649888e+01    1.475819e+00
  1.651475e+01    1.484915e+00
  1.653063e+01    1.471235e+00
  1.654650e+01    1.476538e+00
  1.656238e+01    1.502781e+00
  1.657826e+01    1.476250e+00
  1.659413e+01    1.459715e+00
  1.661001e+01    1.479166e+00
  1.662588e+01    1.483789e+00
  1.664176e+01    1.470621e+00
  1.665763e+01    1.482001e+00
  1.667351e+01    1.468979e+00
  1.668938e+01    1.457181e+00
  1.670526e+01    1.463025e+00
  1.672114e+01    1.474602e+00
  1.673701e+01    1.462666e+00
  1.675289e+01    1.447462e+00
  1.676876e+01    1.488861e+00
  1.678464e+01    1.484517e+00
  1.680051e+01    1.447624e+00
  1.681639e+01    1.447316e+00
  1.683226e+01    1.467734e+00
  1.684814e+01    1.470584e+00
  1.686402e+01    1.431095e+00
  1.687989e+01    1.420490e+00
  1.689577e+01    1.442813e+00
  1.691164e+01    1.429176e+00
  1.692752e+01    1.435520e+00
  1.694339e+01    1.437710e+00
  1.695927e+01    1.382333e+00
  1.697514e+01    1.413508e+00
  1.699102e+01    1.428376e+00
  1.700690e+01    1.421587e+00
  1.702277e+01    1.439150e+00
  1.703865e+01    1.400702e+00
  1.705452e+01    1.388922e+00
  1.707040e+01    1.386579e+00
  1.708627e+01    1.419909e+00
  1.710215e+01    1.420087e+00
  1.711802e+01    1.406528e+00
  1.713390e+01    1.384172e+00
  1.714978e+01    1.386464e+00
  1.716565e+01    1.405728e+00
  1.718153e+01    1.361203e+00
  1.719740e+01    1.358732e+00
  1.721328e+01    1.411606e+00
  1.722915e+01    1.404621e+00
  1.724503e+01    1.398682e+00
  1.726091e+01    1.392092e+00
  1.727678e+01    1.361388e+00
  1.729266e+01    1.375291e+00
  1.730853e+01    1.370336e+00
  1.732441e+01    1.357198e+00
  1.734028e+01    1.393336e+00
  1.735616e+01    1.390027e+00
  1.737203e+01    1.352085e+00
  1.738791e+01    1.347209e+00
  1.740379e+01    1.328272e+00
  1.741966e+01    1.351257e+00
  1.743554e+01    1.354802e+00
  1.745141e+01    1.366798e+00
  1.746729e+01    1.344169e+00
  1.748316e+01    1.340428e+00
  1.749904e+01    1.354721e+00
  1.751491e+01    1.323198e+00
  1.753079e+01    1.324566e+00
  1.754667e+01    1.340406e+00
  1.756254e+01    1.355298e+00
  1.757842e+01    1.342891e+00
  1.759429e+01    1.339212e+00
  1.761017e+01    1.324119e+00
  1.762604e+01    1.319209e+00
  1.764192e+01    1.337466e+00
  1.765779e+01    1.325254e+00
  1.767367e+01    1.290583e+00
  1.768955e+01    1.321806e+00
  1.770542e+01    1.351906e+00
  1.772130e+01    1.307078e+00
  1.773717e+01    1.310437e+00
  1.775305e+01    1.298330e+00
  1.776892e+01    1.309553e+00
  1.778480e+01    1.299414e+00
  1.780067e+01    1.291867e+00
  1.781655e+01    1.329585e+00
  1.783243e+01    1.300383e+00
  1.784830e+01    1.317302e+00
  1.786418e+01    1.328967e+00
  1.788005e+01    1.336550e+00
  1.789593e+01    1.321502e+00
  1.791180e+01    1.299501e+00
  1.792768e+01    1.304284e+00
  1.794355e+01    1.298008e+00
  1.795943e+01    1.292670e+00
  1.797531e+01    1.310384e+00
  1.799118e+01    1.285535e+00
  1.800706e+01    1.268969e+00
  1.802293e+01    1.280169e+00
  1.803881e+01    1.284661e+00
  1.805468e+01    1.266470e+00
  1.807056e+01    1.281049e+00
  1.808643e+01    1.269803e+00
  1.810231e+01    1.277090e+00
  1.811819e+01    1.229033e+00
  1.813406e+01    1.282229e+00
  1.814994e+01    1.287136e+00
  1.816581e+01    1.245657e+00
  1.818169e+01    1.241615e+00
  1.819756e+01    1.260971e+00
  1.821344e+01    1.250733e+00
  1.822932e+01    1.249784e+00
  1.824519e+01    1.256059e+00
  1.826107e+01    1.285677e+00
  1.827694e+01    1.254230e+00
  1.829282e+01    1.234130e+00
  1.830869e+01    1.236948e+00
  1.832457e+01    1.255575e+00
  1.834044e+01    1.264476e+00
  1.835632e+01    1.247340e+00
  1.837220e+01    1.242131e+00
  1.838807e+01    1.258375e+00
  1.840395e+01    1.245544e+00
  1.841982e+01    1.238084e+00
  1.843570e+01    1.253137e+00
  1.845157e+01    1.246660e+00
  1.846745e+01    1.250059e+00
  1.848332e+01    1.233396e+00
  1.849920e+01    1.209965e+00
  1.851508e+01    1.235036e+00
  1.853095e+01    1.220497e+00
  1.854683e+01    1.219984e+00
  1.856270e+01    1.191561e+00
  1.857858e+01    1.207141e+00
  1.859445e+01    1.228712e+00
  1.861033e+01    1.205795e+00
  1.862620e+01    1.216722e+00
  1.864208e+01    1.219411e+00
  1.865796e+01    1.215184e+00
  1.867383e+01    1.222081e+00
  1.868971e+01    1.229468e+00
  1.870558e+01    1.218971e+00
  1.872146e+01    1.227401e+00
  1.873733e+01    1.220486e+00
  1.875321e+01    1.193602e+00
  1.876908e+01    1.193919e+00
  1.878496e+01    1.186268e+00
  1.880084e+01    1.181694e+00
  1.881671e+01    1.206177e+00
  1.883259e+01    1.228932e+00
  1.884846e+01    1.219134e+00
  1.886434e+01    1.202765e+00
  1.888021e+01    1.177654e+00
  1.889609e+01    1.206546e+00
  1.891196e+01    1.216657e+00
  1.892784e+01    1.200708e+00
  1.894372e+01    1.158687e+00
  1.895959e+01    1.180545e+00
  1.897547e+01    1.175586e+00
  1.899134e+01    1.173102e+00
  1.900722e+01    1.172423e+00
  1.902309e+01    1.175736e+00
  1.903897e+01    1.164039e+00
  1.905484e+01    1.166414e+00
  1.907072e+01    1.212123e+00
  1.908660e+01    1.171458e+00
  1.910247e+01    1.171047e+00
  1.911835e+01    1.166853e+00
  1.913422e+01    1.157017e+00
  1.915010e+01    1.169609e+00
  1.916597e+01    1.171237e+00
  1.918185e+01    1.178424e+00
  1.919773e+01    1.164097e+00
  1.921360e+01    1.158051e+00
  1.922948e+01    1.157050e+00
  1.924535e+01    1.179795e+00
  1.926123e+01    1.190797e+00
  1.927710e+01    1.184638e+00
  1.929298e+01    1.188472e+00
  1.930885e+01    1.168622e+00
  1.932473e+01    1.172240e+00
  1.934061e+01    1.175542e+00
  1.935648e+01    1.147631e+00
  1.937236e+01    1.136002e+00
  1.938823e+01    1.152112e+00
  1.940411e+01    1.137545e+00
  1.941998e+01    1.127331e+00
  1.943586e+01    1.152958e+00
  1.945173e+01    1.158390e+00
  1.946761e+01    1.115530e+00
  1.948349e+01    1.134284e+00
  1.949936e+01    1.159454e+00
  1.951524e+01    1.151687e+00
  1.953111e+01    1.151571e+00
  1.954699e+01    1.154240e+00
  1.956286e+01    1.144037e+00
  1.957874e+01    1.121076e+00
  1.959461e+01    1.118012e+00
  1.961049e+01    1.122093e+00
  1.962637e+01    1.135933e+00
  1.964224e+01    1.147961e+00
  1.965812e+01    1.150991e+00
  1.967399e+01    1.136958e+00
  1.968987e+01    1.137078e+00
  1.970574e+01    1.123730e+00
  1.972162e+01    1.120325e+00
  1.973749e+01    1.082130e+00
  1.975337e+01    1.115054e+00
  1.976925e+01    1.113520e+00
  1.978512e+01    1.144464e+00
  1.980100e+01    1.107871e+00
  1.981687e+01    1.104781e+00
  1.983275e+01    1.104869e+00
  1.984862e+01    1.109629e+00
  1.986450e+01    1.089305e+00
  1.988037e+01    1.097521e+00
  1.989625e+01    1.083528e+00
  1.991213e+01    1.074347e+00
  1.992800e+01    1.097334e+00
  1.994388e+01    1.091400e+00
  1.995975e+01    1.082984e+00
  1.997563e+01    1.114657e+00
  1.999150e+01    1.089720e+00
  2.000738e+01    1.101128e+00
  2.002325e+01    1.105046e+00
  2.003913e+01    1.106981e+00
  2.005501e+01    1.112872e+00
  2.007088e+01    1.129575e+00
  2.008676e+01    1.109248e+00
  2.010263e+01    1.070475e+00
  2.011851e+01    1.102279e+00
  2.013438e+01    1.099220e+00
  2.015026e+01    1.086671e+00
  2.016614e+01    1.074632e+00
  2.018201e+01    1.088714e+00
  2.019789e+01    1.065978e+00
  2.021376e+01    1.089251e+00
  2.022964e+01    1.098938e+00
  2.024551e+01    1.071919e+00
  2.026139e+01    1.082890e+00
  2.027726e+01    1.092640e+00
  2.029314e+01    1.103682e+00
  2.030902e+01    1.089899e+00
  2.032489e+01    1.090617e+00
  2.034077e+01    1.082925e+00
  2.035664e+01    1.063354e+00
  2.037252e+01    1.069458e+00
  2.038839e+01    1.093729e+00
  2.040427e+01    1.065711e+00
  2.042014e+01    1.076148e+00
  2.043602e+01    1.093113e+00
  2.045190e+01    1.048791e+00
  2.046777e+01    1.045127e+00
  2.048365e+01    1.086301e+00
  2.049952e+01    1.078560e+00
  2.051540e+01    1.050463e+00
  2.053127e+01    1.058272e+00
  2.054715e+01    1.079777e+00
  2.056302e+01    1.083651e+00
  2.057890e+01    1.084506e+00
  2.059478e+01    1.071344e+00
  2.061065e+01    1.055589e+00
  2.062653e+01    1.055294e+00
  2.064240e+01    1.083064e+00
  2.065828e+01    1.061400e+00
  2.067415e+01    1.060798e+00
  2.069003e+01    1.059653e+00
  2.070590e+01    1.038475e+00
  2.072178e+01    1.043359e+00
  2.073766e+01    1.062987e+00
  2.075353e+01    1.059711e+00
  2.076941e+01    1.072534e+00
  2.078528e+01    1.068766e+00
  2.080116e+01    1.050850e+00
  2.081703e+01    1.066969e+00
  2.083291e+01    1.079624e+00
  2.084878e+01    1.061919e+00
  2.086466e+01    1.053138e+00
  2.088054e+01    1.084142e+00
  2.089641e+01    1.069763e+00
  2.091229e+01    1.053648e+00
  2.092816e+01    1.067047e+00
  2.094404e+01    1.063360e+00
  2.095991e+01    1.071239e+00
  2.097579e+01    1.072949e+00
  2.099166e+01    1.078610e+00
  2.100754e+01    1.065741e+00
  2.102342e+01    1.068748e+00
  2.103929e+01    1.061822e+00
  2.105517e+01    1.079778e+00
  2.107104e+01    1.077807e+00
  2.108692e+01    1.068452e+00
  2.110279e+01    1.065931e+00
  2.111867e+01    1.082678e+00
  2.113455e+01    1.076242e+00
  2.115042e+01    1.076612e+00
  2.116630e+01    1.080936e+00
  2.118217e+01    1.078084e+00
  2.119805e+01    1.093002e+00
  2.121392e+01    1.105508e+00
  2.122980e+01    1.133082e+00
  2.124567e+01    1.113936e+00
  2.126155e+01    1.096997e+00
  2.127743e+01    1.119260e+00
  2.129330e+01    1.114988e+00
  2.130918e+01    1.123874e+00
  2.132505e+01    1.120847e+00
  2.134093e+01    1.151088e+00
  2.135680e+01    1.131989e+00
  2.137268e+01    1.112414e+00
  2.138855e+01    1.133693e+00
  2.140443e+01    1.160064e+00
  2.142031e+01    1.169729e+00
  2.143618e+01    1.195991e+00
  2.145206e+01    1.211958e+00
  2.146793e+01    1.215594e+00
  2.148381e+01    1.242751e+00
  2.149968e+01    1.273980e+00
  2.151556e+01    1.287526e+00
  2.153143e+01    1.302822e+00
  2.154731e+01    1.343194e+00
  2.156319e+01    1.411597e+00
  2.157906e+01    1.437166e+00
  2.159494e+01    1.482296e+00
  2.161081e+01    1.558763e+00
  2.162669e+01    1.653618e+00
  2.164256e+01    1.752076e+00
  2.165844e+01    1.899767e+00
  2.167431e+01    2.019546e+00
  2.169019e+01    2.195452e+00
  2.170607e+01    2.435987e+00
  2.172194e+01    2.715758e+00
  2.173782e+01    3.015173e+00
  2.175369e+01    3.398907e+00
  2.176957e+01    3.954510e+00
  2.178544e+01    4.554587e+00
  2.180132e+01    5.234683e+00
  2.181719e+01    5.939681e+00
  2.183307e+01    6.728173e+00
  2.184895e+01    7.428327e+00
  2.186482e+01    8.204501e+00
  2.188070e+01    8.992650e+00
  2.189657e+01    9.598307e+00
  2.191245e+01    9.930302e+00
  2.192832e+01    9.827168e+00
  2.194420e+01    9.205830e+00
  2.196007e+01    8.464318e+00
  2.197595e+01    7.414169e+00
  2.199183e+01    6.315008e+00
  2.200770e+01    5.345273e+00
  2.202358e+01    4.471811e+00
  2.203945e+01    3.837120e+00
  2.205533e+01    3.314455e+00
  2.207120e+01    2.926564e+00
  2.208708e+01    2.621346e+00
  2.210296e+01    2.349578e+00
  2.211883e+01    2.127881e+00
  2.213471e+01    1.961442e+00
  2.215058e+01    1.803077e+00
  2.216646e+01    1.698185e+00
  2.218233e+01    1.620084e+00
  2.219821e+01    1.522375e+00
  2.221408e+01    1.465766e+00
  2.222996e+01    1.405898e+00
  2.224584e+01    1.368259e+00
  2.226171e+01    1.315842e+00
  2.227759e+01    1.269961e+00
  2.229346e+01    1.236912e+00
  2.230934e+01    1.220916e+00
  2.232521e+01    1.166045e+00
  2.234109e+01    1.178511e+00
  2.235696e+01    1.164584e+00
  2.237284e+01    1.131709e+00
  2.238872e+01    1.113532e+00
  2.240459e+01    1.076914e+00
  2.242047e+01    1.076144e+00
  2.243634e+01    1.045400e+00
  2.245222e+01    1.072724e+00
  2.246809e+01    1.060122e+00
  2.248397e+01    1.053125e+00
  2.249984e+01    1.027076e+00
  2.251572e+01    1.006717e+00
  2.253160e+01    1.009591e+00
  2.254747e+01    1.016791e+00
  2.256335e+01    9.940121e-01
  2.257922e+01    9.900280e-01
  2.259510e+01    9.739456e-01
  2.261097e+01    9.796508e-01
  2.262685e+01    9.511793e-01
  2.264272e+01    9.607958e-01
  2.265860e+01    9.526722e-01
  2.267448e+01    9.607840e-01
  2.269035e+01    9.520663e-01
  2.270623e+01    9.456444e-01
  2.272210e+01    9.658149e-01
  2.273798e+01    9.446046e-01
  2.275385e+01    9.426481e-01
  2.276973e+01    9.472547e-01
  2.278560e+01    9.288245e-01
  2.280148e+01    9.308671e-01
  2.281736e+01    9.265826e-01
  2.283323e+01    9.229698e-01
  2.284911e+01    9.103186e-01
  2.286498e+01    9.021224e-01
  2.288086e+01    9.074965e-01
  2.289673e+01    9.187978e-01
  2.291261e+01    9.145098e-01
  2.292848e+01    9.017038e-01
  2.294436e+01    8.841082e-01
  2.296024e+01    8.863041e-01
  2.297611e+01    8.960905e-01
  2.299199e+01    9.099223e-01
  2.300786e+01    9.035233e-01
  2.302374e+01    8.932462e-01
  2.303961e+01    8.865985e-01
  2.305549e+01    8.837832e-01
  2.307137e+01    8.787639e-01
  2.308724e+01    8.680297e-01
  2.310312e+01    8.805873e-01
  2.311899e+01    8.805951e-01
  2.313487e+01    8.649457e-01
  2.315074e+01    8.911958e-01
  2.316662e+01    8.849733e-01
  2.318249e+01    8.516030e-01
  2.319837e+01    8.524130e-01
  2.321425e+01    8.543882e-01
  2.323012e+01    8.318386e-01
  2.324600e+01    8.615188e-01
  2.326187e+01    8.605680e-01
  2.327775e+01    8.633910e-01
  2.329362e+01    8.582557e-01
  2.330950e+01    8.313096e-01
  2.332537e+01    8.527480e-01
  2.334125e+01    8.503181e-01
  2.335713e+01    8.661991e-01
  2.337300e+01    8.602210e-01
  2.338888e+01    8.762396e-01
  2.340475e+01    8.744416e-01
  2.342063e+01    8.388820e-01
  2.343650e+01    8.371800e-01
  2.345238e+01    8.391269e-01
  2.346825e+01    8.397183e-01
  2.348413e+01    8.410063e-01
  2.350001e+01    8.234213e-01
  2.351588e+01    8.182867e-01
  2.353176e+01    8.409861e-01
  2.354763e+01    8.372852e-01
  2.356351e+01    8.247065e-01
  2.357938e+01    8.224176e-01
  2.359526e+01    8.139336e-01
  2.361113e+01    8.381054e-01
  2.362701e+01    8.440076e-01
  2.364289e+01    8.097241e-01
  2.365876e+01    8.045942e-01
  2.367464e+01    8.243851e-01
  2.369051e+01    8.232139e-01
  2.370639e+01    8.330584e-01
  2.372226e+01    8.538633e-01
  2.373814e+01    8.271037e-01
  2.375401e+01    7.976066e-01
  2.376989e+01    7.954255e-01
  2.378577e+01    8.118173e-01
  2.380164e+01    8.204358e-01
  2.381752e+01    7.950203e-01
  2.383339e+01    8.086427e-01
  2.384927e+01    8.044797e-01
  2.386514e+01    7.906528e-01
  2.388102e+01    7.764159e-01
  2.389689e+01    7.852152e-01
  2.391277e+01    7.875031e-01
  2.392865e+01    7.840742e-01
  2.394452e+01    7.770498e-01
  2.396040e+01    7.774526e-01
  2.397627e+01    7.878109e-01
  2.399215e+01    7.696452e-01
  2.400802e+01    7.764810e-01
  2.402390e+01    7.929149e-01
  2.403978e+01    7.929882e-01
  2.405565e+01    7.904243e-01
  2.407153e+01    7.880741e-01
  2.408740e+01    7.662070e-01
  2.410328e+01    7.588736e-01
  2.411915e+01    7.856980e-01
  2.413503e+01    7.739795e-01
  2.415090e+01    7.542397e-01
  2.416678e+01    7.596356e-01
  2.418266e+01    7.673174e-01
  2.419853e+01    7.683782e-01
  2.421441e+01    7.837264e-01
  2.423028e+01    7.594588e-01
  2.424616e+01    7.635077e-01
  2.426203e+01    7.836118e-01
  2.427791e+01    8.071057e-01
  2.429378e+01    7.837578e-01
  2.430966e+01    7.787910e-01
  2.432554e+01    7.829230e-01
  2.434141e+01    7.584108e-01
  2.435729e+01    7.706569e-01
  2.437316e+01    7.857016e-01
  2.438904e+01    7.943807e-01
  2.440491e+01    7.784849e-01
  2.442079e+01    7.841905e-01
  2.443666e+01    7.873858e-01
  2.445254e+01    7.829238e-01
  2.446842e+01    7.858923e-01
  2.448429e+01    7.799587e-01
  2.450017e+01    7.702171e-01
  2.451604e+01    7.881554e-01
  2.453192e+01    7.993031e-01
  2.454779e+01    7.820081e-01
  2.456367e+01    7.833703e-01
  2.457954e+01    7.741479e-01
  2.459542e+01    7.642537e-01
  2.461130e+01    7.768241e-01
  2.462717e+01    7.874501e-01
  2.464305e+01    7.941651e-01
  2.465892e+01    7.934427e-01
  2.467480e+01    7.865151e-01
  2.469067e+01    7.749096e-01
  2.470655e+01    7.872157e-01
  2.472242e+01    7.761317e-01
  2.473830e+01    7.657191e-01
  2.475418e+01    7.906711e-01
  2.477005e+01    7.770129e-01
  2.478593e+01    7.765769e-01
  2.480180e+01    7.921820e-01
  2.481768e+01    7.845438e-01
  2.483355e+01    7.762073e-01
  2.484943e+01    7.754376e-01
  2.486530e+01    7.713744e-01
  2.488118e+01    7.692714e-01
  2.489706e+01    7.672389e-01
  2.491293e+01    7.832381e-01
  2.492881e+01    8.037224e-01
  2.494468e+01    7.960585e-01
  2.496056e+01    8.114275e-01
  2.497643e+01    7.946006e-01
  2.499231e+01    7.843719e-01
  2.500819e+01    8.024313e-01
  2.502406e+01    8.012342e-01
  2.503994e+01    7.777109e-01
  2.505581e+01    7.880393e-01
  2.507169e+01    8.207667e-01
  2.508756e+01    8.168005e-01
  2.510344e+01    8.181893e-01
  2.511931e+01    8.281455e-01
  2.513519e+01    8.091956e-01
  2.515107e+01    8.317868e-01
  2.516694e+01    8.360235e-01
  2.518282e+01    8.289997e-01
  2.519869e+01    8.221217e-01
  2.521457e+01    8.264351e-01
  2.523044e+01    8.464694e-01
  2.524632e+01    8.573196e-01
  2.526219e+01    8.566068e-01
  2.527807e+01    8.344745e-01
  2.529395e+01    8.352180e-01
  2.530982e+01    8.611555e-01
  2.532570e+01    8.467811e-01
  2.534157e+01    8.654709e-01
  2.535745e+01    8.773364e-01
  2.537332e+01    8.909884e-01
  2.538920e+01    8.923751e-01
  2.540507e+01    8.921512e-01
  2.542095e+01    9.148920e-01
  2.543683e+01    9.119763e-01
  2.545270e+01    9.122542e-01
  2.546858e+01    9.379992e-01
  2.548445e+01    9.507200e-01
  2.550033e+01    9.637922e-01
  2.551620e+01    9.864750e-01
  2.553208e+01    1.021376e+00
  2.554795e+01    1.016054e+00
  2.556383e+01    1.014871e+00
  2.557971e+01    1.066201e+00
  2.559558e+01    1.091521e+00
  2.561146e+01    1.114535e+00
  2.562733e+01    1.160870e+00
  2.564321e+01    1.178457e+00
  2.565908e+01    1.226943e+00
  2.567496e+01    1.303353e+00
  2.569083e+01    1.369355e+00
  2.570671e+01    1.455341e+00
  2.572259e+01    1.527447e+00
  2.573846e+01    1.642975e+00
  2.575434e+01    1.788275e+00
  2.577021e+01    1.937721e+00
  2.578609e+01    2.165457e+00
  2.580196e+01    2.417927e+00
  2.581784e+01    2.748143e+00
  2.583371e+01    3.154012e+00
  2.584959e+01    3.564875e+00
  2.586547e+01    4.058247e+00
  2.588134e+01    4.660641e+00
  2.589722e+01    5.383708e+00
  2.591309e+01    6.048513e+00
  2.592897e+01    6.754166e+00
  2.594484e+01    7.308074e+00
  2.596072e+01    7.814771e+00
  2.597660e+01    8.139031e+00
  2.599247e+01    8.088455e+00
  2.600835e+01    7.760908e+00
  2.602422e+01    7.137277e+00
  2.604010e+01    6.351706e+00
  2.605597e+01    5.560027e+00
  2.607185e+01    4.761090e+00
  2.608772e+01    4.009888e+00
  2.610360e+01    3.488884e+00
  2.611948e+01    3.053301e+00
  2.613535e+01    2.674107e+00
  2.615123e+01    2.355590e+00
  2.616710e+01    2.124506e+00
  2.618298e+01    1.924607e+00
  2.619885e+01    1.768590e+00
  2.621473e+01    1.648286e+00
  2.623060e+01    1.540619e+00
  2.624648e+01    1.434659e+00
  2.626236e+01    1.375677e+00
  2.627823e+01    1.295767e+00
  2.629411e+01    1.221477e+00
  2.630998e+01    1.186861e+00
  2.632586e+01    1.173670e+00
  2.634173e+01    1.101321e+00
  2.635761e+01    1.075364e+00
  2.637348e+01    1.058593e+00
  2.638936e+01    1.010962e+00
  2.640524e+01    1.000120e+00
  2.642111e+01    9.930821e-01
  2.643699e+01    9.892724e-01
  2.645286e+01    9.693149e-01
  2.646874e+01    9.484693e-01
  2.648461e+01    9.443181e-01
  2.650049e+01    9.284338e-01
  2.651636e+01    9.113991e-01
  2.653224e+01    9.130343e-01
  2.654812e+01    9.193113e-01
  2.656399e+01    9.149747e-01
  2.657987e+01    9.161134e-01
  2.659574e+01    9.036295e-01
  2.661162e+01    9.019489e-01
  2.662749e+01    9.164442e-01
  2.664337e+01    9.104499e-01
  2.665924e+01    8.793557e-01
  2.667512e+01    8.726819e-01
  2.669100e+01    8.960645e-01
  2.670687e+01    9.101459e-01
  2.672275e+01    8.980499e-01
  2.673862e+01    8.928692e-01
  2.675450e+01    9.063921e-01
  2.677037e+01    9.003938e-01
  2.678625e+01    8.961210e-01
  2.680212e+01    8.895810e-01
  2.681800e+01    8.917255e-01
  2.683388e+01    8.694612e-01
  2.684975e+01    8.956669e-01
  2.686563e+01    9.107724e-01
  2.688150e+01    9.071416e-01
  2.689738e+01    9.165965e-01
  2.691325e+01    9.381471e-01
  2.692913e+01    9.380505e-01
  2.694501e+01    9.547397e-01
  2.696088e+01    9.665259e-01
  2.697676e+01    9.593658e-01
  2.699263e+01    9.699852e-01
  2.700851e+01    1.012563e+00
  2.702438e+01    1.045552e+00
  2.704026e+01    1.060535e+00
  2.705613e+01    1.111094e+00
  2.707201e+01    1.166162e+00
  2.708789e+01    1.246606e+00
  2.710376e+01    1.311554e+00
  2.711964e+01    1.403472e+00
  2.713551e+01    1.526488e+00
  2.715139e+01    1.687996e+00
  2.716726e+01    1.836285e+00
  2.718314e+01    1.994311e+00
  2.719901e+01    2.144727e+00
  2.721489e+01    2.299256e+00
  2.723077e+01    2.348609e+00
  2.724664e+01    2.359955e+00
  2.726252e+01    2.337181e+00
  2.727839e+01    2.194720e+00
  2.729427e+01    2.070885e+00
  2.731014e+01    1.886967e+00
  2.732602e+01    1.748270e+00
  2.734189e+01    1.596747e+00
  2.735777e+01    1.413351e+00
  2.737365e+01    1.329302e+00
  2.738952e+01    1.238179e+00
  2.740540e+01    1.165410e+00
  2.742127e+01    1.102476e+00
  2.743715e+01    1.042944e+00
  2.745302e+01    1.012123e+00
  2.746890e+01    1.001253e+00
  2.748477e+01    9.971534e-01
  2.750065e+01    9.728715e-01
  2.751653e+01    9.322953e-01
  2.753240e+01    9.101312e-01
  2.754828e+01    9.156321e-01
  2.756415e+01    9.072064e-01
  2.758003e+01    8.751930e-01
  2.759590e+01    8.711887e-01
  2.761178e+01    8.669001e-01
  2.762765e+01    8.349309e-01
  2.764353e+01    8.206021e-01
  2.765941e+01    8.439460e-01
  2.767528e+01    8.461198e-01
  2.769116e+01    8.320541e-01
  2.770703e+01    8.213454e-01
  2.772291e+01    8.120470e-01
  2.773878e+01    8.175543e-01
  2.775466e+01    8.110861e-01
  2.777054e+01    8.329468e-01
  2.778641e+01    8.242754e-01
  2.780229e+01    8.136026e-01
  2.781816e+01    8.036606e-01
  2.783404e+01    8.091835e-01
  2.784991e+01    7.971534e-01
  2.786579e+01    7.919676e-01
  2.788166e+01    7.829609e-01
  2.789754e+01    8.130769e-01
  2.791342e+01    7.684891e-01
  2.792929e+01    7.693825e-01
  2.794517e+01    7.969906e-01
  2.796104e+01    7.977005e-01
  2.797692e+01    7.748337e-01
  2.799279e+01    7.799932e-01
  2.800867e+01    7.848629e-01
  2.802454e+01    7.911875e-01
  2.804042e+01    8.131433e-01
  2.805630e+01    7.940822e-01
  2.807217e+01    7.724547e-01
  2.808805e+01    7.590473e-01
  2.810392e+01    7.720276e-01
  2.811980e+01    7.684928e-01
  2.813567e+01    7.686269e-01
  2.815155e+01    7.866724e-01
  2.816742e+01    7.749720e-01
  2.818330e+01    7.770843e-01
  2.819918e+01    7.635373e-01
  2.821505e+01    7.572283e-01
  2.823093e+01    7.685630e-01
  2.824680e+01    7.808403e-01
  2.826268e+01    7.675906e-01
  2.827855e+01    7.761094e-01
  2.829443e+01    7.333335e-01
  2.831030e+01    7.595318e-01
  2.832618e+01    7.663401e-01
  2.834206e+01    7.735370e-01
  2.835793e+01    7.571886e-01
  2.837381e+01    7.653372e-01
  2.838968e+01    7.692272e-01
  2.840556e+01    7.766089e-01
  2.842143e+01    7.698492e-01
  2.843731e+01    7.553980e-01
  2.845318e+01    7.430314e-01
  2.846906e+01    7.235262e-01
  2.848494e+01    7.633041e-01
  2.850081e+01    7.551631e-01
  2.851669e+01    7.295672e-01
  2.853256e+01    7.337804e-01
  2.854844e+01    7.438264e-01
  2.856431e+01    7.687395e-01
  2.858019e+01    7.655318e-01
  2.859606e+01    7.311280e-01
  2.861194e+01    7.498842e-01
  2.862782e+01    7.405676e-01
  2.864369e+01    7.593424e-01
  2.865957e+01    7.539334e-01
  2.867544e+01    7.553006e-01
  2.869132e+01    7.437851e-01
  2.870719e+01    7.171279e-01
  2.872307e+01    7.315871e-01
  2.873895e+01    7.410191e-01
  2.875482e+01    7.211664e-01
  2.877070e+01    7.495036e-01
  2.878657e+01    7.400362e-01
  2.880245e+01    7.469214e-01
  2.881832e+01    7.524073e-01
  2.883420e+01    7.533113e-01
  2.885007e+01    7.339327e-01
  2.886595e+01    7.464739e-01
  2.888183e+01    7.335629e-01
  2.889770e+01    7.154650e-01
  2.891358e+01    7.233638e-01
  2.892945e+01    7.135121e-01
  2.894533e+01    7.535341e-01
  2.896120e+01    7.726963e-01
  2.897708e+01    7.492163e-01
  2.899295e+01    7.509069e-01
  2.900883e+01    7.346266e-01
  2.902471e+01    7.412826e-01
  2.904058e+01    7.304726e-01
  2.905646e+01    7.164767e-01
  2.907233e+01    7.224664e-01
  2.908821e+01    7.401353e-01
  2.910408e+01    7.373456e-01
  2.911996e+01    7.447093e-01
  2.913583e+01    7.339265e-01
  2.915171e+01    7.282605e-01
  2.916759e+01    7.319554e-01
  2.918346e+01    7.276164e-01
  2.919934e+01    7.446779e-01
  2.921521e+01    7.398950e-01
  2.923109e+01    7.240611e-01
  2.924696e+01    7.216709e-01
  2.926284e+01    7.327082e-01
  2.927871e+01    7.237808e-01
  2.929459e+01    7.354903e-01
  2.931047e+01    7.397422e-01
  2.932634e+01    7.327167e-01
  2.934222e+01    7.375860e-01
  2.935809e+01    7.149212e-01
  2.937397e+01    6.975166e-01
  2.938984e+01    7.157285e-01
  2.940572e+01    7.029786e-01
  2.942159e+01    7.174687e-01
  2.943747e+01    7.300224e-01
  2.945335e+01    7.289534e-01
  2.946922e+01    7.106899e-01
  2.948510e+01    7.118990e-01
  2.950097e+01    7.122712e-01
  2.951685e+01    7.268488e-01
  2.953272e+01    7.293602e-01
  2.954860e+01    7.312737e-01
  2.956447e+01    7.282709e-01
  2.958035e+01    7.188135e-01
  2.959623e+01    6.835321e-01
  2.961210e+01    7.037568e-01
  2.962798e+01    7.090371e-01
  2.964385e+01    7.099356e-01
  2.965973e+01    7.291849e-01
  2.967560e+01    7.205039e-01
  2.969148e+01    7.035624e-01
  2.970736e+01    7.187998e-01
  2.972323e+01    7.316709e-01
  2.973911e+01    7.154783e-01
  2.975498e+01    7.126248e-01
  2.977086e+01    7.052724e-01
  2.978673e+01    7.198951e-01
  2.980261e+01    7.118936e-01
  2.981848e+01    7.126065e-01
  2.983436e+01    7.111399e-01
  2.985024e+01    7.087744e-01
  2.986611e+01    7.078331e-01
  2.988199e+01    7.086769e-01
  2.989786e+01    7.160335e-01
  2.991374e+01    7.172614e-01
  2.992961e+01    7.134923e-01
  2.994549e+01    7.035427e-01
  2.996136e+01    7.137437e-01
  2.997724e+01    7.162656e-01
  2.999312e+01    7.283749e-01
  3.000899e+01    7.448086e-01
  3.002487e+01    7.478454e-01
  3.004074e+01    7.315810e-01
  3.005662e+01    7.499020e-01
  3.007249e+01    7.299901e-01
  3.008837e+01    7.186303e-01
  3.010424e+01    7.328777e-01
  3.012012e+01    6.943573e-01
  3.013600e+01    6.988454e-01
  3.015187e+01    7.094607e-01
  3.016775e+01    7.153617e-01
  3.018362e+01    7.208104e-01
  3.019950e+01    6.967754e-01
  3.021537e+01    7.005379e-01
  3.023125e+01    7.079971e-01
  3.024712e+01    7.013587e-01
  3.026300e+01    7.163996e-01
  3.027888e+01    7.071919e-01
  3.029475e+01    7.141632e-01
  3.031063e+01    7.076995e-01
  3.032650e+01    6.955057e-01
  3.034238e+01    6.912605e-01
  3.035825e+01    7.126785e-01
  3.037413e+01    7.272178e-01
  3.039000e+01    7.070075e-01
  3.040588e+01    7.078920e-01
  3.042176e+01    6.822094e-01
  3.043763e+01    6.933408e-01
  3.045351e+01    7.007210e-01
  3.046938e+01    7.069237e-01
  3.048526e+01    7.165948e-01
  3.050113e+01    7.087520e-01
  3.051701e+01    6.963723e-01
  3.053288e+01    6.947198e-01
  3.054876e+01    6.821600e-01
  3.056464e+01    7.170964e-01
  3.058051e+01    6.932601e-01
  3.059639e+01    6.711889e-01
  3.061226e+01    6.890020e-01
  3.062814e+01    7.098634e-01
  3.064401e+01    7.066943e-01
  3.065989e+01    7.092811e-01
  3.067577e+01    7.146622e-01
  3.069164e+01    7.160136e-01
  3.070752e+01    7.204267e-01
  3.072339e+01    7.037262e-01
  3.073927e+01    7.070450e-01
  3.075514e+01    6.948875e-01
  3.077102e+01    6.961911e-01
  3.078689e+01    6.937704e-01
  3.080277e+01    6.957841e-01
  3.081865e+01    7.036836e-01
  3.083452e+01    6.944258e-01
  3.085040e+01    7.133783e-01
  3.086627e+01    7.249578e-01
  3.088215e+01    7.211930e-01
  3.089802e+01    7.246175e-01
  3.091390e+01    7.040757e-01
  3.092977e+01    6.804010e-01
  3.094565e+01    7.157980e-01
  3.096153e+01    7.179337e-01
  3.097740e+01    7.227989e-01
  3.099328e+01    7.194714e-01
  3.100915e+01    7.002450e-01
  3.102503e+01    7.060006e-01
  3.104090e+01    6.926544e-01
  3.105678e+01    7.088108e-01
  3.107265e+01    7.231312e-01
  3.108853e+01    7.137920e-01
  3.110441e+01    7.012264e-01
  3.112028e+01    6.881565e-01
  3.113616e+01    7.385980e-01
  3.115203e+01    7.130507e-01
  3.116791e+01    7.176014e-01
  3.118378e+01    7.371895e-01
  3.119966e+01    7.250838e-01
  3.121553e+01    7.182232e-01
  3.123141e+01    7.097966e-01
  3.124729e+01    7.222438e-01
  3.126316e+01    7.133646e-01
  3.127904e+01    7.247441e-01
  3.129491e+01    7.528490e-01
  3.131079e+01    7.430875e-01
  3.132666e+01    7.463055e-01
  3.134254e+01    7.515463e-01
  3.135841e+01    7.195997e-01
  3.137429e+01    7.079089e-01
  3.139017e+01    7.474129e-01
  3.140604e+01    7.550828e-01
  3.142192e+01    7.176203e-01
  3.143779e+01    7.410718e-01
  3.145367e+01    7.246237e-01
  3.146954e+01    7.583345e-01
  3.148542e+01    7.555817e-01
  3.150129e+01    7.392528e-01
  3.151717e+01    7.521444e-01
  3.153305e+01    7.674122e-01
  3.154892e+01    7.845413e-01
  3.156480e+01    7.864162e-01
  3.158067e+01    7.917290e-01
  3.159655e+01    8.024093e-01
  3.161242e+01    8.033543e-01
  3.162830e+01    8.419149e-01
  3.164418e+01    8.430856e-01
  3.166005e+01    8.508196e-01
  3.167593e+01    8.717490e-01
  3.169180e+01    9.165859e-01
  3.170768e+01    9.452895e-01
  3.172355e+01    9.788108e-01
  3.173943e+01    9.915413e-01
  3.175530e+01    1.051929e+00
  3.177118e+01    1.106310e+00
  3.178706e+01    1.178106e+00
  3.180293e+01    1.308363e+00
  3.181881e+01    1.406640e+00
  3.183468e+01    1.528282e+00
  3.185056e+01    1.639243e+00
  3.186643e+01    1.854993e+00
  3.188231e+01    2.021149e+00
  3.189818e+01    2.172465e+00
  3.191406e+01    2.276310e+00
  3.192994e+01    2.333427e+00
  3.194581e+01    2.363873e+00
  3.196169e+01    2.262533e+00
  3.197756e+01    2.146128e+00
  3.199344e+01    1.958709e+00
  3.200931e+01    1.781726e+00
  3.202519e+01    1.613018e+00
  3.204106e+01    1.469738e+00
  3.205694e+01    1.346841e+00
  3.207282e+01    1.213563e+00
  3.208869e+01    1.121016e+00
  3.210457e+01    1.085967e+00
  3.212044e+01    1.023321e+00
  3.213632e+01    9.642764e-01
  3.215219e+01    9.485067e-01
  3.216807e+01    9.095537e-01
  3.218394e+01    8.851182e-01
  3.219982e+01    8.564367e-01
  3.221570e+01    8.358638e-01
  3.223157e+01    8.065041e-01
  3.224745e+01    8.065146e-01
  3.226332e+01    8.296368e-01
  3.227920e+01    7.814430e-01
  3.229507e+01    7.817005e-01
  3.231095e+01    7.856556e-01
  3.232682e+01    7.773387e-01
  3.234270e+01    7.478061e-01
  3.235858e+01    7.393542e-01
  3.237445e+01    7.347680e-01
  3.239033e+01    7.554308e-01
  3.240620e+01    7.584210e-01
  3.242208e+01    7.571111e-01
  3.243795e+01    7.234349e-01
  3.245383e+01    7.423012e-01
  3.246970e+01    7.328274e-01
  3.248558e+01    7.171737e-01
  3.250146e+01    7.197840e-01
  3.251733e+01    7.210061e-01
  3.253321e+01    7.078227e-01
  3.254908e+01    7.226799e-01
