# == pyFAI calibration ==
# Distance Sample to Detector: 0.3999999939076516 m
# PONI: 9.750e-02, 1.135e-01 m
# Rotations: -0.000175 0.000000 -0.000000 rad
# 
# == Fit2d calibration ==
# Distance Sample-beamCenter: 400.000 mm
# Center: x=1514.000, y=1300.000 pix
# Tilt: 0.010 deg  TiltPlanRot: 0.010 deg
# 
# Detector Detector	 Spline= None	 PixelSize= 7.500e-05, 7.500e-05 m
#    Detector has a mask: False 
#    Detector has a dark current: False 
#    detector has a flat field: False 
# 
# Wavelength: 6.888e-11 m
# Mask applied: user provided
# Dark current applied: False
# Flat field applied: False
# Polarization factor: 0.99
# Normalization factor: 1.0
# --> /home/myspot/data/2024_07_Rosario/Ru-CGO-ex/2024-07-27_002_Ru-CGO-ex_Activtation_ramp_000002_data_000098.dat
#       q_nm^-1             I 
  2.003187e-02    1.765032e-01
  3.590745e-02    4.693847e-01
  5.178302e-02    2.371636e-01
  6.765859e-02    6.350305e-02
  8.353417e-02    7.064590e-02
  9.940974e-02    3.041006e-02
  1.152853e-01    4.308920e-02
  1.311609e-01    4.037289e-02
  1.470365e-01    3.294224e-02
  1.629120e-01    1.389568e-02
  1.787876e-01    1.919273e-02
  1.946632e-01    3.151110e-02
  2.105388e-01    6.417923e-02
  2.264143e-01    4.767453e-02
  2.422899e-01    3.631722e-02
  2.581655e-01    5.839384e-02
  2.740411e-01    4.482973e-02
  2.899166e-01    2.707660e-02
  3.057922e-01    1.408146e-02
  3.216678e-01    4.535097e-02
  3.375433e-01    4.214929e-02
  3.534189e-01    1.533664e-02
  3.692945e-01    6.043416e-02
  3.851701e-01    4.612843e-02
  4.010456e-01    2.887559e-02
  4.169212e-01    2.101963e-02
  4.327968e-01    2.536350e-02
  4.486724e-01    2.423191e-02
  4.645479e-01    3.069974e-02
  4.804235e-01    2.430729e-02
  4.962991e-01    5.203516e-02
  5.121747e-01    4.463338e-02
  5.280502e-01    3.615482e-02
  5.439258e-01    4.793762e-02
  5.598014e-01    2.114606e-02
  5.756770e-01    2.991516e-02
  5.915525e-01    5.615412e-02
  6.074281e-01    4.503430e-02
  6.233037e-01    1.613567e-02
  6.391793e-01    1.368658e-02
  6.550548e-01    3.234463e-02
  6.709304e-01    3.450736e-02
  6.868060e-01    2.668871e-02
  7.026815e-01    2.457069e-02
  7.185571e-01    4.128104e-02
  7.344327e-01    3.457724e-02
  7.503083e-01    6.809144e-02
  7.661838e-01    1.262159e-01
  7.820594e-01    1.732266e-01
  7.979350e-01    1.838571e-01
  8.138106e-01    1.967909e-01
  8.296861e-01    2.411428e-01
  8.455617e-01    2.848844e-01
  8.614373e-01    3.595622e-01
  8.773129e-01    4.154380e-01
  8.931884e-01    5.050349e-01
  9.090640e-01    5.814263e-01
  9.249396e-01    6.089169e-01
  9.408152e-01    7.415117e-01
  9.566907e-01    8.337550e-01
  9.725663e-01    8.210760e-01
  9.884419e-01    9.665052e-01
  1.004317e+00    1.023297e+00
  1.020193e+00    1.096334e+00
  1.036069e+00    1.082483e+00
  1.051944e+00    1.099785e+00
  1.067820e+00    1.296153e+00
  1.083695e+00    1.336862e+00
  1.099571e+00    1.468747e+00
  1.115446e+00    1.459962e+00
  1.131322e+00    1.418858e+00
  1.147198e+00    1.402798e+00
  1.163073e+00    1.426040e+00
  1.178949e+00    1.587321e+00
  1.194824e+00    1.579517e+00
  1.210700e+00    1.726652e+00
  1.226575e+00    1.972406e+00
  1.242451e+00    2.220757e+00
  1.258327e+00    2.291145e+00
  1.274202e+00    2.452302e+00
  1.290078e+00    2.451125e+00
  1.305953e+00    2.480510e+00
  1.321829e+00    2.608741e+00
  1.337705e+00    2.557416e+00
  1.353580e+00    2.558972e+00
  1.369456e+00    2.573880e+00
  1.385331e+00    2.625075e+00
  1.401207e+00    2.622531e+00
  1.417082e+00    2.686513e+00
  1.432958e+00    2.828663e+00
  1.448834e+00    2.703821e+00
  1.464709e+00    2.725261e+00
  1.480585e+00    2.999599e+00
  1.496460e+00    2.894302e+00
  1.512336e+00    2.858155e+00
  1.528211e+00    2.773755e+00
  1.544087e+00    2.916573e+00
  1.559963e+00    2.917490e+00
  1.575838e+00    2.800012e+00
  1.591714e+00    2.915463e+00
  1.607589e+00    2.995302e+00
  1.623465e+00    3.046116e+00
  1.639340e+00    2.933700e+00
  1.655216e+00    2.838743e+00
  1.671092e+00    2.949752e+00
  1.686967e+00    2.884542e+00
  1.702843e+00    2.894130e+00
  1.718718e+00    2.773686e+00
  1.734594e+00    2.776214e+00
  1.750469e+00    2.799762e+00
  1.766345e+00    2.834599e+00
  1.782221e+00    2.723777e+00
  1.798096e+00    2.773130e+00
  1.813972e+00    2.724731e+00
  1.829847e+00    2.760085e+00
  1.845723e+00    2.692426e+00
  1.861598e+00    2.686835e+00
  1.877474e+00    2.760381e+00
  1.893350e+00    2.772582e+00
  1.909225e+00    2.781961e+00
  1.925101e+00    2.608626e+00
  1.940976e+00    2.749301e+00
  1.956852e+00    2.712514e+00
  1.972727e+00    2.691770e+00
  1.988603e+00    2.724485e+00
  2.004479e+00    2.699543e+00
  2.020354e+00    2.714335e+00
  2.036230e+00    2.734201e+00
  2.052105e+00    2.712695e+00
  2.067981e+00    2.650142e+00
  2.083856e+00    2.634768e+00
  2.099732e+00    2.631625e+00
  2.115608e+00    2.708158e+00
  2.131483e+00    2.692009e+00
  2.147359e+00    2.675961e+00
  2.163234e+00    2.729026e+00
  2.179110e+00    2.651077e+00
  2.194985e+00    2.719448e+00
  2.210861e+00    2.770896e+00
  2.226737e+00    2.811507e+00
  2.242612e+00    2.694395e+00
  2.258488e+00    2.668509e+00
  2.274363e+00    2.758797e+00
  2.290239e+00    2.672801e+00
  2.306115e+00    2.619097e+00
  2.321990e+00    2.668008e+00
  2.337866e+00    2.730613e+00
  2.353741e+00    2.686661e+00
  2.369617e+00    2.780015e+00
  2.385492e+00    2.699368e+00
  2.401368e+00    2.753855e+00
  2.417244e+00    2.784032e+00
  2.433119e+00    2.735416e+00
  2.448995e+00    2.814298e+00
  2.464870e+00    2.717163e+00
  2.480746e+00    2.726257e+00
  2.496621e+00    2.737477e+00
  2.512497e+00    2.775632e+00
  2.528373e+00    2.732302e+00
  2.544248e+00    2.679413e+00
  2.560124e+00    2.723752e+00
  2.575999e+00    2.676130e+00
  2.591875e+00    2.798451e+00
  2.607750e+00    2.843775e+00
  2.623626e+00    2.764881e+00
  2.639502e+00    2.805137e+00
  2.655377e+00    2.745477e+00
  2.671253e+00    2.761531e+00
  2.687128e+00    2.779211e+00
  2.703004e+00    2.790297e+00
  2.718879e+00    2.830949e+00
  2.734755e+00    2.724690e+00
  2.750631e+00    2.773277e+00
  2.766506e+00    2.798252e+00
  2.782382e+00    2.859206e+00
  2.798257e+00    2.761047e+00
  2.814133e+00    2.727441e+00
  2.830008e+00    2.833952e+00
  2.845884e+00    2.800869e+00
  2.861760e+00    2.951712e+00
  2.877635e+00    2.859256e+00
  2.893511e+00    2.822481e+00
  2.909386e+00    2.866938e+00
  2.925262e+00    2.852529e+00
  2.941137e+00    2.917224e+00
  2.957013e+00    2.843265e+00
  2.972889e+00    2.844790e+00
  2.988764e+00    2.758300e+00
  3.004640e+00    2.842003e+00
  3.020515e+00    2.959238e+00
  3.036391e+00    2.867847e+00
  3.052266e+00    2.853955e+00
  3.068142e+00    2.940497e+00
  3.084018e+00    2.836281e+00
  3.099893e+00    2.845291e+00
  3.115769e+00    2.865205e+00
  3.131644e+00    2.878258e+00
  3.147520e+00    2.842760e+00
  3.163395e+00    2.842607e+00
  3.179271e+00    2.802383e+00
  3.195147e+00    2.857855e+00
  3.211022e+00    2.996150e+00
  3.226898e+00    2.855667e+00
  3.242773e+00    2.806686e+00
  3.258649e+00    2.905008e+00
  3.274525e+00    2.942179e+00
  3.290400e+00    2.919686e+00
  3.306276e+00    2.944378e+00
  3.322151e+00    2.831481e+00
  3.338027e+00    2.843025e+00
  3.353902e+00    2.920448e+00
  3.369778e+00    2.910225e+00
  3.385654e+00    2.861747e+00
  3.401529e+00    2.877401e+00
  3.417405e+00    3.001244e+00
  3.433280e+00    2.954476e+00
  3.449156e+00    2.882141e+00
  3.465031e+00    2.960259e+00
  3.480907e+00    2.995381e+00
  3.496783e+00    2.945810e+00
  3.512658e+00    2.937494e+00
  3.528534e+00    2.933696e+00
  3.544409e+00    2.920296e+00
  3.560285e+00    3.039123e+00
  3.576160e+00    3.004273e+00
  3.592036e+00    2.920407e+00
  3.607912e+00    2.918405e+00
  3.623787e+00    2.882235e+00
  3.639663e+00    2.899860e+00
  3.655538e+00    2.921531e+00
  3.671414e+00    2.932681e+00
  3.687289e+00    2.800355e+00
  3.703165e+00    2.943527e+00
  3.719041e+00    2.935261e+00
  3.734916e+00    2.943564e+00
  3.750792e+00    2.977035e+00
  3.766667e+00    2.967187e+00
  3.782543e+00    2.955333e+00
  3.798418e+00    2.970205e+00
  3.814294e+00    2.957719e+00
  3.830170e+00    3.003123e+00
  3.846045e+00    2.929745e+00
  3.861921e+00    2.941326e+00
  3.877796e+00    2.995615e+00
  3.893672e+00    2.848162e+00
  3.909547e+00    2.888068e+00
  3.925423e+00    2.895424e+00
  3.941299e+00    2.945907e+00
  3.957174e+00    2.958305e+00
  3.973050e+00    3.000005e+00
  3.988925e+00    2.939426e+00
  4.004801e+00    2.965741e+00
  4.020676e+00    3.040783e+00
  4.036552e+00    2.946712e+00
  4.052428e+00    2.983959e+00
  4.068303e+00    3.055874e+00
  4.084179e+00    2.955991e+00
  4.100054e+00    2.956695e+00
  4.115930e+00    2.986260e+00
  4.131806e+00    2.994495e+00
  4.147681e+00    3.011242e+00
  4.163557e+00    3.051655e+00
  4.179432e+00    3.021496e+00
  4.195308e+00    3.011718e+00
  4.211183e+00    2.917613e+00
  4.227059e+00    3.010554e+00
  4.242935e+00    3.121507e+00
  4.258810e+00    3.057012e+00
  4.274686e+00    3.001506e+00
  4.290561e+00    2.987740e+00
  4.306437e+00    3.042898e+00
  4.322312e+00    2.971266e+00
  4.338188e+00    3.030190e+00
  4.354064e+00    3.143549e+00
  4.369939e+00    3.037553e+00
  4.385815e+00    2.998177e+00
  4.401690e+00    3.046079e+00
  4.417566e+00    2.977164e+00
  4.433441e+00    2.946737e+00
  4.449317e+00    2.935091e+00
  4.465193e+00    3.047587e+00
  4.481068e+00    3.155003e+00
  4.496944e+00    3.125139e+00
  4.512819e+00    3.036032e+00
  4.528695e+00    2.992251e+00
  4.544570e+00    3.051846e+00
  4.560446e+00    2.974973e+00
  4.576322e+00    3.032099e+00
  4.592197e+00    3.032343e+00
  4.608073e+00    3.119988e+00
  4.623948e+00    3.085950e+00
  4.639824e+00    3.071296e+00
  4.655699e+00    3.059626e+00
  4.671575e+00    3.177958e+00
  4.687451e+00    3.112529e+00
  4.703326e+00    3.062284e+00
  4.719202e+00    3.004908e+00
  4.735077e+00    3.260243e+00
  4.750953e+00    3.162628e+00
  4.766828e+00    3.000556e+00
  4.782704e+00    3.069804e+00
  4.798580e+00    3.169558e+00
  4.814455e+00    3.180007e+00
  4.830331e+00    3.088824e+00
  4.846206e+00    3.179429e+00
  4.862082e+00    3.105833e+00
  4.877957e+00    3.092841e+00
  4.893833e+00    3.129605e+00
  4.909709e+00    3.073369e+00
  4.925584e+00    3.036311e+00
  4.941460e+00    3.098797e+00
  4.957335e+00    3.169461e+00
  4.973211e+00    3.129380e+00
  4.989086e+00    3.041543e+00
  5.004962e+00    3.052418e+00
  5.020838e+00    3.092678e+00
  5.036713e+00    3.100507e+00
  5.052589e+00    3.108057e+00
  5.068464e+00    3.124715e+00
  5.084340e+00    3.078614e+00
  5.100216e+00    3.095199e+00
  5.116091e+00    3.122600e+00
  5.131967e+00    3.087129e+00
  5.147842e+00    3.087193e+00
  5.163718e+00    3.047143e+00
  5.179593e+00    3.122869e+00
  5.195469e+00    3.132936e+00
  5.211345e+00    3.042197e+00
  5.227220e+00    3.087288e+00
  5.243096e+00    3.115947e+00
  5.258971e+00    3.060940e+00
  5.274847e+00    3.060090e+00
  5.290722e+00    3.109756e+00
  5.306598e+00    3.141372e+00
  5.322474e+00    3.154629e+00
  5.338349e+00    3.143236e+00
  5.354225e+00    3.150246e+00
  5.370100e+00    3.107604e+00
  5.385976e+00    3.068265e+00
  5.401851e+00    3.043303e+00
  5.417727e+00    3.037676e+00
  5.433603e+00    3.008120e+00
  5.449478e+00    3.108632e+00
  5.465354e+00    3.139009e+00
  5.481229e+00    3.082684e+00
  5.497105e+00    3.014078e+00
  5.512980e+00    2.933046e+00
  5.528856e+00    2.946929e+00
  5.544732e+00    3.036051e+00
  5.560607e+00    3.041705e+00
  5.576483e+00    3.006266e+00
  5.592358e+00    3.007761e+00
  5.608234e+00    3.033884e+00
  5.624109e+00    3.024281e+00
  5.639985e+00    3.046932e+00
  5.655861e+00    3.102347e+00
  5.671736e+00    3.006683e+00
  5.687612e+00    2.992139e+00
  5.703487e+00    3.051661e+00
  5.719363e+00    3.121643e+00
  5.735238e+00    3.025469e+00
  5.751114e+00    3.004991e+00
  5.766990e+00    3.091921e+00
  5.782865e+00    3.028891e+00
  5.798741e+00    2.972908e+00
  5.814616e+00    2.978677e+00
  5.830492e+00    2.939911e+00
  5.846367e+00    2.954422e+00
  5.862243e+00    2.956147e+00
  5.878119e+00    2.954103e+00
  5.893994e+00    2.982155e+00
  5.909870e+00    3.050433e+00
  5.925745e+00    2.997137e+00
  5.941621e+00    2.973876e+00
  5.957497e+00    2.928329e+00
  5.973372e+00    2.913296e+00
  5.989248e+00    2.944487e+00
  6.005123e+00    3.056826e+00
  6.020999e+00    3.041434e+00
  6.036874e+00    2.985607e+00
  6.052750e+00    3.002908e+00
  6.068626e+00    2.930996e+00
  6.084501e+00    3.065170e+00
  6.100377e+00    3.141022e+00
  6.116252e+00    3.020657e+00
  6.132128e+00    3.015626e+00
  6.148003e+00    3.020118e+00
  6.163879e+00    3.065195e+00
  6.179755e+00    3.058827e+00
  6.195630e+00    2.990312e+00
  6.211506e+00    3.015189e+00
  6.227381e+00    3.070403e+00
  6.243257e+00    3.007827e+00
  6.259132e+00    3.027510e+00
  6.275008e+00    2.993459e+00
  6.290884e+00    3.018884e+00
  6.306759e+00    2.994719e+00
  6.322635e+00    3.004477e+00
  6.338510e+00    3.010570e+00
  6.354386e+00    3.014081e+00
  6.370261e+00    2.956892e+00
  6.386137e+00    2.977215e+00
  6.402013e+00    2.965680e+00
  6.417888e+00    3.005771e+00
  6.433764e+00    2.934286e+00
  6.449639e+00    2.996752e+00
  6.465515e+00    2.986523e+00
  6.481390e+00    3.018708e+00
  6.497266e+00    2.936808e+00
  6.513142e+00    2.999510e+00
  6.529017e+00    3.050838e+00
  6.544893e+00    3.000784e+00
  6.560768e+00    3.004063e+00
  6.576644e+00    3.017661e+00
  6.592519e+00    3.029545e+00
  6.608395e+00    2.986287e+00
  6.624271e+00    2.959489e+00
  6.640146e+00    2.984997e+00
  6.656022e+00    2.971995e+00
  6.671897e+00    2.959896e+00
  6.687773e+00    3.012080e+00
  6.703648e+00    3.045106e+00
  6.719524e+00    3.005681e+00
  6.735400e+00    2.972786e+00
  6.751275e+00    2.920313e+00
  6.767151e+00    2.986124e+00
  6.783026e+00    3.027830e+00
  6.798902e+00    2.935560e+00
  6.814777e+00    2.963456e+00
  6.830653e+00    2.989553e+00
  6.846529e+00    3.018704e+00
  6.862404e+00    3.017117e+00
  6.878280e+00    3.028721e+00
  6.894155e+00    2.952263e+00
  6.910031e+00    3.021313e+00
  6.925907e+00    3.060486e+00
  6.941782e+00    3.041595e+00
  6.957658e+00    3.028479e+00
  6.973533e+00    2.940686e+00
  6.989409e+00    2.958713e+00
  7.005284e+00    2.956560e+00
  7.021160e+00    3.014657e+00
  7.037036e+00    2.971063e+00
  7.052911e+00    2.967604e+00
  7.068787e+00    2.973876e+00
  7.084662e+00    2.958251e+00
  7.100538e+00    2.926443e+00
  7.116413e+00    2.960644e+00
  7.132289e+00    2.953020e+00
  7.148165e+00    2.933653e+00
  7.164040e+00    2.925390e+00
  7.179916e+00    3.012226e+00
  7.195791e+00    3.023576e+00
  7.211667e+00    2.983604e+00
  7.227542e+00    2.922558e+00
  7.243418e+00    2.939691e+00
  7.259294e+00    2.938244e+00
  7.275169e+00    2.937409e+00
  7.291045e+00    2.965756e+00
  7.306920e+00    2.963432e+00
  7.322796e+00    2.905532e+00
  7.338671e+00    2.957154e+00
  7.354547e+00    2.942470e+00
  7.370423e+00    2.883642e+00
  7.386298e+00    2.968594e+00
  7.402174e+00    2.987544e+00
  7.418049e+00    2.961609e+00
  7.433925e+00    2.920822e+00
  7.449800e+00    2.924852e+00
  7.465676e+00    2.895050e+00
  7.481552e+00    2.946564e+00
  7.497427e+00    2.973240e+00
  7.513303e+00    2.959325e+00
  7.529178e+00    2.922212e+00
  7.545054e+00    2.855801e+00
  7.560929e+00    2.916339e+00
  7.576805e+00    2.949574e+00
  7.592681e+00    2.928999e+00
  7.608556e+00    2.860574e+00
  7.624432e+00    2.919753e+00
  7.640307e+00    2.952027e+00
  7.656183e+00    2.962277e+00
  7.672058e+00    2.935910e+00
  7.687934e+00    2.935303e+00
  7.703810e+00    2.854214e+00
  7.719685e+00    2.872118e+00
  7.735561e+00    2.867597e+00
  7.751436e+00    2.938866e+00
  7.767312e+00    2.907923e+00
  7.783187e+00    2.892186e+00
  7.799063e+00    2.905000e+00
  7.814939e+00    2.921710e+00
  7.830814e+00    2.925168e+00
  7.846690e+00    2.924281e+00
  7.862565e+00    2.907823e+00
  7.878441e+00    2.870202e+00
  7.894317e+00    2.903272e+00
  7.910192e+00    2.930404e+00
  7.926068e+00    2.914184e+00
  7.941943e+00    2.880376e+00
  7.957819e+00    2.885455e+00
  7.973694e+00    2.862820e+00
  7.989570e+00    2.894108e+00
  8.005446e+00    2.869945e+00
  8.021321e+00    2.896817e+00
  8.037197e+00    2.828660e+00
  8.053072e+00    2.899882e+00
  8.068948e+00    2.935153e+00
  8.084823e+00    2.888964e+00
  8.100699e+00    2.877762e+00
  8.116575e+00    2.888215e+00
  8.132450e+00    2.928486e+00
  8.148326e+00    2.913890e+00
  8.164201e+00    2.934009e+00
  8.180077e+00    2.920998e+00
  8.195952e+00    2.862115e+00
  8.211828e+00    2.894471e+00
  8.227704e+00    2.918136e+00
  8.243579e+00    2.966406e+00
  8.259455e+00    2.903928e+00
  8.275330e+00    2.813730e+00
  8.291206e+00    2.877575e+00
  8.307081e+00    2.890921e+00
  8.322957e+00    2.869611e+00
  8.338833e+00    2.904985e+00
  8.354708e+00    2.831405e+00
  8.370584e+00    2.794723e+00
  8.386459e+00    2.796756e+00
  8.402335e+00    2.813437e+00
  8.418210e+00    2.849545e+00
  8.434086e+00    2.921013e+00
  8.449962e+00    2.927141e+00
  8.465837e+00    2.915307e+00
  8.481713e+00    2.881727e+00
  8.497588e+00    2.797293e+00
  8.513464e+00    2.780344e+00
  8.529339e+00    2.818142e+00
  8.545215e+00    2.836156e+00
  8.561091e+00    2.805265e+00
  8.576966e+00    2.824152e+00
  8.592842e+00    2.825372e+00
  8.608717e+00    2.812736e+00
  8.624593e+00    2.837026e+00
  8.640468e+00    2.840143e+00
  8.656344e+00    2.827956e+00
  8.672220e+00    2.859309e+00
  8.688095e+00    2.822741e+00
  8.703971e+00    2.801407e+00
  8.719846e+00    2.833325e+00
  8.735722e+00    2.851339e+00
  8.751598e+00    2.835073e+00
  8.767473e+00    2.800392e+00
  8.783349e+00    2.772199e+00
  8.799224e+00    2.822331e+00
  8.815100e+00    2.767050e+00
  8.830975e+00    2.787797e+00
  8.846851e+00    2.765808e+00
  8.862727e+00    2.781445e+00
  8.878602e+00    2.811080e+00
  8.894478e+00    2.832377e+00
  8.910353e+00    2.830839e+00
  8.926229e+00    2.823265e+00
  8.942104e+00    2.776259e+00
  8.957980e+00    2.755768e+00
  8.973856e+00    2.801281e+00
  8.989731e+00    2.860006e+00
  9.005607e+00    2.772576e+00
  9.021482e+00    2.730468e+00
  9.037358e+00    2.769396e+00
  9.053233e+00    2.791158e+00
  9.069109e+00    2.797902e+00
  9.084985e+00    2.818521e+00
  9.100860e+00    2.760891e+00
  9.116736e+00    2.733188e+00
  9.132611e+00    2.768568e+00
  9.148487e+00    2.728154e+00
  9.164362e+00    2.732608e+00
  9.180238e+00    2.762215e+00
  9.196114e+00    2.750787e+00
  9.211989e+00    2.766147e+00
  9.227865e+00    2.782147e+00
  9.243740e+00    2.770267e+00
  9.259616e+00    2.714133e+00
  9.275491e+00    2.762823e+00
  9.291367e+00    2.689092e+00
  9.307243e+00    2.713517e+00
  9.323118e+00    2.748449e+00
  9.338994e+00    2.736350e+00
  9.354869e+00    2.745779e+00
  9.370745e+00    2.762453e+00
  9.386620e+00    2.781917e+00
  9.402496e+00    2.750534e+00
  9.418372e+00    2.721051e+00
  9.434247e+00    2.735659e+00
  9.450123e+00    2.701597e+00
  9.465998e+00    2.654207e+00
  9.481874e+00    2.739184e+00
  9.497749e+00    2.706743e+00
  9.513625e+00    2.704218e+00
  9.529501e+00    2.720913e+00
  9.545376e+00    2.759789e+00
  9.561252e+00    2.723154e+00
  9.577127e+00    2.645048e+00
  9.593003e+00    2.682862e+00
  9.608878e+00    2.722450e+00
  9.624754e+00    2.672867e+00
  9.640630e+00    2.684996e+00
  9.656505e+00    2.676957e+00
  9.672381e+00    2.689245e+00
  9.688256e+00    2.684814e+00
  9.704132e+00    2.703933e+00
  9.720008e+00    2.686005e+00
  9.735883e+00    2.735621e+00
  9.751759e+00    2.700822e+00
  9.767634e+00    2.686282e+00
  9.783510e+00    2.626608e+00
  9.799385e+00    2.607503e+00
  9.815261e+00    2.705156e+00
  9.831137e+00    2.691044e+00
  9.847012e+00    2.682128e+00
  9.862888e+00    2.670893e+00
  9.878763e+00    2.690154e+00
  9.894639e+00    2.699857e+00
  9.910514e+00    2.648561e+00
  9.926390e+00    2.632576e+00
  9.942266e+00    2.683053e+00
  9.958141e+00    2.641866e+00
  9.974017e+00    2.668392e+00
  9.989892e+00    2.637455e+00
  1.000577e+01    2.622442e+00
  1.002164e+01    2.634104e+00
  1.003752e+01    2.638940e+00
  1.005339e+01    2.655107e+00
  1.006927e+01    2.662776e+00
  1.008515e+01    2.701551e+00
  1.010102e+01    2.657764e+00
  1.011690e+01    2.626970e+00
  1.013277e+01    2.622915e+00
  1.014865e+01    2.591768e+00
  1.016452e+01    2.633664e+00
  1.018040e+01    2.677664e+00
  1.019627e+01    2.641053e+00
  1.021215e+01    2.634080e+00
  1.022803e+01    2.626994e+00
  1.024390e+01    2.638167e+00
  1.025978e+01    2.648025e+00
  1.027565e+01    2.678242e+00
  1.029153e+01    2.644280e+00
  1.030740e+01    2.681278e+00
  1.032328e+01    2.583943e+00
  1.033915e+01    2.581810e+00
  1.035503e+01    2.587290e+00
  1.037091e+01    2.588277e+00
  1.038678e+01    2.615227e+00
  1.040266e+01    2.559676e+00
  1.041853e+01    2.591601e+00
  1.043441e+01    2.571406e+00
  1.045028e+01    2.563760e+00
  1.046616e+01    2.588265e+00
  1.048204e+01    2.591271e+00
  1.049791e+01    2.583126e+00
  1.051379e+01    2.558584e+00
  1.052966e+01    2.569838e+00
  1.054554e+01    2.564701e+00
  1.056141e+01    2.548625e+00
  1.057729e+01    2.573821e+00
  1.059316e+01    2.602735e+00
  1.060904e+01    2.565368e+00
  1.062492e+01    2.539572e+00
  1.064079e+01    2.527369e+00
  1.065667e+01    2.510895e+00
  1.067254e+01    2.479136e+00
  1.068842e+01    2.516028e+00
  1.070429e+01    2.515194e+00
  1.072017e+01    2.517392e+00
  1.073604e+01    2.509309e+00
  1.075192e+01    2.487012e+00
  1.076780e+01    2.537647e+00
  1.078367e+01    2.490462e+00
  1.079955e+01    2.483869e+00
  1.081542e+01    2.485210e+00
  1.083130e+01    2.487404e+00
  1.084717e+01    2.482855e+00
  1.086305e+01    2.513474e+00
  1.087892e+01    2.487652e+00
  1.089480e+01    2.433195e+00
  1.091068e+01    2.457956e+00
  1.092655e+01    2.503594e+00
  1.094243e+01    2.453261e+00
  1.095830e+01    2.453139e+00
  1.097418e+01    2.453646e+00
  1.099005e+01    2.461111e+00
  1.100593e+01    2.443118e+00
  1.102180e+01    2.484139e+00
  1.103768e+01    2.459421e+00
  1.105356e+01    2.444301e+00
  1.106943e+01    2.506775e+00
  1.108531e+01    2.475696e+00
  1.110118e+01    2.489485e+00
  1.111706e+01    2.462983e+00
  1.113293e+01    2.456368e+00
  1.114881e+01    2.442343e+00
  1.116468e+01    2.400136e+00
  1.118056e+01    2.428410e+00
  1.119644e+01    2.447340e+00
  1.121231e+01    2.418512e+00
  1.122819e+01    2.397411e+00
  1.124406e+01    2.419969e+00
  1.125994e+01    2.389577e+00
  1.127581e+01    2.387176e+00
  1.129169e+01    2.388870e+00
  1.130756e+01    2.415345e+00
  1.132344e+01    2.378609e+00
  1.133932e+01    2.394760e+00
  1.135519e+01    2.359583e+00
  1.137107e+01    2.389287e+00
  1.138694e+01    2.449081e+00
  1.140282e+01    2.439529e+00
  1.141869e+01    2.412360e+00
  1.143457e+01    2.405344e+00
  1.145045e+01    2.408256e+00
  1.146632e+01    2.368000e+00
  1.148220e+01    2.373221e+00
  1.149807e+01    2.354858e+00
  1.151395e+01    2.344194e+00
  1.152982e+01    2.381059e+00
  1.154570e+01    2.349389e+00
  1.156157e+01    2.344795e+00
  1.157745e+01    2.355118e+00
  1.159333e+01    2.306271e+00
  1.160920e+01    2.319502e+00
  1.162508e+01    2.293903e+00
  1.164095e+01    2.357409e+00
  1.165683e+01    2.388124e+00
  1.167270e+01    2.357924e+00
  1.168858e+01    2.375799e+00
  1.170445e+01    2.361120e+00
  1.172033e+01    2.321541e+00
  1.173621e+01    2.310088e+00
  1.175208e+01    2.335323e+00
  1.176796e+01    2.345649e+00
  1.178383e+01    2.349814e+00
  1.179971e+01    2.362149e+00
  1.181558e+01    2.357310e+00
  1.183146e+01    2.327572e+00
  1.184733e+01    2.318718e+00
  1.186321e+01    2.310544e+00
  1.187909e+01    2.309826e+00
  1.189496e+01    2.327245e+00
  1.191084e+01    2.324822e+00
  1.192671e+01    2.330067e+00
  1.194259e+01    2.312788e+00
  1.195846e+01    2.302166e+00
  1.197434e+01    2.328931e+00
  1.199021e+01    2.304077e+00
  1.200609e+01    2.291979e+00
  1.202197e+01    2.303424e+00
  1.203784e+01    2.255638e+00
  1.205372e+01    2.320554e+00
  1.206959e+01    2.256270e+00
  1.208547e+01    2.248973e+00
  1.210134e+01    2.306153e+00
  1.211722e+01    2.301755e+00
  1.213309e+01    2.287246e+00
  1.214897e+01    2.289687e+00
  1.216485e+01    2.290523e+00
  1.218072e+01    2.293117e+00
  1.219660e+01    2.325317e+00
  1.221247e+01    2.315975e+00
  1.222835e+01    2.288502e+00
  1.224422e+01    2.256154e+00
  1.226010e+01    2.305099e+00
  1.227597e+01    2.283722e+00
  1.229185e+01    2.299680e+00
  1.230773e+01    2.358826e+00
  1.232360e+01    2.377394e+00
  1.233948e+01    2.339842e+00
  1.235535e+01    2.306299e+00
  1.237123e+01    2.313237e+00
  1.238710e+01    2.320439e+00
  1.240298e+01    2.315806e+00
  1.241886e+01    2.253244e+00
  1.243473e+01    2.299236e+00
  1.245061e+01    2.284558e+00
  1.246648e+01    2.303825e+00
  1.248236e+01    2.299337e+00
  1.249823e+01    2.330102e+00
  1.251411e+01    2.292269e+00
  1.252998e+01    2.319273e+00
  1.254586e+01    2.349632e+00
  1.256174e+01    2.329130e+00
  1.257761e+01    2.325363e+00
  1.259349e+01    2.349856e+00
  1.260936e+01    2.379493e+00
  1.262524e+01    2.403874e+00
  1.264111e+01    2.398781e+00
  1.265699e+01    2.436659e+00
  1.267286e+01    2.458811e+00
  1.268874e+01    2.457460e+00
  1.270462e+01    2.446524e+00
  1.272049e+01    2.471392e+00
  1.273637e+01    2.472969e+00
  1.275224e+01    2.487653e+00
  1.276812e+01    2.527500e+00
  1.278399e+01    2.563095e+00
  1.279987e+01    2.631140e+00
  1.281574e+01    2.711191e+00
  1.283162e+01    2.792779e+00
  1.284750e+01    2.803638e+00
  1.286337e+01    2.825627e+00
  1.287925e+01    2.973695e+00
  1.289512e+01    3.125906e+00
  1.291100e+01    3.286289e+00
  1.292687e+01    3.494526e+00
  1.294275e+01    3.670242e+00
  1.295862e+01    3.976129e+00
  1.297450e+01    4.336589e+00
  1.299038e+01    4.722228e+00
  1.300625e+01    5.255320e+00
  1.302213e+01    5.951046e+00
  1.303800e+01    6.876894e+00
  1.305388e+01    8.008737e+00
  1.306975e+01    9.330403e+00
  1.308563e+01    1.064468e+01
  1.310150e+01    1.202995e+01
  1.311738e+01    1.340428e+01
  1.313326e+01    1.470757e+01
  1.314913e+01    1.597742e+01
  1.316501e+01    1.703045e+01
  1.318088e+01    1.779368e+01
  1.319676e+01    1.772014e+01
  1.321263e+01    1.698008e+01
  1.322851e+01    1.536295e+01
  1.324438e+01    1.317620e+01
  1.326026e+01    1.102818e+01
  1.327614e+01    9.231914e+00
  1.329201e+01    7.828195e+00
  1.330789e+01    6.755148e+00
  1.332376e+01    5.904984e+00
  1.333964e+01    5.226359e+00
  1.335551e+01    4.654422e+00
  1.337139e+01    4.244172e+00
  1.338727e+01    3.926965e+00
  1.340314e+01    3.629031e+00
  1.341902e+01    3.447446e+00
  1.343489e+01    3.256279e+00
  1.345077e+01    3.054585e+00
  1.346664e+01    2.939419e+00
  1.348252e+01    2.859086e+00
  1.349839e+01    2.755060e+00
  1.351427e+01    2.673373e+00
  1.353015e+01    2.609859e+00
  1.354602e+01    2.565491e+00
  1.356190e+01    2.491011e+00
  1.357777e+01    2.404976e+00
  1.359365e+01    2.384550e+00
  1.360952e+01    2.394730e+00
  1.362540e+01    2.340614e+00
  1.364127e+01    2.336327e+00
  1.365715e+01    2.310344e+00
  1.367303e+01    2.296405e+00
  1.368890e+01    2.281264e+00
  1.370478e+01    2.235778e+00
  1.372065e+01    2.191634e+00
  1.373653e+01    2.192719e+00
  1.375240e+01    2.236118e+00
  1.376828e+01    2.217977e+00
  1.378415e+01    2.174872e+00
  1.380003e+01    2.184216e+00
  1.381591e+01    2.140570e+00
  1.383178e+01    2.106073e+00
  1.384766e+01    2.110998e+00
  1.386353e+01    2.127056e+00
  1.387941e+01    2.123616e+00
  1.389528e+01    2.096768e+00
  1.391116e+01    2.090028e+00
  1.392703e+01    2.071686e+00
  1.394291e+01    2.020033e+00
  1.395879e+01    2.051174e+00
  1.397466e+01    2.060873e+00
  1.399054e+01    2.056880e+00
  1.400641e+01    2.039941e+00
  1.402229e+01    2.034714e+00
  1.403816e+01    1.987627e+00
  1.405404e+01    1.999411e+00
  1.406991e+01    2.025584e+00
  1.408579e+01    2.017955e+00
  1.410167e+01    2.004413e+00
  1.411754e+01    1.966084e+00
  1.413342e+01    1.992081e+00
  1.414929e+01    1.953738e+00
  1.416517e+01    1.958487e+00
  1.418104e+01    1.945633e+00
  1.419692e+01    1.966341e+00
  1.421279e+01    1.983946e+00
  1.422867e+01    1.982949e+00
  1.424455e+01    1.980083e+00
  1.426042e+01    1.955090e+00
  1.427630e+01    1.956092e+00
  1.429217e+01    1.945425e+00
  1.430805e+01    1.963551e+00
  1.432392e+01    1.947311e+00
  1.433980e+01    1.926249e+00
  1.435568e+01    1.940366e+00
  1.437155e+01    1.909549e+00
  1.438743e+01    1.918298e+00
  1.440330e+01    1.938252e+00
  1.441918e+01    1.928923e+00
  1.443505e+01    1.952738e+00
  1.445093e+01    1.965071e+00
  1.446680e+01    1.933684e+00
  1.448268e+01    1.907463e+00
  1.449856e+01    1.899871e+00
  1.451443e+01    1.917189e+00
  1.453031e+01    1.929512e+00
  1.454618e+01    1.887714e+00
  1.456206e+01    1.906023e+00
  1.457793e+01    1.956245e+00
  1.459381e+01    1.902819e+00
  1.460968e+01    1.924106e+00
  1.462556e+01    1.903060e+00
  1.464144e+01    1.899667e+00
  1.465731e+01    1.894142e+00
  1.467319e+01    1.902125e+00
  1.468906e+01    1.896023e+00
  1.470494e+01    1.864000e+00
  1.472081e+01    1.897228e+00
  1.473669e+01    1.912685e+00
  1.475256e+01    1.865803e+00
  1.476844e+01    1.835349e+00
  1.478432e+01    1.885802e+00
  1.480019e+01    1.871916e+00
  1.481607e+01    1.893492e+00
  1.483194e+01    1.909889e+00
  1.484782e+01    1.912008e+00
  1.486369e+01    1.924648e+00
  1.487957e+01    1.937562e+00
  1.489544e+01    1.921625e+00
  1.491132e+01    1.952701e+00
  1.492720e+01    1.991464e+00
  1.494307e+01    1.973076e+00
  1.495895e+01    1.997690e+00
  1.497482e+01    2.013846e+00
  1.499070e+01    2.075593e+00
  1.500657e+01    2.123641e+00
  1.502245e+01    2.190405e+00
  1.503832e+01    2.307215e+00
  1.505420e+01    2.305641e+00
  1.507008e+01    2.452658e+00
  1.508595e+01    2.613251e+00
  1.510183e+01    2.825356e+00
  1.511770e+01    3.055178e+00
  1.513358e+01    3.348067e+00
  1.514945e+01    3.677396e+00
  1.516533e+01    4.079644e+00
  1.518120e+01    4.423984e+00
  1.519708e+01    4.770703e+00
  1.521296e+01    5.138827e+00
  1.522883e+01    5.488769e+00
  1.524471e+01    5.813664e+00
  1.526058e+01    5.959923e+00
  1.527646e+01    6.008502e+00
  1.529233e+01    5.954162e+00
  1.530821e+01    5.754159e+00
  1.532409e+01    5.290057e+00
  1.533996e+01    4.708030e+00
  1.535584e+01    4.190956e+00
  1.537171e+01    3.701483e+00
  1.538759e+01    3.277120e+00
  1.540346e+01    3.025005e+00
  1.541934e+01    2.712764e+00
  1.543521e+01    2.464632e+00
  1.545109e+01    2.393833e+00
  1.546697e+01    2.310048e+00
  1.548284e+01    2.214789e+00
  1.549872e+01    2.093704e+00
  1.551459e+01    2.035328e+00
  1.553047e+01    2.004894e+00
  1.554634e+01    1.940526e+00
  1.556222e+01    1.895659e+00
  1.557809e+01    1.873595e+00
  1.559397e+01    1.843556e+00
  1.560985e+01    1.812947e+00
  1.562572e+01    1.792843e+00
  1.564160e+01    1.752962e+00
  1.565747e+01    1.759650e+00
  1.567335e+01    1.732879e+00
  1.568922e+01    1.749882e+00
  1.570510e+01    1.721652e+00
  1.572097e+01    1.695480e+00
  1.573685e+01    1.684535e+00
  1.575273e+01    1.676847e+00
  1.576860e+01    1.659357e+00
  1.578448e+01    1.632041e+00
  1.580035e+01    1.625280e+00
  1.581623e+01    1.647148e+00
  1.583210e+01    1.664145e+00
  1.584798e+01    1.630216e+00
  1.586385e+01    1.642613e+00
  1.587973e+01    1.645499e+00
  1.589561e+01    1.646675e+00
  1.591148e+01    1.631075e+00
  1.592736e+01    1.631062e+00
  1.594323e+01    1.626048e+00
  1.595911e+01    1.629189e+00
  1.597498e+01    1.611748e+00
  1.599086e+01    1.605736e+00
  1.600673e+01    1.597701e+00
  1.602261e+01    1.614756e+00
  1.603849e+01    1.608056e+00
  1.605436e+01    1.559251e+00
  1.607024e+01    1.581265e+00
  1.608611e+01    1.596946e+00
  1.610199e+01    1.597155e+00
  1.611786e+01    1.559569e+00
  1.613374e+01    1.556050e+00
  1.614961e+01    1.592635e+00
  1.616549e+01    1.545471e+00
  1.618137e+01    1.555045e+00
  1.619724e+01    1.552062e+00
  1.621312e+01    1.567373e+00
  1.622899e+01    1.579385e+00
  1.624487e+01    1.593230e+00
  1.626074e+01    1.543836e+00
  1.627662e+01    1.519068e+00
  1.629250e+01    1.514497e+00
  1.630837e+01    1.507751e+00
  1.632425e+01    1.518865e+00
  1.634012e+01    1.507358e+00
  1.635600e+01    1.527725e+00
  1.637187e+01    1.544650e+00
  1.638775e+01    1.526642e+00
  1.640362e+01    1.540962e+00
  1.641950e+01    1.550267e+00
  1.643538e+01    1.530351e+00
  1.645125e+01    1.483445e+00
  1.646713e+01    1.498940e+00
  1.648300e+01    1.486282e+00
  1.649888e+01    1.478718e+00
  1.651475e+01    1.494113e+00
  1.653063e+01    1.505791e+00
  1.654650e+01    1.508163e+00
  1.656238e+01    1.477992e+00
  1.657826e+01    1.457443e+00
  1.659413e+01    1.452515e+00
  1.661001e+01    1.438115e+00
  1.662588e+01    1.457016e+00
  1.664176e+01    1.477043e+00
  1.665763e+01    1.460721e+00
  1.667351e+01    1.475930e+00
  1.668938e+01    1.451627e+00
  1.670526e+01    1.466583e+00
  1.672114e+01    1.483712e+00
  1.673701e+01    1.482710e+00
  1.675289e+01    1.496484e+00
  1.676876e+01    1.472427e+00
  1.678464e+01    1.442360e+00
  1.680051e+01    1.456498e+00
  1.681639e+01    1.424927e+00
  1.683226e+01    1.398877e+00
  1.684814e+01    1.464630e+00
  1.686402e+01    1.467118e+00
  1.687989e+01    1.424368e+00
  1.689577e+01    1.402673e+00
  1.691164e+01    1.420319e+00
  1.692752e+01    1.421457e+00
  1.694339e+01    1.433934e+00
  1.695927e+01    1.426764e+00
  1.697514e+01    1.416288e+00
  1.699102e+01    1.403529e+00
  1.700690e+01    1.404837e+00
  1.702277e+01    1.404983e+00
  1.703865e+01    1.400842e+00
  1.705452e+01    1.423460e+00
  1.707040e+01    1.388459e+00
  1.708627e+01    1.445567e+00
  1.710215e+01    1.428240e+00
  1.711802e+01    1.401375e+00
  1.713390e+01    1.391065e+00
  1.714978e+01    1.391008e+00
  1.716565e+01    1.394416e+00
  1.718153e+01    1.391695e+00
  1.719740e+01    1.373901e+00
  1.721328e+01    1.382215e+00
  1.722915e+01    1.387023e+00
  1.724503e+01    1.388228e+00
  1.726091e+01    1.411464e+00
  1.727678e+01    1.392143e+00
  1.729266e+01    1.363900e+00
  1.730853e+01    1.376509e+00
  1.732441e+01    1.356465e+00
  1.734028e+01    1.359746e+00
  1.735616e+01    1.365774e+00
  1.737203e+01    1.343520e+00
  1.738791e+01    1.380161e+00
  1.740379e+01    1.347515e+00
  1.741966e+01    1.349501e+00
  1.743554e+01    1.362921e+00
  1.745141e+01    1.365015e+00
  1.746729e+01    1.371751e+00
  1.748316e+01    1.369354e+00
  1.749904e+01    1.371383e+00
  1.751491e+01    1.345660e+00
  1.753079e+01    1.360320e+00
  1.754667e+01    1.360460e+00
  1.756254e+01    1.357179e+00
  1.757842e+01    1.351648e+00
  1.759429e+01    1.359395e+00
  1.761017e+01    1.338891e+00
  1.762604e+01    1.326952e+00
  1.764192e+01    1.311767e+00
  1.765779e+01    1.302096e+00
  1.767367e+01    1.328344e+00
  1.768955e+01    1.343870e+00
  1.770542e+01    1.347103e+00
  1.772130e+01    1.350751e+00
  1.773717e+01    1.316847e+00
  1.775305e+01    1.321223e+00
  1.776892e+01    1.320796e+00
  1.778480e+01    1.291514e+00
  1.780067e+01    1.292985e+00
  1.781655e+01    1.315534e+00
  1.783243e+01    1.289652e+00
  1.784830e+01    1.302435e+00
  1.786418e+01    1.289397e+00
  1.788005e+01    1.301412e+00
  1.789593e+01    1.285934e+00
  1.791180e+01    1.276467e+00
  1.792768e+01    1.292327e+00
  1.794355e+01    1.280363e+00
  1.795943e+01    1.273244e+00
  1.797531e+01    1.274095e+00
  1.799118e+01    1.279020e+00
  1.800706e+01    1.294658e+00
  1.802293e+01    1.289010e+00
  1.803881e+01    1.267913e+00
  1.805468e+01    1.305818e+00
  1.807056e+01    1.306671e+00
  1.808643e+01    1.292468e+00
  1.810231e+01    1.272117e+00
  1.811819e+01    1.283139e+00
  1.813406e+01    1.300354e+00
  1.814994e+01    1.286704e+00
  1.816581e+01    1.262946e+00
  1.818169e+01    1.287450e+00
  1.819756e+01    1.280579e+00
  1.821344e+01    1.267773e+00
  1.822932e+01    1.289843e+00
  1.824519e+01    1.281658e+00
  1.826107e+01    1.278431e+00
  1.827694e+01    1.272269e+00
  1.829282e+01    1.255908e+00
  1.830869e+01    1.251938e+00
  1.832457e+01    1.263024e+00
  1.834044e+01    1.265928e+00
  1.835632e+01    1.247572e+00
  1.837220e+01    1.273514e+00
  1.838807e+01    1.250975e+00
  1.840395e+01    1.261342e+00
  1.841982e+01    1.235613e+00
  1.843570e+01    1.237005e+00
  1.845157e+01    1.233994e+00
  1.846745e+01    1.245322e+00
  1.848332e+01    1.244041e+00
  1.849920e+01    1.219174e+00
  1.851508e+01    1.233486e+00
  1.853095e+01    1.246849e+00
  1.854683e+01    1.239355e+00
  1.856270e+01    1.227898e+00
  1.857858e+01    1.223109e+00
  1.859445e+01    1.224705e+00
  1.861033e+01    1.197292e+00
  1.862620e+01    1.215414e+00
  1.864208e+01    1.197835e+00
  1.865796e+01    1.208776e+00
  1.867383e+01    1.227775e+00
  1.868971e+01    1.202490e+00
  1.870558e+01    1.168710e+00
  1.872146e+01    1.198789e+00
  1.873733e+01    1.198579e+00
  1.875321e+01    1.211091e+00
  1.876908e+01    1.224019e+00
  1.878496e+01    1.199325e+00
  1.880084e+01    1.193959e+00
  1.881671e+01    1.187239e+00
  1.883259e+01    1.185723e+00
  1.884846e+01    1.203471e+00
  1.886434e+01    1.198299e+00
  1.888021e+01    1.203134e+00
  1.889609e+01    1.174302e+00
  1.891196e+01    1.228844e+00
  1.892784e+01    1.208789e+00
  1.894372e+01    1.201370e+00
  1.895959e+01    1.184857e+00
  1.897547e+01    1.156576e+00
  1.899134e+01    1.170387e+00
  1.900722e+01    1.192436e+00
  1.902309e+01    1.173090e+00
  1.903897e+01    1.170851e+00
  1.905484e+01    1.179134e+00
  1.907072e+01    1.168170e+00
  1.908660e+01    1.172115e+00
  1.910247e+01    1.162390e+00
  1.911835e+01    1.174337e+00
  1.913422e+01    1.192646e+00
  1.915010e+01    1.201366e+00
  1.916597e+01    1.182701e+00
  1.918185e+01    1.195176e+00
  1.919773e+01    1.173605e+00
  1.921360e+01    1.183505e+00
  1.922948e+01    1.159646e+00
  1.924535e+01    1.163817e+00
  1.926123e+01    1.167743e+00
  1.927710e+01    1.155055e+00
  1.929298e+01    1.143557e+00
  1.930885e+01    1.140076e+00
  1.932473e+01    1.141077e+00
  1.934061e+01    1.165277e+00
  1.935648e+01    1.165633e+00
  1.937236e+01    1.145531e+00
  1.938823e+01    1.154936e+00
  1.940411e+01    1.133071e+00
  1.941998e+01    1.145804e+00
  1.943586e+01    1.167106e+00
  1.945173e+01    1.156460e+00
  1.946761e+01    1.170532e+00
  1.948349e+01    1.155735e+00
  1.949936e+01    1.139542e+00
  1.951524e+01    1.126640e+00
  1.953111e+01    1.137357e+00
  1.954699e+01    1.151245e+00
  1.956286e+01    1.147192e+00
  1.957874e+01    1.118179e+00
  1.959461e+01    1.136822e+00
  1.961049e+01    1.154562e+00
  1.962637e+01    1.137687e+00
  1.964224e+01    1.131374e+00
  1.965812e+01    1.137074e+00
  1.967399e+01    1.122269e+00
  1.968987e+01    1.135539e+00
  1.970574e+01    1.110984e+00
  1.972162e+01    1.117995e+00
  1.973749e+01    1.096695e+00
  1.975337e+01    1.099338e+00
  1.976925e+01    1.122296e+00
  1.978512e+01    1.130570e+00
  1.980100e+01    1.140091e+00
  1.981687e+01    1.146662e+00
  1.983275e+01    1.130704e+00
  1.984862e+01    1.105866e+00
  1.986450e+01    1.089398e+00
  1.988037e+01    1.116394e+00
  1.989625e+01    1.127873e+00
  1.991213e+01    1.085112e+00
  1.992800e+01    1.120051e+00
  1.994388e+01    1.117015e+00
  1.995975e+01    1.114669e+00
  1.997563e+01    1.121610e+00
  1.999150e+01    1.090728e+00
  2.000738e+01    1.105504e+00
  2.002325e+01    1.126619e+00
  2.003913e+01    1.101035e+00
  2.005501e+01    1.097475e+00
  2.007088e+01    1.117261e+00
  2.008676e+01    1.101006e+00
  2.010263e+01    1.105020e+00
  2.011851e+01    1.073440e+00
  2.013438e+01    1.069581e+00
  2.015026e+01    1.091952e+00
  2.016614e+01    1.112765e+00
  2.018201e+01    1.096213e+00
  2.019789e+01    1.097730e+00
  2.021376e+01    1.081204e+00
  2.022964e+01    1.105820e+00
  2.024551e+01    1.111656e+00
  2.026139e+01    1.086156e+00
  2.027726e+01    1.085993e+00
  2.029314e+01    1.078651e+00
  2.030902e+01    1.095125e+00
  2.032489e+01    1.109222e+00
  2.034077e+01    1.112441e+00
  2.035664e+01    1.082608e+00
  2.037252e+01    1.080932e+00
  2.038839e+01    1.079225e+00
  2.040427e+01    1.074526e+00
  2.042014e+01    1.067247e+00
  2.043602e+01    1.061738e+00
  2.045190e+01    1.084697e+00
  2.046777e+01    1.081041e+00
  2.048365e+01    1.086198e+00
  2.049952e+01    1.090246e+00
  2.051540e+01    1.082242e+00
  2.053127e+01    1.060129e+00
  2.054715e+01    1.082405e+00
  2.056302e+01    1.098864e+00
  2.057890e+01    1.089306e+00
  2.059478e+01    1.053239e+00
  2.061065e+01    1.077789e+00
  2.062653e+01    1.092441e+00
  2.064240e+01    1.077877e+00
  2.065828e+01    1.069319e+00
  2.067415e+01    1.084545e+00
  2.069003e+01    1.074105e+00
  2.070590e+01    1.052298e+00
  2.072178e+01    1.069255e+00
  2.073766e+01    1.067121e+00
  2.075353e+01    1.051175e+00
  2.076941e+01    1.062224e+00
  2.078528e+01    1.082959e+00
  2.080116e+01    1.108821e+00
  2.081703e+01    1.086375e+00
  2.083291e+01    1.041379e+00
  2.084878e+01    1.053636e+00
  2.086466e+01    1.056664e+00
  2.088054e+01    1.078210e+00
  2.089641e+01    1.082976e+00
  2.091229e+01    1.066003e+00
  2.092816e+01    1.072616e+00
  2.094404e+01    1.067348e+00
  2.095991e+01    1.067248e+00
  2.097579e+01    1.081839e+00
  2.099166e+01    1.090842e+00
  2.100754e+01    1.083780e+00
  2.102342e+01    1.072244e+00
  2.103929e+01    1.056289e+00
  2.105517e+01    1.089654e+00
  2.107104e+01    1.077233e+00
  2.108692e+01    1.087992e+00
  2.110279e+01    1.095483e+00
  2.111867e+01    1.082906e+00
  2.113455e+01    1.075374e+00
  2.115042e+01    1.074676e+00
  2.116630e+01    1.074587e+00
  2.118217e+01    1.091900e+00
  2.119805e+01    1.112551e+00
  2.121392e+01    1.093312e+00
  2.122980e+01    1.066522e+00
  2.124567e+01    1.084152e+00
  2.126155e+01    1.103077e+00
  2.127743e+01    1.107489e+00
  2.129330e+01    1.121767e+00
  2.130918e+01    1.099244e+00
  2.132505e+01    1.127151e+00
  2.134093e+01    1.144335e+00
  2.135680e+01    1.157692e+00
  2.137268e+01    1.156673e+00
  2.138855e+01    1.155322e+00
  2.140443e+01    1.155952e+00
  2.142031e+01    1.178848e+00
  2.143618e+01    1.183441e+00
  2.145206e+01    1.194786e+00
  2.146793e+01    1.219208e+00
  2.148381e+01    1.243911e+00
  2.149968e+01    1.273428e+00
  2.151556e+01    1.303361e+00
  2.153143e+01    1.328283e+00
  2.154731e+01    1.338617e+00
  2.156319e+01    1.393338e+00
  2.157906e+01    1.468388e+00
  2.159494e+01    1.516792e+00
  2.161081e+01    1.577326e+00
  2.162669e+01    1.639214e+00
  2.164256e+01    1.730139e+00
  2.165844e+01    1.852086e+00
  2.167431e+01    1.997819e+00
  2.169019e+01    2.226720e+00
  2.170607e+01    2.419079e+00
  2.172194e+01    2.681184e+00
  2.173782e+01    3.042155e+00
  2.175369e+01    3.440827e+00
  2.176957e+01    3.959969e+00
  2.178544e+01    4.588689e+00
  2.180132e+01    5.298116e+00
  2.181719e+01    5.980952e+00
  2.183307e+01    6.706520e+00
  2.184895e+01    7.481943e+00
  2.186482e+01    8.182271e+00
  2.188070e+01    8.952436e+00
  2.189657e+01    9.579125e+00
  2.191245e+01    9.865582e+00
  2.192832e+01    9.754665e+00
  2.194420e+01    9.290212e+00
  2.196007e+01    8.356838e+00
  2.197595e+01    7.335851e+00
  2.199183e+01    6.298830e+00
  2.200770e+01    5.303579e+00
  2.202358e+01    4.482842e+00
  2.203945e+01    3.867595e+00
  2.205533e+01    3.331969e+00
  2.207120e+01    2.885211e+00
  2.208708e+01    2.599566e+00
  2.210296e+01    2.361745e+00
  2.211883e+01    2.153782e+00
  2.213471e+01    1.950514e+00
  2.215058e+01    1.797030e+00
  2.216646e+01    1.672243e+00
  2.218233e+01    1.589406e+00
  2.219821e+01    1.538343e+00
  2.221408e+01    1.448260e+00
  2.222996e+01    1.384169e+00
  2.224584e+01    1.343037e+00
  2.226171e+01    1.322861e+00
  2.227759e+01    1.286856e+00
  2.229346e+01    1.233891e+00
  2.230934e+01    1.200872e+00
  2.232521e+01    1.188681e+00
  2.234109e+01    1.159411e+00
  2.235696e+01    1.140514e+00
  2.237284e+01    1.128928e+00
  2.238872e+01    1.092422e+00
  2.240459e+01    1.085682e+00
  2.242047e+01    1.076853e+00
  2.243634e+01    1.065608e+00
  2.245222e+01    1.055605e+00
  2.246809e+01    1.058165e+00
  2.248397e+01    1.017824e+00
  2.249984e+01    1.023872e+00
  2.251572e+01    1.015437e+00
  2.253160e+01    1.021099e+00
  2.254747e+01    1.002304e+00
  2.256335e+01    9.887286e-01
  2.257922e+01    9.861097e-01
  2.259510e+01    9.868383e-01
  2.261097e+01    9.765750e-01
  2.262685e+01    9.885148e-01
  2.264272e+01    9.680556e-01
  2.265860e+01    9.574548e-01
  2.267448e+01    9.732084e-01
  2.269035e+01    9.575582e-01
  2.270623e+01    9.528257e-01
  2.272210e+01    9.558098e-01
  2.273798e+01    9.195266e-01
  2.275385e+01    9.201430e-01
  2.276973e+01    9.399765e-01
  2.278560e+01    9.468804e-01
  2.280148e+01    9.576945e-01
  2.281736e+01    9.378067e-01
  2.283323e+01    9.265029e-01
  2.284911e+01    9.314993e-01
  2.286498e+01    9.173807e-01
  2.288086e+01    9.111416e-01
  2.289673e+01    9.040185e-01
  2.291261e+01    9.264265e-01
  2.292848e+01    9.189684e-01
  2.294436e+01    9.011836e-01
  2.296024e+01    9.077672e-01
  2.297611e+01    8.908597e-01
  2.299199e+01    9.102182e-01
  2.300786e+01    9.117551e-01
  2.302374e+01    8.853097e-01
  2.303961e+01    8.817058e-01
  2.305549e+01    8.973035e-01
  2.307137e+01    8.735909e-01
  2.308724e+01    8.753883e-01
  2.310312e+01    8.970967e-01
  2.311899e+01    8.956870e-01
  2.313487e+01    8.645732e-01
  2.315074e+01    8.813016e-01
  2.316662e+01    8.919463e-01
  2.318249e+01    8.749398e-01
  2.319837e+01    8.758873e-01
  2.321425e+01    8.718842e-01
  2.323012e+01    8.712980e-01
  2.324600e+01    8.713014e-01
  2.326187e+01    8.663161e-01
  2.327775e+01    8.668266e-01
  2.329362e+01    8.509952e-01
  2.330950e+01    8.622625e-01
  2.332537e+01    8.869737e-01
  2.334125e+01    8.709332e-01
  2.335713e+01    8.539613e-01
  2.337300e+01    8.410028e-01
  2.338888e+01    8.326433e-01
  2.340475e+01    8.501437e-01
  2.342063e+01    8.570022e-01
  2.343650e+01    8.584320e-01
  2.345238e+01    8.396652e-01
  2.346825e+01    8.505289e-01
  2.348413e+01    8.346969e-01
  2.350001e+01    8.242625e-01
  2.351588e+01    8.516977e-01
  2.353176e+01    8.423218e-01
  2.354763e+01    8.074360e-01
  2.356351e+01    8.230612e-01
  2.357938e+01    8.257669e-01
  2.359526e+01    8.470527e-01
  2.361113e+01    8.266919e-01
  2.362701e+01    8.446941e-01
  2.364289e+01    8.463102e-01
  2.365876e+01    8.438898e-01
  2.367464e+01    8.343505e-01
  2.369051e+01    8.268974e-01
  2.370639e+01    8.051794e-01
  2.372226e+01    8.281813e-01
  2.373814e+01    8.396348e-01
  2.375401e+01    8.181065e-01
  2.376989e+01    8.042642e-01
  2.378577e+01    8.108964e-01
  2.380164e+01    8.238345e-01
  2.381752e+01    7.982308e-01
  2.383339e+01    8.026772e-01
  2.384927e+01    7.964699e-01
  2.386514e+01    8.132210e-01
  2.388102e+01    8.061020e-01
  2.389689e+01    7.923951e-01
  2.391277e+01    7.822347e-01
  2.392865e+01    8.050484e-01
  2.394452e+01    8.016438e-01
  2.396040e+01    7.874188e-01
  2.397627e+01    7.727988e-01
  2.399215e+01    7.647973e-01
  2.400802e+01    7.801226e-01
  2.402390e+01    7.793859e-01
  2.403978e+01    7.689183e-01
  2.405565e+01    7.705673e-01
  2.407153e+01    7.797527e-01
  2.408740e+01    7.684416e-01
  2.410328e+01    7.757553e-01
  2.411915e+01    7.831556e-01
  2.413503e+01    7.839226e-01
  2.415090e+01    7.890071e-01
  2.416678e+01    7.631409e-01
  2.418266e+01    7.635926e-01
  2.419853e+01    7.778010e-01
  2.421441e+01    7.789097e-01
  2.423028e+01    7.806884e-01
  2.424616e+01    7.697646e-01
  2.426203e+01    7.811142e-01
  2.427791e+01    7.790975e-01
  2.429378e+01    7.735163e-01
  2.430966e+01    7.844741e-01
  2.432554e+01    7.911325e-01
  2.434141e+01    7.689599e-01
  2.435729e+01    7.865803e-01
  2.437316e+01    7.726346e-01
  2.438904e+01    7.842284e-01
  2.440491e+01    7.959324e-01
  2.442079e+01    7.818459e-01
  2.443666e+01    7.732181e-01
  2.445254e+01    7.937069e-01
  2.446842e+01    7.913687e-01
  2.448429e+01    7.829686e-01
  2.450017e+01    7.954120e-01
  2.451604e+01    7.945700e-01
  2.453192e+01    7.747183e-01
  2.454779e+01    7.815856e-01
  2.456367e+01    7.837382e-01
  2.457954e+01    7.876396e-01
  2.459542e+01    7.899801e-01
  2.461130e+01    8.144448e-01
  2.462717e+01    7.908471e-01
  2.464305e+01    7.988044e-01
  2.465892e+01    7.903553e-01
  2.467480e+01    7.679538e-01
  2.469067e+01    7.601988e-01
  2.470655e+01    7.851939e-01
  2.472242e+01    7.871279e-01
  2.473830e+01    7.641810e-01
  2.475418e+01    7.595040e-01
  2.477005e+01    7.748019e-01
  2.478593e+01    8.003156e-01
  2.480180e+01    7.943557e-01
  2.481768e+01    7.828609e-01
  2.483355e+01    8.008491e-01
  2.484943e+01    8.042978e-01
  2.486530e+01    7.914615e-01
  2.488118e+01    7.801203e-01
  2.489706e+01    8.014524e-01
  2.491293e+01    7.681090e-01
  2.492881e+01    7.684855e-01
  2.494468e+01    7.954446e-01
  2.496056e+01    7.820813e-01
  2.497643e+01    7.884007e-01
  2.499231e+01    8.066891e-01
  2.500819e+01    7.943867e-01
  2.502406e+01    7.935623e-01
  2.503994e+01    7.969952e-01
  2.505581e+01    7.885616e-01
  2.507169e+01    8.239502e-01
  2.508756e+01    7.914940e-01
  2.510344e+01    8.076182e-01
  2.511931e+01    8.190135e-01
  2.513519e+01    8.195530e-01
  2.515107e+01    7.973902e-01
  2.516694e+01    8.181483e-01
  2.518282e+01    8.319159e-01
  2.519869e+01    8.308504e-01
  2.521457e+01    8.186768e-01
  2.523044e+01    8.381236e-01
  2.524632e+01    8.584030e-01
  2.526219e+01    8.412485e-01
  2.527807e+01    8.504726e-01
  2.529395e+01    8.514702e-01
  2.530982e+01    8.618588e-01
  2.532570e+01    8.624214e-01
  2.534157e+01    8.676103e-01
  2.535745e+01    8.695590e-01
  2.537332e+01    8.875242e-01
  2.538920e+01    8.862191e-01
  2.540507e+01    8.784970e-01
  2.542095e+01    9.044331e-01
  2.543683e+01    9.091197e-01
  2.545270e+01    9.287744e-01
  2.546858e+01    9.411597e-01
  2.548445e+01    9.637505e-01
  2.550033e+01    9.679797e-01
  2.551620e+01    9.854664e-01
  2.553208e+01    1.008495e+00
  2.554795e+01    1.023221e+00
  2.556383e+01    1.046538e+00
  2.557971e+01    1.059972e+00
  2.559558e+01    1.071460e+00
  2.561146e+01    1.132972e+00
  2.562733e+01    1.161833e+00
  2.564321e+01    1.190220e+00
  2.565908e+01    1.223366e+00
  2.567496e+01    1.290015e+00
  2.569083e+01    1.370044e+00
  2.570671e+01    1.449052e+00
  2.572259e+01    1.517518e+00
  2.573846e+01    1.647587e+00
  2.575434e+01    1.772048e+00
  2.577021e+01    1.943365e+00
  2.578609e+01    2.164562e+00
  2.580196e+01    2.392077e+00
  2.581784e+01    2.718176e+00
  2.583371e+01    3.111885e+00
  2.584959e+01    3.570512e+00
  2.586547e+01    4.097173e+00
  2.588134e+01    4.703664e+00
  2.589722e+01    5.308255e+00
  2.591309e+01    6.051963e+00
  2.592897e+01    6.762721e+00
  2.594484e+01    7.346283e+00
  2.596072e+01    7.837484e+00
  2.597660e+01    8.112153e+00
  2.599247e+01    8.081323e+00
  2.600835e+01    7.767051e+00
  2.602422e+01    7.145492e+00
  2.604010e+01    6.344843e+00
  2.605597e+01    5.510116e+00
  2.607185e+01    4.721470e+00
  2.608772e+01    3.988951e+00
  2.610360e+01    3.418226e+00
  2.611948e+01    3.023394e+00
  2.613535e+01    2.641548e+00
  2.615123e+01    2.348083e+00
  2.616710e+01    2.090147e+00
  2.618298e+01    1.918683e+00
  2.619885e+01    1.759365e+00
  2.621473e+01    1.590405e+00
  2.623060e+01    1.515781e+00
  2.624648e+01    1.430225e+00
  2.626236e+01    1.329570e+00
  2.627823e+01    1.280843e+00
  2.629411e+01    1.223010e+00
  2.630998e+01    1.200852e+00
  2.632586e+01    1.173840e+00
  2.634173e+01    1.133500e+00
  2.635761e+01    1.075748e+00
  2.637348e+01    1.062096e+00
  2.638936e+01    1.048687e+00
  2.640524e+01    1.024755e+00
  2.642111e+01    9.848261e-01
  2.643699e+01    9.691440e-01
  2.645286e+01    9.668247e-01
  2.646874e+01    9.720545e-01
  2.648461e+01    9.615241e-01
  2.650049e+01    9.475961e-01
  2.651636e+01    9.516252e-01
  2.653224e+01    9.429023e-01
  2.654812e+01    9.295854e-01
  2.656399e+01    9.198435e-01
  2.657987e+01    9.182249e-01
  2.659574e+01    9.194667e-01
  2.661162e+01    9.071069e-01
  2.662749e+01    9.223083e-01
  2.664337e+01    8.985503e-01
  2.665924e+01    8.984380e-01
  2.667512e+01    8.985669e-01
  2.669100e+01    9.039551e-01
  2.670687e+01    9.002486e-01
  2.672275e+01    9.124726e-01
  2.673862e+01    9.018437e-01
  2.675450e+01    8.939272e-01
  2.677037e+01    8.938205e-01
  2.678625e+01    9.050772e-01
  2.680212e+01    9.070243e-01
  2.681800e+01    8.933169e-01
  2.683388e+01    8.974313e-01
  2.684975e+01    9.206362e-01
  2.686563e+01    9.029801e-01
  2.688150e+01    9.035134e-01
  2.689738e+01    9.137641e-01
  2.691325e+01    9.324481e-01
  2.692913e+01    9.380352e-01
  2.694501e+01    9.381860e-01
  2.696088e+01    9.541515e-01
  2.697676e+01    9.487089e-01
  2.699263e+01    9.856424e-01
  2.700851e+01    1.013353e+00
  2.702438e+01    1.038881e+00
  2.704026e+01    1.093508e+00
  2.705613e+01    1.128170e+00
  2.707201e+01    1.188513e+00
  2.708789e+01    1.252241e+00
  2.710376e+01    1.322872e+00
  2.711964e+01    1.416886e+00
  2.713551e+01    1.539205e+00
  2.715139e+01    1.689053e+00
  2.716726e+01    1.803090e+00
  2.718314e+01    1.992428e+00
  2.719901e+01    2.146468e+00
  2.721489e+01    2.271575e+00
  2.723077e+01    2.370541e+00
  2.724664e+01    2.405276e+00
  2.726252e+01    2.350666e+00
  2.727839e+01    2.220308e+00
  2.729427e+01    2.062771e+00
  2.731014e+01    1.890000e+00
  2.732602e+01    1.711165e+00
  2.734189e+01    1.555676e+00
  2.735777e+01    1.443953e+00
  2.737365e+01    1.324022e+00
  2.738952e+01    1.230727e+00
  2.740540e+01    1.187036e+00
  2.742127e+01    1.134883e+00
  2.743715e+01    1.070521e+00
  2.745302e+01    1.007036e+00
  2.746890e+01    9.793338e-01
  2.748477e+01    9.746168e-01
  2.750065e+01    9.451307e-01
  2.751653e+01    9.032660e-01
  2.753240e+01    8.921865e-01
  2.754828e+01    8.958698e-01
  2.756415e+01    8.947517e-01
  2.758003e+01    8.730320e-01
  2.759590e+01    8.655481e-01
  2.761178e+01    8.502144e-01
  2.762765e+01    8.384983e-01
  2.764353e+01    8.398826e-01
  2.765941e+01    8.589613e-01
  2.767528e+01    8.421721e-01
  2.769116e+01    8.488745e-01
  2.770703e+01    8.456147e-01
  2.772291e+01    8.295068e-01
  2.773878e+01    8.057370e-01
  2.775466e+01    8.191788e-01
  2.777054e+01    8.136054e-01
  2.778641e+01    8.007318e-01
  2.780229e+01    8.020499e-01
  2.781816e+01    8.042263e-01
  2.783404e+01    8.100285e-01
  2.784991e+01    8.310523e-01
  2.786579e+01    8.067992e-01
  2.788166e+01    7.869178e-01
  2.789754e+01    7.818881e-01
  2.791342e+01    7.858638e-01
  2.792929e+01    7.915478e-01
  2.794517e+01    7.882182e-01
  2.796104e+01    7.936006e-01
  2.797692e+01    8.047412e-01
  2.799279e+01    7.907895e-01
  2.800867e+01    7.852179e-01
  2.802454e+01    7.898656e-01
  2.804042e+01    7.664217e-01
  2.805630e+01    7.914470e-01
  2.807217e+01    7.895495e-01
  2.808805e+01    7.816148e-01
  2.810392e+01    7.682530e-01
  2.811980e+01    7.776415e-01
  2.813567e+01    7.974636e-01
  2.815155e+01    7.908655e-01
  2.816742e+01    7.966816e-01
  2.818330e+01    7.737843e-01
  2.819918e+01    7.662564e-01
  2.821505e+01    7.848656e-01
  2.823093e+01    7.691382e-01
  2.824680e+01    7.571215e-01
  2.826268e+01    7.888047e-01
  2.827855e+01    7.922022e-01
  2.829443e+01    7.715881e-01
  2.831030e+01    7.635716e-01
  2.832618e+01    7.645299e-01
  2.834206e+01    7.489021e-01
  2.835793e+01    7.548375e-01
  2.837381e+01    7.501770e-01
  2.838968e+01    7.345220e-01
  2.840556e+01    7.477835e-01
  2.842143e+01    7.639967e-01
  2.843731e+01    7.404373e-01
  2.845318e+01    7.366641e-01
  2.846906e+01    7.556296e-01
  2.848494e+01    7.572480e-01
  2.850081e+01    7.602849e-01
  2.851669e+01    7.629974e-01
  2.853256e+01    7.513412e-01
  2.854844e+01    7.481894e-01
  2.856431e+01    7.467422e-01
  2.858019e+01    7.599948e-01
  2.859606e+01    7.566728e-01
  2.861194e+01    7.576219e-01
  2.862782e+01    7.549308e-01
  2.864369e+01    7.510985e-01
  2.865957e+01    7.459720e-01
  2.867544e+01    7.488442e-01
  2.869132e+01    7.504222e-01
  2.870719e+01    7.450688e-01
  2.872307e+01    7.714861e-01
  2.873895e+01    7.574930e-01
  2.875482e+01    7.428832e-01
  2.877070e+01    7.497714e-01
  2.878657e+01    7.308779e-01
  2.880245e+01    7.457476e-01
  2.881832e+01    7.484898e-01
  2.883420e+01    7.579481e-01
  2.885007e+01    7.427428e-01
  2.886595e+01    7.368677e-01
  2.888183e+01    7.447778e-01
  2.889770e+01    7.337474e-01
  2.891358e+01    7.402641e-01
  2.892945e+01    7.333842e-01
  2.894533e+01    7.340693e-01
  2.896120e+01    7.209954e-01
  2.897708e+01    7.172607e-01
  2.899295e+01    7.147599e-01
  2.900883e+01    7.202549e-01
  2.902471e+01    7.459227e-01
  2.904058e+01    7.553419e-01
  2.905646e+01    7.275450e-01
  2.907233e+01    7.250065e-01
  2.908821e+01    7.410928e-01
  2.910408e+01    7.469701e-01
  2.911996e+01    7.334954e-01
  2.913583e+01    7.264646e-01
  2.915171e+01    7.258461e-01
  2.916759e+01    7.211087e-01
  2.918346e+01    7.225555e-01
  2.919934e+01    7.268659e-01
  2.921521e+01    7.261158e-01
  2.923109e+01    7.185761e-01
  2.924696e+01    7.254074e-01
  2.926284e+01    7.388623e-01
  2.927871e+01    7.318125e-01
  2.929459e+01    7.470860e-01
  2.931047e+01    7.244135e-01
  2.932634e+01    7.065696e-01
  2.934222e+01    7.181013e-01
  2.935809e+01    7.274544e-01
  2.937397e+01    7.117034e-01
  2.938984e+01    7.236434e-01
  2.940572e+01    7.323728e-01
  2.942159e+01    7.201860e-01
  2.943747e+01    7.193702e-01
  2.945335e+01    7.261338e-01
  2.946922e+01    7.319453e-01
  2.948510e+01    7.339470e-01
  2.950097e+01    7.351930e-01
  2.951685e+01    7.227991e-01
  2.953272e+01    7.141790e-01
  2.954860e+01    7.219228e-01
  2.956447e+01    7.198648e-01
  2.958035e+01    7.154202e-01
  2.959623e+01    7.193590e-01
  2.961210e+01    7.280298e-01
  2.962798e+01    7.201570e-01
  2.964385e+01    7.152776e-01
  2.965973e+01    7.189086e-01
  2.967560e+01    7.251326e-01
  2.969148e+01    7.008991e-01
  2.970736e+01    7.029386e-01
  2.972323e+01    7.125530e-01
  2.973911e+01    7.157090e-01
  2.975498e+01    7.240397e-01
  2.977086e+01    7.067108e-01
  2.978673e+01    7.053926e-01
  2.980261e+01    7.005986e-01
  2.981848e+01    7.164934e-01
  2.983436e+01    7.284905e-01
  2.985024e+01    7.260604e-01
  2.986611e+01    7.329487e-01
  2.988199e+01    7.345282e-01
  2.989786e+01    7.030044e-01
  2.991374e+01    7.015911e-01
  2.992961e+01    7.090459e-01
  2.994549e+01    7.152784e-01
  2.996136e+01    7.046965e-01
  2.997724e+01    7.136726e-01
  2.999312e+01    7.275724e-01
  3.000899e+01    7.192964e-01
  3.002487e+01    7.106968e-01
  3.004074e+01    7.123663e-01
  3.005662e+01    7.280590e-01
  3.007249e+01    7.203155e-01
  3.008837e+01    6.987693e-01
  3.010424e+01    7.302674e-01
  3.012012e+01    7.154409e-01
  3.013600e+01    7.055852e-01
  3.015187e+01    6.965589e-01
  3.016775e+01    6.997010e-01
  3.018362e+01    7.111018e-01
  3.019950e+01    7.251906e-01
  3.021537e+01    7.220194e-01
  3.023125e+01    7.060971e-01
  3.024712e+01    7.118450e-01
  3.026300e+01    7.045887e-01
  3.027888e+01    7.213334e-01
  3.029475e+01    7.065579e-01
  3.031063e+01    7.102677e-01
  3.032650e+01    7.117742e-01
  3.034238e+01    7.030800e-01
  3.035825e+01    6.989221e-01
  3.037413e+01    7.046640e-01
  3.039000e+01    6.939553e-01
  3.040588e+01    7.067267e-01
  3.042176e+01    7.283399e-01
  3.043763e+01    7.185016e-01
  3.045351e+01    7.249043e-01
  3.046938e+01    7.210987e-01
  3.048526e+01    6.989838e-01
  3.050113e+01    7.032397e-01
  3.051701e+01    7.003723e-01
  3.053288e+01    7.215956e-01
  3.054876e+01    7.190926e-01
  3.056464e+01    7.139803e-01
  3.058051e+01    7.315200e-01
  3.059639e+01    7.306589e-01
  3.061226e+01    7.061430e-01
  3.062814e+01    7.135752e-01
  3.064401e+01    7.140394e-01
  3.065989e+01    6.958502e-01
  3.067577e+01    7.008012e-01
  3.069164e+01    7.243816e-01
  3.070752e+01    7.135392e-01
  3.072339e+01    7.174465e-01
  3.073927e+01    6.966320e-01
  3.075514e+01    6.981514e-01
  3.077102e+01    7.022898e-01
  3.078689e+01    6.972722e-01
  3.080277e+01    7.088639e-01
  3.081865e+01    7.278114e-01
  3.083452e+01    7.125921e-01
  3.085040e+01    7.043794e-01
  3.086627e+01    7.190380e-01
  3.088215e+01    7.209496e-01
  3.089802e+01    6.984975e-01
  3.091390e+01    7.013717e-01
  3.092977e+01    7.044365e-01
  3.094565e+01    6.975242e-01
  3.096153e+01    7.040718e-01
  3.097740e+01    7.113904e-01
  3.099328e+01    7.025596e-01
  3.100915e+01    7.138329e-01
  3.102503e+01    7.132858e-01
  3.104090e+01    7.227941e-01
  3.105678e+01    7.178812e-01
  3.107265e+01    7.227846e-01
  3.108853e+01    7.306788e-01
  3.110441e+01    7.309569e-01
  3.112028e+01    7.276076e-01
  3.113616e+01    7.104131e-01
  3.115203e+01    7.022486e-01
  3.116791e+01    7.281192e-01
  3.118378e+01    7.369680e-01
  3.119966e+01    7.197638e-01
  3.121553e+01    7.228149e-01
  3.123141e+01    7.320468e-01
  3.124729e+01    7.321846e-01
  3.126316e+01    7.305459e-01
  3.127904e+01    7.062536e-01
  3.129491e+01    7.247007e-01
  3.131079e+01    7.253708e-01
  3.132666e+01    7.200273e-01
  3.134254e+01    7.204983e-01
  3.135841e+01    7.226216e-01
  3.137429e+01    7.180356e-01
  3.139017e+01    7.141628e-01
  3.140604e+01    7.461706e-01
  3.142192e+01    7.410626e-01
  3.143779e+01    7.649367e-01
  3.145367e+01    7.589294e-01
  3.146954e+01    7.455290e-01
  3.148542e+01    7.522057e-01
  3.150129e+01    7.539371e-01
  3.151717e+01    7.490194e-01
  3.153305e+01    7.840173e-01
  3.154892e+01    7.706180e-01
  3.156480e+01    7.809587e-01
  3.158067e+01    8.121402e-01
  3.159655e+01    8.030470e-01
  3.161242e+01    7.968033e-01
  3.162830e+01    8.317729e-01
  3.164418e+01    8.442010e-01
  3.166005e+01    8.604524e-01
  3.167593e+01    8.654646e-01
  3.169180e+01    8.842750e-01
  3.170768e+01    9.137039e-01
  3.172355e+01    9.436339e-01
  3.173943e+01    1.018372e+00
  3.175530e+01    1.091563e+00
  3.177118e+01    1.149772e+00
  3.178706e+01    1.200356e+00
  3.180293e+01    1.294031e+00
  3.181881e+01    1.410500e+00
  3.183468e+01    1.533731e+00
  3.185056e+01    1.709952e+00
  3.186643e+01    1.865343e+00
  3.188231e+01    2.011233e+00
  3.189818e+01    2.183065e+00
  3.191406e+01    2.282785e+00
  3.192994e+01    2.345441e+00
  3.194581e+01    2.387541e+00
  3.196169e+01    2.272437e+00
  3.197756e+01    2.151365e+00
  3.199344e+01    1.982973e+00
  3.200931e+01    1.772977e+00
  3.202519e+01    1.621372e+00
  3.204106e+01    1.440482e+00
  3.205694e+01    1.369082e+00
  3.207282e+01    1.237303e+00
  3.208869e+01    1.137174e+00
  3.210457e+01    1.063733e+00
  3.212044e+01    1.042940e+00
  3.213632e+01    9.736658e-01
  3.215219e+01    9.294535e-01
  3.216807e+01    9.038131e-01
  3.218394e+01    8.644228e-01
  3.219982e+01    8.632246e-01
  3.221570e+01    8.664674e-01
  3.223157e+01    8.356933e-01
  3.224745e+01    8.111388e-01
  3.226332e+01    7.925452e-01
  3.227920e+01    7.730027e-01
  3.229507e+01    7.788264e-01
  3.231095e+01    7.691789e-01
  3.232682e+01    7.728590e-01
  3.234270e+01    7.589695e-01
  3.235858e+01    7.507301e-01
  3.237445e+01    7.427949e-01
  3.239033e+01    7.363917e-01
  3.240620e+01    7.438130e-01
  3.242208e+01    7.193469e-01
  3.243795e+01    7.397582e-01
  3.245383e+01    7.150903e-01
  3.246970e+01    7.133989e-01
  3.248558e+01    7.119331e-01
  3.250146e+01    7.374862e-01
  3.251733e+01    7.352909e-01
  3.253321e+01    7.239971e-01
  3.254908e+01    7.387182e-01
