# == pyFAI calibration ==
# Distance Sample to Detector: 0.3999999939076516 m
# PONI: 9.750e-02, 1.135e-01 m
# Rotations: -0.000175 0.000000 -0.000000 rad
# 
# == Fit2d calibration ==
# Distance Sample-beamCenter: 400.000 mm
# Center: x=1514.000, y=1300.000 pix
# Tilt: 0.010 deg  TiltPlanRot: 0.010 deg
# 
# Detector Detector	 Spline= None	 PixelSize= 7.500e-05, 7.500e-05 m
#    Detector has a mask: False 
#    Detector has a dark current: False 
#    detector has a flat field: False 
# 
# Wavelength: 6.888e-11 m
# Mask applied: user provided
# Dark current applied: False
# Flat field applied: False
# Polarization factor: 0.99
# Normalization factor: 1.0
# --> /home/myspot/data/2024_07_Rosario/Ru-CGO-ex/2024-07-27_002_Ru-CGO-ex_Activtation_ramp_000002_data_000159.dat
#       q_nm^-1             I 
  2.003187e-02    7.711873e-02
  3.590745e-02    6.421851e-02
  5.178302e-02    2.670345e-02
  6.765859e-02    7.583265e-02
  8.353417e-02    6.459521e-02
  9.940974e-02    8.119491e-02
  1.152853e-01    1.766353e-02
  1.311609e-01    1.689321e-02
  1.470365e-01    2.649570e-02
  1.629120e-01    3.038560e-02
  1.787876e-01    1.797008e-03
  1.946632e-01    0.000000e+00
  2.105388e-01    5.127735e-02
  2.264143e-01    5.318293e-02
  2.422899e-01    9.134909e-03
  2.581655e-01    3.501678e-02
  2.740411e-01    4.967195e-02
  2.899166e-01    6.602149e-02
  3.057922e-01    3.501098e-02
  3.216678e-01    3.869312e-02
  3.375433e-01    1.112398e-02
  3.534189e-01    3.899984e-02
  3.692945e-01    2.973218e-02
  3.851701e-01    9.418817e-03
  4.010456e-01    2.215310e-02
  4.169212e-01    3.632477e-02
  4.327968e-01    4.000207e-02
  4.486724e-01    3.764125e-02
  4.645479e-01    3.368932e-02
  4.804235e-01    4.680636e-02
  4.962991e-01    3.681049e-02
  5.121747e-01    2.252063e-02
  5.280502e-01    3.436960e-02
  5.439258e-01    3.755955e-02
  5.598014e-01    5.218533e-02
  5.756770e-01    5.083720e-02
  5.915525e-01    5.457304e-02
  6.074281e-01    5.616095e-02
  6.233037e-01    4.040993e-02
  6.391793e-01    2.197656e-02
  6.550548e-01    2.864044e-02
  6.709304e-01    2.280500e-02
  6.868060e-01    2.512919e-02
  7.026815e-01    3.849082e-02
  7.185571e-01    4.819146e-02
  7.344327e-01    6.630883e-02
  7.503083e-01    6.583758e-02
  7.661838e-01    6.843653e-02
  7.820594e-01    8.958849e-02
  7.979350e-01    1.188781e-01
  8.138106e-01    2.237477e-01
  8.296861e-01    2.622950e-01
  8.455617e-01    3.223564e-01
  8.614373e-01    3.655168e-01
  8.773129e-01    4.610684e-01
  8.931884e-01    5.326796e-01
  9.090640e-01    5.723758e-01
  9.249396e-01    6.828128e-01
  9.408152e-01    7.565509e-01
  9.566907e-01    8.000652e-01
  9.725663e-01    7.880115e-01
  9.884419e-01    8.458328e-01
  1.004317e+00    9.871882e-01
  1.020193e+00    1.123180e+00
  1.036069e+00    1.193018e+00
  1.051944e+00    1.283997e+00
  1.067820e+00    1.307577e+00
  1.083695e+00    1.386938e+00
  1.099571e+00    1.365547e+00
  1.115446e+00    1.402326e+00
  1.131322e+00    1.545724e+00
  1.147198e+00    1.497810e+00
  1.163073e+00    1.474460e+00
  1.178949e+00    1.543908e+00
  1.194824e+00    1.629631e+00
  1.210700e+00    1.881100e+00
  1.226575e+00    2.101455e+00
  1.242451e+00    2.232249e+00
  1.258327e+00    2.259220e+00
  1.274202e+00    2.364567e+00
  1.290078e+00    2.550846e+00
  1.305953e+00    2.454257e+00
  1.321829e+00    2.419341e+00
  1.337705e+00    2.508109e+00
  1.353580e+00    2.646740e+00
  1.369456e+00    2.631252e+00
  1.385331e+00    2.614059e+00
  1.401207e+00    2.665111e+00
  1.417082e+00    2.650135e+00
  1.432958e+00    2.698211e+00
  1.448834e+00    2.655928e+00
  1.464709e+00    2.775255e+00
  1.480585e+00    2.814872e+00
  1.496460e+00    2.810665e+00
  1.512336e+00    2.799148e+00
  1.528211e+00    2.867591e+00
  1.544087e+00    3.005098e+00
  1.559963e+00    3.050587e+00
  1.575838e+00    2.938843e+00
  1.591714e+00    2.883074e+00
  1.607589e+00    2.779235e+00
  1.623465e+00    2.761756e+00
  1.639340e+00    2.750146e+00
  1.655216e+00    2.809383e+00
  1.671092e+00    2.773720e+00
  1.686967e+00    2.714158e+00
  1.702843e+00    2.891242e+00
  1.718718e+00    2.823945e+00
  1.734594e+00    2.732263e+00
  1.750469e+00    2.765401e+00
  1.766345e+00    2.762926e+00
  1.782221e+00    2.728619e+00
  1.798096e+00    2.765108e+00
  1.813972e+00    2.806327e+00
  1.829847e+00    2.849228e+00
  1.845723e+00    2.895391e+00
  1.861598e+00    2.611172e+00
  1.877474e+00    2.612344e+00
  1.893350e+00    2.792356e+00
  1.909225e+00    2.745442e+00
  1.925101e+00    2.706022e+00
  1.940976e+00    2.741313e+00
  1.956852e+00    2.637128e+00
  1.972727e+00    2.702897e+00
  1.988603e+00    2.650444e+00
  2.004479e+00    2.697916e+00
  2.020354e+00    2.725531e+00
  2.036230e+00    2.769092e+00
  2.052105e+00    2.675305e+00
  2.067981e+00    2.779163e+00
  2.083856e+00    2.814947e+00
  2.099732e+00    2.638269e+00
  2.115608e+00    2.595637e+00
  2.131483e+00    2.688303e+00
  2.147359e+00    2.719117e+00
  2.163234e+00    2.724870e+00
  2.179110e+00    2.734607e+00
  2.194985e+00    2.778332e+00
  2.210861e+00    2.755973e+00
  2.226737e+00    2.670460e+00
  2.242612e+00    2.641234e+00
  2.258488e+00    2.754958e+00
  2.274363e+00    2.690262e+00
  2.290239e+00    2.574923e+00
  2.306115e+00    2.680824e+00
  2.321990e+00    2.789038e+00
  2.337866e+00    2.839268e+00
  2.353741e+00    2.754049e+00
  2.369617e+00    2.839776e+00
  2.385492e+00    2.790175e+00
  2.401368e+00    2.774495e+00
  2.417244e+00    2.695979e+00
  2.433119e+00    2.632153e+00
  2.448995e+00    2.719954e+00
  2.464870e+00    2.723406e+00
  2.480746e+00    2.751523e+00
  2.496621e+00    2.856043e+00
  2.512497e+00    2.786453e+00
  2.528373e+00    2.772143e+00
  2.544248e+00    2.794369e+00
  2.560124e+00    2.758049e+00
  2.575999e+00    2.781054e+00
  2.591875e+00    2.882270e+00
  2.607750e+00    2.680807e+00
  2.623626e+00    2.779413e+00
  2.639502e+00    2.820270e+00
  2.655377e+00    2.788687e+00
  2.671253e+00    2.796520e+00
  2.687128e+00    2.795341e+00
  2.703004e+00    2.883148e+00
  2.718879e+00    2.759423e+00
  2.734755e+00    2.730794e+00
  2.750631e+00    2.848920e+00
  2.766506e+00    2.828954e+00
  2.782382e+00    2.908611e+00
  2.798257e+00    2.720077e+00
  2.814133e+00    2.830989e+00
  2.830008e+00    2.895732e+00
  2.845884e+00    2.849671e+00
  2.861760e+00    2.818024e+00
  2.877635e+00    2.868594e+00
  2.893511e+00    2.919387e+00
  2.909386e+00    2.907552e+00
  2.925262e+00    2.869616e+00
  2.941137e+00    2.915536e+00
  2.957013e+00    2.926898e+00
  2.972889e+00    2.882608e+00
  2.988764e+00    2.880598e+00
  3.004640e+00    2.917383e+00
  3.020515e+00    2.868437e+00
  3.036391e+00    2.822523e+00
  3.052266e+00    2.881243e+00
  3.068142e+00    2.917499e+00
  3.084018e+00    2.893295e+00
  3.099893e+00    2.933416e+00
  3.115769e+00    2.923880e+00
  3.131644e+00    2.850299e+00
  3.147520e+00    2.866604e+00
  3.163395e+00    2.912708e+00
  3.179271e+00    2.847201e+00
  3.195147e+00    2.945785e+00
  3.211022e+00    2.956173e+00
  3.226898e+00    2.965358e+00
  3.242773e+00    2.950464e+00
  3.258649e+00    2.882653e+00
  3.274525e+00    2.922214e+00
  3.290400e+00    3.036576e+00
  3.306276e+00    2.915998e+00
  3.322151e+00    3.005117e+00
  3.338027e+00    3.042292e+00
  3.353902e+00    2.908097e+00
  3.369778e+00    2.996477e+00
  3.385654e+00    3.018465e+00
  3.401529e+00    2.940008e+00
  3.417405e+00    2.947840e+00
  3.433280e+00    3.007982e+00
  3.449156e+00    3.004212e+00
  3.465031e+00    3.016659e+00
  3.480907e+00    3.034881e+00
  3.496783e+00    3.010654e+00
  3.512658e+00    2.926075e+00
  3.528534e+00    2.990722e+00
  3.544409e+00    2.866805e+00
  3.560285e+00    2.949369e+00
  3.576160e+00    3.017879e+00
  3.592036e+00    3.065584e+00
  3.607912e+00    3.064335e+00
  3.623787e+00    2.991505e+00
  3.639663e+00    3.018321e+00
  3.655538e+00    2.967933e+00
  3.671414e+00    2.993090e+00
  3.687289e+00    3.047116e+00
  3.703165e+00    2.987983e+00
  3.719041e+00    2.987398e+00
  3.734916e+00    2.999953e+00
  3.750792e+00    2.966005e+00
  3.766667e+00    3.044960e+00
  3.782543e+00    3.015487e+00
  3.798418e+00    2.964443e+00
  3.814294e+00    3.023668e+00
  3.830170e+00    3.014833e+00
  3.846045e+00    2.948658e+00
  3.861921e+00    2.989634e+00
  3.877796e+00    2.992696e+00
  3.893672e+00    2.885618e+00
  3.909547e+00    2.987929e+00
  3.925423e+00    3.108736e+00
  3.941299e+00    3.100877e+00
  3.957174e+00    3.045000e+00
  3.973050e+00    3.003776e+00
  3.988925e+00    3.007634e+00
  4.004801e+00    2.956620e+00
  4.020676e+00    2.991373e+00
  4.036552e+00    3.094022e+00
  4.052428e+00    3.068568e+00
  4.068303e+00    3.116387e+00
  4.084179e+00    3.105941e+00
  4.100054e+00    3.080930e+00
  4.115930e+00    2.953907e+00
  4.131806e+00    3.041130e+00
  4.147681e+00    3.131016e+00
  4.163557e+00    3.024517e+00
  4.179432e+00    3.118222e+00
  4.195308e+00    3.103846e+00
  4.211183e+00    3.139617e+00
  4.227059e+00    3.073205e+00
  4.242935e+00    3.031389e+00
  4.258810e+00    3.116379e+00
  4.274686e+00    3.059568e+00
  4.290561e+00    3.076189e+00
  4.306437e+00    3.050025e+00
  4.322312e+00    3.065803e+00
  4.338188e+00    3.079908e+00
  4.354064e+00    3.096435e+00
  4.369939e+00    3.057315e+00
  4.385815e+00    3.101983e+00
  4.401690e+00    3.058153e+00
  4.417566e+00    3.040939e+00
  4.433441e+00    3.027216e+00
  4.449317e+00    3.048474e+00
  4.465193e+00    3.184197e+00
  4.481068e+00    3.109909e+00
  4.496944e+00    3.047857e+00
  4.512819e+00    3.080484e+00
  4.528695e+00    3.055127e+00
  4.544570e+00    3.070638e+00
  4.560446e+00    3.053791e+00
  4.576322e+00    3.025316e+00
  4.592197e+00    3.025976e+00
  4.608073e+00    3.110552e+00
  4.623948e+00    3.113167e+00
  4.639824e+00    3.119692e+00
  4.655699e+00    3.197299e+00
  4.671575e+00    3.196031e+00
  4.687451e+00    3.036452e+00
  4.703326e+00    3.098770e+00
  4.719202e+00    3.137764e+00
  4.735077e+00    3.202123e+00
  4.750953e+00    3.128740e+00
  4.766828e+00    3.065078e+00
  4.782704e+00    3.112475e+00
  4.798580e+00    3.149748e+00
  4.814455e+00    3.125689e+00
  4.830331e+00    3.103704e+00
  4.846206e+00    3.135793e+00
  4.862082e+00    3.116488e+00
  4.877957e+00    3.189117e+00
  4.893833e+00    3.155000e+00
  4.909709e+00    3.169508e+00
  4.925584e+00    3.111217e+00
  4.941460e+00    3.111641e+00
  4.957335e+00    3.105637e+00
  4.973211e+00    3.078710e+00
  4.989086e+00    3.145483e+00
  5.004962e+00    3.212153e+00
  5.020838e+00    3.202089e+00
  5.036713e+00    3.157658e+00
  5.052589e+00    3.148935e+00
  5.068464e+00    3.142255e+00
  5.084340e+00    3.134211e+00
  5.100216e+00    3.241633e+00
  5.116091e+00    3.140441e+00
  5.131967e+00    3.112763e+00
  5.147842e+00    3.104961e+00
  5.163718e+00    3.114035e+00
  5.179593e+00    3.176552e+00
  5.195469e+00    3.165348e+00
  5.211345e+00    3.131161e+00
  5.227220e+00    3.133056e+00
  5.243096e+00    3.082504e+00
  5.258971e+00    3.090225e+00
  5.274847e+00    3.123449e+00
  5.290722e+00    3.121313e+00
  5.306598e+00    3.135606e+00
  5.322474e+00    3.198858e+00
  5.338349e+00    3.172435e+00
  5.354225e+00    3.164852e+00
  5.370100e+00    3.132479e+00
  5.385976e+00    3.139422e+00
  5.401851e+00    3.178079e+00
  5.417727e+00    3.142227e+00
  5.433603e+00    3.151727e+00
  5.449478e+00    3.146806e+00
  5.465354e+00    3.191594e+00
  5.481229e+00    3.109630e+00
  5.497105e+00    3.116618e+00
  5.512980e+00    3.145353e+00
  5.528856e+00    3.079741e+00
  5.544732e+00    3.090171e+00
  5.560607e+00    3.120134e+00
  5.576483e+00    3.125338e+00
  5.592358e+00    3.136854e+00
  5.608234e+00    3.169899e+00
  5.624109e+00    3.070382e+00
  5.639985e+00    3.120244e+00
  5.655861e+00    3.128351e+00
  5.671736e+00    3.108931e+00
  5.687612e+00    3.174484e+00
  5.703487e+00    3.121707e+00
  5.719363e+00    3.139648e+00
  5.735238e+00    3.114430e+00
  5.751114e+00    3.102765e+00
  5.766990e+00    3.108896e+00
  5.782865e+00    3.043355e+00
  5.798741e+00    3.064059e+00
  5.814616e+00    2.986777e+00
  5.830492e+00    2.920927e+00
  5.846367e+00    3.013205e+00
  5.862243e+00    3.087328e+00
  5.878119e+00    3.029802e+00
  5.893994e+00    3.012072e+00
  5.909870e+00    3.072656e+00
  5.925745e+00    3.076239e+00
  5.941621e+00    3.097964e+00
  5.957497e+00    3.097126e+00
  5.973372e+00    3.074515e+00
  5.989248e+00    3.052055e+00
  6.005123e+00    3.061535e+00
  6.020999e+00    2.999665e+00
  6.036874e+00    3.093909e+00
  6.052750e+00    3.022286e+00
  6.068626e+00    3.036403e+00
  6.084501e+00    3.055689e+00
  6.100377e+00    3.071014e+00
  6.116252e+00    3.071682e+00
  6.132128e+00    3.081991e+00
  6.148003e+00    3.057846e+00
  6.163879e+00    3.071405e+00
  6.179755e+00    3.150700e+00
  6.195630e+00    3.131387e+00
  6.211506e+00    3.161115e+00
  6.227381e+00    3.031855e+00
  6.243257e+00    3.037461e+00
  6.259132e+00    3.081997e+00
  6.275008e+00    3.013518e+00
  6.290884e+00    2.961881e+00
  6.306759e+00    3.083516e+00
  6.322635e+00    3.093780e+00
  6.338510e+00    3.088000e+00
  6.354386e+00    3.049298e+00
  6.370261e+00    2.972932e+00
  6.386137e+00    3.083678e+00
  6.402013e+00    3.103554e+00
  6.417888e+00    3.116823e+00
  6.433764e+00    3.065451e+00
  6.449639e+00    3.065255e+00
  6.465515e+00    3.120203e+00
  6.481390e+00    3.072764e+00
  6.497266e+00    3.064171e+00
  6.513142e+00    3.114059e+00
  6.529017e+00    3.178182e+00
  6.544893e+00    3.094953e+00
  6.560768e+00    3.018673e+00
  6.576644e+00    3.099313e+00
  6.592519e+00    3.092331e+00
  6.608395e+00    3.064080e+00
  6.624271e+00    3.066379e+00
  6.640146e+00    3.060633e+00
  6.656022e+00    3.055624e+00
  6.671897e+00    3.086587e+00
  6.687773e+00    3.082050e+00
  6.703648e+00    3.028222e+00
  6.719524e+00    3.058475e+00
  6.735400e+00    3.088774e+00
  6.751275e+00    3.091476e+00
  6.767151e+00    3.051397e+00
  6.783026e+00    3.041780e+00
  6.798902e+00    3.137814e+00
  6.814777e+00    3.155084e+00
  6.830653e+00    3.121681e+00
  6.846529e+00    3.069668e+00
  6.862404e+00    3.073268e+00
  6.878280e+00    3.061174e+00
  6.894155e+00    3.032374e+00
  6.910031e+00    3.030956e+00
  6.925907e+00    3.008209e+00
  6.941782e+00    3.112086e+00
  6.957658e+00    3.044140e+00
  6.973533e+00    3.017098e+00
  6.989409e+00    3.074614e+00
  7.005284e+00    3.055428e+00
  7.021160e+00    3.068123e+00
  7.037036e+00    3.023079e+00
  7.052911e+00    2.983248e+00
  7.068787e+00    2.983738e+00
  7.084662e+00    2.953284e+00
  7.100538e+00    2.986333e+00
  7.116413e+00    3.109921e+00
  7.132289e+00    3.051065e+00
  7.148165e+00    3.079945e+00
  7.164040e+00    3.012567e+00
  7.179916e+00    2.976509e+00
  7.195791e+00    3.049798e+00
  7.211667e+00    3.025604e+00
  7.227542e+00    3.054025e+00
  7.243418e+00    3.008372e+00
  7.259294e+00    3.028795e+00
  7.275169e+00    3.070302e+00
  7.291045e+00    3.045615e+00
  7.306920e+00    3.000837e+00
  7.322796e+00    3.033558e+00
  7.338671e+00    3.062684e+00
  7.354547e+00    3.081192e+00
  7.370423e+00    3.068727e+00
  7.386298e+00    3.027040e+00
  7.402174e+00    3.068922e+00
  7.418049e+00    3.026347e+00
  7.433925e+00    3.037133e+00
  7.449800e+00    3.001651e+00
  7.465676e+00    3.081929e+00
  7.481552e+00    2.981452e+00
  7.497427e+00    3.014989e+00
  7.513303e+00    2.989538e+00
  7.529178e+00    3.006876e+00
  7.545054e+00    3.051246e+00
  7.560929e+00    3.022874e+00
  7.576805e+00    3.044597e+00
  7.592681e+00    3.003976e+00
  7.608556e+00    2.995485e+00
  7.624432e+00    3.017972e+00
  7.640307e+00    2.982140e+00
  7.656183e+00    2.987433e+00
  7.672058e+00    2.993295e+00
  7.687934e+00    2.968561e+00
  7.703810e+00    2.977246e+00
  7.719685e+00    2.963806e+00
  7.735561e+00    2.969949e+00
  7.751436e+00    2.991914e+00
  7.767312e+00    2.962639e+00
  7.783187e+00    2.987244e+00
  7.799063e+00    2.981984e+00
  7.814939e+00    2.977512e+00
  7.830814e+00    2.905207e+00
  7.846690e+00    2.899275e+00
  7.862565e+00    2.934035e+00
  7.878441e+00    2.960216e+00
  7.894317e+00    2.951021e+00
  7.910192e+00    2.933716e+00
  7.926068e+00    2.915427e+00
  7.941943e+00    2.988275e+00
  7.957819e+00    2.977594e+00
  7.973694e+00    2.969761e+00
  7.989570e+00    2.947485e+00
  8.005446e+00    2.951186e+00
  8.021321e+00    2.987148e+00
  8.037197e+00    2.991749e+00
  8.053072e+00    3.024716e+00
  8.068948e+00    2.965553e+00
  8.084823e+00    3.012654e+00
  8.100699e+00    2.938399e+00
  8.116575e+00    2.937696e+00
  8.132450e+00    2.891076e+00
  8.148326e+00    2.945892e+00
  8.164201e+00    2.915037e+00
  8.180077e+00    2.933414e+00
  8.195952e+00    3.019533e+00
  8.211828e+00    3.055727e+00
  8.227704e+00    3.049651e+00
  8.243579e+00    3.029037e+00
  8.259455e+00    2.909780e+00
  8.275330e+00    2.845440e+00
  8.291206e+00    2.916534e+00
  8.307081e+00    2.883703e+00
  8.322957e+00    2.852434e+00
  8.338833e+00    2.867778e+00
  8.354708e+00    2.898756e+00
  8.370584e+00    2.951347e+00
  8.386459e+00    2.906209e+00
  8.402335e+00    2.895686e+00
  8.418210e+00    2.872677e+00
  8.434086e+00    2.948999e+00
  8.449962e+00    2.928518e+00
  8.465837e+00    2.893931e+00
  8.481713e+00    2.885651e+00
  8.497588e+00    2.919837e+00
  8.513464e+00    2.904175e+00
  8.529339e+00    2.869337e+00
  8.545215e+00    2.885540e+00
  8.561091e+00    2.897338e+00
  8.576966e+00    2.915190e+00
  8.592842e+00    2.892780e+00
  8.608717e+00    2.890162e+00
  8.624593e+00    2.898388e+00
  8.640468e+00    2.784479e+00
  8.656344e+00    2.841433e+00
  8.672220e+00    2.867406e+00
  8.688095e+00    2.868105e+00
  8.703971e+00    2.903054e+00
  8.719846e+00    2.872412e+00
  8.735722e+00    2.888587e+00
  8.751598e+00    2.897516e+00
  8.767473e+00    2.929324e+00
  8.783349e+00    2.927396e+00
  8.799224e+00    2.899678e+00
  8.815100e+00    2.900642e+00
  8.830975e+00    2.893751e+00
  8.846851e+00    2.870215e+00
  8.862727e+00    2.833549e+00
  8.878602e+00    2.797096e+00
  8.894478e+00    2.811800e+00
  8.910353e+00    2.873096e+00
  8.926229e+00    2.817728e+00
  8.942104e+00    2.822621e+00
  8.957980e+00    2.815165e+00
  8.973856e+00    2.814472e+00
  8.989731e+00    2.832829e+00
  9.005607e+00    2.851681e+00
  9.021482e+00    2.856650e+00
  9.037358e+00    2.861517e+00
  9.053233e+00    2.834492e+00
  9.069109e+00    2.840151e+00
  9.084985e+00    2.813417e+00
  9.100860e+00    2.793953e+00
  9.116736e+00    2.850419e+00
  9.132611e+00    2.800648e+00
  9.148487e+00    2.692728e+00
  9.164362e+00    2.756085e+00
  9.180238e+00    2.789160e+00
  9.196114e+00    2.811222e+00
  9.211989e+00    2.814598e+00
  9.227865e+00    2.818192e+00
  9.243740e+00    2.791337e+00
  9.259616e+00    2.761544e+00
  9.275491e+00    2.790459e+00
  9.291367e+00    2.819960e+00
  9.307243e+00    2.831322e+00
  9.323118e+00    2.833366e+00
  9.338994e+00    2.842006e+00
  9.354869e+00    2.803496e+00
  9.370745e+00    2.808113e+00
  9.386620e+00    2.778579e+00
  9.402496e+00    2.797713e+00
  9.418372e+00    2.803907e+00
  9.434247e+00    2.836453e+00
  9.450123e+00    2.834514e+00
  9.465998e+00    2.814177e+00
  9.481874e+00    2.790023e+00
  9.497749e+00    2.758901e+00
  9.513625e+00    2.781415e+00
  9.529501e+00    2.768176e+00
  9.545376e+00    2.777792e+00
  9.561252e+00    2.752000e+00
  9.577127e+00    2.745995e+00
  9.593003e+00    2.758375e+00
  9.608878e+00    2.788011e+00
  9.624754e+00    2.794384e+00
  9.640630e+00    2.730764e+00
  9.656505e+00    2.815950e+00
  9.672381e+00    2.798244e+00
  9.688256e+00    2.742025e+00
  9.704132e+00    2.741364e+00
  9.720008e+00    2.772812e+00
  9.735883e+00    2.779875e+00
  9.751759e+00    2.755474e+00
  9.767634e+00    2.668571e+00
  9.783510e+00    2.679774e+00
  9.799385e+00    2.778468e+00
  9.815261e+00    2.738737e+00
  9.831137e+00    2.716801e+00
  9.847012e+00    2.679373e+00
  9.862888e+00    2.658935e+00
  9.878763e+00    2.698838e+00
  9.894639e+00    2.678606e+00
  9.910514e+00    2.719165e+00
  9.926390e+00    2.740499e+00
  9.942266e+00    2.685473e+00
  9.958141e+00    2.678928e+00
  9.974017e+00    2.684049e+00
  9.989892e+00    2.692707e+00
  1.000577e+01    2.693648e+00
  1.002164e+01    2.695314e+00
  1.003752e+01    2.640779e+00
  1.005339e+01    2.646111e+00
  1.006927e+01    2.700503e+00
  1.008515e+01    2.681844e+00
  1.010102e+01    2.641675e+00
  1.011690e+01    2.635178e+00
  1.013277e+01    2.597101e+00
  1.014865e+01    2.640079e+00
  1.016452e+01    2.644843e+00
  1.018040e+01    2.645763e+00
  1.019627e+01    2.600602e+00
  1.021215e+01    2.577235e+00
  1.022803e+01    2.623972e+00
  1.024390e+01    2.642556e+00
  1.025978e+01    2.611026e+00
  1.027565e+01    2.599254e+00
  1.029153e+01    2.606792e+00
  1.030740e+01    2.653910e+00
  1.032328e+01    2.600035e+00
  1.033915e+01    2.612839e+00
  1.035503e+01    2.645683e+00
  1.037091e+01    2.590254e+00
  1.038678e+01    2.565281e+00
  1.040266e+01    2.611603e+00
  1.041853e+01    2.636888e+00
  1.043441e+01    2.669344e+00
  1.045028e+01    2.623252e+00
  1.046616e+01    2.601451e+00
  1.048204e+01    2.572227e+00
  1.049791e+01    2.586649e+00
  1.051379e+01    2.608513e+00
  1.052966e+01    2.573431e+00
  1.054554e+01    2.566826e+00
  1.056141e+01    2.514582e+00
  1.057729e+01    2.599112e+00
  1.059316e+01    2.634080e+00
  1.060904e+01    2.565884e+00
  1.062492e+01    2.536823e+00
  1.064079e+01    2.538871e+00
  1.065667e+01    2.591392e+00
  1.067254e+01    2.565425e+00
  1.068842e+01    2.567299e+00
  1.070429e+01    2.587546e+00
  1.072017e+01    2.591452e+00
  1.073604e+01    2.565559e+00
  1.075192e+01    2.594368e+00
  1.076780e+01    2.544472e+00
  1.078367e+01    2.550356e+00
  1.079955e+01    2.532885e+00
  1.081542e+01    2.537328e+00
  1.083130e+01    2.542672e+00
  1.084717e+01    2.519829e+00
  1.086305e+01    2.505488e+00
  1.087892e+01    2.485037e+00
  1.089480e+01    2.471166e+00
  1.091068e+01    2.444049e+00
  1.092655e+01    2.491848e+00
  1.094243e+01    2.496971e+00
  1.095830e+01    2.506618e+00
  1.097418e+01    2.517989e+00
  1.099005e+01    2.494779e+00
  1.100593e+01    2.517911e+00
  1.102180e+01    2.513533e+00
  1.103768e+01    2.520857e+00
  1.105356e+01    2.470396e+00
  1.106943e+01    2.465455e+00
  1.108531e+01    2.525721e+00
  1.110118e+01    2.508528e+00
  1.111706e+01    2.461491e+00
  1.113293e+01    2.491755e+00
  1.114881e+01    2.476882e+00
  1.116468e+01    2.453465e+00
  1.118056e+01    2.492961e+00
  1.119644e+01    2.509218e+00
  1.121231e+01    2.495364e+00
  1.122819e+01    2.494776e+00
  1.124406e+01    2.493655e+00
  1.125994e+01    2.432223e+00
  1.127581e+01    2.430968e+00
  1.129169e+01    2.438798e+00
  1.130756e+01    2.423272e+00
  1.132344e+01    2.447129e+00
  1.133932e+01    2.497498e+00
  1.135519e+01    2.465340e+00
  1.137107e+01    2.427210e+00
  1.138694e+01    2.453279e+00
  1.140282e+01    2.453849e+00
  1.141869e+01    2.417808e+00
  1.143457e+01    2.418048e+00
  1.145045e+01    2.426322e+00
  1.146632e+01    2.419834e+00
  1.148220e+01    2.474558e+00
  1.149807e+01    2.414701e+00
  1.151395e+01    2.420978e+00
  1.152982e+01    2.407942e+00
  1.154570e+01    2.417398e+00
  1.156157e+01    2.414638e+00
  1.157745e+01    2.395144e+00
  1.159333e+01    2.371936e+00
  1.160920e+01    2.404065e+00
  1.162508e+01    2.380167e+00
  1.164095e+01    2.356734e+00
  1.165683e+01    2.406449e+00
  1.167270e+01    2.397985e+00
  1.168858e+01    2.381800e+00
  1.170445e+01    2.376424e+00
  1.172033e+01    2.336609e+00
  1.173621e+01    2.360766e+00
  1.175208e+01    2.376781e+00
  1.176796e+01    2.390789e+00
  1.178383e+01    2.443701e+00
  1.179971e+01    2.435253e+00
  1.181558e+01    2.393025e+00
  1.183146e+01    2.354178e+00
  1.184733e+01    2.369953e+00
  1.186321e+01    2.319259e+00
  1.187909e+01    2.329494e+00
  1.189496e+01    2.305660e+00
  1.191084e+01    2.365129e+00
  1.192671e+01    2.352894e+00
  1.194259e+01    2.338885e+00
  1.195846e+01    2.334827e+00
  1.197434e+01    2.343335e+00
  1.199021e+01    2.378485e+00
  1.200609e+01    2.345027e+00
  1.202197e+01    2.345087e+00
  1.203784e+01    2.395200e+00
  1.205372e+01    2.341624e+00
  1.206959e+01    2.325249e+00
  1.208547e+01    2.322379e+00
  1.210134e+01    2.360264e+00
  1.211722e+01    2.320440e+00
  1.213309e+01    2.300047e+00
  1.214897e+01    2.321049e+00
  1.216485e+01    2.343735e+00
  1.218072e+01    2.350079e+00
  1.219660e+01    2.347433e+00
  1.221247e+01    2.324734e+00
  1.222835e+01    2.321414e+00
  1.224422e+01    2.330242e+00
  1.226010e+01    2.313246e+00
  1.227597e+01    2.293031e+00
  1.229185e+01    2.307147e+00
  1.230773e+01    2.298176e+00
  1.232360e+01    2.352171e+00
  1.233948e+01    2.383899e+00
  1.235535e+01    2.323506e+00
  1.237123e+01    2.323082e+00
  1.238710e+01    2.308123e+00
  1.240298e+01    2.289198e+00
  1.241886e+01    2.283024e+00
  1.243473e+01    2.335430e+00
  1.245061e+01    2.309722e+00
  1.246648e+01    2.336751e+00
  1.248236e+01    2.331902e+00
  1.249823e+01    2.341396e+00
  1.251411e+01    2.326765e+00
  1.252998e+01    2.305106e+00
  1.254586e+01    2.400504e+00
  1.256174e+01    2.351499e+00
  1.257761e+01    2.361763e+00
  1.259349e+01    2.397417e+00
  1.260936e+01    2.400580e+00
  1.262524e+01    2.403350e+00
  1.264111e+01    2.407811e+00
  1.265699e+01    2.462051e+00
  1.267286e+01    2.482771e+00
  1.268874e+01    2.447883e+00
  1.270462e+01    2.505394e+00
  1.272049e+01    2.514685e+00
  1.273637e+01    2.528289e+00
  1.275224e+01    2.534573e+00
  1.276812e+01    2.574633e+00
  1.278399e+01    2.628939e+00
  1.279987e+01    2.680856e+00
  1.281574e+01    2.750741e+00
  1.283162e+01    2.768335e+00
  1.284750e+01    2.786222e+00
  1.286337e+01    2.926469e+00
  1.287925e+01    3.048053e+00
  1.289512e+01    3.170462e+00
  1.291100e+01    3.349917e+00
  1.292687e+01    3.510624e+00
  1.294275e+01    3.740895e+00
  1.295862e+01    4.080719e+00
  1.297450e+01    4.503840e+00
  1.299038e+01    4.904805e+00
  1.300625e+01    5.490528e+00
  1.302213e+01    6.321327e+00
  1.303800e+01    7.350556e+00
  1.305388e+01    8.467062e+00
  1.306975e+01    9.789514e+00
  1.308563e+01    1.096560e+01
  1.310150e+01    1.224786e+01
  1.311738e+01    1.333581e+01
  1.313326e+01    1.443930e+01
  1.314913e+01    1.549255e+01
  1.316501e+01    1.627712e+01
  1.318088e+01    1.640018e+01
  1.319676e+01    1.585155e+01
  1.321263e+01    1.439244e+01
  1.322851e+01    1.258594e+01
  1.324438e+01    1.060262e+01
  1.326026e+01    8.970759e+00
  1.327614e+01    7.629088e+00
  1.329201e+01    6.538129e+00
  1.330789e+01    5.670248e+00
  1.332376e+01    5.031145e+00
  1.333964e+01    4.581659e+00
  1.335551e+01    4.162672e+00
  1.337139e+01    3.764160e+00
  1.338727e+01    3.531718e+00
  1.340314e+01    3.379122e+00
  1.341902e+01    3.208690e+00
  1.343489e+01    3.054947e+00
  1.345077e+01    2.921530e+00
  1.346664e+01    2.829567e+00
  1.348252e+01    2.720679e+00
  1.349839e+01    2.647301e+00
  1.351427e+01    2.598252e+00
  1.353015e+01    2.558043e+00
  1.354602e+01    2.503654e+00
  1.356190e+01    2.461826e+00
  1.357777e+01    2.408577e+00
  1.359365e+01    2.367703e+00
  1.360952e+01    2.401519e+00
  1.362540e+01    2.358930e+00
  1.364127e+01    2.294897e+00
  1.365715e+01    2.285211e+00
  1.367303e+01    2.267627e+00
  1.368890e+01    2.284574e+00
  1.370478e+01    2.264482e+00
  1.372065e+01    2.205226e+00
  1.373653e+01    2.177108e+00
  1.375240e+01    2.121839e+00
  1.376828e+01    2.157795e+00
  1.378415e+01    2.202824e+00
  1.380003e+01    2.199845e+00
  1.381591e+01    2.136862e+00
  1.383178e+01    2.140737e+00
  1.384766e+01    2.142081e+00
  1.386353e+01    2.133730e+00
  1.387941e+01    2.168405e+00
  1.389528e+01    2.121548e+00
  1.391116e+01    2.101611e+00
  1.392703e+01    2.092111e+00
  1.394291e+01    2.074713e+00
  1.395879e+01    2.018572e+00
  1.397466e+01    2.068448e+00
  1.399054e+01    2.098267e+00
  1.400641e+01    2.068947e+00
  1.402229e+01    2.056604e+00
  1.403816e+01    2.058427e+00
  1.405404e+01    2.020028e+00
  1.406991e+01    2.028238e+00
  1.408579e+01    2.080788e+00
  1.410167e+01    2.053343e+00
  1.411754e+01    1.975188e+00
  1.413342e+01    2.004529e+00
  1.414929e+01    2.017694e+00
  1.416517e+01    2.012296e+00
  1.418104e+01    2.016098e+00
  1.419692e+01    2.002219e+00
  1.421279e+01    2.005409e+00
  1.422867e+01    1.980242e+00
  1.424455e+01    1.960964e+00
  1.426042e+01    1.958441e+00
  1.427630e+01    2.018934e+00
  1.429217e+01    1.978354e+00
  1.430805e+01    1.951329e+00
  1.432392e+01    1.939442e+00
  1.433980e+01    1.945241e+00
  1.435568e+01    1.930109e+00
  1.437155e+01    1.910016e+00
  1.438743e+01    1.964623e+00
  1.440330e+01    1.954446e+00
  1.441918e+01    1.925837e+00
  1.443505e+01    1.947457e+00
  1.445093e+01    1.941304e+00
  1.446680e+01    1.926163e+00
  1.448268e+01    1.900907e+00
  1.449856e+01    1.915829e+00
  1.451443e+01    1.951165e+00
  1.453031e+01    1.959490e+00
  1.454618e+01    1.945525e+00
  1.456206e+01    1.939233e+00
  1.457793e+01    1.952332e+00
  1.459381e+01    1.963881e+00
  1.460968e+01    1.950234e+00
  1.462556e+01    1.938517e+00
  1.464144e+01    1.891913e+00
  1.465731e+01    1.923443e+00
  1.467319e+01    1.914595e+00
  1.468906e+01    1.876821e+00
  1.470494e+01    1.906711e+00
  1.472081e+01    1.901567e+00
  1.473669e+01    1.896491e+00
  1.475256e+01    1.897859e+00
  1.476844e+01    1.902723e+00
  1.478432e+01    1.927034e+00
  1.480019e+01    1.921848e+00
  1.481607e+01    1.921705e+00
  1.483194e+01    1.925220e+00
  1.484782e+01    1.894078e+00
  1.486369e+01    1.940176e+00
  1.487957e+01    1.947771e+00
  1.489544e+01    1.948723e+00
  1.491132e+01    1.926563e+00
  1.492720e+01    2.027422e+00
  1.494307e+01    2.075293e+00
  1.495895e+01    2.088112e+00
  1.497482e+01    2.100339e+00
  1.499070e+01    2.142481e+00
  1.500657e+01    2.200519e+00
  1.502245e+01    2.252084e+00
  1.503832e+01    2.334314e+00
  1.505420e+01    2.447661e+00
  1.507008e+01    2.564951e+00
  1.508595e+01    2.754481e+00
  1.510183e+01    2.965178e+00
  1.511770e+01    3.251773e+00
  1.513358e+01    3.558381e+00
  1.514945e+01    3.882014e+00
  1.516533e+01    4.217171e+00
  1.518120e+01    4.592850e+00
  1.519708e+01    4.917465e+00
  1.521296e+01    5.198235e+00
  1.522883e+01    5.417561e+00
  1.524471e+01    5.575685e+00
  1.526058e+01    5.708398e+00
  1.527646e+01    5.641949e+00
  1.529233e+01    5.386032e+00
  1.530821e+01    5.000558e+00
  1.532409e+01    4.472295e+00
  1.533996e+01    4.002994e+00
  1.535584e+01    3.536544e+00
  1.537171e+01    3.195908e+00
  1.538759e+01    2.970534e+00
  1.540346e+01    2.702723e+00
  1.541934e+01    2.525433e+00
  1.543521e+01    2.367818e+00
  1.545109e+01    2.273527e+00
  1.546697e+01    2.180141e+00
  1.548284e+01    2.082647e+00
  1.549872e+01    1.982941e+00
  1.551459e+01    1.932257e+00
  1.553047e+01    1.936875e+00
  1.554634e+01    1.928037e+00
  1.556222e+01    1.919197e+00
  1.557809e+01    1.869697e+00
  1.559397e+01    1.839419e+00
  1.560985e+01    1.804881e+00
  1.562572e+01    1.770719e+00
  1.564160e+01    1.768827e+00
  1.565747e+01    1.763073e+00
  1.567335e+01    1.739819e+00
  1.568922e+01    1.730048e+00
  1.570510e+01    1.744223e+00
  1.572097e+01    1.759421e+00
  1.573685e+01    1.702744e+00
  1.575273e+01    1.748815e+00
  1.576860e+01    1.715947e+00
  1.578448e+01    1.711332e+00
  1.580035e+01    1.706549e+00
  1.581623e+01    1.695465e+00
  1.583210e+01    1.678149e+00
  1.584798e+01    1.661337e+00
  1.586385e+01    1.640494e+00
  1.587973e+01    1.639705e+00
  1.589561e+01    1.676389e+00
  1.591148e+01    1.667521e+00
  1.592736e+01    1.627923e+00
  1.594323e+01    1.622121e+00
  1.595911e+01    1.622024e+00
  1.597498e+01    1.616511e+00
  1.599086e+01    1.606436e+00
  1.600673e+01    1.591459e+00
  1.602261e+01    1.608436e+00
  1.603849e+01    1.635893e+00
  1.605436e+01    1.605590e+00
  1.607024e+01    1.601969e+00
  1.608611e+01    1.600314e+00
  1.610199e+01    1.624074e+00
  1.611786e+01    1.591664e+00
  1.613374e+01    1.578679e+00
  1.614961e+01    1.579167e+00
  1.616549e+01    1.543669e+00
  1.618137e+01    1.542960e+00
  1.619724e+01    1.588572e+00
  1.621312e+01    1.611041e+00
  1.622899e+01    1.566752e+00
  1.624487e+01    1.551733e+00
  1.626074e+01    1.540148e+00
  1.627662e+01    1.539528e+00
  1.629250e+01    1.560275e+00
  1.630837e+01    1.563418e+00
  1.632425e+01    1.546762e+00
  1.634012e+01    1.551566e+00
  1.635600e+01    1.578243e+00
  1.637187e+01    1.546492e+00
  1.638775e+01    1.536633e+00
  1.640362e+01    1.512167e+00
  1.641950e+01    1.544537e+00
  1.643538e+01    1.540952e+00
  1.645125e+01    1.512091e+00
  1.646713e+01    1.530928e+00
  1.648300e+01    1.539351e+00
  1.649888e+01    1.540435e+00
  1.651475e+01    1.543272e+00
  1.653063e+01    1.492714e+00
  1.654650e+01    1.481101e+00
  1.656238e+01    1.513647e+00
  1.657826e+01    1.521922e+00
  1.659413e+01    1.510452e+00
  1.661001e+01    1.488165e+00
  1.662588e+01    1.513632e+00
  1.664176e+01    1.511947e+00
  1.665763e+01    1.516621e+00
  1.667351e+01    1.489102e+00
  1.668938e+01    1.486316e+00
  1.670526e+01    1.464749e+00
  1.672114e+01    1.456774e+00
  1.673701e+01    1.472133e+00
  1.675289e+01    1.470427e+00
  1.676876e+01    1.440259e+00
  1.678464e+01    1.464851e+00
  1.680051e+01    1.488409e+00
  1.681639e+01    1.471797e+00
  1.683226e+01    1.485054e+00
  1.684814e+01    1.469561e+00
  1.686402e+01    1.451562e+00
  1.687989e+01    1.437381e+00
  1.689577e+01    1.477552e+00
  1.691164e+01    1.483789e+00
  1.692752e+01    1.458865e+00
  1.694339e+01    1.426167e+00
  1.695927e+01    1.411011e+00
  1.697514e+01    1.416263e+00
  1.699102e+01    1.415603e+00
  1.700690e+01    1.430298e+00
  1.702277e+01    1.452439e+00
  1.703865e+01    1.450355e+00
  1.705452e+01    1.447341e+00
  1.707040e+01    1.431852e+00
  1.708627e+01    1.425901e+00
  1.710215e+01    1.427088e+00
  1.711802e+01    1.428694e+00
  1.713390e+01    1.420360e+00
  1.714978e+01    1.440531e+00
  1.716565e+01    1.417507e+00
  1.718153e+01    1.409986e+00
  1.719740e+01    1.419728e+00
  1.721328e+01    1.411732e+00
  1.722915e+01    1.437750e+00
  1.724503e+01    1.449089e+00
  1.726091e+01    1.419769e+00
  1.727678e+01    1.389483e+00
  1.729266e+01    1.411248e+00
  1.730853e+01    1.412919e+00
  1.732441e+01    1.398858e+00
  1.734028e+01    1.391863e+00
  1.735616e+01    1.369015e+00
  1.737203e+01    1.383055e+00
  1.738791e+01    1.401148e+00
  1.740379e+01    1.410037e+00
  1.741966e+01    1.387789e+00
  1.743554e+01    1.342353e+00
  1.745141e+01    1.353356e+00
  1.746729e+01    1.374480e+00
  1.748316e+01    1.349781e+00
  1.749904e+01    1.366722e+00
  1.751491e+01    1.397207e+00
  1.753079e+01    1.389732e+00
  1.754667e+01    1.364023e+00
  1.756254e+01    1.381295e+00
  1.757842e+01    1.398269e+00
  1.759429e+01    1.377911e+00
  1.761017e+01    1.389275e+00
  1.762604e+01    1.378573e+00
  1.764192e+01    1.353747e+00
  1.765779e+01    1.362967e+00
  1.767367e+01    1.379654e+00
  1.768955e+01    1.373069e+00
  1.770542e+01    1.358339e+00
  1.772130e+01    1.326596e+00
  1.773717e+01    1.316747e+00
  1.775305e+01    1.333201e+00
  1.776892e+01    1.351884e+00
  1.778480e+01    1.342750e+00
  1.780067e+01    1.313248e+00
  1.781655e+01    1.348250e+00
  1.783243e+01    1.355028e+00
  1.784830e+01    1.352519e+00
  1.786418e+01    1.351813e+00
  1.788005e+01    1.309027e+00
  1.789593e+01    1.323362e+00
  1.791180e+01    1.301528e+00
  1.792768e+01    1.320735e+00
  1.794355e+01    1.322256e+00
  1.795943e+01    1.314120e+00
  1.797531e+01    1.291381e+00
  1.799118e+01    1.274157e+00
  1.800706e+01    1.286526e+00
  1.802293e+01    1.325330e+00
  1.803881e+01    1.330925e+00
  1.805468e+01    1.297395e+00
  1.807056e+01    1.282179e+00
  1.808643e+01    1.278885e+00
  1.810231e+01    1.296515e+00
  1.811819e+01    1.296647e+00
  1.813406e+01    1.303605e+00
  1.814994e+01    1.307360e+00
  1.816581e+01    1.309422e+00
  1.818169e+01    1.308344e+00
  1.819756e+01    1.318153e+00
  1.821344e+01    1.279473e+00
  1.822932e+01    1.258602e+00
  1.824519e+01    1.252612e+00
  1.826107e+01    1.255123e+00
  1.827694e+01    1.256145e+00
  1.829282e+01    1.288275e+00
  1.830869e+01    1.284006e+00
  1.832457e+01    1.269927e+00
  1.834044e+01    1.285948e+00
  1.835632e+01    1.270081e+00
  1.837220e+01    1.278663e+00
  1.838807e+01    1.275854e+00
  1.840395e+01    1.265240e+00
  1.841982e+01    1.265243e+00
  1.843570e+01    1.288803e+00
  1.845157e+01    1.272490e+00
  1.846745e+01    1.262190e+00
  1.848332e+01    1.272382e+00
  1.849920e+01    1.250405e+00
  1.851508e+01    1.247597e+00
  1.853095e+01    1.260873e+00
  1.854683e+01    1.251435e+00
  1.856270e+01    1.266008e+00
  1.857858e+01    1.248129e+00
  1.859445e+01    1.256602e+00
  1.861033e+01    1.251505e+00
  1.862620e+01    1.263243e+00
  1.864208e+01    1.252464e+00
  1.865796e+01    1.265698e+00
  1.867383e+01    1.258861e+00
  1.868971e+01    1.261045e+00
  1.870558e+01    1.241518e+00
  1.872146e+01    1.217512e+00
  1.873733e+01    1.234487e+00
  1.875321e+01    1.230151e+00
  1.876908e+01    1.225946e+00
  1.878496e+01    1.223360e+00
  1.880084e+01    1.221891e+00
  1.881671e+01    1.217855e+00
  1.883259e+01    1.224054e+00
  1.884846e+01    1.231512e+00
  1.886434e+01    1.219097e+00
  1.888021e+01    1.221987e+00
  1.889609e+01    1.241823e+00
  1.891196e+01    1.230070e+00
  1.892784e+01    1.183820e+00
  1.894372e+01    1.206132e+00
  1.895959e+01    1.230066e+00
  1.897547e+01    1.210500e+00
  1.899134e+01    1.203804e+00
  1.900722e+01    1.190921e+00
  1.902309e+01    1.220162e+00
  1.903897e+01    1.209651e+00
  1.905484e+01    1.200216e+00
  1.907072e+01    1.197296e+00
  1.908660e+01    1.202592e+00
  1.910247e+01    1.184689e+00
  1.911835e+01    1.220160e+00
  1.913422e+01    1.207922e+00
  1.915010e+01    1.199867e+00
  1.916597e+01    1.209160e+00
  1.918185e+01    1.184758e+00
  1.919773e+01    1.198149e+00
  1.921360e+01    1.186684e+00
  1.922948e+01    1.183854e+00
  1.924535e+01    1.205644e+00
  1.926123e+01    1.192295e+00
  1.927710e+01    1.181831e+00
  1.929298e+01    1.165498e+00
  1.930885e+01    1.154453e+00
  1.932473e+01    1.174488e+00
  1.934061e+01    1.155856e+00
  1.935648e+01    1.181007e+00
  1.937236e+01    1.187778e+00
  1.938823e+01    1.183354e+00
  1.940411e+01    1.182152e+00
  1.941998e+01    1.169869e+00
  1.943586e+01    1.171526e+00
  1.945173e+01    1.169222e+00
  1.946761e+01    1.164398e+00
  1.948349e+01    1.179860e+00
  1.949936e+01    1.164312e+00
  1.951524e+01    1.155310e+00
  1.953111e+01    1.160285e+00
  1.954699e+01    1.158281e+00
  1.956286e+01    1.159902e+00
  1.957874e+01    1.126410e+00
  1.959461e+01    1.168535e+00
  1.961049e+01    1.158065e+00
  1.962637e+01    1.156691e+00
  1.964224e+01    1.165562e+00
  1.965812e+01    1.146446e+00
  1.967399e+01    1.141353e+00
  1.968987e+01    1.160253e+00
  1.970574e+01    1.154572e+00
  1.972162e+01    1.135299e+00
  1.973749e+01    1.134229e+00
  1.975337e+01    1.135744e+00
  1.976925e+01    1.144670e+00
  1.978512e+01    1.153625e+00
  1.980100e+01    1.146126e+00
  1.981687e+01    1.139365e+00
  1.983275e+01    1.149140e+00
  1.984862e+01    1.126945e+00
  1.986450e+01    1.156626e+00
  1.988037e+01    1.142411e+00
  1.989625e+01    1.126867e+00
  1.991213e+01    1.152180e+00
  1.992800e+01    1.142835e+00
  1.994388e+01    1.148873e+00
  1.995975e+01    1.134963e+00
  1.997563e+01    1.144509e+00
  1.999150e+01    1.127795e+00
  2.000738e+01    1.120346e+00
  2.002325e+01    1.100825e+00
  2.003913e+01    1.104454e+00
  2.005501e+01    1.110902e+00
  2.007088e+01    1.125935e+00
  2.008676e+01    1.097613e+00
  2.010263e+01    1.099557e+00
  2.011851e+01    1.094210e+00
  2.013438e+01    1.097948e+00
  2.015026e+01    1.122674e+00
  2.016614e+01    1.125481e+00
  2.018201e+01    1.115969e+00
  2.019789e+01    1.089569e+00
  2.021376e+01    1.109093e+00
  2.022964e+01    1.106260e+00
  2.024551e+01    1.089698e+00
  2.026139e+01    1.099141e+00
  2.027726e+01    1.107542e+00
  2.029314e+01    1.107990e+00
  2.030902e+01    1.104446e+00
  2.032489e+01    1.108188e+00
  2.034077e+01    1.132667e+00
  2.035664e+01    1.117635e+00
  2.037252e+01    1.103724e+00
  2.038839e+01    1.094268e+00
  2.040427e+01    1.101600e+00
  2.042014e+01    1.112667e+00
  2.043602e+01    1.110587e+00
  2.045190e+01    1.104847e+00
  2.046777e+01    1.071982e+00
  2.048365e+01    1.090086e+00
  2.049952e+01    1.096824e+00
  2.051540e+01    1.092375e+00
  2.053127e+01    1.097793e+00
  2.054715e+01    1.091102e+00
  2.056302e+01    1.094397e+00
  2.057890e+01    1.095421e+00
  2.059478e+01    1.084114e+00
  2.061065e+01    1.094900e+00
  2.062653e+01    1.079903e+00
  2.064240e+01    1.094394e+00
  2.065828e+01    1.066523e+00
  2.067415e+01    1.073491e+00
  2.069003e+01    1.068918e+00
  2.070590e+01    1.067322e+00
  2.072178e+01    1.094072e+00
  2.073766e+01    1.099854e+00
  2.075353e+01    1.087059e+00
  2.076941e+01    1.078706e+00
  2.078528e+01    1.084310e+00
  2.080116e+01    1.083915e+00
  2.081703e+01    1.103302e+00
  2.083291e+01    1.070662e+00
  2.084878e+01    1.070985e+00
  2.086466e+01    1.100466e+00
  2.088054e+01    1.098398e+00
  2.089641e+01    1.099757e+00
  2.091229e+01    1.105890e+00
  2.092816e+01    1.081021e+00
  2.094404e+01    1.065850e+00
  2.095991e+01    1.072612e+00
  2.097579e+01    1.059297e+00
  2.099166e+01    1.076238e+00
  2.100754e+01    1.091940e+00
  2.102342e+01    1.088244e+00
  2.103929e+01    1.087320e+00
  2.105517e+01    1.077250e+00
  2.107104e+01    1.073717e+00
  2.108692e+01    1.067677e+00
  2.110279e+01    1.092157e+00
  2.111867e+01    1.087312e+00
  2.113455e+01    1.116342e+00
  2.115042e+01    1.118680e+00
  2.116630e+01    1.099880e+00
  2.118217e+01    1.071075e+00
  2.119805e+01    1.082942e+00
  2.121392e+01    1.116874e+00
  2.122980e+01    1.109026e+00
  2.124567e+01    1.121750e+00
  2.126155e+01    1.094103e+00
  2.127743e+01    1.117234e+00
  2.129330e+01    1.118493e+00
  2.130918e+01    1.113001e+00
  2.132505e+01    1.124071e+00
  2.134093e+01    1.147684e+00
  2.135680e+01    1.119054e+00
  2.137268e+01    1.152202e+00
  2.138855e+01    1.186562e+00
  2.140443e+01    1.174175e+00
  2.142031e+01    1.187726e+00
  2.143618e+01    1.188269e+00
  2.145206e+01    1.211899e+00
  2.146793e+01    1.256948e+00
  2.148381e+01    1.270817e+00
  2.149968e+01    1.292602e+00
  2.151556e+01    1.342628e+00
  2.153143e+01    1.355947e+00
  2.154731e+01    1.401543e+00
  2.156319e+01    1.424122e+00
  2.157906e+01    1.471458e+00
  2.159494e+01    1.549253e+00
  2.161081e+01    1.626201e+00
  2.162669e+01    1.740885e+00
  2.164256e+01    1.858551e+00
  2.165844e+01    1.977830e+00
  2.167431e+01    2.172924e+00
  2.169019e+01    2.381668e+00
  2.170607e+01    2.662209e+00
  2.172194e+01    3.003273e+00
  2.173782e+01    3.440714e+00
  2.175369e+01    3.920987e+00
  2.176957e+01    4.474599e+00
  2.178544e+01    5.042041e+00
  2.180132e+01    5.761052e+00
  2.181719e+01    6.452650e+00
  2.183307e+01    7.145420e+00
  2.184895e+01    7.730161e+00
  2.186482e+01    8.342759e+00
  2.188070e+01    8.912087e+00
  2.189657e+01    9.091375e+00
  2.191245e+01    8.813272e+00
  2.192832e+01    8.321907e+00
  2.194420e+01    7.461517e+00
  2.196007e+01    6.454995e+00
  2.197595e+01    5.555366e+00
  2.199183e+01    4.730107e+00
  2.200770e+01    3.979991e+00
  2.202358e+01    3.431351e+00
  2.203945e+01    2.998452e+00
  2.205533e+01    2.657243e+00
  2.207120e+01    2.446473e+00
  2.208708e+01    2.198019e+00
  2.210296e+01    1.971559e+00
  2.211883e+01    1.831384e+00
  2.213471e+01    1.729244e+00
  2.215058e+01    1.641004e+00
  2.216646e+01    1.557670e+00
  2.218233e+01    1.488365e+00
  2.219821e+01    1.385967e+00
  2.221408e+01    1.361860e+00
  2.222996e+01    1.321059e+00
  2.224584e+01    1.283448e+00
  2.226171e+01    1.247815e+00
  2.227759e+01    1.199170e+00
  2.229346e+01    1.170251e+00
  2.230934e+01    1.174314e+00
  2.232521e+01    1.171049e+00
  2.234109e+01    1.123006e+00
  2.235696e+01    1.102208e+00
  2.237284e+01    1.107351e+00
  2.238872e+01    1.080049e+00
  2.240459e+01    1.043540e+00
  2.242047e+01    1.047872e+00
  2.243634e+01    1.051530e+00
  2.245222e+01    1.035481e+00
  2.246809e+01    1.031363e+00
  2.248397e+01    1.028794e+00
  2.249984e+01    1.031227e+00
  2.251572e+01    1.019165e+00
  2.253160e+01    1.012555e+00
  2.254747e+01    9.995370e-01
  2.256335e+01    9.865624e-01
  2.257922e+01    1.002838e+00
  2.259510e+01    9.970432e-01
  2.261097e+01    9.660689e-01
  2.262685e+01    9.670010e-01
  2.264272e+01    9.526737e-01
  2.265860e+01    9.628894e-01
  2.267448e+01    9.524253e-01
  2.269035e+01    9.507459e-01
  2.270623e+01    9.407462e-01
  2.272210e+01    9.424992e-01
  2.273798e+01    9.805458e-01
  2.275385e+01    9.626025e-01
  2.276973e+01    9.401976e-01
  2.278560e+01    9.499330e-01
  2.280148e+01    9.763588e-01
  2.281736e+01    9.675821e-01
  2.283323e+01    9.552156e-01
  2.284911e+01    9.322845e-01
  2.286498e+01    9.054402e-01
  2.288086e+01    9.176398e-01
  2.289673e+01    9.146853e-01
  2.291261e+01    9.316941e-01
  2.292848e+01    9.266831e-01
  2.294436e+01    9.035851e-01
  2.296024e+01    9.047259e-01
  2.297611e+01    9.075603e-01
  2.299199e+01    9.084868e-01
  2.300786e+01    8.942971e-01
  2.302374e+01    9.055629e-01
  2.303961e+01    8.952621e-01
  2.305549e+01    9.002774e-01
  2.307137e+01    9.076689e-01
  2.308724e+01    8.790511e-01
  2.310312e+01    8.898187e-01
  2.311899e+01    8.779883e-01
  2.313487e+01    8.832570e-01
  2.315074e+01    8.759139e-01
  2.316662e+01    8.813665e-01
  2.318249e+01    8.894050e-01
  2.319837e+01    8.809619e-01
  2.321425e+01    8.915738e-01
  2.323012e+01    8.921746e-01
  2.324600e+01    8.822194e-01
  2.326187e+01    8.899050e-01
  2.327775e+01    8.866666e-01
  2.329362e+01    8.728385e-01
  2.330950e+01    8.527334e-01
  2.332537e+01    8.829717e-01
  2.334125e+01    8.705113e-01
  2.335713e+01    8.429028e-01
  2.337300e+01    8.478605e-01
  2.338888e+01    8.396206e-01
  2.340475e+01    8.469571e-01
  2.342063e+01    8.649912e-01
  2.343650e+01    8.541815e-01
  2.345238e+01    8.627067e-01
  2.346825e+01    8.655533e-01
  2.348413e+01    8.605725e-01
  2.350001e+01    8.497023e-01
  2.351588e+01    8.451083e-01
  2.353176e+01    8.451527e-01
  2.354763e+01    8.412517e-01
  2.356351e+01    8.345338e-01
  2.357938e+01    8.393933e-01
  2.359526e+01    8.559597e-01
  2.361113e+01    8.381258e-01
  2.362701e+01    8.357021e-01
  2.364289e+01    8.471350e-01
  2.365876e+01    8.352535e-01
  2.367464e+01    8.363764e-01
  2.369051e+01    8.250644e-01
  2.370639e+01    8.144370e-01
  2.372226e+01    8.020994e-01
  2.373814e+01    8.179507e-01
  2.375401e+01    8.242605e-01
  2.376989e+01    8.339096e-01
  2.378577e+01    8.272793e-01
  2.380164e+01    8.163264e-01
  2.381752e+01    8.237305e-01
  2.383339e+01    8.106973e-01
  2.384927e+01    8.174351e-01
  2.386514e+01    8.098114e-01
  2.388102e+01    7.989336e-01
  2.389689e+01    7.849213e-01
  2.391277e+01    7.856567e-01
  2.392865e+01    7.965012e-01
  2.394452e+01    7.858840e-01
  2.396040e+01    7.917733e-01
  2.397627e+01    8.098634e-01
  2.399215e+01    7.789397e-01
  2.400802e+01    7.905585e-01
  2.402390e+01    7.773457e-01
  2.403978e+01    7.784534e-01
  2.405565e+01    7.810425e-01
  2.407153e+01    7.928257e-01
  2.408740e+01    7.981258e-01
  2.410328e+01    7.751037e-01
  2.411915e+01    7.739650e-01
  2.413503e+01    7.926832e-01
  2.415090e+01    7.952165e-01
  2.416678e+01    7.728183e-01
  2.418266e+01    7.566348e-01
  2.419853e+01    7.876034e-01
  2.421441e+01    7.844530e-01
  2.423028e+01    7.788962e-01
  2.424616e+01    7.691633e-01
  2.426203e+01    7.774296e-01
  2.427791e+01    7.848380e-01
  2.429378e+01    7.963253e-01
  2.430966e+01    7.984354e-01
  2.432554e+01    8.046719e-01
  2.434141e+01    7.958612e-01
  2.435729e+01    7.785289e-01
  2.437316e+01    7.620043e-01
  2.438904e+01    7.710699e-01
  2.440491e+01    7.976298e-01
  2.442079e+01    8.087516e-01
  2.443666e+01    8.037974e-01
  2.445254e+01    7.975745e-01
  2.446842e+01    7.798244e-01
  2.448429e+01    7.872882e-01
  2.450017e+01    7.833517e-01
  2.451604e+01    8.032382e-01
  2.453192e+01    7.830492e-01
  2.454779e+01    7.855566e-01
  2.456367e+01    7.980244e-01
  2.457954e+01    7.918550e-01
  2.459542e+01    7.950814e-01
  2.461130e+01    7.899794e-01
  2.462717e+01    8.130702e-01
  2.464305e+01    8.072780e-01
  2.465892e+01    8.055575e-01
  2.467480e+01    7.893195e-01
  2.469067e+01    7.898414e-01
  2.470655e+01    7.830999e-01
  2.472242e+01    8.042599e-01
  2.473830e+01    8.008062e-01
  2.475418e+01    7.940772e-01
  2.477005e+01    7.923648e-01
  2.478593e+01    7.956719e-01
  2.480180e+01    7.810582e-01
  2.481768e+01    7.912278e-01
  2.483355e+01    8.024730e-01
  2.484943e+01    7.873387e-01
  2.486530e+01    7.953126e-01
  2.488118e+01    7.928150e-01
  2.489706e+01    8.060328e-01
  2.491293e+01    8.022972e-01
  2.492881e+01    7.948118e-01
  2.494468e+01    8.015916e-01
  2.496056e+01    8.097419e-01
  2.497643e+01    7.944270e-01
  2.499231e+01    7.971815e-01
  2.500819e+01    8.187004e-01
  2.502406e+01    8.058257e-01
  2.503994e+01    8.145679e-01
  2.505581e+01    8.143771e-01
  2.507169e+01    8.067200e-01
  2.508756e+01    8.113135e-01
  2.510344e+01    8.223678e-01
  2.511931e+01    8.295714e-01
  2.513519e+01    8.209836e-01
  2.515107e+01    8.165796e-01
  2.516694e+01    8.339130e-01
  2.518282e+01    8.552353e-01
  2.519869e+01    8.521383e-01
  2.521457e+01    8.620619e-01
  2.523044e+01    8.432378e-01
  2.524632e+01    8.414772e-01
  2.526219e+01    8.364172e-01
  2.527807e+01    8.588663e-01
  2.529395e+01    8.659255e-01
  2.530982e+01    8.636262e-01
  2.532570e+01    8.783454e-01
  2.534157e+01    8.715537e-01
  2.535745e+01    8.854446e-01
  2.537332e+01    8.932500e-01
  2.538920e+01    8.988986e-01
  2.540507e+01    9.282461e-01
  2.542095e+01    9.288546e-01
  2.543683e+01    9.255613e-01
  2.545270e+01    9.253741e-01
  2.546858e+01    9.677046e-01
  2.548445e+01    9.835042e-01
  2.550033e+01    9.806582e-01
  2.551620e+01    9.888845e-01
  2.553208e+01    1.001288e+00
  2.554795e+01    1.038013e+00
  2.556383e+01    1.053994e+00
  2.557971e+01    1.068696e+00
  2.559558e+01    1.108527e+00
  2.561146e+01    1.143187e+00
  2.562733e+01    1.205242e+00
  2.564321e+01    1.239879e+00
  2.565908e+01    1.293249e+00
  2.567496e+01    1.376736e+00
  2.569083e+01    1.447044e+00
  2.570671e+01    1.553119e+00
  2.572259e+01    1.682284e+00
  2.573846e+01    1.801583e+00
  2.575434e+01    1.988017e+00
  2.577021e+01    2.198526e+00
  2.578609e+01    2.437017e+00
  2.580196e+01    2.775520e+00
  2.581784e+01    3.167317e+00
  2.583371e+01    3.590499e+00
  2.584959e+01    4.111194e+00
  2.586547e+01    4.692834e+00
  2.588134e+01    5.276901e+00
  2.589722e+01    5.931022e+00
  2.591309e+01    6.485758e+00
  2.592897e+01    6.959583e+00
  2.594484e+01    7.295646e+00
  2.596072e+01    7.325134e+00
  2.597660e+01    7.167350e+00
  2.599247e+01    6.783587e+00
  2.600835e+01    6.180990e+00
  2.602422e+01    5.404031e+00
  2.604010e+01    4.656688e+00
  2.605597e+01    3.973841e+00
  2.607185e+01    3.372438e+00
  2.608772e+01    2.927311e+00
  2.610360e+01    2.569145e+00
  2.611948e+01    2.285596e+00
  2.613535e+01    2.069931e+00
  2.615123e+01    1.871107e+00
  2.616710e+01    1.725212e+00
  2.618298e+01    1.567269e+00
  2.619885e+01    1.462524e+00
  2.621473e+01    1.410497e+00
  2.623060e+01    1.324181e+00
  2.624648e+01    1.261918e+00
  2.626236e+01    1.210583e+00
  2.627823e+01    1.166909e+00
  2.629411e+01    1.142575e+00
  2.630998e+01    1.108591e+00
  2.632586e+01    1.069196e+00
  2.634173e+01    1.025519e+00
  2.635761e+01    1.019200e+00
  2.637348e+01    9.888446e-01
  2.638936e+01    9.845512e-01
  2.640524e+01    9.714419e-01
  2.642111e+01    9.448605e-01
  2.643699e+01    9.413518e-01
  2.645286e+01    9.258650e-01
  2.646874e+01    9.309112e-01
  2.648461e+01    9.568673e-01
  2.650049e+01    9.389367e-01
  2.651636e+01    9.379590e-01
  2.653224e+01    9.106379e-01
  2.654812e+01    8.946749e-01
  2.656399e+01    8.974221e-01
  2.657987e+01    8.955871e-01
  2.659574e+01    8.861676e-01
  2.661162e+01    9.192081e-01
  2.662749e+01    8.957839e-01
  2.664337e+01    8.767141e-01
  2.665924e+01    8.711291e-01
  2.667512e+01    8.760314e-01
  2.669100e+01    8.585556e-01
  2.670687e+01    8.843359e-01
  2.672275e+01    8.760332e-01
  2.673862e+01    8.904778e-01
  2.675450e+01    8.981985e-01
  2.677037e+01    8.893063e-01
  2.678625e+01    8.775098e-01
  2.680212e+01    8.764174e-01
  2.681800e+01    8.833662e-01
  2.683388e+01    9.076578e-01
  2.684975e+01    8.969606e-01
  2.686563e+01    8.933646e-01
  2.688150e+01    8.982947e-01
  2.689738e+01    8.945006e-01
  2.691325e+01    9.574993e-01
  2.692913e+01    9.368675e-01
  2.694501e+01    9.348189e-01
  2.696088e+01    9.642568e-01
  2.697676e+01    9.864205e-01
  2.699263e+01    1.024691e+00
  2.700851e+01    1.037750e+00
  2.702438e+01    1.057990e+00
  2.704026e+01    1.129000e+00
  2.705613e+01    1.177051e+00
  2.707201e+01    1.247806e+00
  2.708789e+01    1.346409e+00
  2.710376e+01    1.441342e+00
  2.711964e+01    1.538225e+00
  2.713551e+01    1.674751e+00
  2.715139e+01    1.805548e+00
  2.716726e+01    1.929665e+00
  2.718314e+01    2.065555e+00
  2.719901e+01    2.160631e+00
  2.721489e+01    2.220445e+00
  2.723077e+01    2.215636e+00
  2.724664e+01    2.134222e+00
  2.726252e+01    1.996690e+00
  2.727839e+01    1.810350e+00
  2.729427e+01    1.645989e+00
  2.731014e+01    1.513139e+00
  2.732602e+01    1.388249e+00
  2.734189e+01    1.294611e+00
  2.735777e+01    1.208490e+00
  2.737365e+01    1.156338e+00
  2.738952e+01    1.078214e+00
  2.740540e+01    1.033183e+00
  2.742127e+01    1.028224e+00
  2.743715e+01    9.855500e-01
  2.745302e+01    9.503847e-01
  2.746890e+01    9.386769e-01
  2.748477e+01    9.466731e-01
  2.750065e+01    9.139296e-01
  2.751653e+01    8.901491e-01
  2.753240e+01    8.667657e-01
  2.754828e+01    8.593678e-01
  2.756415e+01    8.581949e-01
  2.758003e+01    8.593254e-01
  2.759590e+01    8.413017e-01
  2.761178e+01    8.207552e-01
  2.762765e+01    8.188667e-01
  2.764353e+01    8.176604e-01
  2.765941e+01    8.178197e-01
  2.767528e+01    8.206809e-01
  2.769116e+01    8.233963e-01
  2.770703e+01    8.186021e-01
  2.772291e+01    8.011351e-01
  2.773878e+01    8.025357e-01
  2.775466e+01    8.250021e-01
  2.777054e+01    8.069607e-01
  2.778641e+01    8.026568e-01
  2.780229e+01    7.709448e-01
  2.781816e+01    7.891104e-01
  2.783404e+01    8.126540e-01
  2.784991e+01    8.009988e-01
  2.786579e+01    8.228872e-01
  2.788166e+01    7.960551e-01
  2.789754e+01    7.995177e-01
  2.791342e+01    7.919371e-01
  2.792929e+01    7.833679e-01
  2.794517e+01    8.001661e-01
  2.796104e+01    8.096626e-01
  2.797692e+01    8.066223e-01
  2.799279e+01    7.932992e-01
  2.800867e+01    7.707101e-01
  2.802454e+01    7.833276e-01
  2.804042e+01    7.914716e-01
  2.805630e+01    7.829545e-01
  2.807217e+01    7.796703e-01
  2.808805e+01    7.729017e-01
  2.810392e+01    7.814096e-01
  2.811980e+01    7.917978e-01
  2.813567e+01    7.986366e-01
  2.815155e+01    7.785402e-01
  2.816742e+01    7.726647e-01
  2.818330e+01    7.623231e-01
  2.819918e+01    7.651762e-01
  2.821505e+01    7.583107e-01
  2.823093e+01    7.736601e-01
  2.824680e+01    7.766157e-01
  2.826268e+01    7.900096e-01
  2.827855e+01    7.501795e-01
  2.829443e+01    7.654108e-01
  2.831030e+01    7.803913e-01
  2.832618e+01    7.779667e-01
  2.834206e+01    7.550037e-01
  2.835793e+01    7.739689e-01
  2.837381e+01    7.654147e-01
  2.838968e+01    7.556800e-01
  2.840556e+01    7.673852e-01
  2.842143e+01    7.581161e-01
  2.843731e+01    7.537538e-01
  2.845318e+01    7.707049e-01
  2.846906e+01    7.791620e-01
  2.848494e+01    7.622184e-01
  2.850081e+01    7.476323e-01
  2.851669e+01    7.520556e-01
  2.853256e+01    7.824084e-01
  2.854844e+01    7.680937e-01
  2.856431e+01    7.510819e-01
  2.858019e+01    7.442791e-01
  2.859606e+01    7.677073e-01
  2.861194e+01    7.649511e-01
  2.862782e+01    7.645865e-01
  2.864369e+01    7.640064e-01
  2.865957e+01    7.519090e-01
  2.867544e+01    7.429948e-01
  2.869132e+01    7.207790e-01
  2.870719e+01    7.228501e-01
  2.872307e+01    7.395055e-01
  2.873895e+01    7.596449e-01
  2.875482e+01    7.485179e-01
  2.877070e+01    7.241228e-01
  2.878657e+01    7.540739e-01
  2.880245e+01    7.454562e-01
  2.881832e+01    7.349046e-01
  2.883420e+01    7.203587e-01
  2.885007e+01    7.421663e-01
  2.886595e+01    7.328776e-01
  2.888183e+01    7.487465e-01
  2.889770e+01    7.448395e-01
  2.891358e+01    7.387149e-01
  2.892945e+01    7.359530e-01
  2.894533e+01    7.317427e-01
  2.896120e+01    7.396756e-01
  2.897708e+01    7.560375e-01
  2.899295e+01    7.404122e-01
  2.900883e+01    7.294961e-01
  2.902471e+01    7.187228e-01
  2.904058e+01    7.249771e-01
  2.905646e+01    7.430475e-01
  2.907233e+01    7.293150e-01
  2.908821e+01    7.411152e-01
  2.910408e+01    7.322466e-01
  2.911996e+01    7.186229e-01
  2.913583e+01    7.351279e-01
  2.915171e+01    7.352917e-01
  2.916759e+01    7.255479e-01
  2.918346e+01    7.239293e-01
  2.919934e+01    7.292890e-01
  2.921521e+01    7.515368e-01
  2.923109e+01    7.414535e-01
  2.924696e+01    7.234315e-01
  2.926284e+01    7.064412e-01
  2.927871e+01    7.165228e-01
  2.929459e+01    7.125306e-01
  2.931047e+01    7.214510e-01
  2.932634e+01    7.210010e-01
  2.934222e+01    7.365912e-01
  2.935809e+01    7.227573e-01
  2.937397e+01    7.079067e-01
  2.938984e+01    7.141741e-01
  2.940572e+01    7.206990e-01
  2.942159e+01    7.378585e-01
  2.943747e+01    7.172895e-01
  2.945335e+01    7.243329e-01
  2.946922e+01    7.454944e-01
  2.948510e+01    7.299389e-01
  2.950097e+01    7.195261e-01
  2.951685e+01    7.226892e-01
  2.953272e+01    7.105764e-01
  2.954860e+01    7.177925e-01
  2.956447e+01    7.415673e-01
  2.958035e+01    7.408956e-01
  2.959623e+01    7.355171e-01
  2.961210e+01    7.277796e-01
  2.962798e+01    7.175177e-01
  2.964385e+01    7.315874e-01
  2.965973e+01    7.213203e-01
  2.967560e+01    7.132950e-01
  2.969148e+01    7.159312e-01
  2.970736e+01    7.196372e-01
  2.972323e+01    7.149439e-01
  2.973911e+01    6.994782e-01
  2.975498e+01    7.153763e-01
  2.977086e+01    7.196655e-01
  2.978673e+01    7.210550e-01
  2.980261e+01    7.196687e-01
  2.981848e+01    7.216080e-01
  2.983436e+01    7.048935e-01
  2.985024e+01    7.231603e-01
  2.986611e+01    7.153065e-01
  2.988199e+01    7.249252e-01
  2.989786e+01    7.202954e-01
  2.991374e+01    7.288096e-01
  2.992961e+01    7.342880e-01
  2.994549e+01    7.207230e-01
  2.996136e+01    7.248605e-01
  2.997724e+01    7.188542e-01
  2.999312e+01    7.162481e-01
  3.000899e+01    7.363819e-01
  3.002487e+01    7.338206e-01
  3.004074e+01    7.347410e-01
  3.005662e+01    7.463674e-01
  3.007249e+01    7.490815e-01
  3.008837e+01    7.600498e-01
  3.010424e+01    7.393967e-01
  3.012012e+01    7.081131e-01
  3.013600e+01    7.378985e-01
  3.015187e+01    7.279169e-01
  3.016775e+01    7.092527e-01
  3.018362e+01    7.225994e-01
  3.019950e+01    7.253866e-01
  3.021537e+01    7.241784e-01
  3.023125e+01    7.232822e-01
  3.024712e+01    7.197057e-01
  3.026300e+01    7.129445e-01
  3.027888e+01    7.199356e-01
  3.029475e+01    7.200066e-01
  3.031063e+01    7.141910e-01
  3.032650e+01    7.015973e-01
  3.034238e+01    6.912258e-01
  3.035825e+01    7.062201e-01
  3.037413e+01    7.074300e-01
  3.039000e+01    7.182785e-01
  3.040588e+01    7.193207e-01
  3.042176e+01    7.185402e-01
  3.043763e+01    7.218306e-01
  3.045351e+01    7.170517e-01
  3.046938e+01    7.141951e-01
  3.048526e+01    7.251251e-01
  3.050113e+01    7.068648e-01
  3.051701e+01    6.872603e-01
  3.053288e+01    6.931813e-01
  3.054876e+01    7.064760e-01
  3.056464e+01    7.174373e-01
  3.058051e+01    7.259063e-01
  3.059639e+01    7.131552e-01
  3.061226e+01    7.083855e-01
  3.062814e+01    7.091414e-01
  3.064401e+01    7.155852e-01
  3.065989e+01    7.186446e-01
  3.067577e+01    7.157327e-01
  3.069164e+01    7.065744e-01
  3.070752e+01    7.193772e-01
  3.072339e+01    7.278120e-01
  3.073927e+01    6.987439e-01
  3.075514e+01    7.049160e-01
  3.077102e+01    7.208390e-01
  3.078689e+01    7.135156e-01
  3.080277e+01    7.182789e-01
  3.081865e+01    7.116020e-01
  3.083452e+01    7.313616e-01
  3.085040e+01    7.183621e-01
  3.086627e+01    7.150456e-01
  3.088215e+01    7.174466e-01
  3.089802e+01    7.243110e-01
  3.091390e+01    7.226881e-01
  3.092977e+01    7.224635e-01
  3.094565e+01    7.201824e-01
  3.096153e+01    7.103829e-01
  3.097740e+01    7.097815e-01
  3.099328e+01    7.097494e-01
  3.100915e+01    7.350106e-01
  3.102503e+01    7.294272e-01
  3.104090e+01    7.238449e-01
  3.105678e+01    7.340538e-01
  3.107265e+01    7.220387e-01
  3.108853e+01    7.319623e-01
  3.110441e+01    7.283084e-01
  3.112028e+01    7.332281e-01
  3.113616e+01    7.258007e-01
  3.115203e+01    7.052186e-01
  3.116791e+01    7.188751e-01
  3.118378e+01    7.221957e-01
  3.119966e+01    7.226959e-01
  3.121553e+01    7.244727e-01
  3.123141e+01    7.258314e-01
  3.124729e+01    7.275410e-01
  3.126316e+01    7.199444e-01
  3.127904e+01    7.316310e-01
  3.129491e+01    7.285308e-01
  3.131079e+01    7.305236e-01
  3.132666e+01    7.389590e-01
  3.134254e+01    7.545061e-01
  3.135841e+01    7.393262e-01
  3.137429e+01    7.346559e-01
  3.139017e+01    7.425234e-01
  3.140604e+01    7.381402e-01
  3.142192e+01    7.492967e-01
  3.143779e+01    7.584485e-01
  3.145367e+01    7.685937e-01
  3.146954e+01    7.511231e-01
  3.148542e+01    7.561437e-01
  3.150129e+01    7.713416e-01
  3.151717e+01    7.823104e-01
  3.153305e+01    7.820570e-01
  3.154892e+01    8.079710e-01
  3.156480e+01    8.158066e-01
  3.158067e+01    8.056508e-01
  3.159655e+01    7.994673e-01
  3.161242e+01    8.486127e-01
  3.162830e+01    8.361253e-01
  3.164418e+01    8.346854e-01
  3.166005e+01    8.648555e-01
  3.167593e+01    9.311450e-01
  3.169180e+01    9.543279e-01
  3.170768e+01    9.661654e-01
  3.172355e+01    1.027306e+00
  3.173943e+01    1.079832e+00
  3.175530e+01    1.152089e+00
  3.177118e+01    1.204732e+00
  3.178706e+01    1.294467e+00
  3.180293e+01    1.414749e+00
  3.181881e+01    1.587574e+00
  3.183468e+01    1.727464e+00
  3.185056e+01    1.875113e+00
  3.186643e+01    1.977991e+00
  3.188231e+01    2.124372e+00
  3.189818e+01    2.183838e+00
  3.191406e+01    2.170599e+00
  3.192994e+01    2.140869e+00
  3.194581e+01    1.979910e+00
  3.196169e+01    1.851264e+00
  3.197756e+01    1.689254e+00
  3.199344e+01    1.545258e+00
  3.200931e+01    1.411970e+00
  3.202519e+01    1.252377e+00
  3.204106e+01    1.169882e+00
  3.205694e+01    1.103162e+00
  3.207282e+01    1.040758e+00
  3.208869e+01    9.822663e-01
  3.210457e+01    9.592193e-01
  3.212044e+01    9.513302e-01
  3.213632e+01    9.065219e-01
  3.215219e+01    8.684350e-01
  3.216807e+01    8.418708e-01
  3.218394e+01    8.025494e-01
  3.219982e+01    7.760773e-01
  3.221570e+01    7.844685e-01
  3.223157e+01    8.076059e-01
  3.224745e+01    8.044029e-01
  3.226332e+01    7.502218e-01
  3.227920e+01    7.401257e-01
  3.229507e+01    7.448067e-01
  3.231095e+01    7.463054e-01
  3.232682e+01    7.386549e-01
  3.234270e+01    7.421898e-01
  3.235858e+01    7.270464e-01
  3.237445e+01    7.540498e-01
  3.239033e+01    7.375162e-01
  3.240620e+01    7.225019e-01
  3.242208e+01    7.418684e-01
  3.243795e+01    7.541791e-01
  3.245383e+01    7.241930e-01
  3.246970e+01    7.156704e-01
  3.248558e+01    7.438179e-01
  3.250146e+01    7.423043e-01
  3.251733e+01    7.226388e-01
  3.253321e+01    7.017705e-01
  3.254908e+01    7.200017e-01
