# == pyFAI calibration ==
# Distance Sample to Detector: 0.3999999939076516 m
# PONI: 9.750e-02, 1.135e-01 m
# Rotations: -0.000175 0.000000 -0.000000 rad
# 
# == Fit2d calibration ==
# Distance Sample-beamCenter: 400.000 mm
# Center: x=1514.000, y=1300.000 pix
# Tilt: 0.010 deg  TiltPlanRot: 0.010 deg
# 
# Detector Detector	 Spline= None	 PixelSize= 7.500e-05, 7.500e-05 m
#    Detector has a mask: False 
#    Detector has a dark current: False 
#    detector has a flat field: False 
# 
# Wavelength: 6.888e-11 m
# Mask applied: user provided
# Dark current applied: False
# Flat field applied: False
# Polarization factor: 0.99
# Normalization factor: 1.0
# --> /home/myspot/data/2024_07_Rosario/Ru-CGO-ex/2024-07-27_002_Ru-CGO-ex_Activtation_ramp_000002_data_000139.dat
#       q_nm^-1             I 
  2.003187e-02    7.712225e-02
  3.590745e-02    1.358241e-01
  5.178302e-02    7.652538e-02
  6.765859e-02    6.601512e-02
  8.353417e-02    4.586800e-02
  9.940974e-02    2.791002e-02
  1.152853e-01    1.085509e-01
  1.311609e-01    6.750314e-02
  1.470365e-01    3.045684e-02
  1.629120e-01    4.737895e-03
  1.787876e-01    1.579615e-02
  1.946632e-01    3.862524e-02
  2.105388e-01    4.878297e-03
  2.264143e-01    1.530448e-02
  2.422899e-01    2.741941e-02
  2.581655e-01    3.535848e-02
  2.740411e-01    4.300188e-02
  2.899166e-01    3.090577e-02
  3.057922e-01    4.999787e-03
  3.216678e-01    2.256723e-02
  3.375433e-01    8.812184e-03
  3.534189e-01    1.383485e-02
  3.692945e-01    1.983801e-02
  3.851701e-01    3.469614e-02
  4.010456e-01    1.980099e-02
  4.169212e-01    2.881616e-02
  4.327968e-01    5.128302e-02
  4.486724e-01    2.767685e-02
  4.645479e-01    2.416535e-02
  4.804235e-01    4.124568e-02
  4.962991e-01    5.752775e-02
  5.121747e-01    4.031584e-02
  5.280502e-01    5.286120e-02
  5.439258e-01    5.449861e-02
  5.598014e-01    2.129945e-02
  5.756770e-01    4.262181e-02
  5.915525e-01    3.823859e-02
  6.074281e-01    4.704842e-02
  6.233037e-01    4.766485e-02
  6.391793e-01    4.768070e-02
  6.550548e-01    6.023671e-02
  6.709304e-01    4.924428e-02
  6.868060e-01    4.256130e-02
  7.026815e-01    5.721174e-02
  7.185571e-01    4.388433e-02
  7.344327e-01    3.651143e-02
  7.503083e-01    5.489786e-02
  7.661838e-01    8.090802e-02
  7.820594e-01    1.173644e-01
  7.979350e-01    1.315325e-01
  8.138106e-01    1.933760e-01
  8.296861e-01    2.917033e-01
  8.455617e-01    2.963229e-01
  8.614373e-01    4.424491e-01
  8.773129e-01    5.333877e-01
  8.931884e-01    4.734083e-01
  9.090640e-01    5.018163e-01
  9.249396e-01    6.094730e-01
  9.408152e-01    6.451131e-01
  9.566907e-01    7.902974e-01
  9.725663e-01    8.977603e-01
  9.884419e-01    8.809286e-01
  1.004317e+00    1.083297e+00
  1.020193e+00    1.157779e+00
  1.036069e+00    1.181221e+00
  1.051944e+00    1.121161e+00
  1.067820e+00    1.169284e+00
  1.083695e+00    1.323493e+00
  1.099571e+00    1.290725e+00
  1.115446e+00    1.271606e+00
  1.131322e+00    1.415410e+00
  1.147198e+00    1.487989e+00
  1.163073e+00    1.496432e+00
  1.178949e+00    1.428517e+00
  1.194824e+00    1.567408e+00
  1.210700e+00    1.838500e+00
  1.226575e+00    2.031974e+00
  1.242451e+00    2.206515e+00
  1.258327e+00    2.291848e+00
  1.274202e+00    2.260793e+00
  1.290078e+00    2.390701e+00
  1.305953e+00    2.511777e+00
  1.321829e+00    2.482099e+00
  1.337705e+00    2.463589e+00
  1.353580e+00    2.461882e+00
  1.369456e+00    2.558856e+00
  1.385331e+00    2.462260e+00
  1.401207e+00    2.532469e+00
  1.417082e+00    2.632857e+00
  1.432958e+00    2.673245e+00
  1.448834e+00    2.578946e+00
  1.464709e+00    2.646211e+00
  1.480585e+00    2.804250e+00
  1.496460e+00    2.735100e+00
  1.512336e+00    2.736153e+00
  1.528211e+00    2.843702e+00
  1.544087e+00    2.782522e+00
  1.559963e+00    2.886766e+00
  1.575838e+00    2.879389e+00
  1.591714e+00    2.940966e+00
  1.607589e+00    2.927876e+00
  1.623465e+00    2.780874e+00
  1.639340e+00    2.893436e+00
  1.655216e+00    2.708231e+00
  1.671092e+00    2.710533e+00
  1.686967e+00    2.856173e+00
  1.702843e+00    2.647843e+00
  1.718718e+00    2.635209e+00
  1.734594e+00    2.858423e+00
  1.750469e+00    2.698368e+00
  1.766345e+00    2.870220e+00
  1.782221e+00    2.888627e+00
  1.798096e+00    2.744525e+00
  1.813972e+00    2.645261e+00
  1.829847e+00    2.735029e+00
  1.845723e+00    2.755310e+00
  1.861598e+00    2.653879e+00
  1.877474e+00    2.644938e+00
  1.893350e+00    2.681535e+00
  1.909225e+00    2.730698e+00
  1.925101e+00    2.657781e+00
  1.940976e+00    2.753549e+00
  1.956852e+00    2.635263e+00
  1.972727e+00    2.671619e+00
  1.988603e+00    2.661876e+00
  2.004479e+00    2.587683e+00
  2.020354e+00    2.612846e+00
  2.036230e+00    2.740168e+00
  2.052105e+00    2.613308e+00
  2.067981e+00    2.617837e+00
  2.083856e+00    2.620895e+00
  2.099732e+00    2.666274e+00
  2.115608e+00    2.718538e+00
  2.131483e+00    2.675231e+00
  2.147359e+00    2.674745e+00
  2.163234e+00    2.734949e+00
  2.179110e+00    2.720399e+00
  2.194985e+00    2.658514e+00
  2.210861e+00    2.625773e+00
  2.226737e+00    2.680408e+00
  2.242612e+00    2.689355e+00
  2.258488e+00    2.683646e+00
  2.274363e+00    2.777588e+00
  2.290239e+00    2.849872e+00
  2.306115e+00    2.775038e+00
  2.321990e+00    2.762733e+00
  2.337866e+00    2.661506e+00
  2.353741e+00    2.668471e+00
  2.369617e+00    2.667029e+00
  2.385492e+00    2.627930e+00
  2.401368e+00    2.713669e+00
  2.417244e+00    2.803380e+00
  2.433119e+00    2.764802e+00
  2.448995e+00    2.646660e+00
  2.464870e+00    2.709599e+00
  2.480746e+00    2.747819e+00
  2.496621e+00    2.737575e+00
  2.512497e+00    2.779200e+00
  2.528373e+00    2.872580e+00
  2.544248e+00    2.745242e+00
  2.560124e+00    2.867070e+00
  2.575999e+00    2.824642e+00
  2.591875e+00    2.702591e+00
  2.607750e+00    2.736867e+00
  2.623626e+00    2.790539e+00
  2.639502e+00    2.835561e+00
  2.655377e+00    2.835759e+00
  2.671253e+00    2.775601e+00
  2.687128e+00    2.807891e+00
  2.703004e+00    2.759873e+00
  2.718879e+00    2.701081e+00
  2.734755e+00    2.753623e+00
  2.750631e+00    2.823509e+00
  2.766506e+00    2.894706e+00
  2.782382e+00    2.893390e+00
  2.798257e+00    2.797041e+00
  2.814133e+00    2.839598e+00
  2.830008e+00    2.907833e+00
  2.845884e+00    2.835786e+00
  2.861760e+00    2.796832e+00
  2.877635e+00    2.709109e+00
  2.893511e+00    2.714942e+00
  2.909386e+00    2.793671e+00
  2.925262e+00    2.900712e+00
  2.941137e+00    2.804026e+00
  2.957013e+00    2.795929e+00
  2.972889e+00    2.814435e+00
  2.988764e+00    2.865484e+00
  3.004640e+00    2.810214e+00
  3.020515e+00    2.797265e+00
  3.036391e+00    2.812541e+00
  3.052266e+00    2.857646e+00
  3.068142e+00    2.794074e+00
  3.084018e+00    2.838484e+00
  3.099893e+00    2.911373e+00
  3.115769e+00    2.829931e+00
  3.131644e+00    2.761603e+00
  3.147520e+00    2.824878e+00
  3.163395e+00    2.783451e+00
  3.179271e+00    2.801719e+00
  3.195147e+00    2.849413e+00
  3.211022e+00    2.841862e+00
  3.226898e+00    2.879097e+00
  3.242773e+00    2.958368e+00
  3.258649e+00    2.913752e+00
  3.274525e+00    2.839922e+00
  3.290400e+00    2.850773e+00
  3.306276e+00    2.911712e+00
  3.322151e+00    2.860823e+00
  3.338027e+00    2.920855e+00
  3.353902e+00    2.969482e+00
  3.369778e+00    2.901089e+00
  3.385654e+00    2.892128e+00
  3.401529e+00    2.819194e+00
  3.417405e+00    2.858534e+00
  3.433280e+00    2.943135e+00
  3.449156e+00    2.900982e+00
  3.465031e+00    3.017761e+00
  3.480907e+00    2.958894e+00
  3.496783e+00    2.913528e+00
  3.512658e+00    2.948102e+00
  3.528534e+00    2.979715e+00
  3.544409e+00    2.980657e+00
  3.560285e+00    2.988199e+00
  3.576160e+00    2.922248e+00
  3.592036e+00    2.907998e+00
  3.607912e+00    2.950615e+00
  3.623787e+00    2.978912e+00
  3.639663e+00    2.996242e+00
  3.655538e+00    2.958834e+00
  3.671414e+00    2.973068e+00
  3.687289e+00    2.934123e+00
  3.703165e+00    3.000788e+00
  3.719041e+00    2.979118e+00
  3.734916e+00    2.944509e+00
  3.750792e+00    2.953219e+00
  3.766667e+00    2.991951e+00
  3.782543e+00    3.063104e+00
  3.798418e+00    2.953623e+00
  3.814294e+00    2.975894e+00
  3.830170e+00    2.948088e+00
  3.846045e+00    2.983506e+00
  3.861921e+00    2.990548e+00
  3.877796e+00    3.047801e+00
  3.893672e+00    3.091628e+00
  3.909547e+00    3.033605e+00
  3.925423e+00    3.007286e+00
  3.941299e+00    2.889979e+00
  3.957174e+00    2.906794e+00
  3.973050e+00    2.952982e+00
  3.988925e+00    2.969150e+00
  4.004801e+00    2.877671e+00
  4.020676e+00    2.891827e+00
  4.036552e+00    2.978787e+00
  4.052428e+00    3.025197e+00
  4.068303e+00    2.996789e+00
  4.084179e+00    2.958756e+00
  4.100054e+00    2.939467e+00
  4.115930e+00    2.964331e+00
  4.131806e+00    3.064919e+00
  4.147681e+00    3.101107e+00
  4.163557e+00    3.128198e+00
  4.179432e+00    3.026429e+00
  4.195308e+00    3.019841e+00
  4.211183e+00    3.003561e+00
  4.227059e+00    3.068260e+00
  4.242935e+00    3.098029e+00
  4.258810e+00    3.086657e+00
  4.274686e+00    3.037036e+00
  4.290561e+00    3.101807e+00
  4.306437e+00    3.055921e+00
  4.322312e+00    3.033226e+00
  4.338188e+00    3.030024e+00
  4.354064e+00    2.990010e+00
  4.369939e+00    3.125513e+00
  4.385815e+00    3.101877e+00
  4.401690e+00    3.077188e+00
  4.417566e+00    3.052059e+00
  4.433441e+00    2.964510e+00
  4.449317e+00    3.034583e+00
  4.465193e+00    3.027423e+00
  4.481068e+00    2.979581e+00
  4.496944e+00    3.022926e+00
  4.512819e+00    3.009737e+00
  4.528695e+00    3.029449e+00
  4.544570e+00    3.033525e+00
  4.560446e+00    3.042583e+00
  4.576322e+00    2.991966e+00
  4.592197e+00    3.045598e+00
  4.608073e+00    3.041355e+00
  4.623948e+00    3.131938e+00
  4.639824e+00    3.068011e+00
  4.655699e+00    3.111950e+00
  4.671575e+00    3.116349e+00
  4.687451e+00    3.064219e+00
  4.703326e+00    2.991404e+00
  4.719202e+00    3.012588e+00
  4.735077e+00    3.219476e+00
  4.750953e+00    3.161322e+00
  4.766828e+00    3.081991e+00
  4.782704e+00    3.060145e+00
  4.798580e+00    3.115737e+00
  4.814455e+00    3.086225e+00
  4.830331e+00    2.992556e+00
  4.846206e+00    2.990577e+00
  4.862082e+00    3.085414e+00
  4.877957e+00    3.055712e+00
  4.893833e+00    3.058073e+00
  4.909709e+00    3.156012e+00
  4.925584e+00    3.141041e+00
  4.941460e+00    3.045648e+00
  4.957335e+00    3.103467e+00
  4.973211e+00    3.086041e+00
  4.989086e+00    3.083110e+00
  5.004962e+00    3.077355e+00
  5.020838e+00    3.126130e+00
  5.036713e+00    3.095800e+00
  5.052589e+00    3.122765e+00
  5.068464e+00    3.071013e+00
  5.084340e+00    3.117518e+00
  5.100216e+00    3.102423e+00
  5.116091e+00    3.040301e+00
  5.131967e+00    3.023513e+00
  5.147842e+00    3.032841e+00
  5.163718e+00    3.080957e+00
  5.179593e+00    3.079567e+00
  5.195469e+00    3.052902e+00
  5.211345e+00    3.058376e+00
  5.227220e+00    3.140550e+00
  5.243096e+00    3.150473e+00
  5.258971e+00    3.156177e+00
  5.274847e+00    3.105473e+00
  5.290722e+00    2.997046e+00
  5.306598e+00    3.055362e+00
  5.322474e+00    3.154917e+00
  5.338349e+00    3.152493e+00
  5.354225e+00    3.070394e+00
  5.370100e+00    3.076034e+00
  5.385976e+00    3.161904e+00
  5.401851e+00    3.145537e+00
  5.417727e+00    3.104911e+00
  5.433603e+00    3.076030e+00
  5.449478e+00    3.064340e+00
  5.465354e+00    3.004453e+00
  5.481229e+00    3.013263e+00
  5.497105e+00    3.094221e+00
  5.512980e+00    3.088284e+00
  5.528856e+00    3.003989e+00
  5.544732e+00    3.031758e+00
  5.560607e+00    2.959815e+00
  5.576483e+00    3.005989e+00
  5.592358e+00    3.072124e+00
  5.608234e+00    3.097088e+00
  5.624109e+00    3.002224e+00
  5.639985e+00    3.035447e+00
  5.655861e+00    3.045058e+00
  5.671736e+00    3.053389e+00
  5.687612e+00    2.995977e+00
  5.703487e+00    3.009899e+00
  5.719363e+00    2.950272e+00
  5.735238e+00    2.983588e+00
  5.751114e+00    3.045531e+00
  5.766990e+00    3.095470e+00
  5.782865e+00    3.096919e+00
  5.798741e+00    3.092028e+00
  5.814616e+00    3.066957e+00
  5.830492e+00    2.999635e+00
  5.846367e+00    2.983922e+00
  5.862243e+00    3.039592e+00
  5.878119e+00    3.088984e+00
  5.893994e+00    3.006581e+00
  5.909870e+00    2.943027e+00
  5.925745e+00    2.968742e+00
  5.941621e+00    3.019695e+00
  5.957497e+00    3.054093e+00
  5.973372e+00    2.966941e+00
  5.989248e+00    3.015600e+00
  6.005123e+00    3.061345e+00
  6.020999e+00    3.030585e+00
  6.036874e+00    2.982664e+00
  6.052750e+00    3.037675e+00
  6.068626e+00    3.059353e+00
  6.084501e+00    3.054486e+00
  6.100377e+00    3.091565e+00
  6.116252e+00    3.037485e+00
  6.132128e+00    2.992426e+00
  6.148003e+00    3.074310e+00
  6.163879e+00    3.019725e+00
  6.179755e+00    3.061965e+00
  6.195630e+00    3.062154e+00
  6.211506e+00    3.025661e+00
  6.227381e+00    3.047621e+00
  6.243257e+00    3.041400e+00
  6.259132e+00    3.023146e+00
  6.275008e+00    3.006532e+00
  6.290884e+00    2.962061e+00
  6.306759e+00    2.980411e+00
  6.322635e+00    2.977296e+00
  6.338510e+00    3.026102e+00
  6.354386e+00    3.083348e+00
  6.370261e+00    3.004287e+00
  6.386137e+00    3.013318e+00
  6.402013e+00    3.058919e+00
  6.417888e+00    3.043897e+00
  6.433764e+00    3.029351e+00
  6.449639e+00    3.025578e+00
  6.465515e+00    2.987755e+00
  6.481390e+00    3.018460e+00
  6.497266e+00    3.058293e+00
  6.513142e+00    3.070212e+00
  6.529017e+00    3.013121e+00
  6.544893e+00    3.021605e+00
  6.560768e+00    3.061221e+00
  6.576644e+00    3.065542e+00
  6.592519e+00    3.005442e+00
  6.608395e+00    2.994860e+00
  6.624271e+00    2.978720e+00
  6.640146e+00    2.977838e+00
  6.656022e+00    3.013824e+00
  6.671897e+00    3.006925e+00
  6.687773e+00    3.049416e+00
  6.703648e+00    3.070559e+00
  6.719524e+00    2.982599e+00
  6.735400e+00    2.980958e+00
  6.751275e+00    2.963695e+00
  6.767151e+00    3.059639e+00
  6.783026e+00    3.046250e+00
  6.798902e+00    3.016720e+00
  6.814777e+00    3.010477e+00
  6.830653e+00    2.971156e+00
  6.846529e+00    2.970412e+00
  6.862404e+00    2.990131e+00
  6.878280e+00    2.925115e+00
  6.894155e+00    2.965540e+00
  6.910031e+00    3.010801e+00
  6.925907e+00    3.043212e+00
  6.941782e+00    2.931976e+00
  6.957658e+00    2.946941e+00
  6.973533e+00    2.976502e+00
  6.989409e+00    3.025001e+00
  7.005284e+00    3.013964e+00
  7.021160e+00    2.899139e+00
  7.037036e+00    2.902735e+00
  7.052911e+00    2.996676e+00
  7.068787e+00    3.024470e+00
  7.084662e+00    2.921928e+00
  7.100538e+00    3.014950e+00
  7.116413e+00    3.050072e+00
  7.132289e+00    3.012977e+00
  7.148165e+00    2.970632e+00
  7.164040e+00    2.929706e+00
  7.179916e+00    2.996650e+00
  7.195791e+00    2.976256e+00
  7.211667e+00    2.985965e+00
  7.227542e+00    3.031919e+00
  7.243418e+00    2.906072e+00
  7.259294e+00    2.945474e+00
  7.275169e+00    2.957904e+00
  7.291045e+00    3.004365e+00
  7.306920e+00    3.003516e+00
  7.322796e+00    3.026524e+00
  7.338671e+00    2.995718e+00
  7.354547e+00    2.989101e+00
  7.370423e+00    2.991742e+00
  7.386298e+00    3.000993e+00
  7.402174e+00    2.951370e+00
  7.418049e+00    2.936616e+00
  7.433925e+00    2.945985e+00
  7.449800e+00    2.989556e+00
  7.465676e+00    2.964472e+00
  7.481552e+00    2.958400e+00
  7.497427e+00    2.975103e+00
  7.513303e+00    3.016122e+00
  7.529178e+00    2.978826e+00
  7.545054e+00    2.997025e+00
  7.560929e+00    2.952265e+00
  7.576805e+00    2.953151e+00
  7.592681e+00    2.915691e+00
  7.608556e+00    2.929010e+00
  7.624432e+00    2.890414e+00
  7.640307e+00    2.950525e+00
  7.656183e+00    2.916195e+00
  7.672058e+00    2.974738e+00
  7.687934e+00    2.916267e+00
  7.703810e+00    2.947975e+00
  7.719685e+00    2.957661e+00
  7.735561e+00    2.938241e+00
  7.751436e+00    2.952990e+00
  7.767312e+00    2.937747e+00
  7.783187e+00    2.909612e+00
  7.799063e+00    2.934798e+00
  7.814939e+00    2.935208e+00
  7.830814e+00    2.889281e+00
  7.846690e+00    2.880754e+00
  7.862565e+00    2.953058e+00
  7.878441e+00    2.930273e+00
  7.894317e+00    2.919872e+00
  7.910192e+00    2.905883e+00
  7.926068e+00    2.862937e+00
  7.941943e+00    2.933568e+00
  7.957819e+00    2.930712e+00
  7.973694e+00    2.866397e+00
  7.989570e+00    2.912435e+00
  8.005446e+00    2.891762e+00
  8.021321e+00    2.915868e+00
  8.037197e+00    2.887634e+00
  8.053072e+00    2.891190e+00
  8.068948e+00    2.897200e+00
  8.084823e+00    2.886855e+00
  8.100699e+00    2.940036e+00
  8.116575e+00    2.920725e+00
  8.132450e+00    2.918401e+00
  8.148326e+00    2.898269e+00
  8.164201e+00    2.955414e+00
  8.180077e+00    2.891997e+00
  8.195952e+00    2.913979e+00
  8.211828e+00    2.911271e+00
  8.227704e+00    2.941125e+00
  8.243579e+00    2.910616e+00
  8.259455e+00    2.921690e+00
  8.275330e+00    2.854501e+00
  8.291206e+00    2.906619e+00
  8.307081e+00    2.899172e+00
  8.322957e+00    2.919538e+00
  8.338833e+00    2.938535e+00
  8.354708e+00    2.932675e+00
  8.370584e+00    2.906509e+00
  8.386459e+00    2.871074e+00
  8.402335e+00    2.838916e+00
  8.418210e+00    2.865505e+00
  8.434086e+00    2.839323e+00
  8.449962e+00    2.844506e+00
  8.465837e+00    2.868881e+00
  8.481713e+00    2.849220e+00
  8.497588e+00    2.841671e+00
  8.513464e+00    2.849323e+00
  8.529339e+00    2.869596e+00
  8.545215e+00    2.824116e+00
  8.561091e+00    2.832010e+00
  8.576966e+00    2.861554e+00
  8.592842e+00    2.823184e+00
  8.608717e+00    2.851566e+00
  8.624593e+00    2.900630e+00
  8.640468e+00    2.895824e+00
  8.656344e+00    2.881535e+00
  8.672220e+00    2.845086e+00
  8.688095e+00    2.796865e+00
  8.703971e+00    2.879957e+00
  8.719846e+00    2.927492e+00
  8.735722e+00    2.793068e+00
  8.751598e+00    2.821271e+00
  8.767473e+00    2.827389e+00
  8.783349e+00    2.787781e+00
  8.799224e+00    2.766794e+00
  8.815100e+00    2.818565e+00
  8.830975e+00    2.809557e+00
  8.846851e+00    2.800745e+00
  8.862727e+00    2.890480e+00
  8.878602e+00    2.873610e+00
  8.894478e+00    2.833588e+00
  8.910353e+00    2.827157e+00
  8.926229e+00    2.856804e+00
  8.942104e+00    2.816184e+00
  8.957980e+00    2.804925e+00
  8.973856e+00    2.833385e+00
  8.989731e+00    2.839873e+00
  9.005607e+00    2.808619e+00
  9.021482e+00    2.824358e+00
  9.037358e+00    2.762013e+00
  9.053233e+00    2.779860e+00
  9.069109e+00    2.809219e+00
  9.084985e+00    2.801003e+00
  9.100860e+00    2.801936e+00
  9.116736e+00    2.779526e+00
  9.132611e+00    2.827930e+00
  9.148487e+00    2.755504e+00
  9.164362e+00    2.757055e+00
  9.180238e+00    2.732420e+00
  9.196114e+00    2.728389e+00
  9.211989e+00    2.762452e+00
  9.227865e+00    2.758168e+00
  9.243740e+00    2.756563e+00
  9.259616e+00    2.738371e+00
  9.275491e+00    2.784758e+00
  9.291367e+00    2.791036e+00
  9.307243e+00    2.740408e+00
  9.323118e+00    2.718821e+00
  9.338994e+00    2.715977e+00
  9.354869e+00    2.710427e+00
  9.370745e+00    2.761324e+00
  9.386620e+00    2.733530e+00
  9.402496e+00    2.730009e+00
  9.418372e+00    2.681086e+00
  9.434247e+00    2.693898e+00
  9.450123e+00    2.695720e+00
  9.465998e+00    2.671769e+00
  9.481874e+00    2.689353e+00
  9.497749e+00    2.715197e+00
  9.513625e+00    2.782411e+00
  9.529501e+00    2.738296e+00
  9.545376e+00    2.740507e+00
  9.561252e+00    2.747813e+00
  9.577127e+00    2.791537e+00
  9.593003e+00    2.746924e+00
  9.608878e+00    2.766492e+00
  9.624754e+00    2.757070e+00
  9.640630e+00    2.754682e+00
  9.656505e+00    2.756917e+00
  9.672381e+00    2.705392e+00
  9.688256e+00    2.776514e+00
  9.704132e+00    2.712613e+00
  9.720008e+00    2.698411e+00
  9.735883e+00    2.740981e+00
  9.751759e+00    2.735750e+00
  9.767634e+00    2.717076e+00
  9.783510e+00    2.673649e+00
  9.799385e+00    2.658480e+00
  9.815261e+00    2.713075e+00
  9.831137e+00    2.671820e+00
  9.847012e+00    2.648593e+00
  9.862888e+00    2.683225e+00
  9.878763e+00    2.683751e+00
  9.894639e+00    2.743216e+00
  9.910514e+00    2.717453e+00
  9.926390e+00    2.669772e+00
  9.942266e+00    2.657335e+00
  9.958141e+00    2.679586e+00
  9.974017e+00    2.662552e+00
  9.989892e+00    2.600430e+00
  1.000577e+01    2.676080e+00
  1.002164e+01    2.726302e+00
  1.003752e+01    2.684752e+00
  1.005339e+01    2.676364e+00
  1.006927e+01    2.670150e+00
  1.008515e+01    2.613169e+00
  1.010102e+01    2.634485e+00
  1.011690e+01    2.656747e+00
  1.013277e+01    2.664541e+00
  1.014865e+01    2.638130e+00
  1.016452e+01    2.651693e+00
  1.018040e+01    2.644829e+00
  1.019627e+01    2.585950e+00
  1.021215e+01    2.620138e+00
  1.022803e+01    2.639979e+00
  1.024390e+01    2.627940e+00
  1.025978e+01    2.568009e+00
  1.027565e+01    2.575227e+00
  1.029153e+01    2.625393e+00
  1.030740e+01    2.610292e+00
  1.032328e+01    2.620375e+00
  1.033915e+01    2.599649e+00
  1.035503e+01    2.650372e+00
  1.037091e+01    2.600391e+00
  1.038678e+01    2.561355e+00
  1.040266e+01    2.599955e+00
  1.041853e+01    2.630608e+00
  1.043441e+01    2.561423e+00
  1.045028e+01    2.556216e+00
  1.046616e+01    2.588774e+00
  1.048204e+01    2.565322e+00
  1.049791e+01    2.567750e+00
  1.051379e+01    2.564177e+00
  1.052966e+01    2.531669e+00
  1.054554e+01    2.498793e+00
  1.056141e+01    2.595938e+00
  1.057729e+01    2.620423e+00
  1.059316e+01    2.559440e+00
  1.060904e+01    2.527702e+00
  1.062492e+01    2.553401e+00
  1.064079e+01    2.595520e+00
  1.065667e+01    2.525850e+00
  1.067254e+01    2.506884e+00
  1.068842e+01    2.488970e+00
  1.070429e+01    2.455917e+00
  1.072017e+01    2.503786e+00
  1.073604e+01    2.504011e+00
  1.075192e+01    2.487159e+00
  1.076780e+01    2.547777e+00
  1.078367e+01    2.573806e+00
  1.079955e+01    2.499301e+00
  1.081542e+01    2.505510e+00
  1.083130e+01    2.566505e+00
  1.084717e+01    2.557537e+00
  1.086305e+01    2.495475e+00
  1.087892e+01    2.487175e+00
  1.089480e+01    2.484054e+00
  1.091068e+01    2.496420e+00
  1.092655e+01    2.499695e+00
  1.094243e+01    2.475740e+00
  1.095830e+01    2.446204e+00
  1.097418e+01    2.481509e+00
  1.099005e+01    2.506989e+00
  1.100593e+01    2.458344e+00
  1.102180e+01    2.469404e+00
  1.103768e+01    2.467088e+00
  1.105356e+01    2.484152e+00
  1.106943e+01    2.450659e+00
  1.108531e+01    2.420732e+00
  1.110118e+01    2.452209e+00
  1.111706e+01    2.472121e+00
  1.113293e+01    2.476041e+00
  1.114881e+01    2.429791e+00
  1.116468e+01    2.425960e+00
  1.118056e+01    2.422412e+00
  1.119644e+01    2.429673e+00
  1.121231e+01    2.412367e+00
  1.122819e+01    2.451001e+00
  1.124406e+01    2.441669e+00
  1.125994e+01    2.438117e+00
  1.127581e+01    2.398979e+00
  1.129169e+01    2.413879e+00
  1.130756e+01    2.452417e+00
  1.132344e+01    2.433558e+00
  1.133932e+01    2.452411e+00
  1.135519e+01    2.392894e+00
  1.137107e+01    2.410431e+00
  1.138694e+01    2.433142e+00
  1.140282e+01    2.380228e+00
  1.141869e+01    2.437101e+00
  1.143457e+01    2.409433e+00
  1.145045e+01    2.406533e+00
  1.146632e+01    2.392716e+00
  1.148220e+01    2.351732e+00
  1.149807e+01    2.349959e+00
  1.151395e+01    2.396251e+00
  1.152982e+01    2.397786e+00
  1.154570e+01    2.403199e+00
  1.156157e+01    2.400840e+00
  1.157745e+01    2.410008e+00
  1.159333e+01    2.386606e+00
  1.160920e+01    2.290493e+00
  1.162508e+01    2.323324e+00
  1.164095e+01    2.362223e+00
  1.165683e+01    2.357987e+00
  1.167270e+01    2.328575e+00
  1.168858e+01    2.315114e+00
  1.170445e+01    2.317577e+00
  1.172033e+01    2.344452e+00
  1.173621e+01    2.349643e+00
  1.175208e+01    2.313826e+00
  1.176796e+01    2.367495e+00
  1.178383e+01    2.388342e+00
  1.179971e+01    2.373801e+00
  1.181558e+01    2.372355e+00
  1.183146e+01    2.319369e+00
  1.184733e+01    2.339357e+00
  1.186321e+01    2.321702e+00
  1.187909e+01    2.329090e+00
  1.189496e+01    2.358466e+00
  1.191084e+01    2.333015e+00
  1.192671e+01    2.358215e+00
  1.194259e+01    2.323967e+00
  1.195846e+01    2.336837e+00
  1.197434e+01    2.358472e+00
  1.199021e+01    2.316146e+00
  1.200609e+01    2.285524e+00
  1.202197e+01    2.305322e+00
  1.203784e+01    2.372459e+00
  1.205372e+01    2.326606e+00
  1.206959e+01    2.312363e+00
  1.208547e+01    2.324663e+00
  1.210134e+01    2.308516e+00
  1.211722e+01    2.303718e+00
  1.213309e+01    2.283320e+00
  1.214897e+01    2.298375e+00
  1.216485e+01    2.307160e+00
  1.218072e+01    2.350842e+00
  1.219660e+01    2.346361e+00
  1.221247e+01    2.276685e+00
  1.222835e+01    2.293211e+00
  1.224422e+01    2.314022e+00
  1.226010e+01    2.304438e+00
  1.227597e+01    2.295065e+00
  1.229185e+01    2.299319e+00
  1.230773e+01    2.285907e+00
  1.232360e+01    2.313645e+00
  1.233948e+01    2.319316e+00
  1.235535e+01    2.353847e+00
  1.237123e+01    2.334221e+00
  1.238710e+01    2.285412e+00
  1.240298e+01    2.290624e+00
  1.241886e+01    2.281600e+00
  1.243473e+01    2.238812e+00
  1.245061e+01    2.267646e+00
  1.246648e+01    2.294284e+00
  1.248236e+01    2.306941e+00
  1.249823e+01    2.364024e+00
  1.251411e+01    2.331331e+00
  1.252998e+01    2.341122e+00
  1.254586e+01    2.349490e+00
  1.256174e+01    2.348157e+00
  1.257761e+01    2.369126e+00
  1.259349e+01    2.325970e+00
  1.260936e+01    2.347887e+00
  1.262524e+01    2.373903e+00
  1.264111e+01    2.362987e+00
  1.265699e+01    2.348758e+00
  1.267286e+01    2.415027e+00
  1.268874e+01    2.448956e+00
  1.270462e+01    2.457579e+00
  1.272049e+01    2.444154e+00
  1.273637e+01    2.505037e+00
  1.275224e+01    2.543150e+00
  1.276812e+01    2.556460e+00
  1.278399e+01    2.585887e+00
  1.279987e+01    2.624206e+00
  1.281574e+01    2.662912e+00
  1.283162e+01    2.748917e+00
  1.284750e+01    2.834818e+00
  1.286337e+01    2.948971e+00
  1.287925e+01    3.053305e+00
  1.289512e+01    3.179293e+00
  1.291100e+01    3.317538e+00
  1.292687e+01    3.517878e+00
  1.294275e+01    3.734616e+00
  1.295862e+01    3.981327e+00
  1.297450e+01    4.360210e+00
  1.299038e+01    4.810287e+00
  1.300625e+01    5.419588e+00
  1.302213e+01    6.098049e+00
  1.303800e+01    7.185688e+00
  1.305388e+01    8.285327e+00
  1.306975e+01    9.406651e+00
  1.308563e+01    1.084789e+01
  1.310150e+01    1.208949e+01
  1.311738e+01    1.334759e+01
  1.313326e+01    1.448404e+01
  1.314913e+01    1.555325e+01
  1.316501e+01    1.650367e+01
  1.318088e+01    1.693031e+01
  1.319676e+01    1.659300e+01
  1.321263e+01    1.540029e+01
  1.322851e+01    1.358198e+01
  1.324438e+01    1.158956e+01
  1.326026e+01    9.762027e+00
  1.327614e+01    8.246951e+00
  1.329201e+01    7.006568e+00
  1.330789e+01    6.079257e+00
  1.332376e+01    5.316221e+00
  1.333964e+01    4.747392e+00
  1.335551e+01    4.303356e+00
  1.337139e+01    3.929253e+00
  1.338727e+01    3.672197e+00
  1.340314e+01    3.439183e+00
  1.341902e+01    3.244578e+00
  1.343489e+01    3.053205e+00
  1.345077e+01    2.911821e+00
  1.346664e+01    2.875667e+00
  1.348252e+01    2.774815e+00
  1.349839e+01    2.686778e+00
  1.351427e+01    2.603914e+00
  1.353015e+01    2.525530e+00
  1.354602e+01    2.458227e+00
  1.356190e+01    2.433699e+00
  1.357777e+01    2.409233e+00
  1.359365e+01    2.418938e+00
  1.360952e+01    2.354697e+00
  1.362540e+01    2.339173e+00
  1.364127e+01    2.282027e+00
  1.365715e+01    2.265577e+00
  1.367303e+01    2.247695e+00
  1.368890e+01    2.251799e+00
  1.370478e+01    2.215555e+00
  1.372065e+01    2.193549e+00
  1.373653e+01    2.198584e+00
  1.375240e+01    2.186261e+00
  1.376828e+01    2.153872e+00
  1.378415e+01    2.139300e+00
  1.380003e+01    2.137841e+00
  1.381591e+01    2.072410e+00
  1.383178e+01    2.102489e+00
  1.384766e+01    2.135207e+00
  1.386353e+01    2.144386e+00
  1.387941e+01    2.137941e+00
  1.389528e+01    2.082599e+00
  1.391116e+01    2.038066e+00
  1.392703e+01    2.045975e+00
  1.394291e+01    2.037817e+00
  1.395879e+01    2.063870e+00
  1.397466e+01    2.095049e+00
  1.399054e+01    2.060882e+00
  1.400641e+01    1.991970e+00
  1.402229e+01    1.995208e+00
  1.403816e+01    1.957979e+00
  1.405404e+01    1.980048e+00
  1.406991e+01    2.008983e+00
  1.408579e+01    2.034798e+00
  1.410167e+01    2.021076e+00
  1.411754e+01    1.971873e+00
  1.413342e+01    2.008325e+00
  1.414929e+01    2.013171e+00
  1.416517e+01    1.967788e+00
  1.418104e+01    1.967866e+00
  1.419692e+01    1.965642e+00
  1.421279e+01    1.951208e+00
  1.422867e+01    1.989403e+00
  1.424455e+01    1.995990e+00
  1.426042e+01    1.937288e+00
  1.427630e+01    1.960935e+00
  1.429217e+01    1.979413e+00
  1.430805e+01    1.939349e+00
  1.432392e+01    1.932455e+00
  1.433980e+01    1.936469e+00
  1.435568e+01    1.941346e+00
  1.437155e+01    1.915345e+00
  1.438743e+01    1.907257e+00
  1.440330e+01    1.919841e+00
  1.441918e+01    1.920219e+00
  1.443505e+01    1.900598e+00
  1.445093e+01    1.951359e+00
  1.446680e+01    1.926396e+00
  1.448268e+01    1.942121e+00
  1.449856e+01    1.905388e+00
  1.451443e+01    1.873002e+00
  1.453031e+01    1.872214e+00
  1.454618e+01    1.916531e+00
  1.456206e+01    1.921331e+00
  1.457793e+01    1.902537e+00
  1.459381e+01    1.928587e+00
  1.460968e+01    1.934744e+00
  1.462556e+01    1.863841e+00
  1.464144e+01    1.881651e+00
  1.465731e+01    1.909044e+00
  1.467319e+01    1.936493e+00
  1.468906e+01    1.907941e+00
  1.470494e+01    1.934576e+00
  1.472081e+01    1.908103e+00
  1.473669e+01    1.896800e+00
  1.475256e+01    1.883467e+00
  1.476844e+01    1.876988e+00
  1.478432e+01    1.914652e+00
  1.480019e+01    1.926554e+00
  1.481607e+01    1.938778e+00
  1.483194e+01    1.942423e+00
  1.484782e+01    1.910462e+00
  1.486369e+01    1.927473e+00
  1.487957e+01    1.933676e+00
  1.489544e+01    1.932517e+00
  1.491132e+01    1.932885e+00
  1.492720e+01    1.961517e+00
  1.494307e+01    1.999030e+00
  1.495895e+01    2.005687e+00
  1.497482e+01    2.067218e+00
  1.499070e+01    2.086439e+00
  1.500657e+01    2.174156e+00
  1.502245e+01    2.207218e+00
  1.503832e+01    2.291865e+00
  1.505420e+01    2.381040e+00
  1.507008e+01    2.436228e+00
  1.508595e+01    2.655164e+00
  1.510183e+01    2.875381e+00
  1.511770e+01    3.095233e+00
  1.513358e+01    3.488410e+00
  1.514945e+01    3.832667e+00
  1.516533e+01    4.162859e+00
  1.518120e+01    4.531268e+00
  1.519708e+01    4.829181e+00
  1.521296e+01    5.114401e+00
  1.522883e+01    5.406583e+00
  1.524471e+01    5.585603e+00
  1.526058e+01    5.739564e+00
  1.527646e+01    5.716773e+00
  1.529233e+01    5.577752e+00
  1.530821e+01    5.245436e+00
  1.532409e+01    4.798100e+00
  1.533996e+01    4.273505e+00
  1.535584e+01    3.788610e+00
  1.537171e+01    3.389443e+00
  1.538759e+01    3.100272e+00
  1.540346e+01    2.810403e+00
  1.541934e+01    2.579208e+00
  1.543521e+01    2.442026e+00
  1.545109e+01    2.283828e+00
  1.546697e+01    2.135868e+00
  1.548284e+01    2.080861e+00
  1.549872e+01    2.045847e+00
  1.551459e+01    2.013282e+00
  1.553047e+01    1.936910e+00
  1.554634e+01    1.929102e+00
  1.556222e+01    1.935822e+00
  1.557809e+01    1.874410e+00
  1.559397e+01    1.841299e+00
  1.560985e+01    1.799804e+00
  1.562572e+01    1.788060e+00
  1.564160e+01    1.778474e+00
  1.565747e+01    1.783462e+00
  1.567335e+01    1.748751e+00
  1.568922e+01    1.724760e+00
  1.570510e+01    1.721550e+00
  1.572097e+01    1.741091e+00
  1.573685e+01    1.727247e+00
  1.575273e+01    1.705415e+00
  1.576860e+01    1.700983e+00
  1.578448e+01    1.700504e+00
  1.580035e+01    1.685454e+00
  1.581623e+01    1.673052e+00
  1.583210e+01    1.672581e+00
  1.584798e+01    1.662202e+00
  1.586385e+01    1.636633e+00
  1.587973e+01    1.664606e+00
  1.589561e+01    1.637762e+00
  1.591148e+01    1.621631e+00
  1.592736e+01    1.649135e+00
  1.594323e+01    1.639396e+00
  1.595911e+01    1.608084e+00
  1.597498e+01    1.588540e+00
  1.599086e+01    1.582830e+00
  1.600673e+01    1.612908e+00
  1.602261e+01    1.588637e+00
  1.603849e+01    1.583705e+00
  1.605436e+01    1.599088e+00
  1.607024e+01    1.602146e+00
  1.608611e+01    1.560906e+00
  1.610199e+01    1.580696e+00
  1.611786e+01    1.578132e+00
  1.613374e+01    1.569501e+00
  1.614961e+01    1.567935e+00
  1.616549e+01    1.580197e+00
  1.618137e+01    1.583762e+00
  1.619724e+01    1.550990e+00
  1.621312e+01    1.536669e+00
  1.622899e+01    1.530319e+00
  1.624487e+01    1.526982e+00
  1.626074e+01    1.527308e+00
  1.627662e+01    1.537424e+00
  1.629250e+01    1.530215e+00
  1.630837e+01    1.542022e+00
  1.632425e+01    1.549781e+00
  1.634012e+01    1.524241e+00
  1.635600e+01    1.521648e+00
  1.637187e+01    1.551848e+00
  1.638775e+01    1.526307e+00
  1.640362e+01    1.518265e+00
  1.641950e+01    1.516954e+00
  1.643538e+01    1.494783e+00
  1.645125e+01    1.527915e+00
  1.646713e+01    1.513245e+00
  1.648300e+01    1.502790e+00
  1.649888e+01    1.510719e+00
  1.651475e+01    1.504240e+00
  1.653063e+01    1.498671e+00
  1.654650e+01    1.504530e+00
  1.656238e+01    1.459034e+00
  1.657826e+01    1.499538e+00
  1.659413e+01    1.502074e+00
  1.661001e+01    1.483476e+00
  1.662588e+01    1.480598e+00
  1.664176e+01    1.478142e+00
  1.665763e+01    1.501134e+00
  1.667351e+01    1.470783e+00
  1.668938e+01    1.462320e+00
  1.670526e+01    1.476780e+00
  1.672114e+01    1.470077e+00
  1.673701e+01    1.462966e+00
  1.675289e+01    1.442892e+00
  1.676876e+01    1.469779e+00
  1.678464e+01    1.463094e+00
  1.680051e+01    1.446891e+00
  1.681639e+01    1.463948e+00
  1.683226e+01    1.471930e+00
  1.684814e+01    1.481156e+00
  1.686402e+01    1.475133e+00
  1.687989e+01    1.438087e+00
  1.689577e+01    1.439037e+00
  1.691164e+01    1.453748e+00
  1.692752e+01    1.434663e+00
  1.694339e+01    1.403651e+00
  1.695927e+01    1.399998e+00
  1.697514e+01    1.408725e+00
  1.699102e+01    1.413820e+00
  1.700690e+01    1.425900e+00
  1.702277e+01    1.387700e+00
  1.703865e+01    1.400029e+00
  1.705452e+01    1.450759e+00
  1.707040e+01    1.424183e+00
  1.708627e+01    1.405206e+00
  1.710215e+01    1.426432e+00
  1.711802e+01    1.402636e+00
  1.713390e+01    1.376946e+00
  1.714978e+01    1.393816e+00
  1.716565e+01    1.402940e+00
  1.718153e+01    1.403696e+00
  1.719740e+01    1.366348e+00
  1.721328e+01    1.392391e+00
  1.722915e+01    1.415873e+00
  1.724503e+01    1.411764e+00
  1.726091e+01    1.423712e+00
  1.727678e+01    1.420609e+00
  1.729266e+01    1.390731e+00
  1.730853e+01    1.337648e+00
  1.732441e+01    1.377070e+00
  1.734028e+01    1.385408e+00
  1.735616e+01    1.341904e+00
  1.737203e+01    1.363533e+00
  1.738791e+01    1.374774e+00
  1.740379e+01    1.384977e+00
  1.741966e+01    1.372774e+00
  1.743554e+01    1.414984e+00
  1.745141e+01    1.392794e+00
  1.746729e+01    1.379058e+00
  1.748316e+01    1.360782e+00
  1.749904e+01    1.371219e+00
  1.751491e+01    1.360199e+00
  1.753079e+01    1.343524e+00
  1.754667e+01    1.343821e+00
  1.756254e+01    1.380032e+00
  1.757842e+01    1.350329e+00
  1.759429e+01    1.331846e+00
  1.761017e+01    1.350494e+00
  1.762604e+01    1.347741e+00
  1.764192e+01    1.342024e+00
  1.765779e+01    1.349021e+00
  1.767367e+01    1.353013e+00
  1.768955e+01    1.388415e+00
  1.770542e+01    1.338824e+00
  1.772130e+01    1.321764e+00
  1.773717e+01    1.358011e+00
  1.775305e+01    1.326636e+00
  1.776892e+01    1.336860e+00
  1.778480e+01    1.351925e+00
  1.780067e+01    1.342849e+00
  1.781655e+01    1.333692e+00
  1.783243e+01    1.324394e+00
  1.784830e+01    1.306541e+00
  1.786418e+01    1.304308e+00
  1.788005e+01    1.309818e+00
  1.789593e+01    1.291621e+00
  1.791180e+01    1.319468e+00
  1.792768e+01    1.317080e+00
  1.794355e+01    1.319258e+00
  1.795943e+01    1.301939e+00
  1.797531e+01    1.311332e+00
  1.799118e+01    1.316169e+00
  1.800706e+01    1.273612e+00
  1.802293e+01    1.284865e+00
  1.803881e+01    1.304125e+00
  1.805468e+01    1.313735e+00
  1.807056e+01    1.275673e+00
  1.808643e+01    1.291641e+00
  1.810231e+01    1.286773e+00
  1.811819e+01    1.294018e+00
  1.813406e+01    1.268583e+00
  1.814994e+01    1.293701e+00
  1.816581e+01    1.299009e+00
  1.818169e+01    1.282239e+00
  1.819756e+01    1.267947e+00
  1.821344e+01    1.261842e+00
  1.822932e+01    1.284862e+00
  1.824519e+01    1.267962e+00
  1.826107e+01    1.275630e+00
  1.827694e+01    1.277933e+00
  1.829282e+01    1.255436e+00
  1.830869e+01    1.270723e+00
  1.832457e+01    1.278082e+00
  1.834044e+01    1.259993e+00
  1.835632e+01    1.237494e+00
  1.837220e+01    1.222383e+00
  1.838807e+01    1.225664e+00
  1.840395e+01    1.278741e+00
  1.841982e+01    1.280943e+00
  1.843570e+01    1.263093e+00
  1.845157e+01    1.254346e+00
  1.846745e+01    1.273023e+00
  1.848332e+01    1.272435e+00
  1.849920e+01    1.265712e+00
  1.851508e+01    1.264876e+00
  1.853095e+01    1.258615e+00
  1.854683e+01    1.244596e+00
  1.856270e+01    1.221683e+00
  1.857858e+01    1.239528e+00
  1.859445e+01    1.229791e+00
  1.861033e+01    1.219424e+00
  1.862620e+01    1.225630e+00
  1.864208e+01    1.219324e+00
  1.865796e+01    1.233505e+00
  1.867383e+01    1.219129e+00
  1.868971e+01    1.209650e+00
  1.870558e+01    1.231645e+00
  1.872146e+01    1.232102e+00
  1.873733e+01    1.224725e+00
  1.875321e+01    1.229366e+00
  1.876908e+01    1.220604e+00
  1.878496e+01    1.200375e+00
  1.880084e+01    1.191291e+00
  1.881671e+01    1.207221e+00
  1.883259e+01    1.199355e+00
  1.884846e+01    1.215714e+00
  1.886434e+01    1.175906e+00
  1.888021e+01    1.188967e+00
  1.889609e+01    1.189076e+00
  1.891196e+01    1.185661e+00
  1.892784e+01    1.195242e+00
  1.894372e+01    1.199164e+00
  1.895959e+01    1.211275e+00
  1.897547e+01    1.189756e+00
  1.899134e+01    1.212471e+00
  1.900722e+01    1.218384e+00
  1.902309e+01    1.187029e+00
  1.903897e+01    1.186486e+00
  1.905484e+01    1.197214e+00
  1.907072e+01    1.202236e+00
  1.908660e+01    1.208509e+00
  1.910247e+01    1.208853e+00
  1.911835e+01    1.169043e+00
  1.913422e+01    1.136039e+00
  1.915010e+01    1.144743e+00
  1.916597e+01    1.165137e+00
  1.918185e+01    1.199979e+00
  1.919773e+01    1.181868e+00
  1.921360e+01    1.175308e+00
  1.922948e+01    1.175476e+00
  1.924535e+01    1.163476e+00
  1.926123e+01    1.165729e+00
  1.927710e+01    1.177181e+00
  1.929298e+01    1.164416e+00
  1.930885e+01    1.156552e+00
  1.932473e+01    1.180995e+00
  1.934061e+01    1.168527e+00
  1.935648e+01    1.181959e+00
  1.937236e+01    1.177216e+00
  1.938823e+01    1.165266e+00
  1.940411e+01    1.170352e+00
  1.941998e+01    1.184340e+00
  1.943586e+01    1.163284e+00
  1.945173e+01    1.141686e+00
  1.946761e+01    1.176543e+00
  1.948349e+01    1.168248e+00
  1.949936e+01    1.169859e+00
  1.951524e+01    1.156094e+00
  1.953111e+01    1.153461e+00
  1.954699e+01    1.163437e+00
  1.956286e+01    1.156664e+00
  1.957874e+01    1.130204e+00
  1.959461e+01    1.125296e+00
  1.961049e+01    1.139048e+00
  1.962637e+01    1.125467e+00
  1.964224e+01    1.129534e+00
  1.965812e+01    1.116776e+00
  1.967399e+01    1.140172e+00
  1.968987e+01    1.122950e+00
  1.970574e+01    1.133756e+00
  1.972162e+01    1.125932e+00
  1.973749e+01    1.111134e+00
  1.975337e+01    1.126897e+00
  1.976925e+01    1.137676e+00
  1.978512e+01    1.135192e+00
  1.980100e+01    1.156310e+00
  1.981687e+01    1.126164e+00
  1.983275e+01    1.145021e+00
  1.984862e+01    1.141677e+00
  1.986450e+01    1.108451e+00
  1.988037e+01    1.123571e+00
  1.989625e+01    1.104241e+00
  1.991213e+01    1.104475e+00
  1.992800e+01    1.098908e+00
  1.994388e+01    1.123627e+00
  1.995975e+01    1.145049e+00
  1.997563e+01    1.131921e+00
  1.999150e+01    1.113432e+00
  2.000738e+01    1.089377e+00
  2.002325e+01    1.101828e+00
  2.003913e+01    1.094234e+00
  2.005501e+01    1.097564e+00
  2.007088e+01    1.112207e+00
  2.008676e+01    1.104484e+00
  2.010263e+01    1.110075e+00
  2.011851e+01    1.106296e+00
  2.013438e+01    1.103410e+00
  2.015026e+01    1.104046e+00
  2.016614e+01    1.110737e+00
  2.018201e+01    1.084130e+00
  2.019789e+01    1.076208e+00
  2.021376e+01    1.106835e+00
  2.022964e+01    1.096876e+00
  2.024551e+01    1.086644e+00
  2.026139e+01    1.098800e+00
  2.027726e+01    1.109008e+00
  2.029314e+01    1.103648e+00
  2.030902e+01    1.093912e+00
  2.032489e+01    1.087286e+00
  2.034077e+01    1.081409e+00
  2.035664e+01    1.072783e+00
  2.037252e+01    1.068869e+00
  2.038839e+01    1.084930e+00
  2.040427e+01    1.083072e+00
  2.042014e+01    1.075408e+00
  2.043602e+01    1.082420e+00
  2.045190e+01    1.097153e+00
  2.046777e+01    1.107600e+00
  2.048365e+01    1.084901e+00
  2.049952e+01    1.085706e+00
  2.051540e+01    1.065726e+00
  2.053127e+01    1.065807e+00
  2.054715e+01    1.076496e+00
  2.056302e+01    1.068603e+00
  2.057890e+01    1.058377e+00
  2.059478e+01    1.067050e+00
  2.061065e+01    1.041648e+00
  2.062653e+01    1.069428e+00
  2.064240e+01    1.083198e+00
  2.065828e+01    1.055424e+00
  2.067415e+01    1.061318e+00
  2.069003e+01    1.066473e+00
  2.070590e+01    1.066746e+00
  2.072178e+01    1.071094e+00
  2.073766e+01    1.061622e+00
  2.075353e+01    1.081920e+00
  2.076941e+01    1.076908e+00
  2.078528e+01    1.053659e+00
  2.080116e+01    1.051196e+00
  2.081703e+01    1.050635e+00
  2.083291e+01    1.074704e+00
  2.084878e+01    1.073308e+00
  2.086466e+01    1.062765e+00
  2.088054e+01    1.072753e+00
  2.089641e+01    1.064811e+00
  2.091229e+01    1.083156e+00
  2.092816e+01    1.103767e+00
  2.094404e+01    1.075442e+00
  2.095991e+01    1.083674e+00
  2.097579e+01    1.067331e+00
  2.099166e+01    1.074039e+00
  2.100754e+01    1.093233e+00
  2.102342e+01    1.075254e+00
  2.103929e+01    1.068000e+00
  2.105517e+01    1.062587e+00
  2.107104e+01    1.062026e+00
  2.108692e+01    1.058295e+00
  2.110279e+01    1.057047e+00
  2.111867e+01    1.051189e+00
  2.113455e+01    1.076635e+00
  2.115042e+01    1.063624e+00
  2.116630e+01    1.063300e+00
  2.118217e+01    1.079068e+00
  2.119805e+01    1.091792e+00
  2.121392e+01    1.075990e+00
  2.122980e+01    1.079872e+00
  2.124567e+01    1.101790e+00
  2.126155e+01    1.096397e+00
  2.127743e+01    1.108258e+00
  2.129330e+01    1.117883e+00
  2.130918e+01    1.122585e+00
  2.132505e+01    1.142523e+00
  2.134093e+01    1.116749e+00
  2.135680e+01    1.118707e+00
  2.137268e+01    1.143781e+00
  2.138855e+01    1.170094e+00
  2.140443e+01    1.177571e+00
  2.142031e+01    1.180322e+00
  2.143618e+01    1.194475e+00
  2.145206e+01    1.205732e+00
  2.146793e+01    1.221929e+00
  2.148381e+01    1.234312e+00
  2.149968e+01    1.272490e+00
  2.151556e+01    1.308241e+00
  2.153143e+01    1.309283e+00
  2.154731e+01    1.375808e+00
  2.156319e+01    1.404386e+00
  2.157906e+01    1.448360e+00
  2.159494e+01    1.509938e+00
  2.161081e+01    1.599423e+00
  2.162669e+01    1.693343e+00
  2.164256e+01    1.783495e+00
  2.165844e+01    1.907891e+00
  2.167431e+01    2.099769e+00
  2.169019e+01    2.320395e+00
  2.170607e+01    2.551233e+00
  2.172194e+01    2.851935e+00
  2.173782e+01    3.212507e+00
  2.175369e+01    3.686553e+00
  2.176957e+01    4.241739e+00
  2.178544e+01    4.883610e+00
  2.180132e+01    5.479044e+00
  2.181719e+01    6.173615e+00
  2.183307e+01    6.848521e+00
  2.184895e+01    7.578042e+00
  2.186482e+01    8.357922e+00
  2.188070e+01    8.881340e+00
  2.189657e+01    9.215463e+00
  2.191245e+01    9.246778e+00
  2.192832e+01    8.878825e+00
  2.194420e+01    8.194518e+00
  2.196007e+01    7.288358e+00
  2.197595e+01    6.297169e+00
  2.199183e+01    5.307384e+00
  2.200770e+01    4.469382e+00
  2.202358e+01    3.832290e+00
  2.203945e+01    3.299547e+00
  2.205533e+01    2.876329e+00
  2.207120e+01    2.576541e+00
  2.208708e+01    2.301037e+00
  2.210296e+01    2.141855e+00
  2.211883e+01    1.956364e+00
  2.213471e+01    1.794834e+00
  2.215058e+01    1.696153e+00
  2.216646e+01    1.604246e+00
  2.218233e+01    1.501788e+00
  2.219821e+01    1.434245e+00
  2.221408e+01    1.367105e+00
  2.222996e+01    1.305104e+00
  2.224584e+01    1.269137e+00
  2.226171e+01    1.274414e+00
  2.227759e+01    1.219810e+00
  2.229346e+01    1.169010e+00
  2.230934e+01    1.158326e+00
  2.232521e+01    1.134734e+00
  2.234109e+01    1.123073e+00
  2.235696e+01    1.127713e+00
  2.237284e+01    1.119928e+00
  2.238872e+01    1.067367e+00
  2.240459e+01    1.053442e+00
  2.242047e+01    1.062790e+00
  2.243634e+01    1.060273e+00
  2.245222e+01    1.047616e+00
  2.246809e+01    1.048649e+00
  2.248397e+01    1.047327e+00
  2.249984e+01    1.020936e+00
  2.251572e+01    9.961846e-01
  2.253160e+01    9.851882e-01
  2.254747e+01    9.882250e-01
  2.256335e+01    9.847085e-01
  2.257922e+01    9.715468e-01
  2.259510e+01    9.916377e-01
  2.261097e+01    9.682642e-01
  2.262685e+01    9.491008e-01
  2.264272e+01    9.504113e-01
  2.265860e+01    9.461527e-01
  2.267448e+01    9.673894e-01
  2.269035e+01    9.539471e-01
  2.270623e+01    9.474958e-01
  2.272210e+01    9.455581e-01
  2.273798e+01    9.340540e-01
  2.275385e+01    9.350532e-01
  2.276973e+01    9.189267e-01
  2.278560e+01    9.117619e-01
  2.280148e+01    9.378979e-01
  2.281736e+01    9.304858e-01
  2.283323e+01    9.289559e-01
  2.284911e+01    9.112728e-01
  2.286498e+01    9.017860e-01
  2.288086e+01    8.977040e-01
  2.289673e+01    8.919740e-01
  2.291261e+01    9.098879e-01
  2.292848e+01    9.049106e-01
  2.294436e+01    9.095782e-01
  2.296024e+01    8.877155e-01
  2.297611e+01    8.756415e-01
  2.299199e+01    8.828370e-01
  2.300786e+01    8.713973e-01
  2.302374e+01    8.875992e-01
  2.303961e+01    8.873286e-01
  2.305549e+01    8.952169e-01
  2.307137e+01    8.851723e-01
  2.308724e+01    8.774987e-01
  2.310312e+01    8.811966e-01
  2.311899e+01    8.615897e-01
  2.313487e+01    8.764474e-01
  2.315074e+01    8.814329e-01
  2.316662e+01    8.848023e-01
  2.318249e+01    8.741696e-01
  2.319837e+01    8.812788e-01
  2.321425e+01    8.788142e-01
  2.323012e+01    8.690763e-01
  2.324600e+01    8.704798e-01
  2.326187e+01    8.558691e-01
  2.327775e+01    8.672720e-01
  2.329362e+01    8.636929e-01
  2.330950e+01    8.744844e-01
  2.332537e+01    8.517743e-01
  2.334125e+01    8.593436e-01
  2.335713e+01    8.548242e-01
  2.337300e+01    8.663818e-01
  2.338888e+01    8.503438e-01
  2.340475e+01    8.477077e-01
  2.342063e+01    8.733153e-01
  2.343650e+01    8.404425e-01
  2.345238e+01    8.468890e-01
  2.346825e+01    8.551705e-01
  2.348413e+01    8.535816e-01
  2.350001e+01    8.276595e-01
  2.351588e+01    8.438243e-01
  2.353176e+01    8.410017e-01
  2.354763e+01    8.451914e-01
  2.356351e+01    8.472678e-01
  2.357938e+01    8.450033e-01
  2.359526e+01    8.622037e-01
  2.361113e+01    8.455443e-01
  2.362701e+01    8.353435e-01
  2.364289e+01    8.487113e-01
  2.365876e+01    8.224235e-01
  2.367464e+01    8.145723e-01
  2.369051e+01    8.156475e-01
  2.370639e+01    8.135949e-01
  2.372226e+01    8.238833e-01
  2.373814e+01    8.224657e-01
  2.375401e+01    8.102369e-01
  2.376989e+01    8.105984e-01
  2.378577e+01    8.198347e-01
  2.380164e+01    8.214588e-01
  2.381752e+01    8.077563e-01
  2.383339e+01    8.067133e-01
  2.384927e+01    8.092015e-01
  2.386514e+01    7.833714e-01
  2.388102e+01    7.790077e-01
  2.389689e+01    7.962840e-01
  2.391277e+01    7.950364e-01
  2.392865e+01    8.061466e-01
  2.394452e+01    7.761782e-01
  2.396040e+01    7.758726e-01
  2.397627e+01    7.862865e-01
  2.399215e+01    7.724319e-01
  2.400802e+01    7.783560e-01
  2.402390e+01    7.901161e-01
  2.403978e+01    7.830558e-01
  2.405565e+01    7.897196e-01
  2.407153e+01    7.843966e-01
  2.408740e+01    7.696928e-01
  2.410328e+01    7.839067e-01
  2.411915e+01    7.911032e-01
  2.413503e+01    7.946478e-01
  2.415090e+01    7.768993e-01
  2.416678e+01    7.774872e-01
  2.418266e+01    7.818960e-01
  2.419853e+01    7.583755e-01
  2.421441e+01    7.647178e-01
  2.423028e+01    7.740687e-01
  2.424616e+01    7.622117e-01
  2.426203e+01    7.779763e-01
  2.427791e+01    7.936495e-01
  2.429378e+01    7.938290e-01
  2.430966e+01    7.904368e-01
  2.432554e+01    7.873154e-01
  2.434141e+01    7.855056e-01
  2.435729e+01    7.731709e-01
  2.437316e+01    7.865116e-01
  2.438904e+01    7.708505e-01
  2.440491e+01    7.896559e-01
  2.442079e+01    7.857593e-01
  2.443666e+01    7.857214e-01
  2.445254e+01    7.759269e-01
  2.446842e+01    7.888349e-01
  2.448429e+01    7.929915e-01
  2.450017e+01    7.903209e-01
  2.451604e+01    7.815720e-01
  2.453192e+01    7.613785e-01
  2.454779e+01    7.634874e-01
  2.456367e+01    7.855803e-01
  2.457954e+01    7.890634e-01
  2.459542e+01    7.951825e-01
  2.461130e+01    7.918690e-01
  2.462717e+01    7.812085e-01
  2.464305e+01    7.682373e-01
  2.465892e+01    7.841787e-01
  2.467480e+01    7.842592e-01
  2.469067e+01    7.745093e-01
  2.470655e+01    7.881606e-01
  2.472242e+01    7.842999e-01
  2.473830e+01    7.764428e-01
  2.475418e+01    7.897486e-01
  2.477005e+01    7.895884e-01
  2.478593e+01    7.767852e-01
  2.480180e+01    7.649254e-01
  2.481768e+01    7.823158e-01
  2.483355e+01    7.795702e-01
  2.484943e+01    7.683846e-01
  2.486530e+01    7.868949e-01
  2.488118e+01    8.021929e-01
  2.489706e+01    7.929799e-01
  2.491293e+01    7.870414e-01
  2.492881e+01    7.832505e-01
  2.494468e+01    7.886517e-01
  2.496056e+01    7.821067e-01
  2.497643e+01    7.874501e-01
  2.499231e+01    8.048651e-01
  2.500819e+01    7.834170e-01
  2.502406e+01    7.921630e-01
  2.503994e+01    8.093153e-01
  2.505581e+01    7.859305e-01
  2.507169e+01    7.929171e-01
  2.508756e+01    7.990267e-01
  2.510344e+01    8.004993e-01
  2.511931e+01    8.109410e-01
  2.513519e+01    8.217309e-01
  2.515107e+01    8.222448e-01
  2.516694e+01    8.254325e-01
  2.518282e+01    8.384906e-01
  2.519869e+01    8.163626e-01
  2.521457e+01    8.344938e-01
  2.523044e+01    8.410432e-01
  2.524632e+01    8.301319e-01
  2.526219e+01    8.396462e-01
  2.527807e+01    8.411689e-01
  2.529395e+01    8.602218e-01
  2.530982e+01    8.692498e-01
  2.532570e+01    8.684437e-01
  2.534157e+01    8.761368e-01
  2.535745e+01    8.845174e-01
  2.537332e+01    8.779563e-01
  2.538920e+01    8.980649e-01
  2.540507e+01    8.968062e-01
  2.542095e+01    9.051551e-01
  2.543683e+01    9.056785e-01
  2.545270e+01    9.062369e-01
  2.546858e+01    9.236010e-01
  2.548445e+01    9.546812e-01
  2.550033e+01    9.512572e-01
  2.551620e+01    9.777473e-01
  2.553208e+01    9.974397e-01
  2.554795e+01    1.021457e+00
  2.556383e+01    1.019092e+00
  2.557971e+01    1.048683e+00
  2.559558e+01    1.097213e+00
  2.561146e+01    1.134287e+00
  2.562733e+01    1.156044e+00
  2.564321e+01    1.192779e+00
  2.565908e+01    1.246690e+00
  2.567496e+01    1.293320e+00
  2.569083e+01    1.388741e+00
  2.570671e+01    1.493168e+00
  2.572259e+01    1.602517e+00
  2.573846e+01    1.675953e+00
  2.575434e+01    1.856491e+00
  2.577021e+01    2.050582e+00
  2.578609e+01    2.297935e+00
  2.580196e+01    2.596573e+00
  2.581784e+01    2.941708e+00
  2.583371e+01    3.359761e+00
  2.584959e+01    3.846143e+00
  2.586547e+01    4.415396e+00
  2.588134e+01    5.039702e+00
  2.589722e+01    5.651939e+00
  2.591309e+01    6.275433e+00
  2.592897e+01    6.844870e+00
  2.594484e+01    7.266665e+00
  2.596072e+01    7.519528e+00
  2.597660e+01    7.576844e+00
  2.599247e+01    7.377518e+00
  2.600835e+01    6.899693e+00
  2.602422e+01    6.093071e+00
  2.604010e+01    5.238132e+00
  2.605597e+01    4.522932e+00
  2.607185e+01    3.879092e+00
  2.608772e+01    3.295001e+00
  2.610360e+01    2.907577e+00
  2.611948e+01    2.537527e+00
  2.613535e+01    2.268650e+00
  2.615123e+01    1.999969e+00
  2.616710e+01    1.855384e+00
  2.618298e+01    1.714299e+00
  2.619885e+01    1.590510e+00
  2.621473e+01    1.479239e+00
  2.623060e+01    1.373312e+00
  2.624648e+01    1.303535e+00
  2.626236e+01    1.247752e+00
  2.627823e+01    1.191431e+00
  2.629411e+01    1.153133e+00
  2.630998e+01    1.134942e+00
  2.632586e+01    1.099391e+00
  2.634173e+01    1.056161e+00
  2.635761e+01    1.012578e+00
  2.637348e+01    9.971192e-01
  2.638936e+01    9.934916e-01
  2.640524e+01    1.003613e+00
  2.642111e+01    9.654657e-01
  2.643699e+01    9.626426e-01
  2.645286e+01    9.620304e-01
  2.646874e+01    9.461868e-01
  2.648461e+01    9.564504e-01
  2.650049e+01    9.514254e-01
  2.651636e+01    9.199719e-01
  2.653224e+01    8.977134e-01
  2.654812e+01    9.141523e-01
  2.656399e+01    9.082984e-01
  2.657987e+01    8.978166e-01
  2.659574e+01    8.987088e-01
  2.661162e+01    8.927150e-01
  2.662749e+01    9.026601e-01
  2.664337e+01    9.060723e-01
  2.665924e+01    8.853995e-01
  2.667512e+01    8.817583e-01
  2.669100e+01    8.819628e-01
  2.670687e+01    8.582692e-01
  2.672275e+01    8.722314e-01
  2.673862e+01    8.577693e-01
  2.675450e+01    8.611409e-01
  2.677037e+01    8.818595e-01
  2.678625e+01    8.705090e-01
  2.680212e+01    8.701653e-01
  2.681800e+01    8.977380e-01
  2.683388e+01    9.121746e-01
  2.684975e+01    9.101564e-01
  2.686563e+01    9.055105e-01
  2.688150e+01    9.126824e-01
  2.689738e+01    9.183388e-01
  2.691325e+01    9.232510e-01
  2.692913e+01    9.118043e-01
  2.694501e+01    9.580311e-01
  2.696088e+01    9.712352e-01
  2.697676e+01    9.756660e-01
  2.699263e+01    9.997391e-01
  2.700851e+01    1.026189e+00
  2.702438e+01    1.042774e+00
  2.704026e+01    1.087786e+00
  2.705613e+01    1.177922e+00
  2.707201e+01    1.220813e+00
  2.708789e+01    1.263081e+00
  2.710376e+01    1.370450e+00
  2.711964e+01    1.488575e+00
  2.713551e+01    1.633502e+00
  2.715139e+01    1.759867e+00
  2.716726e+01    1.886530e+00
  2.718314e+01    2.000389e+00
  2.719901e+01    2.170716e+00
  2.721489e+01    2.246370e+00
  2.723077e+01    2.261261e+00
  2.724664e+01    2.195669e+00
  2.726252e+01    2.105534e+00
  2.727839e+01    2.012415e+00
  2.729427e+01    1.786727e+00
  2.731014e+01    1.631998e+00
  2.732602e+01    1.490728e+00
  2.734189e+01    1.374919e+00
  2.735777e+01    1.305358e+00
  2.737365e+01    1.219897e+00
  2.738952e+01    1.149160e+00
  2.740540e+01    1.061758e+00
  2.742127e+01    1.030878e+00
  2.743715e+01    1.012956e+00
  2.745302e+01    9.793985e-01
  2.746890e+01    9.453178e-01
  2.748477e+01    9.379548e-01
  2.750065e+01    9.239613e-01
  2.751653e+01    8.872952e-01
  2.753240e+01    8.802413e-01
  2.754828e+01    8.819540e-01
  2.756415e+01    8.715030e-01
  2.758003e+01    8.630724e-01
  2.759590e+01    8.539741e-01
  2.761178e+01    8.459954e-01
  2.762765e+01    8.319324e-01
  2.764353e+01    8.251748e-01
  2.765941e+01    8.163319e-01
  2.767528e+01    8.144323e-01
  2.769116e+01    8.263581e-01
  2.770703e+01    8.027365e-01
  2.772291e+01    8.242406e-01
  2.773878e+01    8.380334e-01
  2.775466e+01    8.321750e-01
  2.777054e+01    7.823737e-01
  2.778641e+01    7.928250e-01
  2.780229e+01    7.998267e-01
  2.781816e+01    7.948864e-01
  2.783404e+01    8.119822e-01
  2.784991e+01    8.109386e-01
  2.786579e+01    8.118843e-01
  2.788166e+01    7.824311e-01
  2.789754e+01    8.017676e-01
  2.791342e+01    7.942452e-01
  2.792929e+01    7.952743e-01
  2.794517e+01    7.872380e-01
  2.796104e+01    7.880781e-01
  2.797692e+01    7.947659e-01
  2.799279e+01    7.880397e-01
  2.800867e+01    7.955663e-01
  2.802454e+01    7.876186e-01
  2.804042e+01    7.678427e-01
  2.805630e+01    7.813697e-01
  2.807217e+01    7.816476e-01
  2.808805e+01    7.751746e-01
  2.810392e+01    7.843919e-01
  2.811980e+01    7.742925e-01
  2.813567e+01    7.668082e-01
  2.815155e+01    7.810644e-01
  2.816742e+01    7.875548e-01
  2.818330e+01    7.626808e-01
  2.819918e+01    7.630670e-01
  2.821505e+01    7.666179e-01
  2.823093e+01    7.579487e-01
  2.824680e+01    7.587258e-01
  2.826268e+01    7.513429e-01
  2.827855e+01    7.404115e-01
  2.829443e+01    7.647995e-01
  2.831030e+01    7.692469e-01
  2.832618e+01    7.634063e-01
  2.834206e+01    7.576789e-01
  2.835793e+01    7.704881e-01
  2.837381e+01    7.283738e-01
  2.838968e+01    7.421752e-01
  2.840556e+01    7.475773e-01
  2.842143e+01    7.612909e-01
  2.843731e+01    7.523512e-01
  2.845318e+01    7.427459e-01
  2.846906e+01    7.472842e-01
  2.848494e+01    7.631632e-01
  2.850081e+01    7.506930e-01
  2.851669e+01    7.462185e-01
  2.853256e+01    7.506469e-01
  2.854844e+01    7.352733e-01
  2.856431e+01    7.272916e-01
  2.858019e+01    7.322417e-01
  2.859606e+01    7.527114e-01
  2.861194e+01    7.582470e-01
  2.862782e+01    7.348092e-01
  2.864369e+01    7.621064e-01
  2.865957e+01    7.482749e-01
  2.867544e+01    7.458743e-01
  2.869132e+01    7.377432e-01
  2.870719e+01    7.437102e-01
  2.872307e+01    7.510403e-01
  2.873895e+01    7.683908e-01
  2.875482e+01    7.362609e-01
  2.877070e+01    7.471186e-01
  2.878657e+01    7.486165e-01
  2.880245e+01    7.476672e-01
  2.881832e+01    7.412169e-01
  2.883420e+01    7.660447e-01
  2.885007e+01    7.231067e-01
  2.886595e+01    7.369450e-01
  2.888183e+01    7.286961e-01
  2.889770e+01    7.380188e-01
  2.891358e+01    7.472068e-01
  2.892945e+01    7.598861e-01
  2.894533e+01    7.478127e-01
  2.896120e+01    7.381888e-01
  2.897708e+01    7.262394e-01
  2.899295e+01    7.160242e-01
  2.900883e+01    7.423715e-01
  2.902471e+01    7.272650e-01
  2.904058e+01    7.272196e-01
  2.905646e+01    7.282627e-01
  2.907233e+01    7.363696e-01
  2.908821e+01    7.291636e-01
  2.910408e+01    7.339173e-01
  2.911996e+01    7.192010e-01
  2.913583e+01    7.261361e-01
  2.915171e+01    7.363707e-01
  2.916759e+01    7.325721e-01
  2.918346e+01    7.289374e-01
  2.919934e+01    7.295968e-01
  2.921521e+01    7.179652e-01
  2.923109e+01    7.127595e-01
  2.924696e+01    7.223398e-01
  2.926284e+01    7.160771e-01
  2.927871e+01    7.049248e-01
  2.929459e+01    7.096347e-01
  2.931047e+01    7.078090e-01
  2.932634e+01    7.189403e-01
  2.934222e+01    7.362692e-01
  2.935809e+01    7.342442e-01
  2.937397e+01    7.301273e-01
  2.938984e+01    7.079862e-01
  2.940572e+01    7.137756e-01
  2.942159e+01    7.319695e-01
  2.943747e+01    7.206717e-01
  2.945335e+01    7.056072e-01
  2.946922e+01    6.996540e-01
  2.948510e+01    7.074772e-01
  2.950097e+01    7.253227e-01
  2.951685e+01    7.064507e-01
  2.953272e+01    7.087770e-01
  2.954860e+01    7.209104e-01
  2.956447e+01    7.272605e-01
  2.958035e+01    7.098945e-01
  2.959623e+01    7.139964e-01
  2.961210e+01    7.277327e-01
  2.962798e+01    7.103319e-01
  2.964385e+01    7.257917e-01
  2.965973e+01    7.046623e-01
  2.967560e+01    7.147307e-01
  2.969148e+01    7.180237e-01
  2.970736e+01    7.078707e-01
  2.972323e+01    7.116929e-01
  2.973911e+01    7.301590e-01
  2.975498e+01    7.134858e-01
  2.977086e+01    7.039825e-01
  2.978673e+01    7.256786e-01
  2.980261e+01    7.133035e-01
  2.981848e+01    7.146441e-01
  2.983436e+01    7.119756e-01
  2.985024e+01    7.255929e-01
  2.986611e+01    7.204267e-01
  2.988199e+01    7.121381e-01
  2.989786e+01    7.061247e-01
  2.991374e+01    7.138770e-01
  2.992961e+01    7.197269e-01
  2.994549e+01    7.207586e-01
  2.996136e+01    7.219861e-01
  2.997724e+01    7.368181e-01
  2.999312e+01    7.386185e-01
  3.000899e+01    7.314670e-01
  3.002487e+01    7.325368e-01
  3.004074e+01    7.245510e-01
  3.005662e+01    7.180551e-01
  3.007249e+01    7.354380e-01
  3.008837e+01    7.423915e-01
  3.010424e+01    6.942518e-01
  3.012012e+01    7.058813e-01
  3.013600e+01    7.290364e-01
  3.015187e+01    7.360933e-01
  3.016775e+01    7.221721e-01
  3.018362e+01    6.990421e-01
  3.019950e+01    6.992243e-01
  3.021537e+01    7.110539e-01
  3.023125e+01    7.066481e-01
  3.024712e+01    7.198702e-01
  3.026300e+01    6.989416e-01
  3.027888e+01    7.054715e-01
  3.029475e+01    7.076527e-01
  3.031063e+01    7.105174e-01
  3.032650e+01    7.127897e-01
  3.034238e+01    7.013596e-01
  3.035825e+01    6.860811e-01
  3.037413e+01    7.016062e-01
  3.039000e+01    6.931743e-01
  3.040588e+01    6.967296e-01
  3.042176e+01    7.049025e-01
  3.043763e+01    7.050498e-01
  3.045351e+01    6.817018e-01
  3.046938e+01    6.960007e-01
  3.048526e+01    7.026381e-01
  3.050113e+01    7.098399e-01
  3.051701e+01    7.037882e-01
  3.053288e+01    6.987494e-01
  3.054876e+01    7.210211e-01
  3.056464e+01    7.178985e-01
  3.058051e+01    6.917297e-01
  3.059639e+01    7.113097e-01
  3.061226e+01    7.115651e-01
  3.062814e+01    7.047012e-01
  3.064401e+01    7.023457e-01
  3.065989e+01    6.801125e-01
  3.067577e+01    6.862809e-01
  3.069164e+01    7.115740e-01
  3.070752e+01    7.056218e-01
  3.072339e+01    7.003450e-01
  3.073927e+01    7.062185e-01
  3.075514e+01    7.035522e-01
  3.077102e+01    6.919752e-01
  3.078689e+01    7.059537e-01
  3.080277e+01    7.020807e-01
  3.081865e+01    7.076355e-01
  3.083452e+01    6.951798e-01
  3.085040e+01    7.118564e-01
  3.086627e+01    7.135929e-01
  3.088215e+01    7.090428e-01
  3.089802e+01    7.086306e-01
  3.091390e+01    6.917922e-01
  3.092977e+01    6.781372e-01
  3.094565e+01    7.048539e-01
  3.096153e+01    7.151783e-01
  3.097740e+01    7.294975e-01
  3.099328e+01    7.052186e-01
  3.100915e+01    7.009953e-01
  3.102503e+01    7.122052e-01
  3.104090e+01    7.067560e-01
  3.105678e+01    7.316822e-01
  3.107265e+01    7.194904e-01
  3.108853e+01    7.213565e-01
  3.110441e+01    7.298639e-01
  3.112028e+01    7.214188e-01
  3.113616e+01    7.138808e-01
  3.115203e+01    7.177960e-01
  3.116791e+01    7.154567e-01
  3.118378e+01    7.166415e-01
  3.119966e+01    7.284141e-01
  3.121553e+01    7.075180e-01
  3.123141e+01    7.365525e-01
  3.124729e+01    7.358507e-01
  3.126316e+01    7.265757e-01
  3.127904e+01    7.288089e-01
  3.129491e+01    7.370048e-01
  3.131079e+01    7.346397e-01
  3.132666e+01    7.319593e-01
  3.134254e+01    7.429353e-01
  3.135841e+01    7.264614e-01
  3.137429e+01    7.163092e-01
  3.139017e+01    7.471234e-01
  3.140604e+01    7.411267e-01
  3.142192e+01    7.468551e-01
  3.143779e+01    7.431147e-01
  3.145367e+01    7.477512e-01
  3.146954e+01    7.433542e-01
  3.148542e+01    7.569549e-01
  3.150129e+01    7.659670e-01
  3.151717e+01    7.405903e-01
  3.153305e+01    7.570754e-01
  3.154892e+01    7.553010e-01
  3.156480e+01    7.568525e-01
  3.158067e+01    7.780030e-01
  3.159655e+01    8.027520e-01
  3.161242e+01    8.220823e-01
  3.162830e+01    8.354318e-01
  3.164418e+01    8.575727e-01
  3.166005e+01    8.834293e-01
  3.167593e+01    8.985105e-01
  3.169180e+01    9.172573e-01
  3.170768e+01    9.447917e-01
  3.172355e+01    9.716778e-01
  3.173943e+01    1.028143e+00
  3.175530e+01    1.102977e+00
  3.177118e+01    1.216482e+00
  3.178706e+01    1.288299e+00
  3.180293e+01    1.364980e+00
  3.181881e+01    1.497766e+00
  3.183468e+01    1.654917e+00
  3.185056e+01    1.808762e+00
  3.186643e+01    1.928657e+00
  3.188231e+01    2.058925e+00
  3.189818e+01    2.191526e+00
  3.191406e+01    2.242382e+00
  3.192994e+01    2.190150e+00
  3.194581e+01    2.121851e+00
  3.196169e+01    2.000995e+00
  3.197756e+01    1.852693e+00
  3.199344e+01    1.706562e+00
  3.200931e+01    1.548842e+00
  3.202519e+01    1.397389e+00
  3.204106e+01    1.262385e+00
  3.205694e+01    1.190906e+00
  3.207282e+01    1.111589e+00
  3.208869e+01    1.043662e+00
  3.210457e+01    1.011230e+00
  3.212044e+01    9.307390e-01
  3.213632e+01    9.131652e-01
  3.215219e+01    8.609725e-01
  3.216807e+01    8.417248e-01
  3.218394e+01    8.324762e-01
  3.219982e+01    8.245762e-01
  3.221570e+01    8.086190e-01
  3.223157e+01    8.061331e-01
  3.224745e+01    7.962731e-01
  3.226332e+01    7.721046e-01
  3.227920e+01    7.888654e-01
  3.229507e+01    7.728581e-01
  3.231095e+01    7.284592e-01
  3.232682e+01    7.364635e-01
  3.234270e+01    7.393957e-01
  3.235858e+01    7.379454e-01
  3.237445e+01    7.192218e-01
  3.239033e+01    7.246729e-01
  3.240620e+01    7.321377e-01
  3.242208e+01    7.461212e-01
  3.243795e+01    7.440788e-01
  3.245383e+01    7.141422e-01
  3.246970e+01    7.316117e-01
  3.248558e+01    7.236059e-01
  3.250146e+01    7.091940e-01
  3.251733e+01    7.137091e-01
  3.253321e+01    6.993669e-01
  3.254908e+01    7.205275e-01
