# == pyFAI calibration ==
# Distance Sample to Detector: 0.3999999939076516 m
# PONI: 9.750e-02, 1.135e-01 m
# Rotations: -0.000175 0.000000 -0.000000 rad
# 
# == Fit2d calibration ==
# Distance Sample-beamCenter: 400.000 mm
# Center: x=1514.000, y=1300.000 pix
# Tilt: 0.010 deg  TiltPlanRot: 0.010 deg
# 
# Detector Detector	 Spline= None	 PixelSize= 7.500e-05, 7.500e-05 m
#    Detector has a mask: False 
#    Detector has a dark current: False 
#    detector has a flat field: False 
# 
# Wavelength: 6.888e-11 m
# Mask applied: user provided
# Dark current applied: False
# Flat field applied: False
# Polarization factor: 0.99
# Normalization factor: 1.0
# --> /home/myspot/data/2024_07_Rosario/Ru-CGO-ex/2024-07-27_002_Ru-CGO-ex_Activtation_ramp_000002_data_000045.dat
#       q_nm^-1             I 
  2.003187e-02    0.000000e+00
  3.590745e-02    0.000000e+00
  5.178302e-02    2.671064e-02
  6.765859e-02    5.597109e-02
  8.353417e-02    8.786213e-02
  9.940974e-02    3.960410e-02
  1.152853e-01    0.000000e+00
  1.311609e-01    0.000000e+00
  1.470365e-01    6.479705e-03
  1.629120e-01    5.667211e-02
  1.787876e-01    2.980956e-02
  1.946632e-01    8.189864e-03
  2.105388e-01    1.683456e-02
  2.264143e-01    7.195561e-02
  2.422899e-01    5.581893e-02
  2.581655e-01    8.699113e-03
  2.740411e-01    2.461749e-02
  2.899166e-01    4.546897e-02
  3.057922e-01    6.177456e-02
  3.216678e-01    6.088262e-02
  3.375433e-01    4.488191e-02
  3.534189e-01    3.528319e-04
  3.692945e-01    3.645118e-02
  3.851701e-01    3.732231e-02
  4.010456e-01    1.926538e-02
  4.169212e-01    2.703193e-02
  4.327968e-01    4.849964e-02
  4.486724e-01    8.192331e-02
  4.645479e-01    6.533485e-02
  4.804235e-01    4.233106e-02
  4.962991e-01    2.666263e-02
  5.121747e-01    3.437404e-02
  5.280502e-01    3.297081e-02
  5.439258e-01    3.139579e-02
  5.598014e-01    5.310164e-02
  5.756770e-01    4.228737e-02
  5.915525e-01    4.376932e-02
  6.074281e-01    4.014522e-02
  6.233037e-01    3.613400e-02
  6.391793e-01    4.026566e-02
  6.550548e-01    4.168747e-02
  6.709304e-01    1.949330e-02
  6.868060e-01    3.355957e-02
  7.026815e-01    6.203752e-02
  7.185571e-01    3.773423e-02
  7.344327e-01    4.149959e-02
  7.503083e-01    4.770475e-02
  7.661838e-01    7.590118e-02
  7.820594e-01    1.333584e-01
  7.979350e-01    1.532281e-01
  8.138106e-01    1.525073e-01
  8.296861e-01    2.283965e-01
  8.455617e-01    2.836428e-01
  8.614373e-01    3.689767e-01
  8.773129e-01    4.362643e-01
  8.931884e-01    5.416574e-01
  9.090640e-01    5.693221e-01
  9.249396e-01    6.130803e-01
  9.408152e-01    7.909999e-01
  9.566907e-01    8.450328e-01
  9.725663e-01    8.208354e-01
  9.884419e-01    9.347538e-01
  1.004317e+00    1.030767e+00
  1.020193e+00    1.126246e+00
  1.036069e+00    1.128309e+00
  1.051944e+00    1.147024e+00
  1.067820e+00    1.208851e+00
  1.083695e+00    1.282416e+00
  1.099571e+00    1.342835e+00
  1.115446e+00    1.384001e+00
  1.131322e+00    1.402986e+00
  1.147198e+00    1.468806e+00
  1.163073e+00    1.544802e+00
  1.178949e+00    1.453569e+00
  1.194824e+00    1.628433e+00
  1.210700e+00    1.994276e+00
  1.226575e+00    2.047627e+00
  1.242451e+00    2.148930e+00
  1.258327e+00    2.340747e+00
  1.274202e+00    2.355688e+00
  1.290078e+00    2.483308e+00
  1.305953e+00    2.543229e+00
  1.321829e+00    2.648299e+00
  1.337705e+00    2.665034e+00
  1.353580e+00    2.696750e+00
  1.369456e+00    2.869806e+00
  1.385331e+00    2.691528e+00
  1.401207e+00    2.495711e+00
  1.417082e+00    2.689341e+00
  1.432958e+00    2.723020e+00
  1.448834e+00    2.626512e+00
  1.464709e+00    2.681696e+00
  1.480585e+00    2.953785e+00
  1.496460e+00    2.797769e+00
  1.512336e+00    2.877344e+00
  1.528211e+00    2.858562e+00
  1.544087e+00    2.935614e+00
  1.559963e+00    3.017474e+00
  1.575838e+00    3.060327e+00
  1.591714e+00    2.980649e+00
  1.607589e+00    2.995869e+00
  1.623465e+00    3.096671e+00
  1.639340e+00    2.968369e+00
  1.655216e+00    2.869978e+00
  1.671092e+00    2.931997e+00
  1.686967e+00    2.876390e+00
  1.702843e+00    2.838194e+00
  1.718718e+00    2.895163e+00
  1.734594e+00    2.771303e+00
  1.750469e+00    2.755919e+00
  1.766345e+00    2.869725e+00
  1.782221e+00    2.917931e+00
  1.798096e+00    2.888363e+00
  1.813972e+00    2.784863e+00
  1.829847e+00    2.765244e+00
  1.845723e+00    2.782563e+00
  1.861598e+00    2.889191e+00
  1.877474e+00    2.819475e+00
  1.893350e+00    2.716510e+00
  1.909225e+00    2.800844e+00
  1.925101e+00    2.779567e+00
  1.940976e+00    2.870741e+00
  1.956852e+00    2.841183e+00
  1.972727e+00    2.737204e+00
  1.988603e+00    2.759167e+00
  2.004479e+00    2.809172e+00
  2.020354e+00    2.760399e+00
  2.036230e+00    2.794869e+00
  2.052105e+00    2.785072e+00
  2.067981e+00    2.732628e+00
  2.083856e+00    2.795680e+00
  2.099732e+00    2.636995e+00
  2.115608e+00    2.676289e+00
  2.131483e+00    2.780491e+00
  2.147359e+00    2.731069e+00
  2.163234e+00    2.669743e+00
  2.179110e+00    2.734216e+00
  2.194985e+00    2.746248e+00
  2.210861e+00    2.745683e+00
  2.226737e+00    2.799283e+00
  2.242612e+00    2.717645e+00
  2.258488e+00    2.750382e+00
  2.274363e+00    2.735877e+00
  2.290239e+00    2.792586e+00
  2.306115e+00    2.758303e+00
  2.321990e+00    2.791299e+00
  2.337866e+00    2.686426e+00
  2.353741e+00    2.774142e+00
  2.369617e+00    2.728290e+00
  2.385492e+00    2.803602e+00
  2.401368e+00    2.918196e+00
  2.417244e+00    2.786874e+00
  2.433119e+00    2.841771e+00
  2.448995e+00    2.792310e+00
  2.464870e+00    2.819991e+00
  2.480746e+00    2.843839e+00
  2.496621e+00    2.735463e+00
  2.512497e+00    2.806511e+00
  2.528373e+00    2.808512e+00
  2.544248e+00    2.786949e+00
  2.560124e+00    2.828415e+00
  2.575999e+00    2.882587e+00
  2.591875e+00    2.847872e+00
  2.607750e+00    2.821188e+00
  2.623626e+00    2.804140e+00
  2.639502e+00    2.735897e+00
  2.655377e+00    2.767120e+00
  2.671253e+00    2.816468e+00
  2.687128e+00    2.873949e+00
  2.703004e+00    2.794282e+00
  2.718879e+00    2.793086e+00
  2.734755e+00    2.852953e+00
  2.750631e+00    2.794419e+00
  2.766506e+00    2.874959e+00
  2.782382e+00    2.845329e+00
  2.798257e+00    2.809262e+00
  2.814133e+00    2.716525e+00
  2.830008e+00    2.835961e+00
  2.845884e+00    2.910974e+00
  2.861760e+00    2.863883e+00
  2.877635e+00    2.857200e+00
  2.893511e+00    2.971591e+00
  2.909386e+00    2.911301e+00
  2.925262e+00    2.865001e+00
  2.941137e+00    2.948714e+00
  2.957013e+00    3.023434e+00
  2.972889e+00    2.897544e+00
  2.988764e+00    2.918788e+00
  3.004640e+00    2.872893e+00
  3.020515e+00    2.864125e+00
  3.036391e+00    2.965580e+00
  3.052266e+00    2.904549e+00
  3.068142e+00    2.834991e+00
  3.084018e+00    2.827751e+00
  3.099893e+00    2.747768e+00
  3.115769e+00    2.808618e+00
  3.131644e+00    2.845819e+00
  3.147520e+00    2.974396e+00
  3.163395e+00    3.006588e+00
  3.179271e+00    2.863635e+00
  3.195147e+00    2.916053e+00
  3.211022e+00    2.993972e+00
  3.226898e+00    2.937804e+00
  3.242773e+00    2.876686e+00
  3.258649e+00    2.845394e+00
  3.274525e+00    2.846309e+00
  3.290400e+00    2.909566e+00
  3.306276e+00    2.872550e+00
  3.322151e+00    2.936217e+00
  3.338027e+00    2.924304e+00
  3.353902e+00    2.868574e+00
  3.369778e+00    2.937804e+00
  3.385654e+00    2.916568e+00
  3.401529e+00    2.981143e+00
  3.417405e+00    2.889932e+00
  3.433280e+00    2.894939e+00
  3.449156e+00    2.871643e+00
  3.465031e+00    2.945835e+00
  3.480907e+00    2.875554e+00
  3.496783e+00    2.898867e+00
  3.512658e+00    2.957688e+00
  3.528534e+00    2.939626e+00
  3.544409e+00    2.975864e+00
  3.560285e+00    2.910975e+00
  3.576160e+00    2.874460e+00
  3.592036e+00    2.986014e+00
  3.607912e+00    2.962319e+00
  3.623787e+00    2.984213e+00
  3.639663e+00    3.004088e+00
  3.655538e+00    2.957753e+00
  3.671414e+00    2.949409e+00
  3.687289e+00    2.952794e+00
  3.703165e+00    3.013092e+00
  3.719041e+00    2.990790e+00
  3.734916e+00    2.976389e+00
  3.750792e+00    3.089785e+00
  3.766667e+00    2.988789e+00
  3.782543e+00    2.948156e+00
  3.798418e+00    2.963889e+00
  3.814294e+00    2.920132e+00
  3.830170e+00    3.020723e+00
  3.846045e+00    2.946075e+00
  3.861921e+00    2.969412e+00
  3.877796e+00    3.019859e+00
  3.893672e+00    3.025894e+00
  3.909547e+00    2.994166e+00
  3.925423e+00    2.993322e+00
  3.941299e+00    3.062056e+00
  3.957174e+00    3.072924e+00
  3.973050e+00    3.026961e+00
  3.988925e+00    3.027809e+00
  4.004801e+00    2.983935e+00
  4.020676e+00    3.004081e+00
  4.036552e+00    3.001992e+00
  4.052428e+00    2.993910e+00
  4.068303e+00    3.037977e+00
  4.084179e+00    3.046600e+00
  4.100054e+00    3.057634e+00
  4.115930e+00    3.014557e+00
  4.131806e+00    3.021629e+00
  4.147681e+00    3.018967e+00
  4.163557e+00    3.051945e+00
  4.179432e+00    3.120181e+00
  4.195308e+00    3.096104e+00
  4.211183e+00    3.078763e+00
  4.227059e+00    3.047872e+00
  4.242935e+00    3.019668e+00
  4.258810e+00    3.029975e+00
  4.274686e+00    3.031264e+00
  4.290561e+00    2.970753e+00
  4.306437e+00    2.965272e+00
  4.322312e+00    2.986411e+00
  4.338188e+00    3.051384e+00
  4.354064e+00    3.091158e+00
  4.369939e+00    2.978956e+00
  4.385815e+00    3.008579e+00
  4.401690e+00    3.040113e+00
  4.417566e+00    3.033657e+00
  4.433441e+00    3.036903e+00
  4.449317e+00    3.120340e+00
  4.465193e+00    3.133190e+00
  4.481068e+00    3.120852e+00
  4.496944e+00    3.032357e+00
  4.512819e+00    3.011965e+00
  4.528695e+00    3.053358e+00
  4.544570e+00    3.110871e+00
  4.560446e+00    3.090245e+00
  4.576322e+00    3.096429e+00
  4.592197e+00    3.092796e+00
  4.608073e+00    3.081281e+00
  4.623948e+00    3.053380e+00
  4.639824e+00    3.028482e+00
  4.655699e+00    3.047220e+00
  4.671575e+00    3.083166e+00
  4.687451e+00    3.067135e+00
  4.703326e+00    3.063940e+00
  4.719202e+00    3.057862e+00
  4.735077e+00    3.084394e+00
  4.750953e+00    3.135417e+00
  4.766828e+00    3.149287e+00
  4.782704e+00    3.150306e+00
  4.798580e+00    3.158598e+00
  4.814455e+00    3.117934e+00
  4.830331e+00    3.123380e+00
  4.846206e+00    3.118091e+00
  4.862082e+00    3.134345e+00
  4.877957e+00    3.112193e+00
  4.893833e+00    3.090015e+00
  4.909709e+00    3.101364e+00
  4.925584e+00    3.084724e+00
  4.941460e+00    3.057313e+00
  4.957335e+00    3.090087e+00
  4.973211e+00    3.050440e+00
  4.989086e+00    3.082752e+00
  5.004962e+00    3.150214e+00
  5.020838e+00    3.104717e+00
  5.036713e+00    3.120974e+00
  5.052589e+00    3.129005e+00
  5.068464e+00    3.108821e+00
  5.084340e+00    3.062150e+00
  5.100216e+00    3.045952e+00
  5.116091e+00    3.096952e+00
  5.131967e+00    3.102418e+00
  5.147842e+00    3.081803e+00
  5.163718e+00    3.091680e+00
  5.179593e+00    3.097681e+00
  5.195469e+00    3.121399e+00
  5.211345e+00    3.130944e+00
  5.227220e+00    3.159859e+00
  5.243096e+00    3.153456e+00
  5.258971e+00    3.189926e+00
  5.274847e+00    3.074884e+00
  5.290722e+00    3.075826e+00
  5.306598e+00    3.163559e+00
  5.322474e+00    3.125136e+00
  5.338349e+00    3.104714e+00
  5.354225e+00    3.104450e+00
  5.370100e+00    3.082892e+00
  5.385976e+00    3.123403e+00
  5.401851e+00    3.160627e+00
  5.417727e+00    3.157605e+00
  5.433603e+00    3.205579e+00
  5.449478e+00    3.159666e+00
  5.465354e+00    3.084003e+00
  5.481229e+00    3.025800e+00
  5.497105e+00    3.012304e+00
  5.512980e+00    3.118228e+00
  5.528856e+00    3.069531e+00
  5.544732e+00    3.101715e+00
  5.560607e+00    3.003340e+00
  5.576483e+00    3.070238e+00
  5.592358e+00    3.069041e+00
  5.608234e+00    3.033271e+00
  5.624109e+00    2.992721e+00
  5.639985e+00    3.026149e+00
  5.655861e+00    3.051910e+00
  5.671736e+00    3.079692e+00
  5.687612e+00    3.140831e+00
  5.703487e+00    3.035630e+00
  5.719363e+00    3.018057e+00
  5.735238e+00    3.080915e+00
  5.751114e+00    2.992641e+00
  5.766990e+00    2.972653e+00
  5.782865e+00    3.039360e+00
  5.798741e+00    3.185734e+00
  5.814616e+00    3.137756e+00
  5.830492e+00    3.011873e+00
  5.846367e+00    3.083091e+00
  5.862243e+00    3.122047e+00
  5.878119e+00    3.111029e+00
  5.893994e+00    3.080739e+00
  5.909870e+00    2.988727e+00
  5.925745e+00    2.976412e+00
  5.941621e+00    2.963142e+00
  5.957497e+00    2.992928e+00
  5.973372e+00    3.024722e+00
  5.989248e+00    3.022528e+00
  6.005123e+00    2.959426e+00
  6.020999e+00    2.986212e+00
  6.036874e+00    3.006775e+00
  6.052750e+00    2.987083e+00
  6.068626e+00    2.993682e+00
  6.084501e+00    3.113472e+00
  6.100377e+00    3.091863e+00
  6.116252e+00    3.066177e+00
  6.132128e+00    2.985857e+00
  6.148003e+00    3.067294e+00
  6.163879e+00    3.192453e+00
  6.179755e+00    3.098252e+00
  6.195630e+00    3.008499e+00
  6.211506e+00    3.061829e+00
  6.227381e+00    3.076492e+00
  6.243257e+00    3.018203e+00
  6.259132e+00    3.023463e+00
  6.275008e+00    3.005693e+00
  6.290884e+00    3.006311e+00
  6.306759e+00    3.102052e+00
  6.322635e+00    3.034899e+00
  6.338510e+00    3.016982e+00
  6.354386e+00    3.056790e+00
  6.370261e+00    3.007898e+00
  6.386137e+00    3.045228e+00
  6.402013e+00    3.054075e+00
  6.417888e+00    3.055022e+00
  6.433764e+00    2.969969e+00
  6.449639e+00    2.957770e+00
  6.465515e+00    3.057348e+00
  6.481390e+00    3.062418e+00
  6.497266e+00    3.027711e+00
  6.513142e+00    3.046247e+00
  6.529017e+00    3.101591e+00
  6.544893e+00    3.086367e+00
  6.560768e+00    3.026839e+00
  6.576644e+00    3.036534e+00
  6.592519e+00    3.070637e+00
  6.608395e+00    3.013889e+00
  6.624271e+00    3.054681e+00
  6.640146e+00    3.015417e+00
  6.656022e+00    3.040463e+00
  6.671897e+00    3.082855e+00
  6.687773e+00    3.050078e+00
  6.703648e+00    2.986760e+00
  6.719524e+00    2.954868e+00
  6.735400e+00    3.024542e+00
  6.751275e+00    2.969206e+00
  6.767151e+00    2.911337e+00
  6.783026e+00    3.029328e+00
  6.798902e+00    3.059958e+00
  6.814777e+00    2.971658e+00
  6.830653e+00    2.991994e+00
  6.846529e+00    3.026725e+00
  6.862404e+00    2.988682e+00
  6.878280e+00    2.970379e+00
  6.894155e+00    3.028540e+00
  6.910031e+00    3.045305e+00
  6.925907e+00    3.000118e+00
  6.941782e+00    3.079765e+00
  6.957658e+00    3.053585e+00
  6.973533e+00    3.022413e+00
  6.989409e+00    3.011095e+00
  7.005284e+00    3.031475e+00
  7.021160e+00    2.968260e+00
  7.037036e+00    2.991618e+00
  7.052911e+00    2.986520e+00
  7.068787e+00    2.961981e+00
  7.084662e+00    2.929323e+00
  7.100538e+00    2.969189e+00
  7.116413e+00    3.008221e+00
  7.132289e+00    3.004774e+00
  7.148165e+00    2.920733e+00
  7.164040e+00    2.957063e+00
  7.179916e+00    2.922120e+00
  7.195791e+00    2.929451e+00
  7.211667e+00    2.980074e+00
  7.227542e+00    2.958458e+00
  7.243418e+00    2.971311e+00
  7.259294e+00    3.019449e+00
  7.275169e+00    3.007595e+00
  7.291045e+00    2.948473e+00
  7.306920e+00    3.015379e+00
  7.322796e+00    2.958869e+00
  7.338671e+00    3.000646e+00
  7.354547e+00    2.974384e+00
  7.370423e+00    2.987074e+00
  7.386298e+00    3.059542e+00
  7.402174e+00    2.948288e+00
  7.418049e+00    3.016852e+00
  7.433925e+00    3.051046e+00
  7.449800e+00    3.002137e+00
  7.465676e+00    2.957650e+00
  7.481552e+00    2.982618e+00
  7.497427e+00    2.938034e+00
  7.513303e+00    2.962376e+00
  7.529178e+00    2.991645e+00
  7.545054e+00    2.963068e+00
  7.560929e+00    2.967242e+00
  7.576805e+00    2.939965e+00
  7.592681e+00    2.930548e+00
  7.608556e+00    2.959958e+00
  7.624432e+00    2.954158e+00
  7.640307e+00    2.931682e+00
  7.656183e+00    2.905809e+00
  7.672058e+00    2.902817e+00
  7.687934e+00    3.031862e+00
  7.703810e+00    2.957757e+00
  7.719685e+00    2.941847e+00
  7.735561e+00    2.927221e+00
  7.751436e+00    2.907485e+00
  7.767312e+00    2.962842e+00
  7.783187e+00    2.939819e+00
  7.799063e+00    2.952670e+00
  7.814939e+00    2.882930e+00
  7.830814e+00    2.938712e+00
  7.846690e+00    2.924043e+00
  7.862565e+00    2.913893e+00
  7.878441e+00    2.941508e+00
  7.894317e+00    2.920796e+00
  7.910192e+00    2.988016e+00
  7.926068e+00    2.981649e+00
  7.941943e+00    2.943891e+00
  7.957819e+00    2.901934e+00
  7.973694e+00    2.985848e+00
  7.989570e+00    2.983000e+00
  8.005446e+00    2.906443e+00
  8.021321e+00    2.940844e+00
  8.037197e+00    2.927144e+00
  8.053072e+00    2.913195e+00
  8.068948e+00    2.916541e+00
  8.084823e+00    2.939826e+00
  8.100699e+00    2.958619e+00
  8.116575e+00    2.972769e+00
  8.132450e+00    2.949895e+00
  8.148326e+00    2.962752e+00
  8.164201e+00    2.974977e+00
  8.180077e+00    2.937434e+00
  8.195952e+00    2.933334e+00
  8.211828e+00    2.946908e+00
  8.227704e+00    2.965831e+00
  8.243579e+00    2.920974e+00
  8.259455e+00    2.919720e+00
  8.275330e+00    2.888716e+00
  8.291206e+00    2.832956e+00
  8.307081e+00    2.868527e+00
  8.322957e+00    2.935010e+00
  8.338833e+00    2.963639e+00
  8.354708e+00    2.929530e+00
  8.370584e+00    2.967856e+00
  8.386459e+00    2.942830e+00
  8.402335e+00    2.955809e+00
  8.418210e+00    2.882174e+00
  8.434086e+00    2.896557e+00
  8.449962e+00    2.888149e+00
  8.465837e+00    2.931349e+00
  8.481713e+00    2.904763e+00
  8.497588e+00    2.911979e+00
  8.513464e+00    2.909156e+00
  8.529339e+00    2.856252e+00
  8.545215e+00    2.890015e+00
  8.561091e+00    2.867413e+00
  8.576966e+00    2.843153e+00
  8.592842e+00    2.888587e+00
  8.608717e+00    2.816530e+00
  8.624593e+00    2.833924e+00
  8.640468e+00    2.858766e+00
  8.656344e+00    2.841112e+00
  8.672220e+00    2.846792e+00
  8.688095e+00    2.806591e+00
  8.703971e+00    2.836264e+00
  8.719846e+00    2.869764e+00
  8.735722e+00    2.906365e+00
  8.751598e+00    2.840481e+00
  8.767473e+00    2.871595e+00
  8.783349e+00    2.894864e+00
  8.799224e+00    2.837283e+00
  8.815100e+00    2.812522e+00
  8.830975e+00    2.826818e+00
  8.846851e+00    2.875082e+00
  8.862727e+00    2.851780e+00
  8.878602e+00    2.879949e+00
  8.894478e+00    2.860792e+00
  8.910353e+00    2.833858e+00
  8.926229e+00    2.811622e+00
  8.942104e+00    2.843549e+00
  8.957980e+00    2.864765e+00
  8.973856e+00    2.833731e+00
  8.989731e+00    2.813002e+00
  9.005607e+00    2.800836e+00
  9.021482e+00    2.797492e+00
  9.037358e+00    2.833648e+00
  9.053233e+00    2.813932e+00
  9.069109e+00    2.806468e+00
  9.084985e+00    2.778008e+00
  9.100860e+00    2.842359e+00
  9.116736e+00    2.812502e+00
  9.132611e+00    2.819656e+00
  9.148487e+00    2.816281e+00
  9.164362e+00    2.795394e+00
  9.180238e+00    2.792773e+00
  9.196114e+00    2.836057e+00
  9.211989e+00    2.835218e+00
  9.227865e+00    2.792869e+00
  9.243740e+00    2.803936e+00
  9.259616e+00    2.801636e+00
  9.275491e+00    2.802855e+00
  9.291367e+00    2.809569e+00
  9.307243e+00    2.783201e+00
  9.323118e+00    2.789118e+00
  9.338994e+00    2.822311e+00
  9.354869e+00    2.808843e+00
  9.370745e+00    2.779554e+00
  9.386620e+00    2.743293e+00
  9.402496e+00    2.770134e+00
  9.418372e+00    2.777705e+00
  9.434247e+00    2.756513e+00
  9.450123e+00    2.721217e+00
  9.465998e+00    2.782068e+00
  9.481874e+00    2.782264e+00
  9.497749e+00    2.764521e+00
  9.513625e+00    2.748331e+00
  9.529501e+00    2.785304e+00
  9.545376e+00    2.746323e+00
  9.561252e+00    2.766534e+00
  9.577127e+00    2.784830e+00
  9.593003e+00    2.778798e+00
  9.608878e+00    2.777502e+00
  9.624754e+00    2.748177e+00
  9.640630e+00    2.751367e+00
  9.656505e+00    2.729292e+00
  9.672381e+00    2.725941e+00
  9.688256e+00    2.771815e+00
  9.704132e+00    2.746369e+00
  9.720008e+00    2.749148e+00
  9.735883e+00    2.777953e+00
  9.751759e+00    2.691663e+00
  9.767634e+00    2.734738e+00
  9.783510e+00    2.725865e+00
  9.799385e+00    2.728197e+00
  9.815261e+00    2.726184e+00
  9.831137e+00    2.716376e+00
  9.847012e+00    2.750514e+00
  9.862888e+00    2.664049e+00
  9.878763e+00    2.634247e+00
  9.894639e+00    2.704958e+00
  9.910514e+00    2.691746e+00
  9.926390e+00    2.652174e+00
  9.942266e+00    2.686391e+00
  9.958141e+00    2.715383e+00
  9.974017e+00    2.688230e+00
  9.989892e+00    2.669957e+00
  1.000577e+01    2.703623e+00
  1.002164e+01    2.693970e+00
  1.003752e+01    2.654440e+00
  1.005339e+01    2.686696e+00
  1.006927e+01    2.710116e+00
  1.008515e+01    2.665649e+00
  1.010102e+01    2.715391e+00
  1.011690e+01    2.675669e+00
  1.013277e+01    2.643833e+00
  1.014865e+01    2.654238e+00
  1.016452e+01    2.633145e+00
  1.018040e+01    2.684170e+00
  1.019627e+01    2.662062e+00
  1.021215e+01    2.621877e+00
  1.022803e+01    2.672213e+00
  1.024390e+01    2.657434e+00
  1.025978e+01    2.645667e+00
  1.027565e+01    2.611440e+00
  1.029153e+01    2.633036e+00
  1.030740e+01    2.599847e+00
  1.032328e+01    2.589471e+00
  1.033915e+01    2.591486e+00
  1.035503e+01    2.663110e+00
  1.037091e+01    2.650575e+00
  1.038678e+01    2.647611e+00
  1.040266e+01    2.628162e+00
  1.041853e+01    2.622311e+00
  1.043441e+01    2.595834e+00
  1.045028e+01    2.610291e+00
  1.046616e+01    2.531852e+00
  1.048204e+01    2.553973e+00
  1.049791e+01    2.611475e+00
  1.051379e+01    2.606289e+00
  1.052966e+01    2.596809e+00
  1.054554e+01    2.567357e+00
  1.056141e+01    2.554843e+00
  1.057729e+01    2.536880e+00
  1.059316e+01    2.576238e+00
  1.060904e+01    2.578932e+00
  1.062492e+01    2.618790e+00
  1.064079e+01    2.573192e+00
  1.065667e+01    2.551659e+00
  1.067254e+01    2.524091e+00
  1.068842e+01    2.547023e+00
  1.070429e+01    2.569029e+00
  1.072017e+01    2.548347e+00
  1.073604e+01    2.571195e+00
  1.075192e+01    2.536093e+00
  1.076780e+01    2.544957e+00
  1.078367e+01    2.572248e+00
  1.079955e+01    2.511997e+00
  1.081542e+01    2.514754e+00
  1.083130e+01    2.581149e+00
  1.084717e+01    2.580654e+00
  1.086305e+01    2.482267e+00
  1.087892e+01    2.451081e+00
  1.089480e+01    2.487010e+00
  1.091068e+01    2.550116e+00
  1.092655e+01    2.506608e+00
  1.094243e+01    2.500688e+00
  1.095830e+01    2.513681e+00
  1.097418e+01    2.516057e+00
  1.099005e+01    2.521960e+00
  1.100593e+01    2.472799e+00
  1.102180e+01    2.462687e+00
  1.103768e+01    2.498811e+00
  1.105356e+01    2.466446e+00
  1.106943e+01    2.464357e+00
  1.108531e+01    2.433350e+00
  1.110118e+01    2.422363e+00
  1.111706e+01    2.451812e+00
  1.113293e+01    2.470871e+00
  1.114881e+01    2.473309e+00
  1.116468e+01    2.410588e+00
  1.118056e+01    2.433476e+00
  1.119644e+01    2.451424e+00
  1.121231e+01    2.443667e+00
  1.122819e+01    2.473301e+00
  1.124406e+01    2.473406e+00
  1.125994e+01    2.445873e+00
  1.127581e+01    2.425562e+00
  1.129169e+01    2.423489e+00
  1.130756e+01    2.407163e+00
  1.132344e+01    2.453546e+00
  1.133932e+01    2.468644e+00
  1.135519e+01    2.493550e+00
  1.137107e+01    2.454072e+00
  1.138694e+01    2.383359e+00
  1.140282e+01    2.388566e+00
  1.141869e+01    2.417873e+00
  1.143457e+01    2.448076e+00
  1.145045e+01    2.408952e+00
  1.146632e+01    2.429043e+00
  1.148220e+01    2.396889e+00
  1.149807e+01    2.402758e+00
  1.151395e+01    2.418610e+00
  1.152982e+01    2.410886e+00
  1.154570e+01    2.408254e+00
  1.156157e+01    2.364962e+00
  1.157745e+01    2.350059e+00
  1.159333e+01    2.383380e+00
  1.160920e+01    2.357859e+00
  1.162508e+01    2.413619e+00
  1.164095e+01    2.362339e+00
  1.165683e+01    2.355339e+00
  1.167270e+01    2.382754e+00
  1.168858e+01    2.362350e+00
  1.170445e+01    2.300875e+00
  1.172033e+01    2.337297e+00
  1.173621e+01    2.353561e+00
  1.175208e+01    2.339009e+00
  1.176796e+01    2.380205e+00
  1.178383e+01    2.360410e+00
  1.179971e+01    2.325279e+00
  1.181558e+01    2.363533e+00
  1.183146e+01    2.325780e+00
  1.184733e+01    2.342651e+00
  1.186321e+01    2.326590e+00
  1.187909e+01    2.309434e+00
  1.189496e+01    2.324978e+00
  1.191084e+01    2.337624e+00
  1.192671e+01    2.316224e+00
  1.194259e+01    2.330591e+00
  1.195846e+01    2.326507e+00
  1.197434e+01    2.314231e+00
  1.199021e+01    2.330966e+00
  1.200609e+01    2.376882e+00
  1.202197e+01    2.322414e+00
  1.203784e+01    2.307014e+00
  1.205372e+01    2.342283e+00
  1.206959e+01    2.325228e+00
  1.208547e+01    2.347288e+00
  1.210134e+01    2.327226e+00
  1.211722e+01    2.302945e+00
  1.213309e+01    2.310839e+00
  1.214897e+01    2.316353e+00
  1.216485e+01    2.331948e+00
  1.218072e+01    2.332350e+00
  1.219660e+01    2.326016e+00
  1.221247e+01    2.307332e+00
  1.222835e+01    2.296011e+00
  1.224422e+01    2.331201e+00
  1.226010e+01    2.332685e+00
  1.227597e+01    2.287434e+00
  1.229185e+01    2.309005e+00
  1.230773e+01    2.319775e+00
  1.232360e+01    2.312625e+00
  1.233948e+01    2.307417e+00
  1.235535e+01    2.347960e+00
  1.237123e+01    2.357194e+00
  1.238710e+01    2.331172e+00
  1.240298e+01    2.340585e+00
  1.241886e+01    2.291240e+00
  1.243473e+01    2.321760e+00
  1.245061e+01    2.318448e+00
  1.246648e+01    2.373236e+00
  1.248236e+01    2.359233e+00
  1.249823e+01    2.338502e+00
  1.251411e+01    2.367100e+00
  1.252998e+01    2.382929e+00
  1.254586e+01    2.372479e+00
  1.256174e+01    2.364709e+00
  1.257761e+01    2.367176e+00
  1.259349e+01    2.419016e+00
  1.260936e+01    2.408426e+00
  1.262524e+01    2.401041e+00
  1.264111e+01    2.431295e+00
  1.265699e+01    2.412434e+00
  1.267286e+01    2.432326e+00
  1.268874e+01    2.492586e+00
  1.270462e+01    2.502802e+00
  1.272049e+01    2.514870e+00
  1.273637e+01    2.518410e+00
  1.275224e+01    2.568252e+00
  1.276812e+01    2.634405e+00
  1.278399e+01    2.668925e+00
  1.279987e+01    2.677842e+00
  1.281574e+01    2.724791e+00
  1.283162e+01    2.738813e+00
  1.284750e+01    2.841082e+00
  1.286337e+01    2.941808e+00
  1.287925e+01    3.032609e+00
  1.289512e+01    3.179112e+00
  1.291100e+01    3.329997e+00
  1.292687e+01    3.484347e+00
  1.294275e+01    3.686056e+00
  1.295862e+01    4.018931e+00
  1.297450e+01    4.360056e+00
  1.299038e+01    4.763588e+00
  1.300625e+01    5.313463e+00
  1.302213e+01    5.938335e+00
  1.303800e+01    6.772539e+00
  1.305388e+01    7.822004e+00
  1.306975e+01    9.047806e+00
  1.308563e+01    1.056667e+01
  1.310150e+01    1.206304e+01
  1.311738e+01    1.353431e+01
  1.313326e+01    1.495514e+01
  1.314913e+01    1.643477e+01
  1.316501e+01    1.780658e+01
  1.318088e+01    1.879044e+01
  1.319676e+01    1.925381e+01
  1.321263e+01    1.878939e+01
  1.322851e+01    1.750064e+01
  1.324438e+01    1.542181e+01
  1.326026e+01    1.307080e+01
  1.327614e+01    1.087081e+01
  1.329201e+01    9.095965e+00
  1.330789e+01    7.704829e+00
  1.332376e+01    6.684359e+00
  1.333964e+01    5.811945e+00
  1.335551e+01    5.181632e+00
  1.337139e+01    4.691628e+00
  1.338727e+01    4.346209e+00
  1.340314e+01    3.967387e+00
  1.341902e+01    3.663588e+00
  1.343489e+01    3.403809e+00
  1.345077e+01    3.239189e+00
  1.346664e+01    3.109146e+00
  1.348252e+01    2.927205e+00
  1.349839e+01    2.833057e+00
  1.351427e+01    2.757952e+00
  1.353015e+01    2.707017e+00
  1.354602e+01    2.619877e+00
  1.356190e+01    2.568248e+00
  1.357777e+01    2.530866e+00
  1.359365e+01    2.490205e+00
  1.360952e+01    2.433023e+00
  1.362540e+01    2.426319e+00
  1.364127e+01    2.373978e+00
  1.365715e+01    2.394762e+00
  1.367303e+01    2.330306e+00
  1.368890e+01    2.295468e+00
  1.370478e+01    2.284531e+00
  1.372065e+01    2.260622e+00
  1.373653e+01    2.216034e+00
  1.375240e+01    2.192167e+00
  1.376828e+01    2.219667e+00
  1.378415e+01    2.204259e+00
  1.380003e+01    2.202675e+00
  1.381591e+01    2.183608e+00
  1.383178e+01    2.148670e+00
  1.384766e+01    2.127442e+00
  1.386353e+01    2.166656e+00
  1.387941e+01    2.165633e+00
  1.389528e+01    2.150204e+00
  1.391116e+01    2.129483e+00
  1.392703e+01    2.113021e+00
  1.394291e+01    2.060739e+00
  1.395879e+01    2.092414e+00
  1.397466e+01    2.098357e+00
  1.399054e+01    2.090015e+00
  1.400641e+01    2.090528e+00
  1.402229e+01    2.082906e+00
  1.403816e+01    2.055112e+00
  1.405404e+01    2.082377e+00
  1.406991e+01    2.070909e+00
  1.408579e+01    2.039763e+00
  1.410167e+01    2.026084e+00
  1.411754e+01    2.032093e+00
  1.413342e+01    2.072593e+00
  1.414929e+01    2.063697e+00
  1.416517e+01    2.021163e+00
  1.418104e+01    1.981318e+00
  1.419692e+01    1.998258e+00
  1.421279e+01    2.048367e+00
  1.422867e+01    1.993435e+00
  1.424455e+01    1.975746e+00
  1.426042e+01    1.943634e+00
  1.427630e+01    1.966158e+00
  1.429217e+01    2.010942e+00
  1.430805e+01    2.008389e+00
  1.432392e+01    1.973005e+00
  1.433980e+01    1.964564e+00
  1.435568e+01    1.949244e+00
  1.437155e+01    1.930379e+00
  1.438743e+01    1.929969e+00
  1.440330e+01    1.932204e+00
  1.441918e+01    1.945325e+00
  1.443505e+01    1.942362e+00
  1.445093e+01    1.946033e+00
  1.446680e+01    1.928912e+00
  1.448268e+01    1.917676e+00
  1.449856e+01    1.932964e+00
  1.451443e+01    1.963716e+00
  1.453031e+01    1.931630e+00
  1.454618e+01    1.888786e+00
  1.456206e+01    1.904576e+00
  1.457793e+01    1.936634e+00
  1.459381e+01    1.927243e+00
  1.460968e+01    1.904672e+00
  1.462556e+01    1.916535e+00
  1.464144e+01    1.918333e+00
  1.465731e+01    1.887734e+00
  1.467319e+01    1.921340e+00
  1.468906e+01    1.928363e+00
  1.470494e+01    1.890233e+00
  1.472081e+01    1.882776e+00
  1.473669e+01    1.894273e+00
  1.475256e+01    1.917381e+00
  1.476844e+01    1.931876e+00
  1.478432e+01    1.901199e+00
  1.480019e+01    1.888780e+00
  1.481607e+01    1.925084e+00
  1.483194e+01    1.929845e+00
  1.484782e+01    1.912254e+00
  1.486369e+01    1.924384e+00
  1.487957e+01    1.950167e+00
  1.489544e+01    1.980859e+00
  1.491132e+01    1.986900e+00
  1.492720e+01    1.990531e+00
  1.494307e+01    1.991938e+00
  1.495895e+01    2.054970e+00
  1.497482e+01    2.056290e+00
  1.499070e+01    2.068929e+00
  1.500657e+01    2.146314e+00
  1.502245e+01    2.168590e+00
  1.503832e+01    2.251699e+00
  1.505420e+01    2.362063e+00
  1.507008e+01    2.499150e+00
  1.508595e+01    2.599715e+00
  1.510183e+01    2.818155e+00
  1.511770e+01    2.986708e+00
  1.513358e+01    3.260205e+00
  1.514945e+01    3.609224e+00
  1.516533e+01    4.068149e+00
  1.518120e+01    4.437166e+00
  1.519708e+01    4.823573e+00
  1.521296e+01    5.230942e+00
  1.522883e+01    5.613276e+00
  1.524471e+01    5.895354e+00
  1.526058e+01    6.191747e+00
  1.527646e+01    6.401349e+00
  1.529233e+01    6.424850e+00
  1.530821e+01    6.348520e+00
  1.532409e+01    5.899295e+00
  1.533996e+01    5.308741e+00
  1.535584e+01    4.684215e+00
  1.537171e+01    4.131186e+00
  1.538759e+01    3.657838e+00
  1.540346e+01    3.231387e+00
  1.541934e+01    2.983446e+00
  1.543521e+01    2.752596e+00
  1.545109e+01    2.597178e+00
  1.546697e+01    2.409432e+00
  1.548284e+01    2.312685e+00
  1.549872e+01    2.259163e+00
  1.551459e+01    2.157999e+00
  1.553047e+01    2.043538e+00
  1.554634e+01    1.982987e+00
  1.556222e+01    2.025700e+00
  1.557809e+01    1.947418e+00
  1.559397e+01    1.931742e+00
  1.560985e+01    1.879740e+00
  1.562572e+01    1.853866e+00
  1.564160e+01    1.849269e+00
  1.565747e+01    1.817055e+00
  1.567335e+01    1.776800e+00
  1.568922e+01    1.775475e+00
  1.570510e+01    1.765494e+00
  1.572097e+01    1.767962e+00
  1.573685e+01    1.713177e+00
  1.575273e+01    1.735697e+00
  1.576860e+01    1.737918e+00
  1.578448e+01    1.725420e+00
  1.580035e+01    1.688971e+00
  1.581623e+01    1.679922e+00
  1.583210e+01    1.689819e+00
  1.584798e+01    1.668311e+00
  1.586385e+01    1.678675e+00
  1.587973e+01    1.697304e+00
  1.589561e+01    1.663047e+00
  1.591148e+01    1.668202e+00
  1.592736e+01    1.685676e+00
  1.594323e+01    1.661925e+00
  1.595911e+01    1.615051e+00
  1.597498e+01    1.619831e+00
  1.599086e+01    1.633881e+00
  1.600673e+01    1.639243e+00
  1.602261e+01    1.616040e+00
  1.603849e+01    1.633823e+00
  1.605436e+01    1.634882e+00
  1.607024e+01    1.635204e+00
  1.608611e+01    1.621163e+00
  1.610199e+01    1.616826e+00
  1.611786e+01    1.598128e+00
  1.613374e+01    1.593084e+00
  1.614961e+01    1.614671e+00
  1.616549e+01    1.589886e+00
  1.618137e+01    1.552864e+00
  1.619724e+01    1.556643e+00
  1.621312e+01    1.559863e+00
  1.622899e+01    1.529440e+00
  1.624487e+01    1.567411e+00
  1.626074e+01    1.581534e+00
  1.627662e+01    1.579328e+00
  1.629250e+01    1.566070e+00
  1.630837e+01    1.558907e+00
  1.632425e+01    1.543632e+00
  1.634012e+01    1.533727e+00
  1.635600e+01    1.551704e+00
  1.637187e+01    1.562505e+00
  1.638775e+01    1.550066e+00
  1.640362e+01    1.542507e+00
  1.641950e+01    1.526811e+00
  1.643538e+01    1.518167e+00
  1.645125e+01    1.533934e+00
  1.646713e+01    1.539294e+00
  1.648300e+01    1.543378e+00
  1.649888e+01    1.527739e+00
  1.651475e+01    1.518765e+00
  1.653063e+01    1.535488e+00
  1.654650e+01    1.563486e+00
  1.656238e+01    1.507227e+00
  1.657826e+01    1.527972e+00
  1.659413e+01    1.506311e+00
  1.661001e+01    1.519353e+00
  1.662588e+01    1.473674e+00
  1.664176e+01    1.471383e+00
  1.665763e+01    1.527558e+00
  1.667351e+01    1.542304e+00
  1.668938e+01    1.498935e+00
  1.670526e+01    1.456939e+00
  1.672114e+01    1.483733e+00
  1.673701e+01    1.508008e+00
  1.675289e+01    1.446340e+00
  1.676876e+01    1.440321e+00
  1.678464e+01    1.448880e+00
  1.680051e+01    1.477628e+00
  1.681639e+01    1.458589e+00
  1.683226e+01    1.458532e+00
  1.684814e+01    1.477855e+00
  1.686402e+01    1.469465e+00
  1.687989e+01    1.449889e+00
  1.689577e+01    1.433278e+00
  1.691164e+01    1.467066e+00
  1.692752e+01    1.463429e+00
  1.694339e+01    1.453526e+00
  1.695927e+01    1.438701e+00
  1.697514e+01    1.447847e+00
  1.699102e+01    1.446693e+00
  1.700690e+01    1.440213e+00
  1.702277e+01    1.409700e+00
  1.703865e+01    1.440043e+00
  1.705452e+01    1.435964e+00
  1.707040e+01    1.421694e+00
  1.708627e+01    1.399817e+00
  1.710215e+01    1.444203e+00
  1.711802e+01    1.451360e+00
  1.713390e+01    1.440056e+00
  1.714978e+01    1.411625e+00
  1.716565e+01    1.397515e+00
  1.718153e+01    1.391167e+00
  1.719740e+01    1.374552e+00
  1.721328e+01    1.387836e+00
  1.722915e+01    1.381524e+00
  1.724503e+01    1.388441e+00
  1.726091e+01    1.412086e+00
  1.727678e+01    1.428042e+00
  1.729266e+01    1.422701e+00
  1.730853e+01    1.401654e+00
  1.732441e+01    1.376944e+00
  1.734028e+01    1.345983e+00
  1.735616e+01    1.374191e+00
  1.737203e+01    1.385817e+00
  1.738791e+01    1.391813e+00
  1.740379e+01    1.397092e+00
  1.741966e+01    1.356414e+00
  1.743554e+01    1.379650e+00
  1.745141e+01    1.399366e+00
  1.746729e+01    1.337277e+00
  1.748316e+01    1.354883e+00
  1.749904e+01    1.377576e+00
  1.751491e+01    1.364501e+00
  1.753079e+01    1.373741e+00
  1.754667e+01    1.357419e+00
  1.756254e+01    1.347739e+00
  1.757842e+01    1.363928e+00
  1.759429e+01    1.332067e+00
  1.761017e+01    1.371589e+00
  1.762604e+01    1.357772e+00
  1.764192e+01    1.363928e+00
  1.765779e+01    1.329614e+00
  1.767367e+01    1.329661e+00
  1.768955e+01    1.350449e+00
  1.770542e+01    1.348794e+00
  1.772130e+01    1.326297e+00
  1.773717e+01    1.324568e+00
  1.775305e+01    1.344973e+00
  1.776892e+01    1.334460e+00
  1.778480e+01    1.312885e+00
  1.780067e+01    1.304962e+00
  1.781655e+01    1.340224e+00
  1.783243e+01    1.331014e+00
  1.784830e+01    1.325928e+00
  1.786418e+01    1.334254e+00
  1.788005e+01    1.331591e+00
  1.789593e+01    1.312379e+00
  1.791180e+01    1.309106e+00
  1.792768e+01    1.299319e+00
  1.794355e+01    1.307336e+00
  1.795943e+01    1.319045e+00
  1.797531e+01    1.312921e+00
  1.799118e+01    1.287484e+00
  1.800706e+01    1.314767e+00
  1.802293e+01    1.304640e+00
  1.803881e+01    1.315480e+00
  1.805468e+01    1.292512e+00
  1.807056e+01    1.264796e+00
  1.808643e+01    1.283564e+00
  1.810231e+01    1.296170e+00
  1.811819e+01    1.308128e+00
  1.813406e+01    1.286087e+00
  1.814994e+01    1.268737e+00
  1.816581e+01    1.283973e+00
  1.818169e+01    1.319298e+00
  1.819756e+01    1.298443e+00
  1.821344e+01    1.295481e+00
  1.822932e+01    1.292169e+00
  1.824519e+01    1.317790e+00
  1.826107e+01    1.289150e+00
  1.827694e+01    1.290132e+00
  1.829282e+01    1.268867e+00
  1.830869e+01    1.264013e+00
  1.832457e+01    1.236411e+00
  1.834044e+01    1.269588e+00
  1.835632e+01    1.304283e+00
  1.837220e+01    1.281913e+00
  1.838807e+01    1.264880e+00
  1.840395e+01    1.244004e+00
  1.841982e+01    1.254709e+00
  1.843570e+01    1.261991e+00
  1.845157e+01    1.246871e+00
  1.846745e+01    1.284693e+00
  1.848332e+01    1.247180e+00
  1.849920e+01    1.238271e+00
  1.851508e+01    1.253911e+00
  1.853095e+01    1.264629e+00
  1.854683e+01    1.270225e+00
  1.856270e+01    1.270019e+00
  1.857858e+01    1.269113e+00
  1.859445e+01    1.266858e+00
  1.861033e+01    1.254039e+00
  1.862620e+01    1.234678e+00
  1.864208e+01    1.227295e+00
  1.865796e+01    1.239101e+00
  1.867383e+01    1.259253e+00
  1.868971e+01    1.254971e+00
  1.870558e+01    1.230415e+00
  1.872146e+01    1.236825e+00
  1.873733e+01    1.246209e+00
  1.875321e+01    1.232423e+00
  1.876908e+01    1.220384e+00
  1.878496e+01    1.247538e+00
  1.880084e+01    1.237123e+00
  1.881671e+01    1.220441e+00
  1.883259e+01    1.229740e+00
  1.884846e+01    1.229624e+00
  1.886434e+01    1.221861e+00
  1.888021e+01    1.231852e+00
  1.889609e+01    1.226575e+00
  1.891196e+01    1.195379e+00
  1.892784e+01    1.223779e+00
  1.894372e+01    1.211423e+00
  1.895959e+01    1.243242e+00
  1.897547e+01    1.242666e+00
  1.899134e+01    1.206459e+00
  1.900722e+01    1.207181e+00
  1.902309e+01    1.227220e+00
  1.903897e+01    1.227658e+00
  1.905484e+01    1.199633e+00
  1.907072e+01    1.233848e+00
  1.908660e+01    1.222926e+00
  1.910247e+01    1.204937e+00
  1.911835e+01    1.201858e+00
  1.913422e+01    1.199699e+00
  1.915010e+01    1.187879e+00
  1.916597e+01    1.185537e+00
  1.918185e+01    1.183791e+00
  1.919773e+01    1.189798e+00
  1.921360e+01    1.197898e+00
  1.922948e+01    1.217844e+00
  1.924535e+01    1.207155e+00
  1.926123e+01    1.195096e+00
  1.927710e+01    1.188147e+00
  1.929298e+01    1.155278e+00
  1.930885e+01    1.147924e+00
  1.932473e+01    1.175148e+00
  1.934061e+01    1.185493e+00
  1.935648e+01    1.191239e+00
  1.937236e+01    1.207530e+00
  1.938823e+01    1.205365e+00
  1.940411e+01    1.197097e+00
  1.941998e+01    1.163530e+00
  1.943586e+01    1.152514e+00
  1.945173e+01    1.176465e+00
  1.946761e+01    1.178339e+00
  1.948349e+01    1.156498e+00
  1.949936e+01    1.154763e+00
  1.951524e+01    1.165303e+00
  1.953111e+01    1.151089e+00
  1.954699e+01    1.170402e+00
  1.956286e+01    1.170659e+00
  1.957874e+01    1.185589e+00
  1.959461e+01    1.198222e+00
  1.961049e+01    1.174963e+00
  1.962637e+01    1.136817e+00
  1.964224e+01    1.138398e+00
  1.965812e+01    1.131642e+00
  1.967399e+01    1.118346e+00
  1.968987e+01    1.129153e+00
  1.970574e+01    1.139457e+00
  1.972162e+01    1.143919e+00
  1.973749e+01    1.151621e+00
  1.975337e+01    1.142332e+00
  1.976925e+01    1.130556e+00
  1.978512e+01    1.132895e+00
  1.980100e+01    1.124401e+00
  1.981687e+01    1.128751e+00
  1.983275e+01    1.136161e+00
  1.984862e+01    1.133224e+00
  1.986450e+01    1.137059e+00
  1.988037e+01    1.140746e+00
  1.989625e+01    1.132829e+00
  1.991213e+01    1.105340e+00
  1.992800e+01    1.123786e+00
  1.994388e+01    1.137582e+00
  1.995975e+01    1.148699e+00
  1.997563e+01    1.133016e+00
  1.999150e+01    1.120490e+00
  2.000738e+01    1.119548e+00
  2.002325e+01    1.109195e+00
  2.003913e+01    1.107841e+00
  2.005501e+01    1.111024e+00
  2.007088e+01    1.127260e+00
  2.008676e+01    1.129451e+00
  2.010263e+01    1.134669e+00
  2.011851e+01    1.144543e+00
  2.013438e+01    1.125826e+00
  2.015026e+01    1.111276e+00
  2.016614e+01    1.115394e+00
  2.018201e+01    1.116750e+00
  2.019789e+01    1.106377e+00
  2.021376e+01    1.131257e+00
  2.022964e+01    1.112196e+00
  2.024551e+01    1.126597e+00
  2.026139e+01    1.113615e+00
  2.027726e+01    1.109430e+00
  2.029314e+01    1.107195e+00
  2.030902e+01    1.125373e+00
  2.032489e+01    1.110716e+00
  2.034077e+01    1.089138e+00
  2.035664e+01    1.091226e+00
  2.037252e+01    1.076303e+00
  2.038839e+01    1.077001e+00
  2.040427e+01    1.097738e+00
  2.042014e+01    1.100637e+00
  2.043602e+01    1.110767e+00
  2.045190e+01    1.108817e+00
  2.046777e+01    1.100854e+00
  2.048365e+01    1.075560e+00
  2.049952e+01    1.105216e+00
  2.051540e+01    1.116777e+00
  2.053127e+01    1.098183e+00
  2.054715e+01    1.115389e+00
  2.056302e+01    1.097294e+00
  2.057890e+01    1.092678e+00
  2.059478e+01    1.102594e+00
  2.061065e+01    1.124356e+00
  2.062653e+01    1.111436e+00
  2.064240e+01    1.080295e+00
  2.065828e+01    1.074031e+00
  2.067415e+01    1.088731e+00
  2.069003e+01    1.082326e+00
  2.070590e+01    1.079439e+00
  2.072178e+01    1.082129e+00
  2.073766e+01    1.100104e+00
  2.075353e+01    1.088319e+00
  2.076941e+01    1.075405e+00
  2.078528e+01    1.076287e+00
  2.080116e+01    1.086164e+00
  2.081703e+01    1.095642e+00
  2.083291e+01    1.120594e+00
  2.084878e+01    1.106901e+00
  2.086466e+01    1.093422e+00
  2.088054e+01    1.102795e+00
  2.089641e+01    1.092377e+00
  2.091229e+01    1.096644e+00
  2.092816e+01    1.057123e+00
  2.094404e+01    1.092088e+00
  2.095991e+01    1.095920e+00
  2.097579e+01    1.087692e+00
  2.099166e+01    1.065957e+00
  2.100754e+01    1.060671e+00
  2.102342e+01    1.077327e+00
  2.103929e+01    1.095883e+00
  2.105517e+01    1.091334e+00
  2.107104e+01    1.103871e+00
  2.108692e+01    1.098342e+00
  2.110279e+01    1.094820e+00
  2.111867e+01    1.093656e+00
  2.113455e+01    1.081320e+00
  2.115042e+01    1.084182e+00
  2.116630e+01    1.095237e+00
  2.118217e+01    1.097395e+00
  2.119805e+01    1.073443e+00
  2.121392e+01    1.101124e+00
  2.122980e+01    1.093144e+00
  2.124567e+01    1.133123e+00
  2.126155e+01    1.134987e+00
  2.127743e+01    1.109937e+00
  2.129330e+01    1.140435e+00
  2.130918e+01    1.135887e+00
  2.132505e+01    1.131509e+00
  2.134093e+01    1.161181e+00
  2.135680e+01    1.163270e+00
  2.137268e+01    1.201046e+00
  2.138855e+01    1.190428e+00
  2.140443e+01    1.174738e+00
  2.142031e+01    1.188022e+00
  2.143618e+01    1.205531e+00
  2.145206e+01    1.216526e+00
  2.146793e+01    1.256544e+00
  2.148381e+01    1.261533e+00
  2.149968e+01    1.285562e+00
  2.151556e+01    1.281708e+00
  2.153143e+01    1.319312e+00
  2.154731e+01    1.354833e+00
  2.156319e+01    1.392229e+00
  2.157906e+01    1.458844e+00
  2.159494e+01    1.500567e+00
  2.161081e+01    1.574331e+00
  2.162669e+01    1.639635e+00
  2.164256e+01    1.736452e+00
  2.165844e+01    1.848494e+00
  2.167431e+01    1.974476e+00
  2.169019e+01    2.141453e+00
  2.170607e+01    2.334636e+00
  2.172194e+01    2.576210e+00
  2.173782e+01    2.910672e+00
  2.175369e+01    3.291531e+00
  2.176957e+01    3.763303e+00
  2.178544e+01    4.306116e+00
  2.180132e+01    4.963738e+00
  2.181719e+01    5.691569e+00
  2.183307e+01    6.467134e+00
  2.184895e+01    7.279016e+00
  2.186482e+01    8.138783e+00
  2.188070e+01    9.033336e+00
  2.189657e+01    9.828478e+00
  2.191245e+01    1.040040e+01
  2.192832e+01    1.070624e+01
  2.194420e+01    1.049986e+01
  2.196007e+01    9.898607e+00
  2.197595e+01    8.964927e+00
  2.199183e+01    7.765268e+00
  2.200770e+01    6.631932e+00
  2.202358e+01    5.571673e+00
  2.203945e+01    4.715714e+00
  2.205533e+01    4.008541e+00
  2.207120e+01    3.451922e+00
  2.208708e+01    3.051411e+00
  2.210296e+01    2.718296e+00
  2.211883e+01    2.447340e+00
  2.213471e+01    2.235047e+00
  2.215058e+01    2.045197e+00
  2.216646e+01    1.885758e+00
  2.218233e+01    1.769702e+00
  2.219821e+01    1.650788e+00
  2.221408e+01    1.562266e+00
  2.222996e+01    1.502463e+00
  2.224584e+01    1.436479e+00
  2.226171e+01    1.411239e+00
  2.227759e+01    1.349415e+00
  2.229346e+01    1.311633e+00
  2.230934e+01    1.269976e+00
  2.232521e+01    1.251070e+00
  2.234109e+01    1.186274e+00
  2.235696e+01    1.179478e+00
  2.237284e+01    1.156870e+00
  2.238872e+01    1.141484e+00
  2.240459e+01    1.133069e+00
  2.242047e+01    1.108069e+00
  2.243634e+01    1.112842e+00
  2.245222e+01    1.106056e+00
  2.246809e+01    1.085891e+00
  2.248397e+01    1.060289e+00
  2.249984e+01    1.049656e+00
  2.251572e+01    1.046699e+00
  2.253160e+01    1.044293e+00
  2.254747e+01    1.027936e+00
  2.256335e+01    1.008252e+00
  2.257922e+01    1.030204e+00
  2.259510e+01    1.045843e+00
  2.261097e+01    1.034186e+00
  2.262685e+01    1.009280e+00
  2.264272e+01    9.843757e-01
  2.265860e+01    9.769287e-01
  2.267448e+01    9.830521e-01
  2.269035e+01    9.572177e-01
  2.270623e+01    9.577860e-01
  2.272210e+01    9.619640e-01
  2.273798e+01    9.780951e-01
  2.275385e+01    9.638273e-01
  2.276973e+01    9.451791e-01
  2.278560e+01    9.554424e-01
  2.280148e+01    9.413738e-01
  2.281736e+01    9.380166e-01
  2.283323e+01    9.505535e-01
  2.284911e+01    9.578395e-01
  2.286498e+01    9.239625e-01
  2.288086e+01    9.359065e-01
  2.289673e+01    9.159641e-01
  2.291261e+01    9.317276e-01
  2.292848e+01    9.412891e-01
  2.294436e+01    9.384052e-01
  2.296024e+01    9.301630e-01
  2.297611e+01    9.136442e-01
  2.299199e+01    9.154035e-01
  2.300786e+01    9.196755e-01
  2.302374e+01    9.085856e-01
  2.303961e+01    9.030121e-01
  2.305549e+01    8.861756e-01
  2.307137e+01    8.919706e-01
  2.308724e+01    9.012790e-01
  2.310312e+01    8.980125e-01
  2.311899e+01    8.956764e-01
  2.313487e+01    9.011277e-01
  2.315074e+01    9.182803e-01
  2.316662e+01    8.867858e-01
  2.318249e+01    8.703976e-01
  2.319837e+01    9.000692e-01
  2.321425e+01    8.886486e-01
  2.323012e+01    8.616747e-01
  2.324600e+01    8.685479e-01
  2.326187e+01    8.605455e-01
  2.327775e+01    8.800781e-01
  2.329362e+01    8.853803e-01
  2.330950e+01    8.900897e-01
  2.332537e+01    8.739124e-01
  2.334125e+01    8.692423e-01
  2.335713e+01    8.705536e-01
  2.337300e+01    8.801168e-01
  2.338888e+01    8.695037e-01
  2.340475e+01    8.753136e-01
  2.342063e+01    8.819389e-01
  2.343650e+01    8.666220e-01
  2.345238e+01    8.534455e-01
  2.346825e+01    8.382830e-01
  2.348413e+01    8.379313e-01
  2.350001e+01    8.472680e-01
  2.351588e+01    8.384003e-01
  2.353176e+01    8.482270e-01
  2.354763e+01    8.735104e-01
  2.356351e+01    8.671057e-01
  2.357938e+01    8.677915e-01
  2.359526e+01    8.564917e-01
  2.361113e+01    8.522599e-01
  2.362701e+01    8.551354e-01
  2.364289e+01    8.719334e-01
  2.365876e+01    8.572887e-01
  2.367464e+01    8.266857e-01
  2.369051e+01    8.476334e-01
  2.370639e+01    8.385599e-01
  2.372226e+01    8.222395e-01
  2.373814e+01    8.152642e-01
  2.375401e+01    8.312905e-01
  2.376989e+01    8.268211e-01
  2.378577e+01    8.347866e-01
  2.380164e+01    8.399694e-01
  2.381752e+01    8.150843e-01
  2.383339e+01    8.226633e-01
  2.384927e+01    8.222798e-01
  2.386514e+01    8.097718e-01
  2.388102e+01    8.020489e-01
  2.389689e+01    8.153989e-01
  2.391277e+01    8.414117e-01
  2.392865e+01    8.222444e-01
  2.394452e+01    8.116708e-01
  2.396040e+01    8.062336e-01
  2.397627e+01    8.104480e-01
  2.399215e+01    8.127359e-01
  2.400802e+01    7.939081e-01
  2.402390e+01    8.008174e-01
  2.403978e+01    7.684498e-01
  2.405565e+01    7.780582e-01
  2.407153e+01    7.990979e-01
  2.408740e+01    8.028051e-01
  2.410328e+01    7.800688e-01
  2.411915e+01    8.084307e-01
  2.413503e+01    7.938630e-01
  2.415090e+01    7.740781e-01
  2.416678e+01    7.788713e-01
  2.418266e+01    7.927381e-01
  2.419853e+01    7.841276e-01
  2.421441e+01    7.637075e-01
  2.423028e+01    7.725536e-01
  2.424616e+01    8.015960e-01
  2.426203e+01    7.801087e-01
  2.427791e+01    7.777477e-01
  2.429378e+01    7.985871e-01
  2.430966e+01    8.064758e-01
  2.432554e+01    8.122075e-01
  2.434141e+01    8.136088e-01
  2.435729e+01    7.956760e-01
  2.437316e+01    8.021272e-01
  2.438904e+01    7.919784e-01
  2.440491e+01    7.916205e-01
  2.442079e+01    8.002840e-01
  2.443666e+01    8.120824e-01
  2.445254e+01    8.068554e-01
  2.446842e+01    7.973077e-01
  2.448429e+01    8.295894e-01
  2.450017e+01    8.099564e-01
  2.451604e+01    7.974285e-01
  2.453192e+01    7.718807e-01
  2.454779e+01    7.848774e-01
  2.456367e+01    7.812279e-01
  2.457954e+01    8.026330e-01
  2.459542e+01    8.159010e-01
  2.461130e+01    7.942276e-01
  2.462717e+01    8.000255e-01
  2.464305e+01    8.165848e-01
  2.465892e+01    8.160848e-01
  2.467480e+01    7.984240e-01
  2.469067e+01    8.174185e-01
  2.470655e+01    8.081984e-01
  2.472242e+01    8.106978e-01
  2.473830e+01    8.156385e-01
  2.475418e+01    7.948489e-01
  2.477005e+01    7.950820e-01
  2.478593e+01    7.943406e-01
  2.480180e+01    8.138023e-01
  2.481768e+01    7.855881e-01
  2.483355e+01    7.881272e-01
  2.484943e+01    7.892500e-01
  2.486530e+01    7.869708e-01
  2.488118e+01    8.031082e-01
  2.489706e+01    8.176473e-01
  2.491293e+01    8.040224e-01
  2.492881e+01    8.050151e-01
  2.494468e+01    8.116874e-01
  2.496056e+01    8.134583e-01
  2.497643e+01    8.359663e-01
  2.499231e+01    8.220250e-01
  2.500819e+01    8.201687e-01
  2.502406e+01    8.317122e-01
  2.503994e+01    8.288875e-01
  2.505581e+01    8.083625e-01
  2.507169e+01    8.099015e-01
  2.508756e+01    8.147981e-01
  2.510344e+01    8.241645e-01
  2.511931e+01    8.239269e-01
  2.513519e+01    8.363259e-01
  2.515107e+01    8.298365e-01
  2.516694e+01    8.378008e-01
  2.518282e+01    8.535416e-01
  2.519869e+01    8.472063e-01
  2.521457e+01    8.438342e-01
  2.523044e+01    8.518990e-01
  2.524632e+01    8.525572e-01
  2.526219e+01    8.648146e-01
  2.527807e+01    8.698233e-01
  2.529395e+01    8.667144e-01
  2.530982e+01    8.555067e-01
  2.532570e+01    8.887565e-01
  2.534157e+01    8.808317e-01
  2.535745e+01    8.869463e-01
  2.537332e+01    8.826095e-01
  2.538920e+01    8.856959e-01
  2.540507e+01    9.177713e-01
  2.542095e+01    9.192880e-01
  2.543683e+01    9.292802e-01
  2.545270e+01    9.489046e-01
  2.546858e+01    9.502361e-01
  2.548445e+01    9.578287e-01
  2.550033e+01    9.606764e-01
  2.551620e+01    9.798500e-01
  2.553208e+01    1.009855e+00
  2.554795e+01    1.010931e+00
  2.556383e+01    1.035329e+00
  2.557971e+01    1.057904e+00
  2.559558e+01    1.073839e+00
  2.561146e+01    1.101783e+00
  2.562733e+01    1.150737e+00
  2.564321e+01    1.172808e+00
  2.565908e+01    1.223129e+00
  2.567496e+01    1.275063e+00
  2.569083e+01    1.342709e+00
  2.570671e+01    1.408469e+00
  2.572259e+01    1.486835e+00
  2.573846e+01    1.594842e+00
  2.575434e+01    1.713191e+00
  2.577021e+01    1.851305e+00
  2.578609e+01    2.043229e+00
  2.580196e+01    2.281524e+00
  2.581784e+01    2.543506e+00
  2.583371e+01    2.842391e+00
  2.584959e+01    3.245842e+00
  2.586547e+01    3.759091e+00
  2.588134e+01    4.337724e+00
  2.589722e+01    4.995513e+00
  2.591309e+01    5.720610e+00
  2.592897e+01    6.505085e+00
  2.594484e+01    7.286210e+00
  2.596072e+01    7.984706e+00
  2.597660e+01    8.549632e+00
  2.599247e+01    8.788433e+00
  2.600835e+01    8.742417e+00
  2.602422e+01    8.463566e+00
  2.604010e+01    7.782487e+00
  2.605597e+01    6.922497e+00
  2.607185e+01    5.970882e+00
  2.608772e+01    5.197036e+00
  2.610360e+01    4.388987e+00
  2.611948e+01    3.702458e+00
  2.613535e+01    3.203904e+00
  2.615123e+01    2.852640e+00
  2.616710e+01    2.515262e+00
  2.618298e+01    2.184830e+00
  2.619885e+01    1.997558e+00
  2.621473e+01    1.847786e+00
  2.623060e+01    1.716071e+00
  2.624648e+01    1.601819e+00
  2.626236e+01    1.508384e+00
  2.627823e+01    1.411949e+00
  2.629411e+01    1.335680e+00
  2.630998e+01    1.297065e+00
  2.632586e+01    1.249522e+00
  2.634173e+01    1.190622e+00
  2.635761e+01    1.172585e+00
  2.637348e+01    1.126737e+00
  2.638936e+01    1.074904e+00
  2.640524e+01    1.060274e+00
  2.642111e+01    1.034879e+00
  2.643699e+01    1.036225e+00
  2.645286e+01    1.005543e+00
  2.646874e+01    1.003594e+00
  2.648461e+01    1.004871e+00
  2.650049e+01    1.009741e+00
  2.651636e+01    9.832532e-01
  2.653224e+01    9.645870e-01
  2.654812e+01    9.510034e-01
  2.656399e+01    9.550000e-01
  2.657987e+01    9.446539e-01
  2.659574e+01    9.396687e-01
  2.661162e+01    9.334124e-01
  2.662749e+01    9.331094e-01
  2.664337e+01    9.304240e-01
  2.665924e+01    9.454960e-01
  2.667512e+01    9.293144e-01
  2.669100e+01    9.147826e-01
  2.670687e+01    9.192038e-01
  2.672275e+01    9.052730e-01
  2.673862e+01    9.107750e-01
  2.675450e+01    9.133603e-01
  2.677037e+01    9.022077e-01
  2.678625e+01    8.952741e-01
  2.680212e+01    8.919002e-01
  2.681800e+01    8.893175e-01
  2.683388e+01    9.273935e-01
  2.684975e+01    9.292346e-01
  2.686563e+01    9.267205e-01
  2.688150e+01    9.554871e-01
  2.689738e+01    9.352971e-01
  2.691325e+01    9.230807e-01
  2.692913e+01    9.371923e-01
  2.694501e+01    9.426128e-01
  2.696088e+01    9.614516e-01
  2.697676e+01    9.793532e-01
  2.699263e+01    1.001611e+00
  2.700851e+01    1.007020e+00
  2.702438e+01    1.009071e+00
  2.704026e+01    1.047733e+00
  2.705613e+01    1.115595e+00
  2.707201e+01    1.142490e+00
  2.708789e+01    1.212687e+00
  2.710376e+01    1.291952e+00
  2.711964e+01    1.375827e+00
  2.713551e+01    1.468540e+00
  2.715139e+01    1.591834e+00
  2.716726e+01    1.748852e+00
  2.718314e+01    1.923661e+00
  2.719901e+01    2.110306e+00
  2.721489e+01    2.253660e+00
  2.723077e+01    2.388987e+00
  2.724664e+01    2.504610e+00
  2.726252e+01    2.545816e+00
  2.727839e+01    2.505556e+00
  2.729427e+01    2.412297e+00
  2.731014e+01    2.209934e+00
  2.732602e+01    2.035600e+00
  2.734189e+01    1.840985e+00
  2.735777e+01    1.646607e+00
  2.737365e+01    1.535817e+00
  2.738952e+01    1.421122e+00
  2.740540e+01    1.320983e+00
  2.742127e+01    1.243689e+00
  2.743715e+01    1.160297e+00
  2.745302e+01    1.109855e+00
  2.746890e+01    1.080974e+00
  2.748477e+01    1.014472e+00
  2.750065e+01    1.002103e+00
  2.751653e+01    9.792264e-01
  2.753240e+01    9.543404e-01
  2.754828e+01    9.363846e-01
  2.756415e+01    9.293427e-01
  2.758003e+01    9.115196e-01
  2.759590e+01    9.021900e-01
  2.761178e+01    8.923537e-01
  2.762765e+01    8.819352e-01
  2.764353e+01    8.475677e-01
  2.765941e+01    8.425257e-01
  2.767528e+01    8.410006e-01
  2.769116e+01    8.456274e-01
  2.770703e+01    8.326328e-01
  2.772291e+01    8.489864e-01
  2.773878e+01    8.558467e-01
  2.775466e+01    8.269873e-01
  2.777054e+01    8.183082e-01
  2.778641e+01    8.230034e-01
  2.780229e+01    8.322747e-01
  2.781816e+01    8.080094e-01
  2.783404e+01    7.987248e-01
  2.784991e+01    8.176680e-01
  2.786579e+01    8.273857e-01
  2.788166e+01    8.021191e-01
  2.789754e+01    8.161275e-01
  2.791342e+01    8.121436e-01
  2.792929e+01    7.891296e-01
  2.794517e+01    7.951802e-01
  2.796104e+01    8.029520e-01
  2.797692e+01    7.865626e-01
  2.799279e+01    8.061120e-01
  2.800867e+01    7.906670e-01
  2.802454e+01    7.920198e-01
  2.804042e+01    7.855383e-01
  2.805630e+01    7.683865e-01
  2.807217e+01    7.759153e-01
  2.808805e+01    7.963008e-01
  2.810392e+01    7.957607e-01
  2.811980e+01    7.921574e-01
  2.813567e+01    7.887527e-01
  2.815155e+01    7.747858e-01
  2.816742e+01    7.971675e-01
  2.818330e+01    7.916443e-01
  2.819918e+01    7.772481e-01
  2.821505e+01    7.890063e-01
  2.823093e+01    7.973790e-01
  2.824680e+01    8.034021e-01
  2.826268e+01    7.886997e-01
  2.827855e+01    7.890382e-01
  2.829443e+01    7.729995e-01
  2.831030e+01    7.893406e-01
  2.832618e+01    7.914928e-01
  2.834206e+01    7.843088e-01
  2.835793e+01    7.732339e-01
  2.837381e+01    7.913998e-01
  2.838968e+01    7.858967e-01
  2.840556e+01    7.833143e-01
  2.842143e+01    7.787881e-01
  2.843731e+01    7.672756e-01
  2.845318e+01    7.791610e-01
  2.846906e+01    7.826245e-01
  2.848494e+01    7.666109e-01
  2.850081e+01    7.759920e-01
  2.851669e+01    7.758716e-01
  2.853256e+01    7.617910e-01
  2.854844e+01    7.568377e-01
  2.856431e+01    7.554722e-01
  2.858019e+01    7.709562e-01
  2.859606e+01    7.536218e-01
  2.861194e+01    7.615187e-01
  2.862782e+01    7.739212e-01
  2.864369e+01    7.603735e-01
  2.865957e+01    7.676563e-01
  2.867544e+01    7.497366e-01
  2.869132e+01    7.594376e-01
  2.870719e+01    7.557929e-01
  2.872307e+01    7.720973e-01
  2.873895e+01    7.582631e-01
  2.875482e+01    7.635775e-01
  2.877070e+01    7.759025e-01
  2.878657e+01    7.715734e-01
  2.880245e+01    7.562345e-01
  2.881832e+01    7.386633e-01
  2.883420e+01    7.521159e-01
  2.885007e+01    7.653700e-01
  2.886595e+01    7.663864e-01
  2.888183e+01    7.536751e-01
  2.889770e+01    7.530435e-01
  2.891358e+01    7.424843e-01
  2.892945e+01    7.329271e-01
  2.894533e+01    7.465164e-01
  2.896120e+01    7.385563e-01
  2.897708e+01    7.461571e-01
  2.899295e+01    7.456862e-01
  2.900883e+01    7.495452e-01
  2.902471e+01    7.459826e-01
  2.904058e+01    7.415009e-01
  2.905646e+01    7.574778e-01
  2.907233e+01    7.519486e-01
  2.908821e+01    7.401316e-01
  2.910408e+01    7.354605e-01
  2.911996e+01    7.289678e-01
  2.913583e+01    7.464793e-01
  2.915171e+01    7.506199e-01
  2.916759e+01    7.407500e-01
  2.918346e+01    7.386128e-01
  2.919934e+01    7.289142e-01
  2.921521e+01    7.358133e-01
  2.923109e+01    7.304313e-01
  2.924696e+01    7.398061e-01
  2.926284e+01    7.315231e-01
  2.927871e+01    7.092709e-01
  2.929459e+01    7.372843e-01
  2.931047e+01    7.085083e-01
  2.932634e+01    7.034060e-01
  2.934222e+01    7.236223e-01
  2.935809e+01    7.479166e-01
  2.937397e+01    7.449819e-01
  2.938984e+01    7.336404e-01
  2.940572e+01    7.060031e-01
  2.942159e+01    7.192231e-01
  2.943747e+01    7.297996e-01
  2.945335e+01    7.321962e-01
  2.946922e+01    7.225638e-01
  2.948510e+01    7.204431e-01
  2.950097e+01    7.367002e-01
  2.951685e+01    7.323091e-01
  2.953272e+01    7.495770e-01
  2.954860e+01    7.463986e-01
  2.956447e+01    7.179093e-01
  2.958035e+01    7.353551e-01
  2.959623e+01    7.510475e-01
  2.961210e+01    7.375445e-01
  2.962798e+01    7.196818e-01
  2.964385e+01    7.123823e-01
  2.965973e+01    7.205498e-01
  2.967560e+01    7.251453e-01
  2.969148e+01    7.268970e-01
  2.970736e+01    7.343656e-01
  2.972323e+01    7.213973e-01
  2.973911e+01    7.422489e-01
  2.975498e+01    7.510648e-01
  2.977086e+01    7.286749e-01
  2.978673e+01    7.091515e-01
  2.980261e+01    7.248466e-01
  2.981848e+01    7.244475e-01
  2.983436e+01    7.354895e-01
  2.985024e+01    7.280744e-01
  2.986611e+01    7.136078e-01
  2.988199e+01    7.105663e-01
  2.989786e+01    7.221999e-01
  2.991374e+01    7.433070e-01
  2.992961e+01    7.151247e-01
  2.994549e+01    7.257687e-01
  2.996136e+01    7.213365e-01
  2.997724e+01    7.296929e-01
  2.999312e+01    7.382794e-01
  3.000899e+01    7.439099e-01
  3.002487e+01    7.238814e-01
  3.004074e+01    7.230083e-01
  3.005662e+01    7.419751e-01
  3.007249e+01    7.325414e-01
  3.008837e+01    7.285346e-01
  3.010424e+01    7.266499e-01
  3.012012e+01    7.306965e-01
  3.013600e+01    7.397860e-01
  3.015187e+01    7.254032e-01
  3.016775e+01    6.983891e-01
  3.018362e+01    7.102877e-01
  3.019950e+01    7.188067e-01
  3.021537e+01    7.065231e-01
  3.023125e+01    7.120718e-01
  3.024712e+01    7.238963e-01
  3.026300e+01    7.046063e-01
  3.027888e+01    7.062818e-01
  3.029475e+01    7.188950e-01
  3.031063e+01    7.363051e-01
  3.032650e+01    7.515475e-01
  3.034238e+01    7.334694e-01
  3.035825e+01    7.077958e-01
  3.037413e+01    7.043818e-01
  3.039000e+01    7.150322e-01
  3.040588e+01    7.049599e-01
  3.042176e+01    7.290611e-01
  3.043763e+01    7.294167e-01
  3.045351e+01    7.338169e-01
  3.046938e+01    7.227125e-01
  3.048526e+01    7.377620e-01
  3.050113e+01    7.321296e-01
  3.051701e+01    7.194348e-01
  3.053288e+01    7.117674e-01
  3.054876e+01    7.190691e-01
  3.056464e+01    7.333830e-01
  3.058051e+01    7.025475e-01
  3.059639e+01    7.184177e-01
  3.061226e+01    7.102872e-01
  3.062814e+01    7.287090e-01
  3.064401e+01    7.453631e-01
  3.065989e+01    7.308452e-01
  3.067577e+01    7.238270e-01
  3.069164e+01    7.364275e-01
  3.070752e+01    7.167529e-01
  3.072339e+01    7.273000e-01
  3.073927e+01    7.381058e-01
  3.075514e+01    7.157024e-01
  3.077102e+01    7.303292e-01
  3.078689e+01    7.289708e-01
  3.080277e+01    7.254918e-01
  3.081865e+01    7.047268e-01
  3.083452e+01    7.092211e-01
  3.085040e+01    7.242563e-01
  3.086627e+01    7.258421e-01
  3.088215e+01    7.353128e-01
  3.089802e+01    7.474426e-01
  3.091390e+01    7.311672e-01
  3.092977e+01    7.215954e-01
  3.094565e+01    7.278248e-01
  3.096153e+01    7.110853e-01
  3.097740e+01    7.208796e-01
  3.099328e+01    7.313989e-01
  3.100915e+01    7.209492e-01
  3.102503e+01    7.133986e-01
  3.104090e+01    7.013983e-01
  3.105678e+01    7.378772e-01
  3.107265e+01    7.143744e-01
  3.108853e+01    7.254131e-01
  3.110441e+01    7.350348e-01
  3.112028e+01    7.482992e-01
  3.113616e+01    7.386581e-01
  3.115203e+01    7.147864e-01
  3.116791e+01    7.270413e-01
  3.118378e+01    7.299771e-01
  3.119966e+01    7.265979e-01
  3.121553e+01    7.459950e-01
  3.123141e+01    7.278799e-01
  3.124729e+01    7.187991e-01
  3.126316e+01    7.305228e-01
  3.127904e+01    7.476085e-01
  3.129491e+01    7.332222e-01
  3.131079e+01    7.342440e-01
  3.132666e+01    7.339544e-01
  3.134254e+01    7.445604e-01
  3.135841e+01    7.436475e-01
  3.137429e+01    7.392504e-01
  3.139017e+01    7.486870e-01
  3.140604e+01    7.515805e-01
  3.142192e+01    7.377776e-01
  3.143779e+01    7.431214e-01
  3.145367e+01    7.530438e-01
  3.146954e+01    7.771502e-01
  3.148542e+01    7.725143e-01
  3.150129e+01    7.736821e-01
  3.151717e+01    7.814882e-01
  3.153305e+01    7.856847e-01
  3.154892e+01    8.010288e-01
  3.156480e+01    7.773942e-01
  3.158067e+01    8.095408e-01
  3.159655e+01    8.096461e-01
  3.161242e+01    8.096191e-01
  3.162830e+01    8.262289e-01
  3.164418e+01    8.338473e-01
  3.166005e+01    8.513031e-01
  3.167593e+01    8.795279e-01
  3.169180e+01    8.956277e-01
  3.170768e+01    8.987973e-01
  3.172355e+01    9.444239e-01
  3.173943e+01    1.000428e+00
  3.175530e+01    1.036403e+00
  3.177118e+01    1.062933e+00
  3.178706e+01    1.116569e+00
  3.180293e+01    1.216163e+00
  3.181881e+01    1.312153e+00
  3.183468e+01    1.447304e+00
  3.185056e+01    1.595501e+00
  3.186643e+01    1.757371e+00
  3.188231e+01    1.898800e+00
  3.189818e+01    2.091046e+00
  3.191406e+01    2.282484e+00
  3.192994e+01    2.429568e+00
  3.194581e+01    2.517820e+00
  3.196169e+01    2.550690e+00
  3.197756e+01    2.474216e+00
  3.199344e+01    2.379109e+00
  3.200931e+01    2.186963e+00
  3.202519e+01    1.958091e+00
  3.204106e+01    1.755064e+00
  3.205694e+01    1.576514e+00
  3.207282e+01    1.427847e+00
  3.208869e+01    1.290231e+00
  3.210457e+01    1.189938e+00
  3.212044e+01    1.120314e+00
  3.213632e+01    1.047073e+00
  3.215219e+01    9.847408e-01
  3.216807e+01    9.777774e-01
  3.218394e+01    9.606782e-01
  3.219982e+01    9.158449e-01
  3.221570e+01    8.787436e-01
  3.223157e+01    8.862693e-01
  3.224745e+01    8.724243e-01
  3.226332e+01    8.223201e-01
  3.227920e+01    8.223329e-01
  3.229507e+01    7.885568e-01
  3.231095e+01    8.071335e-01
  3.232682e+01    7.975549e-01
  3.234270e+01    7.835499e-01
  3.235858e+01    7.681751e-01
  3.237445e+01    7.667244e-01
  3.239033e+01    7.515416e-01
  3.240620e+01    7.528629e-01
  3.242208e+01    7.562532e-01
  3.243795e+01    7.608436e-01
  3.245383e+01    7.629254e-01
  3.246970e+01    7.558406e-01
  3.248558e+01    7.531375e-01
  3.250146e+01    7.538796e-01
  3.251733e+01    7.483857e-01
  3.253321e+01    7.017720e-01
  3.254908e+01    7.364316e-01
