# == pyFAI calibration ==
# Distance Sample to Detector: 0.3999999939076516 m
# PONI: 9.750e-02, 1.135e-01 m
# Rotations: -0.000175 0.000000 -0.000000 rad
# 
# == Fit2d calibration ==
# Distance Sample-beamCenter: 400.000 mm
# Center: x=1514.000, y=1300.000 pix
# Tilt: 0.010 deg  TiltPlanRot: 0.010 deg
# 
# Detector Detector	 Spline= None	 PixelSize= 7.500e-05, 7.500e-05 m
#    Detector has a mask: False 
#    Detector has a dark current: False 
#    detector has a flat field: False 
# 
# Wavelength: 6.888e-11 m
# Mask applied: user provided
# Dark current applied: False
# Flat field applied: False
# Polarization factor: 0.99
# Normalization factor: 1.0
# --> /home/myspot/data/2024_07_Rosario/Ru-CGO-ex/2024-07-27_002_Ru-CGO-ex_Activtation_ramp_000002_data_000175.dat
#       q_nm^-1             I 
  2.003187e-02    7.712225e-02
  3.590745e-02    6.421505e-02
  5.178302e-02    2.670345e-02
  6.765859e-02    1.226869e-01
  8.353417e-02    1.202899e-01
  9.940974e-02    3.959491e-02
  1.152853e-01    3.267415e-02
  1.311609e-01    6.517810e-03
  1.470365e-01    4.865978e-02
  1.629120e-01    4.862144e-02
  1.787876e-01    3.838953e-02
  1.946632e-01    6.617032e-02
  2.105388e-01    1.076190e-01
  2.264143e-01    4.628009e-02
  2.422899e-01    1.568464e-02
  2.581655e-01    1.676870e-02
  2.740411e-01    2.980836e-02
  2.899166e-01    4.319051e-02
  3.057922e-01    6.624161e-02
  3.216678e-01    7.340125e-02
  3.375433e-01    9.063084e-03
  3.534189e-01    2.699923e-02
  3.692945e-01    4.174278e-02
  3.851701e-01    2.156218e-02
  4.010456e-01    2.999478e-02
  4.169212e-01    4.312131e-02
  4.327968e-01    4.051284e-02
  4.486724e-01    2.144508e-02
  4.645479e-01    2.904961e-02
  4.804235e-01    5.351443e-02
  4.962991e-01    6.931596e-02
  5.121747e-01    4.653494e-02
  5.280502e-01    3.986314e-02
  5.439258e-01    5.666844e-02
  5.598014e-01    2.248739e-02
  5.756770e-01    3.416659e-02
  5.915525e-01    3.292869e-02
  6.074281e-01    3.485645e-02
  6.233037e-01    4.391040e-02
  6.391793e-01    3.558420e-02
  6.550548e-01    3.431034e-02
  6.709304e-01    2.343482e-02
  6.868060e-01    3.837214e-02
  7.026815e-01    4.151615e-02
  7.185571e-01    3.320103e-02
  7.344327e-01    5.228524e-02
  7.503083e-01    6.018494e-02
  7.661838e-01    5.242053e-02
  7.820594e-01    7.529306e-02
  7.979350e-01    1.322134e-01
  8.138106e-01    1.879556e-01
  8.296861e-01    2.365717e-01
  8.455617e-01    2.402113e-01
  8.614373e-01    3.493923e-01
  8.773129e-01    4.355964e-01
  8.931884e-01    4.924336e-01
  9.090640e-01    6.133762e-01
  9.249396e-01    6.267244e-01
  9.408152e-01    6.481397e-01
  9.566907e-01    8.040466e-01
  9.725663e-01    8.889900e-01
  9.884419e-01    9.780802e-01
  1.004317e+00    9.592679e-01
  1.020193e+00    1.067223e+00
  1.036069e+00    1.089285e+00
  1.051944e+00    1.132843e+00
  1.067820e+00    1.204005e+00
  1.083695e+00    1.275734e+00
  1.099571e+00    1.346900e+00
  1.115446e+00    1.404356e+00
  1.131322e+00    1.343741e+00
  1.147198e+00    1.449610e+00
  1.163073e+00    1.516979e+00
  1.178949e+00    1.607522e+00
  1.194824e+00    1.677475e+00
  1.210700e+00    1.776015e+00
  1.226575e+00    2.030557e+00
  1.242451e+00    2.163530e+00
  1.258327e+00    2.251396e+00
  1.274202e+00    2.293894e+00
  1.290078e+00    2.497293e+00
  1.305953e+00    2.481271e+00
  1.321829e+00    2.455107e+00
  1.337705e+00    2.499302e+00
  1.353580e+00    2.558925e+00
  1.369456e+00    2.544418e+00
  1.385331e+00    2.599449e+00
  1.401207e+00    2.587947e+00
  1.417082e+00    2.485712e+00
  1.432958e+00    2.499000e+00
  1.448834e+00    2.657268e+00
  1.464709e+00    2.680607e+00
  1.480585e+00    2.792852e+00
  1.496460e+00    2.792345e+00
  1.512336e+00    2.700622e+00
  1.528211e+00    2.847678e+00
  1.544087e+00    2.882583e+00
  1.559963e+00    2.955286e+00
  1.575838e+00    2.922240e+00
  1.591714e+00    2.858566e+00
  1.607589e+00    2.795605e+00
  1.623465e+00    2.856859e+00
  1.639340e+00    2.776719e+00
  1.655216e+00    2.853455e+00
  1.671092e+00    2.801423e+00
  1.686967e+00    2.838452e+00
  1.702843e+00    2.763762e+00
  1.718718e+00    2.700205e+00
  1.734594e+00    2.630166e+00
  1.750469e+00    2.797548e+00
  1.766345e+00    2.755995e+00
  1.782221e+00    2.710269e+00
  1.798096e+00    2.801290e+00
  1.813972e+00    2.699069e+00
  1.829847e+00    2.763499e+00
  1.845723e+00    2.751678e+00
  1.861598e+00    2.718494e+00
  1.877474e+00    2.637081e+00
  1.893350e+00    2.796566e+00
  1.909225e+00    2.801567e+00
  1.925101e+00    2.833788e+00
  1.940976e+00    2.717692e+00
  1.956852e+00    2.645211e+00
  1.972727e+00    2.720828e+00
  1.988603e+00    2.777320e+00
  2.004479e+00    2.719029e+00
  2.020354e+00    2.749743e+00
  2.036230e+00    2.736572e+00
  2.052105e+00    2.694985e+00
  2.067981e+00    2.801172e+00
  2.083856e+00    2.774089e+00
  2.099732e+00    2.701964e+00
  2.115608e+00    2.732880e+00
  2.131483e+00    2.675391e+00
  2.147359e+00    2.743514e+00
  2.163234e+00    2.744806e+00
  2.179110e+00    2.763427e+00
  2.194985e+00    2.719039e+00
  2.210861e+00    2.767803e+00
  2.226737e+00    2.801058e+00
  2.242612e+00    2.609852e+00
  2.258488e+00    2.657779e+00
  2.274363e+00    2.754818e+00
  2.290239e+00    2.658238e+00
  2.306115e+00    2.628487e+00
  2.321990e+00    2.688353e+00
  2.337866e+00    2.767847e+00
  2.353741e+00    2.879922e+00
  2.369617e+00    2.792303e+00
  2.385492e+00    2.734174e+00
  2.401368e+00    2.754670e+00
  2.417244e+00    2.698634e+00
  2.433119e+00    2.737245e+00
  2.448995e+00    2.694584e+00
  2.464870e+00    2.777565e+00
  2.480746e+00    2.776235e+00
  2.496621e+00    2.802640e+00
  2.512497e+00    2.713859e+00
  2.528373e+00    2.784155e+00
  2.544248e+00    2.890186e+00
  2.560124e+00    2.833519e+00
  2.575999e+00    2.856663e+00
  2.591875e+00    2.777405e+00
  2.607750e+00    2.836609e+00
  2.623626e+00    2.815118e+00
  2.639502e+00    2.773456e+00
  2.655377e+00    2.772257e+00
  2.671253e+00    2.794819e+00
  2.687128e+00    2.795627e+00
  2.703004e+00    2.797695e+00
  2.718879e+00    2.908485e+00
  2.734755e+00    2.880357e+00
  2.750631e+00    2.865829e+00
  2.766506e+00    2.890519e+00
  2.782382e+00    2.739626e+00
  2.798257e+00    2.778037e+00
  2.814133e+00    2.765240e+00
  2.830008e+00    2.813742e+00
  2.845884e+00    2.768920e+00
  2.861760e+00    2.794895e+00
  2.877635e+00    2.831551e+00
  2.893511e+00    2.917827e+00
  2.909386e+00    2.840472e+00
  2.925262e+00    2.822523e+00
  2.941137e+00    2.884464e+00
  2.957013e+00    2.865676e+00
  2.972889e+00    2.929573e+00
  2.988764e+00    2.812773e+00
  3.004640e+00    2.792045e+00
  3.020515e+00    2.943167e+00
  3.036391e+00    2.980269e+00
  3.052266e+00    3.012969e+00
  3.068142e+00    3.020909e+00
  3.084018e+00    2.838870e+00
  3.099893e+00    2.884044e+00
  3.115769e+00    2.898405e+00
  3.131644e+00    2.911801e+00
  3.147520e+00    2.888628e+00
  3.163395e+00    2.925876e+00
  3.179271e+00    2.938004e+00
  3.195147e+00    3.031315e+00
  3.211022e+00    3.080256e+00
  3.226898e+00    2.937043e+00
  3.242773e+00    2.940717e+00
  3.258649e+00    2.747993e+00
  3.274525e+00    2.803675e+00
  3.290400e+00    2.902868e+00
  3.306276e+00    2.835617e+00
  3.322151e+00    2.875520e+00
  3.338027e+00    3.004212e+00
  3.353902e+00    3.033277e+00
  3.369778e+00    3.010496e+00
  3.385654e+00    2.986427e+00
  3.401529e+00    2.861624e+00
  3.417405e+00    2.932221e+00
  3.433280e+00    2.937787e+00
  3.449156e+00    2.891086e+00
  3.465031e+00    2.975181e+00
  3.480907e+00    2.983517e+00
  3.496783e+00    3.034983e+00
  3.512658e+00    3.052594e+00
  3.528534e+00    2.974097e+00
  3.544409e+00    2.911559e+00
  3.560285e+00    2.954278e+00
  3.576160e+00    2.993317e+00
  3.592036e+00    2.971379e+00
  3.607912e+00    2.976202e+00
  3.623787e+00    2.953780e+00
  3.639663e+00    2.964140e+00
  3.655538e+00    2.998896e+00
  3.671414e+00    3.044023e+00
  3.687289e+00    2.972117e+00
  3.703165e+00    2.929663e+00
  3.719041e+00    2.943665e+00
  3.734916e+00    3.065458e+00
  3.750792e+00    3.002460e+00
  3.766667e+00    2.991268e+00
  3.782543e+00    2.970895e+00
  3.798418e+00    3.005419e+00
  3.814294e+00    3.059644e+00
  3.830170e+00    3.081887e+00
  3.846045e+00    3.003917e+00
  3.861921e+00    2.972276e+00
  3.877796e+00    2.923009e+00
  3.893672e+00    2.949410e+00
  3.909547e+00    3.057592e+00
  3.925423e+00    3.056389e+00
  3.941299e+00    2.932339e+00
  3.957174e+00    2.947845e+00
  3.973050e+00    3.086176e+00
  3.988925e+00    3.039454e+00
  4.004801e+00    3.026852e+00
  4.020676e+00    3.035220e+00
  4.036552e+00    3.081707e+00
  4.052428e+00    3.019553e+00
  4.068303e+00    3.089195e+00
  4.084179e+00    3.115902e+00
  4.100054e+00    3.115805e+00
  4.115930e+00    3.106892e+00
  4.131806e+00    3.042650e+00
  4.147681e+00    3.011643e+00
  4.163557e+00    3.093186e+00
  4.179432e+00    3.080070e+00
  4.195308e+00    3.011015e+00
  4.211183e+00    3.062018e+00
  4.227059e+00    3.093031e+00
  4.242935e+00    3.071521e+00
  4.258810e+00    3.109469e+00
  4.274686e+00    3.014562e+00
  4.290561e+00    3.028425e+00
  4.306437e+00    3.046547e+00
  4.322312e+00    3.011387e+00
  4.338188e+00    3.052634e+00
  4.354064e+00    3.089269e+00
  4.369939e+00    3.052932e+00
  4.385815e+00    3.050992e+00
  4.401690e+00    3.039515e+00
  4.417566e+00    3.073306e+00
  4.433441e+00    2.949691e+00
  4.449317e+00    3.031755e+00
  4.465193e+00    3.053689e+00
  4.481068e+00    3.028653e+00
  4.496944e+00    3.035885e+00
  4.512819e+00    3.053110e+00
  4.528695e+00    3.073584e+00
  4.544570e+00    3.121831e+00
  4.560446e+00    3.125751e+00
  4.576322e+00    3.041375e+00
  4.592197e+00    3.098468e+00
  4.608073e+00    3.103790e+00
  4.623948e+00    3.073512e+00
  4.639824e+00    3.063413e+00
  4.655699e+00    3.055466e+00
  4.671575e+00    3.080976e+00
  4.687451e+00    3.139700e+00
  4.703326e+00    3.131004e+00
  4.719202e+00    3.088496e+00
  4.735077e+00    3.277067e+00
  4.750953e+00    3.312723e+00
  4.766828e+00    3.100744e+00
  4.782704e+00    3.033957e+00
  4.798580e+00    3.071638e+00
  4.814455e+00    3.193655e+00
  4.830331e+00    3.143631e+00
  4.846206e+00    3.092536e+00
  4.862082e+00    3.114754e+00
  4.877957e+00    3.119655e+00
  4.893833e+00    3.125412e+00
  4.909709e+00    3.072032e+00
  4.925584e+00    3.108934e+00
  4.941460e+00    3.098356e+00
  4.957335e+00    3.084629e+00
  4.973211e+00    3.058344e+00
  4.989086e+00    3.062568e+00
  5.004962e+00    3.065530e+00
  5.020838e+00    3.210495e+00
  5.036713e+00    3.158465e+00
  5.052589e+00    3.121511e+00
  5.068464e+00    3.131108e+00
  5.084340e+00    3.133301e+00
  5.100216e+00    3.095701e+00
  5.116091e+00    3.080489e+00
  5.131967e+00    3.128542e+00
  5.147842e+00    3.117308e+00
  5.163718e+00    3.119752e+00
  5.179593e+00    3.203075e+00
  5.195469e+00    3.121526e+00
  5.211345e+00    3.106048e+00
  5.227220e+00    3.079031e+00
  5.243096e+00    3.112806e+00
  5.258971e+00    3.087772e+00
  5.274847e+00    3.090201e+00
  5.290722e+00    3.107634e+00
  5.306598e+00    3.095970e+00
  5.322474e+00    3.013457e+00
  5.338349e+00    3.109037e+00
  5.354225e+00    3.151462e+00
  5.370100e+00    3.203344e+00
  5.385976e+00    3.214402e+00
  5.401851e+00    3.159126e+00
  5.417727e+00    3.050265e+00
  5.433603e+00    3.085306e+00
  5.449478e+00    3.085930e+00
  5.465354e+00    3.119317e+00
  5.481229e+00    3.110410e+00
  5.497105e+00    3.117312e+00
  5.512980e+00    3.125383e+00
  5.528856e+00    3.098156e+00
  5.544732e+00    3.092147e+00
  5.560607e+00    3.077196e+00
  5.576483e+00    3.118421e+00
  5.592358e+00    3.178138e+00
  5.608234e+00    3.149804e+00
  5.624109e+00    3.130263e+00
  5.639985e+00    3.088003e+00
  5.655861e+00    3.095009e+00
  5.671736e+00    3.046173e+00
  5.687612e+00    3.066606e+00
  5.703487e+00    3.160042e+00
  5.719363e+00    3.109625e+00
  5.735238e+00    3.032613e+00
  5.751114e+00    3.036827e+00
  5.766990e+00    3.049973e+00
  5.782865e+00    3.111787e+00
  5.798741e+00    3.071297e+00
  5.814616e+00    2.994948e+00
  5.830492e+00    3.104641e+00
  5.846367e+00    3.148710e+00
  5.862243e+00    3.047418e+00
  5.878119e+00    3.016604e+00
  5.893994e+00    3.039302e+00
  5.909870e+00    3.020965e+00
  5.925745e+00    3.055589e+00
  5.941621e+00    3.055675e+00
  5.957497e+00    3.131051e+00
  5.973372e+00    3.057554e+00
  5.989248e+00    3.045471e+00
  6.005123e+00    3.049730e+00
  6.020999e+00    2.998735e+00
  6.036874e+00    3.023058e+00
  6.052750e+00    3.037084e+00
  6.068626e+00    3.060683e+00
  6.084501e+00    3.012511e+00
  6.100377e+00    3.014542e+00
  6.116252e+00    3.127456e+00
  6.132128e+00    3.130078e+00
  6.148003e+00    3.075567e+00
  6.163879e+00    3.142960e+00
  6.179755e+00    3.122518e+00
  6.195630e+00    3.082401e+00
  6.211506e+00    3.076246e+00
  6.227381e+00    3.020541e+00
  6.243257e+00    2.983614e+00
  6.259132e+00    3.044292e+00
  6.275008e+00    3.046417e+00
  6.290884e+00    2.980586e+00
  6.306759e+00    3.022433e+00
  6.322635e+00    2.997044e+00
  6.338510e+00    2.997617e+00
  6.354386e+00    3.016757e+00
  6.370261e+00    3.050180e+00
  6.386137e+00    3.047951e+00
  6.402013e+00    3.094556e+00
  6.417888e+00    3.079819e+00
  6.433764e+00    3.016117e+00
  6.449639e+00    3.081872e+00
  6.465515e+00    3.067747e+00
  6.481390e+00    3.020754e+00
  6.497266e+00    3.015209e+00
  6.513142e+00    3.074967e+00
  6.529017e+00    3.081715e+00
  6.544893e+00    3.069958e+00
  6.560768e+00    3.043958e+00
  6.576644e+00    3.088982e+00
  6.592519e+00    3.068015e+00
  6.608395e+00    3.027612e+00
  6.624271e+00    3.050047e+00
  6.640146e+00    3.029828e+00
  6.656022e+00    3.003460e+00
  6.671897e+00    3.032352e+00
  6.687773e+00    3.001951e+00
  6.703648e+00    3.012613e+00
  6.719524e+00    3.032950e+00
  6.735400e+00    3.041198e+00
  6.751275e+00    3.059215e+00
  6.767151e+00    3.062989e+00
  6.783026e+00    3.069204e+00
  6.798902e+00    3.016671e+00
  6.814777e+00    3.031420e+00
  6.830653e+00    3.127377e+00
  6.846529e+00    3.100079e+00
  6.862404e+00    3.044356e+00
  6.878280e+00    3.019146e+00
  6.894155e+00    3.062926e+00
  6.910031e+00    3.069163e+00
  6.925907e+00    3.027869e+00
  6.941782e+00    3.050245e+00
  6.957658e+00    2.994948e+00
  6.973533e+00    3.004483e+00
  6.989409e+00    3.031433e+00
  7.005284e+00    3.023223e+00
  7.021160e+00    2.930851e+00
  7.037036e+00    2.999438e+00
  7.052911e+00    3.036626e+00
  7.068787e+00    3.029958e+00
  7.084662e+00    2.953125e+00
  7.100538e+00    2.965438e+00
  7.116413e+00    3.048790e+00
  7.132289e+00    3.018654e+00
  7.148165e+00    3.038795e+00
  7.164040e+00    3.045289e+00
  7.179916e+00    3.006964e+00
  7.195791e+00    2.954937e+00
  7.211667e+00    2.962665e+00
  7.227542e+00    2.982934e+00
  7.243418e+00    2.982836e+00
  7.259294e+00    2.983412e+00
  7.275169e+00    3.017448e+00
  7.291045e+00    3.043950e+00
  7.306920e+00    2.997980e+00
  7.322796e+00    3.021155e+00
  7.338671e+00    3.010530e+00
  7.354547e+00    3.010841e+00
  7.370423e+00    3.021908e+00
  7.386298e+00    3.018024e+00
  7.402174e+00    2.975604e+00
  7.418049e+00    2.952323e+00
  7.433925e+00    3.002316e+00
  7.449800e+00    3.052589e+00
  7.465676e+00    3.065168e+00
  7.481552e+00    3.010437e+00
  7.497427e+00    3.018055e+00
  7.513303e+00    3.038826e+00
  7.529178e+00    3.023249e+00
  7.545054e+00    2.914986e+00
  7.560929e+00    2.965675e+00
  7.576805e+00    2.965898e+00
  7.592681e+00    2.919165e+00
  7.608556e+00    2.978394e+00
  7.624432e+00    2.976524e+00
  7.640307e+00    2.994401e+00
  7.656183e+00    3.023446e+00
  7.672058e+00    2.989205e+00
  7.687934e+00    2.921697e+00
  7.703810e+00    2.957495e+00
  7.719685e+00    2.952076e+00
  7.735561e+00    2.923499e+00
  7.751436e+00    2.900561e+00
  7.767312e+00    2.915054e+00
  7.783187e+00    2.862751e+00
  7.799063e+00    2.870458e+00
  7.814939e+00    2.859107e+00
  7.830814e+00    2.947249e+00
  7.846690e+00    2.985113e+00
  7.862565e+00    3.021245e+00
  7.878441e+00    2.957345e+00
  7.894317e+00    2.918006e+00
  7.910192e+00    2.976436e+00
  7.926068e+00    3.007134e+00
  7.941943e+00    2.960783e+00
  7.957819e+00    2.911630e+00
  7.973694e+00    2.887878e+00
  7.989570e+00    2.896476e+00
  8.005446e+00    2.906493e+00
  8.021321e+00    2.961629e+00
  8.037197e+00    2.911336e+00
  8.053072e+00    2.931271e+00
  8.068948e+00    2.937493e+00
  8.084823e+00    2.932084e+00
  8.100699e+00    2.995993e+00
  8.116575e+00    2.992649e+00
  8.132450e+00    2.964775e+00
  8.148326e+00    2.914491e+00
  8.164201e+00    2.936376e+00
  8.180077e+00    2.984730e+00
  8.195952e+00    2.992982e+00
  8.211828e+00    2.959507e+00
  8.227704e+00    2.971708e+00
  8.243579e+00    3.002251e+00
  8.259455e+00    2.960386e+00
  8.275330e+00    2.931183e+00
  8.291206e+00    2.936397e+00
  8.307081e+00    2.997869e+00
  8.322957e+00    2.902921e+00
  8.338833e+00    2.875172e+00
  8.354708e+00    2.890199e+00
  8.370584e+00    2.925551e+00
  8.386459e+00    2.906626e+00
  8.402335e+00    2.941046e+00
  8.418210e+00    2.933246e+00
  8.434086e+00    2.908596e+00
  8.449962e+00    2.924527e+00
  8.465837e+00    2.914968e+00
  8.481713e+00    2.901565e+00
  8.497588e+00    2.901189e+00
  8.513464e+00    2.897035e+00
  8.529339e+00    2.857028e+00
  8.545215e+00    2.808195e+00
  8.561091e+00    2.855856e+00
  8.576966e+00    2.874245e+00
  8.592842e+00    2.977905e+00
  8.608717e+00    2.913919e+00
  8.624593e+00    2.858305e+00
  8.640468e+00    2.882422e+00
  8.656344e+00    2.830684e+00
  8.672220e+00    2.868374e+00
  8.688095e+00    2.940981e+00
  8.703971e+00    2.897663e+00
  8.719846e+00    2.875519e+00
  8.735722e+00    2.867588e+00
  8.751598e+00    2.817170e+00
  8.767473e+00    2.856461e+00
  8.783349e+00    2.892105e+00
  8.799224e+00    2.858269e+00
  8.815100e+00    2.850408e+00
  8.830975e+00    2.819481e+00
  8.846851e+00    2.857191e+00
  8.862727e+00    2.867835e+00
  8.878602e+00    2.807160e+00
  8.894478e+00    2.809592e+00
  8.910353e+00    2.842296e+00
  8.926229e+00    2.843240e+00
  8.942104e+00    2.828181e+00
  8.957980e+00    2.844936e+00
  8.973856e+00    2.834742e+00
  8.989731e+00    2.791418e+00
  9.005607e+00    2.764565e+00
  9.021482e+00    2.790891e+00
  9.037358e+00    2.817622e+00
  9.053233e+00    2.916218e+00
  9.069109e+00    2.852991e+00
  9.084985e+00    2.828744e+00
  9.100860e+00    2.800001e+00
  9.116736e+00    2.830301e+00
  9.132611e+00    2.790736e+00
  9.148487e+00    2.804549e+00
  9.164362e+00    2.820738e+00
  9.180238e+00    2.768743e+00
  9.196114e+00    2.809356e+00
  9.211989e+00    2.807402e+00
  9.227865e+00    2.814473e+00
  9.243740e+00    2.793606e+00
  9.259616e+00    2.752429e+00
  9.275491e+00    2.782641e+00
  9.291367e+00    2.774278e+00
  9.307243e+00    2.812089e+00
  9.323118e+00    2.807806e+00
  9.338994e+00    2.746242e+00
  9.354869e+00    2.815356e+00
  9.370745e+00    2.844426e+00
  9.386620e+00    2.809242e+00
  9.402496e+00    2.790658e+00
  9.418372e+00    2.805345e+00
  9.434247e+00    2.744094e+00
  9.450123e+00    2.743954e+00
  9.465998e+00    2.799115e+00
  9.481874e+00    2.789171e+00
  9.497749e+00    2.733208e+00
  9.513625e+00    2.735367e+00
  9.529501e+00    2.814554e+00
  9.545376e+00    2.790421e+00
  9.561252e+00    2.807993e+00
  9.577127e+00    2.828901e+00
  9.593003e+00    2.832908e+00
  9.608878e+00    2.830679e+00
  9.624754e+00    2.758123e+00
  9.640630e+00    2.742079e+00
  9.656505e+00    2.746146e+00
  9.672381e+00    2.739311e+00
  9.688256e+00    2.765579e+00
  9.704132e+00    2.788543e+00
  9.720008e+00    2.765040e+00
  9.735883e+00    2.717191e+00
  9.751759e+00    2.755185e+00
  9.767634e+00    2.760319e+00
  9.783510e+00    2.765499e+00
  9.799385e+00    2.725072e+00
  9.815261e+00    2.724340e+00
  9.831137e+00    2.721865e+00
  9.847012e+00    2.700973e+00
  9.862888e+00    2.640380e+00
  9.878763e+00    2.651010e+00
  9.894639e+00    2.682117e+00
  9.910514e+00    2.698282e+00
  9.926390e+00    2.674198e+00
  9.942266e+00    2.656362e+00
  9.958141e+00    2.643647e+00
  9.974017e+00    2.651321e+00
  9.989892e+00    2.646147e+00
  1.000577e+01    2.666498e+00
  1.002164e+01    2.638919e+00
  1.003752e+01    2.683382e+00
  1.005339e+01    2.665513e+00
  1.006927e+01    2.676522e+00
  1.008515e+01    2.678221e+00
  1.010102e+01    2.684598e+00
  1.011690e+01    2.676168e+00
  1.013277e+01    2.680187e+00
  1.014865e+01    2.611768e+00
  1.016452e+01    2.588420e+00
  1.018040e+01    2.614164e+00
  1.019627e+01    2.603747e+00
  1.021215e+01    2.654322e+00
  1.022803e+01    2.641634e+00
  1.024390e+01    2.615087e+00
  1.025978e+01    2.625902e+00
  1.027565e+01    2.621057e+00
  1.029153e+01    2.636473e+00
  1.030740e+01    2.610123e+00
  1.032328e+01    2.607817e+00
  1.033915e+01    2.636564e+00
  1.035503e+01    2.636175e+00
  1.037091e+01    2.623999e+00
  1.038678e+01    2.556398e+00
  1.040266e+01    2.616099e+00
  1.041853e+01    2.628611e+00
  1.043441e+01    2.593455e+00
  1.045028e+01    2.567901e+00
  1.046616e+01    2.581212e+00
  1.048204e+01    2.585161e+00
  1.049791e+01    2.584336e+00
  1.051379e+01    2.605124e+00
  1.052966e+01    2.661790e+00
  1.054554e+01    2.625742e+00
  1.056141e+01    2.574301e+00
  1.057729e+01    2.595618e+00
  1.059316e+01    2.587186e+00
  1.060904e+01    2.556938e+00
  1.062492e+01    2.542789e+00
  1.064079e+01    2.564012e+00
  1.065667e+01    2.609317e+00
  1.067254e+01    2.610652e+00
  1.068842e+01    2.561330e+00
  1.070429e+01    2.526716e+00
  1.072017e+01    2.493374e+00
  1.073604e+01    2.492019e+00
  1.075192e+01    2.492985e+00
  1.076780e+01    2.546865e+00
  1.078367e+01    2.574007e+00
  1.079955e+01    2.551328e+00
  1.081542e+01    2.555426e+00
  1.083130e+01    2.510170e+00
  1.084717e+01    2.475674e+00
  1.086305e+01    2.529566e+00
  1.087892e+01    2.477021e+00
  1.089480e+01    2.507804e+00
  1.091068e+01    2.538262e+00
  1.092655e+01    2.539280e+00
  1.094243e+01    2.528641e+00
  1.095830e+01    2.501664e+00
  1.097418e+01    2.484922e+00
  1.099005e+01    2.499869e+00
  1.100593e+01    2.521290e+00
  1.102180e+01    2.494271e+00
  1.103768e+01    2.493446e+00
  1.105356e+01    2.480154e+00
  1.106943e+01    2.437605e+00
  1.108531e+01    2.471053e+00
  1.110118e+01    2.569423e+00
  1.111706e+01    2.537674e+00
  1.113293e+01    2.431181e+00
  1.114881e+01    2.442334e+00
  1.116468e+01    2.528751e+00
  1.118056e+01    2.543309e+00
  1.119644e+01    2.477876e+00
  1.121231e+01    2.486174e+00
  1.122819e+01    2.484387e+00
  1.124406e+01    2.500566e+00
  1.125994e+01    2.477989e+00
  1.127581e+01    2.482089e+00
  1.129169e+01    2.482618e+00
  1.130756e+01    2.450491e+00
  1.132344e+01    2.456081e+00
  1.133932e+01    2.469298e+00
  1.135519e+01    2.435975e+00
  1.137107e+01    2.477133e+00
  1.138694e+01    2.453551e+00
  1.140282e+01    2.478978e+00
  1.141869e+01    2.437634e+00
  1.143457e+01    2.420820e+00
  1.145045e+01    2.452801e+00
  1.146632e+01    2.416602e+00
  1.148220e+01    2.435742e+00
  1.149807e+01    2.404706e+00
  1.151395e+01    2.400481e+00
  1.152982e+01    2.425952e+00
  1.154570e+01    2.433702e+00
  1.156157e+01    2.419720e+00
  1.157745e+01    2.422990e+00
  1.159333e+01    2.396006e+00
  1.160920e+01    2.364245e+00
  1.162508e+01    2.372257e+00
  1.164095e+01    2.404637e+00
  1.165683e+01    2.367152e+00
  1.167270e+01    2.367791e+00
  1.168858e+01    2.409466e+00
  1.170445e+01    2.423686e+00
  1.172033e+01    2.428055e+00
  1.173621e+01    2.332149e+00
  1.175208e+01    2.333117e+00
  1.176796e+01    2.372859e+00
  1.178383e+01    2.342457e+00
  1.179971e+01    2.307410e+00
  1.181558e+01    2.359149e+00
  1.183146e+01    2.339330e+00
  1.184733e+01    2.358099e+00
  1.186321e+01    2.339923e+00
  1.187909e+01    2.325533e+00
  1.189496e+01    2.323570e+00
  1.191084e+01    2.339092e+00
  1.192671e+01    2.351649e+00
  1.194259e+01    2.353877e+00
  1.195846e+01    2.329185e+00
  1.197434e+01    2.324296e+00
  1.199021e+01    2.307121e+00
  1.200609e+01    2.314287e+00
  1.202197e+01    2.316226e+00
  1.203784e+01    2.325031e+00
  1.205372e+01    2.332856e+00
  1.206959e+01    2.356429e+00
  1.208547e+01    2.348561e+00
  1.210134e+01    2.274484e+00
  1.211722e+01    2.279387e+00
  1.213309e+01    2.315971e+00
  1.214897e+01    2.288592e+00
  1.216485e+01    2.312367e+00
  1.218072e+01    2.313203e+00
  1.219660e+01    2.302601e+00
  1.221247e+01    2.271231e+00
  1.222835e+01    2.289422e+00
  1.224422e+01    2.291147e+00
  1.226010e+01    2.339633e+00
  1.227597e+01    2.335171e+00
  1.229185e+01    2.365142e+00
  1.230773e+01    2.318718e+00
  1.232360e+01    2.327714e+00
  1.233948e+01    2.325583e+00
  1.235535e+01    2.288714e+00
  1.237123e+01    2.297558e+00
  1.238710e+01    2.293693e+00
  1.240298e+01    2.342370e+00
  1.241886e+01    2.332154e+00
  1.243473e+01    2.337075e+00
  1.245061e+01    2.297287e+00
  1.246648e+01    2.358448e+00
  1.248236e+01    2.369798e+00
  1.249823e+01    2.357986e+00
  1.251411e+01    2.363622e+00
  1.252998e+01    2.370392e+00
  1.254586e+01    2.359355e+00
  1.256174e+01    2.342169e+00
  1.257761e+01    2.366959e+00
  1.259349e+01    2.351725e+00
  1.260936e+01    2.375628e+00
  1.262524e+01    2.408449e+00
  1.264111e+01    2.422002e+00
  1.265699e+01    2.429661e+00
  1.267286e+01    2.468863e+00
  1.268874e+01    2.454071e+00
  1.270462e+01    2.479249e+00
  1.272049e+01    2.535338e+00
  1.273637e+01    2.500225e+00
  1.275224e+01    2.518525e+00
  1.276812e+01    2.560744e+00
  1.278399e+01    2.549421e+00
  1.279987e+01    2.618481e+00
  1.281574e+01    2.686715e+00
  1.283162e+01    2.813921e+00
  1.284750e+01    2.856228e+00
  1.286337e+01    2.945712e+00
  1.287925e+01    3.053846e+00
  1.289512e+01    3.140196e+00
  1.291100e+01    3.216725e+00
  1.292687e+01    3.400662e+00
  1.294275e+01    3.637823e+00
  1.295862e+01    4.011828e+00
  1.297450e+01    4.294629e+00
  1.299038e+01    4.763852e+00
  1.300625e+01    5.359530e+00
  1.302213e+01    6.161766e+00
  1.303800e+01    7.116777e+00
  1.305388e+01    8.184563e+00
  1.306975e+01    9.386572e+00
  1.308563e+01    1.064968e+01
  1.310150e+01    1.186967e+01
  1.311738e+01    1.303103e+01
  1.313326e+01    1.409618e+01
  1.314913e+01    1.499470e+01
  1.316501e+01    1.574111e+01
  1.318088e+01    1.604205e+01
  1.319676e+01    1.556854e+01
  1.321263e+01    1.431535e+01
  1.322851e+01    1.255128e+01
  1.324438e+01    1.067069e+01
  1.326026e+01    8.966113e+00
  1.327614e+01    7.584513e+00
  1.329201e+01    6.555371e+00
  1.330789e+01    5.665147e+00
  1.332376e+01    4.981516e+00
  1.333964e+01    4.509480e+00
  1.335551e+01    4.140134e+00
  1.337139e+01    3.840771e+00
  1.338727e+01    3.566316e+00
  1.340314e+01    3.321180e+00
  1.341902e+01    3.186737e+00
  1.343489e+01    3.042577e+00
  1.345077e+01    2.894123e+00
  1.346664e+01    2.806555e+00
  1.348252e+01    2.694008e+00
  1.349839e+01    2.652591e+00
  1.351427e+01    2.567446e+00
  1.353015e+01    2.547188e+00
  1.354602e+01    2.499572e+00
  1.356190e+01    2.435910e+00
  1.357777e+01    2.343931e+00
  1.359365e+01    2.321596e+00
  1.360952e+01    2.298639e+00
  1.362540e+01    2.302647e+00
  1.364127e+01    2.305281e+00
  1.365715e+01    2.274090e+00
  1.367303e+01    2.251797e+00
  1.368890e+01    2.239583e+00
  1.370478e+01    2.210688e+00
  1.372065e+01    2.157069e+00
  1.373653e+01    2.170789e+00
  1.375240e+01    2.189262e+00
  1.376828e+01    2.178429e+00
  1.378415e+01    2.170805e+00
  1.380003e+01    2.194207e+00
  1.381591e+01    2.184401e+00
  1.383178e+01    2.168893e+00
  1.384766e+01    2.082794e+00
  1.386353e+01    2.130032e+00
  1.387941e+01    2.122989e+00
  1.389528e+01    2.094814e+00
  1.391116e+01    2.079057e+00
  1.392703e+01    2.057041e+00
  1.394291e+01    2.048847e+00
  1.395879e+01    1.997372e+00
  1.397466e+01    2.053632e+00
  1.399054e+01    2.061231e+00
  1.400641e+01    2.034915e+00
  1.402229e+01    2.018144e+00
  1.403816e+01    2.035749e+00
  1.405404e+01    2.027542e+00
  1.406991e+01    2.018306e+00
  1.408579e+01    2.025633e+00
  1.410167e+01    2.043152e+00
  1.411754e+01    2.018480e+00
  1.413342e+01    1.986327e+00
  1.414929e+01    2.000015e+00
  1.416517e+01    2.002223e+00
  1.418104e+01    2.016545e+00
  1.419692e+01    2.028294e+00
  1.421279e+01    1.958594e+00
  1.422867e+01    1.952819e+00
  1.424455e+01    1.981992e+00
  1.426042e+01    2.000226e+00
  1.427630e+01    1.967629e+00
  1.429217e+01    1.938751e+00
  1.430805e+01    1.938360e+00
  1.432392e+01    1.935242e+00
  1.433980e+01    1.933946e+00
  1.435568e+01    1.913599e+00
  1.437155e+01    1.932023e+00
  1.438743e+01    1.952704e+00
  1.440330e+01    1.952276e+00
  1.441918e+01    1.955343e+00
  1.443505e+01    1.940043e+00
  1.445093e+01    1.909360e+00
  1.446680e+01    1.934399e+00
  1.448268e+01    1.938588e+00
  1.449856e+01    1.924378e+00
  1.451443e+01    1.961371e+00
  1.453031e+01    1.958448e+00
  1.454618e+01    1.920227e+00
  1.456206e+01    1.915631e+00
  1.457793e+01    1.889271e+00
  1.459381e+01    1.907692e+00
  1.460968e+01    1.937425e+00
  1.462556e+01    1.926634e+00
  1.464144e+01    1.908958e+00
  1.465731e+01    1.920539e+00
  1.467319e+01    1.926796e+00
  1.468906e+01    1.926285e+00
  1.470494e+01    1.929975e+00
  1.472081e+01    1.965739e+00
  1.473669e+01    1.944377e+00
  1.475256e+01    1.925660e+00
  1.476844e+01    1.916586e+00
  1.478432e+01    1.926186e+00
  1.480019e+01    1.904335e+00
  1.481607e+01    1.942895e+00
  1.483194e+01    1.940733e+00
  1.484782e+01    1.940039e+00
  1.486369e+01    1.934816e+00
  1.487957e+01    1.947075e+00
  1.489544e+01    1.948833e+00
  1.491132e+01    1.928062e+00
  1.492720e+01    1.920281e+00
  1.494307e+01    1.956999e+00
  1.495895e+01    2.019664e+00
  1.497482e+01    2.052649e+00
  1.499070e+01    2.107283e+00
  1.500657e+01    2.152030e+00
  1.502245e+01    2.204345e+00
  1.503832e+01    2.292636e+00
  1.505420e+01    2.378294e+00
  1.507008e+01    2.506878e+00
  1.508595e+01    2.677958e+00
  1.510183e+01    2.875304e+00
  1.511770e+01    3.088649e+00
  1.513358e+01    3.425206e+00
  1.514945e+01    3.764790e+00
  1.516533e+01    4.172851e+00
  1.518120e+01    4.485817e+00
  1.519708e+01    4.771188e+00
  1.521296e+01    4.965895e+00
  1.522883e+01    5.200335e+00
  1.524471e+01    5.405510e+00
  1.526058e+01    5.494681e+00
  1.527646e+01    5.408485e+00
  1.529233e+01    5.285196e+00
  1.530821e+01    5.027074e+00
  1.532409e+01    4.543147e+00
  1.533996e+01    4.065388e+00
  1.535584e+01    3.579510e+00
  1.537171e+01    3.168592e+00
  1.538759e+01    2.971909e+00
  1.540346e+01    2.716299e+00
  1.541934e+01    2.498550e+00
  1.543521e+01    2.341478e+00
  1.545109e+01    2.259431e+00
  1.546697e+01    2.213554e+00
  1.548284e+01    2.104794e+00
  1.549872e+01    1.997208e+00
  1.551459e+01    1.987672e+00
  1.553047e+01    1.919576e+00
  1.554634e+01    1.918494e+00
  1.556222e+01    1.890046e+00
  1.557809e+01    1.849241e+00
  1.559397e+01    1.819008e+00
  1.560985e+01    1.797188e+00
  1.562572e+01    1.778945e+00
  1.564160e+01    1.775055e+00
  1.565747e+01    1.796248e+00
  1.567335e+01    1.782886e+00
  1.568922e+01    1.766188e+00
  1.570510e+01    1.734122e+00
  1.572097e+01    1.702472e+00
  1.573685e+01    1.696540e+00
  1.575273e+01    1.690905e+00
  1.576860e+01    1.719587e+00
  1.578448e+01    1.712921e+00
  1.580035e+01    1.687584e+00
  1.581623e+01    1.682684e+00
  1.583210e+01    1.661173e+00
  1.584798e+01    1.663495e+00
  1.586385e+01    1.612838e+00
  1.587973e+01    1.650063e+00
  1.589561e+01    1.678130e+00
  1.591148e+01    1.674283e+00
  1.592736e+01    1.636663e+00
  1.594323e+01    1.638180e+00
  1.595911e+01    1.647341e+00
  1.597498e+01    1.631016e+00
  1.599086e+01    1.631929e+00
  1.600673e+01    1.626788e+00
  1.602261e+01    1.621995e+00
  1.603849e+01    1.600838e+00
  1.605436e+01    1.610705e+00
  1.607024e+01    1.591348e+00
  1.608611e+01    1.580133e+00
  1.610199e+01    1.593220e+00
  1.611786e+01    1.597674e+00
  1.613374e+01    1.596259e+00
  1.614961e+01    1.601430e+00
  1.616549e+01    1.553057e+00
  1.618137e+01    1.530641e+00
  1.619724e+01    1.568356e+00
  1.621312e+01    1.577691e+00
  1.622899e+01    1.528892e+00
  1.624487e+01    1.530827e+00
  1.626074e+01    1.537855e+00
  1.627662e+01    1.549620e+00
  1.629250e+01    1.560562e+00
  1.630837e+01    1.569924e+00
  1.632425e+01    1.560128e+00
  1.634012e+01    1.573373e+00
  1.635600e+01    1.516998e+00
  1.637187e+01    1.501999e+00
  1.638775e+01    1.515995e+00
  1.640362e+01    1.501124e+00
  1.641950e+01    1.469783e+00
  1.643538e+01    1.519909e+00
  1.645125e+01    1.517704e+00
  1.646713e+01    1.526126e+00
  1.648300e+01    1.531556e+00
  1.649888e+01    1.531435e+00
  1.651475e+01    1.528087e+00
  1.653063e+01    1.491552e+00
  1.654650e+01    1.483561e+00
  1.656238e+01    1.511065e+00
  1.657826e+01    1.496402e+00
  1.659413e+01    1.514776e+00
  1.661001e+01    1.509919e+00
  1.662588e+01    1.471574e+00
  1.664176e+01    1.485629e+00
  1.665763e+01    1.519975e+00
  1.667351e+01    1.479924e+00
  1.668938e+01    1.490961e+00
  1.670526e+01    1.473592e+00
  1.672114e+01    1.470821e+00
  1.673701e+01    1.486429e+00
  1.675289e+01    1.491789e+00
  1.676876e+01    1.510756e+00
  1.678464e+01    1.472684e+00
  1.680051e+01    1.474915e+00
  1.681639e+01    1.470663e+00
  1.683226e+01    1.489455e+00
  1.684814e+01    1.453169e+00
  1.686402e+01    1.471402e+00
  1.687989e+01    1.470622e+00
  1.689577e+01    1.460610e+00
  1.691164e+01    1.454413e+00
  1.692752e+01    1.447817e+00
  1.694339e+01    1.459013e+00
  1.695927e+01    1.443161e+00
  1.697514e+01    1.408660e+00
  1.699102e+01    1.418685e+00
  1.700690e+01    1.429841e+00
  1.702277e+01    1.422091e+00
  1.703865e+01    1.435489e+00
  1.705452e+01    1.419919e+00
  1.707040e+01    1.402110e+00
  1.708627e+01    1.432161e+00
  1.710215e+01    1.433200e+00
  1.711802e+01    1.411552e+00
  1.713390e+01    1.430454e+00
  1.714978e+01    1.446460e+00
  1.716565e+01    1.449092e+00
  1.718153e+01    1.421423e+00
  1.719740e+01    1.400522e+00
  1.721328e+01    1.380048e+00
  1.722915e+01    1.402689e+00
  1.724503e+01    1.412207e+00
  1.726091e+01    1.388748e+00
  1.727678e+01    1.390227e+00
  1.729266e+01    1.411492e+00
  1.730853e+01    1.416241e+00
  1.732441e+01    1.401266e+00
  1.734028e+01    1.401206e+00
  1.735616e+01    1.371355e+00
  1.737203e+01    1.410823e+00
  1.738791e+01    1.384545e+00
  1.740379e+01    1.396001e+00
  1.741966e+01    1.359239e+00
  1.743554e+01    1.378741e+00
  1.745141e+01    1.350701e+00
  1.746729e+01    1.378521e+00
  1.748316e+01    1.408926e+00
  1.749904e+01    1.418432e+00
  1.751491e+01    1.366033e+00
  1.753079e+01    1.358468e+00
  1.754667e+01    1.334540e+00
  1.756254e+01    1.336554e+00
  1.757842e+01    1.352082e+00
  1.759429e+01    1.358572e+00
  1.761017e+01    1.350917e+00
  1.762604e+01    1.373024e+00
  1.764192e+01    1.365188e+00
  1.765779e+01    1.331742e+00
  1.767367e+01    1.321317e+00
  1.768955e+01    1.329131e+00
  1.770542e+01    1.337976e+00
  1.772130e+01    1.343895e+00
  1.773717e+01    1.321017e+00
  1.775305e+01    1.319220e+00
  1.776892e+01    1.298644e+00
  1.778480e+01    1.334232e+00
  1.780067e+01    1.323705e+00
  1.781655e+01    1.340047e+00
  1.783243e+01    1.336119e+00
  1.784830e+01    1.340366e+00
  1.786418e+01    1.343235e+00
  1.788005e+01    1.305659e+00
  1.789593e+01    1.317822e+00
  1.791180e+01    1.309817e+00
  1.792768e+01    1.304515e+00
  1.794355e+01    1.303044e+00
  1.795943e+01    1.311476e+00
  1.797531e+01    1.300135e+00
  1.799118e+01    1.310079e+00
  1.800706e+01    1.316529e+00
  1.802293e+01    1.328598e+00
  1.803881e+01    1.310793e+00
  1.805468e+01    1.312886e+00
  1.807056e+01    1.331071e+00
  1.808643e+01    1.302012e+00
  1.810231e+01    1.310355e+00
  1.811819e+01    1.287396e+00
  1.813406e+01    1.271755e+00
  1.814994e+01    1.280295e+00
  1.816581e+01    1.289208e+00
  1.818169e+01    1.290970e+00
  1.819756e+01    1.284555e+00
  1.821344e+01    1.292850e+00
  1.822932e+01    1.296975e+00
  1.824519e+01    1.286576e+00
  1.826107e+01    1.259776e+00
  1.827694e+01    1.271947e+00
  1.829282e+01    1.270891e+00
  1.830869e+01    1.260793e+00
  1.832457e+01    1.281641e+00
  1.834044e+01    1.281816e+00
  1.835632e+01    1.275182e+00
  1.837220e+01    1.281791e+00
  1.838807e+01    1.272768e+00
  1.840395e+01    1.282928e+00
  1.841982e+01    1.285432e+00
  1.843570e+01    1.263944e+00
  1.845157e+01    1.232200e+00
  1.846745e+01    1.233626e+00
  1.848332e+01    1.231820e+00
  1.849920e+01    1.282105e+00
  1.851508e+01    1.278461e+00
  1.853095e+01    1.277022e+00
  1.854683e+01    1.243527e+00
  1.856270e+01    1.221811e+00
  1.857858e+01    1.243905e+00
  1.859445e+01    1.269097e+00
  1.861033e+01    1.248115e+00
  1.862620e+01    1.258661e+00
  1.864208e+01    1.240139e+00
  1.865796e+01    1.232826e+00
  1.867383e+01    1.230451e+00
  1.868971e+01    1.223726e+00
  1.870558e+01    1.209970e+00
  1.872146e+01    1.206699e+00
  1.873733e+01    1.228170e+00
  1.875321e+01    1.240027e+00
  1.876908e+01    1.198145e+00
  1.878496e+01    1.205172e+00
  1.880084e+01    1.238565e+00
  1.881671e+01    1.221094e+00
  1.883259e+01    1.217755e+00
  1.884846e+01    1.211498e+00
  1.886434e+01    1.190885e+00
  1.888021e+01    1.228688e+00
  1.889609e+01    1.210633e+00
  1.891196e+01    1.217822e+00
  1.892784e+01    1.194143e+00
  1.894372e+01    1.225811e+00
  1.895959e+01    1.210083e+00
  1.897547e+01    1.219458e+00
  1.899134e+01    1.203256e+00
  1.900722e+01    1.187997e+00
  1.902309e+01    1.187227e+00
  1.903897e+01    1.204911e+00
  1.905484e+01    1.204615e+00
  1.907072e+01    1.217064e+00
  1.908660e+01    1.201087e+00
  1.910247e+01    1.188399e+00
  1.911835e+01    1.192557e+00
  1.913422e+01    1.178632e+00
  1.915010e+01    1.173094e+00
  1.916597e+01    1.202037e+00
  1.918185e+01    1.185362e+00
  1.919773e+01    1.202215e+00
  1.921360e+01    1.192535e+00
  1.922948e+01    1.171248e+00
  1.924535e+01    1.173955e+00
  1.926123e+01    1.174166e+00
  1.927710e+01    1.175719e+00
  1.929298e+01    1.172838e+00
  1.930885e+01    1.150360e+00
  1.932473e+01    1.182465e+00
  1.934061e+01    1.185487e+00
  1.935648e+01    1.188438e+00
  1.937236e+01    1.170416e+00
  1.938823e+01    1.146592e+00
  1.940411e+01    1.158114e+00
  1.941998e+01    1.185671e+00
  1.943586e+01    1.199908e+00
  1.945173e+01    1.190038e+00
  1.946761e+01    1.171084e+00
  1.948349e+01    1.165316e+00
  1.949936e+01    1.172428e+00
  1.951524e+01    1.162687e+00
  1.953111e+01    1.165801e+00
  1.954699e+01    1.154798e+00
  1.956286e+01    1.148375e+00
  1.957874e+01    1.137265e+00
  1.959461e+01    1.164785e+00
  1.961049e+01    1.141037e+00
  1.962637e+01    1.157210e+00
  1.964224e+01    1.131340e+00
  1.965812e+01    1.147149e+00
  1.967399e+01    1.116642e+00
  1.968987e+01    1.104891e+00
  1.970574e+01    1.130344e+00
  1.972162e+01    1.153375e+00
  1.973749e+01    1.141136e+00
  1.975337e+01    1.130318e+00
  1.976925e+01    1.109696e+00
  1.978512e+01    1.136193e+00
  1.980100e+01    1.145298e+00
  1.981687e+01    1.154434e+00
  1.983275e+01    1.157696e+00
  1.984862e+01    1.116408e+00
  1.986450e+01    1.107669e+00
  1.988037e+01    1.122223e+00
  1.989625e+01    1.131833e+00
  1.991213e+01    1.138392e+00
  1.992800e+01    1.132781e+00
  1.994388e+01    1.110346e+00
  1.995975e+01    1.115307e+00
  1.997563e+01    1.130113e+00
  1.999150e+01    1.114429e+00
  2.000738e+01    1.134059e+00
  2.002325e+01    1.104191e+00
  2.003913e+01    1.091867e+00
  2.005501e+01    1.104459e+00
  2.007088e+01    1.104185e+00
  2.008676e+01    1.095725e+00
  2.010263e+01    1.103173e+00
  2.011851e+01    1.105712e+00
  2.013438e+01    1.112435e+00
  2.015026e+01    1.109094e+00
  2.016614e+01    1.094115e+00
  2.018201e+01    1.093259e+00
  2.019789e+01    1.099072e+00
  2.021376e+01    1.087594e+00
  2.022964e+01    1.085760e+00
  2.024551e+01    1.097349e+00
  2.026139e+01    1.084132e+00
  2.027726e+01    1.107135e+00
  2.029314e+01    1.113997e+00
  2.030902e+01    1.092292e+00
  2.032489e+01    1.079750e+00
  2.034077e+01    1.093543e+00
  2.035664e+01    1.092704e+00
  2.037252e+01    1.078249e+00
  2.038839e+01    1.080968e+00
  2.040427e+01    1.082943e+00
  2.042014e+01    1.084979e+00
  2.043602e+01    1.084261e+00
  2.045190e+01    1.057914e+00
  2.046777e+01    1.072588e+00
  2.048365e+01    1.084429e+00
  2.049952e+01    1.063657e+00
  2.051540e+01    1.077544e+00
  2.053127e+01    1.073127e+00
  2.054715e+01    1.070314e+00
  2.056302e+01    1.069916e+00
  2.057890e+01    1.078808e+00
  2.059478e+01    1.080927e+00
  2.061065e+01    1.069885e+00
  2.062653e+01    1.077480e+00
  2.064240e+01    1.073685e+00
  2.065828e+01    1.055299e+00
  2.067415e+01    1.066123e+00
  2.069003e+01    1.045704e+00
  2.070590e+01    1.060770e+00
  2.072178e+01    1.082796e+00
  2.073766e+01    1.080848e+00
  2.075353e+01    1.059628e+00
  2.076941e+01    1.067093e+00
  2.078528e+01    1.085542e+00
  2.080116e+01    1.088878e+00
  2.081703e+01    1.091985e+00
  2.083291e+01    1.072599e+00
  2.084878e+01    1.071948e+00
  2.086466e+01    1.059175e+00
  2.088054e+01    1.058635e+00
  2.089641e+01    1.094040e+00
  2.091229e+01    1.076038e+00
  2.092816e+01    1.083108e+00
  2.094404e+01    1.049443e+00
  2.095991e+01    1.071098e+00
  2.097579e+01    1.074376e+00
  2.099166e+01    1.063637e+00
  2.100754e+01    1.078002e+00
  2.102342e+01    1.067413e+00
  2.103929e+01    1.069472e+00
  2.105517e+01    1.066342e+00
  2.107104e+01    1.096349e+00
  2.108692e+01    1.091780e+00
  2.110279e+01    1.074156e+00
  2.111867e+01    1.078347e+00
  2.113455e+01    1.066180e+00
  2.115042e+01    1.086731e+00
  2.116630e+01    1.089248e+00
  2.118217e+01    1.092679e+00
  2.119805e+01    1.068265e+00
  2.121392e+01    1.086025e+00
  2.122980e+01    1.108322e+00
  2.124567e+01    1.104725e+00
  2.126155e+01    1.068193e+00
  2.127743e+01    1.089339e+00
  2.129330e+01    1.101885e+00
  2.130918e+01    1.116607e+00
  2.132505e+01    1.115894e+00
  2.134093e+01    1.122543e+00
  2.135680e+01    1.114296e+00
  2.137268e+01    1.136371e+00
  2.138855e+01    1.154524e+00
  2.140443e+01    1.151089e+00
  2.142031e+01    1.153663e+00
  2.143618e+01    1.170879e+00
  2.145206e+01    1.186454e+00
  2.146793e+01    1.211129e+00
  2.148381e+01    1.254201e+00
  2.149968e+01    1.287013e+00
  2.151556e+01    1.299898e+00
  2.153143e+01    1.335214e+00
  2.154731e+01    1.375289e+00
  2.156319e+01    1.443123e+00
  2.157906e+01    1.482568e+00
  2.159494e+01    1.517282e+00
  2.161081e+01    1.603122e+00
  2.162669e+01    1.710032e+00
  2.164256e+01    1.817429e+00
  2.165844e+01    1.927760e+00
  2.167431e+01    2.092298e+00
  2.169019e+01    2.297238e+00
  2.170607e+01    2.549480e+00
  2.172194e+01    2.860583e+00
  2.173782e+01    3.276871e+00
  2.175369e+01    3.707474e+00
  2.176957e+01    4.256051e+00
  2.178544e+01    4.853873e+00
  2.180132e+01    5.478099e+00
  2.181719e+01    6.124172e+00
  2.183307e+01    6.800170e+00
  2.184895e+01    7.475947e+00
  2.186482e+01    8.119494e+00
  2.188070e+01    8.557651e+00
  2.189657e+01    8.854207e+00
  2.191245e+01    8.738399e+00
  2.192832e+01    8.291685e+00
  2.194420e+01    7.624088e+00
  2.196007e+01    6.648936e+00
  2.197595e+01    5.700014e+00
  2.199183e+01    4.849598e+00
  2.200770e+01    4.106441e+00
  2.202358e+01    3.526863e+00
  2.203945e+01    3.088018e+00
  2.205533e+01    2.723664e+00
  2.207120e+01    2.394092e+00
  2.208708e+01    2.171167e+00
  2.210296e+01    1.980162e+00
  2.211883e+01    1.867348e+00
  2.213471e+01    1.751144e+00
  2.215058e+01    1.633666e+00
  2.216646e+01    1.532120e+00
  2.218233e+01    1.448059e+00
  2.219821e+01    1.402516e+00
  2.221408e+01    1.357498e+00
  2.222996e+01    1.293124e+00
  2.224584e+01    1.236986e+00
  2.226171e+01    1.220076e+00
  2.227759e+01    1.213257e+00
  2.229346e+01    1.179345e+00
  2.230934e+01    1.166348e+00
  2.232521e+01    1.154146e+00
  2.234109e+01    1.144497e+00
  2.235696e+01    1.106360e+00
  2.237284e+01    1.103809e+00
  2.238872e+01    1.103192e+00
  2.240459e+01    1.065786e+00
  2.242047e+01    1.049706e+00
  2.243634e+01    1.047414e+00
  2.245222e+01    1.030630e+00
  2.246809e+01    1.053281e+00
  2.248397e+01    1.047144e+00
  2.249984e+01    1.019448e+00
  2.251572e+01    9.930602e-01
  2.253160e+01    1.009269e+00
  2.254747e+01    1.018756e+00
  2.256335e+01    9.870878e-01
  2.257922e+01    9.732469e-01
  2.259510e+01    9.892116e-01
  2.261097e+01    9.756604e-01
  2.262685e+01    9.685367e-01
  2.264272e+01    9.714148e-01
  2.265860e+01    9.849137e-01
  2.267448e+01    9.788267e-01
  2.269035e+01    9.623915e-01
  2.270623e+01    9.538290e-01
  2.272210e+01    9.383530e-01
  2.273798e+01    9.386499e-01
  2.275385e+01    9.482735e-01
  2.276973e+01    9.444273e-01
  2.278560e+01    9.368212e-01
  2.280148e+01    9.223352e-01
  2.281736e+01    9.221786e-01
  2.283323e+01    9.473224e-01
  2.284911e+01    9.184027e-01
  2.286498e+01    9.301146e-01
  2.288086e+01    9.022189e-01
  2.289673e+01    9.001366e-01
  2.291261e+01    9.043083e-01
  2.292848e+01    8.999428e-01
  2.294436e+01    8.850846e-01
  2.296024e+01    9.077108e-01
  2.297611e+01    9.011042e-01
  2.299199e+01    8.902202e-01
  2.300786e+01    8.986285e-01
  2.302374e+01    8.929145e-01
  2.303961e+01    8.880375e-01
  2.305549e+01    8.846663e-01
  2.307137e+01    8.985443e-01
  2.308724e+01    8.996359e-01
  2.310312e+01    8.976656e-01
  2.311899e+01    8.749887e-01
  2.313487e+01    8.620974e-01
  2.315074e+01    8.791143e-01
  2.316662e+01    8.649737e-01
  2.318249e+01    8.728039e-01
  2.319837e+01    9.067693e-01
  2.321425e+01    8.876134e-01
  2.323012e+01    8.789742e-01
  2.324600e+01    8.774660e-01
  2.326187e+01    8.708967e-01
  2.327775e+01    8.497854e-01
  2.329362e+01    8.503826e-01
  2.330950e+01    8.708088e-01
  2.332537e+01    8.651625e-01
  2.334125e+01    8.613982e-01
  2.335713e+01    8.564226e-01
  2.337300e+01    8.531595e-01
  2.338888e+01    8.672575e-01
  2.340475e+01    8.505687e-01
  2.342063e+01    8.585823e-01
  2.343650e+01    8.596648e-01
  2.345238e+01    8.565998e-01
  2.346825e+01    8.736504e-01
  2.348413e+01    8.271312e-01
  2.350001e+01    8.398756e-01
  2.351588e+01    8.460780e-01
  2.353176e+01    8.399025e-01
  2.354763e+01    8.456113e-01
  2.356351e+01    8.541756e-01
  2.357938e+01    8.449405e-01
  2.359526e+01    8.383115e-01
  2.361113e+01    8.346320e-01
  2.362701e+01    8.365707e-01
  2.364289e+01    8.348844e-01
  2.365876e+01    8.269543e-01
  2.367464e+01    8.132653e-01
  2.369051e+01    8.215136e-01
  2.370639e+01    8.206465e-01
  2.372226e+01    8.226289e-01
  2.373814e+01    8.039585e-01
  2.375401e+01    8.205040e-01
  2.376989e+01    8.096447e-01
  2.378577e+01    8.061922e-01
  2.380164e+01    8.063896e-01
  2.381752e+01    7.910786e-01
  2.383339e+01    8.052075e-01
  2.384927e+01    8.024160e-01
  2.386514e+01    8.042064e-01
  2.388102e+01    8.080861e-01
  2.389689e+01    7.972539e-01
  2.391277e+01    7.941103e-01
  2.392865e+01    7.971633e-01
  2.394452e+01    7.991769e-01
  2.396040e+01    7.992771e-01
  2.397627e+01    8.033157e-01
  2.399215e+01    8.128244e-01
  2.400802e+01    8.047253e-01
  2.402390e+01    7.895283e-01
  2.403978e+01    8.036213e-01
  2.405565e+01    7.937370e-01
  2.407153e+01    7.711395e-01
  2.408740e+01    7.742257e-01
  2.410328e+01    7.847049e-01
  2.411915e+01    7.932400e-01
  2.413503e+01    7.675460e-01
  2.415090e+01    7.744379e-01
  2.416678e+01    7.837799e-01
  2.418266e+01    7.844563e-01
  2.419853e+01    7.911787e-01
  2.421441e+01    7.788233e-01
  2.423028e+01    8.047460e-01
  2.424616e+01    7.868234e-01
  2.426203e+01    7.964326e-01
  2.427791e+01    7.903860e-01
  2.429378e+01    7.803926e-01
  2.430966e+01    7.728642e-01
  2.432554e+01    7.941477e-01
  2.434141e+01    7.827206e-01
  2.435729e+01    7.595954e-01
  2.437316e+01    7.759709e-01
  2.438904e+01    7.850291e-01
  2.440491e+01    7.813255e-01
  2.442079e+01    7.599408e-01
  2.443666e+01    7.800935e-01
  2.445254e+01    7.862645e-01
  2.446842e+01    7.608837e-01
  2.448429e+01    7.514444e-01
  2.450017e+01    7.717670e-01
  2.451604e+01    7.998874e-01
  2.453192e+01    7.728136e-01
  2.454779e+01    7.829531e-01
  2.456367e+01    8.002104e-01
  2.457954e+01    7.788046e-01
  2.459542e+01    7.808628e-01
  2.461130e+01    7.836908e-01
  2.462717e+01    7.735999e-01
  2.464305e+01    7.853355e-01
  2.465892e+01    7.812634e-01
  2.467480e+01    7.927378e-01
  2.469067e+01    7.755804e-01
  2.470655e+01    7.675804e-01
  2.472242e+01    7.859635e-01
  2.473830e+01    7.830091e-01
  2.475418e+01    7.995912e-01
  2.477005e+01    8.045990e-01
  2.478593e+01    8.054125e-01
  2.480180e+01    7.810758e-01
  2.481768e+01    7.863027e-01
  2.483355e+01    7.867870e-01
  2.484943e+01    7.924433e-01
  2.486530e+01    8.039353e-01
  2.488118e+01    7.848888e-01
  2.489706e+01    7.900528e-01
  2.491293e+01    8.124597e-01
  2.492881e+01    8.141633e-01
  2.494468e+01    7.933061e-01
  2.496056e+01    7.846007e-01
  2.497643e+01    7.872871e-01
  2.499231e+01    7.851526e-01
  2.500819e+01    8.154618e-01
  2.502406e+01    8.028478e-01
  2.503994e+01    7.923263e-01
  2.505581e+01    7.953916e-01
  2.507169e+01    8.106391e-01
  2.508756e+01    8.014949e-01
  2.510344e+01    7.979496e-01
  2.511931e+01    7.958719e-01
  2.513519e+01    8.120296e-01
  2.515107e+01    8.190117e-01
  2.516694e+01    8.167731e-01
  2.518282e+01    8.266284e-01
  2.519869e+01    8.216273e-01
  2.521457e+01    8.476649e-01
  2.523044e+01    8.299928e-01
  2.524632e+01    8.372296e-01
  2.526219e+01    8.432271e-01
  2.527807e+01    8.470677e-01
  2.529395e+01    8.471363e-01
  2.530982e+01    8.522173e-01
  2.532570e+01    8.535271e-01
  2.534157e+01    8.679938e-01
  2.535745e+01    8.885170e-01
  2.537332e+01    8.799731e-01
  2.538920e+01    8.662188e-01
  2.540507e+01    8.890501e-01
  2.542095e+01    9.136608e-01
  2.543683e+01    9.054099e-01
  2.545270e+01    9.360779e-01
  2.546858e+01    9.356845e-01
  2.548445e+01    9.228709e-01
  2.550033e+01    9.544429e-01
  2.551620e+01    9.751164e-01
  2.553208e+01    9.956625e-01
  2.554795e+01    1.008632e+00
  2.556383e+01    1.034366e+00
  2.557971e+01    1.057276e+00
  2.559558e+01    1.102261e+00
  2.561146e+01    1.125239e+00
  2.562733e+01    1.145321e+00
  2.564321e+01    1.190380e+00
  2.565908e+01    1.246815e+00
  2.567496e+01    1.304320e+00
  2.569083e+01    1.367394e+00
  2.570671e+01    1.450171e+00
  2.572259e+01    1.552805e+00
  2.573846e+01    1.706521e+00
  2.575434e+01    1.899977e+00
  2.577021e+01    2.082933e+00
  2.578609e+01    2.295543e+00
  2.580196e+01    2.601163e+00
  2.581784e+01    2.944985e+00
  2.583371e+01    3.408445e+00
  2.584959e+01    3.902591e+00
  2.586547e+01    4.417229e+00
  2.588134e+01    4.979705e+00
  2.589722e+01    5.522441e+00
  2.591309e+01    6.100521e+00
  2.592897e+01    6.626670e+00
  2.594484e+01    6.977360e+00
  2.596072e+01    7.188713e+00
  2.597660e+01    7.066004e+00
  2.599247e+01    6.719899e+00
  2.600835e+01    6.175528e+00
  2.602422e+01    5.477288e+00
  2.604010e+01    4.739742e+00
  2.605597e+01    4.039188e+00
  2.607185e+01    3.445198e+00
  2.608772e+01    3.020323e+00
  2.610360e+01    2.616819e+00
  2.611948e+01    2.324079e+00
  2.613535e+01    2.094395e+00
  2.615123e+01    1.919160e+00
  2.616710e+01    1.713972e+00
  2.618298e+01    1.587648e+00
  2.619885e+01    1.497892e+00
  2.621473e+01    1.377763e+00
  2.623060e+01    1.308108e+00
  2.624648e+01    1.264248e+00
  2.626236e+01    1.205321e+00
  2.627823e+01    1.165944e+00
  2.629411e+01    1.119995e+00
  2.630998e+01    1.079895e+00
  2.632586e+01    1.043989e+00
  2.634173e+01    1.020600e+00
  2.635761e+01    1.005882e+00
  2.637348e+01    9.787578e-01
  2.638936e+01    9.949774e-01
  2.640524e+01    9.776476e-01
  2.642111e+01    9.272379e-01
  2.643699e+01    9.173737e-01
  2.645286e+01    9.278984e-01
  2.646874e+01    9.492182e-01
  2.648461e+01    9.511706e-01
  2.650049e+01    9.362564e-01
  2.651636e+01    9.154859e-01
  2.653224e+01    9.075683e-01
  2.654812e+01    9.044420e-01
  2.656399e+01    8.946448e-01
  2.657987e+01    8.781814e-01
  2.659574e+01    8.715260e-01
  2.661162e+01    8.678626e-01
  2.662749e+01    8.572867e-01
  2.664337e+01    8.716336e-01
  2.665924e+01    8.681099e-01
  2.667512e+01    8.672820e-01
  2.669100e+01    8.724537e-01
  2.670687e+01    8.594398e-01
  2.672275e+01    8.684117e-01
  2.673862e+01    8.758650e-01
  2.675450e+01    8.777648e-01
  2.677037e+01    8.932838e-01
  2.678625e+01    8.845115e-01
  2.680212e+01    8.854406e-01
  2.681800e+01    8.864368e-01
  2.683388e+01    8.856920e-01
  2.684975e+01    8.952364e-01
  2.686563e+01    9.062095e-01
  2.688150e+01    9.136329e-01
  2.689738e+01    9.178877e-01
  2.691325e+01    9.210843e-01
  2.692913e+01    9.445130e-01
  2.694501e+01    9.580579e-01
  2.696088e+01    9.526219e-01
  2.697676e+01    9.802623e-01
  2.699263e+01    9.839236e-01
  2.700851e+01    1.004688e+00
  2.702438e+01    1.050355e+00
  2.704026e+01    1.083651e+00
  2.705613e+01    1.139383e+00
  2.707201e+01    1.195640e+00
  2.708789e+01    1.287473e+00
  2.710376e+01    1.382888e+00
  2.711964e+01    1.475754e+00
  2.713551e+01    1.615111e+00
  2.715139e+01    1.721276e+00
  2.716726e+01    1.822489e+00
  2.718314e+01    1.969839e+00
  2.719901e+01    2.083826e+00
  2.721489e+01    2.149274e+00
  2.723077e+01    2.128487e+00
  2.724664e+01    2.095616e+00
  2.726252e+01    2.009429e+00
  2.727839e+01    1.857278e+00
  2.729427e+01    1.709058e+00
  2.731014e+01    1.545219e+00
  2.732602e+01    1.386500e+00
  2.734189e+01    1.297734e+00
  2.735777e+01    1.234242e+00
  2.737365e+01    1.164494e+00
  2.738952e+01    1.101348e+00
  2.740540e+01    1.049355e+00
  2.742127e+01    1.014881e+00
  2.743715e+01    9.931552e-01
  2.745302e+01    9.454764e-01
  2.746890e+01    9.218914e-01
  2.748477e+01    8.986241e-01
  2.750065e+01    8.890186e-01
  2.751653e+01    8.781562e-01
  2.753240e+01    8.600610e-01
  2.754828e+01    8.543022e-01
  2.756415e+01    8.455960e-01
  2.758003e+01    8.412417e-01
  2.759590e+01    8.423575e-01
  2.761178e+01    8.424622e-01
  2.762765e+01    8.153934e-01
  2.764353e+01    8.181665e-01
  2.765941e+01    8.180756e-01
  2.767528e+01    8.230575e-01
  2.769116e+01    8.503162e-01
  2.770703e+01    8.348745e-01
  2.772291e+01    8.279066e-01
  2.773878e+01    8.220959e-01
  2.775466e+01    8.197362e-01
  2.777054e+01    8.082318e-01
  2.778641e+01    8.088485e-01
  2.780229e+01    7.926902e-01
  2.781816e+01    7.941790e-01
  2.783404e+01    7.815167e-01
  2.784991e+01    7.952207e-01
  2.786579e+01    7.748359e-01
  2.788166e+01    7.861047e-01
  2.789754e+01    7.996175e-01
  2.791342e+01    7.837723e-01
  2.792929e+01    7.848644e-01
  2.794517e+01    7.745630e-01
  2.796104e+01    7.797602e-01
  2.797692e+01    7.878122e-01
  2.799279e+01    7.857269e-01
  2.800867e+01    7.882376e-01
  2.802454e+01    7.785270e-01
  2.804042e+01    7.768657e-01
  2.805630e+01    7.704524e-01
  2.807217e+01    7.672993e-01
  2.808805e+01    7.762266e-01
  2.810392e+01    7.646753e-01
  2.811980e+01    7.892459e-01
  2.813567e+01    7.843071e-01
  2.815155e+01    7.573807e-01
  2.816742e+01    7.618911e-01
  2.818330e+01    7.736788e-01
  2.819918e+01    7.667704e-01
  2.821505e+01    7.802174e-01
  2.823093e+01    7.621663e-01
  2.824680e+01    7.507076e-01
  2.826268e+01    7.508416e-01
  2.827855e+01    7.647066e-01
  2.829443e+01    7.658255e-01
  2.831030e+01    7.643555e-01
  2.832618e+01    7.668115e-01
  2.834206e+01    7.623238e-01
  2.835793e+01    7.670197e-01
  2.837381e+01    7.681336e-01
  2.838968e+01    7.588349e-01
  2.840556e+01    7.571450e-01
  2.842143e+01    7.426916e-01
  2.843731e+01    7.520801e-01
  2.845318e+01    7.511544e-01
  2.846906e+01    7.492733e-01
  2.848494e+01    7.531397e-01
  2.850081e+01    7.618756e-01
  2.851669e+01    7.207440e-01
  2.853256e+01    7.160974e-01
  2.854844e+01    7.241398e-01
  2.856431e+01    7.471221e-01
  2.858019e+01    7.485338e-01
  2.859606e+01    7.494227e-01
  2.861194e+01    7.580518e-01
  2.862782e+01    7.607425e-01
  2.864369e+01    7.607294e-01
  2.865957e+01    7.605642e-01
  2.867544e+01    7.283450e-01
  2.869132e+01    7.416807e-01
  2.870719e+01    7.486207e-01
  2.872307e+01    7.359710e-01
  2.873895e+01    7.374558e-01
  2.875482e+01    7.386413e-01
  2.877070e+01    7.449389e-01
  2.878657e+01    7.363018e-01
  2.880245e+01    7.146401e-01
  2.881832e+01    7.377762e-01
  2.883420e+01    7.575029e-01
  2.885007e+01    7.475584e-01
  2.886595e+01    7.335510e-01
  2.888183e+01    7.241812e-01
  2.889770e+01    7.295364e-01
  2.891358e+01    7.424217e-01
  2.892945e+01    7.403057e-01
  2.894533e+01    7.452779e-01
  2.896120e+01    7.387134e-01
  2.897708e+01    7.296552e-01
  2.899295e+01    7.144052e-01
  2.900883e+01    7.430783e-01
  2.902471e+01    7.290194e-01
  2.904058e+01    7.008042e-01
  2.905646e+01    7.420909e-01
  2.907233e+01    7.448207e-01
  2.908821e+01    7.220345e-01
  2.910408e+01    7.256025e-01
  2.911996e+01    7.343631e-01
  2.913583e+01    7.551289e-01
  2.915171e+01    7.320538e-01
  2.916759e+01    7.240075e-01
  2.918346e+01    7.349920e-01
  2.919934e+01    7.268041e-01
  2.921521e+01    7.269865e-01
  2.923109e+01    7.279736e-01
  2.924696e+01    7.051489e-01
  2.926284e+01    7.230976e-01
  2.927871e+01    7.323257e-01
  2.929459e+01    7.286319e-01
  2.931047e+01    7.174120e-01
  2.932634e+01    7.033328e-01
  2.934222e+01    7.201652e-01
  2.935809e+01    7.134925e-01
  2.937397e+01    7.090392e-01
  2.938984e+01    7.148165e-01
  2.940572e+01    7.310948e-01
  2.942159e+01    7.238272e-01
  2.943747e+01    7.341140e-01
  2.945335e+01    7.287557e-01
  2.946922e+01    7.099623e-01
  2.948510e+01    7.049837e-01
  2.950097e+01    6.990274e-01
  2.951685e+01    7.216685e-01
  2.953272e+01    7.142524e-01
  2.954860e+01    7.168669e-01
  2.956447e+01    7.297686e-01
  2.958035e+01    7.216192e-01
  2.959623e+01    7.459501e-01
  2.961210e+01    7.220381e-01
  2.962798e+01    7.075721e-01
  2.964385e+01    7.300623e-01
  2.965973e+01    7.246258e-01
  2.967560e+01    7.194982e-01
  2.969148e+01    7.094214e-01
  2.970736e+01    7.231673e-01
  2.972323e+01    7.112467e-01
  2.973911e+01    7.077700e-01
  2.975498e+01    6.947198e-01
  2.977086e+01    7.154199e-01
  2.978673e+01    7.144250e-01
  2.980261e+01    6.995198e-01
  2.981848e+01    7.319402e-01
  2.983436e+01    7.081688e-01
  2.985024e+01    6.980004e-01
  2.986611e+01    6.883261e-01
  2.988199e+01    7.163436e-01
  2.989786e+01    7.236573e-01
  2.991374e+01    7.262582e-01
  2.992961e+01    7.035505e-01
  2.994549e+01    7.230474e-01
  2.996136e+01    7.053513e-01
  2.997724e+01    7.135083e-01
  2.999312e+01    7.344706e-01
  3.000899e+01    7.374311e-01
  3.002487e+01    7.320658e-01
  3.004074e+01    7.241656e-01
  3.005662e+01    7.330546e-01
  3.007249e+01    7.469470e-01
  3.008837e+01    7.240860e-01
  3.010424e+01    7.115842e-01
  3.012012e+01    7.156071e-01
  3.013600e+01    7.146800e-01
  3.015187e+01    7.148877e-01
  3.016775e+01    7.125550e-01
  3.018362e+01    7.032331e-01
  3.019950e+01    6.950452e-01
  3.021537e+01    6.945931e-01
  3.023125e+01    7.218266e-01
  3.024712e+01    7.102411e-01
  3.026300e+01    7.093231e-01
  3.027888e+01    7.164437e-01
  3.029475e+01    7.079431e-01
  3.031063e+01    6.808830e-01
  3.032650e+01    6.985036e-01
  3.034238e+01    6.944631e-01
  3.035825e+01    6.891277e-01
  3.037413e+01    7.000997e-01
  3.039000e+01    7.246208e-01
  3.040588e+01    7.088922e-01
  3.042176e+01    7.097799e-01
  3.043763e+01    7.208527e-01
  3.045351e+01    7.150153e-01
  3.046938e+01    7.155018e-01
  3.048526e+01    7.119288e-01
  3.050113e+01    7.252072e-01
  3.051701e+01    7.000222e-01
  3.053288e+01    6.851123e-01
  3.054876e+01    7.042466e-01
  3.056464e+01    6.912680e-01
  3.058051e+01    6.858340e-01
  3.059639e+01    7.006996e-01
  3.061226e+01    6.933018e-01
  3.062814e+01    6.950319e-01
  3.064401e+01    6.900247e-01
  3.065989e+01    6.856248e-01
  3.067577e+01    7.009979e-01
  3.069164e+01    7.189460e-01
  3.070752e+01    7.120986e-01
  3.072339e+01    7.009318e-01
  3.073927e+01    7.082300e-01
  3.075514e+01    6.858773e-01
  3.077102e+01    7.095194e-01
  3.078689e+01    7.218266e-01
  3.080277e+01    7.069016e-01
  3.081865e+01    6.897647e-01
  3.083452e+01    7.076549e-01
  3.085040e+01    7.014006e-01
  3.086627e+01    7.029914e-01
  3.088215e+01    6.980798e-01
  3.089802e+01    7.072097e-01
  3.091390e+01    7.070605e-01
  3.092977e+01    7.014546e-01
  3.094565e+01    7.207537e-01
  3.096153e+01    7.040197e-01
  3.097740e+01    7.033738e-01
  3.099328e+01    7.056826e-01
  3.100915e+01    6.966057e-01
  3.102503e+01    7.042505e-01
  3.104090e+01    6.974971e-01
  3.105678e+01    7.046000e-01
  3.107265e+01    7.252539e-01
  3.108853e+01    7.231217e-01
  3.110441e+01    7.268379e-01
  3.112028e+01    7.227865e-01
  3.113616e+01    7.248656e-01
  3.115203e+01    7.169009e-01
  3.116791e+01    7.306745e-01
  3.118378e+01    7.166936e-01
  3.119966e+01    7.161451e-01
  3.121553e+01    7.288409e-01
  3.123141e+01    7.234781e-01
  3.124729e+01    7.106802e-01
  3.126316e+01    7.057292e-01
  3.127904e+01    7.218904e-01
  3.129491e+01    7.306061e-01
  3.131079e+01    7.217308e-01
  3.132666e+01    7.157329e-01
  3.134254e+01    7.137066e-01
  3.135841e+01    7.088466e-01
  3.137429e+01    7.201760e-01
  3.139017e+01    7.221396e-01
  3.140604e+01    7.283660e-01
  3.142192e+01    7.295355e-01
  3.143779e+01    7.355019e-01
  3.145367e+01    7.509427e-01
  3.146954e+01    7.473533e-01
  3.148542e+01    7.446386e-01
  3.150129e+01    7.726389e-01
  3.151717e+01    7.715902e-01
  3.153305e+01    7.928625e-01
  3.154892e+01    7.686591e-01
  3.156480e+01    7.796786e-01
  3.158067e+01    7.944257e-01
  3.159655e+01    8.182666e-01
  3.161242e+01    8.259189e-01
  3.162830e+01    8.486806e-01
  3.164418e+01    8.512090e-01
  3.166005e+01    8.781759e-01
  3.167593e+01    9.169217e-01
  3.169180e+01    9.277932e-01
  3.170768e+01    9.421301e-01
  3.172355e+01    9.499234e-01
  3.173943e+01    1.043455e+00
  3.175530e+01    1.111488e+00
  3.177118e+01    1.173543e+00
  3.178706e+01    1.261628e+00
  3.180293e+01    1.357767e+00
  3.181881e+01    1.481427e+00
  3.183468e+01    1.629915e+00
  3.185056e+01    1.775097e+00
  3.186643e+01    1.894600e+00
  3.188231e+01    2.041991e+00
  3.189818e+01    2.092237e+00
  3.191406e+01    2.109681e+00
  3.192994e+01    2.105254e+00
  3.194581e+01    2.030931e+00
  3.196169e+01    1.925028e+00
  3.197756e+01    1.710638e+00
  3.199344e+01    1.551025e+00
  3.200931e+01    1.435476e+00
  3.202519e+01    1.297475e+00
  3.204106e+01    1.219839e+00
  3.205694e+01    1.126678e+00
  3.207282e+01    1.067406e+00
  3.208869e+01    9.737449e-01
  3.210457e+01    9.184541e-01
  3.212044e+01    9.021274e-01
  3.213632e+01    8.767081e-01
  3.215219e+01    8.494253e-01
  3.216807e+01    8.210687e-01
  3.218394e+01    8.199369e-01
  3.219982e+01    7.774466e-01
  3.221570e+01    7.813911e-01
  3.223157e+01    7.997752e-01
  3.224745e+01    7.769906e-01
  3.226332e+01    7.708248e-01
  3.227920e+01    7.733755e-01
  3.229507e+01    7.484633e-01
  3.231095e+01    7.515628e-01
  3.232682e+01    7.565348e-01
  3.234270e+01    7.598563e-01
  3.235858e+01    7.424899e-01
  3.237445e+01    7.410427e-01
  3.239033e+01    7.121613e-01
  3.240620e+01    7.316344e-01
  3.242208e+01    7.429908e-01
  3.243795e+01    7.375211e-01
  3.245383e+01    7.165547e-01
  3.246970e+01    7.309923e-01
  3.248558e+01    7.212810e-01
  3.250146e+01    7.226805e-01
  3.251733e+01    7.199665e-01
  3.253321e+01    7.112178e-01
  3.254908e+01    7.253821e-01
