# == pyFAI calibration ==
# Distance Sample to Detector: 0.3999999939076516 m
# PONI: 9.750e-02, 1.135e-01 m
# Rotations: -0.000175 0.000000 -0.000000 rad
# 
# == Fit2d calibration ==
# Distance Sample-beamCenter: 400.000 mm
# Center: x=1514.000, y=1300.000 pix
# Tilt: 0.010 deg  TiltPlanRot: 0.010 deg
# 
# Detector Detector	 Spline= None	 PixelSize= 7.500e-05, 7.500e-05 m
#    Detector has a mask: False 
#    Detector has a dark current: False 
#    detector has a flat field: False 
# 
# Wavelength: 6.888e-11 m
# Mask applied: user provided
# Dark current applied: False
# Flat field applied: False
# Polarization factor: 0.99
# Normalization factor: 1.0
# --> /home/myspot/data/2024_07_Rosario/Ru-CGO-ex/2024-07-27_002_Ru-CGO-ex_Activtation_ramp_000002_data_000079.dat
#       q_nm^-1             I 
  2.003187e-02    0.000000e+00
  3.590745e-02    0.000000e+00
  5.178302e-02    8.011755e-02
  6.765859e-02    2.346344e-01
  8.353417e-02    1.967408e-01
  9.940974e-02    1.246161e-01
  1.152853e-01    3.768301e-03
  1.311609e-01    2.918525e-02
  1.470365e-01    1.322128e-02
  1.629120e-01    6.176347e-02
  1.787876e-01    6.673298e-02
  1.946632e-01    1.274002e-02
  2.105388e-01    1.789436e-02
  2.264143e-01    2.916889e-02
  2.422899e-01    5.657835e-02
  2.581655e-01    4.971801e-02
  2.740411e-01    4.575654e-02
  2.899166e-01    6.648532e-02
  3.057922e-01    5.395014e-02
  3.216678e-01    5.345051e-02
  3.375433e-01    6.235392e-02
  3.534189e-01    4.900444e-02
  3.692945e-01    2.767986e-02
  3.851701e-01    1.896580e-02
  4.010456e-01    3.354529e-02
  4.169212e-01    2.925391e-02
  4.327968e-01    2.993504e-02
  4.486724e-01    3.487715e-02
  4.645479e-01    4.975404e-02
  4.804235e-01    6.356282e-02
  4.962991e-01    5.905646e-02
  5.121747e-01    3.255371e-02
  5.280502e-01    1.143684e-02
  5.439258e-01    2.171831e-02
  5.598014e-01    4.153084e-02
  5.756770e-01    5.564824e-02
  5.915525e-01    3.617452e-02
  6.074281e-01    2.838784e-02
  6.233037e-01    3.205939e-02
  6.391793e-01    2.904878e-02
  6.550548e-01    2.674349e-02
  6.709304e-01    3.276109e-02
  6.868060e-01    3.074068e-02
  7.026815e-01    2.688607e-02
  7.185571e-01    3.544200e-02
  7.344327e-01    2.558739e-02
  7.503083e-01    4.520755e-02
  7.661838e-01    7.349016e-02
  7.820594e-01    8.498780e-02
  7.979350e-01    1.617853e-01
  8.138106e-01    1.940125e-01
  8.296861e-01    2.567890e-01
  8.455617e-01    3.120231e-01
  8.614373e-01    3.750783e-01
  8.773129e-01    4.874081e-01
  8.931884e-01    4.920549e-01
  9.090640e-01    5.188215e-01
  9.249396e-01    6.244347e-01
  9.408152e-01    6.880432e-01
  9.566907e-01    7.196318e-01
  9.725663e-01    8.075723e-01
  9.884419e-01    9.357792e-01
  1.004317e+00    1.053643e+00
  1.020193e+00    1.189120e+00
  1.036069e+00    1.205718e+00
  1.051944e+00    1.235337e+00
  1.067820e+00    1.293934e+00
  1.083695e+00    1.317123e+00
  1.099571e+00    1.292061e+00
  1.115446e+00    1.362373e+00
  1.131322e+00    1.396134e+00
  1.147198e+00    1.404326e+00
  1.163073e+00    1.464921e+00
  1.178949e+00    1.506217e+00
  1.194824e+00    1.583181e+00
  1.210700e+00    1.763930e+00
  1.226575e+00    2.008446e+00
  1.242451e+00    2.253684e+00
  1.258327e+00    2.294190e+00
  1.274202e+00    2.340128e+00
  1.290078e+00    2.579073e+00
  1.305953e+00    2.591339e+00
  1.321829e+00    2.550720e+00
  1.337705e+00    2.519281e+00
  1.353580e+00    2.516001e+00
  1.369456e+00    2.575358e+00
  1.385331e+00    2.635820e+00
  1.401207e+00    2.543528e+00
  1.417082e+00    2.635948e+00
  1.432958e+00    2.656632e+00
  1.448834e+00    2.820116e+00
  1.464709e+00    2.996246e+00
  1.480585e+00    2.960926e+00
  1.496460e+00    2.845322e+00
  1.512336e+00    2.860147e+00
  1.528211e+00    2.887927e+00
  1.544087e+00    3.062085e+00
  1.559963e+00    3.048038e+00
  1.575838e+00    3.013281e+00
  1.591714e+00    3.094662e+00
  1.607589e+00    3.073320e+00
  1.623465e+00    3.072048e+00
  1.639340e+00    3.053269e+00
  1.655216e+00    3.040862e+00
  1.671092e+00    2.841386e+00
  1.686967e+00    2.631990e+00
  1.702843e+00    2.744853e+00
  1.718718e+00    2.808342e+00
  1.734594e+00    2.823443e+00
  1.750469e+00    2.705318e+00
  1.766345e+00    2.702920e+00
  1.782221e+00    2.686139e+00
  1.798096e+00    2.784428e+00
  1.813972e+00    2.767362e+00
  1.829847e+00    2.833108e+00
  1.845723e+00    2.815525e+00
  1.861598e+00    2.783312e+00
  1.877474e+00    2.717783e+00
  1.893350e+00    2.771974e+00
  1.909225e+00    2.800269e+00
  1.925101e+00    2.848036e+00
  1.940976e+00    2.763973e+00
  1.956852e+00    2.762653e+00
  1.972727e+00    2.720073e+00
  1.988603e+00    2.810463e+00
  2.004479e+00    2.839042e+00
  2.020354e+00    2.747370e+00
  2.036230e+00    2.640336e+00
  2.052105e+00    2.606460e+00
  2.067981e+00    2.664353e+00
  2.083856e+00    2.756285e+00
  2.099732e+00    2.781868e+00
  2.115608e+00    2.750497e+00
  2.131483e+00    2.739003e+00
  2.147359e+00    2.741096e+00
  2.163234e+00    2.836635e+00
  2.179110e+00    2.722517e+00
  2.194985e+00    2.708637e+00
  2.210861e+00    2.828883e+00
  2.226737e+00    2.811533e+00
  2.242612e+00    2.742970e+00
  2.258488e+00    2.779249e+00
  2.274363e+00    2.724638e+00
  2.290239e+00    2.721303e+00
  2.306115e+00    2.698808e+00
  2.321990e+00    2.749480e+00
  2.337866e+00    2.831713e+00
  2.353741e+00    2.779554e+00
  2.369617e+00    2.657797e+00
  2.385492e+00    2.740192e+00
  2.401368e+00    2.763527e+00
  2.417244e+00    2.814251e+00
  2.433119e+00    2.846116e+00
  2.448995e+00    2.805471e+00
  2.464870e+00    2.753178e+00
  2.480746e+00    2.817065e+00
  2.496621e+00    2.846642e+00
  2.512497e+00    2.905483e+00
  2.528373e+00    2.828723e+00
  2.544248e+00    2.789600e+00
  2.560124e+00    2.905227e+00
  2.575999e+00    2.865224e+00
  2.591875e+00    2.831773e+00
  2.607750e+00    2.920236e+00
  2.623626e+00    2.853787e+00
  2.639502e+00    2.728243e+00
  2.655377e+00    2.757460e+00
  2.671253e+00    2.826000e+00
  2.687128e+00    2.803732e+00
  2.703004e+00    2.786084e+00
  2.718879e+00    2.796099e+00
  2.734755e+00    2.743785e+00
  2.750631e+00    2.764148e+00
  2.766506e+00    2.751052e+00
  2.782382e+00    2.791910e+00
  2.798257e+00    2.756341e+00
  2.814133e+00    2.729553e+00
  2.830008e+00    2.797649e+00
  2.845884e+00    2.890414e+00
  2.861760e+00    2.887156e+00
  2.877635e+00    2.823611e+00
  2.893511e+00    2.867103e+00
  2.909386e+00    2.806662e+00
  2.925262e+00    2.774699e+00
  2.941137e+00    2.832422e+00
  2.957013e+00    2.837967e+00
  2.972889e+00    2.857248e+00
  2.988764e+00    2.801997e+00
  3.004640e+00    2.814405e+00
  3.020515e+00    2.843611e+00
  3.036391e+00    2.905820e+00
  3.052266e+00    2.916094e+00
  3.068142e+00    2.938977e+00
  3.084018e+00    2.956798e+00
  3.099893e+00    2.990915e+00
  3.115769e+00    2.982481e+00
  3.131644e+00    2.860124e+00
  3.147520e+00    2.901525e+00
  3.163395e+00    2.990518e+00
  3.179271e+00    2.887368e+00
  3.195147e+00    2.870186e+00
  3.211022e+00    2.863374e+00
  3.226898e+00    2.849425e+00
  3.242773e+00    2.924300e+00
  3.258649e+00    3.034972e+00
  3.274525e+00    2.956228e+00
  3.290400e+00    2.901739e+00
  3.306276e+00    2.897072e+00
  3.322151e+00    2.906036e+00
  3.338027e+00    2.997973e+00
  3.353902e+00    2.981086e+00
  3.369778e+00    3.050919e+00
  3.385654e+00    2.983431e+00
  3.401529e+00    2.897763e+00
  3.417405e+00    2.882468e+00
  3.433280e+00    2.867637e+00
  3.449156e+00    2.856701e+00
  3.465031e+00    2.922878e+00
  3.480907e+00    2.990746e+00
  3.496783e+00    2.990501e+00
  3.512658e+00    2.910780e+00
  3.528534e+00    2.862183e+00
  3.544409e+00    2.921217e+00
  3.560285e+00    3.011474e+00
  3.576160e+00    3.020778e+00
  3.592036e+00    3.042361e+00
  3.607912e+00    2.997154e+00
  3.623787e+00    2.929000e+00
  3.639663e+00    2.919058e+00
  3.655538e+00    2.915371e+00
  3.671414e+00    2.953725e+00
  3.687289e+00    2.924858e+00
  3.703165e+00    2.989958e+00
  3.719041e+00    2.936843e+00
  3.734916e+00    2.919569e+00
  3.750792e+00    2.973431e+00
  3.766667e+00    3.029961e+00
  3.782543e+00    2.961211e+00
  3.798418e+00    2.893847e+00
  3.814294e+00    2.972309e+00
  3.830170e+00    3.014586e+00
  3.846045e+00    3.007756e+00
  3.861921e+00    2.999012e+00
  3.877796e+00    3.057873e+00
  3.893672e+00    2.912483e+00
  3.909547e+00    2.981551e+00
  3.925423e+00    3.017697e+00
  3.941299e+00    2.976181e+00
  3.957174e+00    2.932508e+00
  3.973050e+00    2.930576e+00
  3.988925e+00    2.958430e+00
  4.004801e+00    2.990959e+00
  4.020676e+00    3.015886e+00
  4.036552e+00    3.016206e+00
  4.052428e+00    2.987408e+00
  4.068303e+00    3.088249e+00
  4.084179e+00    3.054625e+00
  4.100054e+00    3.024240e+00
  4.115930e+00    2.981098e+00
  4.131806e+00    3.032700e+00
  4.147681e+00    3.141629e+00
  4.163557e+00    3.119669e+00
  4.179432e+00    3.030965e+00
  4.195308e+00    3.047111e+00
  4.211183e+00    3.073605e+00
  4.227059e+00    3.069750e+00
  4.242935e+00    2.990374e+00
  4.258810e+00    3.049931e+00
  4.274686e+00    2.998120e+00
  4.290561e+00    3.008229e+00
  4.306437e+00    3.127836e+00
  4.322312e+00    3.115149e+00
  4.338188e+00    3.106182e+00
  4.354064e+00    3.067313e+00
  4.369939e+00    3.099529e+00
  4.385815e+00    3.045632e+00
  4.401690e+00    3.013967e+00
  4.417566e+00    3.116274e+00
  4.433441e+00    3.066922e+00
  4.449317e+00    3.043153e+00
  4.465193e+00    2.985843e+00
  4.481068e+00    3.018289e+00
  4.496944e+00    3.048240e+00
  4.512819e+00    3.083247e+00
  4.528695e+00    3.005006e+00
  4.544570e+00    3.008257e+00
  4.560446e+00    3.085085e+00
  4.576322e+00    3.111977e+00
  4.592197e+00    3.081763e+00
  4.608073e+00    3.099043e+00
  4.623948e+00    3.019253e+00
  4.639824e+00    3.023127e+00
  4.655699e+00    3.053745e+00
  4.671575e+00    3.059055e+00
  4.687451e+00    3.094322e+00
  4.703326e+00    3.055716e+00
  4.719202e+00    2.996752e+00
  4.735077e+00    3.015466e+00
  4.750953e+00    3.095344e+00
  4.766828e+00    3.160068e+00
  4.782704e+00    3.047763e+00
  4.798580e+00    3.001005e+00
  4.814455e+00    3.075131e+00
  4.830331e+00    3.121205e+00
  4.846206e+00    3.091184e+00
  4.862082e+00    3.119147e+00
  4.877957e+00    3.157978e+00
  4.893833e+00    3.112195e+00
  4.909709e+00    3.157186e+00
  4.925584e+00    3.161932e+00
  4.941460e+00    3.105572e+00
  4.957335e+00    3.117335e+00
  4.973211e+00    3.121306e+00
  4.989086e+00    3.140179e+00
  5.004962e+00    3.124719e+00
  5.020838e+00    3.092826e+00
  5.036713e+00    3.137693e+00
  5.052589e+00    3.126983e+00
  5.068464e+00    3.096547e+00
  5.084340e+00    3.146319e+00
  5.100216e+00    3.096270e+00
  5.116091e+00    3.071157e+00
  5.131967e+00    3.073464e+00
  5.147842e+00    3.053973e+00
  5.163718e+00    3.173500e+00
  5.179593e+00    3.125470e+00
  5.195469e+00    3.091092e+00
  5.211345e+00    3.119260e+00
  5.227220e+00    3.125950e+00
  5.243096e+00    3.097296e+00
  5.258971e+00    3.101635e+00
  5.274847e+00    3.095527e+00
  5.290722e+00    3.075524e+00
  5.306598e+00    3.082186e+00
  5.322474e+00    3.139523e+00
  5.338349e+00    3.097033e+00
  5.354225e+00    3.067655e+00
  5.370100e+00    3.082671e+00
  5.385976e+00    3.092695e+00
  5.401851e+00    3.106986e+00
  5.417727e+00    3.133764e+00
  5.433603e+00    3.177082e+00
  5.449478e+00    3.078102e+00
  5.465354e+00    3.026344e+00
  5.481229e+00    2.980932e+00
  5.497105e+00    2.994843e+00
  5.512980e+00    3.053216e+00
  5.528856e+00    3.075971e+00
  5.544732e+00    3.005685e+00
  5.560607e+00    3.005761e+00
  5.576483e+00    3.072097e+00
  5.592358e+00    3.019316e+00
  5.608234e+00    2.978575e+00
  5.624109e+00    3.029435e+00
  5.639985e+00    3.053271e+00
  5.655861e+00    3.003376e+00
  5.671736e+00    3.061512e+00
  5.687612e+00    3.069141e+00
  5.703487e+00    3.133264e+00
  5.719363e+00    3.051668e+00
  5.735238e+00    2.930108e+00
  5.751114e+00    2.966353e+00
  5.766990e+00    2.896815e+00
  5.782865e+00    2.943306e+00
  5.798741e+00    3.032411e+00
  5.814616e+00    3.012073e+00
  5.830492e+00    3.067299e+00
  5.846367e+00    3.023883e+00
  5.862243e+00    2.963089e+00
  5.878119e+00    3.077021e+00
  5.893994e+00    3.073668e+00
  5.909870e+00    2.990736e+00
  5.925745e+00    2.914980e+00
  5.941621e+00    2.913249e+00
  5.957497e+00    2.961835e+00
  5.973372e+00    2.948526e+00
  5.989248e+00    2.977331e+00
  6.005123e+00    3.001970e+00
  6.020999e+00    2.970705e+00
  6.036874e+00    3.022910e+00
  6.052750e+00    2.991758e+00
  6.068626e+00    3.053621e+00
  6.084501e+00    3.047840e+00
  6.100377e+00    3.005689e+00
  6.116252e+00    3.059071e+00
  6.132128e+00    3.100296e+00
  6.148003e+00    3.091266e+00
  6.163879e+00    3.039922e+00
  6.179755e+00    3.019795e+00
  6.195630e+00    3.076233e+00
  6.211506e+00    3.073079e+00
  6.227381e+00    3.038307e+00
  6.243257e+00    3.064030e+00
  6.259132e+00    3.054382e+00
  6.275008e+00    2.990085e+00
  6.290884e+00    3.007647e+00
  6.306759e+00    2.929457e+00
  6.322635e+00    2.982270e+00
  6.338510e+00    3.001535e+00
  6.354386e+00    3.037493e+00
  6.370261e+00    3.038165e+00
  6.386137e+00    3.019856e+00
  6.402013e+00    2.970863e+00
  6.417888e+00    3.036186e+00
  6.433764e+00    2.978901e+00
  6.449639e+00    2.961770e+00
  6.465515e+00    3.018066e+00
  6.481390e+00    3.079641e+00
  6.497266e+00    3.034906e+00
  6.513142e+00    3.047955e+00
  6.529017e+00    3.019824e+00
  6.544893e+00    3.030827e+00
  6.560768e+00    3.022434e+00
  6.576644e+00    2.963585e+00
  6.592519e+00    2.982064e+00
  6.608395e+00    3.025685e+00
  6.624271e+00    2.993843e+00
  6.640146e+00    2.980435e+00
  6.656022e+00    3.046077e+00
  6.671897e+00    3.108572e+00
  6.687773e+00    3.003729e+00
  6.703648e+00    2.940560e+00
  6.719524e+00    2.933024e+00
  6.735400e+00    2.987406e+00
  6.751275e+00    3.042351e+00
  6.767151e+00    2.964399e+00
  6.783026e+00    2.991381e+00
  6.798902e+00    3.038380e+00
  6.814777e+00    3.061434e+00
  6.830653e+00    3.045817e+00
  6.846529e+00    3.004292e+00
  6.862404e+00    3.071854e+00
  6.878280e+00    2.962882e+00
  6.894155e+00    2.986870e+00
  6.910031e+00    2.963866e+00
  6.925907e+00    3.015909e+00
  6.941782e+00    3.049560e+00
  6.957658e+00    2.986415e+00
  6.973533e+00    2.941727e+00
  6.989409e+00    3.000838e+00
  7.005284e+00    2.977645e+00
  7.021160e+00    2.982474e+00
  7.037036e+00    3.012694e+00
  7.052911e+00    3.004411e+00
  7.068787e+00    3.004937e+00
  7.084662e+00    3.016680e+00
  7.100538e+00    3.036517e+00
  7.116413e+00    2.990164e+00
  7.132289e+00    2.918558e+00
  7.148165e+00    2.937960e+00
  7.164040e+00    2.966993e+00
  7.179916e+00    3.007978e+00
  7.195791e+00    2.956978e+00
  7.211667e+00    2.936107e+00
  7.227542e+00    2.932997e+00
  7.243418e+00    3.018733e+00
  7.259294e+00    3.014247e+00
  7.275169e+00    2.976257e+00
  7.291045e+00    2.986486e+00
  7.306920e+00    2.987662e+00
  7.322796e+00    2.980411e+00
  7.338671e+00    2.980332e+00
  7.354547e+00    2.946429e+00
  7.370423e+00    2.905860e+00
  7.386298e+00    2.955613e+00
  7.402174e+00    2.977129e+00
  7.418049e+00    3.002748e+00
  7.433925e+00    3.030631e+00
  7.449800e+00    3.034049e+00
  7.465676e+00    2.945115e+00
  7.481552e+00    2.916510e+00
  7.497427e+00    2.985679e+00
  7.513303e+00    3.055580e+00
  7.529178e+00    2.986890e+00
  7.545054e+00    2.975811e+00
  7.560929e+00    2.959934e+00
  7.576805e+00    2.912238e+00
  7.592681e+00    2.958121e+00
  7.608556e+00    2.983358e+00
  7.624432e+00    2.993630e+00
  7.640307e+00    2.939048e+00
  7.656183e+00    2.957276e+00
  7.672058e+00    2.953213e+00
  7.687934e+00    2.934505e+00
  7.703810e+00    2.921299e+00
  7.719685e+00    2.921090e+00
  7.735561e+00    2.913806e+00
  7.751436e+00    2.897279e+00
  7.767312e+00    2.941189e+00
  7.783187e+00    2.880516e+00
  7.799063e+00    2.863320e+00
  7.814939e+00    2.894434e+00
  7.830814e+00    2.903542e+00
  7.846690e+00    2.968796e+00
  7.862565e+00    2.933601e+00
  7.878441e+00    2.836086e+00
  7.894317e+00    2.856221e+00
  7.910192e+00    2.958571e+00
  7.926068e+00    3.006740e+00
  7.941943e+00    2.944819e+00
  7.957819e+00    2.934354e+00
  7.973694e+00    2.844555e+00
  7.989570e+00    2.910059e+00
  8.005446e+00    2.970687e+00
  8.021321e+00    2.963369e+00
  8.037197e+00    2.901077e+00
  8.053072e+00    2.875705e+00
  8.068948e+00    2.878896e+00
  8.084823e+00    2.896668e+00
  8.100699e+00    2.873153e+00
  8.116575e+00    2.848980e+00
  8.132450e+00    2.908501e+00
  8.148326e+00    2.953950e+00
  8.164201e+00    3.032869e+00
  8.180077e+00    2.963943e+00
  8.195952e+00    2.884245e+00
  8.211828e+00    2.953477e+00
  8.227704e+00    2.921218e+00
  8.243579e+00    2.915773e+00
  8.259455e+00    2.873243e+00
  8.275330e+00    2.928973e+00
  8.291206e+00    2.959410e+00
  8.307081e+00    2.921873e+00
  8.322957e+00    2.916057e+00
  8.338833e+00    2.824159e+00
  8.354708e+00    2.841433e+00
  8.370584e+00    2.887305e+00
  8.386459e+00    2.885248e+00
  8.402335e+00    2.883734e+00
  8.418210e+00    2.876921e+00
  8.434086e+00    2.786472e+00
  8.449962e+00    2.824588e+00
  8.465837e+00    2.840755e+00
  8.481713e+00    2.872139e+00
  8.497588e+00    2.876157e+00
  8.513464e+00    2.807575e+00
  8.529339e+00    2.823065e+00
  8.545215e+00    2.829501e+00
  8.561091e+00    2.885955e+00
  8.576966e+00    2.847231e+00
  8.592842e+00    2.831423e+00
  8.608717e+00    2.900014e+00
  8.624593e+00    2.865734e+00
  8.640468e+00    2.871916e+00
  8.656344e+00    2.878919e+00
  8.672220e+00    2.876939e+00
  8.688095e+00    2.873561e+00
  8.703971e+00    2.845049e+00
  8.719846e+00    2.853609e+00
  8.735722e+00    2.844363e+00
  8.751598e+00    2.807488e+00
  8.767473e+00    2.833523e+00
  8.783349e+00    2.783820e+00
  8.799224e+00    2.796969e+00
  8.815100e+00    2.869990e+00
  8.830975e+00    2.824398e+00
  8.846851e+00    2.816481e+00
  8.862727e+00    2.806147e+00
  8.878602e+00    2.856094e+00
  8.894478e+00    2.787144e+00
  8.910353e+00    2.799103e+00
  8.926229e+00    2.807809e+00
  8.942104e+00    2.826766e+00
  8.957980e+00    2.841317e+00
  8.973856e+00    2.835599e+00
  8.989731e+00    2.813780e+00
  9.005607e+00    2.820641e+00
  9.021482e+00    2.798837e+00
  9.037358e+00    2.784903e+00
  9.053233e+00    2.772053e+00
  9.069109e+00    2.820822e+00
  9.084985e+00    2.814500e+00
  9.100860e+00    2.801893e+00
  9.116736e+00    2.810557e+00
  9.132611e+00    2.835279e+00
  9.148487e+00    2.781883e+00
  9.164362e+00    2.766349e+00
  9.180238e+00    2.771922e+00
  9.196114e+00    2.696776e+00
  9.211989e+00    2.794262e+00
  9.227865e+00    2.777734e+00
  9.243740e+00    2.793970e+00
  9.259616e+00    2.818001e+00
  9.275491e+00    2.777936e+00
  9.291367e+00    2.799551e+00
  9.307243e+00    2.785565e+00
  9.323118e+00    2.746069e+00
  9.338994e+00    2.761837e+00
  9.354869e+00    2.761823e+00
  9.370745e+00    2.723483e+00
  9.386620e+00    2.735032e+00
  9.402496e+00    2.725399e+00
  9.418372e+00    2.743116e+00
  9.434247e+00    2.742181e+00
  9.450123e+00    2.755721e+00
  9.465998e+00    2.799346e+00
  9.481874e+00    2.767792e+00
  9.497749e+00    2.754504e+00
  9.513625e+00    2.769825e+00
  9.529501e+00    2.714664e+00
  9.545376e+00    2.700350e+00
  9.561252e+00    2.805831e+00
  9.577127e+00    2.747156e+00
  9.593003e+00    2.751484e+00
  9.608878e+00    2.705101e+00
  9.624754e+00    2.686282e+00
  9.640630e+00    2.708487e+00
  9.656505e+00    2.728558e+00
  9.672381e+00    2.716284e+00
  9.688256e+00    2.763123e+00
  9.704132e+00    2.771240e+00
  9.720008e+00    2.690826e+00
  9.735883e+00    2.679673e+00
  9.751759e+00    2.688423e+00
  9.767634e+00    2.749925e+00
  9.783510e+00    2.725924e+00
  9.799385e+00    2.690066e+00
  9.815261e+00    2.674091e+00
  9.831137e+00    2.741809e+00
  9.847012e+00    2.758452e+00
  9.862888e+00    2.671032e+00
  9.878763e+00    2.658216e+00
  9.894639e+00    2.650669e+00
  9.910514e+00    2.709852e+00
  9.926390e+00    2.660832e+00
  9.942266e+00    2.690605e+00
  9.958141e+00    2.667559e+00
  9.974017e+00    2.629407e+00
  9.989892e+00    2.618420e+00
  1.000577e+01    2.677930e+00
  1.002164e+01    2.680618e+00
  1.003752e+01    2.633777e+00
  1.005339e+01    2.639330e+00
  1.006927e+01    2.654487e+00
  1.008515e+01    2.608874e+00
  1.010102e+01    2.611346e+00
  1.011690e+01    2.628573e+00
  1.013277e+01    2.642060e+00
  1.014865e+01    2.678761e+00
  1.016452e+01    2.612805e+00
  1.018040e+01    2.587492e+00
  1.019627e+01    2.627757e+00
  1.021215e+01    2.664981e+00
  1.022803e+01    2.678877e+00
  1.024390e+01    2.626576e+00
  1.025978e+01    2.613216e+00
  1.027565e+01    2.648249e+00
  1.029153e+01    2.595776e+00
  1.030740e+01    2.580172e+00
  1.032328e+01    2.597281e+00
  1.033915e+01    2.580564e+00
  1.035503e+01    2.601177e+00
  1.037091e+01    2.626920e+00
  1.038678e+01    2.598495e+00
  1.040266e+01    2.628639e+00
  1.041853e+01    2.600869e+00
  1.043441e+01    2.582220e+00
  1.045028e+01    2.583929e+00
  1.046616e+01    2.547493e+00
  1.048204e+01    2.561714e+00
  1.049791e+01    2.591681e+00
  1.051379e+01    2.640520e+00
  1.052966e+01    2.611701e+00
  1.054554e+01    2.562428e+00
  1.056141e+01    2.546266e+00
  1.057729e+01    2.586641e+00
  1.059316e+01    2.536125e+00
  1.060904e+01    2.554546e+00
  1.062492e+01    2.543396e+00
  1.064079e+01    2.530073e+00
  1.065667e+01    2.508119e+00
  1.067254e+01    2.502523e+00
  1.068842e+01    2.543643e+00
  1.070429e+01    2.497746e+00
  1.072017e+01    2.471434e+00
  1.073604e+01    2.505951e+00
  1.075192e+01    2.535502e+00
  1.076780e+01    2.542859e+00
  1.078367e+01    2.475920e+00
  1.079955e+01    2.552912e+00
  1.081542e+01    2.565748e+00
  1.083130e+01    2.532388e+00
  1.084717e+01    2.512012e+00
  1.086305e+01    2.505541e+00
  1.087892e+01    2.523610e+00
  1.089480e+01    2.544933e+00
  1.091068e+01    2.549271e+00
  1.092655e+01    2.486861e+00
  1.094243e+01    2.537703e+00
  1.095830e+01    2.515561e+00
  1.097418e+01    2.476424e+00
  1.099005e+01    2.477377e+00
  1.100593e+01    2.454522e+00
  1.102180e+01    2.484053e+00
  1.103768e+01    2.478274e+00
  1.105356e+01    2.451597e+00
  1.106943e+01    2.440022e+00
  1.108531e+01    2.429796e+00
  1.110118e+01    2.444535e+00
  1.111706e+01    2.474610e+00
  1.113293e+01    2.481461e+00
  1.114881e+01    2.483466e+00
  1.116468e+01    2.471387e+00
  1.118056e+01    2.434634e+00
  1.119644e+01    2.485563e+00
  1.121231e+01    2.465764e+00
  1.122819e+01    2.491111e+00
  1.124406e+01    2.441646e+00
  1.125994e+01    2.445395e+00
  1.127581e+01    2.402395e+00
  1.129169e+01    2.412749e+00
  1.130756e+01    2.424228e+00
  1.132344e+01    2.422138e+00
  1.133932e+01    2.445884e+00
  1.135519e+01    2.413784e+00
  1.137107e+01    2.402887e+00
  1.138694e+01    2.386432e+00
  1.140282e+01    2.401176e+00
  1.141869e+01    2.396705e+00
  1.143457e+01    2.408818e+00
  1.145045e+01    2.378138e+00
  1.146632e+01    2.367465e+00
  1.148220e+01    2.358221e+00
  1.149807e+01    2.346097e+00
  1.151395e+01    2.367275e+00
  1.152982e+01    2.381993e+00
  1.154570e+01    2.409683e+00
  1.156157e+01    2.374783e+00
  1.157745e+01    2.365322e+00
  1.159333e+01    2.405747e+00
  1.160920e+01    2.367565e+00
  1.162508e+01    2.339375e+00
  1.164095e+01    2.356425e+00
  1.165683e+01    2.338097e+00
  1.167270e+01    2.360595e+00
  1.168858e+01    2.355596e+00
  1.170445e+01    2.348716e+00
  1.172033e+01    2.393510e+00
  1.173621e+01    2.385036e+00
  1.175208e+01    2.351864e+00
  1.176796e+01    2.320160e+00
  1.178383e+01    2.344393e+00
  1.179971e+01    2.377863e+00
  1.181558e+01    2.382024e+00
  1.183146e+01    2.357827e+00
  1.184733e+01    2.319740e+00
  1.186321e+01    2.354023e+00
  1.187909e+01    2.336654e+00
  1.189496e+01    2.349884e+00
  1.191084e+01    2.384848e+00
  1.192671e+01    2.334808e+00
  1.194259e+01    2.343357e+00
  1.195846e+01    2.323353e+00
  1.197434e+01    2.292631e+00
  1.199021e+01    2.310534e+00
  1.200609e+01    2.321236e+00
  1.202197e+01    2.295135e+00
  1.203784e+01    2.329669e+00
  1.205372e+01    2.320240e+00
  1.206959e+01    2.340196e+00
  1.208547e+01    2.355764e+00
  1.210134e+01    2.335682e+00
  1.211722e+01    2.330904e+00
  1.213309e+01    2.323451e+00
  1.214897e+01    2.329823e+00
  1.216485e+01    2.334773e+00
  1.218072e+01    2.332653e+00
  1.219660e+01    2.300449e+00
  1.221247e+01    2.346172e+00
  1.222835e+01    2.366712e+00
  1.224422e+01    2.364954e+00
  1.226010e+01    2.347511e+00
  1.227597e+01    2.295255e+00
  1.229185e+01    2.314652e+00
  1.230773e+01    2.243975e+00
  1.232360e+01    2.272553e+00
  1.233948e+01    2.295161e+00
  1.235535e+01    2.294474e+00
  1.237123e+01    2.346260e+00
  1.238710e+01    2.321924e+00
  1.240298e+01    2.337463e+00
  1.241886e+01    2.359247e+00
  1.243473e+01    2.319041e+00
  1.245061e+01    2.315254e+00
  1.246648e+01    2.316692e+00
  1.248236e+01    2.349397e+00
  1.249823e+01    2.348262e+00
  1.251411e+01    2.342994e+00
  1.252998e+01    2.343939e+00
  1.254586e+01    2.372769e+00
  1.256174e+01    2.373280e+00
  1.257761e+01    2.366575e+00
  1.259349e+01    2.388435e+00
  1.260936e+01    2.381143e+00
  1.262524e+01    2.397955e+00
  1.264111e+01    2.439658e+00
  1.265699e+01    2.432598e+00
  1.267286e+01    2.429581e+00
  1.268874e+01    2.438061e+00
  1.270462e+01    2.433253e+00
  1.272049e+01    2.480619e+00
  1.273637e+01    2.531999e+00
  1.275224e+01    2.604290e+00
  1.276812e+01    2.582130e+00
  1.278399e+01    2.591901e+00
  1.279987e+01    2.638433e+00
  1.281574e+01    2.708015e+00
  1.283162e+01    2.769340e+00
  1.284750e+01    2.816260e+00
  1.286337e+01    2.910148e+00
  1.287925e+01    3.055634e+00
  1.289512e+01    3.149955e+00
  1.291100e+01    3.291158e+00
  1.292687e+01    3.423345e+00
  1.294275e+01    3.666225e+00
  1.295862e+01    3.972200e+00
  1.297450e+01    4.293581e+00
  1.299038e+01    4.723309e+00
  1.300625e+01    5.300813e+00
  1.302213e+01    6.029429e+00
  1.303800e+01    6.833658e+00
  1.305388e+01    7.909671e+00
  1.306975e+01    9.299343e+00
  1.308563e+01    1.076720e+01
  1.310150e+01    1.228542e+01
  1.311738e+01    1.353634e+01
  1.313326e+01    1.493447e+01
  1.314913e+01    1.615724e+01
  1.316501e+01    1.737325e+01
  1.318088e+01    1.818700e+01
  1.319676e+01    1.832215e+01
  1.321263e+01    1.767873e+01
  1.322851e+01    1.613989e+01
  1.324438e+01    1.388875e+01
  1.326026e+01    1.177483e+01
  1.327614e+01    9.897986e+00
  1.329201e+01    8.275383e+00
  1.330789e+01    7.060522e+00
  1.332376e+01    6.162500e+00
  1.333964e+01    5.448893e+00
  1.335551e+01    4.851339e+00
  1.337139e+01    4.388201e+00
  1.338727e+01    4.029649e+00
  1.340314e+01    3.712973e+00
  1.341902e+01    3.470015e+00
  1.343489e+01    3.304110e+00
  1.345077e+01    3.170482e+00
  1.346664e+01    2.998638e+00
  1.348252e+01    2.888848e+00
  1.349839e+01    2.805699e+00
  1.351427e+01    2.759449e+00
  1.353015e+01    2.662076e+00
  1.354602e+01    2.567478e+00
  1.356190e+01    2.467921e+00
  1.357777e+01    2.461805e+00
  1.359365e+01    2.436679e+00
  1.360952e+01    2.396168e+00
  1.362540e+01    2.350461e+00
  1.364127e+01    2.356379e+00
  1.365715e+01    2.363224e+00
  1.367303e+01    2.335653e+00
  1.368890e+01    2.330434e+00
  1.370478e+01    2.282060e+00
  1.372065e+01    2.232751e+00
  1.373653e+01    2.222550e+00
  1.375240e+01    2.226555e+00
  1.376828e+01    2.253203e+00
  1.378415e+01    2.196677e+00
  1.380003e+01    2.137293e+00
  1.381591e+01    2.168670e+00
  1.383178e+01    2.128320e+00
  1.384766e+01    2.132407e+00
  1.386353e+01    2.118452e+00
  1.387941e+01    2.148139e+00
  1.389528e+01    2.118567e+00
  1.391116e+01    2.118487e+00
  1.392703e+01    2.082840e+00
  1.394291e+01    2.071024e+00
  1.395879e+01    2.077319e+00
  1.397466e+01    2.094140e+00
  1.399054e+01    2.076110e+00
  1.400641e+01    1.999837e+00
  1.402229e+01    1.997125e+00
  1.403816e+01    2.012063e+00
  1.405404e+01    2.053865e+00
  1.406991e+01    2.028811e+00
  1.408579e+01    2.010915e+00
  1.410167e+01    2.016687e+00
  1.411754e+01    2.006542e+00
  1.413342e+01    1.976144e+00
  1.414929e+01    2.037081e+00
  1.416517e+01    2.038588e+00
  1.418104e+01    1.979517e+00
  1.419692e+01    1.976384e+00
  1.421279e+01    1.993327e+00
  1.422867e+01    1.998668e+00
  1.424455e+01    2.031581e+00
  1.426042e+01    1.989724e+00
  1.427630e+01    1.952959e+00
  1.429217e+01    1.990517e+00
  1.430805e+01    1.958199e+00
  1.432392e+01    1.909181e+00
  1.433980e+01    1.930109e+00
  1.435568e+01    1.956561e+00
  1.437155e+01    1.964055e+00
  1.438743e+01    1.932133e+00
  1.440330e+01    1.915846e+00
  1.441918e+01    1.920144e+00
  1.443505e+01    1.940705e+00
  1.445093e+01    1.945008e+00
  1.446680e+01    1.918232e+00
  1.448268e+01    1.947039e+00
  1.449856e+01    1.940939e+00
  1.451443e+01    1.919034e+00
  1.453031e+01    1.911795e+00
  1.454618e+01    1.888811e+00
  1.456206e+01    1.915625e+00
  1.457793e+01    1.917797e+00
  1.459381e+01    1.910633e+00
  1.460968e+01    1.925778e+00
  1.462556e+01    1.914372e+00
  1.464144e+01    1.898699e+00
  1.465731e+01    1.897204e+00
  1.467319e+01    1.885088e+00
  1.468906e+01    1.932754e+00
  1.470494e+01    1.884318e+00
  1.472081e+01    1.861001e+00
  1.473669e+01    1.920670e+00
  1.475256e+01    1.927297e+00
  1.476844e+01    1.908896e+00
  1.478432e+01    1.921720e+00
  1.480019e+01    1.923251e+00
  1.481607e+01    1.947850e+00
  1.483194e+01    1.926311e+00
  1.484782e+01    1.932137e+00
  1.486369e+01    1.959864e+00
  1.487957e+01    1.950166e+00
  1.489544e+01    1.953215e+00
  1.491132e+01    1.931397e+00
  1.492720e+01    1.942142e+00
  1.494307e+01    1.949512e+00
  1.495895e+01    2.010597e+00
  1.497482e+01    2.020087e+00
  1.499070e+01    2.070714e+00
  1.500657e+01    2.092048e+00
  1.502245e+01    2.144523e+00
  1.503832e+01    2.245562e+00
  1.505420e+01    2.345117e+00
  1.507008e+01    2.482779e+00
  1.508595e+01    2.590079e+00
  1.510183e+01    2.788019e+00
  1.511770e+01    3.018103e+00
  1.513358e+01    3.357454e+00
  1.514945e+01    3.678684e+00
  1.516533e+01    4.069149e+00
  1.518120e+01    4.441599e+00
  1.519708e+01    4.860336e+00
  1.521296e+01    5.209132e+00
  1.522883e+01    5.521526e+00
  1.524471e+01    5.856947e+00
  1.526058e+01    6.066746e+00
  1.527646e+01    6.206110e+00
  1.529233e+01    6.185065e+00
  1.530821e+01    5.964880e+00
  1.532409e+01    5.512442e+00
  1.533996e+01    4.944283e+00
  1.535584e+01    4.346054e+00
  1.537171e+01    3.873368e+00
  1.538759e+01    3.441645e+00
  1.540346e+01    3.106853e+00
  1.541934e+01    2.796965e+00
  1.543521e+01    2.618916e+00
  1.545109e+01    2.446509e+00
  1.546697e+01    2.373926e+00
  1.548284e+01    2.256670e+00
  1.549872e+01    2.157009e+00
  1.551459e+01    2.084192e+00
  1.553047e+01    2.012979e+00
  1.554634e+01    2.000520e+00
  1.556222e+01    1.940507e+00
  1.557809e+01    1.918153e+00
  1.559397e+01    1.896463e+00
  1.560985e+01    1.853675e+00
  1.562572e+01    1.820608e+00
  1.564160e+01    1.767664e+00
  1.565747e+01    1.826626e+00
  1.567335e+01    1.820581e+00
  1.568922e+01    1.759338e+00
  1.570510e+01    1.762693e+00
  1.572097e+01    1.726794e+00
  1.573685e+01    1.689880e+00
  1.575273e+01    1.662670e+00
  1.576860e+01    1.664250e+00
  1.578448e+01    1.696615e+00
  1.580035e+01    1.676693e+00
  1.581623e+01    1.647450e+00
  1.583210e+01    1.677308e+00
  1.584798e+01    1.708441e+00
  1.586385e+01    1.651276e+00
  1.587973e+01    1.635608e+00
  1.589561e+01    1.653846e+00
  1.591148e+01    1.669312e+00
  1.592736e+01    1.632655e+00
  1.594323e+01    1.622387e+00
  1.595911e+01    1.601067e+00
  1.597498e+01    1.607608e+00
  1.599086e+01    1.630379e+00
  1.600673e+01    1.628049e+00
  1.602261e+01    1.606645e+00
  1.603849e+01    1.613336e+00
  1.605436e+01    1.616423e+00
  1.607024e+01    1.615248e+00
  1.608611e+01    1.585075e+00
  1.610199e+01    1.573196e+00
  1.611786e+01    1.572801e+00
  1.613374e+01    1.595096e+00
  1.614961e+01    1.586654e+00
  1.616549e+01    1.564090e+00
  1.618137e+01    1.565601e+00
  1.619724e+01    1.571036e+00
  1.621312e+01    1.571372e+00
  1.622899e+01    1.558149e+00
  1.624487e+01    1.543744e+00
  1.626074e+01    1.537393e+00
  1.627662e+01    1.558498e+00
  1.629250e+01    1.528533e+00
  1.630837e+01    1.532394e+00
  1.632425e+01    1.546021e+00
  1.634012e+01    1.523310e+00
  1.635600e+01    1.522452e+00
  1.637187e+01    1.537862e+00
  1.638775e+01    1.524548e+00
  1.640362e+01    1.525367e+00
  1.641950e+01    1.546103e+00
  1.643538e+01    1.516234e+00
  1.645125e+01    1.535951e+00
  1.646713e+01    1.533797e+00
  1.648300e+01    1.511928e+00
  1.649888e+01    1.513238e+00
  1.651475e+01    1.514123e+00
  1.653063e+01    1.480247e+00
  1.654650e+01    1.454889e+00
  1.656238e+01    1.448041e+00
  1.657826e+01    1.458407e+00
  1.659413e+01    1.484772e+00
  1.661001e+01    1.484397e+00
  1.662588e+01    1.487499e+00
  1.664176e+01    1.503360e+00
  1.665763e+01    1.468339e+00
  1.667351e+01    1.474450e+00
  1.668938e+01    1.464116e+00
  1.670526e+01    1.463942e+00
  1.672114e+01    1.471900e+00
  1.673701e+01    1.477002e+00
  1.675289e+01    1.481963e+00
  1.676876e+01    1.461348e+00
  1.678464e+01    1.465644e+00
  1.680051e+01    1.455770e+00
  1.681639e+01    1.434155e+00
  1.683226e+01    1.451160e+00
  1.684814e+01    1.445691e+00
  1.686402e+01    1.457730e+00
  1.687989e+01    1.465337e+00
  1.689577e+01    1.467917e+00
  1.691164e+01    1.428500e+00
  1.692752e+01    1.448867e+00
  1.694339e+01    1.473975e+00
  1.695927e+01    1.449472e+00
  1.697514e+01    1.446451e+00
  1.699102e+01    1.411953e+00
  1.700690e+01    1.398879e+00
  1.702277e+01    1.398787e+00
  1.703865e+01    1.420179e+00
  1.705452e+01    1.413712e+00
  1.707040e+01    1.434982e+00
  1.708627e+01    1.417645e+00
  1.710215e+01    1.427904e+00
  1.711802e+01    1.417104e+00
  1.713390e+01    1.384090e+00
  1.714978e+01    1.386980e+00
  1.716565e+01    1.393588e+00
  1.718153e+01    1.386146e+00
  1.719740e+01    1.393997e+00
  1.721328e+01    1.406644e+00
  1.722915e+01    1.384769e+00
  1.724503e+01    1.406525e+00
  1.726091e+01    1.360087e+00
  1.727678e+01    1.364022e+00
  1.729266e+01    1.404932e+00
  1.730853e+01    1.413767e+00
  1.732441e+01    1.381867e+00
  1.734028e+01    1.383077e+00
  1.735616e+01    1.381966e+00
  1.737203e+01    1.366298e+00
  1.738791e+01    1.366753e+00
  1.740379e+01    1.369643e+00
  1.741966e+01    1.360742e+00
  1.743554e+01    1.379400e+00
  1.745141e+01    1.357640e+00
  1.746729e+01    1.355530e+00
  1.748316e+01    1.339928e+00
  1.749904e+01    1.342204e+00
  1.751491e+01    1.383382e+00
  1.753079e+01    1.363816e+00
  1.754667e+01    1.368285e+00
  1.756254e+01    1.363629e+00
  1.757842e+01    1.343142e+00
  1.759429e+01    1.342434e+00
  1.761017e+01    1.369004e+00
  1.762604e+01    1.371235e+00
  1.764192e+01    1.326011e+00
  1.765779e+01    1.327847e+00
  1.767367e+01    1.336093e+00
  1.768955e+01    1.367678e+00
  1.770542e+01    1.360292e+00
  1.772130e+01    1.341829e+00
  1.773717e+01    1.356900e+00
  1.775305e+01    1.335967e+00
  1.776892e+01    1.336316e+00
  1.778480e+01    1.324910e+00
  1.780067e+01    1.333765e+00
  1.781655e+01    1.329509e+00
  1.783243e+01    1.319184e+00
  1.784830e+01    1.301044e+00
  1.786418e+01    1.303805e+00
  1.788005e+01    1.327185e+00
  1.789593e+01    1.318127e+00
  1.791180e+01    1.347674e+00
  1.792768e+01    1.326793e+00
  1.794355e+01    1.331916e+00
  1.795943e+01    1.320731e+00
  1.797531e+01    1.294132e+00
  1.799118e+01    1.290643e+00
  1.800706e+01    1.295506e+00
  1.802293e+01    1.322979e+00
  1.803881e+01    1.324247e+00
  1.805468e+01    1.291869e+00
  1.807056e+01    1.300588e+00
  1.808643e+01    1.300758e+00
  1.810231e+01    1.269939e+00
  1.811819e+01    1.282860e+00
  1.813406e+01    1.284655e+00
  1.814994e+01    1.273795e+00
  1.816581e+01    1.283221e+00
  1.818169e+01    1.273934e+00
  1.819756e+01    1.275965e+00
  1.821344e+01    1.276414e+00
  1.822932e+01    1.261713e+00
  1.824519e+01    1.280963e+00
  1.826107e+01    1.293348e+00
  1.827694e+01    1.263654e+00
  1.829282e+01    1.260028e+00
  1.830869e+01    1.254780e+00
  1.832457e+01    1.283022e+00
  1.834044e+01    1.270096e+00
  1.835632e+01    1.265869e+00
  1.837220e+01    1.266735e+00
  1.838807e+01    1.244740e+00
  1.840395e+01    1.256309e+00
  1.841982e+01    1.243072e+00
  1.843570e+01    1.255047e+00
  1.845157e+01    1.251551e+00
  1.846745e+01    1.244653e+00
  1.848332e+01    1.223709e+00
  1.849920e+01    1.235968e+00
  1.851508e+01    1.214207e+00
  1.853095e+01    1.223439e+00
  1.854683e+01    1.244202e+00
  1.856270e+01    1.232560e+00
  1.857858e+01    1.247774e+00
  1.859445e+01    1.238754e+00
  1.861033e+01    1.250479e+00
  1.862620e+01    1.253107e+00
  1.864208e+01    1.245430e+00
  1.865796e+01    1.230279e+00
  1.867383e+01    1.235056e+00
  1.868971e+01    1.230315e+00
  1.870558e+01    1.212617e+00
  1.872146e+01    1.216970e+00
  1.873733e+01    1.237513e+00
  1.875321e+01    1.221203e+00
  1.876908e+01    1.223370e+00
  1.878496e+01    1.223258e+00
  1.880084e+01    1.200307e+00
  1.881671e+01    1.220992e+00
  1.883259e+01    1.219174e+00
  1.884846e+01    1.207280e+00
  1.886434e+01    1.227763e+00
  1.888021e+01    1.227855e+00
  1.889609e+01    1.230193e+00
  1.891196e+01    1.239260e+00
  1.892784e+01    1.238928e+00
  1.894372e+01    1.218510e+00
  1.895959e+01    1.196269e+00
  1.897547e+01    1.170593e+00
  1.899134e+01    1.166970e+00
  1.900722e+01    1.194779e+00
  1.902309e+01    1.208189e+00
  1.903897e+01    1.180552e+00
  1.905484e+01    1.169088e+00
  1.907072e+01    1.186356e+00
  1.908660e+01    1.175709e+00
  1.910247e+01    1.174624e+00
  1.911835e+01    1.183990e+00
  1.913422e+01    1.177712e+00
  1.915010e+01    1.176105e+00
  1.916597e+01    1.190914e+00
  1.918185e+01    1.174166e+00
  1.919773e+01    1.172047e+00
  1.921360e+01    1.197278e+00
  1.922948e+01    1.167028e+00
  1.924535e+01    1.165007e+00
  1.926123e+01    1.173545e+00
  1.927710e+01    1.184083e+00
  1.929298e+01    1.160741e+00
  1.930885e+01    1.160033e+00
  1.932473e+01    1.154051e+00
  1.934061e+01    1.160278e+00
  1.935648e+01    1.137447e+00
  1.937236e+01    1.178900e+00
  1.938823e+01    1.213090e+00
  1.940411e+01    1.210299e+00
  1.941998e+01    1.188050e+00
  1.943586e+01    1.174173e+00
  1.945173e+01    1.137661e+00
  1.946761e+01    1.157208e+00
  1.948349e+01    1.153519e+00
  1.949936e+01    1.152046e+00
  1.951524e+01    1.162299e+00
  1.953111e+01    1.148899e+00
  1.954699e+01    1.159304e+00
  1.956286e+01    1.129344e+00
  1.957874e+01    1.162069e+00
  1.959461e+01    1.171874e+00
  1.961049e+01    1.168737e+00
  1.962637e+01    1.162866e+00
  1.964224e+01    1.156370e+00
  1.965812e+01    1.144354e+00
  1.967399e+01    1.134044e+00
  1.968987e+01    1.125290e+00
  1.970574e+01    1.142922e+00
  1.972162e+01    1.143006e+00
  1.973749e+01    1.128174e+00
  1.975337e+01    1.132461e+00
  1.976925e+01    1.147930e+00
  1.978512e+01    1.114763e+00
  1.980100e+01    1.126815e+00
  1.981687e+01    1.140062e+00
  1.983275e+01    1.128646e+00
  1.984862e+01    1.134886e+00
  1.986450e+01    1.147576e+00
  1.988037e+01    1.130765e+00
  1.989625e+01    1.127861e+00
  1.991213e+01    1.127993e+00
  1.992800e+01    1.133181e+00
  1.994388e+01    1.127647e+00
  1.995975e+01    1.135477e+00
  1.997563e+01    1.131763e+00
  1.999150e+01    1.117372e+00
  2.000738e+01    1.130627e+00
  2.002325e+01    1.131999e+00
  2.003913e+01    1.140309e+00
  2.005501e+01    1.125703e+00
  2.007088e+01    1.107083e+00
  2.008676e+01    1.107316e+00
  2.010263e+01    1.107247e+00
  2.011851e+01    1.142571e+00
  2.013438e+01    1.108127e+00
  2.015026e+01    1.110529e+00
  2.016614e+01    1.115124e+00
  2.018201e+01    1.098851e+00
  2.019789e+01    1.101085e+00
  2.021376e+01    1.108715e+00
  2.022964e+01    1.096117e+00
  2.024551e+01    1.126011e+00
  2.026139e+01    1.121469e+00
  2.027726e+01    1.091983e+00
  2.029314e+01    1.097366e+00
  2.030902e+01    1.094647e+00
  2.032489e+01    1.110098e+00
  2.034077e+01    1.077799e+00
  2.035664e+01    1.081830e+00
  2.037252e+01    1.098535e+00
  2.038839e+01    1.083943e+00
  2.040427e+01    1.078571e+00
  2.042014e+01    1.090696e+00
  2.043602e+01    1.107935e+00
  2.045190e+01    1.085702e+00
  2.046777e+01    1.059062e+00
  2.048365e+01    1.082015e+00
  2.049952e+01    1.093952e+00
  2.051540e+01    1.079870e+00
  2.053127e+01    1.095412e+00
  2.054715e+01    1.062777e+00
  2.056302e+01    1.065609e+00
  2.057890e+01    1.069479e+00
  2.059478e+01    1.077367e+00
  2.061065e+01    1.087901e+00
  2.062653e+01    1.106584e+00
  2.064240e+01    1.103938e+00
  2.065828e+01    1.102537e+00
  2.067415e+01    1.100857e+00
  2.069003e+01    1.070088e+00
  2.070590e+01    1.054300e+00
  2.072178e+01    1.079746e+00
  2.073766e+01    1.059315e+00
  2.075353e+01    1.060941e+00
  2.076941e+01    1.086544e+00
  2.078528e+01    1.103229e+00
  2.080116e+01    1.098047e+00
  2.081703e+01    1.080535e+00
  2.083291e+01    1.065569e+00
  2.084878e+01    1.081895e+00
  2.086466e+01    1.073729e+00
  2.088054e+01    1.083121e+00
  2.089641e+01    1.059532e+00
  2.091229e+01    1.088192e+00
  2.092816e+01    1.090088e+00
  2.094404e+01    1.095943e+00
  2.095991e+01    1.079098e+00
  2.097579e+01    1.075124e+00
  2.099166e+01    1.066418e+00
  2.100754e+01    1.067953e+00
  2.102342e+01    1.060853e+00
  2.103929e+01    1.044246e+00
  2.105517e+01    1.070341e+00
  2.107104e+01    1.120174e+00
  2.108692e+01    1.092591e+00
  2.110279e+01    1.069982e+00
  2.111867e+01    1.070373e+00
  2.113455e+01    1.077236e+00
  2.115042e+01    1.077296e+00
  2.116630e+01    1.101696e+00
  2.118217e+01    1.098715e+00
  2.119805e+01    1.080760e+00
  2.121392e+01    1.082836e+00
  2.122980e+01    1.077627e+00
  2.124567e+01    1.103683e+00
  2.126155e+01    1.109990e+00
  2.127743e+01    1.093414e+00
  2.129330e+01    1.126242e+00
  2.130918e+01    1.156744e+00
  2.132505e+01    1.145887e+00
  2.134093e+01    1.140388e+00
  2.135680e+01    1.141525e+00
  2.137268e+01    1.150261e+00
  2.138855e+01    1.161949e+00
  2.140443e+01    1.165821e+00
  2.142031e+01    1.198489e+00
  2.143618e+01    1.215912e+00
  2.145206e+01    1.218577e+00
  2.146793e+01    1.223988e+00
  2.148381e+01    1.265031e+00
  2.149968e+01    1.292833e+00
  2.151556e+01    1.289864e+00
  2.153143e+01    1.331395e+00
  2.154731e+01    1.364228e+00
  2.156319e+01    1.399330e+00
  2.157906e+01    1.454903e+00
  2.159494e+01    1.498927e+00
  2.161081e+01    1.568452e+00
  2.162669e+01    1.672674e+00
  2.164256e+01    1.716159e+00
  2.165844e+01    1.830958e+00
  2.167431e+01    2.001707e+00
  2.169019e+01    2.193697e+00
  2.170607e+01    2.398589e+00
  2.172194e+01    2.688202e+00
  2.173782e+01    2.989924e+00
  2.175369e+01    3.418890e+00
  2.176957e+01    3.970867e+00
  2.178544e+01    4.532243e+00
  2.180132e+01    5.181434e+00
  2.181719e+01    5.913929e+00
  2.183307e+01    6.705354e+00
  2.184895e+01    7.444359e+00
  2.186482e+01    8.272294e+00
  2.188070e+01    9.133290e+00
  2.189657e+01    9.737909e+00
  2.191245e+01    1.010663e+01
  2.192832e+01    1.009029e+01
  2.194420e+01    9.739009e+00
  2.196007e+01    8.867176e+00
  2.197595e+01    7.809443e+00
  2.199183e+01    6.693700e+00
  2.200770e+01    5.700000e+00
  2.202358e+01    4.823304e+00
  2.203945e+01    4.107620e+00
  2.205533e+01    3.502585e+00
  2.207120e+01    3.103029e+00
  2.208708e+01    2.758728e+00
  2.210296e+01    2.468305e+00
  2.211883e+01    2.199038e+00
  2.213471e+01    2.015818e+00
  2.215058e+01    1.873111e+00
  2.216646e+01    1.758038e+00
  2.218233e+01    1.631360e+00
  2.219821e+01    1.565425e+00
  2.221408e+01    1.517125e+00
  2.222996e+01    1.434493e+00
  2.224584e+01    1.362468e+00
  2.226171e+01    1.338092e+00
  2.227759e+01    1.287071e+00
  2.229346e+01    1.255415e+00
  2.230934e+01    1.234656e+00
  2.232521e+01    1.186397e+00
  2.234109e+01    1.170843e+00
  2.235696e+01    1.164237e+00
  2.237284e+01    1.154702e+00
  2.238872e+01    1.128415e+00
  2.240459e+01    1.099232e+00
  2.242047e+01    1.129326e+00
  2.243634e+01    1.097410e+00
  2.245222e+01    1.090036e+00
  2.246809e+01    1.061885e+00
  2.248397e+01    1.057284e+00
  2.249984e+01    1.040661e+00
  2.251572e+01    1.033841e+00
  2.253160e+01    1.021402e+00
  2.254747e+01    1.009432e+00
  2.256335e+01    1.020652e+00
  2.257922e+01    1.000762e+00
  2.259510e+01    9.929532e-01
  2.261097e+01    9.856815e-01
  2.262685e+01    9.665629e-01
  2.264272e+01    9.686089e-01
  2.265860e+01    9.782490e-01
  2.267448e+01    9.435005e-01
  2.269035e+01    9.494755e-01
  2.270623e+01    9.578818e-01
  2.272210e+01    9.433619e-01
  2.273798e+01    9.568819e-01
  2.275385e+01    9.406587e-01
  2.276973e+01    9.433456e-01
  2.278560e+01    9.468903e-01
  2.280148e+01    9.336074e-01
  2.281736e+01    9.303455e-01
  2.283323e+01    9.186438e-01
  2.284911e+01    9.272224e-01
  2.286498e+01    9.258254e-01
  2.288086e+01    9.225993e-01
  2.289673e+01    9.195257e-01
  2.291261e+01    8.966656e-01
  2.292848e+01    9.055129e-01
  2.294436e+01    9.106752e-01
  2.296024e+01    9.138393e-01
  2.297611e+01    9.017226e-01
  2.299199e+01    8.972609e-01
  2.300786e+01    8.773562e-01
  2.302374e+01    8.777339e-01
  2.303961e+01    8.779718e-01
  2.305549e+01    9.163283e-01
  2.307137e+01    9.211903e-01
  2.308724e+01    9.067446e-01
  2.310312e+01    8.881782e-01
  2.311899e+01    9.034442e-01
  2.313487e+01    8.937909e-01
  2.315074e+01    8.851432e-01
  2.316662e+01    8.954553e-01
  2.318249e+01    8.789741e-01
  2.319837e+01    8.735648e-01
  2.321425e+01    8.641287e-01
  2.323012e+01    8.702145e-01
  2.324600e+01    8.646715e-01
  2.326187e+01    8.644220e-01
  2.327775e+01    8.691589e-01
  2.329362e+01    8.758730e-01
  2.330950e+01    8.544621e-01
  2.332537e+01    8.610483e-01
  2.334125e+01    8.560314e-01
  2.335713e+01    8.664036e-01
  2.337300e+01    8.496045e-01
  2.338888e+01    8.650538e-01
  2.340475e+01    8.689901e-01
  2.342063e+01    8.572131e-01
  2.343650e+01    8.505449e-01
  2.345238e+01    8.705578e-01
  2.346825e+01    8.514190e-01
  2.348413e+01    8.562177e-01
  2.350001e+01    8.476765e-01
  2.351588e+01    8.583506e-01
  2.353176e+01    8.633503e-01
  2.354763e+01    8.578762e-01
  2.356351e+01    8.334119e-01
  2.357938e+01    8.338043e-01
  2.359526e+01    8.523015e-01
  2.361113e+01    8.525837e-01
  2.362701e+01    8.269954e-01
  2.364289e+01    8.549150e-01
  2.365876e+01    8.376931e-01
  2.367464e+01    8.399574e-01
  2.369051e+01    8.237716e-01
  2.370639e+01    8.226708e-01
  2.372226e+01    8.129713e-01
  2.373814e+01    8.269309e-01
  2.375401e+01    8.178693e-01
  2.376989e+01    8.161595e-01
  2.378577e+01    7.968200e-01
  2.380164e+01    7.995298e-01
  2.381752e+01    8.250043e-01
  2.383339e+01    7.997380e-01
  2.384927e+01    8.117501e-01
  2.386514e+01    8.068672e-01
  2.388102e+01    8.241577e-01
  2.389689e+01    8.002781e-01
  2.391277e+01    8.121061e-01
  2.392865e+01    8.191610e-01
  2.394452e+01    8.170972e-01
  2.396040e+01    7.964913e-01
  2.397627e+01    7.867438e-01
  2.399215e+01    7.928613e-01
  2.400802e+01    7.948480e-01
  2.402390e+01    7.882028e-01
  2.403978e+01    7.711928e-01
  2.405565e+01    7.786763e-01
  2.407153e+01    7.864174e-01
  2.408740e+01    7.734964e-01
  2.410328e+01    7.759413e-01
  2.411915e+01    7.950665e-01
  2.413503e+01    8.069898e-01
  2.415090e+01    7.883394e-01
  2.416678e+01    7.743286e-01
  2.418266e+01    7.676892e-01
  2.419853e+01    7.620647e-01
  2.421441e+01    7.636520e-01
  2.423028e+01    7.768897e-01
  2.424616e+01    7.724068e-01
  2.426203e+01    7.761392e-01
  2.427791e+01    7.821932e-01
  2.429378e+01    7.928454e-01
  2.430966e+01    7.780091e-01
  2.432554e+01    7.900054e-01
  2.434141e+01    7.856938e-01
  2.435729e+01    7.868589e-01
  2.437316e+01    7.797188e-01
  2.438904e+01    7.896906e-01
  2.440491e+01    7.838006e-01
  2.442079e+01    7.782334e-01
  2.443666e+01    8.024374e-01
  2.445254e+01    8.000493e-01
  2.446842e+01    7.946097e-01
  2.448429e+01    8.014023e-01
  2.450017e+01    7.961108e-01
  2.451604e+01    7.937027e-01
  2.453192e+01    7.708786e-01
  2.454779e+01    7.808846e-01
  2.456367e+01    7.828870e-01
  2.457954e+01    7.819949e-01
  2.459542e+01    7.857812e-01
  2.461130e+01    7.872151e-01
  2.462717e+01    7.874658e-01
  2.464305e+01    7.820715e-01
  2.465892e+01    7.907141e-01
  2.467480e+01    7.955717e-01
  2.469067e+01    8.062137e-01
  2.470655e+01    7.949688e-01
  2.472242e+01    7.672387e-01
  2.473830e+01    7.678779e-01
  2.475418e+01    7.987879e-01
  2.477005e+01    7.843342e-01
  2.478593e+01    7.671595e-01
  2.480180e+01    7.745419e-01
  2.481768e+01    7.978984e-01
  2.483355e+01    7.994863e-01
  2.484943e+01    7.836190e-01
  2.486530e+01    7.789057e-01
  2.488118e+01    7.937532e-01
  2.489706e+01    7.796921e-01
  2.491293e+01    7.617164e-01
  2.492881e+01    7.690600e-01
  2.494468e+01    7.853780e-01
  2.496056e+01    7.963656e-01
  2.497643e+01    8.069535e-01
  2.499231e+01    7.977225e-01
  2.500819e+01    8.063291e-01
  2.502406e+01    7.936244e-01
  2.503994e+01    7.964677e-01
  2.505581e+01    7.974305e-01
  2.507169e+01    8.154712e-01
  2.508756e+01    8.233289e-01
  2.510344e+01    8.226832e-01
  2.511931e+01    8.209738e-01
  2.513519e+01    8.107879e-01
  2.515107e+01    8.095121e-01
  2.516694e+01    8.228734e-01
  2.518282e+01    8.116218e-01
  2.519869e+01    8.281659e-01
  2.521457e+01    8.232129e-01
  2.523044e+01    8.293075e-01
  2.524632e+01    8.416139e-01
  2.526219e+01    8.465413e-01
  2.527807e+01    8.454158e-01
  2.529395e+01    8.555501e-01
  2.530982e+01    8.691067e-01
  2.532570e+01    8.704273e-01
  2.534157e+01    8.740705e-01
  2.535745e+01    8.862019e-01
  2.537332e+01    8.864222e-01
  2.538920e+01    8.996093e-01
  2.540507e+01    9.036028e-01
  2.542095e+01    9.217871e-01
  2.543683e+01    9.261118e-01
  2.545270e+01    9.378505e-01
  2.546858e+01    9.496796e-01
  2.548445e+01    9.413326e-01
  2.550033e+01    9.717188e-01
  2.551620e+01    9.709828e-01
  2.553208e+01    9.612533e-01
  2.554795e+01    1.001274e+00
  2.556383e+01    1.030422e+00
  2.557971e+01    1.026357e+00
  2.559558e+01    1.092282e+00
  2.561146e+01    1.132465e+00
  2.562733e+01    1.161640e+00
  2.564321e+01    1.179214e+00
  2.565908e+01    1.235664e+00
  2.567496e+01    1.277890e+00
  2.569083e+01    1.342936e+00
  2.570671e+01    1.438977e+00
  2.572259e+01    1.521070e+00
  2.573846e+01    1.628944e+00
  2.575434e+01    1.770985e+00
  2.577021e+01    1.928638e+00
  2.578609e+01    2.138121e+00
  2.580196e+01    2.374029e+00
  2.581784e+01    2.656543e+00
  2.583371e+01    3.106461e+00
  2.584959e+01    3.493614e+00
  2.586547e+01    3.963229e+00
  2.588134e+01    4.620986e+00
  2.589722e+01    5.276188e+00
  2.591309e+01    5.945495e+00
  2.592897e+01    6.699705e+00
  2.594484e+01    7.408748e+00
  2.596072e+01    8.002790e+00
  2.597660e+01    8.362323e+00
  2.599247e+01    8.349674e+00
  2.600835e+01    8.151309e+00
  2.602422e+01    7.581463e+00
  2.604010e+01    6.765996e+00
  2.605597e+01    5.937809e+00
  2.607185e+01    5.096870e+00
  2.608772e+01    4.370697e+00
  2.610360e+01    3.718280e+00
  2.611948e+01    3.196246e+00
  2.613535e+01    2.840139e+00
  2.615123e+01    2.502559e+00
  2.616710e+01    2.217822e+00
  2.618298e+01    2.026250e+00
  2.619885e+01    1.822055e+00
  2.621473e+01    1.666726e+00
  2.623060e+01    1.566829e+00
  2.624648e+01    1.491857e+00
  2.626236e+01    1.404807e+00
  2.627823e+01    1.313184e+00
  2.629411e+01    1.247705e+00
  2.630998e+01    1.199014e+00
  2.632586e+01    1.174459e+00
  2.634173e+01    1.118088e+00
  2.635761e+01    1.094873e+00
  2.637348e+01    1.085043e+00
  2.638936e+01    1.062765e+00
  2.640524e+01    1.031108e+00
  2.642111e+01    9.894774e-01
  2.643699e+01    9.974797e-01
  2.645286e+01    1.000349e+00
  2.646874e+01    9.854457e-01
  2.648461e+01    9.486846e-01
  2.650049e+01    9.641493e-01
  2.651636e+01    9.739473e-01
  2.653224e+01    9.539486e-01
  2.654812e+01    9.437956e-01
  2.656399e+01    9.333956e-01
  2.657987e+01    9.178714e-01
  2.659574e+01    9.131141e-01
  2.661162e+01    9.087433e-01
  2.662749e+01    9.062321e-01
  2.664337e+01    9.040449e-01
  2.665924e+01    9.290969e-01
  2.667512e+01    9.220026e-01
  2.669100e+01    8.997272e-01
  2.670687e+01    8.973976e-01
  2.672275e+01    9.114559e-01
  2.673862e+01    9.078124e-01
  2.675450e+01    8.907704e-01
  2.677037e+01    9.048309e-01
  2.678625e+01    9.072047e-01
  2.680212e+01    9.276252e-01
  2.681800e+01    9.349148e-01
  2.683388e+01    8.957273e-01
  2.684975e+01    8.916827e-01
  2.686563e+01    9.214820e-01
  2.688150e+01    8.918825e-01
  2.689738e+01    9.113242e-01
  2.691325e+01    9.356275e-01
  2.692913e+01    9.218875e-01
  2.694501e+01    9.495720e-01
  2.696088e+01    9.667792e-01
  2.697676e+01    9.918779e-01
  2.699263e+01    9.986164e-01
  2.700851e+01    1.026792e+00
  2.702438e+01    1.050286e+00
  2.704026e+01    1.088906e+00
  2.705613e+01    1.120429e+00
  2.707201e+01    1.174722e+00
  2.708789e+01    1.228812e+00
  2.710376e+01    1.314522e+00
  2.711964e+01    1.407882e+00
  2.713551e+01    1.510487e+00
  2.715139e+01    1.655112e+00
  2.716726e+01    1.795762e+00
  2.718314e+01    1.982674e+00
  2.719901e+01    2.137311e+00
  2.721489e+01    2.263465e+00
  2.723077e+01    2.358990e+00
  2.724664e+01    2.442538e+00
  2.726252e+01    2.439151e+00
  2.727839e+01    2.312474e+00
  2.729427e+01    2.175895e+00
  2.731014e+01    1.976630e+00
  2.732602e+01    1.823599e+00
  2.734189e+01    1.651938e+00
  2.735777e+01    1.510900e+00
  2.737365e+01    1.407939e+00
  2.738952e+01    1.303420e+00
  2.740540e+01    1.210654e+00
  2.742127e+01    1.126330e+00
  2.743715e+01    1.093697e+00
  2.745302e+01    1.065114e+00
  2.746890e+01    1.018808e+00
  2.748477e+01    1.008784e+00
  2.750065e+01    9.759901e-01
  2.751653e+01    9.545706e-01
  2.753240e+01    9.393617e-01
  2.754828e+01    9.014245e-01
  2.756415e+01    8.743088e-01
  2.758003e+01    8.729646e-01
  2.759590e+01    8.898346e-01
  2.761178e+01    8.773715e-01
  2.762765e+01    8.649794e-01
  2.764353e+01    8.485062e-01
  2.765941e+01    8.485912e-01
  2.767528e+01    8.478521e-01
  2.769116e+01    8.290489e-01
  2.770703e+01    8.341749e-01
  2.772291e+01    8.252105e-01
  2.773878e+01    8.361878e-01
  2.775466e+01    8.228500e-01
  2.777054e+01    8.136369e-01
  2.778641e+01    8.245668e-01
  2.780229e+01    8.098204e-01
  2.781816e+01    8.243960e-01
  2.783404e+01    8.055006e-01
  2.784991e+01    7.928727e-01
  2.786579e+01    7.991470e-01
  2.788166e+01    8.104937e-01
  2.789754e+01    7.939656e-01
  2.791342e+01    7.688662e-01
  2.792929e+01    7.908446e-01
  2.794517e+01    8.100362e-01
  2.796104e+01    8.071262e-01
  2.797692e+01    8.121372e-01
  2.799279e+01    8.077810e-01
  2.800867e+01    7.980654e-01
  2.802454e+01    7.774864e-01
  2.804042e+01    7.783577e-01
  2.805630e+01    7.953538e-01
  2.807217e+01    8.015751e-01
  2.808805e+01    7.823529e-01
  2.810392e+01    7.803510e-01
  2.811980e+01    7.853996e-01
  2.813567e+01    7.752142e-01
  2.815155e+01    7.822930e-01
  2.816742e+01    7.714198e-01
  2.818330e+01    7.772179e-01
  2.819918e+01    7.789493e-01
  2.821505e+01    7.723913e-01
  2.823093e+01    7.826903e-01
  2.824680e+01    7.793998e-01
  2.826268e+01    7.760224e-01
  2.827855e+01    7.682434e-01
  2.829443e+01    7.514898e-01
  2.831030e+01    7.813491e-01
  2.832618e+01    7.847499e-01
  2.834206e+01    7.651010e-01
  2.835793e+01    7.718825e-01
  2.837381e+01    7.633153e-01
  2.838968e+01    7.548052e-01
  2.840556e+01    7.715483e-01
  2.842143e+01    7.859623e-01
  2.843731e+01    7.773485e-01
  2.845318e+01    7.711872e-01
  2.846906e+01    7.829660e-01
  2.848494e+01    7.608044e-01
  2.850081e+01    7.666392e-01
  2.851669e+01    7.602833e-01
  2.853256e+01    7.630820e-01
  2.854844e+01    7.445220e-01
  2.856431e+01    7.556356e-01
  2.858019e+01    7.562185e-01
  2.859606e+01    7.510319e-01
  2.861194e+01    7.474486e-01
  2.862782e+01    7.432960e-01
  2.864369e+01    7.479312e-01
  2.865957e+01    7.438890e-01
  2.867544e+01    7.584677e-01
  2.869132e+01    7.711468e-01
  2.870719e+01    7.677988e-01
  2.872307e+01    7.630002e-01
  2.873895e+01    7.497831e-01
  2.875482e+01    7.287552e-01
  2.877070e+01    7.391616e-01
  2.878657e+01    7.344469e-01
  2.880245e+01    7.107158e-01
  2.881832e+01    7.398463e-01
  2.883420e+01    7.390574e-01
  2.885007e+01    7.612982e-01
  2.886595e+01    7.797005e-01
  2.888183e+01    7.587075e-01
  2.889770e+01    7.336560e-01
  2.891358e+01    7.419195e-01
  2.892945e+01    7.379263e-01
  2.894533e+01    7.310923e-01
  2.896120e+01    7.375551e-01
  2.897708e+01    7.546307e-01
  2.899295e+01    7.519180e-01
  2.900883e+01    7.510676e-01
  2.902471e+01    7.619004e-01
  2.904058e+01    7.522810e-01
  2.905646e+01    7.327852e-01
  2.907233e+01    7.352048e-01
  2.908821e+01    7.278381e-01
  2.910408e+01    7.390203e-01
  2.911996e+01    7.498919e-01
  2.913583e+01    7.338474e-01
  2.915171e+01    7.199373e-01
  2.916759e+01    7.369946e-01
  2.918346e+01    7.358446e-01
  2.919934e+01    7.287488e-01
  2.921521e+01    7.316017e-01
  2.923109e+01    7.111492e-01
  2.924696e+01    7.368256e-01
  2.926284e+01    7.438992e-01
  2.927871e+01    7.413731e-01
  2.929459e+01    7.346971e-01
  2.931047e+01    7.197002e-01
  2.932634e+01    7.278154e-01
  2.934222e+01    7.194996e-01
  2.935809e+01    7.224651e-01
  2.937397e+01    7.364374e-01
  2.938984e+01    7.219688e-01
  2.940572e+01    7.269019e-01
  2.942159e+01    7.223866e-01
  2.943747e+01    7.315215e-01
  2.945335e+01    7.264983e-01
  2.946922e+01    7.480872e-01
  2.948510e+01    7.307480e-01
  2.950097e+01    7.187836e-01
  2.951685e+01    7.243760e-01
  2.953272e+01    7.303457e-01
  2.954860e+01    7.206209e-01
  2.956447e+01    7.167320e-01
  2.958035e+01    7.278894e-01
  2.959623e+01    7.377678e-01
  2.961210e+01    7.286271e-01
  2.962798e+01    7.313534e-01
  2.964385e+01    7.245209e-01
  2.965973e+01    7.258071e-01
  2.967560e+01    7.221997e-01
  2.969148e+01    7.159819e-01
  2.970736e+01    6.996997e-01
  2.972323e+01    7.131101e-01
  2.973911e+01    7.170276e-01
  2.975498e+01    7.301906e-01
  2.977086e+01    7.259380e-01
  2.978673e+01    7.007796e-01
  2.980261e+01    6.936808e-01
  2.981848e+01    7.157662e-01
  2.983436e+01    7.215849e-01
  2.985024e+01    7.368630e-01
  2.986611e+01    7.210709e-01
  2.988199e+01    7.311651e-01
  2.989786e+01    7.279739e-01
  2.991374e+01    7.229570e-01
  2.992961e+01    7.241086e-01
  2.994549e+01    7.326168e-01
  2.996136e+01    7.371605e-01
  2.997724e+01    7.276862e-01
  2.999312e+01    7.064471e-01
  3.000899e+01    7.165616e-01
  3.002487e+01    7.256191e-01
  3.004074e+01    7.370159e-01
  3.005662e+01    7.305751e-01
  3.007249e+01    7.255374e-01
  3.008837e+01    7.395257e-01
  3.010424e+01    7.394898e-01
  3.012012e+01    7.257941e-01
  3.013600e+01    7.252840e-01
  3.015187e+01    7.228536e-01
  3.016775e+01    7.302805e-01
  3.018362e+01    7.281278e-01
  3.019950e+01    7.339031e-01
  3.021537e+01    7.293385e-01
  3.023125e+01    7.071359e-01
  3.024712e+01    7.107673e-01
  3.026300e+01    7.162649e-01
  3.027888e+01    7.000583e-01
  3.029475e+01    6.999155e-01
  3.031063e+01    7.329046e-01
  3.032650e+01    7.081642e-01
  3.034238e+01    7.152064e-01
  3.035825e+01    7.033329e-01
  3.037413e+01    7.188160e-01
  3.039000e+01    7.292519e-01
  3.040588e+01    6.987445e-01
  3.042176e+01    6.933959e-01
  3.043763e+01    6.940375e-01
  3.045351e+01    7.225862e-01
  3.046938e+01    7.255086e-01
  3.048526e+01    6.948492e-01
  3.050113e+01    7.160248e-01
  3.051701e+01    7.359998e-01
  3.053288e+01    7.133502e-01
  3.054876e+01    7.197053e-01
  3.056464e+01    7.059125e-01
  3.058051e+01    7.174206e-01
  3.059639e+01    7.190449e-01
  3.061226e+01    7.115217e-01
  3.062814e+01    7.376085e-01
  3.064401e+01    7.107467e-01
  3.065989e+01    7.068536e-01
  3.067577e+01    6.930146e-01
  3.069164e+01    7.033324e-01
  3.070752e+01    7.093417e-01
  3.072339e+01    7.065397e-01
  3.073927e+01    6.809089e-01
  3.075514e+01    6.993908e-01
  3.077102e+01    6.962135e-01
  3.078689e+01    6.900539e-01
  3.080277e+01    7.248140e-01
  3.081865e+01    7.274613e-01
  3.083452e+01    7.194536e-01
  3.085040e+01    7.141578e-01
  3.086627e+01    7.333663e-01
  3.088215e+01    7.326995e-01
  3.089802e+01    7.260088e-01
  3.091390e+01    7.131712e-01
  3.092977e+01    7.100545e-01
  3.094565e+01    7.135279e-01
  3.096153e+01    7.297981e-01
  3.097740e+01    7.170683e-01
  3.099328e+01    7.232703e-01
  3.100915e+01    7.244774e-01
  3.102503e+01    7.120005e-01
  3.104090e+01    7.355661e-01
  3.105678e+01    7.318301e-01
  3.107265e+01    7.086787e-01
  3.108853e+01    7.088881e-01
  3.110441e+01    7.301406e-01
  3.112028e+01    7.139068e-01
  3.113616e+01    7.321007e-01
  3.115203e+01    7.448199e-01
  3.116791e+01    7.378742e-01
  3.118378e+01    7.370801e-01
  3.119966e+01    7.407776e-01
  3.121553e+01    7.416938e-01
  3.123141e+01    7.484305e-01
  3.124729e+01    7.379895e-01
  3.126316e+01    7.525570e-01
  3.127904e+01    7.469733e-01
  3.129491e+01    7.407945e-01
  3.131079e+01    7.334941e-01
  3.132666e+01    7.388260e-01
  3.134254e+01    7.465174e-01
  3.135841e+01    7.542448e-01
  3.137429e+01    7.496561e-01
  3.139017e+01    7.390626e-01
  3.140604e+01    7.342944e-01
  3.142192e+01    7.322566e-01
  3.143779e+01    7.477778e-01
  3.145367e+01    7.533354e-01
  3.146954e+01    7.539746e-01
  3.148542e+01    7.588335e-01
  3.150129e+01    7.610627e-01
  3.151717e+01    7.753806e-01
  3.153305e+01    7.727713e-01
  3.154892e+01    7.893940e-01
  3.156480e+01    7.785988e-01
  3.158067e+01    7.832278e-01
  3.159655e+01    8.126215e-01
  3.161242e+01    8.116807e-01
  3.162830e+01    8.321517e-01
  3.164418e+01    8.528982e-01
  3.166005e+01    8.677057e-01
  3.167593e+01    8.865591e-01
  3.169180e+01    9.012506e-01
  3.170768e+01    9.131604e-01
  3.172355e+01    9.584301e-01
  3.173943e+01    9.997336e-01
  3.175530e+01    1.057187e+00
  3.177118e+01    1.106275e+00
  3.178706e+01    1.177348e+00
  3.180293e+01    1.256986e+00
  3.181881e+01    1.408192e+00
  3.183468e+01    1.546434e+00
  3.185056e+01    1.649969e+00
  3.186643e+01    1.808247e+00
  3.188231e+01    1.959333e+00
  3.189818e+01    2.115006e+00
  3.191406e+01    2.304493e+00
  3.192994e+01    2.376385e+00
  3.194581e+01    2.425049e+00
  3.196169e+01    2.375078e+00
  3.197756e+01    2.252714e+00
  3.199344e+01    2.096106e+00
  3.200931e+01    1.901664e+00
  3.202519e+01    1.673849e+00
  3.204106e+01    1.543035e+00
  3.205694e+01    1.398496e+00
  3.207282e+01    1.299489e+00
  3.208869e+01    1.186662e+00
  3.210457e+01    1.085789e+00
  3.212044e+01    1.061246e+00
  3.213632e+01    9.893069e-01
  3.215219e+01    9.620402e-01
  3.216807e+01    9.035093e-01
  3.218394e+01    8.543877e-01
  3.219982e+01    8.714566e-01
  3.221570e+01    8.488370e-01
  3.223157e+01    8.223544e-01
  3.224745e+01    8.223704e-01
  3.226332e+01    7.949200e-01
  3.227920e+01    7.974482e-01
  3.229507e+01    7.754949e-01
  3.231095e+01    7.883182e-01
  3.232682e+01    7.808360e-01
  3.234270e+01    7.618185e-01
  3.235858e+01    7.806824e-01
  3.237445e+01    7.625536e-01
  3.239033e+01    7.522105e-01
  3.240620e+01    7.421787e-01
  3.242208e+01    7.461883e-01
  3.243795e+01    7.601886e-01
  3.245383e+01    7.318032e-01
  3.246970e+01    7.650379e-01
  3.248558e+01    7.471560e-01
  3.250146e+01    7.247548e-01
  3.251733e+01    7.273158e-01
  3.253321e+01    7.189396e-01
  3.254908e+01    6.996411e-01
