# == pyFAI calibration ==
# Distance Sample to Detector: 0.3999999939076516 m
# PONI: 9.750e-02, 1.135e-01 m
# Rotations: -0.000175 0.000000 -0.000000 rad
# 
# == Fit2d calibration ==
# Distance Sample-beamCenter: 400.000 mm
# Center: x=1514.000, y=1300.000 pix
# Tilt: 0.010 deg  TiltPlanRot: 0.010 deg
# 
# Detector Detector	 Spline= None	 PixelSize= 7.500e-05, 7.500e-05 m
#    Detector has a mask: False 
#    Detector has a dark current: False 
#    detector has a flat field: False 
# 
# Wavelength: 6.888e-11 m
# Mask applied: user provided
# Dark current applied: False
# Flat field applied: False
# Polarization factor: 0.99
# Normalization factor: 1.0
# --> /home/myspot/data/2024_07_Rosario/Ru-CGO-ex/2024-07-27_002_Ru-CGO-ex_Activtation_ramp_000002_data_000177.dat
#       q_nm^-1             I 
  2.003187e-02    2.227120e-02
  3.590745e-02    1.977601e-01
  5.178302e-02    3.063896e-01
  6.765859e-02    3.174133e-01
  8.353417e-02    1.108470e-01
  9.940974e-02    4.168975e-02
  1.152853e-01    2.271410e-02
  1.311609e-01    6.770309e-02
  1.470365e-01    1.613366e-02
  1.629120e-01    9.177532e-02
  1.787876e-01    8.283167e-02
  1.946632e-01    4.896304e-02
  2.105388e-01    4.319880e-02
  2.264143e-01    4.031154e-02
  2.422899e-01    2.442939e-02
  2.581655e-01    4.355871e-02
  2.740411e-01    6.204928e-02
  2.899166e-01    6.544799e-02
  3.057922e-01    6.684844e-02
  3.216678e-01    5.871522e-02
  3.375433e-01    1.271215e-02
  3.534189e-01    3.834445e-02
  3.692945e-01    3.773604e-02
  3.851701e-01    1.829332e-02
  4.010456e-01    2.199435e-02
  4.169212e-01    4.677781e-02
  4.327968e-01    6.388393e-02
  4.486724e-01    5.248721e-02
  4.645479e-01    4.927416e-02
  4.804235e-01    1.151271e-02
  4.962991e-01    9.564233e-03
  5.121747e-01    4.164698e-02
  5.280502e-01    5.511636e-02
  5.439258e-01    4.681103e-02
  5.598014e-01    6.268123e-02
  5.756770e-01    4.828316e-02
  5.915525e-01    3.268741e-02
  6.074281e-01    3.607433e-02
  6.233037e-01    3.922557e-02
  6.391793e-01    4.179792e-02
  6.550548e-01    3.183285e-02
  6.709304e-01    4.387351e-02
  6.868060e-01    4.140076e-02
  7.026815e-01    4.856722e-02
  7.185571e-01    4.969256e-02
  7.344327e-01    4.086912e-02
  7.503083e-01    2.083166e-02
  7.661838e-01    3.538124e-02
  7.820594e-01    7.454681e-02
  7.979350e-01    1.487354e-01
  8.138106e-01    1.862144e-01
  8.296861e-01    2.634266e-01
  8.455617e-01    2.947363e-01
  8.614373e-01    3.375985e-01
  8.773129e-01    4.792271e-01
  8.931884e-01    5.382087e-01
  9.090640e-01    6.271814e-01
  9.249396e-01    6.534100e-01
  9.408152e-01    7.710707e-01
  9.566907e-01    8.162479e-01
  9.725663e-01    8.960155e-01
  9.884419e-01    9.700940e-01
  1.004317e+00    1.010669e+00
  1.020193e+00    1.065337e+00
  1.036069e+00    1.100622e+00
  1.051944e+00    1.248000e+00
  1.067820e+00    1.272403e+00
  1.083695e+00    1.324587e+00
  1.099571e+00    1.403465e+00
  1.115446e+00    1.329998e+00
  1.131322e+00    1.406898e+00
  1.147198e+00    1.554710e+00
  1.163073e+00    1.457013e+00
  1.178949e+00    1.457933e+00
  1.194824e+00    1.689198e+00
  1.210700e+00    1.883972e+00
  1.226575e+00    2.035729e+00
  1.242451e+00    2.040408e+00
  1.258327e+00    2.185118e+00
  1.274202e+00    2.316279e+00
  1.290078e+00    2.277281e+00
  1.305953e+00    2.407551e+00
  1.321829e+00    2.408893e+00
  1.337705e+00    2.381609e+00
  1.353580e+00    2.543028e+00
  1.369456e+00    2.607439e+00
  1.385331e+00    2.467178e+00
  1.401207e+00    2.468132e+00
  1.417082e+00    2.548308e+00
  1.432958e+00    2.687263e+00
  1.448834e+00    2.677229e+00
  1.464709e+00    2.624380e+00
  1.480585e+00    2.641129e+00
  1.496460e+00    2.719623e+00
  1.512336e+00    2.860235e+00
  1.528211e+00    2.977165e+00
  1.544087e+00    2.875908e+00
  1.559963e+00    2.867733e+00
  1.575838e+00    2.804594e+00
  1.591714e+00    2.838143e+00
  1.607589e+00    2.795683e+00
  1.623465e+00    2.788518e+00
  1.639340e+00    2.758030e+00
  1.655216e+00    2.692465e+00
  1.671092e+00    2.672130e+00
  1.686967e+00    2.753942e+00
  1.702843e+00    2.762266e+00
  1.718718e+00    2.666795e+00
  1.734594e+00    2.803070e+00
  1.750469e+00    2.859072e+00
  1.766345e+00    2.748100e+00
  1.782221e+00    2.706100e+00
  1.798096e+00    2.730915e+00
  1.813972e+00    2.800891e+00
  1.829847e+00    2.666359e+00
  1.845723e+00    2.677633e+00
  1.861598e+00    2.705695e+00
  1.877474e+00    2.714140e+00
  1.893350e+00    2.615995e+00
  1.909225e+00    2.615813e+00
  1.925101e+00    2.649048e+00
  1.940976e+00    2.673120e+00
  1.956852e+00    2.640739e+00
  1.972727e+00    2.537473e+00
  1.988603e+00    2.671182e+00
  2.004479e+00    2.743415e+00
  2.020354e+00    2.709173e+00
  2.036230e+00    2.734981e+00
  2.052105e+00    2.677539e+00
  2.067981e+00    2.653625e+00
  2.083856e+00    2.776064e+00
  2.099732e+00    2.832023e+00
  2.115608e+00    2.850800e+00
  2.131483e+00    2.872749e+00
  2.147359e+00    2.742069e+00
  2.163234e+00    2.713990e+00
  2.179110e+00    2.670756e+00
  2.194985e+00    2.772336e+00
  2.210861e+00    2.832544e+00
  2.226737e+00    2.697384e+00
  2.242612e+00    2.766021e+00
  2.258488e+00    2.647039e+00
  2.274363e+00    2.596978e+00
  2.290239e+00    2.719352e+00
  2.306115e+00    2.706078e+00
  2.321990e+00    2.679170e+00
  2.337866e+00    2.708091e+00
  2.353741e+00    2.689563e+00
  2.369617e+00    2.747030e+00
  2.385492e+00    2.748176e+00
  2.401368e+00    2.739962e+00
  2.417244e+00    2.800435e+00
  2.433119e+00    2.815577e+00
  2.448995e+00    2.709438e+00
  2.464870e+00    2.719935e+00
  2.480746e+00    2.690618e+00
  2.496621e+00    2.687795e+00
  2.512497e+00    2.847623e+00
  2.528373e+00    2.873890e+00
  2.544248e+00    2.754116e+00
  2.560124e+00    2.724862e+00
  2.575999e+00    2.759793e+00
  2.591875e+00    2.820537e+00
  2.607750e+00    2.851354e+00
  2.623626e+00    2.832229e+00
  2.639502e+00    2.819491e+00
  2.655377e+00    2.885679e+00
  2.671253e+00    2.833674e+00
  2.687128e+00    2.783242e+00
  2.703004e+00    2.824892e+00
  2.718879e+00    2.860650e+00
  2.734755e+00    2.771297e+00
  2.750631e+00    2.841719e+00
  2.766506e+00    2.832034e+00
  2.782382e+00    2.701107e+00
  2.798257e+00    2.780412e+00
  2.814133e+00    2.834722e+00
  2.830008e+00    2.883139e+00
  2.845884e+00    2.787722e+00
  2.861760e+00    2.860259e+00
  2.877635e+00    2.922544e+00
  2.893511e+00    2.885381e+00
  2.909386e+00    2.910923e+00
  2.925262e+00    2.866135e+00
  2.941137e+00    2.882419e+00
  2.957013e+00    2.931975e+00
  2.972889e+00    2.967161e+00
  2.988764e+00    3.002102e+00
  3.004640e+00    2.948858e+00
  3.020515e+00    2.909867e+00
  3.036391e+00    2.796557e+00
  3.052266e+00    2.811855e+00
  3.068142e+00    2.833831e+00
  3.084018e+00    2.833126e+00
  3.099893e+00    2.752736e+00
  3.115769e+00    2.800366e+00
  3.131644e+00    2.848856e+00
  3.147520e+00    2.831622e+00
  3.163395e+00    2.841792e+00
  3.179271e+00    2.926988e+00
  3.195147e+00    2.875350e+00
  3.211022e+00    2.886996e+00
  3.226898e+00    2.994519e+00
  3.242773e+00    3.019703e+00
  3.258649e+00    3.042091e+00
  3.274525e+00    2.964189e+00
  3.290400e+00    2.909091e+00
  3.306276e+00    2.894911e+00
  3.322151e+00    2.959177e+00
  3.338027e+00    2.982142e+00
  3.353902e+00    2.957436e+00
  3.369778e+00    2.899771e+00
  3.385654e+00    2.910704e+00
  3.401529e+00    2.956528e+00
  3.417405e+00    2.971891e+00
  3.433280e+00    2.963549e+00
  3.449156e+00    2.930011e+00
  3.465031e+00    2.992198e+00
  3.480907e+00    3.011861e+00
  3.496783e+00    2.993417e+00
  3.512658e+00    2.985492e+00
  3.528534e+00    2.965185e+00
  3.544409e+00    2.982790e+00
  3.560285e+00    3.029353e+00
  3.576160e+00    2.993080e+00
  3.592036e+00    2.918190e+00
  3.607912e+00    3.025097e+00
  3.623787e+00    2.999979e+00
  3.639663e+00    2.989199e+00
  3.655538e+00    3.061224e+00
  3.671414e+00    2.965740e+00
  3.687289e+00    2.947210e+00
  3.703165e+00    2.922012e+00
  3.719041e+00    3.001677e+00
  3.734916e+00    2.982614e+00
  3.750792e+00    2.962827e+00
  3.766667e+00    2.955281e+00
  3.782543e+00    3.004236e+00
  3.798418e+00    3.086370e+00
  3.814294e+00    3.052953e+00
  3.830170e+00    3.057852e+00
  3.846045e+00    3.058033e+00
  3.861921e+00    3.040905e+00
  3.877796e+00    3.044201e+00
  3.893672e+00    2.996133e+00
  3.909547e+00    2.989954e+00
  3.925423e+00    3.039955e+00
  3.941299e+00    2.992502e+00
  3.957174e+00    3.025283e+00
  3.973050e+00    2.999667e+00
  3.988925e+00    3.005800e+00
  4.004801e+00    3.042112e+00
  4.020676e+00    3.028701e+00
  4.036552e+00    3.041876e+00
  4.052428e+00    3.063186e+00
  4.068303e+00    3.088072e+00
  4.084179e+00    3.116056e+00
  4.100054e+00    3.000895e+00
  4.115930e+00    3.003129e+00
  4.131806e+00    2.975889e+00
  4.147681e+00    3.086403e+00
  4.163557e+00    3.001844e+00
  4.179432e+00    2.988288e+00
  4.195308e+00    3.009045e+00
  4.211183e+00    3.007543e+00
  4.227059e+00    3.037380e+00
  4.242935e+00    3.037966e+00
  4.258810e+00    3.009905e+00
  4.274686e+00    3.099637e+00
  4.290561e+00    3.101066e+00
  4.306437e+00    3.023851e+00
  4.322312e+00    3.068903e+00
  4.338188e+00    3.088325e+00
  4.354064e+00    3.013802e+00
  4.369939e+00    3.022643e+00
  4.385815e+00    3.079100e+00
  4.401690e+00    3.157831e+00
  4.417566e+00    3.009567e+00
  4.433441e+00    3.004428e+00
  4.449317e+00    2.987867e+00
  4.465193e+00    3.017689e+00
  4.481068e+00    3.140039e+00
  4.496944e+00    3.199623e+00
  4.512819e+00    3.108076e+00
  4.528695e+00    3.099497e+00
  4.544570e+00    3.105896e+00
  4.560446e+00    3.037236e+00
  4.576322e+00    3.053046e+00
  4.592197e+00    3.119831e+00
  4.608073e+00    3.189970e+00
  4.623948e+00    3.049944e+00
  4.639824e+00    3.109436e+00
  4.655699e+00    3.194221e+00
  4.671575e+00    3.093831e+00
  4.687451e+00    3.101448e+00
  4.703326e+00    3.157281e+00
  4.719202e+00    3.213472e+00
  4.735077e+00    3.355770e+00
  4.750953e+00    3.319530e+00
  4.766828e+00    3.170176e+00
  4.782704e+00    3.099306e+00
  4.798580e+00    3.096040e+00
  4.814455e+00    3.055257e+00
  4.830331e+00    3.090552e+00
  4.846206e+00    3.131473e+00
  4.862082e+00    3.170089e+00
  4.877957e+00    3.236405e+00
  4.893833e+00    3.203455e+00
  4.909709e+00    3.158362e+00
  4.925584e+00    3.137312e+00
  4.941460e+00    3.158614e+00
  4.957335e+00    3.130269e+00
  4.973211e+00    3.221438e+00
  4.989086e+00    3.160852e+00
  5.004962e+00    3.175696e+00
  5.020838e+00    3.198502e+00
  5.036713e+00    3.162938e+00
  5.052589e+00    3.145872e+00
  5.068464e+00    3.167387e+00
  5.084340e+00    3.161774e+00
  5.100216e+00    3.071148e+00
  5.116091e+00    3.170361e+00
  5.131967e+00    3.126222e+00
  5.147842e+00    3.143800e+00
  5.163718e+00    3.128805e+00
  5.179593e+00    3.159567e+00
  5.195469e+00    3.129351e+00
  5.211345e+00    3.055448e+00
  5.227220e+00    3.085571e+00
  5.243096e+00    3.103275e+00
  5.258971e+00    3.085654e+00
  5.274847e+00    3.070452e+00
  5.290722e+00    3.081569e+00
  5.306598e+00    3.105861e+00
  5.322474e+00    3.121957e+00
  5.338349e+00    3.230525e+00
  5.354225e+00    3.196119e+00
  5.370100e+00    3.212095e+00
  5.385976e+00    3.126157e+00
  5.401851e+00    3.128568e+00
  5.417727e+00    3.162045e+00
  5.433603e+00    3.108409e+00
  5.449478e+00    3.100938e+00
  5.465354e+00    3.098143e+00
  5.481229e+00    3.068115e+00
  5.497105e+00    3.027506e+00
  5.512980e+00    3.127686e+00
  5.528856e+00    3.100511e+00
  5.544732e+00    3.101579e+00
  5.560607e+00    3.110148e+00
  5.576483e+00    3.051716e+00
  5.592358e+00    3.057878e+00
  5.608234e+00    3.049924e+00
  5.624109e+00    3.044858e+00
  5.639985e+00    3.049639e+00
  5.655861e+00    3.048864e+00
  5.671736e+00    3.043391e+00
  5.687612e+00    3.045795e+00
  5.703487e+00    3.085257e+00
  5.719363e+00    3.064731e+00
  5.735238e+00    3.085690e+00
  5.751114e+00    3.097283e+00
  5.766990e+00    3.058355e+00
  5.782865e+00    3.053722e+00
  5.798741e+00    3.001778e+00
  5.814616e+00    3.060299e+00
  5.830492e+00    3.156035e+00
  5.846367e+00    3.124424e+00
  5.862243e+00    3.043062e+00
  5.878119e+00    3.061564e+00
  5.893994e+00    3.112275e+00
  5.909870e+00    3.105635e+00
  5.925745e+00    3.168418e+00
  5.941621e+00    3.104899e+00
  5.957497e+00    3.135121e+00
  5.973372e+00    3.075642e+00
  5.989248e+00    2.990155e+00
  6.005123e+00    3.001223e+00
  6.020999e+00    3.025876e+00
  6.036874e+00    2.956403e+00
  6.052750e+00    3.012673e+00
  6.068626e+00    3.102398e+00
  6.084501e+00    3.074102e+00
  6.100377e+00    3.083773e+00
  6.116252e+00    3.069979e+00
  6.132128e+00    3.070952e+00
  6.148003e+00    3.036676e+00
  6.163879e+00    3.066131e+00
  6.179755e+00    3.101467e+00
  6.195630e+00    3.130201e+00
  6.211506e+00    3.036806e+00
  6.227381e+00    2.979669e+00
  6.243257e+00    3.035786e+00
  6.259132e+00    3.125599e+00
  6.275008e+00    3.063427e+00
  6.290884e+00    3.152985e+00
  6.306759e+00    3.147635e+00
  6.322635e+00    3.076140e+00
  6.338510e+00    3.030427e+00
  6.354386e+00    2.984243e+00
  6.370261e+00    3.019276e+00
  6.386137e+00    2.993212e+00
  6.402013e+00    2.973240e+00
  6.417888e+00    3.040384e+00
  6.433764e+00    3.123452e+00
  6.449639e+00    3.112571e+00
  6.465515e+00    3.059490e+00
  6.481390e+00    3.038721e+00
  6.497266e+00    3.078227e+00
  6.513142e+00    3.133533e+00
  6.529017e+00    3.033601e+00
  6.544893e+00    3.053799e+00
  6.560768e+00    3.089922e+00
  6.576644e+00    3.056958e+00
  6.592519e+00    3.043488e+00
  6.608395e+00    3.025463e+00
  6.624271e+00    3.038726e+00
  6.640146e+00    3.060805e+00
  6.656022e+00    3.031923e+00
  6.671897e+00    3.059954e+00
  6.687773e+00    3.058484e+00
  6.703648e+00    3.093898e+00
  6.719524e+00    3.051684e+00
  6.735400e+00    3.039642e+00
  6.751275e+00    3.038499e+00
  6.767151e+00    3.011020e+00
  6.783026e+00    3.072235e+00
  6.798902e+00    3.087310e+00
  6.814777e+00    3.083954e+00
  6.830653e+00    3.055197e+00
  6.846529e+00    3.038134e+00
  6.862404e+00    3.034537e+00
  6.878280e+00    3.032311e+00
  6.894155e+00    3.039988e+00
  6.910031e+00    3.028448e+00
  6.925907e+00    3.049930e+00
  6.941782e+00    3.013651e+00
  6.957658e+00    2.981796e+00
  6.973533e+00    2.970300e+00
  6.989409e+00    3.054736e+00
  7.005284e+00    3.067548e+00
  7.021160e+00    3.026258e+00
  7.037036e+00    3.030313e+00
  7.052911e+00    2.977438e+00
  7.068787e+00    2.955447e+00
  7.084662e+00    3.024587e+00
  7.100538e+00    3.057062e+00
  7.116413e+00    2.998795e+00
  7.132289e+00    3.033780e+00
  7.148165e+00    3.126398e+00
  7.164040e+00    3.045215e+00
  7.179916e+00    3.056443e+00
  7.195791e+00    2.994055e+00
  7.211667e+00    3.023379e+00
  7.227542e+00    3.025554e+00
  7.243418e+00    2.930189e+00
  7.259294e+00    2.945993e+00
  7.275169e+00    2.959992e+00
  7.291045e+00    2.965237e+00
  7.306920e+00    2.998146e+00
  7.322796e+00    3.041770e+00
  7.338671e+00    2.963055e+00
  7.354547e+00    2.906350e+00
  7.370423e+00    3.038415e+00
  7.386298e+00    3.078909e+00
  7.402174e+00    3.080281e+00
  7.418049e+00    2.998574e+00
  7.433925e+00    3.051953e+00
  7.449800e+00    3.008492e+00
  7.465676e+00    3.000359e+00
  7.481552e+00    3.006910e+00
  7.497427e+00    3.029665e+00
  7.513303e+00    3.087407e+00
  7.529178e+00    3.147357e+00
  7.545054e+00    3.086751e+00
  7.560929e+00    2.998656e+00
  7.576805e+00    2.971788e+00
  7.592681e+00    2.997278e+00
  7.608556e+00    3.036083e+00
  7.624432e+00    2.980454e+00
  7.640307e+00    3.003028e+00
  7.656183e+00    3.092435e+00
  7.672058e+00    2.974701e+00
  7.687934e+00    2.963295e+00
  7.703810e+00    2.970442e+00
  7.719685e+00    3.027609e+00
  7.735561e+00    2.988714e+00
  7.751436e+00    3.003995e+00
  7.767312e+00    2.904760e+00
  7.783187e+00    2.966413e+00
  7.799063e+00    2.968509e+00
  7.814939e+00    2.980209e+00
  7.830814e+00    2.954150e+00
  7.846690e+00    2.969839e+00
  7.862565e+00    2.949693e+00
  7.878441e+00    2.924215e+00
  7.894317e+00    2.975302e+00
  7.910192e+00    2.936674e+00
  7.926068e+00    2.986923e+00
  7.941943e+00    2.954525e+00
  7.957819e+00    2.908494e+00
  7.973694e+00    2.925290e+00
  7.989570e+00    2.944071e+00
  8.005446e+00    2.920286e+00
  8.021321e+00    2.939115e+00
  8.037197e+00    2.910274e+00
  8.053072e+00    2.964906e+00
  8.068948e+00    3.035066e+00
  8.084823e+00    2.958179e+00
  8.100699e+00    2.925028e+00
  8.116575e+00    2.952518e+00
  8.132450e+00    2.954934e+00
  8.148326e+00    2.977606e+00
  8.164201e+00    2.999270e+00
  8.180077e+00    2.981402e+00
  8.195952e+00    3.033477e+00
  8.211828e+00    2.985564e+00
  8.227704e+00    2.946569e+00
  8.243579e+00    2.939080e+00
  8.259455e+00    2.897473e+00
  8.275330e+00    2.896966e+00
  8.291206e+00    2.978938e+00
  8.307081e+00    2.959486e+00
  8.322957e+00    2.959961e+00
  8.338833e+00    2.960950e+00
  8.354708e+00    2.932041e+00
  8.370584e+00    2.911352e+00
  8.386459e+00    2.899533e+00
  8.402335e+00    2.888893e+00
  8.418210e+00    2.905864e+00
  8.434086e+00    2.882683e+00
  8.449962e+00    2.881069e+00
  8.465837e+00    2.881767e+00
  8.481713e+00    2.882591e+00
  8.497588e+00    2.939587e+00
  8.513464e+00    2.971374e+00
  8.529339e+00    2.885622e+00
  8.545215e+00    2.894796e+00
  8.561091e+00    2.946609e+00
  8.576966e+00    2.918940e+00
  8.592842e+00    2.882629e+00
  8.608717e+00    2.903181e+00
  8.624593e+00    2.896106e+00
  8.640468e+00    2.925885e+00
  8.656344e+00    2.890746e+00
  8.672220e+00    2.862978e+00
  8.688095e+00    2.896934e+00
  8.703971e+00    2.871725e+00
  8.719846e+00    2.880798e+00
  8.735722e+00    2.881886e+00
  8.751598e+00    2.904524e+00
  8.767473e+00    2.844580e+00
  8.783349e+00    2.875730e+00
  8.799224e+00    2.846461e+00
  8.815100e+00    2.877851e+00
  8.830975e+00    2.892017e+00
  8.846851e+00    2.881766e+00
  8.862727e+00    2.787808e+00
  8.878602e+00    2.851047e+00
  8.894478e+00    2.864692e+00
  8.910353e+00    2.797914e+00
  8.926229e+00    2.820968e+00
  8.942104e+00    2.913868e+00
  8.957980e+00    2.881166e+00
  8.973856e+00    2.853710e+00
  8.989731e+00    2.834363e+00
  9.005607e+00    2.886676e+00
  9.021482e+00    2.885816e+00
  9.037358e+00    2.874182e+00
  9.053233e+00    2.841575e+00
  9.069109e+00    2.767154e+00
  9.084985e+00    2.771933e+00
  9.100860e+00    2.865673e+00
  9.116736e+00    2.836802e+00
  9.132611e+00    2.821350e+00
  9.148487e+00    2.829753e+00
  9.164362e+00    2.802076e+00
  9.180238e+00    2.857617e+00
  9.196114e+00    2.858178e+00
  9.211989e+00    2.810242e+00
  9.227865e+00    2.755376e+00
  9.243740e+00    2.756824e+00
  9.259616e+00    2.820131e+00
  9.275491e+00    2.771752e+00
  9.291367e+00    2.797392e+00
  9.307243e+00    2.798782e+00
  9.323118e+00    2.736033e+00
  9.338994e+00    2.753048e+00
  9.354869e+00    2.704137e+00
  9.370745e+00    2.754566e+00
  9.386620e+00    2.806591e+00
  9.402496e+00    2.795765e+00
  9.418372e+00    2.796845e+00
  9.434247e+00    2.769928e+00
  9.450123e+00    2.835690e+00
  9.465998e+00    2.772135e+00
  9.481874e+00    2.765038e+00
  9.497749e+00    2.785363e+00
  9.513625e+00    2.759291e+00
  9.529501e+00    2.740504e+00
  9.545376e+00    2.796699e+00
  9.561252e+00    2.810551e+00
  9.577127e+00    2.785767e+00
  9.593003e+00    2.796955e+00
  9.608878e+00    2.782459e+00
  9.624754e+00    2.806727e+00
  9.640630e+00    2.757757e+00
  9.656505e+00    2.739525e+00
  9.672381e+00    2.781438e+00
  9.688256e+00    2.741346e+00
  9.704132e+00    2.775957e+00
  9.720008e+00    2.815545e+00
  9.735883e+00    2.763208e+00
  9.751759e+00    2.677404e+00
  9.767634e+00    2.649914e+00
  9.783510e+00    2.675827e+00
  9.799385e+00    2.689029e+00
  9.815261e+00    2.696160e+00
  9.831137e+00    2.750960e+00
  9.847012e+00    2.743152e+00
  9.862888e+00    2.712329e+00
  9.878763e+00    2.730265e+00
  9.894639e+00    2.698271e+00
  9.910514e+00    2.698209e+00
  9.926390e+00    2.700781e+00
  9.942266e+00    2.678351e+00
  9.958141e+00    2.691240e+00
  9.974017e+00    2.726046e+00
  9.989892e+00    2.771915e+00
  1.000577e+01    2.728874e+00
  1.002164e+01    2.771280e+00
  1.003752e+01    2.744553e+00
  1.005339e+01    2.709889e+00
  1.006927e+01    2.678711e+00
  1.008515e+01    2.656131e+00
  1.010102e+01    2.644562e+00
  1.011690e+01    2.631100e+00
  1.013277e+01    2.634934e+00
  1.014865e+01    2.571944e+00
  1.016452e+01    2.610452e+00
  1.018040e+01    2.643872e+00
  1.019627e+01    2.678030e+00
  1.021215e+01    2.628879e+00
  1.022803e+01    2.625146e+00
  1.024390e+01    2.608208e+00
  1.025978e+01    2.643920e+00
  1.027565e+01    2.681301e+00
  1.029153e+01    2.633379e+00
  1.030740e+01    2.681063e+00
  1.032328e+01    2.673889e+00
  1.033915e+01    2.670778e+00
  1.035503e+01    2.719980e+00
  1.037091e+01    2.656580e+00
  1.038678e+01    2.655205e+00
  1.040266e+01    2.632098e+00
  1.041853e+01    2.622063e+00
  1.043441e+01    2.654959e+00
  1.045028e+01    2.641620e+00
  1.046616e+01    2.575586e+00
  1.048204e+01    2.632940e+00
  1.049791e+01    2.597311e+00
  1.051379e+01    2.580919e+00
  1.052966e+01    2.578277e+00
  1.054554e+01    2.530462e+00
  1.056141e+01    2.578844e+00
  1.057729e+01    2.653215e+00
  1.059316e+01    2.534926e+00
  1.060904e+01    2.576946e+00
  1.062492e+01    2.588420e+00
  1.064079e+01    2.588727e+00
  1.065667e+01    2.600348e+00
  1.067254e+01    2.602962e+00
  1.068842e+01    2.617778e+00
  1.070429e+01    2.627588e+00
  1.072017e+01    2.560229e+00
  1.073604e+01    2.545207e+00
  1.075192e+01    2.560707e+00
  1.076780e+01    2.566939e+00
  1.078367e+01    2.544759e+00
  1.079955e+01    2.540790e+00
  1.081542e+01    2.537660e+00
  1.083130e+01    2.545604e+00
  1.084717e+01    2.533588e+00
  1.086305e+01    2.547364e+00
  1.087892e+01    2.515412e+00
  1.089480e+01    2.509417e+00
  1.091068e+01    2.516924e+00
  1.092655e+01    2.520606e+00
  1.094243e+01    2.492286e+00
  1.095830e+01    2.487562e+00
  1.097418e+01    2.514393e+00
  1.099005e+01    2.504612e+00
  1.100593e+01    2.481810e+00
  1.102180e+01    2.446480e+00
  1.103768e+01    2.466489e+00
  1.105356e+01    2.451039e+00
  1.106943e+01    2.491824e+00
  1.108531e+01    2.531439e+00
  1.110118e+01    2.497358e+00
  1.111706e+01    2.470677e+00
  1.113293e+01    2.468990e+00
  1.114881e+01    2.456568e+00
  1.116468e+01    2.462482e+00
  1.118056e+01    2.520993e+00
  1.119644e+01    2.490012e+00
  1.121231e+01    2.450958e+00
  1.122819e+01    2.453861e+00
  1.124406e+01    2.420244e+00
  1.125994e+01    2.451990e+00
  1.127581e+01    2.413686e+00
  1.129169e+01    2.412781e+00
  1.130756e+01    2.436211e+00
  1.132344e+01    2.442658e+00
  1.133932e+01    2.455019e+00
  1.135519e+01    2.448371e+00
  1.137107e+01    2.428487e+00
  1.138694e+01    2.471217e+00
  1.140282e+01    2.470821e+00
  1.141869e+01    2.435143e+00
  1.143457e+01    2.476391e+00
  1.145045e+01    2.470193e+00
  1.146632e+01    2.389122e+00
  1.148220e+01    2.426227e+00
  1.149807e+01    2.416334e+00
  1.151395e+01    2.371933e+00
  1.152982e+01    2.407236e+00
  1.154570e+01    2.398468e+00
  1.156157e+01    2.411643e+00
  1.157745e+01    2.431365e+00
  1.159333e+01    2.387815e+00
  1.160920e+01    2.405200e+00
  1.162508e+01    2.435887e+00
  1.164095e+01    2.389320e+00
  1.165683e+01    2.401449e+00
  1.167270e+01    2.380742e+00
  1.168858e+01    2.365734e+00
  1.170445e+01    2.390424e+00
  1.172033e+01    2.429829e+00
  1.173621e+01    2.362072e+00
  1.175208e+01    2.342722e+00
  1.176796e+01    2.347152e+00
  1.178383e+01    2.350219e+00
  1.179971e+01    2.374136e+00
  1.181558e+01    2.334112e+00
  1.183146e+01    2.379805e+00
  1.184733e+01    2.353217e+00
  1.186321e+01    2.377082e+00
  1.187909e+01    2.363780e+00
  1.189496e+01    2.326268e+00
  1.191084e+01    2.370577e+00
  1.192671e+01    2.345843e+00
  1.194259e+01    2.370307e+00
  1.195846e+01    2.360088e+00
  1.197434e+01    2.333119e+00
  1.199021e+01    2.338033e+00
  1.200609e+01    2.340898e+00
  1.202197e+01    2.320345e+00
  1.203784e+01    2.342662e+00
  1.205372e+01    2.387432e+00
  1.206959e+01    2.344429e+00
  1.208547e+01    2.339662e+00
  1.210134e+01    2.303663e+00
  1.211722e+01    2.341534e+00
  1.213309e+01    2.323744e+00
  1.214897e+01    2.270334e+00
  1.216485e+01    2.318993e+00
  1.218072e+01    2.330127e+00
  1.219660e+01    2.332298e+00
  1.221247e+01    2.312578e+00
  1.222835e+01    2.318748e+00
  1.224422e+01    2.362346e+00
  1.226010e+01    2.299750e+00
  1.227597e+01    2.318301e+00
  1.229185e+01    2.334093e+00
  1.230773e+01    2.352536e+00
  1.232360e+01    2.365818e+00
  1.233948e+01    2.313032e+00
  1.235535e+01    2.326176e+00
  1.237123e+01    2.333426e+00
  1.238710e+01    2.362775e+00
  1.240298e+01    2.374018e+00
  1.241886e+01    2.370762e+00
  1.243473e+01    2.342374e+00
  1.245061e+01    2.362454e+00
  1.246648e+01    2.358595e+00
  1.248236e+01    2.349247e+00
  1.249823e+01    2.350352e+00
  1.251411e+01    2.344527e+00
  1.252998e+01    2.356911e+00
  1.254586e+01    2.356218e+00
  1.256174e+01    2.376862e+00
  1.257761e+01    2.419261e+00
  1.259349e+01    2.403150e+00
  1.260936e+01    2.392264e+00
  1.262524e+01    2.384090e+00
  1.264111e+01    2.387120e+00
  1.265699e+01    2.413896e+00
  1.267286e+01    2.419973e+00
  1.268874e+01    2.427002e+00
  1.270462e+01    2.501741e+00
  1.272049e+01    2.528740e+00
  1.273637e+01    2.513958e+00
  1.275224e+01    2.506919e+00
  1.276812e+01    2.601156e+00
  1.278399e+01    2.634153e+00
  1.279987e+01    2.675388e+00
  1.281574e+01    2.705767e+00
  1.283162e+01    2.748617e+00
  1.284750e+01    2.847217e+00
  1.286337e+01    2.921333e+00
  1.287925e+01    3.022836e+00
  1.289512e+01    3.106932e+00
  1.291100e+01    3.279773e+00
  1.292687e+01    3.474153e+00
  1.294275e+01    3.746923e+00
  1.295862e+01    3.996414e+00
  1.297450e+01    4.364585e+00
  1.299038e+01    4.776559e+00
  1.300625e+01    5.470093e+00
  1.302213e+01    6.213853e+00
  1.303800e+01    7.095965e+00
  1.305388e+01    8.209211e+00
  1.306975e+01    9.430831e+00
  1.308563e+01    1.066034e+01
  1.310150e+01    1.184525e+01
  1.311738e+01    1.308657e+01
  1.313326e+01    1.415985e+01
  1.314913e+01    1.502308e+01
  1.316501e+01    1.575866e+01
  1.318088e+01    1.603634e+01
  1.319676e+01    1.540846e+01
  1.321263e+01    1.403305e+01
  1.322851e+01    1.242431e+01
  1.324438e+01    1.067221e+01
  1.326026e+01    8.964264e+00
  1.327614e+01    7.520358e+00
  1.329201e+01    6.427566e+00
  1.330789e+01    5.650342e+00
  1.332376e+01    5.023774e+00
  1.333964e+01    4.528594e+00
  1.335551e+01    4.150142e+00
  1.337139e+01    3.821600e+00
  1.338727e+01    3.546619e+00
  1.340314e+01    3.344831e+00
  1.341902e+01    3.144626e+00
  1.343489e+01    2.953501e+00
  1.345077e+01    2.871181e+00
  1.346664e+01    2.804017e+00
  1.348252e+01    2.732023e+00
  1.349839e+01    2.665754e+00
  1.351427e+01    2.601193e+00
  1.353015e+01    2.604946e+00
  1.354602e+01    2.539525e+00
  1.356190e+01    2.443036e+00
  1.357777e+01    2.401489e+00
  1.359365e+01    2.382592e+00
  1.360952e+01    2.353451e+00
  1.362540e+01    2.311680e+00
  1.364127e+01    2.289557e+00
  1.365715e+01    2.277839e+00
  1.367303e+01    2.263298e+00
  1.368890e+01    2.222556e+00
  1.370478e+01    2.222406e+00
  1.372065e+01    2.240155e+00
  1.373653e+01    2.220701e+00
  1.375240e+01    2.209422e+00
  1.376828e+01    2.187238e+00
  1.378415e+01    2.150070e+00
  1.380003e+01    2.174945e+00
  1.381591e+01    2.179644e+00
  1.383178e+01    2.160390e+00
  1.384766e+01    2.114767e+00
  1.386353e+01    2.087143e+00
  1.387941e+01    2.099896e+00
  1.389528e+01    2.125892e+00
  1.391116e+01    2.081619e+00
  1.392703e+01    2.102420e+00
  1.394291e+01    2.071716e+00
  1.395879e+01    2.082854e+00
  1.397466e+01    2.095337e+00
  1.399054e+01    2.060369e+00
  1.400641e+01    2.042455e+00
  1.402229e+01    2.066573e+00
  1.403816e+01    2.055367e+00
  1.405404e+01    2.024374e+00
  1.406991e+01    2.017716e+00
  1.408579e+01    2.036554e+00
  1.410167e+01    2.040499e+00
  1.411754e+01    2.000991e+00
  1.413342e+01    2.028401e+00
  1.414929e+01    2.055008e+00
  1.416517e+01    2.035169e+00
  1.418104e+01    2.036775e+00
  1.419692e+01    1.997058e+00
  1.421279e+01    1.970746e+00
  1.422867e+01    2.010792e+00
  1.424455e+01    2.003288e+00
  1.426042e+01    1.991487e+00
  1.427630e+01    1.957327e+00
  1.429217e+01    1.918181e+00
  1.430805e+01    1.973219e+00
  1.432392e+01    2.004186e+00
  1.433980e+01    1.943288e+00
  1.435568e+01    1.929599e+00
  1.437155e+01    1.910812e+00
  1.438743e+01    1.920387e+00
  1.440330e+01    1.930609e+00
  1.441918e+01    1.949115e+00
  1.443505e+01    1.965409e+00
  1.445093e+01    1.959828e+00
  1.446680e+01    1.918969e+00
  1.448268e+01    1.944049e+00
  1.449856e+01    1.924279e+00
  1.451443e+01    1.915906e+00
  1.453031e+01    1.917626e+00
  1.454618e+01    1.933113e+00
  1.456206e+01    1.914362e+00
  1.457793e+01    1.908483e+00
  1.459381e+01    1.918550e+00
  1.460968e+01    1.941180e+00
  1.462556e+01    1.969275e+00
  1.464144e+01    1.985519e+00
  1.465731e+01    1.920068e+00
  1.467319e+01    1.926040e+00
  1.468906e+01    1.895512e+00
  1.470494e+01    1.952412e+00
  1.472081e+01    1.929786e+00
  1.473669e+01    1.918179e+00
  1.475256e+01    1.935755e+00
  1.476844e+01    1.905992e+00
  1.478432e+01    1.886148e+00
  1.480019e+01    1.916251e+00
  1.481607e+01    1.896115e+00
  1.483194e+01    1.912280e+00
  1.484782e+01    1.960530e+00
  1.486369e+01    1.972332e+00
  1.487957e+01    1.951607e+00
  1.489544e+01    1.944510e+00
  1.491132e+01    1.945085e+00
  1.492720e+01    1.969134e+00
  1.494307e+01    2.013925e+00
  1.495895e+01    2.068853e+00
  1.497482e+01    2.059491e+00
  1.499070e+01    2.086945e+00
  1.500657e+01    2.121379e+00
  1.502245e+01    2.189851e+00
  1.503832e+01    2.306937e+00
  1.505420e+01    2.412173e+00
  1.507008e+01    2.517353e+00
  1.508595e+01    2.651823e+00
  1.510183e+01    2.842080e+00
  1.511770e+01    3.113332e+00
  1.513358e+01    3.441352e+00
  1.514945e+01    3.779527e+00
  1.516533e+01    4.149403e+00
  1.518120e+01    4.488978e+00
  1.519708e+01    4.772270e+00
  1.521296e+01    5.010560e+00
  1.522883e+01    5.282147e+00
  1.524471e+01    5.483470e+00
  1.526058e+01    5.528289e+00
  1.527646e+01    5.435239e+00
  1.529233e+01    5.209796e+00
  1.530821e+01    4.961772e+00
  1.532409e+01    4.487772e+00
  1.533996e+01    4.054598e+00
  1.535584e+01    3.600751e+00
  1.537171e+01    3.253248e+00
  1.538759e+01    2.931922e+00
  1.540346e+01    2.667206e+00
  1.541934e+01    2.477708e+00
  1.543521e+01    2.359995e+00
  1.545109e+01    2.237141e+00
  1.546697e+01    2.127259e+00
  1.548284e+01    2.068933e+00
  1.549872e+01    1.992865e+00
  1.551459e+01    1.963164e+00
  1.553047e+01    1.936549e+00
  1.554634e+01    1.926314e+00
  1.556222e+01    1.885397e+00
  1.557809e+01    1.855547e+00
  1.559397e+01    1.819872e+00
  1.560985e+01    1.790817e+00
  1.562572e+01    1.825653e+00
  1.564160e+01    1.797498e+00
  1.565747e+01    1.793629e+00
  1.567335e+01    1.773093e+00
  1.568922e+01    1.683682e+00
  1.570510e+01    1.714863e+00
  1.572097e+01    1.777813e+00
  1.573685e+01    1.751952e+00
  1.575273e+01    1.726525e+00
  1.576860e+01    1.680880e+00
  1.578448e+01    1.669915e+00
  1.580035e+01    1.671040e+00
  1.581623e+01    1.693649e+00
  1.583210e+01    1.699892e+00
  1.584798e+01    1.664480e+00
  1.586385e+01    1.650894e+00
  1.587973e+01    1.648314e+00
  1.589561e+01    1.662727e+00
  1.591148e+01    1.641238e+00
  1.592736e+01    1.648618e+00
  1.594323e+01    1.625058e+00
  1.595911e+01    1.637704e+00
  1.597498e+01    1.654479e+00
  1.599086e+01    1.650176e+00
  1.600673e+01    1.636753e+00
  1.602261e+01    1.588363e+00
  1.603849e+01    1.625773e+00
  1.605436e+01    1.636945e+00
  1.607024e+01    1.608090e+00
  1.608611e+01    1.572891e+00
  1.610199e+01    1.579758e+00
  1.611786e+01    1.605526e+00
  1.613374e+01    1.621544e+00
  1.614961e+01    1.597289e+00
  1.616549e+01    1.601170e+00
  1.618137e+01    1.572329e+00
  1.619724e+01    1.567677e+00
  1.621312e+01    1.570350e+00
  1.622899e+01    1.579629e+00
  1.624487e+01    1.576111e+00
  1.626074e+01    1.576794e+00
  1.627662e+01    1.576395e+00
  1.629250e+01    1.534743e+00
  1.630837e+01    1.521898e+00
  1.632425e+01    1.533023e+00
  1.634012e+01    1.563431e+00
  1.635600e+01    1.519291e+00
  1.637187e+01    1.525175e+00
  1.638775e+01    1.555964e+00
  1.640362e+01    1.541908e+00
  1.641950e+01    1.517184e+00
  1.643538e+01    1.522806e+00
  1.645125e+01    1.553372e+00
  1.646713e+01    1.550611e+00
  1.648300e+01    1.521173e+00
  1.649888e+01    1.520121e+00
  1.651475e+01    1.557640e+00
  1.653063e+01    1.520889e+00
  1.654650e+01    1.524754e+00
  1.656238e+01    1.493211e+00
  1.657826e+01    1.505730e+00
  1.659413e+01    1.514647e+00
  1.661001e+01    1.502599e+00
  1.662588e+01    1.512326e+00
  1.664176e+01    1.504099e+00
  1.665763e+01    1.529669e+00
  1.667351e+01    1.481863e+00
  1.668938e+01    1.470094e+00
  1.670526e+01    1.469673e+00
  1.672114e+01    1.482427e+00
  1.673701e+01    1.466734e+00
  1.675289e+01    1.476311e+00
  1.676876e+01    1.446653e+00
  1.678464e+01    1.437200e+00
  1.680051e+01    1.439119e+00
  1.681639e+01    1.459891e+00
  1.683226e+01    1.456806e+00
  1.684814e+01    1.476102e+00
  1.686402e+01    1.450538e+00
  1.687989e+01    1.445533e+00
  1.689577e+01    1.432781e+00
  1.691164e+01    1.464359e+00
  1.692752e+01    1.453349e+00
  1.694339e+01    1.445039e+00
  1.695927e+01    1.453791e+00
  1.697514e+01    1.441856e+00
  1.699102e+01    1.439353e+00
  1.700690e+01    1.455750e+00
  1.702277e+01    1.473755e+00
  1.703865e+01    1.453544e+00
  1.705452e+01    1.416573e+00
  1.707040e+01    1.429807e+00
  1.708627e+01    1.428888e+00
  1.710215e+01    1.441396e+00
  1.711802e+01    1.467582e+00
  1.713390e+01    1.430662e+00
  1.714978e+01    1.434522e+00
  1.716565e+01    1.432486e+00
  1.718153e+01    1.424246e+00
  1.719740e+01    1.429168e+00
  1.721328e+01    1.401579e+00
  1.722915e+01    1.433868e+00
  1.724503e+01    1.440554e+00
  1.726091e+01    1.418796e+00
  1.727678e+01    1.416865e+00
  1.729266e+01    1.422809e+00
  1.730853e+01    1.385519e+00
  1.732441e+01    1.383797e+00
  1.734028e+01    1.411725e+00
  1.735616e+01    1.378198e+00
  1.737203e+01    1.373642e+00
  1.738791e+01    1.369751e+00
  1.740379e+01    1.348981e+00
  1.741966e+01    1.384499e+00
  1.743554e+01    1.383475e+00
  1.745141e+01    1.381412e+00
  1.746729e+01    1.368769e+00
  1.748316e+01    1.373793e+00
  1.749904e+01    1.386827e+00
  1.751491e+01    1.401003e+00
  1.753079e+01    1.368471e+00
  1.754667e+01    1.342031e+00
  1.756254e+01    1.352911e+00
  1.757842e+01    1.371232e+00
  1.759429e+01    1.368742e+00
  1.761017e+01    1.336707e+00
  1.762604e+01    1.377845e+00
  1.764192e+01    1.345750e+00
  1.765779e+01    1.341297e+00
  1.767367e+01    1.338405e+00
  1.768955e+01    1.345732e+00
  1.770542e+01    1.345693e+00
  1.772130e+01    1.306264e+00
  1.773717e+01    1.334267e+00
  1.775305e+01    1.352857e+00
  1.776892e+01    1.385769e+00
  1.778480e+01    1.361081e+00
  1.780067e+01    1.342728e+00
  1.781655e+01    1.315981e+00
  1.783243e+01    1.320722e+00
  1.784830e+01    1.343217e+00
  1.786418e+01    1.355551e+00
  1.788005e+01    1.329652e+00
  1.789593e+01    1.327198e+00
  1.791180e+01    1.362449e+00
  1.792768e+01    1.354644e+00
  1.794355e+01    1.328501e+00
  1.795943e+01    1.301837e+00
  1.797531e+01    1.307142e+00
  1.799118e+01    1.324605e+00
  1.800706e+01    1.312275e+00
  1.802293e+01    1.298485e+00
  1.803881e+01    1.320268e+00
  1.805468e+01    1.298203e+00
  1.807056e+01    1.294569e+00
  1.808643e+01    1.283794e+00
  1.810231e+01    1.286322e+00
  1.811819e+01    1.294117e+00
  1.813406e+01    1.300190e+00
  1.814994e+01    1.291983e+00
  1.816581e+01    1.272736e+00
  1.818169e+01    1.271834e+00
  1.819756e+01    1.272788e+00
  1.821344e+01    1.282527e+00
  1.822932e+01    1.268825e+00
  1.824519e+01    1.297873e+00
  1.826107e+01    1.271815e+00
  1.827694e+01    1.263617e+00
  1.829282e+01    1.281838e+00
  1.830869e+01    1.264046e+00
  1.832457e+01    1.259795e+00
  1.834044e+01    1.263001e+00
  1.835632e+01    1.258376e+00
  1.837220e+01    1.252463e+00
  1.838807e+01    1.270371e+00
  1.840395e+01    1.272964e+00
  1.841982e+01    1.263824e+00
  1.843570e+01    1.257494e+00
  1.845157e+01    1.254249e+00
  1.846745e+01    1.270495e+00
  1.848332e+01    1.260048e+00
  1.849920e+01    1.261287e+00
  1.851508e+01    1.250338e+00
  1.853095e+01    1.249817e+00
  1.854683e+01    1.242202e+00
  1.856270e+01    1.234392e+00
  1.857858e+01    1.247212e+00
  1.859445e+01    1.250206e+00
  1.861033e+01    1.237753e+00
  1.862620e+01    1.233594e+00
  1.864208e+01    1.232337e+00
  1.865796e+01    1.222353e+00
  1.867383e+01    1.225470e+00
  1.868971e+01    1.229414e+00
  1.870558e+01    1.232483e+00
  1.872146e+01    1.258891e+00
  1.873733e+01    1.227795e+00
  1.875321e+01    1.214018e+00
  1.876908e+01    1.213068e+00
  1.878496e+01    1.238961e+00
  1.880084e+01    1.233221e+00
  1.881671e+01    1.224702e+00
  1.883259e+01    1.229632e+00
  1.884846e+01    1.212229e+00
  1.886434e+01    1.206440e+00
  1.888021e+01    1.226520e+00
  1.889609e+01    1.204531e+00
  1.891196e+01    1.197389e+00
  1.892784e+01    1.203639e+00
  1.894372e+01    1.210092e+00
  1.895959e+01    1.216647e+00
  1.897547e+01    1.207624e+00
  1.899134e+01    1.217011e+00
  1.900722e+01    1.214121e+00
  1.902309e+01    1.184856e+00
  1.903897e+01    1.147284e+00
  1.905484e+01    1.189392e+00
  1.907072e+01    1.191736e+00
  1.908660e+01    1.192479e+00
  1.910247e+01    1.184620e+00
  1.911835e+01    1.197062e+00
  1.913422e+01    1.190333e+00
  1.915010e+01    1.182266e+00
  1.916597e+01    1.175273e+00
  1.918185e+01    1.182840e+00
  1.919773e+01    1.197362e+00
  1.921360e+01    1.209558e+00
  1.922948e+01    1.207411e+00
  1.924535e+01    1.191649e+00
  1.926123e+01    1.184994e+00
  1.927710e+01    1.194095e+00
  1.929298e+01    1.210860e+00
  1.930885e+01    1.207541e+00
  1.932473e+01    1.206756e+00
  1.934061e+01    1.169347e+00
  1.935648e+01    1.176121e+00
  1.937236e+01    1.198015e+00
  1.938823e+01    1.200374e+00
  1.940411e+01    1.151129e+00
  1.941998e+01    1.168554e+00
  1.943586e+01    1.165442e+00
  1.945173e+01    1.162185e+00
  1.946761e+01    1.167391e+00
  1.948349e+01    1.140868e+00
  1.949936e+01    1.176144e+00
  1.951524e+01    1.179995e+00
  1.953111e+01    1.168499e+00
  1.954699e+01    1.179792e+00
  1.956286e+01    1.160185e+00
  1.957874e+01    1.139804e+00
  1.959461e+01    1.147405e+00
  1.961049e+01    1.144610e+00
  1.962637e+01    1.167613e+00
  1.964224e+01    1.158222e+00
  1.965812e+01    1.150225e+00
  1.967399e+01    1.159415e+00
  1.968987e+01    1.130910e+00
  1.970574e+01    1.152694e+00
  1.972162e+01    1.151077e+00
  1.973749e+01    1.135850e+00
  1.975337e+01    1.156921e+00
  1.976925e+01    1.146262e+00
  1.978512e+01    1.155689e+00
  1.980100e+01    1.139478e+00
  1.981687e+01    1.144793e+00
  1.983275e+01    1.145512e+00
  1.984862e+01    1.117930e+00
  1.986450e+01    1.097844e+00
  1.988037e+01    1.136122e+00
  1.989625e+01    1.140726e+00
  1.991213e+01    1.104310e+00
  1.992800e+01    1.114327e+00
  1.994388e+01    1.107051e+00
  1.995975e+01    1.097981e+00
  1.997563e+01    1.126740e+00
  1.999150e+01    1.144370e+00
  2.000738e+01    1.128934e+00
  2.002325e+01    1.117213e+00
  2.003913e+01    1.130714e+00
  2.005501e+01    1.117878e+00
  2.007088e+01    1.138332e+00
  2.008676e+01    1.134814e+00
  2.010263e+01    1.112865e+00
  2.011851e+01    1.092148e+00
  2.013438e+01    1.090566e+00
  2.015026e+01    1.109710e+00
  2.016614e+01    1.106027e+00
  2.018201e+01    1.094063e+00
  2.019789e+01    1.096599e+00
  2.021376e+01    1.115238e+00
  2.022964e+01    1.124212e+00
  2.024551e+01    1.131611e+00
  2.026139e+01    1.111270e+00
  2.027726e+01    1.104202e+00
  2.029314e+01    1.105458e+00
  2.030902e+01    1.101889e+00
  2.032489e+01    1.095255e+00
  2.034077e+01    1.099746e+00
  2.035664e+01    1.098569e+00
  2.037252e+01    1.099701e+00
  2.038839e+01    1.092299e+00
  2.040427e+01    1.110126e+00
  2.042014e+01    1.106311e+00
  2.043602e+01    1.100979e+00
  2.045190e+01    1.087086e+00
  2.046777e+01    1.096787e+00
  2.048365e+01    1.086488e+00
  2.049952e+01    1.065272e+00
  2.051540e+01    1.088154e+00
  2.053127e+01    1.101747e+00
  2.054715e+01    1.080233e+00
  2.056302e+01    1.095327e+00
  2.057890e+01    1.069996e+00
  2.059478e+01    1.089336e+00
  2.061065e+01    1.067621e+00
  2.062653e+01    1.109558e+00
  2.064240e+01    1.115774e+00
  2.065828e+01    1.106640e+00
  2.067415e+01    1.083700e+00
  2.069003e+01    1.115883e+00
  2.070590e+01    1.108538e+00
  2.072178e+01    1.077263e+00
  2.073766e+01    1.087958e+00
  2.075353e+01    1.077831e+00
  2.076941e+01    1.090372e+00
  2.078528e+01    1.084898e+00
  2.080116e+01    1.081655e+00
  2.081703e+01    1.080538e+00
  2.083291e+01    1.077669e+00
  2.084878e+01    1.083872e+00
  2.086466e+01    1.090895e+00
  2.088054e+01    1.077127e+00
  2.089641e+01    1.088177e+00
  2.091229e+01    1.083465e+00
  2.092816e+01    1.052809e+00
  2.094404e+01    1.061412e+00
  2.095991e+01    1.094981e+00
  2.097579e+01    1.083577e+00
  2.099166e+01    1.073072e+00
  2.100754e+01    1.071749e+00
  2.102342e+01    1.084464e+00
  2.103929e+01    1.081905e+00
  2.105517e+01    1.097034e+00
  2.107104e+01    1.088459e+00
  2.108692e+01    1.084209e+00
  2.110279e+01    1.110231e+00
  2.111867e+01    1.108250e+00
  2.113455e+01    1.087495e+00
  2.115042e+01    1.068355e+00
  2.116630e+01    1.074399e+00
  2.118217e+01    1.081961e+00
  2.119805e+01    1.097646e+00
  2.121392e+01    1.109989e+00
  2.122980e+01    1.119085e+00
  2.124567e+01    1.106230e+00
  2.126155e+01    1.112656e+00
  2.127743e+01    1.141839e+00
  2.129330e+01    1.107469e+00
  2.130918e+01    1.124366e+00
  2.132505e+01    1.155326e+00
  2.134093e+01    1.164697e+00
  2.135680e+01    1.142897e+00
  2.137268e+01    1.137854e+00
  2.138855e+01    1.138963e+00
  2.140443e+01    1.150695e+00
  2.142031e+01    1.173829e+00
  2.143618e+01    1.203208e+00
  2.145206e+01    1.207785e+00
  2.146793e+01    1.216715e+00
  2.148381e+01    1.257867e+00
  2.149968e+01    1.268821e+00
  2.151556e+01    1.311567e+00
  2.153143e+01    1.330343e+00
  2.154731e+01    1.383342e+00
  2.156319e+01    1.427146e+00
  2.157906e+01    1.481386e+00
  2.159494e+01    1.544693e+00
  2.161081e+01    1.608948e+00
  2.162669e+01    1.700826e+00
  2.164256e+01    1.818280e+00
  2.165844e+01    1.950027e+00
  2.167431e+01    2.068053e+00
  2.169019e+01    2.317383e+00
  2.170607e+01    2.600058e+00
  2.172194e+01    2.899134e+00
  2.173782e+01    3.285217e+00
  2.175369e+01    3.759839e+00
  2.176957e+01    4.294662e+00
  2.178544e+01    4.841740e+00
  2.180132e+01    5.521684e+00
  2.181719e+01    6.205802e+00
  2.183307e+01    6.881584e+00
  2.184895e+01    7.552204e+00
  2.186482e+01    8.145724e+00
  2.188070e+01    8.598684e+00
  2.189657e+01    8.815528e+00
  2.191245e+01    8.708698e+00
  2.192832e+01    8.237533e+00
  2.194420e+01    7.468992e+00
  2.196007e+01    6.521735e+00
  2.197595e+01    5.683487e+00
  2.199183e+01    4.774507e+00
  2.200770e+01    4.061864e+00
  2.202358e+01    3.470409e+00
  2.203945e+01    3.009872e+00
  2.205533e+01    2.706505e+00
  2.207120e+01    2.396909e+00
  2.208708e+01    2.166601e+00
  2.210296e+01    1.981858e+00
  2.211883e+01    1.829152e+00
  2.213471e+01    1.700481e+00
  2.215058e+01    1.618889e+00
  2.216646e+01    1.549334e+00
  2.218233e+01    1.477382e+00
  2.219821e+01    1.433126e+00
  2.221408e+01    1.368484e+00
  2.222996e+01    1.320966e+00
  2.224584e+01    1.276270e+00
  2.226171e+01    1.237655e+00
  2.227759e+01    1.195931e+00
  2.229346e+01    1.169498e+00
  2.230934e+01    1.169137e+00
  2.232521e+01    1.125183e+00
  2.234109e+01    1.107303e+00
  2.235696e+01    1.093521e+00
  2.237284e+01    1.099564e+00
  2.238872e+01    1.095500e+00
  2.240459e+01    1.089749e+00
  2.242047e+01    1.067561e+00
  2.243634e+01    1.047582e+00
  2.245222e+01    1.023558e+00
  2.246809e+01    1.024897e+00
  2.248397e+01    1.016197e+00
  2.249984e+01    1.028593e+00
  2.251572e+01    1.011720e+00
  2.253160e+01    9.895787e-01
  2.254747e+01    9.932401e-01
  2.256335e+01    1.002609e+00
  2.257922e+01    9.776765e-01
  2.259510e+01    9.935392e-01
  2.261097e+01    9.894417e-01
  2.262685e+01    9.761037e-01
  2.264272e+01    9.791126e-01
  2.265860e+01    9.813148e-01
  2.267448e+01    9.732432e-01
  2.269035e+01    9.593660e-01
  2.270623e+01    9.340792e-01
  2.272210e+01    9.435610e-01
  2.273798e+01    9.494751e-01
  2.275385e+01    9.501013e-01
  2.276973e+01    9.436386e-01
  2.278560e+01    9.549640e-01
  2.280148e+01    9.577210e-01
  2.281736e+01    9.244812e-01
  2.283323e+01    9.307965e-01
  2.284911e+01    9.613879e-01
  2.286498e+01    9.422520e-01
  2.288086e+01    9.249184e-01
  2.289673e+01    9.175817e-01
  2.291261e+01    9.065658e-01
  2.292848e+01    8.897601e-01
  2.294436e+01    8.889255e-01
  2.296024e+01    9.033614e-01
  2.297611e+01    8.980213e-01
  2.299199e+01    9.011967e-01
  2.300786e+01    9.182545e-01
  2.302374e+01    9.095668e-01
  2.303961e+01    8.922506e-01
  2.305549e+01    8.846921e-01
  2.307137e+01    8.929577e-01
  2.308724e+01    8.991885e-01
  2.310312e+01    8.857236e-01
  2.311899e+01    8.847206e-01
  2.313487e+01    8.819245e-01
  2.315074e+01    8.956333e-01
  2.316662e+01    8.691403e-01
  2.318249e+01    8.621032e-01
  2.319837e+01    8.653116e-01
  2.321425e+01    8.706273e-01
  2.323012e+01    8.755502e-01
  2.324600e+01    8.723844e-01
  2.326187e+01    8.634608e-01
  2.327775e+01    8.878518e-01
  2.329362e+01    8.662910e-01
  2.330950e+01    8.648978e-01
  2.332537e+01    8.691658e-01
  2.334125e+01    8.555450e-01
  2.335713e+01    8.511141e-01
  2.337300e+01    8.413440e-01
  2.338888e+01    8.548757e-01
  2.340475e+01    8.652036e-01
  2.342063e+01    8.641226e-01
  2.343650e+01    8.491220e-01
  2.345238e+01    8.424397e-01
  2.346825e+01    8.442861e-01
  2.348413e+01    8.353124e-01
  2.350001e+01    8.344600e-01
  2.351588e+01    8.449370e-01
  2.353176e+01    8.350520e-01
  2.354763e+01    8.338074e-01
  2.356351e+01    8.411456e-01
  2.357938e+01    8.417884e-01
  2.359526e+01    8.428068e-01
  2.361113e+01    8.573608e-01
  2.362701e+01    8.338118e-01
  2.364289e+01    8.262520e-01
  2.365876e+01    8.315091e-01
  2.367464e+01    8.429008e-01
  2.369051e+01    8.262650e-01
  2.370639e+01    8.256818e-01
  2.372226e+01    8.212534e-01
  2.373814e+01    8.203235e-01
  2.375401e+01    8.152839e-01
  2.376989e+01    8.072813e-01
  2.378577e+01    7.957572e-01
  2.380164e+01    8.062652e-01
  2.381752e+01    7.931515e-01
  2.383339e+01    7.966049e-01
  2.384927e+01    8.151373e-01
  2.386514e+01    8.106629e-01
  2.388102e+01    7.864110e-01
  2.389689e+01    7.826340e-01
  2.391277e+01    7.834454e-01
  2.392865e+01    7.955397e-01
  2.394452e+01    7.902053e-01
  2.396040e+01    7.932155e-01
  2.397627e+01    7.844207e-01
  2.399215e+01    7.937756e-01
  2.400802e+01    7.964357e-01
  2.402390e+01    8.016703e-01
  2.403978e+01    7.988771e-01
  2.405565e+01    7.842352e-01
  2.407153e+01    7.857359e-01
  2.408740e+01    7.808192e-01
  2.410328e+01    7.817039e-01
  2.411915e+01    8.043083e-01
  2.413503e+01    7.847958e-01
  2.415090e+01    7.826961e-01
  2.416678e+01    7.569706e-01
  2.418266e+01    7.717122e-01
  2.419853e+01    7.964708e-01
  2.421441e+01    7.874769e-01
  2.423028e+01    7.512608e-01
  2.424616e+01    7.719563e-01
  2.426203e+01    7.865804e-01
  2.427791e+01    7.989572e-01
  2.429378e+01    7.783374e-01
  2.430966e+01    7.740070e-01
  2.432554e+01    7.814966e-01
  2.434141e+01    7.725437e-01
  2.435729e+01    7.879168e-01
  2.437316e+01    8.204785e-01
  2.438904e+01    7.894957e-01
  2.440491e+01    7.765962e-01
  2.442079e+01    7.931974e-01
  2.443666e+01    8.061370e-01
  2.445254e+01    7.800474e-01
  2.446842e+01    7.819214e-01
  2.448429e+01    7.840216e-01
  2.450017e+01    7.875730e-01
  2.451604e+01    7.905450e-01
  2.453192e+01    7.859974e-01
  2.454779e+01    7.859937e-01
  2.456367e+01    7.885556e-01
  2.457954e+01    8.003861e-01
  2.459542e+01    7.877591e-01
  2.461130e+01    7.947229e-01
  2.462717e+01    8.101992e-01
  2.464305e+01    7.870226e-01
  2.465892e+01    7.857286e-01
  2.467480e+01    8.013394e-01
  2.469067e+01    8.056307e-01
  2.470655e+01    7.694987e-01
  2.472242e+01    7.521138e-01
  2.473830e+01    7.887018e-01
  2.475418e+01    8.008765e-01
  2.477005e+01    8.005612e-01
  2.478593e+01    8.042818e-01
  2.480180e+01    7.902920e-01
  2.481768e+01    7.722232e-01
  2.483355e+01    7.956983e-01
  2.484943e+01    7.791032e-01
  2.486530e+01    7.934422e-01
  2.488118e+01    7.841145e-01
  2.489706e+01    8.064150e-01
  2.491293e+01    7.891288e-01
  2.492881e+01    7.755362e-01
  2.494468e+01    7.917911e-01
  2.496056e+01    7.858307e-01
  2.497643e+01    8.136846e-01
  2.499231e+01    8.134265e-01
  2.500819e+01    7.926947e-01
  2.502406e+01    8.036955e-01
  2.503994e+01    8.134713e-01
  2.505581e+01    8.088279e-01
  2.507169e+01    7.995943e-01
  2.508756e+01    8.047215e-01
  2.510344e+01    8.145730e-01
  2.511931e+01    8.239392e-01
  2.513519e+01    8.180302e-01
  2.515107e+01    8.168388e-01
  2.516694e+01    8.294398e-01
  2.518282e+01    8.433033e-01
  2.519869e+01    8.593091e-01
  2.521457e+01    8.410416e-01
  2.523044e+01    8.356053e-01
  2.524632e+01    8.281335e-01
  2.526219e+01    8.456588e-01
  2.527807e+01    8.533669e-01
  2.529395e+01    8.682958e-01
  2.530982e+01    8.672046e-01
  2.532570e+01    8.698279e-01
  2.534157e+01    8.720323e-01
  2.535745e+01    8.872121e-01
  2.537332e+01    8.951939e-01
  2.538920e+01    8.799697e-01
  2.540507e+01    8.803663e-01
  2.542095e+01    8.951657e-01
  2.543683e+01    9.331589e-01
  2.545270e+01    9.311126e-01
  2.546858e+01    9.156093e-01
  2.548445e+01    9.354764e-01
  2.550033e+01    9.472660e-01
  2.551620e+01    9.700222e-01
  2.553208e+01    1.007129e+00
  2.554795e+01    1.037238e+00
  2.556383e+01    1.076527e+00
  2.557971e+01    1.069656e+00
  2.559558e+01    1.094098e+00
  2.561146e+01    1.111294e+00
  2.562733e+01    1.161259e+00
  2.564321e+01    1.217302e+00
  2.565908e+01    1.243980e+00
  2.567496e+01    1.338192e+00
  2.569083e+01    1.399742e+00
  2.570671e+01    1.509122e+00
  2.572259e+01    1.610827e+00
  2.573846e+01    1.734778e+00
  2.575434e+01    1.903515e+00
  2.577021e+01    2.085792e+00
  2.578609e+01    2.343364e+00
  2.580196e+01    2.652430e+00
  2.581784e+01    2.981272e+00
  2.583371e+01    3.461566e+00
  2.584959e+01    3.953786e+00
  2.586547e+01    4.431411e+00
  2.588134e+01    4.955994e+00
  2.589722e+01    5.622789e+00
  2.591309e+01    6.212684e+00
  2.592897e+01    6.672927e+00
  2.594484e+01    7.052303e+00
  2.596072e+01    7.143675e+00
  2.597660e+01    7.039351e+00
  2.599247e+01    6.650573e+00
  2.600835e+01    6.055715e+00
  2.602422e+01    5.300494e+00
  2.604010e+01    4.596098e+00
  2.605597e+01    3.951826e+00
  2.607185e+01    3.404754e+00
  2.608772e+01    2.939694e+00
  2.610360e+01    2.613884e+00
  2.611948e+01    2.286861e+00
  2.613535e+01    2.047679e+00
  2.615123e+01    1.891485e+00
  2.616710e+01    1.716074e+00
  2.618298e+01    1.587468e+00
  2.619885e+01    1.496683e+00
  2.621473e+01    1.399211e+00
  2.623060e+01    1.338342e+00
  2.624648e+01    1.269742e+00
  2.626236e+01    1.214679e+00
  2.627823e+01    1.166567e+00
  2.629411e+01    1.111031e+00
  2.630998e+01    1.094996e+00
  2.632586e+01    1.072976e+00
  2.634173e+01    1.072636e+00
  2.635761e+01    1.032131e+00
  2.637348e+01    1.012123e+00
  2.638936e+01    9.716408e-01
  2.640524e+01    9.619284e-01
  2.642111e+01    9.544405e-01
  2.643699e+01    9.473998e-01
  2.645286e+01    9.303605e-01
  2.646874e+01    9.584849e-01
  2.648461e+01    9.539868e-01
  2.650049e+01    9.239572e-01
  2.651636e+01    9.248074e-01
  2.653224e+01    8.979497e-01
  2.654812e+01    8.949885e-01
  2.656399e+01    8.998721e-01
  2.657987e+01    9.102286e-01
  2.659574e+01    8.972889e-01
  2.661162e+01    8.717775e-01
  2.662749e+01    8.697354e-01
  2.664337e+01    8.824975e-01
  2.665924e+01    8.791983e-01
  2.667512e+01    8.810133e-01
  2.669100e+01    8.852921e-01
  2.670687e+01    8.926480e-01
  2.672275e+01    8.883880e-01
  2.673862e+01    8.893203e-01
  2.675450e+01    8.943559e-01
  2.677037e+01    8.668033e-01
  2.678625e+01    8.900615e-01
  2.680212e+01    8.799592e-01
  2.681800e+01    8.876760e-01
  2.683388e+01    8.848700e-01
  2.684975e+01    9.015025e-01
  2.686563e+01    8.928940e-01
  2.688150e+01    9.119539e-01
  2.689738e+01    9.154699e-01
  2.691325e+01    9.091626e-01
  2.692913e+01    9.104072e-01
  2.694501e+01    9.378797e-01
  2.696088e+01    9.653791e-01
  2.697676e+01    9.748291e-01
  2.699263e+01    1.012312e+00
  2.700851e+01    1.017772e+00
  2.702438e+01    1.060854e+00
  2.704026e+01    1.127465e+00
  2.705613e+01    1.167407e+00
  2.707201e+01    1.199506e+00
  2.708789e+01    1.291314e+00
  2.710376e+01    1.399399e+00
  2.711964e+01    1.517169e+00
  2.713551e+01    1.642509e+00
  2.715139e+01    1.770262e+00
  2.716726e+01    1.907176e+00
  2.718314e+01    2.023380e+00
  2.719901e+01    2.076445e+00
  2.721489e+01    2.130995e+00
  2.723077e+01    2.128123e+00
  2.724664e+01    2.091138e+00
  2.726252e+01    1.978234e+00
  2.727839e+01    1.821227e+00
  2.729427e+01    1.675081e+00
  2.731014e+01    1.569354e+00
  2.732602e+01    1.401427e+00
  2.734189e+01    1.291436e+00
  2.735777e+01    1.208289e+00
  2.737365e+01    1.136803e+00
  2.738952e+01    1.087358e+00
  2.740540e+01    1.042434e+00
  2.742127e+01    1.000139e+00
  2.743715e+01    9.934441e-01
  2.745302e+01    9.584705e-01
  2.746890e+01    9.283932e-01
  2.748477e+01    8.847407e-01
  2.750065e+01    8.938501e-01
  2.751653e+01    9.101111e-01
  2.753240e+01    8.973498e-01
  2.754828e+01    8.710209e-01
  2.756415e+01    8.534641e-01
  2.758003e+01    8.312069e-01
  2.759590e+01    8.408133e-01
  2.761178e+01    8.524821e-01
  2.762765e+01    8.372616e-01
  2.764353e+01    8.375168e-01
  2.765941e+01    8.291895e-01
  2.767528e+01    8.234048e-01
  2.769116e+01    8.367605e-01
  2.770703e+01    8.201738e-01
  2.772291e+01    8.079988e-01
  2.773878e+01    7.922937e-01
  2.775466e+01    8.068860e-01
  2.777054e+01    8.008547e-01
  2.778641e+01    8.089234e-01
  2.780229e+01    8.085440e-01
  2.781816e+01    8.059105e-01
  2.783404e+01    7.813184e-01
  2.784991e+01    7.791410e-01
  2.786579e+01    7.754175e-01
  2.788166e+01    7.961047e-01
  2.789754e+01    8.026091e-01
  2.791342e+01    7.861360e-01
  2.792929e+01    7.798259e-01
  2.794517e+01    7.888519e-01
  2.796104e+01    7.677380e-01
  2.797692e+01    7.628160e-01
  2.799279e+01    7.792666e-01
  2.800867e+01    7.806568e-01
  2.802454e+01    7.810411e-01
  2.804042e+01    7.719016e-01
  2.805630e+01    7.714275e-01
  2.807217e+01    7.801030e-01
  2.808805e+01    7.758799e-01
  2.810392e+01    7.765338e-01
  2.811980e+01    7.549858e-01
  2.813567e+01    7.772773e-01
  2.815155e+01    7.762126e-01
  2.816742e+01    7.688382e-01
  2.818330e+01    7.655667e-01
  2.819918e+01    7.654123e-01
  2.821505e+01    7.643832e-01
  2.823093e+01    7.686924e-01
  2.824680e+01    7.695165e-01
  2.826268e+01    7.590641e-01
  2.827855e+01    7.509590e-01
  2.829443e+01    7.550827e-01
  2.831030e+01    7.609503e-01
  2.832618e+01    7.454898e-01
  2.834206e+01    7.641132e-01
  2.835793e+01    7.653352e-01
  2.837381e+01    7.707346e-01
  2.838968e+01    7.595509e-01
  2.840556e+01    7.702040e-01
  2.842143e+01    7.645419e-01
  2.843731e+01    7.664026e-01
  2.845318e+01    7.656835e-01
  2.846906e+01    7.690167e-01
  2.848494e+01    7.408711e-01
  2.850081e+01    7.491011e-01
  2.851669e+01    7.470234e-01
  2.853256e+01    7.398462e-01
  2.854844e+01    7.311817e-01
  2.856431e+01    7.373375e-01
  2.858019e+01    7.417729e-01
  2.859606e+01    7.634928e-01
  2.861194e+01    7.471520e-01
  2.862782e+01    7.385412e-01
  2.864369e+01    7.570398e-01
  2.865957e+01    7.315066e-01
  2.867544e+01    7.175660e-01
  2.869132e+01    7.281029e-01
  2.870719e+01    7.648794e-01
  2.872307e+01    7.622132e-01
  2.873895e+01    7.488669e-01
  2.875482e+01    7.360649e-01
  2.877070e+01    7.438167e-01
  2.878657e+01    7.453129e-01
  2.880245e+01    7.528265e-01
  2.881832e+01    7.415102e-01
  2.883420e+01    7.531905e-01
  2.885007e+01    7.458060e-01
  2.886595e+01    7.298527e-01
  2.888183e+01    7.465736e-01
  2.889770e+01    7.245261e-01
  2.891358e+01    7.187819e-01
  2.892945e+01    7.241758e-01
  2.894533e+01    7.191877e-01
  2.896120e+01    7.385669e-01
  2.897708e+01    7.488143e-01
  2.899295e+01    7.576646e-01
  2.900883e+01    7.476540e-01
  2.902471e+01    7.453735e-01
  2.904058e+01    7.394617e-01
  2.905646e+01    7.210101e-01
  2.907233e+01    7.432329e-01
  2.908821e+01    7.201113e-01
  2.910408e+01    7.159274e-01
  2.911996e+01    7.394009e-01
  2.913583e+01    7.057013e-01
  2.915171e+01    7.137404e-01
  2.916759e+01    7.241123e-01
  2.918346e+01    7.391472e-01
  2.919934e+01    7.266200e-01
  2.921521e+01    7.470802e-01
  2.923109e+01    7.303308e-01
  2.924696e+01    7.145220e-01
  2.926284e+01    7.271686e-01
  2.927871e+01    7.284603e-01
  2.929459e+01    7.417194e-01
  2.931047e+01    7.236975e-01
  2.932634e+01    7.274765e-01
  2.934222e+01    7.365796e-01
  2.935809e+01    7.073570e-01
  2.937397e+01    7.360812e-01
  2.938984e+01    7.254096e-01
  2.940572e+01    7.225069e-01
  2.942159e+01    7.103363e-01
  2.943747e+01    7.053179e-01
  2.945335e+01    7.097653e-01
  2.946922e+01    7.157464e-01
  2.948510e+01    7.265763e-01
  2.950097e+01    7.157528e-01
  2.951685e+01    7.196838e-01
  2.953272e+01    7.248250e-01
  2.954860e+01    7.156988e-01
  2.956447e+01    7.185198e-01
  2.958035e+01    7.391258e-01
  2.959623e+01    7.387910e-01
  2.961210e+01    7.231099e-01
  2.962798e+01    7.056980e-01
  2.964385e+01    6.941827e-01
  2.965973e+01    7.183487e-01
  2.967560e+01    7.347612e-01
  2.969148e+01    7.212471e-01
  2.970736e+01    7.240883e-01
  2.972323e+01    7.215612e-01
  2.973911e+01    7.267682e-01
  2.975498e+01    7.168362e-01
  2.977086e+01    7.067176e-01
  2.978673e+01    7.118589e-01
  2.980261e+01    7.151048e-01
  2.981848e+01    7.043834e-01
  2.983436e+01    7.185040e-01
  2.985024e+01    7.176498e-01
  2.986611e+01    7.230003e-01
  2.988199e+01    7.257999e-01
  2.989786e+01    7.184604e-01
  2.991374e+01    7.192875e-01
  2.992961e+01    6.947903e-01
  2.994549e+01    7.062613e-01
  2.996136e+01    7.248179e-01
  2.997724e+01    7.374588e-01
  2.999312e+01    7.300211e-01
  3.000899e+01    7.356832e-01
  3.002487e+01    7.346555e-01
  3.004074e+01    7.264619e-01
  3.005662e+01    7.307027e-01
  3.007249e+01    7.228806e-01
  3.008837e+01    7.348011e-01
  3.010424e+01    7.298534e-01
  3.012012e+01    7.226213e-01
  3.013600e+01    6.989387e-01
  3.015187e+01    7.173288e-01
  3.016775e+01    7.244942e-01
  3.018362e+01    7.180355e-01
  3.019950e+01    7.153783e-01
  3.021537e+01    7.124711e-01
  3.023125e+01    7.070666e-01
  3.024712e+01    6.959632e-01
  3.026300e+01    7.072103e-01
  3.027888e+01    7.121228e-01
  3.029475e+01    7.072850e-01
  3.031063e+01    7.003275e-01
  3.032650e+01    7.178491e-01
  3.034238e+01    7.063510e-01
  3.035825e+01    7.009320e-01
  3.037413e+01    7.061322e-01
  3.039000e+01    7.214321e-01
  3.040588e+01    7.209302e-01
  3.042176e+01    7.133226e-01
  3.043763e+01    6.939943e-01
  3.045351e+01    6.844441e-01
  3.046938e+01    6.912367e-01
  3.048526e+01    7.133366e-01
  3.050113e+01    7.084813e-01
  3.051701e+01    7.022554e-01
  3.053288e+01    7.084789e-01
  3.054876e+01    7.202008e-01
  3.056464e+01    7.102895e-01
  3.058051e+01    6.971712e-01
  3.059639e+01    6.991518e-01
  3.061226e+01    7.148284e-01
  3.062814e+01    7.028095e-01
  3.064401e+01    7.119735e-01
  3.065989e+01    6.998223e-01
  3.067577e+01    7.204012e-01
  3.069164e+01    7.070559e-01
  3.070752e+01    7.136657e-01
  3.072339e+01    7.194998e-01
  3.073927e+01    6.985528e-01
  3.075514e+01    7.100975e-01
  3.077102e+01    6.941129e-01
  3.078689e+01    7.234929e-01
  3.080277e+01    7.250808e-01
  3.081865e+01    7.194424e-01
  3.083452e+01    7.203882e-01
  3.085040e+01    7.027786e-01
  3.086627e+01    7.030535e-01
  3.088215e+01    6.868342e-01
  3.089802e+01    7.012245e-01
  3.091390e+01    7.133432e-01
  3.092977e+01    7.033486e-01
  3.094565e+01    7.140275e-01
  3.096153e+01    6.887133e-01
  3.097740e+01    7.125124e-01
  3.099328e+01    6.989560e-01
  3.100915e+01    7.121884e-01
  3.102503e+01    7.163010e-01
  3.104090e+01    7.032098e-01
  3.105678e+01    7.128209e-01
  3.107265e+01    7.091774e-01
  3.108853e+01    7.056956e-01
  3.110441e+01    7.243022e-01
  3.112028e+01    6.955305e-01
  3.113616e+01    7.029873e-01
  3.115203e+01    7.024906e-01
  3.116791e+01    7.200376e-01
  3.118378e+01    7.249756e-01
  3.119966e+01    7.246455e-01
  3.121553e+01    7.326722e-01
  3.123141e+01    7.249815e-01
  3.124729e+01    7.147913e-01
  3.126316e+01    7.120154e-01
  3.127904e+01    7.088501e-01
  3.129491e+01    7.164341e-01
  3.131079e+01    7.226719e-01
  3.132666e+01    7.153475e-01
  3.134254e+01    7.372098e-01
  3.135841e+01    7.276173e-01
  3.137429e+01    7.360281e-01
  3.139017e+01    7.514774e-01
  3.140604e+01    7.456661e-01
  3.142192e+01    7.414258e-01
  3.143779e+01    7.381234e-01
  3.145367e+01    7.477323e-01
  3.146954e+01    7.613969e-01
  3.148542e+01    7.541637e-01
  3.150129e+01    7.752199e-01
  3.151717e+01    7.674847e-01
  3.153305e+01    7.686312e-01
  3.154892e+01    7.796381e-01
  3.156480e+01    7.941520e-01
  3.158067e+01    7.838548e-01
  3.159655e+01    7.824661e-01
  3.161242e+01    8.170944e-01
  3.162830e+01    8.386843e-01
  3.164418e+01    8.509258e-01
  3.166005e+01    8.601072e-01
  3.167593e+01    8.729293e-01
  3.169180e+01    9.180681e-01
  3.170768e+01    9.735348e-01
  3.172355e+01    1.037942e+00
  3.173943e+01    1.079992e+00
  3.175530e+01    1.089314e+00
  3.177118e+01    1.191537e+00
  3.178706e+01    1.291750e+00
  3.180293e+01    1.395352e+00
  3.181881e+01    1.527450e+00
  3.183468e+01    1.638794e+00
  3.185056e+01    1.792961e+00
  3.186643e+01    1.892920e+00
  3.188231e+01    2.071513e+00
  3.189818e+01    2.102375e+00
  3.191406e+01    2.159505e+00
  3.192994e+01    2.071621e+00
  3.194581e+01    1.948819e+00
  3.196169e+01    1.840899e+00
  3.197756e+01    1.688420e+00
  3.199344e+01    1.552680e+00
  3.200931e+01    1.429215e+00
  3.202519e+01    1.306248e+00
  3.204106e+01    1.205750e+00
  3.205694e+01    1.134239e+00
  3.207282e+01    1.048196e+00
  3.208869e+01    9.802803e-01
  3.210457e+01    9.538110e-01
  3.212044e+01    9.097700e-01
  3.213632e+01    8.612319e-01
  3.215219e+01    8.484121e-01
  3.216807e+01    8.323861e-01
  3.218394e+01    8.051662e-01
  3.219982e+01    7.823026e-01
  3.221570e+01    7.838835e-01
  3.223157e+01    7.798468e-01
  3.224745e+01    7.929195e-01
  3.226332e+01    7.911692e-01
  3.227920e+01    7.739229e-01
  3.229507e+01    7.561783e-01
  3.231095e+01    7.418177e-01
  3.232682e+01    7.428341e-01
  3.234270e+01    7.511289e-01
  3.235858e+01    7.753347e-01
  3.237445e+01    7.530902e-01
  3.239033e+01    7.418280e-01
  3.240620e+01    7.282698e-01
  3.242208e+01    7.260855e-01
  3.243795e+01    6.902618e-01
  3.245383e+01    7.250917e-01
  3.246970e+01    7.304068e-01
  3.248558e+01    7.166156e-01
  3.250146e+01    7.030838e-01
  3.251733e+01    7.080839e-01
  3.253321e+01    7.189379e-01
  3.254908e+01    7.210714e-01
