# == pyFAI calibration ==
# Distance Sample to Detector: 0.3999999939076516 m
# PONI: 9.750e-02, 1.135e-01 m
# Rotations: -0.000175 0.000000 -0.000000 rad
# 
# == Fit2d calibration ==
# Distance Sample-beamCenter: 400.000 mm
# Center: x=1514.000, y=1300.000 pix
# Tilt: 0.010 deg  TiltPlanRot: 0.010 deg
# 
# Detector Detector	 Spline= None	 PixelSize= 7.500e-05, 7.500e-05 m
#    Detector has a mask: False 
#    Detector has a dark current: False 
#    detector has a flat field: False 
# 
# Wavelength: 6.888e-11 m
# Mask applied: user provided
# Dark current applied: False
# Flat field applied: False
# Polarization factor: 0.99
# Normalization factor: 1.0
# --> /home/myspot/data/2024_07_Rosario/Ru-CGO-ex/2024-07-27_002_Ru-CGO-ex_Activtation_ramp_000002_data_000107.dat
#       q_nm^-1             I 
  2.003187e-02    0.000000e+00
  3.590745e-02    0.000000e+00
  5.178302e-02    4.718721e-02
  6.765859e-02    5.307340e-02
  8.353417e-02    2.025472e-01
  9.940974e-02    2.721631e-01
  1.152853e-01    9.172861e-02
  1.311609e-01    2.671745e-03
  1.470365e-01    0.000000e+00
  1.629120e-01    0.000000e+00
  1.787876e-01    2.446919e-02
  1.946632e-01    1.063253e-02
  2.105388e-01    3.227828e-02
  2.264143e-01    4.252104e-02
  2.422899e-01    5.149697e-02
  2.581655e-01    4.765493e-02
  2.740411e-01    1.399450e-02
  2.899166e-01    2.711495e-02
  3.057922e-01    7.633058e-02
  3.216678e-01    4.638419e-02
  3.375433e-01    1.367892e-02
  3.534189e-01    4.214508e-02
  3.692945e-01    3.923972e-02
  3.851701e-01    4.569471e-02
  4.010456e-01    3.154769e-02
  4.169212e-01    2.775298e-02
  4.327968e-01    3.115052e-02
  4.486724e-01    5.571163e-02
  4.645479e-01    7.635222e-02
  4.804235e-01    6.433056e-02
  4.962991e-01    4.237172e-02
  5.121747e-01    6.265210e-02
  5.280502e-01    4.912032e-02
  5.439258e-01    3.669168e-02
  5.598014e-01    2.782534e-02
  5.756770e-01    2.663266e-02
  5.915525e-01    5.641276e-02
  6.074281e-01    3.881193e-02
  6.233037e-01    2.775024e-02
  6.391793e-01    3.356756e-02
  6.550548e-01    4.046983e-02
  6.709304e-01    3.772476e-02
  6.868060e-01    1.024121e-02
  7.026815e-01    2.099493e-02
  7.185571e-01    5.203584e-02
  7.344327e-01    5.803614e-02
  7.503083e-01    5.108748e-02
  7.661838e-01    6.091977e-02
  7.820594e-01    1.043033e-01
  7.979350e-01    1.251388e-01
  8.138106e-01    2.111977e-01
  8.296861e-01    2.629220e-01
  8.455617e-01    2.793374e-01
  8.614373e-01    3.875899e-01
  8.773129e-01    4.087017e-01
  8.931884e-01    4.321712e-01
  9.090640e-01    5.485530e-01
  9.249396e-01    6.252926e-01
  9.408152e-01    7.166336e-01
  9.566907e-01    7.507320e-01
  9.725663e-01    8.443001e-01
  9.884419e-01    9.066610e-01
  1.004317e+00    1.116713e+00
  1.020193e+00    1.161936e+00
  1.036069e+00    1.174940e+00
  1.051944e+00    1.240560e+00
  1.067820e+00    1.346821e+00
  1.083695e+00    1.363374e+00
  1.099571e+00    1.395662e+00
  1.115446e+00    1.430088e+00
  1.131322e+00    1.434329e+00
  1.147198e+00    1.496572e+00
  1.163073e+00    1.474056e+00
  1.178949e+00    1.558741e+00
  1.194824e+00    1.637703e+00
  1.210700e+00    1.675307e+00
  1.226575e+00    1.971368e+00
  1.242451e+00    2.200118e+00
  1.258327e+00    2.218210e+00
  1.274202e+00    2.296789e+00
  1.290078e+00    2.549446e+00
  1.305953e+00    2.437741e+00
  1.321829e+00    2.364254e+00
  1.337705e+00    2.479514e+00
  1.353580e+00    2.467354e+00
  1.369456e+00    2.522146e+00
  1.385331e+00    2.603682e+00
  1.401207e+00    2.660057e+00
  1.417082e+00    2.628759e+00
  1.432958e+00    2.560565e+00
  1.448834e+00    2.733847e+00
  1.464709e+00    2.750854e+00
  1.480585e+00    2.789895e+00
  1.496460e+00    2.852215e+00
  1.512336e+00    2.910337e+00
  1.528211e+00    2.915648e+00
  1.544087e+00    2.821530e+00
  1.559963e+00    2.956631e+00
  1.575838e+00    2.870912e+00
  1.591714e+00    2.916919e+00
  1.607589e+00    3.019306e+00
  1.623465e+00    2.889119e+00
  1.639340e+00    2.933964e+00
  1.655216e+00    2.907365e+00
  1.671092e+00    2.864086e+00
  1.686967e+00    2.704962e+00
  1.702843e+00    2.741428e+00
  1.718718e+00    2.766484e+00
  1.734594e+00    2.834928e+00
  1.750469e+00    2.808299e+00
  1.766345e+00    2.749250e+00
  1.782221e+00    2.691991e+00
  1.798096e+00    2.692795e+00
  1.813972e+00    2.639758e+00
  1.829847e+00    2.692785e+00
  1.845723e+00    2.788231e+00
  1.861598e+00    2.903542e+00
  1.877474e+00    2.753375e+00
  1.893350e+00    2.708315e+00
  1.909225e+00    2.683794e+00
  1.925101e+00    2.696058e+00
  1.940976e+00    2.777250e+00
  1.956852e+00    2.776849e+00
  1.972727e+00    2.657081e+00
  1.988603e+00    2.694646e+00
  2.004479e+00    2.761855e+00
  2.020354e+00    2.713687e+00
  2.036230e+00    2.612777e+00
  2.052105e+00    2.608599e+00
  2.067981e+00    2.740407e+00
  2.083856e+00    2.835875e+00
  2.099732e+00    2.687726e+00
  2.115608e+00    2.700502e+00
  2.131483e+00    2.746231e+00
  2.147359e+00    2.707893e+00
  2.163234e+00    2.680603e+00
  2.179110e+00    2.555312e+00
  2.194985e+00    2.682813e+00
  2.210861e+00    2.784660e+00
  2.226737e+00    2.770400e+00
  2.242612e+00    2.728392e+00
  2.258488e+00    2.639038e+00
  2.274363e+00    2.699672e+00
  2.290239e+00    2.657516e+00
  2.306115e+00    2.653041e+00
  2.321990e+00    2.666696e+00
  2.337866e+00    2.751962e+00
  2.353741e+00    2.642859e+00
  2.369617e+00    2.735932e+00
  2.385492e+00    2.764755e+00
  2.401368e+00    2.706701e+00
  2.417244e+00    2.657661e+00
  2.433119e+00    2.754805e+00
  2.448995e+00    2.787562e+00
  2.464870e+00    2.836550e+00
  2.480746e+00    2.697203e+00
  2.496621e+00    2.662839e+00
  2.512497e+00    2.691281e+00
  2.528373e+00    2.777261e+00
  2.544248e+00    2.840407e+00
  2.560124e+00    2.706144e+00
  2.575999e+00    2.833255e+00
  2.591875e+00    2.778707e+00
  2.607750e+00    2.693122e+00
  2.623626e+00    2.699100e+00
  2.639502e+00    2.721566e+00
  2.655377e+00    2.793531e+00
  2.671253e+00    2.802284e+00
  2.687128e+00    2.784662e+00
  2.703004e+00    2.802204e+00
  2.718879e+00    2.752172e+00
  2.734755e+00    2.770945e+00
  2.750631e+00    2.868958e+00
  2.766506e+00    2.759780e+00
  2.782382e+00    2.802553e+00
  2.798257e+00    2.837651e+00
  2.814133e+00    2.795840e+00
  2.830008e+00    2.812163e+00
  2.845884e+00    2.869501e+00
  2.861760e+00    2.761096e+00
  2.877635e+00    2.799273e+00
  2.893511e+00    2.819752e+00
  2.909386e+00    2.767214e+00
  2.925262e+00    2.807770e+00
  2.941137e+00    2.774396e+00
  2.957013e+00    2.834432e+00
  2.972889e+00    2.804055e+00
  2.988764e+00    2.743451e+00
  3.004640e+00    2.772145e+00
  3.020515e+00    2.801273e+00
  3.036391e+00    2.900916e+00
  3.052266e+00    2.913090e+00
  3.068142e+00    2.833491e+00
  3.084018e+00    2.706084e+00
  3.099893e+00    2.783067e+00
  3.115769e+00    2.880970e+00
  3.131644e+00    2.824392e+00
  3.147520e+00    2.822701e+00
  3.163395e+00    2.824347e+00
  3.179271e+00    2.917267e+00
  3.195147e+00    2.876145e+00
  3.211022e+00    2.789356e+00
  3.226898e+00    2.791615e+00
  3.242773e+00    2.819040e+00
  3.258649e+00    2.889920e+00
  3.274525e+00    2.947183e+00
  3.290400e+00    2.883640e+00
  3.306276e+00    2.863038e+00
  3.322151e+00    2.909403e+00
  3.338027e+00    2.921367e+00
  3.353902e+00    2.846461e+00
  3.369778e+00    2.833799e+00
  3.385654e+00    2.944278e+00
  3.401529e+00    2.924221e+00
  3.417405e+00    2.886654e+00
  3.433280e+00    2.918643e+00
  3.449156e+00    2.883899e+00
  3.465031e+00    2.822381e+00
  3.480907e+00    2.851225e+00
  3.496783e+00    2.892674e+00
  3.512658e+00    2.928985e+00
  3.528534e+00    2.949036e+00
  3.544409e+00    2.918127e+00
  3.560285e+00    2.941664e+00
  3.576160e+00    2.931355e+00
  3.592036e+00    2.974624e+00
  3.607912e+00    2.930617e+00
  3.623787e+00    2.960302e+00
  3.639663e+00    2.986363e+00
  3.655538e+00    3.022389e+00
  3.671414e+00    2.951802e+00
  3.687289e+00    2.850279e+00
  3.703165e+00    2.922680e+00
  3.719041e+00    2.991740e+00
  3.734916e+00    2.966927e+00
  3.750792e+00    2.950385e+00
  3.766667e+00    2.977209e+00
  3.782543e+00    2.983127e+00
  3.798418e+00    2.960356e+00
  3.814294e+00    2.960885e+00
  3.830170e+00    2.990059e+00
  3.846045e+00    2.944369e+00
  3.861921e+00    2.905363e+00
  3.877796e+00    2.964390e+00
  3.893672e+00    3.012797e+00
  3.909547e+00    2.982314e+00
  3.925423e+00    3.005932e+00
  3.941299e+00    3.017926e+00
  3.957174e+00    2.974611e+00
  3.973050e+00    2.893927e+00
  3.988925e+00    2.799585e+00
  4.004801e+00    2.952704e+00
  4.020676e+00    3.041218e+00
  4.036552e+00    2.958392e+00
  4.052428e+00    2.965889e+00
  4.068303e+00    3.035811e+00
  4.084179e+00    3.076994e+00
  4.100054e+00    3.004160e+00
  4.115930e+00    2.983743e+00
  4.131806e+00    2.909295e+00
  4.147681e+00    2.979144e+00
  4.163557e+00    3.016127e+00
  4.179432e+00    3.087212e+00
  4.195308e+00    3.022513e+00
  4.211183e+00    3.022925e+00
  4.227059e+00    3.041110e+00
  4.242935e+00    2.995847e+00
  4.258810e+00    3.028765e+00
  4.274686e+00    2.967318e+00
  4.290561e+00    2.946637e+00
  4.306437e+00    2.982623e+00
  4.322312e+00    2.949784e+00
  4.338188e+00    2.931200e+00
  4.354064e+00    2.971290e+00
  4.369939e+00    3.035191e+00
  4.385815e+00    2.910598e+00
  4.401690e+00    2.961797e+00
  4.417566e+00    3.055058e+00
  4.433441e+00    3.026299e+00
  4.449317e+00    3.001888e+00
  4.465193e+00    2.983664e+00
  4.481068e+00    3.041968e+00
  4.496944e+00    3.080444e+00
  4.512819e+00    3.040829e+00
  4.528695e+00    2.872563e+00
  4.544570e+00    2.952881e+00
  4.560446e+00    3.019957e+00
  4.576322e+00    3.002087e+00
  4.592197e+00    2.994323e+00
  4.608073e+00    3.102368e+00
  4.623948e+00    3.062750e+00
  4.639824e+00    3.047773e+00
  4.655699e+00    3.056029e+00
  4.671575e+00    3.040395e+00
  4.687451e+00    3.086239e+00
  4.703326e+00    3.074567e+00
  4.719202e+00    3.054675e+00
  4.735077e+00    3.065196e+00
  4.750953e+00    3.006400e+00
  4.766828e+00    2.966751e+00
  4.782704e+00    3.050683e+00
  4.798580e+00    3.000984e+00
  4.814455e+00    3.050525e+00
  4.830331e+00    3.077057e+00
  4.846206e+00    3.014434e+00
  4.862082e+00    3.021095e+00
  4.877957e+00    3.083317e+00
  4.893833e+00    3.066781e+00
  4.909709e+00    3.054900e+00
  4.925584e+00    3.052328e+00
  4.941460e+00    3.005451e+00
  4.957335e+00    3.021399e+00
  4.973211e+00    3.038826e+00
  4.989086e+00    3.098969e+00
  5.004962e+00    3.087800e+00
  5.020838e+00    3.060748e+00
  5.036713e+00    3.047976e+00
  5.052589e+00    3.041895e+00
  5.068464e+00    3.071220e+00
  5.084340e+00    3.017436e+00
  5.100216e+00    3.106157e+00
  5.116091e+00    3.152661e+00
  5.131967e+00    3.122657e+00
  5.147842e+00    3.061736e+00
  5.163718e+00    3.043232e+00
  5.179593e+00    3.036705e+00
  5.195469e+00    3.075243e+00
  5.211345e+00    2.974435e+00
  5.227220e+00    2.934174e+00
  5.243096e+00    3.009438e+00
  5.258971e+00    3.142151e+00
  5.274847e+00    3.048633e+00
  5.290722e+00    3.088298e+00
  5.306598e+00    3.089447e+00
  5.322474e+00    3.061033e+00
  5.338349e+00    3.068440e+00
  5.354225e+00    3.091663e+00
  5.370100e+00    3.144069e+00
  5.385976e+00    3.087815e+00
  5.401851e+00    3.094779e+00
  5.417727e+00    3.076885e+00
  5.433603e+00    3.090215e+00
  5.449478e+00    3.028771e+00
  5.465354e+00    2.978787e+00
  5.481229e+00    2.984067e+00
  5.497105e+00    3.078531e+00
  5.512980e+00    3.059973e+00
  5.528856e+00    2.971221e+00
  5.544732e+00    3.086815e+00
  5.560607e+00    3.030079e+00
  5.576483e+00    3.072518e+00
  5.592358e+00    3.105611e+00
  5.608234e+00    2.997899e+00
  5.624109e+00    2.968296e+00
  5.639985e+00    2.983284e+00
  5.655861e+00    3.024229e+00
  5.671736e+00    3.086861e+00
  5.687612e+00    3.071434e+00
  5.703487e+00    2.972719e+00
  5.719363e+00    2.947596e+00
  5.735238e+00    3.007670e+00
  5.751114e+00    3.056246e+00
  5.766990e+00    3.109212e+00
  5.782865e+00    2.974651e+00
  5.798741e+00    2.876578e+00
  5.814616e+00    3.005417e+00
  5.830492e+00    3.055784e+00
  5.846367e+00    2.999785e+00
  5.862243e+00    2.987228e+00
  5.878119e+00    2.939077e+00
  5.893994e+00    3.009622e+00
  5.909870e+00    3.075452e+00
  5.925745e+00    3.003524e+00
  5.941621e+00    2.939961e+00
  5.957497e+00    2.935624e+00
  5.973372e+00    2.977629e+00
  5.989248e+00    2.974354e+00
  6.005123e+00    3.019673e+00
  6.020999e+00    3.031985e+00
  6.036874e+00    3.000885e+00
  6.052750e+00    3.002539e+00
  6.068626e+00    3.000310e+00
  6.084501e+00    3.071847e+00
  6.100377e+00    3.029073e+00
  6.116252e+00    3.069432e+00
  6.132128e+00    2.987380e+00
  6.148003e+00    3.038480e+00
  6.163879e+00    3.054763e+00
  6.179755e+00    3.015238e+00
  6.195630e+00    3.048440e+00
  6.211506e+00    3.034896e+00
  6.227381e+00    3.071592e+00
  6.243257e+00    2.994232e+00
  6.259132e+00    3.097639e+00
  6.275008e+00    3.023284e+00
  6.290884e+00    2.949075e+00
  6.306759e+00    2.896539e+00
  6.322635e+00    2.941015e+00
  6.338510e+00    3.023075e+00
  6.354386e+00    3.052243e+00
  6.370261e+00    3.030553e+00
  6.386137e+00    2.983151e+00
  6.402013e+00    2.900136e+00
  6.417888e+00    2.998928e+00
  6.433764e+00    3.030881e+00
  6.449639e+00    3.029072e+00
  6.465515e+00    3.010326e+00
  6.481390e+00    2.993655e+00
  6.497266e+00    2.909378e+00
  6.513142e+00    2.787063e+00
  6.529017e+00    2.906620e+00
  6.544893e+00    2.915460e+00
  6.560768e+00    2.960202e+00
  6.576644e+00    2.995562e+00
  6.592519e+00    2.932956e+00
  6.608395e+00    2.912813e+00
  6.624271e+00    3.005381e+00
  6.640146e+00    2.938250e+00
  6.656022e+00    2.927386e+00
  6.671897e+00    2.938124e+00
  6.687773e+00    2.938579e+00
  6.703648e+00    2.985553e+00
  6.719524e+00    2.985946e+00
  6.735400e+00    3.030168e+00
  6.751275e+00    3.046633e+00
  6.767151e+00    2.959469e+00
  6.783026e+00    2.931253e+00
  6.798902e+00    2.995247e+00
  6.814777e+00    2.962313e+00
  6.830653e+00    2.984714e+00
  6.846529e+00    2.919843e+00
  6.862404e+00    2.935015e+00
  6.878280e+00    3.070183e+00
  6.894155e+00    3.028153e+00
  6.910031e+00    3.026657e+00
  6.925907e+00    2.995145e+00
  6.941782e+00    2.983057e+00
  6.957658e+00    2.933216e+00
  6.973533e+00    2.948739e+00
  6.989409e+00    2.932488e+00
  7.005284e+00    2.926000e+00
  7.021160e+00    2.965226e+00
  7.037036e+00    2.945058e+00
  7.052911e+00    2.927096e+00
  7.068787e+00    2.986537e+00
  7.084662e+00    3.039754e+00
  7.100538e+00    3.018304e+00
  7.116413e+00    2.897054e+00
  7.132289e+00    2.928852e+00
  7.148165e+00    2.985761e+00
  7.164040e+00    2.979827e+00
  7.179916e+00    2.994591e+00
  7.195791e+00    2.949037e+00
  7.211667e+00    2.882133e+00
  7.227542e+00    2.919461e+00
  7.243418e+00    3.004035e+00
  7.259294e+00    2.948632e+00
  7.275169e+00    2.965138e+00
  7.291045e+00    2.995996e+00
  7.306920e+00    2.960888e+00
  7.322796e+00    2.871608e+00
  7.338671e+00    2.882528e+00
  7.354547e+00    2.945810e+00
  7.370423e+00    2.941863e+00
  7.386298e+00    2.929874e+00
  7.402174e+00    2.873079e+00
  7.418049e+00    2.890540e+00
  7.433925e+00    2.936406e+00
  7.449800e+00    2.961976e+00
  7.465676e+00    2.952425e+00
  7.481552e+00    2.922164e+00
  7.497427e+00    2.946777e+00
  7.513303e+00    2.996412e+00
  7.529178e+00    2.945093e+00
  7.545054e+00    2.966846e+00
  7.560929e+00    2.897551e+00
  7.576805e+00    2.910797e+00
  7.592681e+00    2.928310e+00
  7.608556e+00    2.901249e+00
  7.624432e+00    2.945809e+00
  7.640307e+00    2.865323e+00
  7.656183e+00    2.870185e+00
  7.672058e+00    2.950735e+00
  7.687934e+00    2.910457e+00
  7.703810e+00    2.874838e+00
  7.719685e+00    2.894089e+00
  7.735561e+00    2.958616e+00
  7.751436e+00    2.944452e+00
  7.767312e+00    2.883996e+00
  7.783187e+00    2.891930e+00
  7.799063e+00    2.885330e+00
  7.814939e+00    2.902480e+00
  7.830814e+00    2.872801e+00
  7.846690e+00    2.913594e+00
  7.862565e+00    2.963422e+00
  7.878441e+00    2.817729e+00
  7.894317e+00    2.854993e+00
  7.910192e+00    2.843731e+00
  7.926068e+00    2.904271e+00
  7.941943e+00    2.856540e+00
  7.957819e+00    2.899313e+00
  7.973694e+00    2.919082e+00
  7.989570e+00    2.935435e+00
  8.005446e+00    2.880378e+00
  8.021321e+00    2.810833e+00
  8.037197e+00    2.853865e+00
  8.053072e+00    2.923462e+00
  8.068948e+00    2.891039e+00
  8.084823e+00    2.846220e+00
  8.100699e+00    2.918870e+00
  8.116575e+00    2.946345e+00
  8.132450e+00    2.873928e+00
  8.148326e+00    2.903673e+00
  8.164201e+00    2.994030e+00
  8.180077e+00    2.876313e+00
  8.195952e+00    2.861993e+00
  8.211828e+00    2.850853e+00
  8.227704e+00    2.902913e+00
  8.243579e+00    2.921001e+00
  8.259455e+00    2.921881e+00
  8.275330e+00    2.905380e+00
  8.291206e+00    2.846063e+00
  8.307081e+00    2.893729e+00
  8.322957e+00    2.903000e+00
  8.338833e+00    2.904263e+00
  8.354708e+00    2.904826e+00
  8.370584e+00    2.918272e+00
  8.386459e+00    2.916610e+00
  8.402335e+00    2.852131e+00
  8.418210e+00    2.816666e+00
  8.434086e+00    2.828927e+00
  8.449962e+00    2.813132e+00
  8.465837e+00    2.838340e+00
  8.481713e+00    2.841926e+00
  8.497588e+00    2.811064e+00
  8.513464e+00    2.806963e+00
  8.529339e+00    2.859198e+00
  8.545215e+00    2.839212e+00
  8.561091e+00    2.772887e+00
  8.576966e+00    2.802396e+00
  8.592842e+00    2.777159e+00
  8.608717e+00    2.834432e+00
  8.624593e+00    2.826994e+00
  8.640468e+00    2.818568e+00
  8.656344e+00    2.842425e+00
  8.672220e+00    2.803340e+00
  8.688095e+00    2.766501e+00
  8.703971e+00    2.809371e+00
  8.719846e+00    2.840226e+00
  8.735722e+00    2.766905e+00
  8.751598e+00    2.815348e+00
  8.767473e+00    2.823662e+00
  8.783349e+00    2.788200e+00
  8.799224e+00    2.856035e+00
  8.815100e+00    2.839872e+00
  8.830975e+00    2.805802e+00
  8.846851e+00    2.798193e+00
  8.862727e+00    2.816719e+00
  8.878602e+00    2.755691e+00
  8.894478e+00    2.752028e+00
  8.910353e+00    2.864781e+00
  8.926229e+00    2.839869e+00
  8.942104e+00    2.782293e+00
  8.957980e+00    2.816240e+00
  8.973856e+00    2.768162e+00
  8.989731e+00    2.787130e+00
  9.005607e+00    2.836147e+00
  9.021482e+00    2.837413e+00
  9.037358e+00    2.767780e+00
  9.053233e+00    2.785238e+00
  9.069109e+00    2.836626e+00
  9.084985e+00    2.852416e+00
  9.100860e+00    2.804180e+00
  9.116736e+00    2.761330e+00
  9.132611e+00    2.785830e+00
  9.148487e+00    2.716850e+00
  9.164362e+00    2.723456e+00
  9.180238e+00    2.806663e+00
  9.196114e+00    2.754693e+00
  9.211989e+00    2.760802e+00
  9.227865e+00    2.811021e+00
  9.243740e+00    2.785897e+00
  9.259616e+00    2.729390e+00
  9.275491e+00    2.743567e+00
  9.291367e+00    2.754081e+00
  9.307243e+00    2.669173e+00
  9.323118e+00    2.723331e+00
  9.338994e+00    2.746023e+00
  9.354869e+00    2.725974e+00
  9.370745e+00    2.691175e+00
  9.386620e+00    2.712478e+00
  9.402496e+00    2.716072e+00
  9.418372e+00    2.717839e+00
  9.434247e+00    2.729808e+00
  9.450123e+00    2.717328e+00
  9.465998e+00    2.697839e+00
  9.481874e+00    2.711152e+00
  9.497749e+00    2.710391e+00
  9.513625e+00    2.697094e+00
  9.529501e+00    2.722367e+00
  9.545376e+00    2.731375e+00
  9.561252e+00    2.732916e+00
  9.577127e+00    2.720672e+00
  9.593003e+00    2.677078e+00
  9.608878e+00    2.690636e+00
  9.624754e+00    2.694844e+00
  9.640630e+00    2.714618e+00
  9.656505e+00    2.651154e+00
  9.672381e+00    2.654898e+00
  9.688256e+00    2.654914e+00
  9.704132e+00    2.670883e+00
  9.720008e+00    2.659059e+00
  9.735883e+00    2.656782e+00
  9.751759e+00    2.634720e+00
  9.767634e+00    2.663208e+00
  9.783510e+00    2.682333e+00
  9.799385e+00    2.708156e+00
  9.815261e+00    2.706756e+00
  9.831137e+00    2.696368e+00
  9.847012e+00    2.640362e+00
  9.862888e+00    2.640984e+00
  9.878763e+00    2.634211e+00
  9.894639e+00    2.609353e+00
  9.910514e+00    2.578558e+00
  9.926390e+00    2.612656e+00
  9.942266e+00    2.603640e+00
  9.958141e+00    2.621766e+00
  9.974017e+00    2.610652e+00
  9.989892e+00    2.622294e+00
  1.000577e+01    2.649314e+00
  1.002164e+01    2.660501e+00
  1.003752e+01    2.625119e+00
  1.005339e+01    2.647219e+00
  1.006927e+01    2.681806e+00
  1.008515e+01    2.660253e+00
  1.010102e+01    2.633425e+00
  1.011690e+01    2.631332e+00
  1.013277e+01    2.591553e+00
  1.014865e+01    2.550267e+00
  1.016452e+01    2.554804e+00
  1.018040e+01    2.588784e+00
  1.019627e+01    2.626995e+00
  1.021215e+01    2.626919e+00
  1.022803e+01    2.592156e+00
  1.024390e+01    2.579506e+00
  1.025978e+01    2.594057e+00
  1.027565e+01    2.560162e+00
  1.029153e+01    2.586027e+00
  1.030740e+01    2.576332e+00
  1.032328e+01    2.600075e+00
  1.033915e+01    2.600418e+00
  1.035503e+01    2.569221e+00
  1.037091e+01    2.595319e+00
  1.038678e+01    2.572726e+00
  1.040266e+01    2.603498e+00
  1.041853e+01    2.589650e+00
  1.043441e+01    2.586141e+00
  1.045028e+01    2.567526e+00
  1.046616e+01    2.591215e+00
  1.048204e+01    2.616725e+00
  1.049791e+01    2.565591e+00
  1.051379e+01    2.537283e+00
  1.052966e+01    2.560465e+00
  1.054554e+01    2.545184e+00
  1.056141e+01    2.545836e+00
  1.057729e+01    2.530958e+00
  1.059316e+01    2.504001e+00
  1.060904e+01    2.512259e+00
  1.062492e+01    2.513340e+00
  1.064079e+01    2.548634e+00
  1.065667e+01    2.534975e+00
  1.067254e+01    2.497794e+00
  1.068842e+01    2.491354e+00
  1.070429e+01    2.464279e+00
  1.072017e+01    2.467070e+00
  1.073604e+01    2.525237e+00
  1.075192e+01    2.563087e+00
  1.076780e+01    2.525734e+00
  1.078367e+01    2.512867e+00
  1.079955e+01    2.511924e+00
  1.081542e+01    2.516930e+00
  1.083130e+01    2.497238e+00
  1.084717e+01    2.439903e+00
  1.086305e+01    2.446358e+00
  1.087892e+01    2.482591e+00
  1.089480e+01    2.450539e+00
  1.091068e+01    2.403264e+00
  1.092655e+01    2.431625e+00
  1.094243e+01    2.438985e+00
  1.095830e+01    2.477089e+00
  1.097418e+01    2.460165e+00
  1.099005e+01    2.455828e+00
  1.100593e+01    2.484572e+00
  1.102180e+01    2.476907e+00
  1.103768e+01    2.462445e+00
  1.105356e+01    2.493774e+00
  1.106943e+01    2.446627e+00
  1.108531e+01    2.426999e+00
  1.110118e+01    2.400537e+00
  1.111706e+01    2.413613e+00
  1.113293e+01    2.424505e+00
  1.114881e+01    2.405782e+00
  1.116468e+01    2.405208e+00
  1.118056e+01    2.396392e+00
  1.119644e+01    2.418826e+00
  1.121231e+01    2.399294e+00
  1.122819e+01    2.401397e+00
  1.124406e+01    2.409972e+00
  1.125994e+01    2.433127e+00
  1.127581e+01    2.433994e+00
  1.129169e+01    2.433381e+00
  1.130756e+01    2.451358e+00
  1.132344e+01    2.416943e+00
  1.133932e+01    2.433557e+00
  1.135519e+01    2.424179e+00
  1.137107e+01    2.401062e+00
  1.138694e+01    2.358276e+00
  1.140282e+01    2.376648e+00
  1.141869e+01    2.386749e+00
  1.143457e+01    2.382804e+00
  1.145045e+01    2.368297e+00
  1.146632e+01    2.338308e+00
  1.148220e+01    2.345021e+00
  1.149807e+01    2.326801e+00
  1.151395e+01    2.353631e+00
  1.152982e+01    2.333490e+00
  1.154570e+01    2.315144e+00
  1.156157e+01    2.327299e+00
  1.157745e+01    2.297723e+00
  1.159333e+01    2.329128e+00
  1.160920e+01    2.363190e+00
  1.162508e+01    2.361276e+00
  1.164095e+01    2.366372e+00
  1.165683e+01    2.365023e+00
  1.167270e+01    2.348158e+00
  1.168858e+01    2.347301e+00
  1.170445e+01    2.369079e+00
  1.172033e+01    2.371044e+00
  1.173621e+01    2.326489e+00
  1.175208e+01    2.334761e+00
  1.176796e+01    2.340567e+00
  1.178383e+01    2.303150e+00
  1.179971e+01    2.318914e+00
  1.181558e+01    2.303409e+00
  1.183146e+01    2.285096e+00
  1.184733e+01    2.324032e+00
  1.186321e+01    2.338112e+00
  1.187909e+01    2.299731e+00
  1.189496e+01    2.310123e+00
  1.191084e+01    2.292307e+00
  1.192671e+01    2.304105e+00
  1.194259e+01    2.284925e+00
  1.195846e+01    2.301195e+00
  1.197434e+01    2.329355e+00
  1.199021e+01    2.339093e+00
  1.200609e+01    2.342278e+00
  1.202197e+01    2.312058e+00
  1.203784e+01    2.298731e+00
  1.205372e+01    2.286707e+00
  1.206959e+01    2.317650e+00
  1.208547e+01    2.311721e+00
  1.210134e+01    2.233347e+00
  1.211722e+01    2.274606e+00
  1.213309e+01    2.315806e+00
  1.214897e+01    2.294962e+00
  1.216485e+01    2.286750e+00
  1.218072e+01    2.276206e+00
  1.219660e+01    2.263235e+00
  1.221247e+01    2.346877e+00
  1.222835e+01    2.300977e+00
  1.224422e+01    2.247149e+00
  1.226010e+01    2.270421e+00
  1.227597e+01    2.330784e+00
  1.229185e+01    2.333079e+00
  1.230773e+01    2.276535e+00
  1.232360e+01    2.290463e+00
  1.233948e+01    2.285885e+00
  1.235535e+01    2.337151e+00
  1.237123e+01    2.313116e+00
  1.238710e+01    2.257143e+00
  1.240298e+01    2.240828e+00
  1.241886e+01    2.279326e+00
  1.243473e+01    2.261445e+00
  1.245061e+01    2.297903e+00
  1.246648e+01    2.297544e+00
  1.248236e+01    2.289388e+00
  1.249823e+01    2.316507e+00
  1.251411e+01    2.356295e+00
  1.252998e+01    2.375807e+00
  1.254586e+01    2.317186e+00
  1.256174e+01    2.317381e+00
  1.257761e+01    2.374781e+00
  1.259349e+01    2.376207e+00
  1.260936e+01    2.326419e+00
  1.262524e+01    2.353062e+00
  1.264111e+01    2.373421e+00
  1.265699e+01    2.378086e+00
  1.267286e+01    2.398957e+00
  1.268874e+01    2.417422e+00
  1.270462e+01    2.422391e+00
  1.272049e+01    2.481711e+00
  1.273637e+01    2.447286e+00
  1.275224e+01    2.461710e+00
  1.276812e+01    2.531609e+00
  1.278399e+01    2.553127e+00
  1.279987e+01    2.620099e+00
  1.281574e+01    2.684396e+00
  1.283162e+01    2.740928e+00
  1.284750e+01    2.785786e+00
  1.286337e+01    2.885216e+00
  1.287925e+01    2.970840e+00
  1.289512e+01    3.120556e+00
  1.291100e+01    3.258512e+00
  1.292687e+01    3.444973e+00
  1.294275e+01    3.701516e+00
  1.295862e+01    3.969162e+00
  1.297450e+01    4.294820e+00
  1.299038e+01    4.789733e+00
  1.300625e+01    5.363202e+00
  1.302213e+01    6.092805e+00
  1.303800e+01    7.051888e+00
  1.305388e+01    8.139428e+00
  1.306975e+01    9.396329e+00
  1.308563e+01    1.077929e+01
  1.310150e+01    1.205395e+01
  1.311738e+01    1.337626e+01
  1.313326e+01    1.463104e+01
  1.314913e+01    1.576744e+01
  1.316501e+01    1.684928e+01
  1.318088e+01    1.749437e+01
  1.319676e+01    1.749952e+01
  1.321263e+01    1.638496e+01
  1.322851e+01    1.463098e+01
  1.324438e+01    1.260711e+01
  1.326026e+01    1.057951e+01
  1.327614e+01    8.783048e+00
  1.329201e+01    7.484806e+00
  1.330789e+01    6.412917e+00
  1.332376e+01    5.603766e+00
  1.333964e+01    4.971682e+00
  1.335551e+01    4.477669e+00
  1.337139e+01    4.112610e+00
  1.338727e+01    3.816736e+00
  1.340314e+01    3.516555e+00
  1.341902e+01    3.351205e+00
  1.343489e+01    3.172793e+00
  1.345077e+01    3.020216e+00
  1.346664e+01    2.885362e+00
  1.348252e+01    2.754632e+00
  1.349839e+01    2.663378e+00
  1.351427e+01    2.666616e+00
  1.353015e+01    2.630116e+00
  1.354602e+01    2.510538e+00
  1.356190e+01    2.459622e+00
  1.357777e+01    2.398645e+00
  1.359365e+01    2.373946e+00
  1.360952e+01    2.328982e+00
  1.362540e+01    2.334276e+00
  1.364127e+01    2.309089e+00
  1.365715e+01    2.255787e+00
  1.367303e+01    2.268133e+00
  1.368890e+01    2.247500e+00
  1.370478e+01    2.259709e+00
  1.372065e+01    2.211172e+00
  1.373653e+01    2.185103e+00
  1.375240e+01    2.171278e+00
  1.376828e+01    2.194205e+00
  1.378415e+01    2.166320e+00
  1.380003e+01    2.144776e+00
  1.381591e+01    2.119042e+00
  1.383178e+01    2.115809e+00
  1.384766e+01    2.099560e+00
  1.386353e+01    2.112746e+00
  1.387941e+01    2.076042e+00
  1.389528e+01    2.060840e+00
  1.391116e+01    2.076372e+00
  1.392703e+01    2.067103e+00
  1.394291e+01    2.026216e+00
  1.395879e+01    2.058020e+00
  1.397466e+01    2.006341e+00
  1.399054e+01    1.986784e+00
  1.400641e+01    2.021120e+00
  1.402229e+01    2.044885e+00
  1.403816e+01    1.988747e+00
  1.405404e+01    2.016320e+00
  1.406991e+01    2.022467e+00
  1.408579e+01    2.037241e+00
  1.410167e+01    1.998089e+00
  1.411754e+01    1.991454e+00
  1.413342e+01    2.005354e+00
  1.414929e+01    1.979113e+00
  1.416517e+01    1.963221e+00
  1.418104e+01    1.974453e+00
  1.419692e+01    1.946115e+00
  1.421279e+01    1.941060e+00
  1.422867e+01    1.971931e+00
  1.424455e+01    1.943759e+00
  1.426042e+01    1.951437e+00
  1.427630e+01    1.932030e+00
  1.429217e+01    1.941509e+00
  1.430805e+01    1.949818e+00
  1.432392e+01    1.917150e+00
  1.433980e+01    1.914849e+00
  1.435568e+01    1.938262e+00
  1.437155e+01    1.920385e+00
  1.438743e+01    1.918309e+00
  1.440330e+01    1.899983e+00
  1.441918e+01    1.913738e+00
  1.443505e+01    1.920917e+00
  1.445093e+01    1.914578e+00
  1.446680e+01    1.966381e+00
  1.448268e+01    1.891242e+00
  1.449856e+01    1.861591e+00
  1.451443e+01    1.922402e+00
  1.453031e+01    1.886323e+00
  1.454618e+01    1.894011e+00
  1.456206e+01    1.903062e+00
  1.457793e+01    1.894683e+00
  1.459381e+01    1.878676e+00
  1.460968e+01    1.897744e+00
  1.462556e+01    1.884055e+00
  1.464144e+01    1.882985e+00
  1.465731e+01    1.872633e+00
  1.467319e+01    1.866578e+00
  1.468906e+01    1.876211e+00
  1.470494e+01    1.912401e+00
  1.472081e+01    1.903355e+00
  1.473669e+01    1.894040e+00
  1.475256e+01    1.876880e+00
  1.476844e+01    1.885770e+00
  1.478432e+01    1.890465e+00
  1.480019e+01    1.864296e+00
  1.481607e+01    1.870882e+00
  1.483194e+01    1.905758e+00
  1.484782e+01    1.913839e+00
  1.486369e+01    1.927461e+00
  1.487957e+01    1.932183e+00
  1.489544e+01    1.944732e+00
  1.491132e+01    1.985492e+00
  1.492720e+01    1.967315e+00
  1.494307e+01    2.014649e+00
  1.495895e+01    2.015438e+00
  1.497482e+01    2.084577e+00
  1.499070e+01    2.089785e+00
  1.500657e+01    2.107122e+00
  1.502245e+01    2.197461e+00
  1.503832e+01    2.269727e+00
  1.505420e+01    2.340537e+00
  1.507008e+01    2.469182e+00
  1.508595e+01    2.616106e+00
  1.510183e+01    2.859667e+00
  1.511770e+01    3.085891e+00
  1.513358e+01    3.330501e+00
  1.514945e+01    3.701939e+00
  1.516533e+01    4.077785e+00
  1.518120e+01    4.487908e+00
  1.519708e+01    4.858502e+00
  1.521296e+01    5.169621e+00
  1.522883e+01    5.487690e+00
  1.524471e+01    5.755993e+00
  1.526058e+01    5.866698e+00
  1.527646e+01    5.969185e+00
  1.529233e+01    5.849935e+00
  1.530821e+01    5.522348e+00
  1.532409e+01    5.082654e+00
  1.533996e+01    4.553678e+00
  1.535584e+01    3.973451e+00
  1.537171e+01    3.586035e+00
  1.538759e+01    3.243669e+00
  1.540346e+01    2.879652e+00
  1.541934e+01    2.666872e+00
  1.543521e+01    2.519023e+00
  1.545109e+01    2.353085e+00
  1.546697e+01    2.220394e+00
  1.548284e+01    2.155212e+00
  1.549872e+01    2.109484e+00
  1.551459e+01    2.028523e+00
  1.553047e+01    1.985910e+00
  1.554634e+01    1.947155e+00
  1.556222e+01    1.879559e+00
  1.557809e+01    1.871810e+00
  1.559397e+01    1.831292e+00
  1.560985e+01    1.799552e+00
  1.562572e+01    1.801318e+00
  1.564160e+01    1.796010e+00
  1.565747e+01    1.764627e+00
  1.567335e+01    1.724009e+00
  1.568922e+01    1.704216e+00
  1.570510e+01    1.707909e+00
  1.572097e+01    1.711540e+00
  1.573685e+01    1.699586e+00
  1.575273e+01    1.683407e+00
  1.576860e+01    1.710516e+00
  1.578448e+01    1.704867e+00
  1.580035e+01    1.680376e+00
  1.581623e+01    1.671958e+00
  1.583210e+01    1.646652e+00
  1.584798e+01    1.636259e+00
  1.586385e+01    1.616897e+00
  1.587973e+01    1.621894e+00
  1.589561e+01    1.642603e+00
  1.591148e+01    1.612402e+00
  1.592736e+01    1.579593e+00
  1.594323e+01    1.589804e+00
  1.595911e+01    1.608718e+00
  1.597498e+01    1.588452e+00
  1.599086e+01    1.597795e+00
  1.600673e+01    1.595795e+00
  1.602261e+01    1.565107e+00
  1.603849e+01    1.588337e+00
  1.605436e+01    1.590563e+00
  1.607024e+01    1.564030e+00
  1.608611e+01    1.596030e+00
  1.610199e+01    1.544894e+00
  1.611786e+01    1.506841e+00
  1.613374e+01    1.566237e+00
  1.614961e+01    1.571535e+00
  1.616549e+01    1.570181e+00
  1.618137e+01    1.542309e+00
  1.619724e+01    1.558964e+00
  1.621312e+01    1.551860e+00
  1.622899e+01    1.526169e+00
  1.624487e+01    1.559029e+00
  1.626074e+01    1.574584e+00
  1.627662e+01    1.522153e+00
  1.629250e+01    1.518414e+00
  1.630837e+01    1.502689e+00
  1.632425e+01    1.545497e+00
  1.634012e+01    1.513875e+00
  1.635600e+01    1.517437e+00
  1.637187e+01    1.527120e+00
  1.638775e+01    1.510673e+00
  1.640362e+01    1.508689e+00
  1.641950e+01    1.527750e+00
  1.643538e+01    1.521612e+00
  1.645125e+01    1.497882e+00
  1.646713e+01    1.511965e+00
  1.648300e+01    1.509757e+00
  1.649888e+01    1.516466e+00
  1.651475e+01    1.527103e+00
  1.653063e+01    1.502076e+00
  1.654650e+01    1.480169e+00
  1.656238e+01    1.467616e+00
  1.657826e+01    1.484265e+00
  1.659413e+01    1.449414e+00
  1.661001e+01    1.458570e+00
  1.662588e+01    1.473458e+00
  1.664176e+01    1.458971e+00
  1.665763e+01    1.515430e+00
  1.667351e+01    1.491702e+00
  1.668938e+01    1.473642e+00
  1.670526e+01    1.446293e+00
  1.672114e+01    1.421258e+00
  1.673701e+01    1.414551e+00
  1.675289e+01    1.448356e+00
  1.676876e+01    1.470069e+00
  1.678464e+01    1.450764e+00
  1.680051e+01    1.448492e+00
  1.681639e+01    1.428320e+00
  1.683226e+01    1.411507e+00
  1.684814e+01    1.452608e+00
  1.686402e+01    1.462619e+00
  1.687989e+01    1.446973e+00
  1.689577e+01    1.418127e+00
  1.691164e+01    1.390085e+00
  1.692752e+01    1.415260e+00
  1.694339e+01    1.470168e+00
  1.695927e+01    1.441866e+00
  1.697514e+01    1.433034e+00
  1.699102e+01    1.414144e+00
  1.700690e+01    1.414881e+00
  1.702277e+01    1.402321e+00
  1.703865e+01    1.423849e+00
  1.705452e+01    1.409135e+00
  1.707040e+01    1.409640e+00
  1.708627e+01    1.434354e+00
  1.710215e+01    1.415310e+00
  1.711802e+01    1.407045e+00
  1.713390e+01    1.395063e+00
  1.714978e+01    1.378495e+00
  1.716565e+01    1.397843e+00
  1.718153e+01    1.393969e+00
  1.719740e+01    1.397870e+00
  1.721328e+01    1.359731e+00
  1.722915e+01    1.357051e+00
  1.724503e+01    1.367907e+00
  1.726091e+01    1.369337e+00
  1.727678e+01    1.366714e+00
  1.729266e+01    1.371392e+00
  1.730853e+01    1.373549e+00
  1.732441e+01    1.374490e+00
  1.734028e+01    1.381245e+00
  1.735616e+01    1.380071e+00
  1.737203e+01    1.363977e+00
  1.738791e+01    1.344564e+00
  1.740379e+01    1.336219e+00
  1.741966e+01    1.339783e+00
  1.743554e+01    1.369505e+00
  1.745141e+01    1.345808e+00
  1.746729e+01    1.320785e+00
  1.748316e+01    1.352384e+00
  1.749904e+01    1.350377e+00
  1.751491e+01    1.343999e+00
  1.753079e+01    1.366921e+00
  1.754667e+01    1.361186e+00
  1.756254e+01    1.344815e+00
  1.757842e+01    1.336238e+00
  1.759429e+01    1.351287e+00
  1.761017e+01    1.340664e+00
  1.762604e+01    1.328900e+00
  1.764192e+01    1.319888e+00
  1.765779e+01    1.314441e+00
  1.767367e+01    1.323142e+00
  1.768955e+01    1.321109e+00
  1.770542e+01    1.343769e+00
  1.772130e+01    1.351574e+00
  1.773717e+01    1.319647e+00
  1.775305e+01    1.317639e+00
  1.776892e+01    1.305124e+00
  1.778480e+01    1.327003e+00
  1.780067e+01    1.327467e+00
  1.781655e+01    1.334420e+00
  1.783243e+01    1.319419e+00
  1.784830e+01    1.304674e+00
  1.786418e+01    1.313817e+00
  1.788005e+01    1.300125e+00
  1.789593e+01    1.320926e+00
  1.791180e+01    1.321060e+00
  1.792768e+01    1.314025e+00
  1.794355e+01    1.309536e+00
  1.795943e+01    1.292815e+00
  1.797531e+01    1.292938e+00
  1.799118e+01    1.294883e+00
  1.800706e+01    1.306252e+00
  1.802293e+01    1.297385e+00
  1.803881e+01    1.291880e+00
  1.805468e+01    1.274538e+00
  1.807056e+01    1.262882e+00
  1.808643e+01    1.273981e+00
  1.810231e+01    1.270103e+00
  1.811819e+01    1.272707e+00
  1.813406e+01    1.270885e+00
  1.814994e+01    1.264488e+00
  1.816581e+01    1.286045e+00
  1.818169e+01    1.271088e+00
  1.819756e+01    1.250997e+00
  1.821344e+01    1.242742e+00
  1.822932e+01    1.257356e+00
  1.824519e+01    1.268610e+00
  1.826107e+01    1.277630e+00
  1.827694e+01    1.246405e+00
  1.829282e+01    1.229226e+00
  1.830869e+01    1.224720e+00
  1.832457e+01    1.236661e+00
  1.834044e+01    1.244516e+00
  1.835632e+01    1.251295e+00
  1.837220e+01    1.261867e+00
  1.838807e+01    1.261913e+00
  1.840395e+01    1.257483e+00
  1.841982e+01    1.238353e+00
  1.843570e+01    1.241042e+00
  1.845157e+01    1.240885e+00
  1.846745e+01    1.248519e+00
  1.848332e+01    1.249809e+00
  1.849920e+01    1.213276e+00
  1.851508e+01    1.246257e+00
  1.853095e+01    1.227565e+00
  1.854683e+01    1.226565e+00
  1.856270e+01    1.236405e+00
  1.857858e+01    1.252782e+00
  1.859445e+01    1.210966e+00
  1.861033e+01    1.234948e+00
  1.862620e+01    1.229270e+00
  1.864208e+01    1.219456e+00
  1.865796e+01    1.196066e+00
  1.867383e+01    1.201628e+00
  1.868971e+01    1.199962e+00
  1.870558e+01    1.207966e+00
  1.872146e+01    1.220890e+00
  1.873733e+01    1.195527e+00
  1.875321e+01    1.189329e+00
  1.876908e+01    1.210909e+00
  1.878496e+01    1.216879e+00
  1.880084e+01    1.194901e+00
  1.881671e+01    1.204991e+00
  1.883259e+01    1.180676e+00
  1.884846e+01    1.207019e+00
  1.886434e+01    1.194464e+00
  1.888021e+01    1.171413e+00
  1.889609e+01    1.184507e+00
  1.891196e+01    1.185513e+00
  1.892784e+01    1.193659e+00
  1.894372e+01    1.185733e+00
  1.895959e+01    1.187583e+00
  1.897547e+01    1.196513e+00
  1.899134e+01    1.197618e+00
  1.900722e+01    1.203392e+00
  1.902309e+01    1.182399e+00
  1.903897e+01    1.186340e+00
  1.905484e+01    1.188060e+00
  1.907072e+01    1.174288e+00
  1.908660e+01    1.157100e+00
  1.910247e+01    1.167738e+00
  1.911835e+01    1.155620e+00
  1.913422e+01    1.147856e+00
  1.915010e+01    1.195566e+00
  1.916597e+01    1.199592e+00
  1.918185e+01    1.176007e+00
  1.919773e+01    1.178051e+00
  1.921360e+01    1.167183e+00
  1.922948e+01    1.187541e+00
  1.924535e+01    1.184090e+00
  1.926123e+01    1.158601e+00
  1.927710e+01    1.157087e+00
  1.929298e+01    1.153985e+00
  1.930885e+01    1.156440e+00
  1.932473e+01    1.163254e+00
  1.934061e+01    1.181972e+00
  1.935648e+01    1.164986e+00
  1.937236e+01    1.174015e+00
  1.938823e+01    1.173805e+00
  1.940411e+01    1.176241e+00
  1.941998e+01    1.149512e+00
  1.943586e+01    1.152377e+00
  1.945173e+01    1.145399e+00
  1.946761e+01    1.148158e+00
  1.948349e+01    1.135334e+00
  1.949936e+01    1.148693e+00
  1.951524e+01    1.136925e+00
  1.953111e+01    1.147804e+00
  1.954699e+01    1.129638e+00
  1.956286e+01    1.119001e+00
  1.957874e+01    1.128505e+00
  1.959461e+01    1.152290e+00
  1.961049e+01    1.146238e+00
  1.962637e+01    1.155534e+00
  1.964224e+01    1.140107e+00
  1.965812e+01    1.126571e+00
  1.967399e+01    1.115720e+00
  1.968987e+01    1.131512e+00
  1.970574e+01    1.128697e+00
  1.972162e+01    1.108502e+00
  1.973749e+01    1.104221e+00
  1.975337e+01    1.119163e+00
  1.976925e+01    1.137331e+00
  1.978512e+01    1.144894e+00
  1.980100e+01    1.121891e+00
  1.981687e+01    1.105334e+00
  1.983275e+01    1.124515e+00
  1.984862e+01    1.082668e+00
  1.986450e+01    1.096098e+00
  1.988037e+01    1.102549e+00
  1.989625e+01    1.109689e+00
  1.991213e+01    1.092262e+00
  1.992800e+01    1.111803e+00
  1.994388e+01    1.108642e+00
  1.995975e+01    1.116617e+00
  1.997563e+01    1.115314e+00
  1.999150e+01    1.116259e+00
  2.000738e+01    1.106126e+00
  2.002325e+01    1.090174e+00
  2.003913e+01    1.101973e+00
  2.005501e+01    1.087495e+00
  2.007088e+01    1.088627e+00
  2.008676e+01    1.091248e+00
  2.010263e+01    1.105874e+00
  2.011851e+01    1.106005e+00
  2.013438e+01    1.079861e+00
  2.015026e+01    1.075490e+00
  2.016614e+01    1.102079e+00
  2.018201e+01    1.106692e+00
  2.019789e+01    1.104094e+00
  2.021376e+01    1.101318e+00
  2.022964e+01    1.096036e+00
  2.024551e+01    1.090279e+00
  2.026139e+01    1.081959e+00
  2.027726e+01    1.064245e+00
  2.029314e+01    1.095901e+00
  2.030902e+01    1.094384e+00
  2.032489e+01    1.087615e+00
  2.034077e+01    1.075863e+00
  2.035664e+01    1.098989e+00
  2.037252e+01    1.094329e+00
  2.038839e+01    1.089417e+00
  2.040427e+01    1.086677e+00
  2.042014e+01    1.080854e+00
  2.043602e+01    1.070917e+00
  2.045190e+01    1.066517e+00
  2.046777e+01    1.064501e+00
  2.048365e+01    1.074562e+00
  2.049952e+01    1.064678e+00
  2.051540e+01    1.056506e+00
  2.053127e+01    1.076118e+00
  2.054715e+01    1.084297e+00
  2.056302e+01    1.096266e+00
  2.057890e+01    1.067946e+00
  2.059478e+01    1.031761e+00
  2.061065e+01    1.071367e+00
  2.062653e+01    1.105188e+00
  2.064240e+01    1.089252e+00
  2.065828e+01    1.083685e+00
  2.067415e+01    1.097928e+00
  2.069003e+01    1.089378e+00
  2.070590e+01    1.080755e+00
  2.072178e+01    1.062701e+00
  2.073766e+01    1.046659e+00
  2.075353e+01    1.057522e+00
  2.076941e+01    1.053305e+00
  2.078528e+01    1.058438e+00
  2.080116e+01    1.064911e+00
  2.081703e+01    1.062017e+00
  2.083291e+01    1.056767e+00
  2.084878e+01    1.053278e+00
  2.086466e+01    1.086240e+00
  2.088054e+01    1.061870e+00
  2.089641e+01    1.034412e+00
  2.091229e+01    1.078632e+00
  2.092816e+01    1.082743e+00
  2.094404e+01    1.088033e+00
  2.095991e+01    1.092422e+00
  2.097579e+01    1.055346e+00
  2.099166e+01    1.068835e+00
  2.100754e+01    1.088904e+00
  2.102342e+01    1.078308e+00
  2.103929e+01    1.072336e+00
  2.105517e+01    1.070269e+00
  2.107104e+01    1.081105e+00
  2.108692e+01    1.085543e+00
  2.110279e+01    1.085019e+00
  2.111867e+01    1.076949e+00
  2.113455e+01    1.058738e+00
  2.115042e+01    1.064862e+00
  2.116630e+01    1.081258e+00
  2.118217e+01    1.102450e+00
  2.119805e+01    1.091205e+00
  2.121392e+01    1.088132e+00
  2.122980e+01    1.085416e+00
  2.124567e+01    1.102427e+00
  2.126155e+01    1.095948e+00
  2.127743e+01    1.099060e+00
  2.129330e+01    1.078133e+00
  2.130918e+01    1.121940e+00
  2.132505e+01    1.113596e+00
  2.134093e+01    1.129094e+00
  2.135680e+01    1.117989e+00
  2.137268e+01    1.142705e+00
  2.138855e+01    1.150951e+00
  2.140443e+01    1.155724e+00
  2.142031e+01    1.150015e+00
  2.143618e+01    1.167958e+00
  2.145206e+01    1.192001e+00
  2.146793e+01    1.211736e+00
  2.148381e+01    1.230503e+00
  2.149968e+01    1.263403e+00
  2.151556e+01    1.283946e+00
  2.153143e+01    1.300863e+00
  2.154731e+01    1.351111e+00
  2.156319e+01    1.392398e+00
  2.157906e+01    1.432045e+00
  2.159494e+01    1.502516e+00
  2.161081e+01    1.583033e+00
  2.162669e+01    1.654346e+00
  2.164256e+01    1.767091e+00
  2.165844e+01    1.889148e+00
  2.167431e+01    2.065291e+00
  2.169019e+01    2.277285e+00
  2.170607e+01    2.517990e+00
  2.172194e+01    2.790685e+00
  2.173782e+01    3.135522e+00
  2.175369e+01    3.615374e+00
  2.176957e+01    4.169705e+00
  2.178544e+01    4.756757e+00
  2.180132e+01    5.359276e+00
  2.181719e+01    6.123969e+00
  2.183307e+01    6.897543e+00
  2.184895e+01    7.678369e+00
  2.186482e+01    8.408145e+00
  2.188070e+01    9.076303e+00
  2.189657e+01    9.551083e+00
  2.191245e+01    9.731360e+00
  2.192832e+01    9.436469e+00
  2.194420e+01    8.806356e+00
  2.196007e+01    7.913656e+00
  2.197595e+01    6.905338e+00
  2.199183e+01    5.794687e+00
  2.200770e+01    4.875518e+00
  2.202358e+01    4.156251e+00
  2.203945e+01    3.612372e+00
  2.205533e+01    3.134855e+00
  2.207120e+01    2.788732e+00
  2.208708e+01    2.461954e+00
  2.210296e+01    2.222160e+00
  2.211883e+01    2.022850e+00
  2.213471e+01    1.913963e+00
  2.215058e+01    1.764460e+00
  2.216646e+01    1.662008e+00
  2.218233e+01    1.552783e+00
  2.219821e+01    1.501154e+00
  2.221408e+01    1.436496e+00
  2.222996e+01    1.387144e+00
  2.224584e+01    1.352826e+00
  2.226171e+01    1.296048e+00
  2.227759e+01    1.247920e+00
  2.229346e+01    1.210275e+00
  2.230934e+01    1.166966e+00
  2.232521e+01    1.173888e+00
  2.234109e+01    1.141068e+00
  2.235696e+01    1.137431e+00
  2.237284e+01    1.109865e+00
  2.238872e+01    1.091321e+00
  2.240459e+01    1.057907e+00
  2.242047e+01    1.055690e+00
  2.243634e+01    1.047211e+00
  2.245222e+01    1.033795e+00
  2.246809e+01    1.029292e+00
  2.248397e+01    1.033986e+00
  2.249984e+01    1.025383e+00
  2.251572e+01    1.014687e+00
  2.253160e+01    1.005955e+00
  2.254747e+01    9.784305e-01
  2.256335e+01    9.799715e-01
  2.257922e+01    9.484158e-01
  2.259510e+01    9.480349e-01
  2.261097e+01    9.452950e-01
  2.262685e+01    9.572614e-01
  2.264272e+01    9.631179e-01
  2.265860e+01    9.529322e-01
  2.267448e+01    9.421129e-01
  2.269035e+01    9.741334e-01
  2.270623e+01    9.583679e-01
  2.272210e+01    9.536177e-01
  2.273798e+01    9.370464e-01
  2.275385e+01    9.325741e-01
  2.276973e+01    9.475107e-01
  2.278560e+01    9.274791e-01
  2.280148e+01    9.193969e-01
  2.281736e+01    9.125270e-01
  2.283323e+01    9.169689e-01
  2.284911e+01    9.028311e-01
  2.286498e+01    8.931271e-01
  2.288086e+01    9.026047e-01
  2.289673e+01    9.013276e-01
  2.291261e+01    9.077990e-01
  2.292848e+01    9.073666e-01
  2.294436e+01    9.121432e-01
  2.296024e+01    9.112560e-01
  2.297611e+01    8.973682e-01
  2.299199e+01    8.749549e-01
  2.300786e+01    8.995921e-01
  2.302374e+01    8.898239e-01
  2.303961e+01    8.841671e-01
  2.305549e+01    8.793715e-01
  2.307137e+01    8.830310e-01
  2.308724e+01    8.706474e-01
  2.310312e+01    8.661519e-01
  2.311899e+01    8.904870e-01
  2.313487e+01    8.689910e-01
  2.315074e+01    8.635695e-01
  2.316662e+01    8.806781e-01
  2.318249e+01    8.705046e-01
  2.319837e+01    8.523079e-01
  2.321425e+01    8.524558e-01
  2.323012e+01    8.849074e-01
  2.324600e+01    8.699502e-01
  2.326187e+01    8.592495e-01
  2.327775e+01    8.430997e-01
  2.329362e+01    8.625922e-01
  2.330950e+01    8.662106e-01
  2.332537e+01    8.515241e-01
  2.334125e+01    8.433966e-01
  2.335713e+01    8.574403e-01
  2.337300e+01    8.503646e-01
  2.338888e+01    8.561730e-01
  2.340475e+01    8.497743e-01
  2.342063e+01    8.307061e-01
  2.343650e+01    8.209733e-01
  2.345238e+01    8.388001e-01
  2.346825e+01    8.487273e-01
  2.348413e+01    8.408787e-01
  2.350001e+01    8.396677e-01
  2.351588e+01    8.225282e-01
  2.353176e+01    8.375755e-01
  2.354763e+01    8.277013e-01
  2.356351e+01    8.378022e-01
  2.357938e+01    8.507220e-01
  2.359526e+01    8.333838e-01
  2.361113e+01    8.173262e-01
  2.362701e+01    8.322555e-01
  2.364289e+01    8.350704e-01
  2.365876e+01    8.255883e-01
  2.367464e+01    8.195595e-01
  2.369051e+01    8.182164e-01
  2.370639e+01    8.162422e-01
  2.372226e+01    8.197537e-01
  2.373814e+01    8.336030e-01
  2.375401e+01    7.999355e-01
  2.376989e+01    8.018295e-01
  2.378577e+01    8.173879e-01
  2.380164e+01    7.901653e-01
  2.381752e+01    8.109690e-01
  2.383339e+01    8.179635e-01
  2.384927e+01    8.152945e-01
  2.386514e+01    7.900674e-01
  2.388102e+01    7.938886e-01
  2.389689e+01    7.990919e-01
  2.391277e+01    7.796866e-01
  2.392865e+01    7.827854e-01
  2.394452e+01    8.057326e-01
  2.396040e+01    7.705448e-01
  2.397627e+01    7.464290e-01
  2.399215e+01    7.708797e-01
  2.400802e+01    7.810766e-01
  2.402390e+01    7.875819e-01
  2.403978e+01    7.853714e-01
  2.405565e+01    7.808087e-01
  2.407153e+01    7.711458e-01
  2.408740e+01    7.545311e-01
  2.410328e+01    7.782179e-01
  2.411915e+01    7.781689e-01
  2.413503e+01    7.571566e-01
  2.415090e+01    7.712669e-01
  2.416678e+01    7.561178e-01
  2.418266e+01    7.821212e-01
  2.419853e+01    7.887375e-01
  2.421441e+01    7.662410e-01
  2.423028e+01    7.658612e-01
  2.424616e+01    7.937046e-01
  2.426203e+01    7.954062e-01
  2.427791e+01    7.700862e-01
  2.429378e+01    7.764254e-01
  2.430966e+01    7.838187e-01
  2.432554e+01    7.562354e-01
  2.434141e+01    7.946447e-01
  2.435729e+01    7.793791e-01
  2.437316e+01    7.749216e-01
  2.438904e+01    7.771608e-01
  2.440491e+01    7.714036e-01
  2.442079e+01    7.799195e-01
  2.443666e+01    7.744738e-01
  2.445254e+01    7.669852e-01
  2.446842e+01    7.781335e-01
  2.448429e+01    7.954007e-01
  2.450017e+01    7.808775e-01
  2.451604e+01    7.655365e-01
  2.453192e+01    7.607449e-01
  2.454779e+01    7.839272e-01
  2.456367e+01    7.799280e-01
  2.457954e+01    7.928059e-01
  2.459542e+01    7.926757e-01
  2.461130e+01    7.726739e-01
  2.462717e+01    7.691484e-01
  2.464305e+01    7.645403e-01
  2.465892e+01    7.761288e-01
  2.467480e+01    7.728794e-01
  2.469067e+01    7.833008e-01
  2.470655e+01    8.019986e-01
  2.472242e+01    8.262679e-01
  2.473830e+01    8.060055e-01
  2.475418e+01    7.983602e-01
  2.477005e+01    7.845491e-01
  2.478593e+01    7.733096e-01
  2.480180e+01    7.962863e-01
  2.481768e+01    8.102396e-01
  2.483355e+01    7.953724e-01
  2.484943e+01    7.975211e-01
  2.486530e+01    8.046245e-01
  2.488118e+01    7.884666e-01
  2.489706e+01    7.750540e-01
  2.491293e+01    7.869255e-01
  2.492881e+01    7.941122e-01
  2.494468e+01    7.845894e-01
  2.496056e+01    7.930212e-01
  2.497643e+01    7.972131e-01
  2.499231e+01    8.097800e-01
  2.500819e+01    7.995687e-01
  2.502406e+01    8.009353e-01
  2.503994e+01    8.062088e-01
  2.505581e+01    7.908310e-01
  2.507169e+01    7.959948e-01
  2.508756e+01    8.092028e-01
  2.510344e+01    8.148760e-01
  2.511931e+01    8.203976e-01
  2.513519e+01    8.148558e-01
  2.515107e+01    8.071145e-01
  2.516694e+01    8.272973e-01
  2.518282e+01    8.362841e-01
  2.519869e+01    8.264958e-01
  2.521457e+01    8.526070e-01
  2.523044e+01    8.540599e-01
  2.524632e+01    8.643304e-01
  2.526219e+01    8.641720e-01
  2.527807e+01    8.471206e-01
  2.529395e+01    8.464310e-01
  2.530982e+01    8.509135e-01
  2.532570e+01    8.626484e-01
  2.534157e+01    8.633606e-01
  2.535745e+01    8.690317e-01
  2.537332e+01    8.789793e-01
  2.538920e+01    9.008010e-01
  2.540507e+01    9.005359e-01
  2.542095e+01    9.079092e-01
  2.543683e+01    9.094800e-01
  2.545270e+01    9.061263e-01
  2.546858e+01    9.282660e-01
  2.548445e+01    9.722923e-01
  2.550033e+01    9.658414e-01
  2.551620e+01    9.615245e-01
  2.553208e+01    9.769109e-01
  2.554795e+01    1.009900e+00
  2.556383e+01    1.023566e+00
  2.557971e+01    1.038020e+00
  2.559558e+01    1.085303e+00
  2.561146e+01    1.102198e+00
  2.562733e+01    1.132484e+00
  2.564321e+01    1.181067e+00
  2.565908e+01    1.250876e+00
  2.567496e+01    1.297682e+00
  2.569083e+01    1.345116e+00
  2.570671e+01    1.469324e+00
  2.572259e+01    1.571450e+00
  2.573846e+01    1.696442e+00
  2.575434e+01    1.829886e+00
  2.577021e+01    1.991832e+00
  2.578609e+01    2.243710e+00
  2.580196e+01    2.499233e+00
  2.581784e+01    2.837241e+00
  2.583371e+01    3.214666e+00
  2.584959e+01    3.682833e+00
  2.586547e+01    4.220271e+00
  2.588134e+01    4.824315e+00
  2.589722e+01    5.455031e+00
  2.591309e+01    6.189327e+00
  2.592897e+01    6.821575e+00
  2.594484e+01    7.376407e+00
  2.596072e+01    7.795928e+00
  2.597660e+01    8.020688e+00
  2.599247e+01    7.835946e+00
  2.600835e+01    7.347048e+00
  2.602422e+01    6.674798e+00
  2.604010e+01    5.880924e+00
  2.605597e+01    5.068095e+00
  2.607185e+01    4.316145e+00
  2.608772e+01    3.679179e+00
  2.610360e+01    3.184957e+00
  2.611948e+01    2.751412e+00
  2.613535e+01    2.465099e+00
  2.615123e+01    2.217068e+00
  2.616710e+01    1.989675e+00
  2.618298e+01    1.827628e+00
  2.619885e+01    1.650593e+00
  2.621473e+01    1.555277e+00
  2.623060e+01    1.465723e+00
  2.624648e+01    1.364683e+00
  2.626236e+01    1.326434e+00
  2.627823e+01    1.284399e+00
  2.629411e+01    1.210850e+00
  2.630998e+01    1.148899e+00
  2.632586e+01    1.097144e+00
  2.634173e+01    1.061784e+00
  2.635761e+01    1.056455e+00
  2.637348e+01    1.025991e+00
  2.638936e+01    1.002728e+00
  2.640524e+01    9.859418e-01
  2.642111e+01    9.687651e-01
  2.643699e+01    9.780348e-01
  2.645286e+01    9.738492e-01
  2.646874e+01    9.621738e-01
  2.648461e+01    9.376316e-01
  2.650049e+01    9.454163e-01
  2.651636e+01    9.610010e-01
  2.653224e+01    9.245382e-01
  2.654812e+01    9.219760e-01
  2.656399e+01    9.136571e-01
  2.657987e+01    9.120041e-01
  2.659574e+01    9.032040e-01
  2.661162e+01    9.091610e-01
  2.662749e+01    9.047140e-01
  2.664337e+01    9.055524e-01
  2.665924e+01    8.976712e-01
  2.667512e+01    9.003627e-01
  2.669100e+01    9.139977e-01
  2.670687e+01    8.970153e-01
  2.672275e+01    8.865640e-01
  2.673862e+01    8.914431e-01
  2.675450e+01    8.813628e-01
  2.677037e+01    8.839972e-01
  2.678625e+01    8.594767e-01
  2.680212e+01    8.782936e-01
  2.681800e+01    8.916593e-01
  2.683388e+01    8.907653e-01
  2.684975e+01    8.926557e-01
  2.686563e+01    8.888993e-01
  2.688150e+01    8.938468e-01
  2.689738e+01    8.924927e-01
  2.691325e+01    9.097003e-01
  2.692913e+01    9.332553e-01
  2.694501e+01    9.405978e-01
  2.696088e+01    9.283428e-01
  2.697676e+01    9.593673e-01
  2.699263e+01    9.949553e-01
  2.700851e+01    1.033968e+00
  2.702438e+01    1.058656e+00
  2.704026e+01    1.082362e+00
  2.705613e+01    1.128953e+00
  2.707201e+01    1.202084e+00
  2.708789e+01    1.271658e+00
  2.710376e+01    1.322586e+00
  2.711964e+01    1.438581e+00
  2.713551e+01    1.591963e+00
  2.715139e+01    1.722593e+00
  2.716726e+01    1.882590e+00
  2.718314e+01    2.035765e+00
  2.719901e+01    2.212599e+00
  2.721489e+01    2.274555e+00
  2.723077e+01    2.342936e+00
  2.724664e+01    2.324075e+00
  2.726252e+01    2.236407e+00
  2.727839e+01    2.103951e+00
  2.729427e+01    1.970855e+00
  2.731014e+01    1.823703e+00
  2.732602e+01    1.662063e+00
  2.734189e+01    1.456602e+00
  2.735777e+01    1.362267e+00
  2.737365e+01    1.277754e+00
  2.738952e+01    1.185265e+00
  2.740540e+01    1.127207e+00
  2.742127e+01    1.085413e+00
  2.743715e+01    1.064442e+00
  2.745302e+01    1.017927e+00
  2.746890e+01    9.633600e-01
  2.748477e+01    9.391146e-01
  2.750065e+01    9.346823e-01
  2.751653e+01    9.352046e-01
  2.753240e+01    9.062670e-01
  2.754828e+01    9.113317e-01
  2.756415e+01    8.841603e-01
  2.758003e+01    8.723644e-01
  2.759590e+01    8.685313e-01
  2.761178e+01    8.395091e-01
  2.762765e+01    8.350985e-01
  2.764353e+01    8.342491e-01
  2.765941e+01    8.260673e-01
  2.767528e+01    8.297905e-01
  2.769116e+01    7.907280e-01
  2.770703e+01    8.110144e-01
  2.772291e+01    8.116082e-01
  2.773878e+01    8.232039e-01
  2.775466e+01    8.038329e-01
  2.777054e+01    8.297763e-01
  2.778641e+01    8.104296e-01
  2.780229e+01    8.062556e-01
  2.781816e+01    7.881727e-01
  2.783404e+01    7.966420e-01
  2.784991e+01    7.831977e-01
  2.786579e+01    7.993837e-01
  2.788166e+01    7.863834e-01
  2.789754e+01    7.826950e-01
  2.791342e+01    7.829472e-01
  2.792929e+01    7.897731e-01
  2.794517e+01    8.006836e-01
  2.796104e+01    7.861274e-01
  2.797692e+01    7.773789e-01
  2.799279e+01    7.683638e-01
  2.800867e+01    7.896984e-01
  2.802454e+01    7.792942e-01
  2.804042e+01    7.748019e-01
  2.805630e+01    7.652891e-01
  2.807217e+01    7.538840e-01
  2.808805e+01    7.776312e-01
  2.810392e+01    7.846268e-01
  2.811980e+01    7.725847e-01
  2.813567e+01    7.667372e-01
  2.815155e+01    7.569817e-01
  2.816742e+01    7.733083e-01
  2.818330e+01    7.679402e-01
  2.819918e+01    7.563220e-01
  2.821505e+01    7.724178e-01
  2.823093e+01    7.734225e-01
  2.824680e+01    7.642238e-01
  2.826268e+01    7.592841e-01
  2.827855e+01    7.627366e-01
  2.829443e+01    7.795783e-01
  2.831030e+01    7.427022e-01
  2.832618e+01    7.476775e-01
  2.834206e+01    7.550418e-01
  2.835793e+01    7.449228e-01
  2.837381e+01    7.520224e-01
  2.838968e+01    7.569780e-01
  2.840556e+01    7.614186e-01
  2.842143e+01    7.489139e-01
  2.843731e+01    7.435099e-01
  2.845318e+01    7.533814e-01
  2.846906e+01    7.429428e-01
  2.848494e+01    7.694749e-01
  2.850081e+01    7.642598e-01
  2.851669e+01    7.722676e-01
  2.853256e+01    7.520012e-01
  2.854844e+01    7.568523e-01
  2.856431e+01    7.763771e-01
  2.858019e+01    7.545345e-01
  2.859606e+01    7.411662e-01
  2.861194e+01    7.574056e-01
  2.862782e+01    7.690637e-01
  2.864369e+01    7.518902e-01
  2.865957e+01    7.448298e-01
  2.867544e+01    7.543628e-01
  2.869132e+01    7.715469e-01
  2.870719e+01    7.500897e-01
  2.872307e+01    7.442426e-01
  2.873895e+01    7.429327e-01
  2.875482e+01    7.390216e-01
  2.877070e+01    7.426797e-01
  2.878657e+01    7.407328e-01
  2.880245e+01    7.327523e-01
  2.881832e+01    7.242177e-01
  2.883420e+01    7.434247e-01
  2.885007e+01    7.323955e-01
  2.886595e+01    7.292964e-01
  2.888183e+01    7.274479e-01
  2.889770e+01    7.209591e-01
  2.891358e+01    7.427244e-01
  2.892945e+01    7.293162e-01
  2.894533e+01    7.355385e-01
  2.896120e+01    7.239233e-01
  2.897708e+01    7.576314e-01
  2.899295e+01    7.566279e-01
  2.900883e+01    7.477046e-01
  2.902471e+01    7.618006e-01
  2.904058e+01    7.455571e-01
  2.905646e+01    7.493378e-01
  2.907233e+01    7.260769e-01
  2.908821e+01    7.371393e-01
  2.910408e+01    7.411000e-01
  2.911996e+01    7.357375e-01
  2.913583e+01    7.390776e-01
  2.915171e+01    7.272574e-01
  2.916759e+01    7.312573e-01
  2.918346e+01    7.148660e-01
  2.919934e+01    7.233243e-01
  2.921521e+01    7.354732e-01
  2.923109e+01    7.312568e-01
  2.924696e+01    7.142105e-01
  2.926284e+01    7.256613e-01
  2.927871e+01    7.315447e-01
  2.929459e+01    7.362887e-01
  2.931047e+01    7.188890e-01
  2.932634e+01    7.357727e-01
  2.934222e+01    7.122115e-01
  2.935809e+01    6.973885e-01
  2.937397e+01    7.265934e-01
  2.938984e+01    7.086499e-01
  2.940572e+01    7.131836e-01
  2.942159e+01    7.012051e-01
  2.943747e+01    7.200611e-01
  2.945335e+01    7.222854e-01
  2.946922e+01    7.289463e-01
  2.948510e+01    7.247037e-01
  2.950097e+01    7.283264e-01
  2.951685e+01    7.238036e-01
  2.953272e+01    7.109782e-01
  2.954860e+01    7.020075e-01
  2.956447e+01    7.230833e-01
  2.958035e+01    7.173381e-01
  2.959623e+01    7.111608e-01
  2.961210e+01    7.235857e-01
  2.962798e+01    7.282166e-01
  2.964385e+01    6.933547e-01
  2.965973e+01    6.975951e-01
  2.967560e+01    7.240254e-01
  2.969148e+01    7.090652e-01
  2.970736e+01    6.989708e-01
  2.972323e+01    6.956965e-01
  2.973911e+01    7.219417e-01
  2.975498e+01    7.260892e-01
  2.977086e+01    7.122510e-01
  2.978673e+01    7.096456e-01
  2.980261e+01    7.219030e-01
  2.981848e+01    7.163326e-01
  2.983436e+01    7.018059e-01
  2.985024e+01    6.993984e-01
  2.986611e+01    7.133347e-01
  2.988199e+01    7.096906e-01
  2.989786e+01    6.951811e-01
  2.991374e+01    7.083821e-01
  2.992961e+01    7.178363e-01
  2.994549e+01    7.159829e-01
  2.996136e+01    7.157015e-01
  2.997724e+01    7.258524e-01
  2.999312e+01    7.090967e-01
  3.000899e+01    7.186967e-01
  3.002487e+01    7.237967e-01
  3.004074e+01    7.580726e-01
  3.005662e+01    7.358580e-01
  3.007249e+01    7.182939e-01
  3.008837e+01    7.221392e-01
  3.010424e+01    7.238488e-01
  3.012012e+01    7.065336e-01
  3.013600e+01    7.188810e-01
  3.015187e+01    7.194698e-01
  3.016775e+01    7.144536e-01
  3.018362e+01    7.134546e-01
  3.019950e+01    7.144640e-01
  3.021537e+01    7.282747e-01
  3.023125e+01    7.114460e-01
  3.024712e+01    7.016970e-01
  3.026300e+01    7.345388e-01
  3.027888e+01    7.190816e-01
  3.029475e+01    7.132379e-01
  3.031063e+01    6.890982e-01
  3.032650e+01    7.063763e-01
  3.034238e+01    7.065496e-01
  3.035825e+01    6.964155e-01
  3.037413e+01    7.076511e-01
  3.039000e+01    6.884014e-01
  3.040588e+01    7.039539e-01
  3.042176e+01    7.020591e-01
  3.043763e+01    7.246613e-01
  3.045351e+01    7.091464e-01
  3.046938e+01    6.873869e-01
  3.048526e+01    7.141256e-01
  3.050113e+01    7.135118e-01
  3.051701e+01    6.828143e-01
  3.053288e+01    6.940503e-01
  3.054876e+01    7.093217e-01
  3.056464e+01    6.866775e-01
  3.058051e+01    6.985613e-01
  3.059639e+01    6.945959e-01
  3.061226e+01    6.891770e-01
  3.062814e+01    7.062586e-01
  3.064401e+01    6.935422e-01
  3.065989e+01    6.921577e-01
  3.067577e+01    7.094758e-01
  3.069164e+01    7.002289e-01
  3.070752e+01    7.003278e-01
  3.072339e+01    7.072442e-01
  3.073927e+01    7.027321e-01
  3.075514e+01    6.920587e-01
  3.077102e+01    6.932002e-01
  3.078689e+01    7.011843e-01
  3.080277e+01    6.997746e-01
  3.081865e+01    6.873061e-01
  3.083452e+01    7.261156e-01
  3.085040e+01    7.059883e-01
  3.086627e+01    7.079857e-01
  3.088215e+01    7.136427e-01
  3.089802e+01    7.165967e-01
  3.091390e+01    7.151488e-01
  3.092977e+01    7.052002e-01
  3.094565e+01    7.142544e-01
  3.096153e+01    7.013866e-01
  3.097740e+01    6.887802e-01
  3.099328e+01    7.191716e-01
  3.100915e+01    7.121862e-01
  3.102503e+01    7.199286e-01
  3.104090e+01    7.210389e-01
  3.105678e+01    7.169984e-01
  3.107265e+01    7.259678e-01
  3.108853e+01    7.097788e-01
  3.110441e+01    6.955551e-01
  3.112028e+01    7.077354e-01
  3.113616e+01    7.184657e-01
  3.115203e+01    6.875472e-01
  3.116791e+01    7.109707e-01
  3.118378e+01    7.141159e-01
  3.119966e+01    7.026098e-01
  3.121553e+01    7.076378e-01
  3.123141e+01    6.986513e-01
  3.124729e+01    7.175621e-01
  3.126316e+01    7.192016e-01
  3.127904e+01    7.101511e-01
  3.129491e+01    7.288874e-01
  3.131079e+01    7.347274e-01
  3.132666e+01    7.213337e-01
  3.134254e+01    7.204393e-01
  3.135841e+01    7.295753e-01
  3.137429e+01    7.548404e-01
  3.139017e+01    7.483504e-01
  3.140604e+01    7.513582e-01
  3.142192e+01    7.744409e-01
  3.143779e+01    7.307884e-01
  3.145367e+01    7.154914e-01
  3.146954e+01    7.452385e-01
  3.148542e+01    7.374414e-01
  3.150129e+01    7.476420e-01
  3.151717e+01    7.642977e-01
  3.153305e+01    7.835741e-01
  3.154892e+01    7.875494e-01
  3.156480e+01    7.796859e-01
  3.158067e+01    7.947399e-01
  3.159655e+01    8.085873e-01
  3.161242e+01    8.134997e-01
  3.162830e+01    8.421860e-01
  3.164418e+01    8.524388e-01
  3.166005e+01    8.666411e-01
  3.167593e+01    8.860333e-01
  3.169180e+01    9.104176e-01
  3.170768e+01    9.559633e-01
  3.172355e+01    9.956298e-01
  3.173943e+01    1.024001e+00
  3.175530e+01    1.101294e+00
  3.177118e+01    1.154677e+00
  3.178706e+01    1.227560e+00
  3.180293e+01    1.345339e+00
  3.181881e+01    1.438611e+00
  3.183468e+01    1.587295e+00
  3.185056e+01    1.766703e+00
  3.186643e+01    1.917120e+00
  3.188231e+01    2.052231e+00
  3.189818e+01    2.176374e+00
  3.191406e+01    2.271601e+00
  3.192994e+01    2.317491e+00
  3.194581e+01    2.281251e+00
  3.196169e+01    2.149731e+00
  3.197756e+01    2.037438e+00
  3.199344e+01    1.853890e+00
  3.200931e+01    1.686416e+00
  3.202519e+01    1.513052e+00
  3.204106e+01    1.362228e+00
  3.205694e+01    1.277869e+00
  3.207282e+01    1.199026e+00
  3.208869e+01    1.082761e+00
  3.210457e+01    1.036869e+00
  3.212044e+01    1.001354e+00
  3.213632e+01    9.535215e-01
  3.215219e+01    9.281864e-01
  3.216807e+01    8.731613e-01
  3.218394e+01    8.265651e-01
  3.219982e+01    8.462760e-01
  3.221570e+01    8.338831e-01
  3.223157e+01    8.186408e-01
  3.224745e+01    7.848817e-01
  3.226332e+01    7.787049e-01
  3.227920e+01    7.793570e-01
  3.229507e+01    7.671663e-01
  3.231095e+01    7.446077e-01
  3.232682e+01    7.566491e-01
  3.234270e+01    7.452347e-01
  3.235858e+01    7.628916e-01
  3.237445e+01    7.541127e-01
  3.239033e+01    7.498374e-01
  3.240620e+01    7.422092e-01
  3.242208e+01    7.644562e-01
  3.243795e+01    7.223446e-01
  3.245383e+01    7.039415e-01
  3.246970e+01    7.142789e-01
  3.248558e+01    7.201560e-01
  3.250146e+01    7.166773e-01
  3.251733e+01    6.944397e-01
  3.253321e+01    7.003765e-01
  3.254908e+01    7.193329e-01
