# == pyFAI calibration ==
# Distance Sample to Detector: 0.3999999939076516 m
# PONI: 9.750e-02, 1.135e-01 m
# Rotations: -0.000175 0.000000 -0.000000 rad
# 
# == Fit2d calibration ==
# Distance Sample-beamCenter: 400.000 mm
# Center: x=1514.000, y=1300.000 pix
# Tilt: 0.010 deg  TiltPlanRot: 0.010 deg
# 
# Detector Detector	 Spline= None	 PixelSize= 7.500e-05, 7.500e-05 m
#    Detector has a mask: False 
#    Detector has a dark current: False 
#    detector has a flat field: False 
# 
# Wavelength: 6.888e-11 m
# Mask applied: user provided
# Dark current applied: False
# Flat field applied: False
# Polarization factor: 0.99
# Normalization factor: 1.0
# --> /home/myspot/data/2024_07_Rosario/Ru-CGO-ex/2024-07-27_002_Ru-CGO-ex_Activtation_ramp_000002_data_000027.dat
#       q_nm^-1             I 
  2.003187e-02    0.000000e+00
  3.590745e-02    0.000000e+00
  5.178302e-02    7.387542e-02
  6.765859e-02    1.855911e-01
  8.353417e-02    1.679788e-01
  9.940974e-02    5.109176e-02
  1.152853e-01    1.031058e-01
  1.311609e-01    1.646526e-02
  1.470365e-01    0.000000e+00
  1.629120e-01    4.145972e-02
  1.787876e-01    5.283602e-02
  1.946632e-01    5.013289e-02
  2.105388e-01    2.597467e-02
  2.264143e-01    2.859897e-02
  2.422899e-01    4.948209e-02
  2.581655e-01    4.862824e-02
  2.740411e-01    3.528692e-02
  2.899166e-01    5.059254e-02
  3.057922e-01    6.105856e-02
  3.216678e-01    1.153076e-02
  3.375433e-01    3.974135e-02
  3.534189e-01    6.150093e-02
  3.692945e-01    2.612388e-02
  3.851701e-01    4.794934e-02
  4.010456e-01    3.090525e-02
  4.169212e-01    4.530329e-02
  4.327968e-01    4.894703e-02
  4.486724e-01    4.599253e-02
  4.645479e-01    3.123751e-02
  4.804235e-01    1.377080e-02
  4.962991e-01    2.935614e-02
  5.121747e-01    5.217892e-02
  5.280502e-01    5.155789e-02
  5.439258e-01    3.211333e-02
  5.598014e-01    1.993967e-02
  5.756770e-01    3.345461e-02
  5.915525e-01    5.265044e-02
  6.074281e-01    6.571665e-02
  6.233037e-01    4.858937e-02
  6.391793e-01    4.168868e-02
  6.550548e-01    3.761931e-02
  6.709304e-01    4.307426e-02
  6.868060e-01    5.427661e-02
  7.026815e-01    3.268819e-02
  7.185571e-01    2.649962e-02
  7.344327e-01    4.206720e-02
  7.503083e-01    5.120263e-02
  7.661838e-01    9.308355e-02
  7.820594e-01    1.120468e-01
  7.979350e-01    1.314234e-01
  8.138106e-01    1.936398e-01
  8.296861e-01    2.683607e-01
  8.455617e-01    3.917264e-01
  8.614373e-01    4.461387e-01
  8.773129e-01    4.868313e-01
  8.931884e-01    5.062025e-01
  9.090640e-01    5.812591e-01
  9.249396e-01    6.602597e-01
  9.408152e-01    7.064199e-01
  9.566907e-01    7.074820e-01
  9.725663e-01    7.805039e-01
  9.884419e-01    9.946533e-01
  1.004317e+00    1.074203e+00
  1.020193e+00    1.163391e+00
  1.036069e+00    1.141759e+00
  1.051944e+00    1.281079e+00
  1.067820e+00    1.319537e+00
  1.083695e+00    1.289014e+00
  1.099571e+00    1.309076e+00
  1.115446e+00    1.348399e+00
  1.131322e+00    1.430582e+00
  1.147198e+00    1.463304e+00
  1.163073e+00    1.545205e+00
  1.178949e+00    1.545909e+00
  1.194824e+00    1.740445e+00
  1.210700e+00    1.965243e+00
  1.226575e+00    2.227706e+00
  1.242451e+00    2.215354e+00
  1.258327e+00    2.373280e+00
  1.274202e+00    2.436260e+00
  1.290078e+00    2.469580e+00
  1.305953e+00    2.558042e+00
  1.321829e+00    2.514482e+00
  1.337705e+00    2.590872e+00
  1.353580e+00    2.709245e+00
  1.369456e+00    2.781141e+00
  1.385331e+00    2.720220e+00
  1.401207e+00    2.644072e+00
  1.417082e+00    2.675992e+00
  1.432958e+00    2.618225e+00
  1.448834e+00    2.840786e+00
  1.464709e+00    2.963420e+00
  1.480585e+00    2.959583e+00
  1.496460e+00    2.931355e+00
  1.512336e+00    3.110119e+00
  1.528211e+00    3.067170e+00
  1.544087e+00    3.076220e+00
  1.559963e+00    3.130497e+00
  1.575838e+00    3.029053e+00
  1.591714e+00    3.010227e+00
  1.607589e+00    2.925723e+00
  1.623465e+00    2.961691e+00
  1.639340e+00    3.046389e+00
  1.655216e+00    3.070326e+00
  1.671092e+00    2.989797e+00
  1.686967e+00    2.919620e+00
  1.702843e+00    2.882531e+00
  1.718718e+00    3.014583e+00
  1.734594e+00    2.806273e+00
  1.750469e+00    2.765738e+00
  1.766345e+00    2.911000e+00
  1.782221e+00    2.807831e+00
  1.798096e+00    2.921286e+00
  1.813972e+00    2.994822e+00
  1.829847e+00    2.941093e+00
  1.845723e+00    2.901976e+00
  1.861598e+00    2.971274e+00
  1.877474e+00    2.902128e+00
  1.893350e+00    2.825316e+00
  1.909225e+00    2.891358e+00
  1.925101e+00    2.823228e+00
  1.940976e+00    2.844059e+00
  1.956852e+00    2.881032e+00
  1.972727e+00    2.798542e+00
  1.988603e+00    2.825748e+00
  2.004479e+00    2.707404e+00
  2.020354e+00    2.687990e+00
  2.036230e+00    2.667104e+00
  2.052105e+00    2.802742e+00
  2.067981e+00    2.801343e+00
  2.083856e+00    2.800184e+00
  2.099732e+00    2.712816e+00
  2.115608e+00    2.757730e+00
  2.131483e+00    2.836556e+00
  2.147359e+00    2.806374e+00
  2.163234e+00    2.854246e+00
  2.179110e+00    2.771538e+00
  2.194985e+00    2.768810e+00
  2.210861e+00    2.818455e+00
  2.226737e+00    2.861510e+00
  2.242612e+00    2.844121e+00
  2.258488e+00    2.817493e+00
  2.274363e+00    2.783861e+00
  2.290239e+00    2.840631e+00
  2.306115e+00    2.939213e+00
  2.321990e+00    2.819274e+00
  2.337866e+00    2.831366e+00
  2.353741e+00    2.803493e+00
  2.369617e+00    2.770912e+00
  2.385492e+00    2.860980e+00
  2.401368e+00    2.785738e+00
  2.417244e+00    2.752095e+00
  2.433119e+00    2.735319e+00
  2.448995e+00    2.708127e+00
  2.464870e+00    2.854997e+00
  2.480746e+00    2.950512e+00
  2.496621e+00    2.975381e+00
  2.512497e+00    2.879791e+00
  2.528373e+00    2.852497e+00
  2.544248e+00    2.870290e+00
  2.560124e+00    2.896807e+00
  2.575999e+00    2.974410e+00
  2.591875e+00    2.858698e+00
  2.607750e+00    2.694599e+00
  2.623626e+00    2.799850e+00
  2.639502e+00    2.771610e+00
  2.655377e+00    2.799883e+00
  2.671253e+00    2.858127e+00
  2.687128e+00    2.842872e+00
  2.703004e+00    2.932600e+00
  2.718879e+00    2.902839e+00
  2.734755e+00    2.872626e+00
  2.750631e+00    2.783772e+00
  2.766506e+00    2.780895e+00
  2.782382e+00    2.837016e+00
  2.798257e+00    2.913479e+00
  2.814133e+00    2.862284e+00
  2.830008e+00    2.871215e+00
  2.845884e+00    2.824756e+00
  2.861760e+00    2.757154e+00
  2.877635e+00    2.866421e+00
  2.893511e+00    2.905967e+00
  2.909386e+00    2.929741e+00
  2.925262e+00    2.911541e+00
  2.941137e+00    2.897068e+00
  2.957013e+00    2.874944e+00
  2.972889e+00    2.849370e+00
  2.988764e+00    2.946530e+00
  3.004640e+00    2.937090e+00
  3.020515e+00    2.980513e+00
  3.036391e+00    2.893771e+00
  3.052266e+00    2.981125e+00
  3.068142e+00    2.949317e+00
  3.084018e+00    3.055413e+00
  3.099893e+00    3.008959e+00
  3.115769e+00    2.904322e+00
  3.131644e+00    2.878150e+00
  3.147520e+00    2.877690e+00
  3.163395e+00    2.920296e+00
  3.179271e+00    2.947281e+00
  3.195147e+00    2.971127e+00
  3.211022e+00    2.930842e+00
  3.226898e+00    2.878039e+00
  3.242773e+00    2.904056e+00
  3.258649e+00    2.955463e+00
  3.274525e+00    2.997835e+00
  3.290400e+00    2.998781e+00
  3.306276e+00    2.958252e+00
  3.322151e+00    2.886244e+00
  3.338027e+00    2.880972e+00
  3.353902e+00    2.940526e+00
  3.369778e+00    2.968673e+00
  3.385654e+00    2.992253e+00
  3.401529e+00    2.923199e+00
  3.417405e+00    2.951934e+00
  3.433280e+00    2.964968e+00
  3.449156e+00    2.941098e+00
  3.465031e+00    2.990093e+00
  3.480907e+00    2.984049e+00
  3.496783e+00    2.907790e+00
  3.512658e+00    2.931374e+00
  3.528534e+00    2.969823e+00
  3.544409e+00    3.039603e+00
  3.560285e+00    3.000381e+00
  3.576160e+00    2.975879e+00
  3.592036e+00    2.933187e+00
  3.607912e+00    2.926184e+00
  3.623787e+00    3.074239e+00
  3.639663e+00    3.050234e+00
  3.655538e+00    2.974969e+00
  3.671414e+00    3.028191e+00
  3.687289e+00    2.967400e+00
  3.703165e+00    2.959334e+00
  3.719041e+00    2.989292e+00
  3.734916e+00    2.982983e+00
  3.750792e+00    3.004508e+00
  3.766667e+00    3.031024e+00
  3.782543e+00    3.000511e+00
  3.798418e+00    3.001642e+00
  3.814294e+00    3.051260e+00
  3.830170e+00    3.013925e+00
  3.846045e+00    3.065342e+00
  3.861921e+00    3.150040e+00
  3.877796e+00    3.103463e+00
  3.893672e+00    3.118883e+00
  3.909547e+00    2.962126e+00
  3.925423e+00    2.955291e+00
  3.941299e+00    3.006540e+00
  3.957174e+00    2.955868e+00
  3.973050e+00    2.969673e+00
  3.988925e+00    3.032280e+00
  4.004801e+00    3.114593e+00
  4.020676e+00    3.053180e+00
  4.036552e+00    3.064453e+00
  4.052428e+00    3.109234e+00
  4.068303e+00    3.112700e+00
  4.084179e+00    3.072931e+00
  4.100054e+00    2.990668e+00
  4.115930e+00    3.086552e+00
  4.131806e+00    3.150198e+00
  4.147681e+00    3.108991e+00
  4.163557e+00    3.073538e+00
  4.179432e+00    3.059532e+00
  4.195308e+00    3.072390e+00
  4.211183e+00    3.060051e+00
  4.227059e+00    3.088679e+00
  4.242935e+00    3.042293e+00
  4.258810e+00    2.974323e+00
  4.274686e+00    3.088873e+00
  4.290561e+00    3.063575e+00
  4.306437e+00    3.029707e+00
  4.322312e+00    3.161070e+00
  4.338188e+00    3.048563e+00
  4.354064e+00    3.087644e+00
  4.369939e+00    3.045290e+00
  4.385815e+00    3.081156e+00
  4.401690e+00    3.066273e+00
  4.417566e+00    3.074265e+00
  4.433441e+00    3.070703e+00
  4.449317e+00    3.159455e+00
  4.465193e+00    3.090498e+00
  4.481068e+00    3.096146e+00
  4.496944e+00    3.107465e+00
  4.512819e+00    3.114352e+00
  4.528695e+00    3.071882e+00
  4.544570e+00    3.075886e+00
  4.560446e+00    3.084876e+00
  4.576322e+00    3.126749e+00
  4.592197e+00    3.187887e+00
  4.608073e+00    3.155992e+00
  4.623948e+00    3.117590e+00
  4.639824e+00    3.072433e+00
  4.655699e+00    3.008818e+00
  4.671575e+00    3.082508e+00
  4.687451e+00    3.090836e+00
  4.703326e+00    3.112212e+00
  4.719202e+00    3.111454e+00
  4.735077e+00    3.129136e+00
  4.750953e+00    3.208552e+00
  4.766828e+00    3.107213e+00
  4.782704e+00    3.085977e+00
  4.798580e+00    3.138415e+00
  4.814455e+00    3.115180e+00
  4.830331e+00    3.120915e+00
  4.846206e+00    3.096177e+00
  4.862082e+00    3.118367e+00
  4.877957e+00    3.143496e+00
  4.893833e+00    3.094033e+00
  4.909709e+00    3.127376e+00
  4.925584e+00    3.178541e+00
  4.941460e+00    3.222237e+00
  4.957335e+00    3.217305e+00
  4.973211e+00    3.102817e+00
  4.989086e+00    3.104412e+00
  5.004962e+00    3.183609e+00
  5.020838e+00    3.195644e+00
  5.036713e+00    3.196246e+00
  5.052589e+00    3.191784e+00
  5.068464e+00    3.101402e+00
  5.084340e+00    3.104012e+00
  5.100216e+00    3.094381e+00
  5.116091e+00    3.122761e+00
  5.131967e+00    3.134000e+00
  5.147842e+00    3.176199e+00
  5.163718e+00    3.196171e+00
  5.179593e+00    3.164619e+00
  5.195469e+00    3.148041e+00
  5.211345e+00    3.162711e+00
  5.227220e+00    3.045925e+00
  5.243096e+00    3.189589e+00
  5.258971e+00    3.192694e+00
  5.274847e+00    3.198348e+00
  5.290722e+00    3.169747e+00
  5.306598e+00    3.183393e+00
  5.322474e+00    3.131875e+00
  5.338349e+00    3.084236e+00
  5.354225e+00    3.069688e+00
  5.370100e+00    3.116169e+00
  5.385976e+00    3.173414e+00
  5.401851e+00    3.105124e+00
  5.417727e+00    3.115907e+00
  5.433603e+00    3.182009e+00
  5.449478e+00    3.131467e+00
  5.465354e+00    3.074872e+00
  5.481229e+00    3.076975e+00
  5.497105e+00    3.167933e+00
  5.512980e+00    3.199671e+00
  5.528856e+00    3.130432e+00
  5.544732e+00    3.064308e+00
  5.560607e+00    3.158210e+00
  5.576483e+00    3.161489e+00
  5.592358e+00    3.168997e+00
  5.608234e+00    3.107828e+00
  5.624109e+00    3.089577e+00
  5.639985e+00    3.170635e+00
  5.655861e+00    3.075229e+00
  5.671736e+00    3.050926e+00
  5.687612e+00    3.083474e+00
  5.703487e+00    3.114310e+00
  5.719363e+00    3.110349e+00
  5.735238e+00    3.039273e+00
  5.751114e+00    3.097992e+00
  5.766990e+00    3.148068e+00
  5.782865e+00    3.085109e+00
  5.798741e+00    3.069376e+00
  5.814616e+00    3.098044e+00
  5.830492e+00    3.061171e+00
  5.846367e+00    3.010870e+00
  5.862243e+00    3.076397e+00
  5.878119e+00    2.982386e+00
  5.893994e+00    3.075220e+00
  5.909870e+00    3.066786e+00
  5.925745e+00    2.984435e+00
  5.941621e+00    3.023191e+00
  5.957497e+00    3.047397e+00
  5.973372e+00    3.053548e+00
  5.989248e+00    3.076341e+00
  6.005123e+00    3.025132e+00
  6.020999e+00    3.023897e+00
  6.036874e+00    3.043627e+00
  6.052750e+00    3.063614e+00
  6.068626e+00    3.014464e+00
  6.084501e+00    3.089626e+00
  6.100377e+00    3.073206e+00
  6.116252e+00    3.044936e+00
  6.132128e+00    3.111453e+00
  6.148003e+00    3.071320e+00
  6.163879e+00    3.122116e+00
  6.179755e+00    3.124730e+00
  6.195630e+00    3.070887e+00
  6.211506e+00    3.082114e+00
  6.227381e+00    3.034965e+00
  6.243257e+00    3.048112e+00
  6.259132e+00    3.035619e+00
  6.275008e+00    2.996115e+00
  6.290884e+00    3.061503e+00
  6.306759e+00    3.094365e+00
  6.322635e+00    3.068520e+00
  6.338510e+00    3.032908e+00
  6.354386e+00    3.125457e+00
  6.370261e+00    3.106338e+00
  6.386137e+00    3.057227e+00
  6.402013e+00    3.106098e+00
  6.417888e+00    3.065712e+00
  6.433764e+00    3.048931e+00
  6.449639e+00    3.004446e+00
  6.465515e+00    3.031012e+00
  6.481390e+00    3.055720e+00
  6.497266e+00    3.032011e+00
  6.513142e+00    3.048287e+00
  6.529017e+00    3.166359e+00
  6.544893e+00    3.131384e+00
  6.560768e+00    3.025564e+00
  6.576644e+00    2.959378e+00
  6.592519e+00    3.045806e+00
  6.608395e+00    3.017120e+00
  6.624271e+00    3.058882e+00
  6.640146e+00    3.062889e+00
  6.656022e+00    3.010143e+00
  6.671897e+00    2.955106e+00
  6.687773e+00    3.027468e+00
  6.703648e+00    3.038035e+00
  6.719524e+00    3.070132e+00
  6.735400e+00    3.029216e+00
  6.751275e+00    2.976605e+00
  6.767151e+00    3.006950e+00
  6.783026e+00    3.118101e+00
  6.798902e+00    3.093614e+00
  6.814777e+00    3.024708e+00
  6.830653e+00    3.017070e+00
  6.846529e+00    3.007504e+00
  6.862404e+00    2.999311e+00
  6.878280e+00    3.072059e+00
  6.894155e+00    3.081477e+00
  6.910031e+00    3.101087e+00
  6.925907e+00    3.097586e+00
  6.941782e+00    3.058967e+00
  6.957658e+00    3.058366e+00
  6.973533e+00    3.098451e+00
  6.989409e+00    2.986170e+00
  7.005284e+00    2.989499e+00
  7.021160e+00    3.110714e+00
  7.037036e+00    3.096627e+00
  7.052911e+00    3.090528e+00
  7.068787e+00    3.080485e+00
  7.084662e+00    3.030864e+00
  7.100538e+00    3.002059e+00
  7.116413e+00    2.989594e+00
  7.132289e+00    3.017581e+00
  7.148165e+00    3.013908e+00
  7.164040e+00    2.948076e+00
  7.179916e+00    2.984446e+00
  7.195791e+00    3.033957e+00
  7.211667e+00    3.055888e+00
  7.227542e+00    3.051674e+00
  7.243418e+00    3.072721e+00
  7.259294e+00    3.048843e+00
  7.275169e+00    3.070331e+00
  7.291045e+00    3.047802e+00
  7.306920e+00    3.035970e+00
  7.322796e+00    3.011922e+00
  7.338671e+00    3.055360e+00
  7.354547e+00    3.044282e+00
  7.370423e+00    2.930335e+00
  7.386298e+00    2.992350e+00
  7.402174e+00    3.043587e+00
  7.418049e+00    2.980543e+00
  7.433925e+00    2.998904e+00
  7.449800e+00    2.992681e+00
  7.465676e+00    3.028843e+00
  7.481552e+00    3.061799e+00
  7.497427e+00    3.076150e+00
  7.513303e+00    3.049646e+00
  7.529178e+00    3.006313e+00
  7.545054e+00    2.968634e+00
  7.560929e+00    2.976011e+00
  7.576805e+00    2.845248e+00
  7.592681e+00    2.896699e+00
  7.608556e+00    3.000765e+00
  7.624432e+00    3.035193e+00
  7.640307e+00    3.019132e+00
  7.656183e+00    2.978299e+00
  7.672058e+00    2.957243e+00
  7.687934e+00    2.929381e+00
  7.703810e+00    2.951551e+00
  7.719685e+00    2.923322e+00
  7.735561e+00    2.964545e+00
  7.751436e+00    2.991436e+00
  7.767312e+00    3.006629e+00
  7.783187e+00    2.966630e+00
  7.799063e+00    2.947725e+00
  7.814939e+00    2.944741e+00
  7.830814e+00    2.959157e+00
  7.846690e+00    2.924317e+00
  7.862565e+00    2.900938e+00
  7.878441e+00    2.893880e+00
  7.894317e+00    2.947783e+00
  7.910192e+00    2.934388e+00
  7.926068e+00    2.933224e+00
  7.941943e+00    2.923897e+00
  7.957819e+00    2.881039e+00
  7.973694e+00    2.908613e+00
  7.989570e+00    3.005305e+00
  8.005446e+00    2.989993e+00
  8.021321e+00    2.999995e+00
  8.037197e+00    2.964746e+00
  8.053072e+00    2.875647e+00
  8.068948e+00    2.906327e+00
  8.084823e+00    2.904839e+00
  8.100699e+00    3.008045e+00
  8.116575e+00    2.976729e+00
  8.132450e+00    2.958786e+00
  8.148326e+00    2.949954e+00
  8.164201e+00    2.996711e+00
  8.180077e+00    2.975616e+00
  8.195952e+00    2.990345e+00
  8.211828e+00    2.980181e+00
  8.227704e+00    2.994828e+00
  8.243579e+00    3.005080e+00
  8.259455e+00    2.988486e+00
  8.275330e+00    2.881492e+00
  8.291206e+00    2.853526e+00
  8.307081e+00    2.888816e+00
  8.322957e+00    2.940481e+00
  8.338833e+00    3.012477e+00
  8.354708e+00    2.993576e+00
  8.370584e+00    2.896021e+00
  8.386459e+00    2.888033e+00
  8.402335e+00    2.879281e+00
  8.418210e+00    2.911329e+00
  8.434086e+00    2.932212e+00
  8.449962e+00    2.963070e+00
  8.465837e+00    2.952127e+00
  8.481713e+00    2.895375e+00
  8.497588e+00    2.864273e+00
  8.513464e+00    2.897993e+00
  8.529339e+00    2.938807e+00
  8.545215e+00    2.907037e+00
  8.561091e+00    2.897722e+00
  8.576966e+00    2.931998e+00
  8.592842e+00    2.924254e+00
  8.608717e+00    2.878639e+00
  8.624593e+00    2.846917e+00
  8.640468e+00    2.906924e+00
  8.656344e+00    2.852920e+00
  8.672220e+00    2.859860e+00
  8.688095e+00    2.882459e+00
  8.703971e+00    2.836691e+00
  8.719846e+00    2.831824e+00
  8.735722e+00    2.859657e+00
  8.751598e+00    2.842618e+00
  8.767473e+00    2.832956e+00
  8.783349e+00    2.835870e+00
  8.799224e+00    2.887924e+00
  8.815100e+00    2.896493e+00
  8.830975e+00    2.880207e+00
  8.846851e+00    2.863977e+00
  8.862727e+00    2.894533e+00
  8.878602e+00    2.928097e+00
  8.894478e+00    2.829923e+00
  8.910353e+00    2.846467e+00
  8.926229e+00    2.813564e+00
  8.942104e+00    2.836361e+00
  8.957980e+00    2.808354e+00
  8.973856e+00    2.869298e+00
  8.989731e+00    2.807505e+00
  9.005607e+00    2.862221e+00
  9.021482e+00    2.860723e+00
  9.037358e+00    2.880326e+00
  9.053233e+00    2.837914e+00
  9.069109e+00    2.840726e+00
  9.084985e+00    2.848691e+00
  9.100860e+00    2.841762e+00
  9.116736e+00    2.796480e+00
  9.132611e+00    2.837833e+00
  9.148487e+00    2.824733e+00
  9.164362e+00    2.800529e+00
  9.180238e+00    2.852751e+00
  9.196114e+00    2.845078e+00
  9.211989e+00    2.807848e+00
  9.227865e+00    2.827199e+00
  9.243740e+00    2.819367e+00
  9.259616e+00    2.832210e+00
  9.275491e+00    2.827903e+00
  9.291367e+00    2.845131e+00
  9.307243e+00    2.883157e+00
  9.323118e+00    2.864573e+00
  9.338994e+00    2.790023e+00
  9.354869e+00    2.788396e+00
  9.370745e+00    2.801048e+00
  9.386620e+00    2.763945e+00
  9.402496e+00    2.758942e+00
  9.418372e+00    2.776606e+00
  9.434247e+00    2.756598e+00
  9.450123e+00    2.808057e+00
  9.465998e+00    2.780463e+00
  9.481874e+00    2.820791e+00
  9.497749e+00    2.744134e+00
  9.513625e+00    2.800249e+00
  9.529501e+00    2.862185e+00
  9.545376e+00    2.815178e+00
  9.561252e+00    2.803245e+00
  9.577127e+00    2.803647e+00
  9.593003e+00    2.820753e+00
  9.608878e+00    2.780966e+00
  9.624754e+00    2.817935e+00
  9.640630e+00    2.790827e+00
  9.656505e+00    2.803114e+00
  9.672381e+00    2.787855e+00
  9.688256e+00    2.774286e+00
  9.704132e+00    2.755243e+00
  9.720008e+00    2.731946e+00
  9.735883e+00    2.759754e+00
  9.751759e+00    2.781459e+00
  9.767634e+00    2.753119e+00
  9.783510e+00    2.740107e+00
  9.799385e+00    2.743658e+00
  9.815261e+00    2.708761e+00
  9.831137e+00    2.701391e+00
  9.847012e+00    2.716698e+00
  9.862888e+00    2.737601e+00
  9.878763e+00    2.738349e+00
  9.894639e+00    2.699632e+00
  9.910514e+00    2.687851e+00
  9.926390e+00    2.728980e+00
  9.942266e+00    2.691972e+00
  9.958141e+00    2.648393e+00
  9.974017e+00    2.648625e+00
  9.989892e+00    2.685765e+00
  1.000577e+01    2.716702e+00
  1.002164e+01    2.678840e+00
  1.003752e+01    2.618856e+00
  1.005339e+01    2.655604e+00
  1.006927e+01    2.677255e+00
  1.008515e+01    2.642373e+00
  1.010102e+01    2.641226e+00
  1.011690e+01    2.638677e+00
  1.013277e+01    2.669138e+00
  1.014865e+01    2.699684e+00
  1.016452e+01    2.703871e+00
  1.018040e+01    2.708559e+00
  1.019627e+01    2.691360e+00
  1.021215e+01    2.664297e+00
  1.022803e+01    2.690793e+00
  1.024390e+01    2.712466e+00
  1.025978e+01    2.672448e+00
  1.027565e+01    2.655092e+00
  1.029153e+01    2.649033e+00
  1.030740e+01    2.612002e+00
  1.032328e+01    2.632263e+00
  1.033915e+01    2.654527e+00
  1.035503e+01    2.651793e+00
  1.037091e+01    2.656460e+00
  1.038678e+01    2.630948e+00
  1.040266e+01    2.630474e+00
  1.041853e+01    2.623583e+00
  1.043441e+01    2.632270e+00
  1.045028e+01    2.592922e+00
  1.046616e+01    2.593368e+00
  1.048204e+01    2.667766e+00
  1.049791e+01    2.639060e+00
  1.051379e+01    2.631492e+00
  1.052966e+01    2.610895e+00
  1.054554e+01    2.618013e+00
  1.056141e+01    2.610791e+00
  1.057729e+01    2.589935e+00
  1.059316e+01    2.633622e+00
  1.060904e+01    2.604498e+00
  1.062492e+01    2.614836e+00
  1.064079e+01    2.567512e+00
  1.065667e+01    2.589154e+00
  1.067254e+01    2.588911e+00
  1.068842e+01    2.615305e+00
  1.070429e+01    2.607027e+00
  1.072017e+01    2.560925e+00
  1.073604e+01    2.578124e+00
  1.075192e+01    2.570020e+00
  1.076780e+01    2.535234e+00
  1.078367e+01    2.510419e+00
  1.079955e+01    2.574889e+00
  1.081542e+01    2.551076e+00
  1.083130e+01    2.566445e+00
  1.084717e+01    2.560163e+00
  1.086305e+01    2.523243e+00
  1.087892e+01    2.512402e+00
  1.089480e+01    2.529746e+00
  1.091068e+01    2.525845e+00
  1.092655e+01    2.567630e+00
  1.094243e+01    2.570468e+00
  1.095830e+01    2.497522e+00
  1.097418e+01    2.529140e+00
  1.099005e+01    2.515125e+00
  1.100593e+01    2.502616e+00
  1.102180e+01    2.526160e+00
  1.103768e+01    2.505859e+00
  1.105356e+01    2.440938e+00
  1.106943e+01    2.510909e+00
  1.108531e+01    2.524763e+00
  1.110118e+01    2.531274e+00
  1.111706e+01    2.492032e+00
  1.113293e+01    2.443024e+00
  1.114881e+01    2.474889e+00
  1.116468e+01    2.497517e+00
  1.118056e+01    2.493782e+00
  1.119644e+01    2.516788e+00
  1.121231e+01    2.518701e+00
  1.122819e+01    2.482614e+00
  1.124406e+01    2.509970e+00
  1.125994e+01    2.510172e+00
  1.127581e+01    2.508499e+00
  1.129169e+01    2.485058e+00
  1.130756e+01    2.471072e+00
  1.132344e+01    2.508875e+00
  1.133932e+01    2.480059e+00
  1.135519e+01    2.477225e+00
  1.137107e+01    2.419060e+00
  1.138694e+01    2.438486e+00
  1.140282e+01    2.487326e+00
  1.141869e+01    2.504525e+00
  1.143457e+01    2.468590e+00
  1.145045e+01    2.439318e+00
  1.146632e+01    2.437957e+00
  1.148220e+01    2.481335e+00
  1.149807e+01    2.456326e+00
  1.151395e+01    2.459067e+00
  1.152982e+01    2.496907e+00
  1.154570e+01    2.440288e+00
  1.156157e+01    2.379784e+00
  1.157745e+01    2.382345e+00
  1.159333e+01    2.434120e+00
  1.160920e+01    2.421529e+00
  1.162508e+01    2.383729e+00
  1.164095e+01    2.401541e+00
  1.165683e+01    2.349828e+00
  1.167270e+01    2.335699e+00
  1.168858e+01    2.391009e+00
  1.170445e+01    2.397027e+00
  1.172033e+01    2.373248e+00
  1.173621e+01    2.391647e+00
  1.175208e+01    2.341996e+00
  1.176796e+01    2.338731e+00
  1.178383e+01    2.361934e+00
  1.179971e+01    2.376419e+00
  1.181558e+01    2.393224e+00
  1.183146e+01    2.356844e+00
  1.184733e+01    2.402828e+00
  1.186321e+01    2.418245e+00
  1.187909e+01    2.474507e+00
  1.189496e+01    2.417702e+00
  1.191084e+01    2.397648e+00
  1.192671e+01    2.363131e+00
  1.194259e+01    2.394568e+00
  1.195846e+01    2.410075e+00
  1.197434e+01    2.351322e+00
  1.199021e+01    2.366501e+00
  1.200609e+01    2.389798e+00
  1.202197e+01    2.382195e+00
  1.203784e+01    2.405444e+00
  1.205372e+01    2.377582e+00
  1.206959e+01    2.362194e+00
  1.208547e+01    2.358105e+00
  1.210134e+01    2.301967e+00
  1.211722e+01    2.316499e+00
  1.213309e+01    2.386513e+00
  1.214897e+01    2.390226e+00
  1.216485e+01    2.303392e+00
  1.218072e+01    2.314093e+00
  1.219660e+01    2.344936e+00
  1.221247e+01    2.360091e+00
  1.222835e+01    2.372439e+00
  1.224422e+01    2.348603e+00
  1.226010e+01    2.364119e+00
  1.227597e+01    2.348524e+00
  1.229185e+01    2.360254e+00
  1.230773e+01    2.370502e+00
  1.232360e+01    2.375447e+00
  1.233948e+01    2.402046e+00
  1.235535e+01    2.370596e+00
  1.237123e+01    2.349774e+00
  1.238710e+01    2.358515e+00
  1.240298e+01    2.374850e+00
  1.241886e+01    2.338865e+00
  1.243473e+01    2.368035e+00
  1.245061e+01    2.359522e+00
  1.246648e+01    2.379676e+00
  1.248236e+01    2.406851e+00
  1.249823e+01    2.387719e+00
  1.251411e+01    2.381287e+00
  1.252998e+01    2.367269e+00
  1.254586e+01    2.395368e+00
  1.256174e+01    2.429825e+00
  1.257761e+01    2.406911e+00
  1.259349e+01    2.407718e+00
  1.260936e+01    2.443370e+00
  1.262524e+01    2.408159e+00
  1.264111e+01    2.455943e+00
  1.265699e+01    2.503109e+00
  1.267286e+01    2.485256e+00
  1.268874e+01    2.514272e+00
  1.270462e+01    2.546695e+00
  1.272049e+01    2.607558e+00
  1.273637e+01    2.547564e+00
  1.275224e+01    2.604199e+00
  1.276812e+01    2.674825e+00
  1.278399e+01    2.669287e+00
  1.279987e+01    2.666406e+00
  1.281574e+01    2.778483e+00
  1.283162e+01    2.830377e+00
  1.284750e+01    2.874249e+00
  1.286337e+01    2.950710e+00
  1.287925e+01    3.038950e+00
  1.289512e+01    3.174760e+00
  1.291100e+01    3.328965e+00
  1.292687e+01    3.518602e+00
  1.294275e+01    3.731645e+00
  1.295862e+01    3.989429e+00
  1.297450e+01    4.317822e+00
  1.299038e+01    4.727039e+00
  1.300625e+01    5.225566e+00
  1.302213e+01    5.861124e+00
  1.303800e+01    6.745908e+00
  1.305388e+01    7.855768e+00
  1.306975e+01    9.074148e+00
  1.308563e+01    1.050681e+01
  1.310150e+01    1.210885e+01
  1.311738e+01    1.369787e+01
  1.313326e+01    1.526628e+01
  1.314913e+01    1.673651e+01
  1.316501e+01    1.803442e+01
  1.318088e+01    1.910421e+01
  1.319676e+01    1.981972e+01
  1.321263e+01    1.960950e+01
  1.322851e+01    1.811598e+01
  1.324438e+01    1.605552e+01
  1.326026e+01    1.382655e+01
  1.327614e+01    1.155435e+01
  1.329201e+01    9.666716e+00
  1.330789e+01    8.205462e+00
  1.332376e+01    7.064150e+00
  1.333964e+01    6.121500e+00
  1.335551e+01    5.402879e+00
  1.337139e+01    4.888981e+00
  1.338727e+01    4.446244e+00
  1.340314e+01    4.039608e+00
  1.341902e+01    3.829905e+00
  1.343489e+01    3.559359e+00
  1.345077e+01    3.288275e+00
  1.346664e+01    3.221524e+00
  1.348252e+01    3.115160e+00
  1.349839e+01    2.948929e+00
  1.351427e+01    2.857807e+00
  1.353015e+01    2.767468e+00
  1.354602e+01    2.707583e+00
  1.356190e+01    2.649759e+00
  1.357777e+01    2.594697e+00
  1.359365e+01    2.523535e+00
  1.360952e+01    2.524179e+00
  1.362540e+01    2.482315e+00
  1.364127e+01    2.453761e+00
  1.365715e+01    2.419066e+00
  1.367303e+01    2.390762e+00
  1.368890e+01    2.354353e+00
  1.370478e+01    2.350450e+00
  1.372065e+01    2.258054e+00
  1.373653e+01    2.231094e+00
  1.375240e+01    2.261745e+00
  1.376828e+01    2.265154e+00
  1.378415e+01    2.227692e+00
  1.380003e+01    2.215104e+00
  1.381591e+01    2.194598e+00
  1.383178e+01    2.210315e+00
  1.384766e+01    2.205125e+00
  1.386353e+01    2.183531e+00
  1.387941e+01    2.202651e+00
  1.389528e+01    2.209505e+00
  1.391116e+01    2.150794e+00
  1.392703e+01    2.132812e+00
  1.394291e+01    2.140910e+00
  1.395879e+01    2.115787e+00
  1.397466e+01    2.099082e+00
  1.399054e+01    2.067885e+00
  1.400641e+01    2.031015e+00
  1.402229e+01    2.073094e+00
  1.403816e+01    2.099217e+00
  1.405404e+01    2.030777e+00
  1.406991e+01    2.063113e+00
  1.408579e+01    2.082780e+00
  1.410167e+01    2.051352e+00
  1.411754e+01    2.022738e+00
  1.413342e+01    2.029695e+00
  1.414929e+01    2.049753e+00
  1.416517e+01    2.006051e+00
  1.418104e+01    2.041098e+00
  1.419692e+01    2.060855e+00
  1.421279e+01    2.044225e+00
  1.422867e+01    2.019011e+00
  1.424455e+01    2.020277e+00
  1.426042e+01    2.032454e+00
  1.427630e+01    2.011965e+00
  1.429217e+01    2.030344e+00
  1.430805e+01    2.000411e+00
  1.432392e+01    1.961835e+00
  1.433980e+01    1.993493e+00
  1.435568e+01    1.968654e+00
  1.437155e+01    1.939373e+00
  1.438743e+01    1.967073e+00
  1.440330e+01    1.997432e+00
  1.441918e+01    1.962410e+00
  1.443505e+01    1.925554e+00
  1.445093e+01    1.941449e+00
  1.446680e+01    1.957700e+00
  1.448268e+01    1.960901e+00
  1.449856e+01    1.930627e+00
  1.451443e+01    1.926865e+00
  1.453031e+01    1.988617e+00
  1.454618e+01    1.971336e+00
  1.456206e+01    1.940029e+00
  1.457793e+01    1.950904e+00
  1.459381e+01    1.977300e+00
  1.460968e+01    1.943893e+00
  1.462556e+01    1.932841e+00
  1.464144e+01    1.953563e+00
  1.465731e+01    1.924243e+00
  1.467319e+01    1.923729e+00
  1.468906e+01    1.910466e+00
  1.470494e+01    1.922359e+00
  1.472081e+01    1.930661e+00
  1.473669e+01    1.948235e+00
  1.475256e+01    1.931903e+00
  1.476844e+01    1.928951e+00
  1.478432e+01    1.965997e+00
  1.480019e+01    1.944355e+00
  1.481607e+01    1.956118e+00
  1.483194e+01    1.942568e+00
  1.484782e+01    1.946581e+00
  1.486369e+01    1.921769e+00
  1.487957e+01    1.946912e+00
  1.489544e+01    1.963148e+00
  1.491132e+01    1.983284e+00
  1.492720e+01    1.978760e+00
  1.494307e+01    2.026308e+00
  1.495895e+01    2.045934e+00
  1.497482e+01    2.042830e+00
  1.499070e+01    2.120965e+00
  1.500657e+01    2.185963e+00
  1.502245e+01    2.242184e+00
  1.503832e+01    2.274532e+00
  1.505420e+01    2.365331e+00
  1.507008e+01    2.476491e+00
  1.508595e+01    2.651131e+00
  1.510183e+01    2.786703e+00
  1.511770e+01    2.965362e+00
  1.513358e+01    3.205622e+00
  1.514945e+01    3.565882e+00
  1.516533e+01    3.958951e+00
  1.518120e+01    4.409233e+00
  1.519708e+01    4.890507e+00
  1.521296e+01    5.354962e+00
  1.522883e+01    5.760555e+00
  1.524471e+01    6.020937e+00
  1.526058e+01    6.328532e+00
  1.527646e+01    6.557959e+00
  1.529233e+01    6.595501e+00
  1.530821e+01    6.473191e+00
  1.532409e+01    6.119827e+00
  1.533996e+01    5.609866e+00
  1.535584e+01    4.994604e+00
  1.537171e+01    4.378722e+00
  1.538759e+01    3.782693e+00
  1.540346e+01    3.430665e+00
  1.541934e+01    3.073210e+00
  1.543521e+01    2.777940e+00
  1.545109e+01    2.611418e+00
  1.546697e+01    2.472442e+00
  1.548284e+01    2.373441e+00
  1.549872e+01    2.268046e+00
  1.551459e+01    2.198779e+00
  1.553047e+01    2.146542e+00
  1.554634e+01    2.092824e+00
  1.556222e+01    2.022978e+00
  1.557809e+01    1.990264e+00
  1.559397e+01    1.928057e+00
  1.560985e+01    1.901717e+00
  1.562572e+01    1.889256e+00
  1.564160e+01    1.845835e+00
  1.565747e+01    1.815615e+00
  1.567335e+01    1.821623e+00
  1.568922e+01    1.786799e+00
  1.570510e+01    1.764041e+00
  1.572097e+01    1.770215e+00
  1.573685e+01    1.742350e+00
  1.575273e+01    1.751430e+00
  1.576860e+01    1.766979e+00
  1.578448e+01    1.740292e+00
  1.580035e+01    1.721866e+00
  1.581623e+01    1.720244e+00
  1.583210e+01    1.701988e+00
  1.584798e+01    1.711835e+00
  1.586385e+01    1.704961e+00
  1.587973e+01    1.707476e+00
  1.589561e+01    1.678326e+00
  1.591148e+01    1.669758e+00
  1.592736e+01    1.671949e+00
  1.594323e+01    1.648665e+00
  1.595911e+01    1.637208e+00
  1.597498e+01    1.672365e+00
  1.599086e+01    1.689032e+00
  1.600673e+01    1.682013e+00
  1.602261e+01    1.650074e+00
  1.603849e+01    1.626451e+00
  1.605436e+01    1.637112e+00
  1.607024e+01    1.615728e+00
  1.608611e+01    1.650854e+00
  1.610199e+01    1.632570e+00
  1.611786e+01    1.657557e+00
  1.613374e+01    1.650086e+00
  1.614961e+01    1.646808e+00
  1.616549e+01    1.596495e+00
  1.618137e+01    1.573161e+00
  1.619724e+01    1.607839e+00
  1.621312e+01    1.628988e+00
  1.622899e+01    1.588140e+00
  1.624487e+01    1.558327e+00
  1.626074e+01    1.582791e+00
  1.627662e+01    1.575180e+00
  1.629250e+01    1.580782e+00
  1.630837e+01    1.557380e+00
  1.632425e+01    1.563998e+00
  1.634012e+01    1.596893e+00
  1.635600e+01    1.591865e+00
  1.637187e+01    1.554155e+00
  1.638775e+01    1.569504e+00
  1.640362e+01    1.580876e+00
  1.641950e+01    1.559864e+00
  1.643538e+01    1.523866e+00
  1.645125e+01    1.554805e+00
  1.646713e+01    1.579160e+00
  1.648300e+01    1.564450e+00
  1.649888e+01    1.538867e+00
  1.651475e+01    1.562535e+00
  1.653063e+01    1.557081e+00
  1.654650e+01    1.529435e+00
  1.656238e+01    1.515645e+00
  1.657826e+01    1.527680e+00
  1.659413e+01    1.500971e+00
  1.661001e+01    1.485886e+00
  1.662588e+01    1.505988e+00
  1.664176e+01    1.521517e+00
  1.665763e+01    1.521729e+00
  1.667351e+01    1.515522e+00
  1.668938e+01    1.506870e+00
  1.670526e+01    1.509432e+00
  1.672114e+01    1.507586e+00
  1.673701e+01    1.515234e+00
  1.675289e+01    1.505494e+00
  1.676876e+01    1.483326e+00
  1.678464e+01    1.472331e+00
  1.680051e+01    1.477998e+00
  1.681639e+01    1.478334e+00
  1.683226e+01    1.473310e+00
  1.684814e+01    1.462119e+00
  1.686402e+01    1.457422e+00
  1.687989e+01    1.437029e+00
  1.689577e+01    1.423690e+00
  1.691164e+01    1.455158e+00
  1.692752e+01    1.440788e+00
  1.694339e+01    1.464931e+00
  1.695927e+01    1.502206e+00
  1.697514e+01    1.483908e+00
  1.699102e+01    1.451821e+00
  1.700690e+01    1.453753e+00
  1.702277e+01    1.473954e+00
  1.703865e+01    1.444461e+00
  1.705452e+01    1.415582e+00
  1.707040e+01    1.457496e+00
  1.708627e+01    1.437604e+00
  1.710215e+01    1.437410e+00
  1.711802e+01    1.437862e+00
  1.713390e+01    1.410629e+00
  1.714978e+01    1.432470e+00
  1.716565e+01    1.435429e+00
  1.718153e+01    1.434036e+00
  1.719740e+01    1.415168e+00
  1.721328e+01    1.409363e+00
  1.722915e+01    1.422664e+00
  1.724503e+01    1.431661e+00
  1.726091e+01    1.417405e+00
  1.727678e+01    1.398513e+00
  1.729266e+01    1.401304e+00
  1.730853e+01    1.395009e+00
  1.732441e+01    1.395431e+00
  1.734028e+01    1.402605e+00
  1.735616e+01    1.379475e+00
  1.737203e+01    1.411507e+00
  1.738791e+01    1.430979e+00
  1.740379e+01    1.405138e+00
  1.741966e+01    1.401411e+00
  1.743554e+01    1.418303e+00
  1.745141e+01    1.393049e+00
  1.746729e+01    1.391390e+00
  1.748316e+01    1.413541e+00
  1.749904e+01    1.398740e+00
  1.751491e+01    1.388825e+00
  1.753079e+01    1.385435e+00
  1.754667e+01    1.398439e+00
  1.756254e+01    1.392946e+00
  1.757842e+01    1.392305e+00
  1.759429e+01    1.382139e+00
  1.761017e+01    1.393532e+00
  1.762604e+01    1.391467e+00
  1.764192e+01    1.362242e+00
  1.765779e+01    1.364621e+00
  1.767367e+01    1.363804e+00
  1.768955e+01    1.366327e+00
  1.770542e+01    1.357391e+00
  1.772130e+01    1.356193e+00
  1.773717e+01    1.379278e+00
  1.775305e+01    1.355490e+00
  1.776892e+01    1.370613e+00
  1.778480e+01    1.371867e+00
  1.780067e+01    1.348151e+00
  1.781655e+01    1.375841e+00
  1.783243e+01    1.363965e+00
  1.784830e+01    1.340764e+00
  1.786418e+01    1.338340e+00
  1.788005e+01    1.344786e+00
  1.789593e+01    1.362297e+00
  1.791180e+01    1.342485e+00
  1.792768e+01    1.343593e+00
  1.794355e+01    1.322273e+00
  1.795943e+01    1.308803e+00
  1.797531e+01    1.329740e+00
  1.799118e+01    1.325699e+00
  1.800706e+01    1.327139e+00
  1.802293e+01    1.328600e+00
  1.803881e+01    1.321031e+00
  1.805468e+01    1.322734e+00
  1.807056e+01    1.344473e+00
  1.808643e+01    1.327880e+00
  1.810231e+01    1.316453e+00
  1.811819e+01    1.279028e+00
  1.813406e+01    1.306543e+00
  1.814994e+01    1.315266e+00
  1.816581e+01    1.290427e+00
  1.818169e+01    1.284611e+00
  1.819756e+01    1.301394e+00
  1.821344e+01    1.279741e+00
  1.822932e+01    1.288998e+00
  1.824519e+01    1.282908e+00
  1.826107e+01    1.291911e+00
  1.827694e+01    1.290490e+00
  1.829282e+01    1.276226e+00
  1.830869e+01    1.275962e+00
  1.832457e+01    1.288330e+00
  1.834044e+01    1.292826e+00
  1.835632e+01    1.302647e+00
  1.837220e+01    1.318605e+00
  1.838807e+01    1.306148e+00
  1.840395e+01    1.307022e+00
  1.841982e+01    1.292257e+00
  1.843570e+01    1.295437e+00
  1.845157e+01    1.292698e+00
  1.846745e+01    1.303655e+00
  1.848332e+01    1.277447e+00
  1.849920e+01    1.288473e+00
  1.851508e+01    1.317197e+00
  1.853095e+01    1.261224e+00
  1.854683e+01    1.249550e+00
  1.856270e+01    1.260875e+00
  1.857858e+01    1.253090e+00
  1.859445e+01    1.237735e+00
  1.861033e+01    1.244952e+00
  1.862620e+01    1.253712e+00
  1.864208e+01    1.251403e+00
  1.865796e+01    1.277207e+00
  1.867383e+01    1.250810e+00
  1.868971e+01    1.245950e+00
  1.870558e+01    1.242799e+00
  1.872146e+01    1.224328e+00
  1.873733e+01    1.240350e+00
  1.875321e+01    1.226828e+00
  1.876908e+01    1.222250e+00
  1.878496e+01    1.233685e+00
  1.880084e+01    1.229924e+00
  1.881671e+01    1.229844e+00
  1.883259e+01    1.243190e+00
  1.884846e+01    1.248415e+00
  1.886434e+01    1.221257e+00
  1.888021e+01    1.220500e+00
  1.889609e+01    1.211741e+00
  1.891196e+01    1.225687e+00
  1.892784e+01    1.223060e+00
  1.894372e+01    1.196655e+00
  1.895959e+01    1.203302e+00
  1.897547e+01    1.231260e+00
  1.899134e+01    1.234666e+00
  1.900722e+01    1.224165e+00
  1.902309e+01    1.226359e+00
  1.903897e+01    1.232623e+00
  1.905484e+01    1.210060e+00
  1.907072e+01    1.234022e+00
  1.908660e+01    1.222819e+00
  1.910247e+01    1.202056e+00
  1.911835e+01    1.206651e+00
  1.913422e+01    1.210220e+00
  1.915010e+01    1.187251e+00
  1.916597e+01    1.195114e+00
  1.918185e+01    1.184850e+00
  1.919773e+01    1.193691e+00
  1.921360e+01    1.193780e+00
  1.922948e+01    1.189962e+00
  1.924535e+01    1.205499e+00
  1.926123e+01    1.189438e+00
  1.927710e+01    1.200482e+00
  1.929298e+01    1.189788e+00
  1.930885e+01    1.204082e+00
  1.932473e+01    1.175190e+00
  1.934061e+01    1.178291e+00
  1.935648e+01    1.199547e+00
  1.937236e+01    1.183831e+00
  1.938823e+01    1.193790e+00
  1.940411e+01    1.183636e+00
  1.941998e+01    1.199951e+00
  1.943586e+01    1.188621e+00
  1.945173e+01    1.164788e+00
  1.946761e+01    1.164072e+00
  1.948349e+01    1.169131e+00
  1.949936e+01    1.169657e+00
  1.951524e+01    1.189253e+00
  1.953111e+01    1.163792e+00
  1.954699e+01    1.157627e+00
  1.956286e+01    1.181012e+00
  1.957874e+01    1.171880e+00
  1.959461e+01    1.183279e+00
  1.961049e+01    1.179018e+00
  1.962637e+01    1.169959e+00
  1.964224e+01    1.153199e+00
  1.965812e+01    1.147804e+00
  1.967399e+01    1.156929e+00
  1.968987e+01    1.148240e+00
  1.970574e+01    1.169908e+00
  1.972162e+01    1.175795e+00
  1.973749e+01    1.150503e+00
  1.975337e+01    1.188501e+00
  1.976925e+01    1.176706e+00
  1.978512e+01    1.149122e+00
  1.980100e+01    1.136762e+00
  1.981687e+01    1.161553e+00
  1.983275e+01    1.179389e+00
  1.984862e+01    1.187642e+00
  1.986450e+01    1.167958e+00
  1.988037e+01    1.145465e+00
  1.989625e+01    1.139290e+00
  1.991213e+01    1.122429e+00
  1.992800e+01    1.141025e+00
  1.994388e+01    1.138914e+00
  1.995975e+01    1.140704e+00
  1.997563e+01    1.167600e+00
  1.999150e+01    1.163922e+00
  2.000738e+01    1.154683e+00
  2.002325e+01    1.145014e+00
  2.003913e+01    1.134440e+00
  2.005501e+01    1.127289e+00
  2.007088e+01    1.152171e+00
  2.008676e+01    1.134545e+00
  2.010263e+01    1.151897e+00
  2.011851e+01    1.139654e+00
  2.013438e+01    1.142357e+00
  2.015026e+01    1.138920e+00
  2.016614e+01    1.152701e+00
  2.018201e+01    1.129547e+00
  2.019789e+01    1.124432e+00
  2.021376e+01    1.139530e+00
  2.022964e+01    1.124775e+00
  2.024551e+01    1.125773e+00
  2.026139e+01    1.125826e+00
  2.027726e+01    1.127492e+00
  2.029314e+01    1.120341e+00
  2.030902e+01    1.109813e+00
  2.032489e+01    1.115040e+00
  2.034077e+01    1.136858e+00
  2.035664e+01    1.116115e+00
  2.037252e+01    1.122183e+00
  2.038839e+01    1.103800e+00
  2.040427e+01    1.125129e+00
  2.042014e+01    1.095638e+00
  2.043602e+01    1.091785e+00
  2.045190e+01    1.092389e+00
  2.046777e+01    1.121614e+00
  2.048365e+01    1.128430e+00
  2.049952e+01    1.110079e+00
  2.051540e+01    1.120626e+00
  2.053127e+01    1.126978e+00
  2.054715e+01    1.105933e+00
  2.056302e+01    1.118926e+00
  2.057890e+01    1.094012e+00
  2.059478e+01    1.097298e+00
  2.061065e+01    1.110295e+00
  2.062653e+01    1.094003e+00
  2.064240e+01    1.094376e+00
  2.065828e+01    1.089533e+00
  2.067415e+01    1.106932e+00
  2.069003e+01    1.095884e+00
  2.070590e+01    1.094913e+00
  2.072178e+01    1.080631e+00
  2.073766e+01    1.097634e+00
  2.075353e+01    1.095942e+00
  2.076941e+01    1.083883e+00
  2.078528e+01    1.101428e+00
  2.080116e+01    1.113317e+00
  2.081703e+01    1.114780e+00
  2.083291e+01    1.081366e+00
  2.084878e+01    1.097009e+00
  2.086466e+01    1.092353e+00
  2.088054e+01    1.102788e+00
  2.089641e+01    1.100247e+00
  2.091229e+01    1.103732e+00
  2.092816e+01    1.119773e+00
  2.094404e+01    1.133850e+00
  2.095991e+01    1.111628e+00
  2.097579e+01    1.115805e+00
  2.099166e+01    1.125339e+00
  2.100754e+01    1.127486e+00
  2.102342e+01    1.104893e+00
  2.103929e+01    1.103082e+00
  2.105517e+01    1.095149e+00
  2.107104e+01    1.088628e+00
  2.108692e+01    1.090665e+00
  2.110279e+01    1.091345e+00
  2.111867e+01    1.136050e+00
  2.113455e+01    1.119273e+00
  2.115042e+01    1.097476e+00
  2.116630e+01    1.111534e+00
  2.118217e+01    1.122759e+00
  2.119805e+01    1.124137e+00
  2.121392e+01    1.141937e+00
  2.122980e+01    1.150509e+00
  2.124567e+01    1.138268e+00
  2.126155e+01    1.118573e+00
  2.127743e+01    1.121643e+00
  2.129330e+01    1.134269e+00
  2.130918e+01    1.117257e+00
  2.132505e+01    1.149096e+00
  2.134093e+01    1.147951e+00
  2.135680e+01    1.144913e+00
  2.137268e+01    1.147933e+00
  2.138855e+01    1.172624e+00
  2.140443e+01    1.181877e+00
  2.142031e+01    1.195792e+00
  2.143618e+01    1.221269e+00
  2.145206e+01    1.259657e+00
  2.146793e+01    1.258096e+00
  2.148381e+01    1.256731e+00
  2.149968e+01    1.268534e+00
  2.151556e+01    1.332267e+00
  2.153143e+01    1.355091e+00
  2.154731e+01    1.357977e+00
  2.156319e+01    1.413106e+00
  2.157906e+01    1.436537e+00
  2.159494e+01    1.493498e+00
  2.161081e+01    1.543530e+00
  2.162669e+01    1.639153e+00
  2.164256e+01    1.714507e+00
  2.165844e+01    1.818761e+00
  2.167431e+01    1.963524e+00
  2.169019e+01    2.121281e+00
  2.170607e+01    2.352939e+00
  2.172194e+01    2.572180e+00
  2.173782e+01    2.867870e+00
  2.175369e+01    3.251883e+00
  2.176957e+01    3.756526e+00
  2.178544e+01    4.276453e+00
  2.180132e+01    4.883900e+00
  2.181719e+01    5.639110e+00
  2.183307e+01    6.447975e+00
  2.184895e+01    7.256366e+00
  2.186482e+01    8.139676e+00
  2.188070e+01    9.118720e+00
  2.189657e+01    9.926713e+00
  2.191245e+01    1.054237e+01
  2.192832e+01    1.102524e+01
  2.194420e+01    1.089255e+01
  2.196007e+01    1.035828e+01
  2.197595e+01    9.414907e+00
  2.199183e+01    8.304645e+00
  2.200770e+01    7.080602e+00
  2.202358e+01    5.953177e+00
  2.203945e+01    5.042340e+00
  2.205533e+01    4.286057e+00
  2.207120e+01    3.675817e+00
  2.208708e+01    3.254953e+00
  2.210296e+01    2.898674e+00
  2.211883e+01    2.580736e+00
  2.213471e+01    2.313168e+00
  2.215058e+01    2.107513e+00
  2.216646e+01    1.990020e+00
  2.218233e+01    1.843385e+00
  2.219821e+01    1.739353e+00
  2.221408e+01    1.656365e+00
  2.222996e+01    1.545634e+00
  2.224584e+01    1.474123e+00
  2.226171e+01    1.436382e+00
  2.227759e+01    1.381192e+00
  2.229346e+01    1.325892e+00
  2.230934e+01    1.296020e+00
  2.232521e+01    1.246758e+00
  2.234109e+01    1.233908e+00
  2.235696e+01    1.201883e+00
  2.237284e+01    1.177452e+00
  2.238872e+01    1.165539e+00
  2.240459e+01    1.164576e+00
  2.242047e+01    1.135768e+00
  2.243634e+01    1.122821e+00
  2.245222e+01    1.132486e+00
  2.246809e+01    1.116793e+00
  2.248397e+01    1.108327e+00
  2.249984e+01    1.080054e+00
  2.251572e+01    1.051501e+00
  2.253160e+01    1.033154e+00
  2.254747e+01    1.025912e+00
  2.256335e+01    1.028551e+00
  2.257922e+01    1.021078e+00
  2.259510e+01    1.027242e+00
  2.261097e+01    1.016199e+00
  2.262685e+01    1.006618e+00
  2.264272e+01    1.007408e+00
  2.265860e+01    1.003300e+00
  2.267448e+01    1.000721e+00
  2.269035e+01    9.923564e-01
  2.270623e+01    9.808571e-01
  2.272210e+01    9.903959e-01
  2.273798e+01    1.000113e+00
  2.275385e+01    9.744328e-01
  2.276973e+01    9.794640e-01
  2.278560e+01    9.612470e-01
  2.280148e+01    9.583289e-01
  2.281736e+01    9.558059e-01
  2.283323e+01    9.419926e-01
  2.284911e+01    9.594785e-01
  2.286498e+01    9.563221e-01
  2.288086e+01    9.454858e-01
  2.289673e+01    9.514264e-01
  2.291261e+01    9.397334e-01
  2.292848e+01    9.354170e-01
  2.294436e+01    9.361182e-01
  2.296024e+01    9.156811e-01
  2.297611e+01    9.116821e-01
  2.299199e+01    9.229952e-01
  2.300786e+01    9.189249e-01
  2.302374e+01    9.144714e-01
  2.303961e+01    9.066843e-01
  2.305549e+01    9.010832e-01
  2.307137e+01    9.047097e-01
  2.308724e+01    8.964711e-01
  2.310312e+01    8.984380e-01
  2.311899e+01    9.208053e-01
  2.313487e+01    8.979614e-01
  2.315074e+01    8.940039e-01
  2.316662e+01    9.011620e-01
  2.318249e+01    8.960261e-01
  2.319837e+01    8.987406e-01
  2.321425e+01    8.790852e-01
  2.323012e+01    8.925648e-01
  2.324600e+01    8.969546e-01
  2.326187e+01    8.939521e-01
  2.327775e+01    8.716955e-01
  2.329362e+01    8.619953e-01
  2.330950e+01    8.756734e-01
  2.332537e+01    9.020798e-01
  2.334125e+01    8.851420e-01
  2.335713e+01    8.753090e-01
  2.337300e+01    8.806533e-01
  2.338888e+01    8.818269e-01
  2.340475e+01    8.746570e-01
  2.342063e+01    8.711873e-01
  2.343650e+01    8.436069e-01
  2.345238e+01    8.496947e-01
  2.346825e+01    8.610665e-01
  2.348413e+01    8.405055e-01
  2.350001e+01    8.427520e-01
  2.351588e+01    8.592413e-01
  2.353176e+01    8.451030e-01
  2.354763e+01    8.341894e-01
  2.356351e+01    8.616347e-01
  2.357938e+01    8.657851e-01
  2.359526e+01    8.720402e-01
  2.361113e+01    8.520429e-01
  2.362701e+01    8.445577e-01
  2.364289e+01    8.486898e-01
  2.365876e+01    8.563359e-01
  2.367464e+01    8.425231e-01
  2.369051e+01    8.393129e-01
  2.370639e+01    8.342654e-01
  2.372226e+01    8.405616e-01
  2.373814e+01    8.514430e-01
  2.375401e+01    8.443722e-01
  2.376989e+01    8.261984e-01
  2.378577e+01    8.284327e-01
  2.380164e+01    8.447651e-01
  2.381752e+01    8.123636e-01
  2.383339e+01    8.369814e-01
  2.384927e+01    8.337115e-01
  2.386514e+01    8.301032e-01
  2.388102e+01    8.243998e-01
  2.389689e+01    8.175891e-01
  2.391277e+01    8.039694e-01
  2.392865e+01    8.081509e-01
  2.394452e+01    8.395037e-01
  2.396040e+01    8.128080e-01
  2.397627e+01    8.078165e-01
  2.399215e+01    8.222138e-01
  2.400802e+01    8.158101e-01
  2.402390e+01    8.155282e-01
  2.403978e+01    7.947373e-01
  2.405565e+01    7.901774e-01
  2.407153e+01    7.996773e-01
  2.408740e+01    7.910149e-01
  2.410328e+01    7.987599e-01
  2.411915e+01    8.037032e-01
  2.413503e+01    7.891842e-01
  2.415090e+01    7.802770e-01
  2.416678e+01    8.046932e-01
  2.418266e+01    8.018392e-01
  2.419853e+01    7.929973e-01
  2.421441e+01    8.012788e-01
  2.423028e+01    8.012657e-01
  2.424616e+01    7.834743e-01
  2.426203e+01    8.028650e-01
  2.427791e+01    8.071375e-01
  2.429378e+01    8.063517e-01
  2.430966e+01    8.371670e-01
  2.432554e+01    8.081398e-01
  2.434141e+01    7.853857e-01
  2.435729e+01    8.135265e-01
  2.437316e+01    8.086104e-01
  2.438904e+01    8.118736e-01
  2.440491e+01    8.264730e-01
  2.442079e+01    8.079610e-01
  2.443666e+01    7.931384e-01
  2.445254e+01    8.189947e-01
  2.446842e+01    8.182778e-01
  2.448429e+01    8.044363e-01
  2.450017e+01    7.983369e-01
  2.451604e+01    7.940513e-01
  2.453192e+01    7.925867e-01
  2.454779e+01    8.047228e-01
  2.456367e+01    8.009803e-01
  2.457954e+01    8.128852e-01
  2.459542e+01    8.151830e-01
  2.461130e+01    7.917848e-01
  2.462717e+01    7.744367e-01
  2.464305e+01    8.137708e-01
  2.465892e+01    8.203139e-01
  2.467480e+01    7.997314e-01
  2.469067e+01    7.908150e-01
  2.470655e+01    8.047798e-01
  2.472242e+01    7.933134e-01
  2.473830e+01    8.081101e-01
  2.475418e+01    8.140644e-01
  2.477005e+01    7.975313e-01
  2.478593e+01    7.989932e-01
  2.480180e+01    8.121878e-01
  2.481768e+01    8.095061e-01
  2.483355e+01    8.134839e-01
  2.484943e+01    8.145935e-01
  2.486530e+01    8.243855e-01
  2.488118e+01    8.195233e-01
  2.489706e+01    8.334343e-01
  2.491293e+01    8.143348e-01
  2.492881e+01    8.056804e-01
  2.494468e+01    8.010802e-01
  2.496056e+01    8.141380e-01
  2.497643e+01    8.215542e-01
  2.499231e+01    8.231615e-01
  2.500819e+01    8.163306e-01
  2.502406e+01    8.134758e-01
  2.503994e+01    8.073055e-01
  2.505581e+01    8.299016e-01
  2.507169e+01    8.414767e-01
  2.508756e+01    8.344672e-01
  2.510344e+01    8.204804e-01
  2.511931e+01    8.302231e-01
  2.513519e+01    8.327416e-01
  2.515107e+01    8.406681e-01
  2.516694e+01    8.545864e-01
  2.518282e+01    8.472663e-01
  2.519869e+01    8.547350e-01
  2.521457e+01    8.607024e-01
  2.523044e+01    8.546817e-01
  2.524632e+01    8.495676e-01
  2.526219e+01    8.572106e-01
  2.527807e+01    8.611902e-01
  2.529395e+01    8.629745e-01
  2.530982e+01    8.811652e-01
  2.532570e+01    8.954040e-01
  2.534157e+01    8.873378e-01
  2.535745e+01    9.036040e-01
  2.537332e+01    9.148945e-01
  2.538920e+01    9.163216e-01
  2.540507e+01    8.989863e-01
  2.542095e+01    9.240003e-01
  2.543683e+01    9.466779e-01
  2.545270e+01    9.395034e-01
  2.546858e+01    9.550751e-01
  2.548445e+01    9.742622e-01
  2.550033e+01    9.748861e-01
  2.551620e+01    9.850451e-01
  2.553208e+01    9.913198e-01
  2.554795e+01    1.027931e+00
  2.556383e+01    1.051452e+00
  2.557971e+01    1.065494e+00
  2.559558e+01    1.085832e+00
  2.561146e+01    1.118994e+00
  2.562733e+01    1.151226e+00
  2.564321e+01    1.194354e+00
  2.565908e+01    1.222192e+00
  2.567496e+01    1.262915e+00
  2.569083e+01    1.316753e+00
  2.570671e+01    1.404670e+00
  2.572259e+01    1.518587e+00
  2.573846e+01    1.611623e+00
  2.575434e+01    1.722188e+00
  2.577021e+01    1.866260e+00
  2.578609e+01    2.054654e+00
  2.580196e+01    2.246381e+00
  2.581784e+01    2.479146e+00
  2.583371e+01    2.821970e+00
  2.584959e+01    3.214161e+00
  2.586547e+01    3.682215e+00
  2.588134e+01    4.254928e+00
  2.589722e+01    4.849260e+00
  2.591309e+01    5.609443e+00
  2.592897e+01    6.411573e+00
  2.594484e+01    7.240545e+00
  2.596072e+01    8.063875e+00
  2.597660e+01    8.646972e+00
  2.599247e+01    9.052494e+00
  2.600835e+01    9.109468e+00
  2.602422e+01    8.854979e+00
  2.604010e+01    8.330423e+00
  2.605597e+01    7.458042e+00
  2.607185e+01    6.493254e+00
  2.608772e+01    5.593452e+00
  2.610360e+01    4.780820e+00
  2.611948e+01    4.064880e+00
  2.613535e+01    3.524307e+00
  2.615123e+01    3.052195e+00
  2.616710e+01    2.679422e+00
  2.618298e+01    2.401551e+00
  2.619885e+01    2.151174e+00
  2.621473e+01    1.945429e+00
  2.623060e+01    1.775880e+00
  2.624648e+01    1.677853e+00
  2.626236e+01    1.592786e+00
  2.627823e+01    1.476123e+00
  2.629411e+01    1.390813e+00
  2.630998e+01    1.356029e+00
  2.632586e+01    1.296327e+00
  2.634173e+01    1.223415e+00
  2.635761e+01    1.180310e+00
  2.637348e+01    1.143884e+00
  2.638936e+01    1.118887e+00
  2.640524e+01    1.088391e+00
  2.642111e+01    1.070286e+00
  2.643699e+01    1.055478e+00
  2.645286e+01    1.038183e+00
  2.646874e+01    1.028769e+00
  2.648461e+01    1.017498e+00
  2.650049e+01    1.007091e+00
  2.651636e+01    9.977824e-01
  2.653224e+01    9.970044e-01
  2.654812e+01    9.793915e-01
  2.656399e+01    9.712361e-01
  2.657987e+01    9.812881e-01
  2.659574e+01    9.758335e-01
  2.661162e+01    9.576298e-01
  2.662749e+01    9.471368e-01
  2.664337e+01    9.339883e-01
  2.665924e+01    9.522978e-01
  2.667512e+01    9.288915e-01
  2.669100e+01    9.287916e-01
  2.670687e+01    9.199187e-01
  2.672275e+01    9.357962e-01
  2.673862e+01    9.324467e-01
  2.675450e+01    9.348304e-01
  2.677037e+01    9.242700e-01
  2.678625e+01    9.211520e-01
  2.680212e+01    9.242151e-01
  2.681800e+01    9.416454e-01
  2.683388e+01    9.477689e-01
  2.684975e+01    9.363527e-01
  2.686563e+01    9.212235e-01
  2.688150e+01    9.254587e-01
  2.689738e+01    9.331755e-01
  2.691325e+01    9.629691e-01
  2.692913e+01    9.581476e-01
  2.694501e+01    9.689295e-01
  2.696088e+01    9.786975e-01
  2.697676e+01    9.989364e-01
  2.699263e+01    1.012883e+00
  2.700851e+01    1.011398e+00
  2.702438e+01    1.036674e+00
  2.704026e+01    1.082120e+00
  2.705613e+01    1.094201e+00
  2.707201e+01    1.147806e+00
  2.708789e+01    1.235740e+00
  2.710376e+01    1.292241e+00
  2.711964e+01    1.342886e+00
  2.713551e+01    1.457229e+00
  2.715139e+01    1.597969e+00
  2.716726e+01    1.715540e+00
  2.718314e+01    1.875855e+00
  2.719901e+01    2.078970e+00
  2.721489e+01    2.267672e+00
  2.723077e+01    2.423804e+00
  2.724664e+01    2.533201e+00
  2.726252e+01    2.598954e+00
  2.727839e+01    2.604918e+00
  2.729427e+01    2.505372e+00
  2.731014e+01    2.348499e+00
  2.732602e+01    2.159585e+00
  2.734189e+01    1.978356e+00
  2.735777e+01    1.799987e+00
  2.737365e+01    1.600009e+00
  2.738952e+01    1.453534e+00
  2.740540e+01    1.373491e+00
  2.742127e+01    1.289350e+00
  2.743715e+01    1.211047e+00
  2.745302e+01    1.140895e+00
  2.746890e+01    1.076972e+00
  2.748477e+01    1.049445e+00
  2.750065e+01    1.014953e+00
  2.751653e+01    1.026094e+00
  2.753240e+01    9.967260e-01
  2.754828e+01    9.851746e-01
  2.756415e+01    9.505988e-01
  2.758003e+01    9.405825e-01
  2.759590e+01    9.159231e-01
  2.761178e+01    9.047446e-01
  2.762765e+01    8.999416e-01
  2.764353e+01    8.644592e-01
  2.765941e+01    8.511752e-01
  2.767528e+01    8.593210e-01
  2.769116e+01    8.619934e-01
  2.770703e+01    8.556293e-01
  2.772291e+01    8.614542e-01
  2.773878e+01    8.590460e-01
  2.775466e+01    8.518402e-01
  2.777054e+01    8.515480e-01
  2.778641e+01    8.544507e-01
  2.780229e+01    8.297240e-01
  2.781816e+01    8.337607e-01
  2.783404e+01    8.392563e-01
  2.784991e+01    8.316901e-01
  2.786579e+01    7.978565e-01
  2.788166e+01    8.182665e-01
  2.789754e+01    8.100809e-01
  2.791342e+01    8.066793e-01
  2.792929e+01    8.172710e-01
  2.794517e+01    8.256536e-01
  2.796104e+01    7.997882e-01
  2.797692e+01    7.955428e-01
  2.799279e+01    8.077367e-01
  2.800867e+01    8.082700e-01
  2.802454e+01    8.025094e-01
  2.804042e+01    8.104291e-01
  2.805630e+01    8.017486e-01
  2.807217e+01    8.299955e-01
  2.808805e+01    8.120326e-01
  2.810392e+01    8.148896e-01
  2.811980e+01    8.169315e-01
  2.813567e+01    8.256304e-01
  2.815155e+01    7.970430e-01
  2.816742e+01    7.973638e-01
  2.818330e+01    8.102263e-01
  2.819918e+01    8.043568e-01
  2.821505e+01    7.950891e-01
  2.823093e+01    8.058642e-01
  2.824680e+01    7.844306e-01
  2.826268e+01    7.836036e-01
  2.827855e+01    8.058131e-01
  2.829443e+01    7.969276e-01
  2.831030e+01    8.029115e-01
  2.832618e+01    7.948217e-01
  2.834206e+01    8.031873e-01
  2.835793e+01    8.058439e-01
  2.837381e+01    8.138035e-01
  2.838968e+01    7.971741e-01
  2.840556e+01    7.699245e-01
  2.842143e+01    7.770454e-01
  2.843731e+01    7.660521e-01
  2.845318e+01    7.860703e-01
  2.846906e+01    7.898651e-01
  2.848494e+01    7.731022e-01
  2.850081e+01    7.687533e-01
  2.851669e+01    7.623232e-01
  2.853256e+01    7.640285e-01
  2.854844e+01    7.722471e-01
  2.856431e+01    7.887196e-01
  2.858019e+01    7.756085e-01
  2.859606e+01    7.735243e-01
  2.861194e+01    7.642054e-01
  2.862782e+01    7.712651e-01
  2.864369e+01    7.637127e-01
  2.865957e+01    7.802271e-01
  2.867544e+01    7.900823e-01
  2.869132e+01    7.977893e-01
  2.870719e+01    7.852807e-01
  2.872307e+01    7.851056e-01
  2.873895e+01    8.029012e-01
  2.875482e+01    7.951746e-01
  2.877070e+01    7.816061e-01
  2.878657e+01    7.664129e-01
  2.880245e+01    7.677665e-01
  2.881832e+01    7.586087e-01
  2.883420e+01    7.601277e-01
  2.885007e+01    7.736216e-01
  2.886595e+01    7.891150e-01
  2.888183e+01    7.752896e-01
  2.889770e+01    7.382650e-01
  2.891358e+01    7.332499e-01
  2.892945e+01    7.400855e-01
  2.894533e+01    7.681813e-01
  2.896120e+01    7.763270e-01
  2.897708e+01    7.648117e-01
  2.899295e+01    7.455268e-01
  2.900883e+01    7.474329e-01
  2.902471e+01    7.605932e-01
  2.904058e+01    7.425226e-01
  2.905646e+01    7.315797e-01
  2.907233e+01    7.386729e-01
  2.908821e+01    7.430462e-01
  2.910408e+01    7.498450e-01
  2.911996e+01    7.405285e-01
  2.913583e+01    7.468734e-01
  2.915171e+01    7.616814e-01
  2.916759e+01    7.521341e-01
  2.918346e+01    7.426471e-01
  2.919934e+01    7.480880e-01
  2.921521e+01    7.413741e-01
  2.923109e+01    7.498259e-01
  2.924696e+01    7.454608e-01
  2.926284e+01    7.709609e-01
  2.927871e+01    7.400137e-01
  2.929459e+01    7.265272e-01
  2.931047e+01    7.448025e-01
  2.932634e+01    7.581683e-01
  2.934222e+01    7.621625e-01
  2.935809e+01    7.661356e-01
  2.937397e+01    7.584504e-01
  2.938984e+01    7.582318e-01
  2.940572e+01    7.274026e-01
  2.942159e+01    7.282472e-01
  2.943747e+01    7.583581e-01
  2.945335e+01    7.634519e-01
  2.946922e+01    7.551030e-01
  2.948510e+01    7.557505e-01
  2.950097e+01    7.561860e-01
  2.951685e+01    7.327903e-01
  2.953272e+01    7.494476e-01
  2.954860e+01    7.551054e-01
  2.956447e+01    7.458265e-01
  2.958035e+01    7.304704e-01
  2.959623e+01    7.430493e-01
  2.961210e+01    7.493804e-01
  2.962798e+01    7.560338e-01
  2.964385e+01    7.628931e-01
  2.965973e+01    7.658359e-01
  2.967560e+01    7.488137e-01
  2.969148e+01    7.398164e-01
  2.970736e+01    7.449309e-01
  2.972323e+01    7.325357e-01
  2.973911e+01    7.112556e-01
  2.975498e+01    7.267389e-01
  2.977086e+01    7.480326e-01
  2.978673e+01    7.142953e-01
  2.980261e+01    7.282709e-01
  2.981848e+01    7.447988e-01
  2.983436e+01    7.324986e-01
  2.985024e+01    7.369099e-01
  2.986611e+01    7.407284e-01
  2.988199e+01    7.450616e-01
  2.989786e+01    7.456378e-01
  2.991374e+01    7.456478e-01
  2.992961e+01    7.278987e-01
  2.994549e+01    7.140654e-01
  2.996136e+01    7.297773e-01
  2.997724e+01    7.450165e-01
  2.999312e+01    7.561639e-01
  3.000899e+01    7.499045e-01
  3.002487e+01    7.549408e-01
  3.004074e+01    7.514163e-01
  3.005662e+01    7.620152e-01
  3.007249e+01    7.619181e-01
  3.008837e+01    7.647340e-01
  3.010424e+01    7.541454e-01
  3.012012e+01    7.301791e-01
  3.013600e+01    7.194687e-01
  3.015187e+01    7.375790e-01
  3.016775e+01    7.420629e-01
  3.018362e+01    7.386165e-01
  3.019950e+01    7.384165e-01
  3.021537e+01    7.258471e-01
  3.023125e+01    7.180278e-01
  3.024712e+01    7.439404e-01
  3.026300e+01    7.277229e-01
  3.027888e+01    7.120190e-01
  3.029475e+01    7.170646e-01
  3.031063e+01    7.113199e-01
  3.032650e+01    7.345835e-01
  3.034238e+01    7.332848e-01
  3.035825e+01    7.263613e-01
  3.037413e+01    7.476956e-01
  3.039000e+01    7.596495e-01
  3.040588e+01    7.565030e-01
  3.042176e+01    7.347959e-01
  3.043763e+01    7.108821e-01
  3.045351e+01    7.163479e-01
  3.046938e+01    7.607030e-01
  3.048526e+01    7.229955e-01
  3.050113e+01    7.084371e-01
  3.051701e+01    7.223499e-01
  3.053288e+01    7.232733e-01
  3.054876e+01    7.324459e-01
  3.056464e+01    7.239895e-01
  3.058051e+01    7.155142e-01
  3.059639e+01    7.093349e-01
  3.061226e+01    7.205642e-01
  3.062814e+01    7.307159e-01
  3.064401e+01    7.130503e-01
  3.065989e+01    7.247320e-01
  3.067577e+01    7.291926e-01
  3.069164e+01    7.374560e-01
  3.070752e+01    7.170234e-01
  3.072339e+01    7.258513e-01
  3.073927e+01    7.295455e-01
  3.075514e+01    7.353368e-01
  3.077102e+01    7.324868e-01
  3.078689e+01    7.384283e-01
  3.080277e+01    7.430311e-01
  3.081865e+01    7.373211e-01
  3.083452e+01    7.356493e-01
  3.085040e+01    7.401299e-01
  3.086627e+01    7.427549e-01
  3.088215e+01    7.173125e-01
  3.089802e+01    7.095459e-01
  3.091390e+01    7.277026e-01
  3.092977e+01    7.296508e-01
  3.094565e+01    7.355003e-01
  3.096153e+01    7.394093e-01
  3.097740e+01    7.505791e-01
  3.099328e+01    7.399426e-01
  3.100915e+01    7.359350e-01
  3.102503e+01    7.391354e-01
  3.104090e+01    7.110619e-01
  3.105678e+01    7.313559e-01
  3.107265e+01    7.406796e-01
  3.108853e+01    7.567351e-01
  3.110441e+01    7.442747e-01
  3.112028e+01    7.253504e-01
  3.113616e+01    7.244338e-01
  3.115203e+01    7.557110e-01
  3.116791e+01    7.635973e-01
  3.118378e+01    7.355914e-01
  3.119966e+01    7.270077e-01
  3.121553e+01    7.378358e-01
  3.123141e+01    7.412170e-01
  3.124729e+01    7.274209e-01
  3.126316e+01    7.292957e-01
  3.127904e+01    7.615415e-01
  3.129491e+01    7.311472e-01
  3.131079e+01    7.536992e-01
  3.132666e+01    7.525655e-01
  3.134254e+01    7.593067e-01
  3.135841e+01    7.812566e-01
  3.137429e+01    7.491798e-01
  3.139017e+01    7.324073e-01
  3.140604e+01    7.382465e-01
  3.142192e+01    7.529721e-01
  3.143779e+01    7.700863e-01
  3.145367e+01    7.734283e-01
  3.146954e+01    7.537388e-01
  3.148542e+01    7.440857e-01
  3.150129e+01    7.627268e-01
  3.151717e+01    7.654628e-01
  3.153305e+01    7.608634e-01
  3.154892e+01    7.797276e-01
  3.156480e+01    8.061492e-01
  3.158067e+01    8.011526e-01
  3.159655e+01    8.026465e-01
  3.161242e+01    8.141285e-01
  3.162830e+01    8.235810e-01
  3.164418e+01    8.360553e-01
  3.166005e+01    8.594226e-01
  3.167593e+01    8.806267e-01
  3.169180e+01    8.886251e-01
  3.170768e+01    9.241189e-01
  3.172355e+01    9.534978e-01
  3.173943e+01    9.947317e-01
  3.175530e+01    1.028876e+00
  3.177118e+01    1.058225e+00
  3.178706e+01    1.144859e+00
  3.180293e+01    1.231309e+00
  3.181881e+01    1.266400e+00
  3.183468e+01    1.395948e+00
  3.185056e+01    1.534126e+00
  3.186643e+01    1.699163e+00
  3.188231e+01    1.894767e+00
  3.189818e+01    2.039118e+00
  3.191406e+01    2.269203e+00
  3.192994e+01    2.450983e+00
  3.194581e+01    2.533389e+00
  3.196169e+01    2.588598e+00
  3.197756e+01    2.552446e+00
  3.199344e+01    2.475025e+00
  3.200931e+01    2.334371e+00
  3.202519e+01    2.121817e+00
  3.204106e+01    1.905579e+00
  3.205694e+01    1.777355e+00
  3.207282e+01    1.565559e+00
  3.208869e+01    1.410383e+00
  3.210457e+01    1.264543e+00
  3.212044e+01    1.208751e+00
  3.213632e+01    1.095279e+00
  3.215219e+01    1.035275e+00
  3.216807e+01    1.026832e+00
  3.218394e+01    9.754994e-01
  3.219982e+01    9.267770e-01
  3.221570e+01    8.973536e-01
  3.223157e+01    8.890588e-01
  3.224745e+01    8.653092e-01
  3.226332e+01    8.401461e-01
  3.227920e+01    8.437492e-01
  3.229507e+01    8.323429e-01
  3.231095e+01    8.111159e-01
  3.232682e+01    8.060457e-01
  3.234270e+01    7.913082e-01
  3.235858e+01    7.759021e-01
  3.237445e+01    8.006855e-01
  3.239033e+01    7.905706e-01
  3.240620e+01    7.927270e-01
  3.242208e+01    7.880121e-01
  3.243795e+01    7.763160e-01
  3.245383e+01    7.727707e-01
  3.246970e+01    7.585418e-01
  3.248558e+01    7.398165e-01
  3.250146e+01    7.278327e-01
  3.251733e+01    7.285721e-01
  3.253321e+01    7.327945e-01
  3.254908e+01    7.547875e-01
