# == pyFAI calibration ==
# Distance Sample to Detector: 0.3999999939076516 m
# PONI: 9.750e-02, 1.135e-01 m
# Rotations: -0.000175 0.000000 -0.000000 rad
# 
# == Fit2d calibration ==
# Distance Sample-beamCenter: 400.000 mm
# Center: x=1514.000, y=1300.000 pix
# Tilt: 0.010 deg  TiltPlanRot: 0.010 deg
# 
# Detector Detector	 Spline= None	 PixelSize= 7.500e-05, 7.500e-05 m
#    Detector has a mask: False 
#    Detector has a dark current: False 
#    detector has a flat field: False 
# 
# Wavelength: 6.888e-11 m
# Mask applied: user provided
# Dark current applied: False
# Flat field applied: False
# Polarization factor: 0.99
# Normalization factor: 1.0
# --> /home/myspot/data/2024_07_Rosario/Ru-CGO-ex/2024-07-27_002_Ru-CGO-ex_Activtation_ramp_000002_data_000012.dat
#       q_nm^-1             I 
  2.003187e-02    2.195834e-01
  3.590745e-02    6.421851e-02
  5.178302e-02    0.000000e+00
  6.765859e-02    0.000000e+00
  8.353417e-02    4.263245e-02
  9.940974e-02    1.980405e-02
  1.152853e-01    0.000000e+00
  1.311609e-01    2.310895e-03
  1.470365e-01    2.605884e-02
  1.629120e-01    1.559087e-02
  1.787876e-01    6.710804e-02
  1.946632e-01    5.006030e-02
  2.105388e-01    2.767756e-03
  2.264143e-01    2.448250e-02
  2.422899e-01    3.538205e-02
  2.581655e-01    9.588738e-03
  2.740411e-01    0.000000e+00
  2.899166e-01    1.027713e-02
  3.057922e-01    2.180311e-02
  3.216678e-01    3.437175e-02
  3.375433e-01    7.021633e-03
  3.534189e-01    6.390193e-03
  3.692945e-01    1.487649e-02
  3.851701e-01    3.124641e-02
  4.010456e-01    2.382456e-02
  4.169212e-01    5.050562e-02
  4.327968e-01    3.403869e-02
  4.486724e-01    4.054305e-02
  4.645479e-01    3.018977e-02
  4.804235e-01    2.141405e-02
  4.962991e-01    5.287620e-02
  5.121747e-01    4.601548e-02
  5.280502e-01    1.388101e-02
  5.439258e-01    1.222761e-02
  5.598014e-01    3.113854e-02
  5.756770e-01    7.062291e-02
  5.915525e-01    4.093808e-02
  6.074281e-01    4.967288e-02
  6.233037e-01    4.221966e-02
  6.391793e-01    4.099335e-02
  6.550548e-01    2.470673e-02
  6.709304e-01    1.355203e-02
  6.868060e-01    2.395844e-02
  7.026815e-01    2.790413e-02
  7.185571e-01    3.260411e-02
  7.344327e-01    4.185019e-02
  7.503083e-01    6.692620e-02
  7.661838e-01    9.550762e-02
  7.820594e-01    1.472940e-01
  7.979350e-01    1.329359e-01
  8.138106e-01    1.690958e-01
  8.296861e-01    2.448674e-01
  8.455617e-01    3.296899e-01
  8.614373e-01    3.513022e-01
  8.773129e-01    4.052648e-01
  8.931884e-01    4.988027e-01
  9.090640e-01    5.048952e-01
  9.249396e-01    5.956976e-01
  9.408152e-01    7.014009e-01
  9.566907e-01    7.767713e-01
  9.725663e-01    8.925759e-01
  9.884419e-01    9.786828e-01
  1.004317e+00    1.052466e+00
  1.020193e+00    1.161822e+00
  1.036069e+00    1.248350e+00
  1.051944e+00    1.305782e+00
  1.067820e+00    1.366152e+00
  1.083695e+00    1.269341e+00
  1.099571e+00    1.306453e+00
  1.115446e+00    1.287068e+00
  1.131322e+00    1.367669e+00
  1.147198e+00    1.550865e+00
  1.163073e+00    1.558046e+00
  1.178949e+00    1.471940e+00
  1.194824e+00    1.618122e+00
  1.210700e+00    1.805845e+00
  1.226575e+00    2.111576e+00
  1.242451e+00    2.264302e+00
  1.258327e+00    2.275137e+00
  1.274202e+00    2.393169e+00
  1.290078e+00    2.569688e+00
  1.305953e+00    2.591245e+00
  1.321829e+00    2.534309e+00
  1.337705e+00    2.595228e+00
  1.353580e+00    2.729210e+00
  1.369456e+00    2.664125e+00
  1.385331e+00    2.732196e+00
  1.401207e+00    2.824106e+00
  1.417082e+00    2.821030e+00
  1.432958e+00    2.695264e+00
  1.448834e+00    2.729937e+00
  1.464709e+00    2.774108e+00
  1.480585e+00    2.989904e+00
  1.496460e+00    3.114452e+00
  1.512336e+00    3.030434e+00
  1.528211e+00    3.063216e+00
  1.544087e+00    3.201187e+00
  1.559963e+00    3.228386e+00
  1.575838e+00    3.069863e+00
  1.591714e+00    3.103692e+00
  1.607589e+00    3.016122e+00
  1.623465e+00    2.979888e+00
  1.639340e+00    3.134162e+00
  1.655216e+00    3.018303e+00
  1.671092e+00    2.904847e+00
  1.686967e+00    2.899718e+00
  1.702843e+00    2.862008e+00
  1.718718e+00    2.915698e+00
  1.734594e+00    2.884214e+00
  1.750469e+00    2.921235e+00
  1.766345e+00    2.784722e+00
  1.782221e+00    2.729393e+00
  1.798096e+00    2.893122e+00
  1.813972e+00    2.873093e+00
  1.829847e+00    2.805044e+00
  1.845723e+00    2.780805e+00
  1.861598e+00    2.773846e+00
  1.877474e+00    2.826792e+00
  1.893350e+00    2.780541e+00
  1.909225e+00    2.824221e+00
  1.925101e+00    2.809866e+00
  1.940976e+00    2.896600e+00
  1.956852e+00    2.862272e+00
  1.972727e+00    2.747096e+00
  1.988603e+00    2.990895e+00
  2.004479e+00    2.908590e+00
  2.020354e+00    2.790605e+00
  2.036230e+00    2.759234e+00
  2.052105e+00    2.743119e+00
  2.067981e+00    2.823283e+00
  2.083856e+00    2.736882e+00
  2.099732e+00    2.724275e+00
  2.115608e+00    2.973424e+00
  2.131483e+00    2.843446e+00
  2.147359e+00    2.869169e+00
  2.163234e+00    2.843789e+00
  2.179110e+00    2.852774e+00
  2.194985e+00    2.738001e+00
  2.210861e+00    2.779548e+00
  2.226737e+00    2.781289e+00
  2.242612e+00    2.743952e+00
  2.258488e+00    2.742881e+00
  2.274363e+00    2.764114e+00
  2.290239e+00    2.777197e+00
  2.306115e+00    2.847497e+00
  2.321990e+00    2.917406e+00
  2.337866e+00    2.826019e+00
  2.353741e+00    2.821902e+00
  2.369617e+00    2.787468e+00
  2.385492e+00    2.780152e+00
  2.401368e+00    2.842176e+00
  2.417244e+00    2.913840e+00
  2.433119e+00    2.823690e+00
  2.448995e+00    2.810297e+00
  2.464870e+00    2.825687e+00
  2.480746e+00    2.876080e+00
  2.496621e+00    2.949655e+00
  2.512497e+00    2.851058e+00
  2.528373e+00    2.798526e+00
  2.544248e+00    2.769696e+00
  2.560124e+00    2.853327e+00
  2.575999e+00    2.832315e+00
  2.591875e+00    2.844571e+00
  2.607750e+00    2.778952e+00
  2.623626e+00    2.846601e+00
  2.639502e+00    2.870928e+00
  2.655377e+00    2.843505e+00
  2.671253e+00    2.880450e+00
  2.687128e+00    2.733773e+00
  2.703004e+00    2.738358e+00
  2.718879e+00    2.834199e+00
  2.734755e+00    2.879151e+00
  2.750631e+00    2.949316e+00
  2.766506e+00    2.830781e+00
  2.782382e+00    2.772275e+00
  2.798257e+00    2.854007e+00
  2.814133e+00    2.882051e+00
  2.830008e+00    2.915631e+00
  2.845884e+00    2.933809e+00
  2.861760e+00    2.879642e+00
  2.877635e+00    2.986588e+00
  2.893511e+00    2.879985e+00
  2.909386e+00    2.814322e+00
  2.925262e+00    2.922052e+00
  2.941137e+00    2.971235e+00
  2.957013e+00    2.897764e+00
  2.972889e+00    2.894287e+00
  2.988764e+00    3.030754e+00
  3.004640e+00    3.067216e+00
  3.020515e+00    2.953963e+00
  3.036391e+00    2.877824e+00
  3.052266e+00    2.853073e+00
  3.068142e+00    2.940134e+00
  3.084018e+00    2.897192e+00
  3.099893e+00    2.912359e+00
  3.115769e+00    2.873562e+00
  3.131644e+00    2.921082e+00
  3.147520e+00    2.973672e+00
  3.163395e+00    2.986266e+00
  3.179271e+00    2.985462e+00
  3.195147e+00    2.930893e+00
  3.211022e+00    2.961380e+00
  3.226898e+00    2.960845e+00
  3.242773e+00    3.102168e+00
  3.258649e+00    3.103636e+00
  3.274525e+00    3.078115e+00
  3.290400e+00    2.933021e+00
  3.306276e+00    2.872820e+00
  3.322151e+00    2.877526e+00
  3.338027e+00    2.984112e+00
  3.353902e+00    3.046372e+00
  3.369778e+00    2.982011e+00
  3.385654e+00    2.920982e+00
  3.401529e+00    2.953311e+00
  3.417405e+00    2.968388e+00
  3.433280e+00    2.983422e+00
  3.449156e+00    2.986606e+00
  3.465031e+00    2.908242e+00
  3.480907e+00    2.954416e+00
  3.496783e+00    2.922591e+00
  3.512658e+00    2.870169e+00
  3.528534e+00    2.941525e+00
  3.544409e+00    2.985476e+00
  3.560285e+00    2.968697e+00
  3.576160e+00    3.022374e+00
  3.592036e+00    3.068968e+00
  3.607912e+00    2.973198e+00
  3.623787e+00    3.000387e+00
  3.639663e+00    3.002931e+00
  3.655538e+00    2.967540e+00
  3.671414e+00    2.998866e+00
  3.687289e+00    2.974333e+00
  3.703165e+00    2.912647e+00
  3.719041e+00    2.964168e+00
  3.734916e+00    3.064944e+00
  3.750792e+00    3.088740e+00
  3.766667e+00    3.075662e+00
  3.782543e+00    3.047376e+00
  3.798418e+00    3.056363e+00
  3.814294e+00    3.079903e+00
  3.830170e+00    3.136959e+00
  3.846045e+00    3.218848e+00
  3.861921e+00    3.021597e+00
  3.877796e+00    2.951663e+00
  3.893672e+00    2.978588e+00
  3.909547e+00    3.010473e+00
  3.925423e+00    3.087538e+00
  3.941299e+00    3.019715e+00
  3.957174e+00    2.995520e+00
  3.973050e+00    3.043658e+00
  3.988925e+00    2.988771e+00
  4.004801e+00    2.968964e+00
  4.020676e+00    3.034045e+00
  4.036552e+00    3.044282e+00
  4.052428e+00    3.093902e+00
  4.068303e+00    3.057890e+00
  4.084179e+00    3.113170e+00
  4.100054e+00    3.140872e+00
  4.115930e+00    3.118441e+00
  4.131806e+00    3.050595e+00
  4.147681e+00    3.084921e+00
  4.163557e+00    3.072986e+00
  4.179432e+00    3.093714e+00
  4.195308e+00    3.058554e+00
  4.211183e+00    3.091342e+00
  4.227059e+00    3.120547e+00
  4.242935e+00    3.116227e+00
  4.258810e+00    3.073864e+00
  4.274686e+00    3.071573e+00
  4.290561e+00    3.122091e+00
  4.306437e+00    3.093230e+00
  4.322312e+00    3.091552e+00
  4.338188e+00    3.065702e+00
  4.354064e+00    3.112040e+00
  4.369939e+00    3.108400e+00
  4.385815e+00    3.074794e+00
  4.401690e+00    3.004086e+00
  4.417566e+00    3.060829e+00
  4.433441e+00    3.039490e+00
  4.449317e+00    3.115968e+00
  4.465193e+00    3.127196e+00
  4.481068e+00    3.050709e+00
  4.496944e+00    3.055135e+00
  4.512819e+00    3.039231e+00
  4.528695e+00    3.034324e+00
  4.544570e+00    3.076087e+00
  4.560446e+00    3.066807e+00
  4.576322e+00    3.030074e+00
  4.592197e+00    3.000443e+00
  4.608073e+00    3.077872e+00
  4.623948e+00    3.122684e+00
  4.639824e+00    3.116312e+00
  4.655699e+00    3.200671e+00
  4.671575e+00    3.129579e+00
  4.687451e+00    3.135164e+00
  4.703326e+00    3.108347e+00
  4.719202e+00    3.051314e+00
  4.735077e+00    3.041262e+00
  4.750953e+00    3.055514e+00
  4.766828e+00    3.041248e+00
  4.782704e+00    3.148162e+00
  4.798580e+00    3.159298e+00
  4.814455e+00    3.132149e+00
  4.830331e+00    3.100886e+00
  4.846206e+00    3.237291e+00
  4.862082e+00    3.171765e+00
  4.877957e+00    3.117316e+00
  4.893833e+00    3.085040e+00
  4.909709e+00    3.132020e+00
  4.925584e+00    3.153578e+00
  4.941460e+00    3.074759e+00
  4.957335e+00    3.079725e+00
  4.973211e+00    3.094568e+00
  4.989086e+00    3.080189e+00
  5.004962e+00    3.044302e+00
  5.020838e+00    3.103057e+00
  5.036713e+00    3.124444e+00
  5.052589e+00    3.158833e+00
  5.068464e+00    3.139792e+00
  5.084340e+00    3.125618e+00
  5.100216e+00    3.144993e+00
  5.116091e+00    3.135361e+00
  5.131967e+00    3.219886e+00
  5.147842e+00    3.220718e+00
  5.163718e+00    3.176831e+00
  5.179593e+00    3.090580e+00
  5.195469e+00    3.127802e+00
  5.211345e+00    3.085887e+00
  5.227220e+00    3.099399e+00
  5.243096e+00    3.121039e+00
  5.258971e+00    3.232144e+00
  5.274847e+00    3.123001e+00
  5.290722e+00    3.121050e+00
  5.306598e+00    3.142368e+00
  5.322474e+00    3.176976e+00
  5.338349e+00    3.222319e+00
  5.354225e+00    3.305158e+00
  5.370100e+00    3.280545e+00
  5.385976e+00    3.258522e+00
  5.401851e+00    3.215367e+00
  5.417727e+00    3.162320e+00
  5.433603e+00    3.113970e+00
  5.449478e+00    3.074957e+00
  5.465354e+00    3.106381e+00
  5.481229e+00    3.115582e+00
  5.497105e+00    3.131067e+00
  5.512980e+00    3.081173e+00
  5.528856e+00    3.099169e+00
  5.544732e+00    3.152820e+00
  5.560607e+00    3.165832e+00
  5.576483e+00    3.082605e+00
  5.592358e+00    3.030481e+00
  5.608234e+00    3.084366e+00
  5.624109e+00    3.046286e+00
  5.639985e+00    3.103779e+00
  5.655861e+00    3.188963e+00
  5.671736e+00    3.146881e+00
  5.687612e+00    3.108709e+00
  5.703487e+00    3.083836e+00
  5.719363e+00    3.081112e+00
  5.735238e+00    3.047107e+00
  5.751114e+00    3.081885e+00
  5.766990e+00    3.134841e+00
  5.782865e+00    3.120878e+00
  5.798741e+00    3.082812e+00
  5.814616e+00    3.025239e+00
  5.830492e+00    3.000790e+00
  5.846367e+00    3.071906e+00
  5.862243e+00    3.072639e+00
  5.878119e+00    2.997819e+00
  5.893994e+00    3.094183e+00
  5.909870e+00    3.089518e+00
  5.925745e+00    3.020797e+00
  5.941621e+00    3.015617e+00
  5.957497e+00    3.056581e+00
  5.973372e+00    3.106300e+00
  5.989248e+00    3.055483e+00
  6.005123e+00    2.988015e+00
  6.020999e+00    2.953067e+00
  6.036874e+00    3.035217e+00
  6.052750e+00    3.031452e+00
  6.068626e+00    3.017958e+00
  6.084501e+00    3.036504e+00
  6.100377e+00    3.089147e+00
  6.116252e+00    3.087310e+00
  6.132128e+00    3.055417e+00
  6.148003e+00    3.074655e+00
  6.163879e+00    3.073981e+00
  6.179755e+00    3.073259e+00
  6.195630e+00    3.048587e+00
  6.211506e+00    3.062644e+00
  6.227381e+00    3.115872e+00
  6.243257e+00    3.069404e+00
  6.259132e+00    3.042980e+00
  6.275008e+00    3.047089e+00
  6.290884e+00    3.110740e+00
  6.306759e+00    3.084459e+00
  6.322635e+00    2.998398e+00
  6.338510e+00    3.038175e+00
  6.354386e+00    3.078068e+00
  6.370261e+00    3.033697e+00
  6.386137e+00    2.974408e+00
  6.402013e+00    3.067924e+00
  6.417888e+00    3.043865e+00
  6.433764e+00    3.031689e+00
  6.449639e+00    3.117890e+00
  6.465515e+00    3.061828e+00
  6.481390e+00    3.038169e+00
  6.497266e+00    3.029558e+00
  6.513142e+00    2.993789e+00
  6.529017e+00    3.019001e+00
  6.544893e+00    3.048044e+00
  6.560768e+00    3.049986e+00
  6.576644e+00    3.068853e+00
  6.592519e+00    3.116498e+00
  6.608395e+00    3.104972e+00
  6.624271e+00    3.079016e+00
  6.640146e+00    3.032446e+00
  6.656022e+00    3.067483e+00
  6.671897e+00    3.032379e+00
  6.687773e+00    2.988198e+00
  6.703648e+00    3.024699e+00
  6.719524e+00    2.981388e+00
  6.735400e+00    2.965696e+00
  6.751275e+00    3.067710e+00
  6.767151e+00    3.097234e+00
  6.783026e+00    3.004047e+00
  6.798902e+00    3.035286e+00
  6.814777e+00    3.019643e+00
  6.830653e+00    2.985326e+00
  6.846529e+00    3.064161e+00
  6.862404e+00    3.085099e+00
  6.878280e+00    3.156016e+00
  6.894155e+00    3.081603e+00
  6.910031e+00    2.995244e+00
  6.925907e+00    3.030546e+00
  6.941782e+00    3.047889e+00
  6.957658e+00    3.036163e+00
  6.973533e+00    3.048460e+00
  6.989409e+00    3.057301e+00
  7.005284e+00    2.965814e+00
  7.021160e+00    2.929124e+00
  7.037036e+00    2.988216e+00
  7.052911e+00    3.041633e+00
  7.068787e+00    3.078305e+00
  7.084662e+00    2.991842e+00
  7.100538e+00    3.004261e+00
  7.116413e+00    3.059124e+00
  7.132289e+00    3.077983e+00
  7.148165e+00    3.039463e+00
  7.164040e+00    3.041703e+00
  7.179916e+00    3.006796e+00
  7.195791e+00    3.035967e+00
  7.211667e+00    2.983752e+00
  7.227542e+00    2.948404e+00
  7.243418e+00    3.004123e+00
  7.259294e+00    2.986180e+00
  7.275169e+00    2.976436e+00
  7.291045e+00    3.006564e+00
  7.306920e+00    3.035070e+00
  7.322796e+00    3.047695e+00
  7.338671e+00    3.028230e+00
  7.354547e+00    3.056982e+00
  7.370423e+00    3.026194e+00
  7.386298e+00    2.937823e+00
  7.402174e+00    2.969320e+00
  7.418049e+00    3.054318e+00
  7.433925e+00    3.060796e+00
  7.449800e+00    3.018785e+00
  7.465676e+00    2.985486e+00
  7.481552e+00    2.953405e+00
  7.497427e+00    3.038051e+00
  7.513303e+00    3.068354e+00
  7.529178e+00    3.007704e+00
  7.545054e+00    2.970160e+00
  7.560929e+00    2.997621e+00
  7.576805e+00    2.940749e+00
  7.592681e+00    2.890324e+00
  7.608556e+00    3.007183e+00
  7.624432e+00    3.005126e+00
  7.640307e+00    3.023579e+00
  7.656183e+00    3.052247e+00
  7.672058e+00    3.016751e+00
  7.687934e+00    2.954735e+00
  7.703810e+00    2.893566e+00
  7.719685e+00    2.933391e+00
  7.735561e+00    2.987875e+00
  7.751436e+00    2.996673e+00
  7.767312e+00    2.972301e+00
  7.783187e+00    2.942677e+00
  7.799063e+00    2.991729e+00
  7.814939e+00    2.970441e+00
  7.830814e+00    2.951671e+00
  7.846690e+00    2.975055e+00
  7.862565e+00    2.962220e+00
  7.878441e+00    2.974059e+00
  7.894317e+00    2.947367e+00
  7.910192e+00    2.979958e+00
  7.926068e+00    2.958966e+00
  7.941943e+00    2.919609e+00
  7.957819e+00    2.939327e+00
  7.973694e+00    2.981467e+00
  7.989570e+00    2.968369e+00
  8.005446e+00    2.963331e+00
  8.021321e+00    2.971437e+00
  8.037197e+00    2.990394e+00
  8.053072e+00    2.955605e+00
  8.068948e+00    2.937510e+00
  8.084823e+00    3.017791e+00
  8.100699e+00    3.029335e+00
  8.116575e+00    2.983787e+00
  8.132450e+00    3.011189e+00
  8.148326e+00    3.008849e+00
  8.164201e+00    3.053830e+00
  8.180077e+00    2.982691e+00
  8.195952e+00    2.992509e+00
  8.211828e+00    3.005401e+00
  8.227704e+00    3.013079e+00
  8.243579e+00    2.984748e+00
  8.259455e+00    2.958380e+00
  8.275330e+00    2.928557e+00
  8.291206e+00    2.929330e+00
  8.307081e+00    2.905318e+00
  8.322957e+00    2.882596e+00
  8.338833e+00    2.858728e+00
  8.354708e+00    2.939716e+00
  8.370584e+00    2.916954e+00
  8.386459e+00    2.990020e+00
  8.402335e+00    2.953274e+00
  8.418210e+00    2.923306e+00
  8.434086e+00    2.914535e+00
  8.449962e+00    2.947109e+00
  8.465837e+00    2.925342e+00
  8.481713e+00    2.897791e+00
  8.497588e+00    2.925154e+00
  8.513464e+00    2.901147e+00
  8.529339e+00    2.844722e+00
  8.545215e+00    2.820585e+00
  8.561091e+00    2.868686e+00
  8.576966e+00    2.879127e+00
  8.592842e+00    2.868625e+00
  8.608717e+00    2.889001e+00
  8.624593e+00    2.907998e+00
  8.640468e+00    2.906826e+00
  8.656344e+00    2.911400e+00
  8.672220e+00    2.885372e+00
  8.688095e+00    2.898801e+00
  8.703971e+00    2.885897e+00
  8.719846e+00    2.932344e+00
  8.735722e+00    2.864052e+00
  8.751598e+00    2.862805e+00
  8.767473e+00    2.842929e+00
  8.783349e+00    2.883065e+00
  8.799224e+00    2.867071e+00
  8.815100e+00    2.848953e+00
  8.830975e+00    2.831181e+00
  8.846851e+00    2.913000e+00
  8.862727e+00    2.902696e+00
  8.878602e+00    2.789178e+00
  8.894478e+00    2.844877e+00
  8.910353e+00    2.866855e+00
  8.926229e+00    2.856416e+00
  8.942104e+00    2.808877e+00
  8.957980e+00    2.824417e+00
  8.973856e+00    2.856645e+00
  8.989731e+00    2.825935e+00
  9.005607e+00    2.795449e+00
  9.021482e+00    2.812233e+00
  9.037358e+00    2.831653e+00
  9.053233e+00    2.834486e+00
  9.069109e+00    2.817540e+00
  9.084985e+00    2.839710e+00
  9.100860e+00    2.844226e+00
  9.116736e+00    2.840186e+00
  9.132611e+00    2.821629e+00
  9.148487e+00    2.829558e+00
  9.164362e+00    2.829218e+00
  9.180238e+00    2.815933e+00
  9.196114e+00    2.834543e+00
  9.211989e+00    2.799304e+00
  9.227865e+00    2.738724e+00
  9.243740e+00    2.826732e+00
  9.259616e+00    2.851970e+00
  9.275491e+00    2.803525e+00
  9.291367e+00    2.840700e+00
  9.307243e+00    2.843195e+00
  9.323118e+00    2.828281e+00
  9.338994e+00    2.803343e+00
  9.354869e+00    2.792537e+00
  9.370745e+00    2.824189e+00
  9.386620e+00    2.842692e+00
  9.402496e+00    2.795635e+00
  9.418372e+00    2.784913e+00
  9.434247e+00    2.796107e+00
  9.450123e+00    2.831995e+00
  9.465998e+00    2.881790e+00
  9.481874e+00    2.775330e+00
  9.497749e+00    2.798779e+00
  9.513625e+00    2.828146e+00
  9.529501e+00    2.798805e+00
  9.545376e+00    2.763154e+00
  9.561252e+00    2.798866e+00
  9.577127e+00    2.857272e+00
  9.593003e+00    2.769859e+00
  9.608878e+00    2.790820e+00
  9.624754e+00    2.817092e+00
  9.640630e+00    2.754178e+00
  9.656505e+00    2.797540e+00
  9.672381e+00    2.760882e+00
  9.688256e+00    2.786056e+00
  9.704132e+00    2.757054e+00
  9.720008e+00    2.786119e+00
  9.735883e+00    2.750441e+00
  9.751759e+00    2.733406e+00
  9.767634e+00    2.684711e+00
  9.783510e+00    2.709964e+00
  9.799385e+00    2.789731e+00
  9.815261e+00    2.752653e+00
  9.831137e+00    2.726023e+00
  9.847012e+00    2.745468e+00
  9.862888e+00    2.715507e+00
  9.878763e+00    2.689976e+00
  9.894639e+00    2.703185e+00
  9.910514e+00    2.649954e+00
  9.926390e+00    2.689466e+00
  9.942266e+00    2.695866e+00
  9.958141e+00    2.729300e+00
  9.974017e+00    2.737674e+00
  9.989892e+00    2.714083e+00
  1.000577e+01    2.678182e+00
  1.002164e+01    2.664538e+00
  1.003752e+01    2.727783e+00
  1.005339e+01    2.676119e+00
  1.006927e+01    2.632990e+00
  1.008515e+01    2.706155e+00
  1.010102e+01    2.697502e+00
  1.011690e+01    2.693681e+00
  1.013277e+01    2.691204e+00
  1.014865e+01    2.700053e+00
  1.016452e+01    2.703684e+00
  1.018040e+01    2.680456e+00
  1.019627e+01    2.677919e+00
  1.021215e+01    2.680190e+00
  1.022803e+01    2.657882e+00
  1.024390e+01    2.686962e+00
  1.025978e+01    2.732995e+00
  1.027565e+01    2.684552e+00
  1.029153e+01    2.658471e+00
  1.030740e+01    2.684468e+00
  1.032328e+01    2.671659e+00
  1.033915e+01    2.648568e+00
  1.035503e+01    2.625041e+00
  1.037091e+01    2.593174e+00
  1.038678e+01    2.613774e+00
  1.040266e+01    2.623275e+00
  1.041853e+01    2.603609e+00
  1.043441e+01    2.601646e+00
  1.045028e+01    2.626872e+00
  1.046616e+01    2.596272e+00
  1.048204e+01    2.573797e+00
  1.049791e+01    2.582694e+00
  1.051379e+01    2.633574e+00
  1.052966e+01    2.548010e+00
  1.054554e+01    2.567883e+00
  1.056141e+01    2.678151e+00
  1.057729e+01    2.617511e+00
  1.059316e+01    2.590240e+00
  1.060904e+01    2.601154e+00
  1.062492e+01    2.606294e+00
  1.064079e+01    2.576427e+00
  1.065667e+01    2.547287e+00
  1.067254e+01    2.572717e+00
  1.068842e+01    2.570598e+00
  1.070429e+01    2.579325e+00
  1.072017e+01    2.593952e+00
  1.073604e+01    2.596207e+00
  1.075192e+01    2.587313e+00
  1.076780e+01    2.595563e+00
  1.078367e+01    2.605105e+00
  1.079955e+01    2.582990e+00
  1.081542e+01    2.536808e+00
  1.083130e+01    2.525874e+00
  1.084717e+01    2.527073e+00
  1.086305e+01    2.486524e+00
  1.087892e+01    2.546064e+00
  1.089480e+01    2.525799e+00
  1.091068e+01    2.508983e+00
  1.092655e+01    2.569413e+00
  1.094243e+01    2.531619e+00
  1.095830e+01    2.506782e+00
  1.097418e+01    2.480656e+00
  1.099005e+01    2.508814e+00
  1.100593e+01    2.511508e+00
  1.102180e+01    2.571377e+00
  1.103768e+01    2.504135e+00
  1.105356e+01    2.482760e+00
  1.106943e+01    2.498939e+00
  1.108531e+01    2.531230e+00
  1.110118e+01    2.518881e+00
  1.111706e+01    2.483229e+00
  1.113293e+01    2.481003e+00
  1.114881e+01    2.461733e+00
  1.116468e+01    2.433512e+00
  1.118056e+01    2.433929e+00
  1.119644e+01    2.433827e+00
  1.121231e+01    2.419227e+00
  1.122819e+01    2.441265e+00
  1.124406e+01    2.497393e+00
  1.125994e+01    2.469054e+00
  1.127581e+01    2.491770e+00
  1.129169e+01    2.515531e+00
  1.130756e+01    2.467331e+00
  1.132344e+01    2.498680e+00
  1.133932e+01    2.445051e+00
  1.135519e+01    2.459840e+00
  1.137107e+01    2.428221e+00
  1.138694e+01    2.417354e+00
  1.140282e+01    2.437328e+00
  1.141869e+01    2.476478e+00
  1.143457e+01    2.474335e+00
  1.145045e+01    2.467300e+00
  1.146632e+01    2.496200e+00
  1.148220e+01    2.471105e+00
  1.149807e+01    2.459508e+00
  1.151395e+01    2.429228e+00
  1.152982e+01    2.403259e+00
  1.154570e+01    2.433715e+00
  1.156157e+01    2.407280e+00
  1.157745e+01    2.397594e+00
  1.159333e+01    2.388428e+00
  1.160920e+01    2.384494e+00
  1.162508e+01    2.414313e+00
  1.164095e+01    2.393289e+00
  1.165683e+01    2.416034e+00
  1.167270e+01    2.392457e+00
  1.168858e+01    2.386238e+00
  1.170445e+01    2.399734e+00
  1.172033e+01    2.405620e+00
  1.173621e+01    2.364395e+00
  1.175208e+01    2.378154e+00
  1.176796e+01    2.434808e+00
  1.178383e+01    2.425026e+00
  1.179971e+01    2.401714e+00
  1.181558e+01    2.348123e+00
  1.183146e+01    2.356659e+00
  1.184733e+01    2.365020e+00
  1.186321e+01    2.393677e+00
  1.187909e+01    2.365255e+00
  1.189496e+01    2.358032e+00
  1.191084e+01    2.378010e+00
  1.192671e+01    2.352538e+00
  1.194259e+01    2.369096e+00
  1.195846e+01    2.364583e+00
  1.197434e+01    2.384768e+00
  1.199021e+01    2.363532e+00
  1.200609e+01    2.292921e+00
  1.202197e+01    2.301038e+00
  1.203784e+01    2.337455e+00
  1.205372e+01    2.371493e+00
  1.206959e+01    2.343587e+00
  1.208547e+01    2.378611e+00
  1.210134e+01    2.386236e+00
  1.211722e+01    2.326710e+00
  1.213309e+01    2.324478e+00
  1.214897e+01    2.285180e+00
  1.216485e+01    2.290295e+00
  1.218072e+01    2.328823e+00
  1.219660e+01    2.347737e+00
  1.221247e+01    2.331315e+00
  1.222835e+01    2.303629e+00
  1.224422e+01    2.307953e+00
  1.226010e+01    2.302602e+00
  1.227597e+01    2.317456e+00
  1.229185e+01    2.372369e+00
  1.230773e+01    2.353484e+00
  1.232360e+01    2.277391e+00
  1.233948e+01    2.360384e+00
  1.235535e+01    2.365921e+00
  1.237123e+01    2.377352e+00
  1.238710e+01    2.366094e+00
  1.240298e+01    2.327163e+00
  1.241886e+01    2.367453e+00
  1.243473e+01    2.295242e+00
  1.245061e+01    2.340839e+00
  1.246648e+01    2.370836e+00
  1.248236e+01    2.381697e+00
  1.249823e+01    2.407365e+00
  1.251411e+01    2.382454e+00
  1.252998e+01    2.367955e+00
  1.254586e+01    2.370247e+00
  1.256174e+01    2.389202e+00
  1.257761e+01    2.375895e+00
  1.259349e+01    2.374136e+00
  1.260936e+01    2.412482e+00
  1.262524e+01    2.466205e+00
  1.264111e+01    2.454475e+00
  1.265699e+01    2.447012e+00
  1.267286e+01    2.411531e+00
  1.268874e+01    2.456125e+00
  1.270462e+01    2.490530e+00
  1.272049e+01    2.533787e+00
  1.273637e+01    2.549189e+00
  1.275224e+01    2.543617e+00
  1.276812e+01    2.542457e+00
  1.278399e+01    2.654025e+00
  1.279987e+01    2.694921e+00
  1.281574e+01    2.745466e+00
  1.283162e+01    2.794992e+00
  1.284750e+01    2.811682e+00
  1.286337e+01    2.862642e+00
  1.287925e+01    3.021750e+00
  1.289512e+01    3.194171e+00
  1.291100e+01    3.310432e+00
  1.292687e+01    3.480415e+00
  1.294275e+01    3.684547e+00
  1.295862e+01    3.919523e+00
  1.297450e+01    4.246931e+00
  1.299038e+01    4.698113e+00
  1.300625e+01    5.245016e+00
  1.302213e+01    5.847419e+00
  1.303800e+01    6.603593e+00
  1.305388e+01    7.675713e+00
  1.306975e+01    8.943704e+00
  1.308563e+01    1.044378e+01
  1.310150e+01    1.194699e+01
  1.311738e+01    1.342655e+01
  1.313326e+01    1.488371e+01
  1.314913e+01    1.635709e+01
  1.316501e+01    1.781834e+01
  1.318088e+01    1.912370e+01
  1.319676e+01    2.003328e+01
  1.321263e+01    1.968940e+01
  1.322851e+01    1.845800e+01
  1.324438e+01    1.657203e+01
  1.326026e+01    1.427782e+01
  1.327614e+01    1.196851e+01
  1.329201e+01    1.002283e+01
  1.330789e+01    8.341557e+00
  1.332376e+01    7.205617e+00
  1.333964e+01    6.292040e+00
  1.335551e+01    5.542212e+00
  1.337139e+01    4.917821e+00
  1.338727e+01    4.504204e+00
  1.340314e+01    4.157391e+00
  1.341902e+01    3.862757e+00
  1.343489e+01    3.636944e+00
  1.345077e+01    3.386500e+00
  1.346664e+01    3.212833e+00
  1.348252e+01    3.068625e+00
  1.349839e+01    2.966110e+00
  1.351427e+01    2.846173e+00
  1.353015e+01    2.768889e+00
  1.354602e+01    2.722612e+00
  1.356190e+01    2.660942e+00
  1.357777e+01    2.600658e+00
  1.359365e+01    2.549309e+00
  1.360952e+01    2.497163e+00
  1.362540e+01    2.432472e+00
  1.364127e+01    2.427039e+00
  1.365715e+01    2.430741e+00
  1.367303e+01    2.389928e+00
  1.368890e+01    2.325591e+00
  1.370478e+01    2.320178e+00
  1.372065e+01    2.299784e+00
  1.373653e+01    2.319963e+00
  1.375240e+01    2.306700e+00
  1.376828e+01    2.263420e+00
  1.378415e+01    2.267515e+00
  1.380003e+01    2.238429e+00
  1.381591e+01    2.199383e+00
  1.383178e+01    2.176227e+00
  1.384766e+01    2.208559e+00
  1.386353e+01    2.156672e+00
  1.387941e+01    2.170244e+00
  1.389528e+01    2.134208e+00
  1.391116e+01    2.128154e+00
  1.392703e+01    2.131604e+00
  1.394291e+01    2.123053e+00
  1.395879e+01    2.098446e+00
  1.397466e+01    2.080884e+00
  1.399054e+01    2.074150e+00
  1.400641e+01    2.067700e+00
  1.402229e+01    2.087792e+00
  1.403816e+01    2.075363e+00
  1.405404e+01    2.085987e+00
  1.406991e+01    2.064059e+00
  1.408579e+01    2.038713e+00
  1.410167e+01    2.089597e+00
  1.411754e+01    2.064435e+00
  1.413342e+01    2.020625e+00
  1.414929e+01    2.020914e+00
  1.416517e+01    2.041862e+00
  1.418104e+01    2.033766e+00
  1.419692e+01    2.050885e+00
  1.421279e+01    2.046161e+00
  1.422867e+01    2.036732e+00
  1.424455e+01    2.011060e+00
  1.426042e+01    1.999617e+00
  1.427630e+01    1.996850e+00
  1.429217e+01    1.967275e+00
  1.430805e+01    1.968779e+00
  1.432392e+01    2.006310e+00
  1.433980e+01    2.007341e+00
  1.435568e+01    2.017798e+00
  1.437155e+01    2.001651e+00
  1.438743e+01    1.988542e+00
  1.440330e+01    1.963775e+00
  1.441918e+01    1.979206e+00
  1.443505e+01    1.970945e+00
  1.445093e+01    1.934211e+00
  1.446680e+01    1.915572e+00
  1.448268e+01    1.968177e+00
  1.449856e+01    1.950217e+00
  1.451443e+01    1.985185e+00
  1.453031e+01    1.956113e+00
  1.454618e+01    1.947685e+00
  1.456206e+01    1.959304e+00
  1.457793e+01    1.957378e+00
  1.459381e+01    1.906150e+00
  1.460968e+01    1.910938e+00
  1.462556e+01    1.911358e+00
  1.464144e+01    1.957162e+00
  1.465731e+01    1.973533e+00
  1.467319e+01    1.928250e+00
  1.468906e+01    1.922392e+00
  1.470494e+01    1.961167e+00
  1.472081e+01    1.950718e+00
  1.473669e+01    1.925479e+00
  1.475256e+01    1.967910e+00
  1.476844e+01    1.965938e+00
  1.478432e+01    1.930052e+00
  1.480019e+01    1.941357e+00
  1.481607e+01    1.931863e+00
  1.483194e+01    1.969611e+00
  1.484782e+01    1.992694e+00
  1.486369e+01    1.978183e+00
  1.487957e+01    1.949578e+00
  1.489544e+01    1.961465e+00
  1.491132e+01    2.004321e+00
  1.492720e+01    2.054544e+00
  1.494307e+01    2.024788e+00
  1.495895e+01    2.041255e+00
  1.497482e+01    2.057374e+00
  1.499070e+01    2.090600e+00
  1.500657e+01    2.160650e+00
  1.502245e+01    2.196780e+00
  1.503832e+01    2.281339e+00
  1.505420e+01    2.340631e+00
  1.507008e+01    2.381449e+00
  1.508595e+01    2.569949e+00
  1.510183e+01    2.729096e+00
  1.511770e+01    2.894002e+00
  1.513358e+01    3.178132e+00
  1.514945e+01    3.519105e+00
  1.516533e+01    3.892917e+00
  1.518120e+01    4.330986e+00
  1.519708e+01    4.856220e+00
  1.521296e+01    5.279805e+00
  1.522883e+01    5.598959e+00
  1.524471e+01    5.943802e+00
  1.526058e+01    6.260391e+00
  1.527646e+01    6.421453e+00
  1.529233e+01    6.568656e+00
  1.530821e+01    6.597501e+00
  1.532409e+01    6.355884e+00
  1.533996e+01    5.798469e+00
  1.535584e+01    5.137544e+00
  1.537171e+01    4.463848e+00
  1.538759e+01    3.944288e+00
  1.540346e+01    3.491193e+00
  1.541934e+01    3.159547e+00
  1.543521e+01    2.893690e+00
  1.545109e+01    2.692282e+00
  1.546697e+01    2.528360e+00
  1.548284e+01    2.370180e+00
  1.549872e+01    2.244240e+00
  1.551459e+01    2.206243e+00
  1.553047e+01    2.121531e+00
  1.554634e+01    2.086366e+00
  1.556222e+01    2.025237e+00
  1.557809e+01    1.985133e+00
  1.559397e+01    1.930202e+00
  1.560985e+01    1.883088e+00
  1.562572e+01    1.880503e+00
  1.564160e+01    1.883175e+00
  1.565747e+01    1.842730e+00
  1.567335e+01    1.847534e+00
  1.568922e+01    1.807932e+00
  1.570510e+01    1.798424e+00
  1.572097e+01    1.809330e+00
  1.573685e+01    1.754265e+00
  1.575273e+01    1.754792e+00
  1.576860e+01    1.744541e+00
  1.578448e+01    1.759313e+00
  1.580035e+01    1.736639e+00
  1.581623e+01    1.711465e+00
  1.583210e+01    1.670156e+00
  1.584798e+01    1.691209e+00
  1.586385e+01    1.722686e+00
  1.587973e+01    1.695657e+00
  1.589561e+01    1.675040e+00
  1.591148e+01    1.682568e+00
  1.592736e+01    1.665560e+00
  1.594323e+01    1.657290e+00
  1.595911e+01    1.613457e+00
  1.597498e+01    1.593146e+00
  1.599086e+01    1.616179e+00
  1.600673e+01    1.639709e+00
  1.602261e+01    1.610627e+00
  1.603849e+01    1.600561e+00
  1.605436e+01    1.610847e+00
  1.607024e+01    1.641907e+00
  1.608611e+01    1.659589e+00
  1.610199e+01    1.662135e+00
  1.611786e+01    1.627656e+00
  1.613374e+01    1.601804e+00
  1.614961e+01    1.621319e+00
  1.616549e+01    1.623430e+00
  1.618137e+01    1.599347e+00
  1.619724e+01    1.626235e+00
  1.621312e+01    1.647768e+00
  1.622899e+01    1.604545e+00
  1.624487e+01    1.577254e+00
  1.626074e+01    1.574370e+00
  1.627662e+01    1.579737e+00
  1.629250e+01    1.552855e+00
  1.630837e+01    1.550225e+00
  1.632425e+01    1.561438e+00
  1.634012e+01    1.593261e+00
  1.635600e+01    1.571769e+00
  1.637187e+01    1.546683e+00
  1.638775e+01    1.567969e+00
  1.640362e+01    1.565126e+00
  1.641950e+01    1.554534e+00
  1.643538e+01    1.511117e+00
  1.645125e+01    1.533551e+00
  1.646713e+01    1.500355e+00
  1.648300e+01    1.512283e+00
  1.649888e+01    1.530857e+00
  1.651475e+01    1.530131e+00
  1.653063e+01    1.513535e+00
  1.654650e+01    1.521525e+00
  1.656238e+01    1.529262e+00
  1.657826e+01    1.511908e+00
  1.659413e+01    1.510415e+00
  1.661001e+01    1.493438e+00
  1.662588e+01    1.476776e+00
  1.664176e+01    1.490805e+00
  1.665763e+01    1.501708e+00
  1.667351e+01    1.479445e+00
  1.668938e+01    1.498607e+00
  1.670526e+01    1.492606e+00
  1.672114e+01    1.479301e+00
  1.673701e+01    1.486617e+00
  1.675289e+01    1.508742e+00
  1.676876e+01    1.496614e+00
  1.678464e+01    1.479728e+00
  1.680051e+01    1.506742e+00
  1.681639e+01    1.502665e+00
  1.683226e+01    1.494608e+00
  1.684814e+01    1.478515e+00
  1.686402e+01    1.482641e+00
  1.687989e+01    1.473945e+00
  1.689577e+01    1.481261e+00
  1.691164e+01    1.489122e+00
  1.692752e+01    1.491834e+00
  1.694339e+01    1.468482e+00
  1.695927e+01    1.460656e+00
  1.697514e+01    1.445998e+00
  1.699102e+01    1.447290e+00
  1.700690e+01    1.462504e+00
  1.702277e+01    1.473588e+00
  1.703865e+01    1.462309e+00
  1.705452e+01    1.454185e+00
  1.707040e+01    1.464273e+00
  1.708627e+01    1.457423e+00
  1.710215e+01    1.474656e+00
  1.711802e+01    1.454118e+00
  1.713390e+01    1.425856e+00
  1.714978e+01    1.422855e+00
  1.716565e+01    1.437246e+00
  1.718153e+01    1.459627e+00
  1.719740e+01    1.444422e+00
  1.721328e+01    1.406307e+00
  1.722915e+01    1.384343e+00
  1.724503e+01    1.406106e+00
  1.726091e+01    1.420157e+00
  1.727678e+01    1.393994e+00
  1.729266e+01    1.386721e+00
  1.730853e+01    1.427296e+00
  1.732441e+01    1.418527e+00
  1.734028e+01    1.384844e+00
  1.735616e+01    1.393897e+00
  1.737203e+01    1.392522e+00
  1.738791e+01    1.361360e+00
  1.740379e+01    1.387701e+00
  1.741966e+01    1.391414e+00
  1.743554e+01    1.372101e+00
  1.745141e+01    1.382718e+00
  1.746729e+01    1.379562e+00
  1.748316e+01    1.365496e+00
  1.749904e+01    1.370522e+00
  1.751491e+01    1.376487e+00
  1.753079e+01    1.394317e+00
  1.754667e+01    1.394061e+00
  1.756254e+01    1.361580e+00
  1.757842e+01    1.363316e+00
  1.759429e+01    1.378227e+00
  1.761017e+01    1.362264e+00
  1.762604e+01    1.360426e+00
  1.764192e+01    1.385494e+00
  1.765779e+01    1.363219e+00
  1.767367e+01    1.376431e+00
  1.768955e+01    1.378181e+00
  1.770542e+01    1.343134e+00
  1.772130e+01    1.331717e+00
  1.773717e+01    1.323408e+00
  1.775305e+01    1.326335e+00
  1.776892e+01    1.344739e+00
  1.778480e+01    1.330202e+00
  1.780067e+01    1.349103e+00
  1.781655e+01    1.360092e+00
  1.783243e+01    1.345780e+00
  1.784830e+01    1.342224e+00
  1.786418e+01    1.347888e+00
  1.788005e+01    1.322181e+00
  1.789593e+01    1.320019e+00
  1.791180e+01    1.332366e+00
  1.792768e+01    1.350294e+00
  1.794355e+01    1.349424e+00
  1.795943e+01    1.328012e+00
  1.797531e+01    1.318386e+00
  1.799118e+01    1.299549e+00
  1.800706e+01    1.322228e+00
  1.802293e+01    1.326670e+00
  1.803881e+01    1.332123e+00
  1.805468e+01    1.312699e+00
  1.807056e+01    1.302956e+00
  1.808643e+01    1.315625e+00
  1.810231e+01    1.302204e+00
  1.811819e+01    1.329470e+00
  1.813406e+01    1.367863e+00
  1.814994e+01    1.323140e+00
  1.816581e+01    1.294300e+00
  1.818169e+01    1.301499e+00
  1.819756e+01    1.300293e+00
  1.821344e+01    1.295552e+00
  1.822932e+01    1.315840e+00
  1.824519e+01    1.302230e+00
  1.826107e+01    1.292182e+00
  1.827694e+01    1.297254e+00
  1.829282e+01    1.310337e+00
  1.830869e+01    1.308477e+00
  1.832457e+01    1.286147e+00
  1.834044e+01    1.296312e+00
  1.835632e+01    1.288181e+00
  1.837220e+01    1.257595e+00
  1.838807e+01    1.286134e+00
  1.840395e+01    1.291637e+00
  1.841982e+01    1.261864e+00
  1.843570e+01    1.286391e+00
  1.845157e+01    1.293597e+00
  1.846745e+01    1.271839e+00
  1.848332e+01    1.281981e+00
  1.849920e+01    1.282376e+00
  1.851508e+01    1.278735e+00
  1.853095e+01    1.265082e+00
  1.854683e+01    1.244239e+00
  1.856270e+01    1.272468e+00
  1.857858e+01    1.263333e+00
  1.859445e+01    1.251187e+00
  1.861033e+01    1.240765e+00
  1.862620e+01    1.236489e+00
  1.864208e+01    1.270654e+00
  1.865796e+01    1.258103e+00
  1.867383e+01    1.255613e+00
  1.868971e+01    1.236061e+00
  1.870558e+01    1.221335e+00
  1.872146e+01    1.221915e+00
  1.873733e+01    1.235768e+00
  1.875321e+01    1.252042e+00
  1.876908e+01    1.252955e+00
  1.878496e+01    1.235690e+00
  1.880084e+01    1.238102e+00
  1.881671e+01    1.249262e+00
  1.883259e+01    1.233333e+00
  1.884846e+01    1.231729e+00
  1.886434e+01    1.238569e+00
  1.888021e+01    1.225576e+00
  1.889609e+01    1.235525e+00
  1.891196e+01    1.229753e+00
  1.892784e+01    1.245410e+00
  1.894372e+01    1.237685e+00
  1.895959e+01    1.239936e+00
  1.897547e+01    1.235526e+00
  1.899134e+01    1.219097e+00
  1.900722e+01    1.200631e+00
  1.902309e+01    1.195053e+00
  1.903897e+01    1.187689e+00
  1.905484e+01    1.177758e+00
  1.907072e+01    1.201604e+00
  1.908660e+01    1.215411e+00
  1.910247e+01    1.199523e+00
  1.911835e+01    1.208055e+00
  1.913422e+01    1.207672e+00
  1.915010e+01    1.191617e+00
  1.916597e+01    1.202949e+00
  1.918185e+01    1.222533e+00
  1.919773e+01    1.203530e+00
  1.921360e+01    1.201175e+00
  1.922948e+01    1.198653e+00
  1.924535e+01    1.211952e+00
  1.926123e+01    1.225299e+00
  1.927710e+01    1.217904e+00
  1.929298e+01    1.206644e+00
  1.930885e+01    1.211516e+00
  1.932473e+01    1.196275e+00
  1.934061e+01    1.187006e+00
  1.935648e+01    1.186766e+00
  1.937236e+01    1.165061e+00
  1.938823e+01    1.185465e+00
  1.940411e+01    1.183404e+00
  1.941998e+01    1.153250e+00
  1.943586e+01    1.158669e+00
  1.945173e+01    1.185644e+00
  1.946761e+01    1.199890e+00
  1.948349e+01    1.203761e+00
  1.949936e+01    1.181734e+00
  1.951524e+01    1.169334e+00
  1.953111e+01    1.180366e+00
  1.954699e+01    1.174574e+00
  1.956286e+01    1.159702e+00
  1.957874e+01    1.185281e+00
  1.959461e+01    1.179467e+00
  1.961049e+01    1.176117e+00
  1.962637e+01    1.154557e+00
  1.964224e+01    1.148799e+00
  1.965812e+01    1.168175e+00
  1.967399e+01    1.175445e+00
  1.968987e+01    1.160940e+00
  1.970574e+01    1.154343e+00
  1.972162e+01    1.169925e+00
  1.973749e+01    1.160420e+00
  1.975337e+01    1.166085e+00
  1.976925e+01    1.158363e+00
  1.978512e+01    1.141771e+00
  1.980100e+01    1.156019e+00
  1.981687e+01    1.142321e+00
  1.983275e+01    1.147263e+00
  1.984862e+01    1.143040e+00
  1.986450e+01    1.149046e+00
  1.988037e+01    1.165296e+00
  1.989625e+01    1.143245e+00
  1.991213e+01    1.098303e+00
  1.992800e+01    1.144989e+00
  1.994388e+01    1.150383e+00
  1.995975e+01    1.132562e+00
  1.997563e+01    1.137739e+00
  1.999150e+01    1.158493e+00
  2.000738e+01    1.185076e+00
  2.002325e+01    1.159018e+00
  2.003913e+01    1.151859e+00
  2.005501e+01    1.167090e+00
  2.007088e+01    1.143517e+00
  2.008676e+01    1.138294e+00
  2.010263e+01    1.124613e+00
  2.011851e+01    1.119339e+00
  2.013438e+01    1.116067e+00
  2.015026e+01    1.123902e+00
  2.016614e+01    1.133627e+00
  2.018201e+01    1.130655e+00
  2.019789e+01    1.115705e+00
  2.021376e+01    1.097356e+00
  2.022964e+01    1.093775e+00
  2.024551e+01    1.111273e+00
  2.026139e+01    1.099781e+00
  2.027726e+01    1.119365e+00
  2.029314e+01    1.121179e+00
  2.030902e+01    1.118686e+00
  2.032489e+01    1.132711e+00
  2.034077e+01    1.145409e+00
  2.035664e+01    1.118939e+00
  2.037252e+01    1.117743e+00
  2.038839e+01    1.097942e+00
  2.040427e+01    1.084329e+00
  2.042014e+01    1.115563e+00
  2.043602e+01    1.122565e+00
  2.045190e+01    1.099301e+00
  2.046777e+01    1.114821e+00
  2.048365e+01    1.119877e+00
  2.049952e+01    1.109235e+00
  2.051540e+01    1.101018e+00
  2.053127e+01    1.111323e+00
  2.054715e+01    1.098146e+00
  2.056302e+01    1.092781e+00
  2.057890e+01    1.132386e+00
  2.059478e+01    1.103364e+00
  2.061065e+01    1.091179e+00
  2.062653e+01    1.104882e+00
  2.064240e+01    1.099242e+00
  2.065828e+01    1.111265e+00
  2.067415e+01    1.086917e+00
  2.069003e+01    1.085309e+00
  2.070590e+01    1.086710e+00
  2.072178e+01    1.108953e+00
  2.073766e+01    1.088808e+00
  2.075353e+01    1.109220e+00
  2.076941e+01    1.098892e+00
  2.078528e+01    1.093471e+00
  2.080116e+01    1.089619e+00
  2.081703e+01    1.076459e+00
  2.083291e+01    1.087687e+00
  2.084878e+01    1.089962e+00
  2.086466e+01    1.100692e+00
  2.088054e+01    1.109469e+00
  2.089641e+01    1.109032e+00
  2.091229e+01    1.102427e+00
  2.092816e+01    1.093981e+00
  2.094404e+01    1.084417e+00
  2.095991e+01    1.102131e+00
  2.097579e+01    1.103875e+00
  2.099166e+01    1.102447e+00
  2.100754e+01    1.107579e+00
  2.102342e+01    1.090756e+00
  2.103929e+01    1.105169e+00
  2.105517e+01    1.103975e+00
  2.107104e+01    1.079088e+00
  2.108692e+01    1.095497e+00
  2.110279e+01    1.122671e+00
  2.111867e+01    1.110417e+00
  2.113455e+01    1.114183e+00
  2.115042e+01    1.104203e+00
  2.116630e+01    1.101631e+00
  2.118217e+01    1.112643e+00
  2.119805e+01    1.122113e+00
  2.121392e+01    1.143595e+00
  2.122980e+01    1.136312e+00
  2.124567e+01    1.127530e+00
  2.126155e+01    1.134491e+00
  2.127743e+01    1.129894e+00
  2.129330e+01    1.102924e+00
  2.130918e+01    1.138595e+00
  2.132505e+01    1.166435e+00
  2.134093e+01    1.166421e+00
  2.135680e+01    1.170105e+00
  2.137268e+01    1.179592e+00
  2.138855e+01    1.184559e+00
  2.140443e+01    1.204709e+00
  2.142031e+01    1.213410e+00
  2.143618e+01    1.217479e+00
  2.145206e+01    1.198373e+00
  2.146793e+01    1.236353e+00
  2.148381e+01    1.268516e+00
  2.149968e+01    1.275182e+00
  2.151556e+01    1.318977e+00
  2.153143e+01    1.322627e+00
  2.154731e+01    1.369162e+00
  2.156319e+01    1.395420e+00
  2.157906e+01    1.431787e+00
  2.159494e+01    1.469833e+00
  2.161081e+01    1.545074e+00
  2.162669e+01    1.614637e+00
  2.164256e+01    1.720494e+00
  2.165844e+01    1.818579e+00
  2.167431e+01    1.937627e+00
  2.169019e+01    2.093601e+00
  2.170607e+01    2.259354e+00
  2.172194e+01    2.501070e+00
  2.173782e+01    2.754241e+00
  2.175369e+01    3.116078e+00
  2.176957e+01    3.586212e+00
  2.178544e+01    4.116392e+00
  2.180132e+01    4.772275e+00
  2.181719e+01    5.462751e+00
  2.183307e+01    6.204347e+00
  2.184895e+01    7.091126e+00
  2.186482e+01    8.046115e+00
  2.188070e+01    8.916508e+00
  2.189657e+01    9.773724e+00
  2.191245e+01    1.049018e+01
  2.192832e+01    1.095789e+01
  2.194420e+01    1.113445e+01
  2.196007e+01    1.068373e+01
  2.197595e+01    9.808021e+00
  2.199183e+01    8.631809e+00
  2.200770e+01    7.447127e+00
  2.202358e+01    6.320667e+00
  2.203945e+01    5.342535e+00
  2.205533e+01    4.561435e+00
  2.207120e+01    3.890293e+00
  2.208708e+01    3.369048e+00
  2.210296e+01    2.991964e+00
  2.211883e+01    2.658749e+00
  2.213471e+01    2.429425e+00
  2.215058e+01    2.205043e+00
  2.216646e+01    1.972839e+00
  2.218233e+01    1.835289e+00
  2.219821e+01    1.744644e+00
  2.221408e+01    1.664708e+00
  2.222996e+01    1.585796e+00
  2.224584e+01    1.524008e+00
  2.226171e+01    1.439488e+00
  2.227759e+01    1.397981e+00
  2.229346e+01    1.371825e+00
  2.230934e+01    1.343970e+00
  2.232521e+01    1.271856e+00
  2.234109e+01    1.227073e+00
  2.235696e+01    1.188447e+00
  2.237284e+01    1.182946e+00
  2.238872e+01    1.172210e+00
  2.240459e+01    1.163260e+00
  2.242047e+01    1.159997e+00
  2.243634e+01    1.117489e+00
  2.245222e+01    1.097801e+00
  2.246809e+01    1.094642e+00
  2.248397e+01    1.089040e+00
  2.249984e+01    1.064547e+00
  2.251572e+01    1.039018e+00
  2.253160e+01    1.033434e+00
  2.254747e+01    1.038955e+00
  2.256335e+01    1.046885e+00
  2.257922e+01    1.048787e+00
  2.259510e+01    1.019351e+00
  2.261097e+01    1.026426e+00
  2.262685e+01    1.022776e+00
  2.264272e+01    1.012860e+00
  2.265860e+01    1.011762e+00
  2.267448e+01    1.015128e+00
  2.269035e+01    9.960049e-01
  2.270623e+01    9.796489e-01
  2.272210e+01    9.941320e-01
  2.273798e+01    1.006786e+00
  2.275385e+01    9.978693e-01
  2.276973e+01    9.647015e-01
  2.278560e+01    9.698871e-01
  2.280148e+01    9.654998e-01
  2.281736e+01    9.530454e-01
  2.283323e+01    9.380803e-01
  2.284911e+01    9.235681e-01
  2.286498e+01    9.410001e-01
  2.288086e+01    9.691608e-01
  2.289673e+01    9.573439e-01
  2.291261e+01    9.454369e-01
  2.292848e+01    9.382057e-01
  2.294436e+01    9.399161e-01
  2.296024e+01    9.506165e-01
  2.297611e+01    9.161727e-01
  2.299199e+01    9.128329e-01
  2.300786e+01    9.198937e-01
  2.302374e+01    9.202839e-01
  2.303961e+01    9.283469e-01
  2.305549e+01    9.062093e-01
  2.307137e+01    8.783783e-01
  2.308724e+01    8.948685e-01
  2.310312e+01    9.053705e-01
  2.311899e+01    9.056632e-01
  2.313487e+01    8.871444e-01
  2.315074e+01    8.885882e-01
  2.316662e+01    8.944740e-01
  2.318249e+01    8.916974e-01
  2.319837e+01    8.908582e-01
  2.321425e+01    8.793595e-01
  2.323012e+01    8.811558e-01
  2.324600e+01    8.657928e-01
  2.326187e+01    8.888334e-01
  2.327775e+01    8.888879e-01
  2.329362e+01    8.757038e-01
  2.330950e+01    8.742881e-01
  2.332537e+01    8.664331e-01
  2.334125e+01    8.690495e-01
  2.335713e+01    8.688691e-01
  2.337300e+01    8.745044e-01
  2.338888e+01    8.809231e-01
  2.340475e+01    8.788224e-01
  2.342063e+01    8.665733e-01
  2.343650e+01    8.756847e-01
  2.345238e+01    8.609217e-01
  2.346825e+01    8.615983e-01
  2.348413e+01    8.606043e-01
  2.350001e+01    8.761917e-01
  2.351588e+01    8.498513e-01
  2.353176e+01    8.329218e-01
  2.354763e+01    8.321815e-01
  2.356351e+01    8.465916e-01
  2.357938e+01    8.469537e-01
  2.359526e+01    8.502116e-01
  2.361113e+01    8.477762e-01
  2.362701e+01    8.565534e-01
  2.364289e+01    8.320012e-01
  2.365876e+01    8.201969e-01
  2.367464e+01    8.460321e-01
  2.369051e+01    8.580986e-01
  2.370639e+01    8.563986e-01
  2.372226e+01    8.432211e-01
  2.373814e+01    8.493721e-01
  2.375401e+01    8.281971e-01
  2.376989e+01    8.137283e-01
  2.378577e+01    8.052201e-01
  2.380164e+01    8.355285e-01
  2.381752e+01    8.326722e-01
  2.383339e+01    8.191316e-01
  2.384927e+01    8.114113e-01
  2.386514e+01    8.045842e-01
  2.388102e+01    8.234506e-01
  2.389689e+01    8.073863e-01
  2.391277e+01    7.929815e-01
  2.392865e+01    8.132688e-01
  2.394452e+01    7.949198e-01
  2.396040e+01    7.898970e-01
  2.397627e+01    8.098059e-01
  2.399215e+01    8.144971e-01
  2.400802e+01    8.167458e-01
  2.402390e+01    8.065792e-01
  2.403978e+01    7.982835e-01
  2.405565e+01    8.034077e-01
  2.407153e+01    7.946147e-01
  2.408740e+01    8.146483e-01
  2.410328e+01    8.409150e-01
  2.411915e+01    8.065244e-01
  2.413503e+01    7.789354e-01
  2.415090e+01    7.929624e-01
  2.416678e+01    8.015620e-01
  2.418266e+01    8.191018e-01
  2.419853e+01    7.980598e-01
  2.421441e+01    7.940988e-01
  2.423028e+01    8.015376e-01
  2.424616e+01    7.890298e-01
  2.426203e+01    7.968215e-01
  2.427791e+01    8.177530e-01
  2.429378e+01    8.024403e-01
  2.430966e+01    8.006112e-01
  2.432554e+01    8.020100e-01
  2.434141e+01    8.041890e-01
  2.435729e+01    8.166107e-01
  2.437316e+01    7.926143e-01
  2.438904e+01    7.753423e-01
  2.440491e+01    7.883715e-01
  2.442079e+01    8.024216e-01
  2.443666e+01    8.149513e-01
  2.445254e+01    8.027286e-01
  2.446842e+01    7.998980e-01
  2.448429e+01    8.135523e-01
  2.450017e+01    8.079743e-01
  2.451604e+01    7.992260e-01
  2.453192e+01    8.075432e-01
  2.454779e+01    8.083801e-01
  2.456367e+01    8.139285e-01
  2.457954e+01    8.222327e-01
  2.459542e+01    7.998775e-01
  2.461130e+01    7.928903e-01
  2.462717e+01    7.994280e-01
  2.464305e+01    8.085696e-01
  2.465892e+01    8.107708e-01
  2.467480e+01    8.077843e-01
  2.469067e+01    8.157242e-01
  2.470655e+01    8.185820e-01
  2.472242e+01    8.121271e-01
  2.473830e+01    7.846727e-01
  2.475418e+01    8.113375e-01
  2.477005e+01    7.984040e-01
  2.478593e+01    8.008103e-01
  2.480180e+01    8.110886e-01
  2.481768e+01    8.008151e-01
  2.483355e+01    8.155671e-01
  2.484943e+01    7.990457e-01
  2.486530e+01    8.110003e-01
  2.488118e+01    8.079198e-01
  2.489706e+01    7.868257e-01
  2.491293e+01    7.980151e-01
  2.492881e+01    8.127967e-01
  2.494468e+01    8.225787e-01
  2.496056e+01    7.968446e-01
  2.497643e+01    8.049750e-01
  2.499231e+01    8.107044e-01
  2.500819e+01    8.117090e-01
  2.502406e+01    8.274036e-01
  2.503994e+01    8.166348e-01
  2.505581e+01    8.285134e-01
  2.507169e+01    8.422853e-01
  2.508756e+01    8.272702e-01
  2.510344e+01    8.378773e-01
  2.511931e+01    8.234083e-01
  2.513519e+01    8.139128e-01
  2.515107e+01    8.314427e-01
  2.516694e+01    8.375222e-01
  2.518282e+01    8.397515e-01
  2.519869e+01    8.533551e-01
  2.521457e+01    8.579324e-01
  2.523044e+01    8.476641e-01
  2.524632e+01    8.472372e-01
  2.526219e+01    8.576725e-01
  2.527807e+01    8.615222e-01
  2.529395e+01    8.688532e-01
  2.530982e+01    8.706366e-01
  2.532570e+01    8.789920e-01
  2.534157e+01    8.975925e-01
  2.535745e+01    9.027159e-01
  2.537332e+01    8.953220e-01
  2.538920e+01    9.188566e-01
  2.540507e+01    9.130737e-01
  2.542095e+01    9.363531e-01
  2.543683e+01    9.409871e-01
  2.545270e+01    9.429905e-01
  2.546858e+01    9.541742e-01
  2.548445e+01    9.644575e-01
  2.550033e+01    9.713835e-01
  2.551620e+01    9.973144e-01
  2.553208e+01    1.019294e+00
  2.554795e+01    1.026827e+00
  2.556383e+01    1.046800e+00
  2.557971e+01    1.059235e+00
  2.559558e+01    1.067776e+00
  2.561146e+01    1.122054e+00
  2.562733e+01    1.128674e+00
  2.564321e+01    1.164356e+00
  2.565908e+01    1.217785e+00
  2.567496e+01    1.262362e+00
  2.569083e+01    1.312732e+00
  2.570671e+01    1.391136e+00
  2.572259e+01    1.470679e+00
  2.573846e+01    1.555194e+00
  2.575434e+01    1.654467e+00
  2.577021e+01    1.816799e+00
  2.578609e+01    1.974277e+00
  2.580196e+01    2.165468e+00
  2.581784e+01    2.400225e+00
  2.583371e+01    2.706485e+00
  2.584959e+01    3.077202e+00
  2.586547e+01    3.536261e+00
  2.588134e+01    4.026083e+00
  2.589722e+01    4.652142e+00
  2.591309e+01    5.347512e+00
  2.592897e+01    6.155035e+00
  2.594484e+01    7.014823e+00
  2.596072e+01    7.747063e+00
  2.597660e+01    8.497404e+00
  2.599247e+01    9.016322e+00
  2.600835e+01    9.246111e+00
  2.602422e+01    9.039141e+00
  2.604010e+01    8.587419e+00
  2.605597e+01    7.813218e+00
  2.607185e+01    6.866842e+00
  2.608772e+01    5.958241e+00
  2.610360e+01    5.092569e+00
  2.611948e+01    4.343524e+00
  2.613535e+01    3.732682e+00
  2.615123e+01    3.208488e+00
  2.616710e+01    2.777541e+00
  2.618298e+01    2.503664e+00
  2.619885e+01    2.249134e+00
  2.621473e+01    2.041494e+00
  2.623060e+01    1.864741e+00
  2.624648e+01    1.724553e+00
  2.626236e+01    1.636920e+00
  2.627823e+01    1.516816e+00
  2.629411e+01    1.406060e+00
  2.630998e+01    1.333342e+00
  2.632586e+01    1.284154e+00
  2.634173e+01    1.264559e+00
  2.635761e+01    1.207107e+00
  2.637348e+01    1.145205e+00
  2.638936e+01    1.122617e+00
  2.640524e+01    1.120670e+00
  2.642111e+01    1.106985e+00
  2.643699e+01    1.087284e+00
  2.645286e+01    1.049332e+00
  2.646874e+01    1.034781e+00
  2.648461e+01    1.022524e+00
  2.650049e+01    9.960235e-01
  2.651636e+01    9.866746e-01
  2.653224e+01    9.908474e-01
  2.654812e+01    9.641221e-01
  2.656399e+01    9.467785e-01
  2.657987e+01    9.729298e-01
  2.659574e+01    9.765874e-01
  2.661162e+01    9.664257e-01
  2.662749e+01    9.425569e-01
  2.664337e+01    9.437776e-01
  2.665924e+01    9.239851e-01
  2.667512e+01    9.529293e-01
  2.669100e+01    9.573393e-01
  2.670687e+01    9.310932e-01
  2.672275e+01    9.121010e-01
  2.673862e+01    9.247213e-01
  2.675450e+01    9.305677e-01
  2.677037e+01    9.120113e-01
  2.678625e+01    9.163150e-01
  2.680212e+01    9.149969e-01
  2.681800e+01    9.186922e-01
  2.683388e+01    9.496733e-01
  2.684975e+01    9.350720e-01
  2.686563e+01    9.197565e-01
  2.688150e+01    9.410935e-01
  2.689738e+01    9.286943e-01
  2.691325e+01    9.629010e-01
  2.692913e+01    9.875798e-01
  2.694501e+01    9.568859e-01
  2.696088e+01    9.524179e-01
  2.697676e+01    9.832054e-01
  2.699263e+01    9.930283e-01
  2.700851e+01    1.025385e+00
  2.702438e+01    1.037438e+00
  2.704026e+01    1.051730e+00
  2.705613e+01    1.088493e+00
  2.707201e+01    1.140217e+00
  2.708789e+01    1.191785e+00
  2.710376e+01    1.253791e+00
  2.711964e+01    1.321590e+00
  2.713551e+01    1.441108e+00
  2.715139e+01    1.543862e+00
  2.716726e+01    1.689949e+00
  2.718314e+01    1.845842e+00
  2.719901e+01    2.026886e+00
  2.721489e+01    2.211729e+00
  2.723077e+01    2.392708e+00
  2.724664e+01    2.532019e+00
  2.726252e+01    2.616380e+00
  2.727839e+01    2.617536e+00
  2.729427e+01    2.544626e+00
  2.731014e+01    2.407466e+00
  2.732602e+01    2.216194e+00
  2.734189e+01    1.999838e+00
  2.735777e+01    1.826407e+00
  2.737365e+01    1.694773e+00
  2.738952e+01    1.524454e+00
  2.740540e+01    1.394314e+00
  2.742127e+01    1.322240e+00
  2.743715e+01    1.243915e+00
  2.745302e+01    1.178156e+00
  2.746890e+01    1.121272e+00
  2.748477e+01    1.095871e+00
  2.750065e+01    1.046378e+00
  2.751653e+01    1.007541e+00
  2.753240e+01    9.860471e-01
  2.754828e+01    9.727514e-01
  2.756415e+01    9.596630e-01
  2.758003e+01    9.310936e-01
  2.759590e+01    9.143481e-01
  2.761178e+01    9.019536e-01
  2.762765e+01    8.672996e-01
  2.764353e+01    8.748325e-01
  2.765941e+01    8.881207e-01
  2.767528e+01    8.731737e-01
  2.769116e+01    8.745590e-01
  2.770703e+01    8.564233e-01
  2.772291e+01    8.626272e-01
  2.773878e+01    8.569225e-01
  2.775466e+01    8.377475e-01
  2.777054e+01    8.300994e-01
  2.778641e+01    8.215747e-01
  2.780229e+01    8.422661e-01
  2.781816e+01    8.595309e-01
  2.783404e+01    8.685567e-01
  2.784991e+01    8.296323e-01
  2.786579e+01    8.246385e-01
  2.788166e+01    8.225965e-01
  2.789754e+01    8.241649e-01
  2.791342e+01    8.273323e-01
  2.792929e+01    8.261524e-01
  2.794517e+01    8.072669e-01
  2.796104e+01    8.147711e-01
  2.797692e+01    8.092572e-01
  2.799279e+01    8.143457e-01
  2.800867e+01    8.311844e-01
  2.802454e+01    8.106150e-01
  2.804042e+01    7.973058e-01
  2.805630e+01    8.092822e-01
  2.807217e+01    8.292317e-01
  2.808805e+01    8.157787e-01
  2.810392e+01    8.107101e-01
  2.811980e+01    7.936587e-01
  2.813567e+01    8.048924e-01
  2.815155e+01    8.199587e-01
  2.816742e+01    7.967899e-01
  2.818330e+01    7.891368e-01
  2.819918e+01    7.936034e-01
  2.821505e+01    8.047619e-01
  2.823093e+01    8.064609e-01
  2.824680e+01    8.012289e-01
  2.826268e+01    7.934707e-01
  2.827855e+01    7.921556e-01
  2.829443e+01    7.868567e-01
  2.831030e+01    7.829615e-01
  2.832618e+01    7.735730e-01
  2.834206e+01    7.999011e-01
  2.835793e+01    7.891613e-01
  2.837381e+01    7.832291e-01
  2.838968e+01    8.004116e-01
  2.840556e+01    7.682775e-01
  2.842143e+01    7.809604e-01
  2.843731e+01    7.882455e-01
  2.845318e+01    7.823492e-01
  2.846906e+01    7.835892e-01
  2.848494e+01    7.849069e-01
  2.850081e+01    7.884467e-01
  2.851669e+01    7.708188e-01
  2.853256e+01    7.530637e-01
  2.854844e+01    7.719947e-01
  2.856431e+01    7.719375e-01
  2.858019e+01    7.671514e-01
  2.859606e+01    7.666645e-01
  2.861194e+01    7.632785e-01
  2.862782e+01    7.653259e-01
  2.864369e+01    7.624807e-01
  2.865957e+01    7.795375e-01
  2.867544e+01    7.793307e-01
  2.869132e+01    7.759517e-01
  2.870719e+01    7.739866e-01
  2.872307e+01    7.891142e-01
  2.873895e+01    7.670272e-01
  2.875482e+01    7.734085e-01
  2.877070e+01    7.575335e-01
  2.878657e+01    7.608147e-01
  2.880245e+01    7.511491e-01
  2.881832e+01    7.690473e-01
  2.883420e+01    7.735120e-01
  2.885007e+01    7.674501e-01
  2.886595e+01    7.550089e-01
  2.888183e+01    7.484277e-01
  2.889770e+01    7.522560e-01
  2.891358e+01    7.530321e-01
  2.892945e+01    7.462708e-01
  2.894533e+01    7.572984e-01
  2.896120e+01    7.607329e-01
  2.897708e+01    7.613441e-01
  2.899295e+01    7.492431e-01
  2.900883e+01    7.726692e-01
  2.902471e+01    7.548270e-01
  2.904058e+01    7.474147e-01
  2.905646e+01    7.469410e-01
  2.907233e+01    7.538626e-01
  2.908821e+01    7.579659e-01
  2.910408e+01    7.549769e-01
  2.911996e+01    7.376043e-01
  2.913583e+01    7.531524e-01
  2.915171e+01    7.616019e-01
  2.916759e+01    7.644678e-01
  2.918346e+01    7.414469e-01
  2.919934e+01    7.466789e-01
  2.921521e+01    7.761417e-01
  2.923109e+01    7.488321e-01
  2.924696e+01    7.444944e-01
  2.926284e+01    7.619810e-01
  2.927871e+01    7.513419e-01
  2.929459e+01    7.471099e-01
  2.931047e+01    7.403998e-01
  2.932634e+01    7.475398e-01
  2.934222e+01    7.266734e-01
  2.935809e+01    7.429974e-01
  2.937397e+01    7.353363e-01
  2.938984e+01    7.368569e-01
  2.940572e+01    7.509071e-01
  2.942159e+01    7.484719e-01
  2.943747e+01    7.369683e-01
  2.945335e+01    7.486891e-01
  2.946922e+01    7.436866e-01
  2.948510e+01    7.443147e-01
  2.950097e+01    7.353308e-01
  2.951685e+01    7.319188e-01
  2.953272e+01    7.258158e-01
  2.954860e+01    7.219160e-01
  2.956447e+01    7.289305e-01
  2.958035e+01    7.358618e-01
  2.959623e+01    7.243575e-01
  2.961210e+01    7.342530e-01
  2.962798e+01    7.268649e-01
  2.964385e+01    7.418557e-01
  2.965973e+01    7.356116e-01
  2.967560e+01    7.266119e-01
  2.969148e+01    7.264892e-01
  2.970736e+01    7.342876e-01
  2.972323e+01    7.221367e-01
  2.973911e+01    7.212591e-01
  2.975498e+01    7.330000e-01
  2.977086e+01    7.419640e-01
  2.978673e+01    7.445280e-01
  2.980261e+01    7.304198e-01
  2.981848e+01    7.426207e-01
  2.983436e+01    7.453831e-01
  2.985024e+01    7.227810e-01
  2.986611e+01    7.291520e-01
  2.988199e+01    7.300274e-01
  2.989786e+01    7.336351e-01
  2.991374e+01    7.616217e-01
  2.992961e+01    7.488482e-01
  2.994549e+01    7.577186e-01
  2.996136e+01    7.581850e-01
  2.997724e+01    7.588465e-01
  2.999312e+01    7.620375e-01
  3.000899e+01    7.429770e-01
  3.002487e+01    7.615864e-01
  3.004074e+01    7.609964e-01
  3.005662e+01    7.576424e-01
  3.007249e+01    7.514467e-01
  3.008837e+01    7.382335e-01
  3.010424e+01    7.248856e-01
  3.012012e+01    7.365893e-01
  3.013600e+01    7.535850e-01
  3.015187e+01    7.533260e-01
  3.016775e+01    7.227407e-01
  3.018362e+01    7.112385e-01
  3.019950e+01    7.156751e-01
  3.021537e+01    7.289034e-01
  3.023125e+01    7.260069e-01
  3.024712e+01    7.196087e-01
  3.026300e+01    7.327799e-01
  3.027888e+01    7.247536e-01
  3.029475e+01    7.148513e-01
  3.031063e+01    7.251663e-01
  3.032650e+01    7.168822e-01
  3.034238e+01    7.257798e-01
  3.035825e+01    7.320878e-01
  3.037413e+01    7.379301e-01
  3.039000e+01    7.300776e-01
  3.040588e+01    7.191459e-01
  3.042176e+01    6.946512e-01
  3.043763e+01    7.174785e-01
  3.045351e+01    7.466009e-01
  3.046938e+01    7.278998e-01
  3.048526e+01    7.301589e-01
  3.050113e+01    7.332508e-01
  3.051701e+01    7.242021e-01
  3.053288e+01    7.504798e-01
  3.054876e+01    7.346497e-01
  3.056464e+01    7.138715e-01
  3.058051e+01    6.980501e-01
  3.059639e+01    7.103678e-01
  3.061226e+01    7.313808e-01
  3.062814e+01    7.310405e-01
  3.064401e+01    7.260288e-01
  3.065989e+01    7.255199e-01
  3.067577e+01    7.255123e-01
  3.069164e+01    7.175275e-01
  3.070752e+01    7.161133e-01
  3.072339e+01    7.263103e-01
  3.073927e+01    7.323666e-01
  3.075514e+01    7.378387e-01
  3.077102e+01    7.388850e-01
  3.078689e+01    7.318758e-01
  3.080277e+01    7.372885e-01
  3.081865e+01    7.620723e-01
  3.083452e+01    7.438093e-01
  3.085040e+01    7.386638e-01
  3.086627e+01    7.377338e-01
  3.088215e+01    7.343964e-01
  3.089802e+01    7.371597e-01
  3.091390e+01    7.294579e-01
  3.092977e+01    7.450332e-01
  3.094565e+01    7.320542e-01
  3.096153e+01    7.104775e-01
  3.097740e+01    7.266639e-01
  3.099328e+01    7.366225e-01
  3.100915e+01    7.426907e-01
  3.102503e+01    7.496294e-01
  3.104090e+01    7.570093e-01
  3.105678e+01    7.386832e-01
  3.107265e+01    7.266929e-01
  3.108853e+01    7.192925e-01
  3.110441e+01    7.180961e-01
  3.112028e+01    7.214799e-01
  3.113616e+01    7.454911e-01
  3.115203e+01    7.311926e-01
  3.116791e+01    7.527314e-01
  3.118378e+01    7.328018e-01
  3.119966e+01    7.215132e-01
  3.121553e+01    7.321036e-01
  3.123141e+01    7.316329e-01
  3.124729e+01    7.224224e-01
  3.126316e+01    7.442131e-01
  3.127904e+01    7.408541e-01
  3.129491e+01    7.538877e-01
  3.131079e+01    7.489002e-01
  3.132666e+01    7.444923e-01
  3.134254e+01    7.340932e-01
  3.135841e+01    7.456845e-01
  3.137429e+01    7.277715e-01
  3.139017e+01    7.458717e-01
  3.140604e+01    7.656105e-01
  3.142192e+01    7.542660e-01
  3.143779e+01    7.583611e-01
  3.145367e+01    7.763805e-01
  3.146954e+01    7.806588e-01
  3.148542e+01    7.547247e-01
  3.150129e+01    7.621409e-01
  3.151717e+01    7.431240e-01
  3.153305e+01    7.603867e-01
  3.154892e+01    7.751730e-01
  3.156480e+01    7.814395e-01
  3.158067e+01    8.165681e-01
  3.159655e+01    8.042973e-01
  3.161242e+01    8.392892e-01
  3.162830e+01    8.552162e-01
  3.164418e+01    8.609843e-01
  3.166005e+01    8.419227e-01
  3.167593e+01    8.681347e-01
  3.169180e+01    8.991464e-01
  3.170768e+01    9.108633e-01
  3.172355e+01    9.337625e-01
  3.173943e+01    9.651203e-01
  3.175530e+01    1.008023e+00
  3.177118e+01    1.065471e+00
  3.178706e+01    1.124922e+00
  3.180293e+01    1.170495e+00
  3.181881e+01    1.255213e+00
  3.183468e+01    1.374076e+00
  3.185056e+01    1.487810e+00
  3.186643e+01    1.645254e+00
  3.188231e+01    1.823472e+00
  3.189818e+01    2.011675e+00
  3.191406e+01    2.182040e+00
  3.192994e+01    2.331293e+00
  3.194581e+01    2.516943e+00
  3.196169e+01    2.576689e+00
  3.197756e+01    2.613799e+00
  3.199344e+01    2.541346e+00
  3.200931e+01    2.433311e+00
  3.202519e+01    2.211190e+00
  3.204106e+01    2.025026e+00
  3.205694e+01    1.803995e+00
  3.207282e+01    1.609433e+00
  3.208869e+01    1.456155e+00
  3.210457e+01    1.350922e+00
  3.212044e+01    1.235193e+00
  3.213632e+01    1.142426e+00
  3.215219e+01    1.072949e+00
  3.216807e+01    1.026244e+00
  3.218394e+01    9.668483e-01
  3.219982e+01    9.617875e-01
  3.221570e+01    9.508701e-01
  3.223157e+01    8.867875e-01
  3.224745e+01    8.673229e-01
  3.226332e+01    8.614876e-01
  3.227920e+01    8.440385e-01
  3.229507e+01    8.227537e-01
  3.231095e+01    8.102834e-01
  3.232682e+01    7.913500e-01
  3.234270e+01    7.903872e-01
  3.235858e+01    7.691544e-01
  3.237445e+01    7.878559e-01
  3.239033e+01    7.754769e-01
  3.240620e+01    7.870349e-01
  3.242208e+01    7.616003e-01
  3.243795e+01    7.378618e-01
  3.245383e+01    7.534403e-01
  3.246970e+01    7.572193e-01
  3.248558e+01    7.657678e-01
  3.250146e+01    7.674980e-01
  3.251733e+01    7.479278e-01
  3.253321e+01    7.635082e-01
  3.254908e+01    7.523022e-01
