# == pyFAI calibration ==
# Distance Sample to Detector: 0.3999999939076516 m
# PONI: 9.750e-02, 1.135e-01 m
# Rotations: -0.000175 0.000000 -0.000000 rad
# 
# == Fit2d calibration ==
# Distance Sample-beamCenter: 400.000 mm
# Center: x=1514.000, y=1300.000 pix
# Tilt: 0.010 deg  TiltPlanRot: 0.010 deg
# 
# Detector Detector	 Spline= None	 PixelSize= 7.500e-05, 7.500e-05 m
#    Detector has a mask: False 
#    Detector has a dark current: False 
#    detector has a flat field: False 
# 
# Wavelength: 6.888e-11 m
# Mask applied: user provided
# Dark current applied: False
# Flat field applied: False
# Polarization factor: 0.99
# Normalization factor: 1.0
# --> /home/myspot/data/2024_07_Rosario/Ru-CGO-ex/2024-07-27_002_Ru-CGO-ex_Activtation_ramp_000002_data_000151.dat
#       q_nm^-1             I 
  2.003187e-02    0.000000e+00
  3.590745e-02    7.159255e-02
  5.178302e-02    4.982381e-02
  6.765859e-02    0.000000e+00
  8.353417e-02    0.000000e+00
  9.940974e-02    3.441043e-02
  1.152853e-01    8.246049e-02
  1.311609e-01    6.469310e-02
  1.470365e-01    6.216580e-02
  1.629120e-01    5.142234e-02
  1.787876e-01    3.023239e-02
  1.946632e-01    6.469979e-02
  2.105388e-01    8.093559e-02
  2.264143e-01    2.426021e-02
  2.422899e-01    3.556723e-03
  2.581655e-01    2.573136e-02
  2.740411e-01    3.447911e-02
  2.899166e-01    5.038834e-02
  3.057922e-01    6.008169e-02
  3.216678e-01    4.685134e-02
  3.375433e-01    6.457707e-02
  3.534189e-01    5.517735e-02
  3.692945e-01    3.678896e-02
  3.851701e-01    5.902152e-02
  4.010456e-01    6.615544e-02
  4.169212e-01    4.703316e-02
  4.327968e-01    3.621754e-02
  4.486724e-01    4.825018e-02
  4.645479e-01    3.968972e-02
  4.804235e-01    2.797522e-02
  4.962991e-01    3.498775e-02
  5.121747e-01    4.702623e-02
  5.280502e-01    3.778790e-02
  5.439258e-01    3.698356e-02
  5.598014e-01    3.140893e-02
  5.756770e-01    3.160184e-02
  5.915525e-01    2.346888e-02
  6.074281e-01    2.856831e-02
  6.233037e-01    3.003064e-02
  6.391793e-01    1.749079e-02
  6.550548e-01    2.769273e-02
  6.709304e-01    3.398747e-02
  6.868060e-01    4.740654e-02
  7.026815e-01    3.219776e-02
  7.185571e-01    3.834978e-02
  7.344327e-01    3.521442e-02
  7.503083e-01    5.749122e-02
  7.661838e-01    8.419722e-02
  7.820594e-01    1.266177e-01
  7.979350e-01    1.696449e-01
  8.138106e-01    1.739381e-01
  8.296861e-01    2.598624e-01
  8.455617e-01    3.086042e-01
  8.614373e-01    3.438736e-01
  8.773129e-01    4.179916e-01
  8.931884e-01    4.770362e-01
  9.090640e-01    5.261705e-01
  9.249396e-01    5.898623e-01
  9.408152e-01    6.782539e-01
  9.566907e-01    8.007432e-01
  9.725663e-01    8.764806e-01
  9.884419e-01    1.028432e+00
  1.004317e+00    1.085420e+00
  1.020193e+00    1.053340e+00
  1.036069e+00    1.096153e+00
  1.051944e+00    1.198370e+00
  1.067820e+00    1.296189e+00
  1.083695e+00    1.422380e+00
  1.099571e+00    1.404929e+00
  1.115446e+00    1.377673e+00
  1.131322e+00    1.491011e+00
  1.147198e+00    1.503761e+00
  1.163073e+00    1.523425e+00
  1.178949e+00    1.505285e+00
  1.194824e+00    1.537089e+00
  1.210700e+00    1.679630e+00
  1.226575e+00    2.101767e+00
  1.242451e+00    2.202925e+00
  1.258327e+00    2.411488e+00
  1.274202e+00    2.485942e+00
  1.290078e+00    2.433671e+00
  1.305953e+00    2.447908e+00
  1.321829e+00    2.505413e+00
  1.337705e+00    2.493141e+00
  1.353580e+00    2.556393e+00
  1.369456e+00    2.489742e+00
  1.385331e+00    2.560424e+00
  1.401207e+00    2.609270e+00
  1.417082e+00    2.464950e+00
  1.432958e+00    2.697851e+00
  1.448834e+00    2.740235e+00
  1.464709e+00    2.724134e+00
  1.480585e+00    2.729374e+00
  1.496460e+00    2.784908e+00
  1.512336e+00    2.860459e+00
  1.528211e+00    2.790095e+00
  1.544087e+00    2.855000e+00
  1.559963e+00    3.000594e+00
  1.575838e+00    2.926682e+00
  1.591714e+00    2.835196e+00
  1.607589e+00    2.814668e+00
  1.623465e+00    2.885586e+00
  1.639340e+00    2.887603e+00
  1.655216e+00    2.903862e+00
  1.671092e+00    2.911519e+00
  1.686967e+00    2.900637e+00
  1.702843e+00    2.881211e+00
  1.718718e+00    2.686456e+00
  1.734594e+00    2.738733e+00
  1.750469e+00    2.787227e+00
  1.766345e+00    2.831277e+00
  1.782221e+00    2.829733e+00
  1.798096e+00    2.731578e+00
  1.813972e+00    2.752546e+00
  1.829847e+00    2.791652e+00
  1.845723e+00    2.640718e+00
  1.861598e+00    2.785468e+00
  1.877474e+00    2.782933e+00
  1.893350e+00    2.668821e+00
  1.909225e+00    2.765500e+00
  1.925101e+00    2.738986e+00
  1.940976e+00    2.648306e+00
  1.956852e+00    2.741883e+00
  1.972727e+00    2.761461e+00
  1.988603e+00    2.710331e+00
  2.004479e+00    2.718719e+00
  2.020354e+00    2.637041e+00
  2.036230e+00    2.618752e+00
  2.052105e+00    2.676066e+00
  2.067981e+00    2.757887e+00
  2.083856e+00    2.784221e+00
  2.099732e+00    2.701882e+00
  2.115608e+00    2.712220e+00
  2.131483e+00    2.668826e+00
  2.147359e+00    2.738645e+00
  2.163234e+00    2.724504e+00
  2.179110e+00    2.800862e+00
  2.194985e+00    2.882837e+00
  2.210861e+00    2.755848e+00
  2.226737e+00    2.846233e+00
  2.242612e+00    2.775590e+00
  2.258488e+00    2.733468e+00
  2.274363e+00    2.755338e+00
  2.290239e+00    2.691308e+00
  2.306115e+00    2.783613e+00
  2.321990e+00    2.791274e+00
  2.337866e+00    2.912529e+00
  2.353741e+00    2.719077e+00
  2.369617e+00    2.617471e+00
  2.385492e+00    2.715432e+00
  2.401368e+00    2.746878e+00
  2.417244e+00    2.769578e+00
  2.433119e+00    2.802495e+00
  2.448995e+00    2.764863e+00
  2.464870e+00    2.746461e+00
  2.480746e+00    2.735340e+00
  2.496621e+00    2.772157e+00
  2.512497e+00    2.830665e+00
  2.528373e+00    2.858520e+00
  2.544248e+00    2.744797e+00
  2.560124e+00    2.740515e+00
  2.575999e+00    2.781014e+00
  2.591875e+00    2.785901e+00
  2.607750e+00    2.781679e+00
  2.623626e+00    2.835371e+00
  2.639502e+00    2.860387e+00
  2.655377e+00    2.853791e+00
  2.671253e+00    2.860430e+00
  2.687128e+00    2.867581e+00
  2.703004e+00    2.692475e+00
  2.718879e+00    2.753806e+00
  2.734755e+00    2.918421e+00
  2.750631e+00    2.868493e+00
  2.766506e+00    2.865474e+00
  2.782382e+00    2.854196e+00
  2.798257e+00    2.824249e+00
  2.814133e+00    2.884395e+00
  2.830008e+00    2.827390e+00
  2.845884e+00    2.895200e+00
  2.861760e+00    2.860314e+00
  2.877635e+00    2.893681e+00
  2.893511e+00    2.797356e+00
  2.909386e+00    2.740454e+00
  2.925262e+00    2.814713e+00
  2.941137e+00    2.823860e+00
  2.957013e+00    2.830977e+00
  2.972889e+00    2.790557e+00
  2.988764e+00    2.843843e+00
  3.004640e+00    2.909742e+00
  3.020515e+00    2.888856e+00
  3.036391e+00    2.827758e+00
  3.052266e+00    2.919175e+00
  3.068142e+00    2.933051e+00
  3.084018e+00    2.800192e+00
  3.099893e+00    2.924273e+00
  3.115769e+00    3.028592e+00
  3.131644e+00    2.994784e+00
  3.147520e+00    2.941815e+00
  3.163395e+00    2.885434e+00
  3.179271e+00    2.871464e+00
  3.195147e+00    2.900879e+00
  3.211022e+00    2.961046e+00
  3.226898e+00    2.972913e+00
  3.242773e+00    3.028799e+00
  3.258649e+00    2.935922e+00
  3.274525e+00    2.902346e+00
  3.290400e+00    2.964714e+00
  3.306276e+00    2.928169e+00
  3.322151e+00    2.945600e+00
  3.338027e+00    2.930661e+00
  3.353902e+00    2.932405e+00
  3.369778e+00    2.865042e+00
  3.385654e+00    2.816015e+00
  3.401529e+00    2.845691e+00
  3.417405e+00    2.945026e+00
  3.433280e+00    2.985035e+00
  3.449156e+00    2.943465e+00
  3.465031e+00    2.944803e+00
  3.480907e+00    3.056554e+00
  3.496783e+00    3.002149e+00
  3.512658e+00    2.996430e+00
  3.528534e+00    3.031908e+00
  3.544409e+00    3.007042e+00
  3.560285e+00    3.033515e+00
  3.576160e+00    3.009151e+00
  3.592036e+00    3.041025e+00
  3.607912e+00    2.995666e+00
  3.623787e+00    3.062852e+00
  3.639663e+00    2.991349e+00
  3.655538e+00    2.973110e+00
  3.671414e+00    2.929114e+00
  3.687289e+00    2.947204e+00
  3.703165e+00    2.992294e+00
  3.719041e+00    3.050760e+00
  3.734916e+00    2.961919e+00
  3.750792e+00    2.897602e+00
  3.766667e+00    2.943580e+00
  3.782543e+00    2.976956e+00
  3.798418e+00    3.071026e+00
  3.814294e+00    3.044362e+00
  3.830170e+00    2.990166e+00
  3.846045e+00    3.067382e+00
  3.861921e+00    3.068144e+00
  3.877796e+00    3.065486e+00
  3.893672e+00    3.039251e+00
  3.909547e+00    3.047180e+00
  3.925423e+00    3.039608e+00
  3.941299e+00    2.995399e+00
  3.957174e+00    3.014498e+00
  3.973050e+00    3.098024e+00
  3.988925e+00    3.077941e+00
  4.004801e+00    3.039179e+00
  4.020676e+00    2.977223e+00
  4.036552e+00    3.045704e+00
  4.052428e+00    3.062754e+00
  4.068303e+00    3.027278e+00
  4.084179e+00    3.086202e+00
  4.100054e+00    3.066552e+00
  4.115930e+00    3.008481e+00
  4.131806e+00    2.978350e+00
  4.147681e+00    3.086526e+00
  4.163557e+00    3.016052e+00
  4.179432e+00    2.952358e+00
  4.195308e+00    3.003068e+00
  4.211183e+00    3.021321e+00
  4.227059e+00    3.030559e+00
  4.242935e+00    3.063287e+00
  4.258810e+00    2.938320e+00
  4.274686e+00    3.062250e+00
  4.290561e+00    3.094449e+00
  4.306437e+00    2.984010e+00
  4.322312e+00    3.020248e+00
  4.338188e+00    3.070202e+00
  4.354064e+00    2.979500e+00
  4.369939e+00    2.945523e+00
  4.385815e+00    3.041682e+00
  4.401690e+00    3.041871e+00
  4.417566e+00    3.087286e+00
  4.433441e+00    3.140179e+00
  4.449317e+00    3.115826e+00
  4.465193e+00    3.094828e+00
  4.481068e+00    3.102666e+00
  4.496944e+00    3.106078e+00
  4.512819e+00    3.099190e+00
  4.528695e+00    3.093629e+00
  4.544570e+00    3.112867e+00
  4.560446e+00    3.090326e+00
  4.576322e+00    3.136299e+00
  4.592197e+00    3.133153e+00
  4.608073e+00    3.084144e+00
  4.623948e+00    3.021467e+00
  4.639824e+00    3.122936e+00
  4.655699e+00    3.111700e+00
  4.671575e+00    3.015314e+00
  4.687451e+00    3.149258e+00
  4.703326e+00    3.147855e+00
  4.719202e+00    3.141087e+00
  4.735077e+00    3.089735e+00
  4.750953e+00    3.113781e+00
  4.766828e+00    3.111351e+00
  4.782704e+00    3.124624e+00
  4.798580e+00    3.122879e+00
  4.814455e+00    3.069260e+00
  4.830331e+00    3.143433e+00
  4.846206e+00    3.147441e+00
  4.862082e+00    3.171567e+00
  4.877957e+00    3.163932e+00
  4.893833e+00    3.165577e+00
  4.909709e+00    3.126640e+00
  4.925584e+00    3.172182e+00
  4.941460e+00    3.177235e+00
  4.957335e+00    3.115111e+00
  4.973211e+00    3.150987e+00
  4.989086e+00    3.085924e+00
  5.004962e+00    3.118360e+00
  5.020838e+00    3.127468e+00
  5.036713e+00    3.116219e+00
  5.052589e+00    3.038297e+00
  5.068464e+00    3.099825e+00
  5.084340e+00    3.090234e+00
  5.100216e+00    3.044245e+00
  5.116091e+00    3.128268e+00
  5.131967e+00    3.149409e+00
  5.147842e+00    3.126728e+00
  5.163718e+00    3.091244e+00
  5.179593e+00    3.078536e+00
  5.195469e+00    3.099072e+00
  5.211345e+00    3.124049e+00
  5.227220e+00    3.172783e+00
  5.243096e+00    3.158003e+00
  5.258971e+00    3.071513e+00
  5.274847e+00    3.087717e+00
  5.290722e+00    3.120198e+00
  5.306598e+00    3.153980e+00
  5.322474e+00    3.182172e+00
  5.338349e+00    3.213223e+00
  5.354225e+00    3.204614e+00
  5.370100e+00    3.184191e+00
  5.385976e+00    3.128989e+00
  5.401851e+00    3.198328e+00
  5.417727e+00    3.231515e+00
  5.433603e+00    3.147898e+00
  5.449478e+00    3.170303e+00
  5.465354e+00    3.187641e+00
  5.481229e+00    3.098052e+00
  5.497105e+00    3.110935e+00
  5.512980e+00    3.073444e+00
  5.528856e+00    3.161094e+00
  5.544732e+00    3.130260e+00
  5.560607e+00    3.060791e+00
  5.576483e+00    3.123152e+00
  5.592358e+00    3.103069e+00
  5.608234e+00    3.112992e+00
  5.624109e+00    3.099938e+00
  5.639985e+00    3.138991e+00
  5.655861e+00    3.139888e+00
  5.671736e+00    3.102924e+00
  5.687612e+00    3.074072e+00
  5.703487e+00    3.076418e+00
  5.719363e+00    3.066494e+00
  5.735238e+00    3.075111e+00
  5.751114e+00    3.098055e+00
  5.766990e+00    3.097824e+00
  5.782865e+00    3.032588e+00
  5.798741e+00    3.071671e+00
  5.814616e+00    3.082450e+00
  5.830492e+00    3.085276e+00
  5.846367e+00    3.004538e+00
  5.862243e+00    2.977831e+00
  5.878119e+00    2.980574e+00
  5.893994e+00    3.030746e+00
  5.909870e+00    3.044000e+00
  5.925745e+00    3.054864e+00
  5.941621e+00    3.032444e+00
  5.957497e+00    3.052884e+00
  5.973372e+00    3.069552e+00
  5.989248e+00    3.049652e+00
  6.005123e+00    3.074306e+00
  6.020999e+00    3.050514e+00
  6.036874e+00    3.057318e+00
  6.052750e+00    3.006253e+00
  6.068626e+00    3.025970e+00
  6.084501e+00    3.118800e+00
  6.100377e+00    3.142649e+00
  6.116252e+00    3.094732e+00
  6.132128e+00    3.142317e+00
  6.148003e+00    3.123934e+00
  6.163879e+00    3.117851e+00
  6.179755e+00    3.092957e+00
  6.195630e+00    3.148772e+00
  6.211506e+00    3.124824e+00
  6.227381e+00    3.108907e+00
  6.243257e+00    3.101042e+00
  6.259132e+00    3.116968e+00
  6.275008e+00    3.084103e+00
  6.290884e+00    3.101706e+00
  6.306759e+00    3.081666e+00
  6.322635e+00    3.044251e+00
  6.338510e+00    3.037997e+00
  6.354386e+00    3.077164e+00
  6.370261e+00    3.063528e+00
  6.386137e+00    3.078822e+00
  6.402013e+00    3.029637e+00
  6.417888e+00    3.082754e+00
  6.433764e+00    3.152218e+00
  6.449639e+00    3.112202e+00
  6.465515e+00    3.168410e+00
  6.481390e+00    3.194902e+00
  6.497266e+00    3.113432e+00
  6.513142e+00    3.139252e+00
  6.529017e+00    3.167382e+00
  6.544893e+00    3.105399e+00
  6.560768e+00    3.100480e+00
  6.576644e+00    3.075510e+00
  6.592519e+00    3.069270e+00
  6.608395e+00    3.027287e+00
  6.624271e+00    3.040046e+00
  6.640146e+00    2.983236e+00
  6.656022e+00    3.016887e+00
  6.671897e+00    3.076297e+00
  6.687773e+00    3.086607e+00
  6.703648e+00    3.063296e+00
  6.719524e+00    3.037060e+00
  6.735400e+00    2.983054e+00
  6.751275e+00    3.040717e+00
  6.767151e+00    3.031056e+00
  6.783026e+00    3.038307e+00
  6.798902e+00    3.054137e+00
  6.814777e+00    3.095914e+00
  6.830653e+00    3.159909e+00
  6.846529e+00    3.083111e+00
  6.862404e+00    3.122612e+00
  6.878280e+00    3.118654e+00
  6.894155e+00    3.002822e+00
  6.910031e+00    3.016892e+00
  6.925907e+00    3.025750e+00
  6.941782e+00    3.005499e+00
  6.957658e+00    3.063789e+00
  6.973533e+00    3.026536e+00
  6.989409e+00    3.096080e+00
  7.005284e+00    3.091017e+00
  7.021160e+00    3.018778e+00
  7.037036e+00    3.010309e+00
  7.052911e+00    3.030695e+00
  7.068787e+00    3.037619e+00
  7.084662e+00    3.062958e+00
  7.100538e+00    3.012708e+00
  7.116413e+00    3.006692e+00
  7.132289e+00    2.998549e+00
  7.148165e+00    3.049276e+00
  7.164040e+00    3.009649e+00
  7.179916e+00    2.991170e+00
  7.195791e+00    3.038342e+00
  7.211667e+00    3.057294e+00
  7.227542e+00    2.980162e+00
  7.243418e+00    2.977398e+00
  7.259294e+00    3.016022e+00
  7.275169e+00    3.008487e+00
  7.291045e+00    3.017774e+00
  7.306920e+00    3.037157e+00
  7.322796e+00    2.997316e+00
  7.338671e+00    2.969087e+00
  7.354547e+00    3.036177e+00
  7.370423e+00    2.957435e+00
  7.386298e+00    2.980664e+00
  7.402174e+00    3.011685e+00
  7.418049e+00    2.998975e+00
  7.433925e+00    2.995282e+00
  7.449800e+00    2.981419e+00
  7.465676e+00    3.005700e+00
  7.481552e+00    3.000329e+00
  7.497427e+00    2.972995e+00
  7.513303e+00    2.999666e+00
  7.529178e+00    2.976172e+00
  7.545054e+00    2.950644e+00
  7.560929e+00    2.960090e+00
  7.576805e+00    2.962650e+00
  7.592681e+00    2.971067e+00
  7.608556e+00    3.006304e+00
  7.624432e+00    2.957393e+00
  7.640307e+00    3.021883e+00
  7.656183e+00    3.004594e+00
  7.672058e+00    3.026400e+00
  7.687934e+00    2.988956e+00
  7.703810e+00    2.982120e+00
  7.719685e+00    2.966048e+00
  7.735561e+00    2.969391e+00
  7.751436e+00    2.928380e+00
  7.767312e+00    2.947196e+00
  7.783187e+00    2.990792e+00
  7.799063e+00    2.977941e+00
  7.814939e+00    3.018518e+00
  7.830814e+00    2.953206e+00
  7.846690e+00    2.880449e+00
  7.862565e+00    2.923572e+00
  7.878441e+00    2.919730e+00
  7.894317e+00    2.900264e+00
  7.910192e+00    3.003481e+00
  7.926068e+00    2.973285e+00
  7.941943e+00    2.986916e+00
  7.957819e+00    2.992688e+00
  7.973694e+00    2.962507e+00
  7.989570e+00    2.902963e+00
  8.005446e+00    2.907805e+00
  8.021321e+00    2.952265e+00
  8.037197e+00    2.911710e+00
  8.053072e+00    2.888258e+00
  8.068948e+00    2.936407e+00
  8.084823e+00    2.929324e+00
  8.100699e+00    2.899288e+00
  8.116575e+00    2.944810e+00
  8.132450e+00    2.966521e+00
  8.148326e+00    3.001199e+00
  8.164201e+00    3.031596e+00
  8.180077e+00    3.013321e+00
  8.195952e+00    2.974468e+00
  8.211828e+00    2.957270e+00
  8.227704e+00    2.904762e+00
  8.243579e+00    2.922780e+00
  8.259455e+00    2.982172e+00
  8.275330e+00    2.953216e+00
  8.291206e+00    2.932502e+00
  8.307081e+00    2.946793e+00
  8.322957e+00    2.951807e+00
  8.338833e+00    2.888023e+00
  8.354708e+00    2.904134e+00
  8.370584e+00    2.972663e+00
  8.386459e+00    2.918214e+00
  8.402335e+00    2.898431e+00
  8.418210e+00    2.923923e+00
  8.434086e+00    2.918256e+00
  8.449962e+00    2.901747e+00
  8.465837e+00    2.880313e+00
  8.481713e+00    2.849837e+00
  8.497588e+00    2.857122e+00
  8.513464e+00    2.857089e+00
  8.529339e+00    2.912962e+00
  8.545215e+00    2.946246e+00
  8.561091e+00    2.940202e+00
  8.576966e+00    2.908358e+00
  8.592842e+00    2.899544e+00
  8.608717e+00    2.915194e+00
  8.624593e+00    2.902635e+00
  8.640468e+00    2.908771e+00
  8.656344e+00    2.883540e+00
  8.672220e+00    2.938564e+00
  8.688095e+00    2.879388e+00
  8.703971e+00    2.851711e+00
  8.719846e+00    2.875219e+00
  8.735722e+00    2.827490e+00
  8.751598e+00    2.862718e+00
  8.767473e+00    2.854928e+00
  8.783349e+00    2.831485e+00
  8.799224e+00    2.893746e+00
  8.815100e+00    2.844104e+00
  8.830975e+00    2.759455e+00
  8.846851e+00    2.827434e+00
  8.862727e+00    2.849601e+00
  8.878602e+00    2.851072e+00
  8.894478e+00    2.863981e+00
  8.910353e+00    2.875982e+00
  8.926229e+00    2.857661e+00
  8.942104e+00    2.854423e+00
  8.957980e+00    2.845909e+00
  8.973856e+00    2.871142e+00
  8.989731e+00    2.834080e+00
  9.005607e+00    2.826616e+00
  9.021482e+00    2.799565e+00
  9.037358e+00    2.771855e+00
  9.053233e+00    2.808891e+00
  9.069109e+00    2.814617e+00
  9.084985e+00    2.823279e+00
  9.100860e+00    2.841811e+00
  9.116736e+00    2.826289e+00
  9.132611e+00    2.821663e+00
  9.148487e+00    2.824959e+00
  9.164362e+00    2.802145e+00
  9.180238e+00    2.767932e+00
  9.196114e+00    2.782855e+00
  9.211989e+00    2.739976e+00
  9.227865e+00    2.741915e+00
  9.243740e+00    2.733889e+00
  9.259616e+00    2.750050e+00
  9.275491e+00    2.805914e+00
  9.291367e+00    2.829933e+00
  9.307243e+00    2.792109e+00
  9.323118e+00    2.773766e+00
  9.338994e+00    2.771625e+00
  9.354869e+00    2.792866e+00
  9.370745e+00    2.767601e+00
  9.386620e+00    2.759281e+00
  9.402496e+00    2.753388e+00
  9.418372e+00    2.764911e+00
  9.434247e+00    2.790519e+00
  9.450123e+00    2.765109e+00
  9.465998e+00    2.782327e+00
  9.481874e+00    2.879087e+00
  9.497749e+00    2.824772e+00
  9.513625e+00    2.835980e+00
  9.529501e+00    2.784976e+00
  9.545376e+00    2.791762e+00
  9.561252e+00    2.800500e+00
  9.577127e+00    2.780324e+00
  9.593003e+00    2.790272e+00
  9.608878e+00    2.738274e+00
  9.624754e+00    2.698197e+00
  9.640630e+00    2.748035e+00
  9.656505e+00    2.764009e+00
  9.672381e+00    2.785940e+00
  9.688256e+00    2.743021e+00
  9.704132e+00    2.756876e+00
  9.720008e+00    2.721643e+00
  9.735883e+00    2.719666e+00
  9.751759e+00    2.742084e+00
  9.767634e+00    2.704807e+00
  9.783510e+00    2.716788e+00
  9.799385e+00    2.721967e+00
  9.815261e+00    2.772649e+00
  9.831137e+00    2.793272e+00
  9.847012e+00    2.719973e+00
  9.862888e+00    2.764498e+00
  9.878763e+00    2.742109e+00
  9.894639e+00    2.726174e+00
  9.910514e+00    2.694301e+00
  9.926390e+00    2.693316e+00
  9.942266e+00    2.717440e+00
  9.958141e+00    2.739977e+00
  9.974017e+00    2.692052e+00
  9.989892e+00    2.730877e+00
  1.000577e+01    2.722002e+00
  1.002164e+01    2.717266e+00
  1.003752e+01    2.686690e+00
  1.005339e+01    2.713849e+00
  1.006927e+01    2.709958e+00
  1.008515e+01    2.676603e+00
  1.010102e+01    2.684742e+00
  1.011690e+01    2.649414e+00
  1.013277e+01    2.638553e+00
  1.014865e+01    2.686767e+00
  1.016452e+01    2.666256e+00
  1.018040e+01    2.651008e+00
  1.019627e+01    2.648585e+00
  1.021215e+01    2.621924e+00
  1.022803e+01    2.611830e+00
  1.024390e+01    2.621464e+00
  1.025978e+01    2.678789e+00
  1.027565e+01    2.649009e+00
  1.029153e+01    2.676862e+00
  1.030740e+01    2.635213e+00
  1.032328e+01    2.598186e+00
  1.033915e+01    2.665618e+00
  1.035503e+01    2.657192e+00
  1.037091e+01    2.621695e+00
  1.038678e+01    2.603988e+00
  1.040266e+01    2.617180e+00
  1.041853e+01    2.602003e+00
  1.043441e+01    2.616821e+00
  1.045028e+01    2.619876e+00
  1.046616e+01    2.643438e+00
  1.048204e+01    2.620764e+00
  1.049791e+01    2.604336e+00
  1.051379e+01    2.598409e+00
  1.052966e+01    2.536984e+00
  1.054554e+01    2.560122e+00
  1.056141e+01    2.571687e+00
  1.057729e+01    2.581378e+00
  1.059316e+01    2.555764e+00
  1.060904e+01    2.599286e+00
  1.062492e+01    2.602678e+00
  1.064079e+01    2.645351e+00
  1.065667e+01    2.639012e+00
  1.067254e+01    2.640416e+00
  1.068842e+01    2.635172e+00
  1.070429e+01    2.554429e+00
  1.072017e+01    2.554089e+00
  1.073604e+01    2.624577e+00
  1.075192e+01    2.599046e+00
  1.076780e+01    2.586299e+00
  1.078367e+01    2.561807e+00
  1.079955e+01    2.582345e+00
  1.081542e+01    2.570333e+00
  1.083130e+01    2.548145e+00
  1.084717e+01    2.554574e+00
  1.086305e+01    2.596238e+00
  1.087892e+01    2.522635e+00
  1.089480e+01    2.548493e+00
  1.091068e+01    2.560329e+00
  1.092655e+01    2.492141e+00
  1.094243e+01    2.578489e+00
  1.095830e+01    2.582355e+00
  1.097418e+01    2.495898e+00
  1.099005e+01    2.456811e+00
  1.100593e+01    2.491161e+00
  1.102180e+01    2.507087e+00
  1.103768e+01    2.476423e+00
  1.105356e+01    2.443347e+00
  1.106943e+01    2.492085e+00
  1.108531e+01    2.539473e+00
  1.110118e+01    2.503952e+00
  1.111706e+01    2.517899e+00
  1.113293e+01    2.492390e+00
  1.114881e+01    2.459948e+00
  1.116468e+01    2.470879e+00
  1.118056e+01    2.480315e+00
  1.119644e+01    2.464843e+00
  1.121231e+01    2.461915e+00
  1.122819e+01    2.483126e+00
  1.124406e+01    2.468970e+00
  1.125994e+01    2.462214e+00
  1.127581e+01    2.441472e+00
  1.129169e+01    2.456674e+00
  1.130756e+01    2.464933e+00
  1.132344e+01    2.466643e+00
  1.133932e+01    2.471318e+00
  1.135519e+01    2.475417e+00
  1.137107e+01    2.406778e+00
  1.138694e+01    2.413459e+00
  1.140282e+01    2.466905e+00
  1.141869e+01    2.445757e+00
  1.143457e+01    2.370603e+00
  1.145045e+01    2.443101e+00
  1.146632e+01    2.438283e+00
  1.148220e+01    2.432709e+00
  1.149807e+01    2.407228e+00
  1.151395e+01    2.478319e+00
  1.152982e+01    2.390764e+00
  1.154570e+01    2.394440e+00
  1.156157e+01    2.431859e+00
  1.157745e+01    2.400024e+00
  1.159333e+01    2.366732e+00
  1.160920e+01    2.397219e+00
  1.162508e+01    2.412831e+00
  1.164095e+01    2.396362e+00
  1.165683e+01    2.409177e+00
  1.167270e+01    2.432691e+00
  1.168858e+01    2.319502e+00
  1.170445e+01    2.384219e+00
  1.172033e+01    2.431321e+00
  1.173621e+01    2.396479e+00
  1.175208e+01    2.386832e+00
  1.176796e+01    2.337868e+00
  1.178383e+01    2.358032e+00
  1.179971e+01    2.346250e+00
  1.181558e+01    2.333238e+00
  1.183146e+01    2.363862e+00
  1.184733e+01    2.366240e+00
  1.186321e+01    2.334652e+00
  1.187909e+01    2.350006e+00
  1.189496e+01    2.330858e+00
  1.191084e+01    2.344777e+00
  1.192671e+01    2.347561e+00
  1.194259e+01    2.353730e+00
  1.195846e+01    2.351703e+00
  1.197434e+01    2.338492e+00
  1.199021e+01    2.404712e+00
  1.200609e+01    2.349989e+00
  1.202197e+01    2.330524e+00
  1.203784e+01    2.372175e+00
  1.205372e+01    2.358490e+00
  1.206959e+01    2.297503e+00
  1.208547e+01    2.280369e+00
  1.210134e+01    2.392876e+00
  1.211722e+01    2.416749e+00
  1.213309e+01    2.382686e+00
  1.214897e+01    2.322162e+00
  1.216485e+01    2.328767e+00
  1.218072e+01    2.303248e+00
  1.219660e+01    2.355078e+00
  1.221247e+01    2.337034e+00
  1.222835e+01    2.314382e+00
  1.224422e+01    2.322334e+00
  1.226010e+01    2.348706e+00
  1.227597e+01    2.327117e+00
  1.229185e+01    2.317855e+00
  1.230773e+01    2.311655e+00
  1.232360e+01    2.336459e+00
  1.233948e+01    2.356516e+00
  1.235535e+01    2.374360e+00
  1.237123e+01    2.308619e+00
  1.238710e+01    2.351589e+00
  1.240298e+01    2.369190e+00
  1.241886e+01    2.352178e+00
  1.243473e+01    2.365798e+00
  1.245061e+01    2.345795e+00
  1.246648e+01    2.338665e+00
  1.248236e+01    2.356582e+00
  1.249823e+01    2.354001e+00
  1.251411e+01    2.348712e+00
  1.252998e+01    2.344039e+00
  1.254586e+01    2.390225e+00
  1.256174e+01    2.359209e+00
  1.257761e+01    2.368366e+00
  1.259349e+01    2.408705e+00
  1.260936e+01    2.402737e+00
  1.262524e+01    2.401800e+00
  1.264111e+01    2.417639e+00
  1.265699e+01    2.399640e+00
  1.267286e+01    2.514200e+00
  1.268874e+01    2.528713e+00
  1.270462e+01    2.514441e+00
  1.272049e+01    2.507820e+00
  1.273637e+01    2.563632e+00
  1.275224e+01    2.602188e+00
  1.276812e+01    2.569410e+00
  1.278399e+01    2.635219e+00
  1.279987e+01    2.668622e+00
  1.281574e+01    2.734381e+00
  1.283162e+01    2.788796e+00
  1.284750e+01    2.834248e+00
  1.286337e+01    2.925612e+00
  1.287925e+01    3.038255e+00
  1.289512e+01    3.199764e+00
  1.291100e+01    3.352268e+00
  1.292687e+01    3.571828e+00
  1.294275e+01    3.840688e+00
  1.295862e+01    4.132829e+00
  1.297450e+01    4.461569e+00
  1.299038e+01    4.879057e+00
  1.300625e+01    5.500538e+00
  1.302213e+01    6.366857e+00
  1.303800e+01    7.340269e+00
  1.305388e+01    8.459121e+00
  1.306975e+01    9.718190e+00
  1.308563e+01    1.103997e+01
  1.310150e+01    1.226918e+01
  1.311738e+01    1.355523e+01
  1.313326e+01    1.468774e+01
  1.314913e+01    1.569898e+01
  1.316501e+01    1.654473e+01
  1.318088e+01    1.685826e+01
  1.319676e+01    1.629844e+01
  1.321263e+01    1.492816e+01
  1.322851e+01    1.313815e+01
  1.324438e+01    1.112279e+01
  1.326026e+01    9.433859e+00
  1.327614e+01    7.998723e+00
  1.329201e+01    6.763723e+00
  1.330789e+01    5.864707e+00
  1.332376e+01    5.185547e+00
  1.333964e+01    4.653497e+00
  1.335551e+01    4.261532e+00
  1.337139e+01    3.932785e+00
  1.338727e+01    3.647134e+00
  1.340314e+01    3.394800e+00
  1.341902e+01    3.266192e+00
  1.343489e+01    3.126687e+00
  1.345077e+01    2.962937e+00
  1.346664e+01    2.851851e+00
  1.348252e+01    2.703822e+00
  1.349839e+01    2.668095e+00
  1.351427e+01    2.624206e+00
  1.353015e+01    2.554527e+00
  1.354602e+01    2.520340e+00
  1.356190e+01    2.484107e+00
  1.357777e+01    2.419781e+00
  1.359365e+01    2.355046e+00
  1.360952e+01    2.350818e+00
  1.362540e+01    2.341851e+00
  1.364127e+01    2.302292e+00
  1.365715e+01    2.324745e+00
  1.367303e+01    2.303062e+00
  1.368890e+01    2.274814e+00
  1.370478e+01    2.261254e+00
  1.372065e+01    2.195048e+00
  1.373653e+01    2.177515e+00
  1.375240e+01    2.141286e+00
  1.376828e+01    2.152070e+00
  1.378415e+01    2.167982e+00
  1.380003e+01    2.183957e+00
  1.381591e+01    2.157889e+00
  1.383178e+01    2.141432e+00
  1.384766e+01    2.135995e+00
  1.386353e+01    2.124478e+00
  1.387941e+01    2.154902e+00
  1.389528e+01    2.121360e+00
  1.391116e+01    2.091435e+00
  1.392703e+01    2.094998e+00
  1.394291e+01    2.077621e+00
  1.395879e+01    2.083096e+00
  1.397466e+01    2.038507e+00
  1.399054e+01    2.054972e+00
  1.400641e+01    2.082300e+00
  1.402229e+01    2.120389e+00
  1.403816e+01    2.092063e+00
  1.405404e+01    2.033468e+00
  1.406991e+01    2.044227e+00
  1.408579e+01    2.061857e+00
  1.410167e+01    2.034695e+00
  1.411754e+01    1.987017e+00
  1.413342e+01    1.974976e+00
  1.414929e+01    2.013287e+00
  1.416517e+01    2.021506e+00
  1.418104e+01    2.029918e+00
  1.419692e+01    2.029557e+00
  1.421279e+01    2.017319e+00
  1.422867e+01    2.015629e+00
  1.424455e+01    1.989977e+00
  1.426042e+01    1.984536e+00
  1.427630e+01    1.999542e+00
  1.429217e+01    2.011888e+00
  1.430805e+01    2.007600e+00
  1.432392e+01    1.975436e+00
  1.433980e+01    1.967955e+00
  1.435568e+01    1.984064e+00
  1.437155e+01    1.969967e+00
  1.438743e+01    1.925181e+00
  1.440330e+01    1.936958e+00
  1.441918e+01    1.919335e+00
  1.443505e+01    1.964459e+00
  1.445093e+01    1.965183e+00
  1.446680e+01    1.960176e+00
  1.448268e+01    1.971744e+00
  1.449856e+01    1.979407e+00
  1.451443e+01    1.988979e+00
  1.453031e+01    1.993555e+00
  1.454618e+01    1.960838e+00
  1.456206e+01    1.972708e+00
  1.457793e+01    1.953244e+00
  1.459381e+01    1.948135e+00
  1.460968e+01    1.955554e+00
  1.462556e+01    1.942064e+00
  1.464144e+01    1.907484e+00
  1.465731e+01    1.933972e+00
  1.467319e+01    1.929292e+00
  1.468906e+01    1.941814e+00
  1.470494e+01    1.940736e+00
  1.472081e+01    1.955060e+00
  1.473669e+01    1.953612e+00
  1.475256e+01    1.906456e+00
  1.476844e+01    1.906738e+00
  1.478432e+01    1.925470e+00
  1.480019e+01    1.910635e+00
  1.481607e+01    1.932512e+00
  1.483194e+01    1.900273e+00
  1.484782e+01    1.916243e+00
  1.486369e+01    1.946333e+00
  1.487957e+01    1.956067e+00
  1.489544e+01    1.968991e+00
  1.491132e+01    1.964124e+00
  1.492720e+01    1.991701e+00
  1.494307e+01    2.031879e+00
  1.495895e+01    2.073771e+00
  1.497482e+01    2.108685e+00
  1.499070e+01    2.135956e+00
  1.500657e+01    2.164225e+00
  1.502245e+01    2.259513e+00
  1.503832e+01    2.322036e+00
  1.505420e+01    2.451359e+00
  1.507008e+01    2.543245e+00
  1.508595e+01    2.688052e+00
  1.510183e+01    2.945367e+00
  1.511770e+01    3.195862e+00
  1.513358e+01    3.517762e+00
  1.514945e+01    3.850275e+00
  1.516533e+01    4.225527e+00
  1.518120e+01    4.625862e+00
  1.519708e+01    4.929970e+00
  1.521296e+01    5.236489e+00
  1.522883e+01    5.429538e+00
  1.524471e+01    5.600486e+00
  1.526058e+01    5.764986e+00
  1.527646e+01    5.719563e+00
  1.529233e+01    5.510031e+00
  1.530821e+01    5.175321e+00
  1.532409e+01    4.661298e+00
  1.533996e+01    4.124886e+00
  1.535584e+01    3.676137e+00
  1.537171e+01    3.236475e+00
  1.538759e+01    2.936548e+00
  1.540346e+01    2.706135e+00
  1.541934e+01    2.570662e+00
  1.543521e+01    2.444340e+00
  1.545109e+01    2.276746e+00
  1.546697e+01    2.182277e+00
  1.548284e+01    2.113744e+00
  1.549872e+01    2.063373e+00
  1.551459e+01    1.992168e+00
  1.553047e+01    1.949766e+00
  1.554634e+01    1.934515e+00
  1.556222e+01    1.892202e+00
  1.557809e+01    1.862708e+00
  1.559397e+01    1.832139e+00
  1.560985e+01    1.804423e+00
  1.562572e+01    1.812834e+00
  1.564160e+01    1.840744e+00
  1.565747e+01    1.817534e+00
  1.567335e+01    1.776198e+00
  1.568922e+01    1.703802e+00
  1.570510e+01    1.721281e+00
  1.572097e+01    1.722255e+00
  1.573685e+01    1.698934e+00
  1.575273e+01    1.723374e+00
  1.576860e+01    1.723884e+00
  1.578448e+01    1.687562e+00
  1.580035e+01    1.688776e+00
  1.581623e+01    1.733331e+00
  1.583210e+01    1.720451e+00
  1.584798e+01    1.653003e+00
  1.586385e+01    1.681245e+00
  1.587973e+01    1.677042e+00
  1.589561e+01    1.637547e+00
  1.591148e+01    1.651828e+00
  1.592736e+01    1.658736e+00
  1.594323e+01    1.637950e+00
  1.595911e+01    1.641364e+00
  1.597498e+01    1.625692e+00
  1.599086e+01    1.613982e+00
  1.600673e+01    1.594430e+00
  1.602261e+01    1.614926e+00
  1.603849e+01    1.623589e+00
  1.605436e+01    1.602303e+00
  1.607024e+01    1.620318e+00
  1.608611e+01    1.632912e+00
  1.610199e+01    1.614280e+00
  1.611786e+01    1.585550e+00
  1.613374e+01    1.575312e+00
  1.614961e+01    1.593526e+00
  1.616549e+01    1.568344e+00
  1.618137e+01    1.572339e+00
  1.619724e+01    1.598250e+00
  1.621312e+01    1.613306e+00
  1.622899e+01    1.600550e+00
  1.624487e+01    1.555009e+00
  1.626074e+01    1.565256e+00
  1.627662e+01    1.591688e+00
  1.629250e+01    1.554208e+00
  1.630837e+01    1.576299e+00
  1.632425e+01    1.551121e+00
  1.634012e+01    1.542303e+00
  1.635600e+01    1.546553e+00
  1.637187e+01    1.541425e+00
  1.638775e+01    1.514752e+00
  1.640362e+01    1.535268e+00
  1.641950e+01    1.552556e+00
  1.643538e+01    1.510413e+00
  1.645125e+01    1.492304e+00
  1.646713e+01    1.528026e+00
  1.648300e+01    1.535852e+00
  1.649888e+01    1.517343e+00
  1.651475e+01    1.509869e+00
  1.653063e+01    1.524130e+00
  1.654650e+01    1.543293e+00
  1.656238e+01    1.537160e+00
  1.657826e+01    1.534932e+00
  1.659413e+01    1.531588e+00
  1.661001e+01    1.505616e+00
  1.662588e+01    1.483845e+00
  1.664176e+01    1.484374e+00
  1.665763e+01    1.492180e+00
  1.667351e+01    1.500598e+00
  1.668938e+01    1.501333e+00
  1.670526e+01    1.487139e+00
  1.672114e+01    1.494377e+00
  1.673701e+01    1.495448e+00
  1.675289e+01    1.486689e+00
  1.676876e+01    1.478773e+00
  1.678464e+01    1.458257e+00
  1.680051e+01    1.481956e+00
  1.681639e+01    1.493300e+00
  1.683226e+01    1.479195e+00
  1.684814e+01    1.471293e+00
  1.686402e+01    1.475856e+00
  1.687989e+01    1.473321e+00
  1.689577e+01    1.481422e+00
  1.691164e+01    1.467321e+00
  1.692752e+01    1.458718e+00
  1.694339e+01    1.446412e+00
  1.695927e+01    1.466998e+00
  1.697514e+01    1.447074e+00
  1.699102e+01    1.444927e+00
  1.700690e+01    1.444927e+00
  1.702277e+01    1.458404e+00
  1.703865e+01    1.460541e+00
  1.705452e+01    1.440858e+00
  1.707040e+01    1.424980e+00
  1.708627e+01    1.446360e+00
  1.710215e+01    1.432836e+00
  1.711802e+01    1.424477e+00
  1.713390e+01    1.431237e+00
  1.714978e+01    1.406402e+00
  1.716565e+01    1.423153e+00
  1.718153e+01    1.419806e+00
  1.719740e+01    1.419825e+00
  1.721328e+01    1.396936e+00
  1.722915e+01    1.439619e+00
  1.724503e+01    1.431178e+00
  1.726091e+01    1.394905e+00
  1.727678e+01    1.372931e+00
  1.729266e+01    1.393854e+00
  1.730853e+01    1.406988e+00
  1.732441e+01    1.408404e+00
  1.734028e+01    1.411397e+00
  1.735616e+01    1.409165e+00
  1.737203e+01    1.400647e+00
  1.738791e+01    1.376103e+00
  1.740379e+01    1.390889e+00
  1.741966e+01    1.379500e+00
  1.743554e+01    1.380360e+00
  1.745141e+01    1.373327e+00
  1.746729e+01    1.356227e+00
  1.748316e+01    1.384384e+00
  1.749904e+01    1.405879e+00
  1.751491e+01    1.385610e+00
  1.753079e+01    1.371959e+00
  1.754667e+01    1.349234e+00
  1.756254e+01    1.368380e+00
  1.757842e+01    1.382671e+00
  1.759429e+01    1.386268e+00
  1.761017e+01    1.357596e+00
  1.762604e+01    1.361870e+00
  1.764192e+01    1.375972e+00
  1.765779e+01    1.378445e+00
  1.767367e+01    1.373351e+00
  1.768955e+01    1.373752e+00
  1.770542e+01    1.347862e+00
  1.772130e+01    1.337212e+00
  1.773717e+01    1.359487e+00
  1.775305e+01    1.331318e+00
  1.776892e+01    1.339355e+00
  1.778480e+01    1.346842e+00
  1.780067e+01    1.354905e+00
  1.781655e+01    1.358904e+00
  1.783243e+01    1.308487e+00
  1.784830e+01    1.309661e+00
  1.786418e+01    1.334696e+00
  1.788005e+01    1.324155e+00
  1.789593e+01    1.304647e+00
  1.791180e+01    1.307445e+00
  1.792768e+01    1.333102e+00
  1.794355e+01    1.338519e+00
  1.795943e+01    1.289993e+00
  1.797531e+01    1.295795e+00
  1.799118e+01    1.290318e+00
  1.800706e+01    1.293511e+00
  1.802293e+01    1.294303e+00
  1.803881e+01    1.296118e+00
  1.805468e+01    1.321997e+00
  1.807056e+01    1.325290e+00
  1.808643e+01    1.337175e+00
  1.810231e+01    1.322423e+00
  1.811819e+01    1.309506e+00
  1.813406e+01    1.279514e+00
  1.814994e+01    1.317537e+00
  1.816581e+01    1.303485e+00
  1.818169e+01    1.285741e+00
  1.819756e+01    1.298612e+00
  1.821344e+01    1.283792e+00
  1.822932e+01    1.312438e+00
  1.824519e+01    1.307526e+00
  1.826107e+01    1.298656e+00
  1.827694e+01    1.283641e+00
  1.829282e+01    1.272040e+00
  1.830869e+01    1.278703e+00
  1.832457e+01    1.289407e+00
  1.834044e+01    1.295608e+00
  1.835632e+01    1.255403e+00
  1.837220e+01    1.269679e+00
  1.838807e+01    1.267266e+00
  1.840395e+01    1.249918e+00
  1.841982e+01    1.256354e+00
  1.843570e+01    1.267320e+00
  1.845157e+01    1.249189e+00
  1.846745e+01    1.279624e+00
  1.848332e+01    1.264068e+00
  1.849920e+01    1.243975e+00
  1.851508e+01    1.258995e+00
  1.853095e+01    1.244652e+00
  1.854683e+01    1.243471e+00
  1.856270e+01    1.241144e+00
  1.857858e+01    1.258390e+00
  1.859445e+01    1.269757e+00
  1.861033e+01    1.244282e+00
  1.862620e+01    1.255805e+00
  1.864208e+01    1.236347e+00
  1.865796e+01    1.237681e+00
  1.867383e+01    1.242681e+00
  1.868971e+01    1.246963e+00
  1.870558e+01    1.258490e+00
  1.872146e+01    1.252371e+00
  1.873733e+01    1.260336e+00
  1.875321e+01    1.275110e+00
  1.876908e+01    1.231921e+00
  1.878496e+01    1.196952e+00
  1.880084e+01    1.209444e+00
  1.881671e+01    1.243084e+00
  1.883259e+01    1.202381e+00
  1.884846e+01    1.192972e+00
  1.886434e+01    1.196938e+00
  1.888021e+01    1.216058e+00
  1.889609e+01    1.193860e+00
  1.891196e+01    1.227988e+00
  1.892784e+01    1.221597e+00
  1.894372e+01    1.216776e+00
  1.895959e+01    1.226090e+00
  1.897547e+01    1.227414e+00
  1.899134e+01    1.203785e+00
  1.900722e+01    1.213848e+00
  1.902309e+01    1.226497e+00
  1.903897e+01    1.210831e+00
  1.905484e+01    1.216571e+00
  1.907072e+01    1.227054e+00
  1.908660e+01    1.232110e+00
  1.910247e+01    1.220007e+00
  1.911835e+01    1.200744e+00
  1.913422e+01    1.194153e+00
  1.915010e+01    1.190028e+00
  1.916597e+01    1.195803e+00
  1.918185e+01    1.209985e+00
  1.919773e+01    1.190429e+00
  1.921360e+01    1.167859e+00
  1.922948e+01    1.198665e+00
  1.924535e+01    1.208367e+00
  1.926123e+01    1.198794e+00
  1.927710e+01    1.186126e+00
  1.929298e+01    1.192274e+00
  1.930885e+01    1.187997e+00
  1.932473e+01    1.202782e+00
  1.934061e+01    1.190861e+00
  1.935648e+01    1.192052e+00
  1.937236e+01    1.189930e+00
  1.938823e+01    1.177604e+00
  1.940411e+01    1.183889e+00
  1.941998e+01    1.172678e+00
  1.943586e+01    1.174232e+00
  1.945173e+01    1.173656e+00
  1.946761e+01    1.156907e+00
  1.948349e+01    1.151305e+00
  1.949936e+01    1.144867e+00
  1.951524e+01    1.172393e+00
  1.953111e+01    1.178012e+00
  1.954699e+01    1.153296e+00
  1.956286e+01    1.148638e+00
  1.957874e+01    1.161514e+00
  1.959461e+01    1.156382e+00
  1.961049e+01    1.159640e+00
  1.962637e+01    1.133179e+00
  1.964224e+01    1.119547e+00
  1.965812e+01    1.138717e+00
  1.967399e+01    1.153899e+00
  1.968987e+01    1.153149e+00
  1.970574e+01    1.151385e+00
  1.972162e+01    1.150852e+00
  1.973749e+01    1.159487e+00
  1.975337e+01    1.132662e+00
  1.976925e+01    1.121230e+00
  1.978512e+01    1.124747e+00
  1.980100e+01    1.135586e+00
  1.981687e+01    1.152255e+00
  1.983275e+01    1.155050e+00
  1.984862e+01    1.149114e+00
  1.986450e+01    1.136840e+00
  1.988037e+01    1.144690e+00
  1.989625e+01    1.121755e+00
  1.991213e+01    1.130210e+00
  1.992800e+01    1.145031e+00
  1.994388e+01    1.112229e+00
  1.995975e+01    1.101383e+00
  1.997563e+01    1.147853e+00
  1.999150e+01    1.132847e+00
  2.000738e+01    1.116325e+00
  2.002325e+01    1.132568e+00
  2.003913e+01    1.122935e+00
  2.005501e+01    1.140193e+00
  2.007088e+01    1.138730e+00
  2.008676e+01    1.128717e+00
  2.010263e+01    1.138727e+00
  2.011851e+01    1.119178e+00
  2.013438e+01    1.119024e+00
  2.015026e+01    1.132137e+00
  2.016614e+01    1.117236e+00
  2.018201e+01    1.109493e+00
  2.019789e+01    1.101262e+00
  2.021376e+01    1.094963e+00
  2.022964e+01    1.105709e+00
  2.024551e+01    1.112796e+00
  2.026139e+01    1.131451e+00
  2.027726e+01    1.105907e+00
  2.029314e+01    1.115613e+00
  2.030902e+01    1.094803e+00
  2.032489e+01    1.109459e+00
  2.034077e+01    1.074205e+00
  2.035664e+01    1.094288e+00
  2.037252e+01    1.094257e+00
  2.038839e+01    1.068494e+00
  2.040427e+01    1.082564e+00
  2.042014e+01    1.115248e+00
  2.043602e+01    1.098941e+00
  2.045190e+01    1.089750e+00
  2.046777e+01    1.076193e+00
  2.048365e+01    1.092882e+00
  2.049952e+01    1.088040e+00
  2.051540e+01    1.084206e+00
  2.053127e+01    1.077136e+00
  2.054715e+01    1.091908e+00
  2.056302e+01    1.110912e+00
  2.057890e+01    1.093780e+00
  2.059478e+01    1.083547e+00
  2.061065e+01    1.096546e+00
  2.062653e+01    1.078229e+00
  2.064240e+01    1.099393e+00
  2.065828e+01    1.101421e+00
  2.067415e+01    1.090639e+00
  2.069003e+01    1.086971e+00
  2.070590e+01    1.094122e+00
  2.072178e+01    1.096888e+00
  2.073766e+01    1.067612e+00
  2.075353e+01    1.075437e+00
  2.076941e+01    1.061498e+00
  2.078528e+01    1.087283e+00
  2.080116e+01    1.085146e+00
  2.081703e+01    1.079551e+00
  2.083291e+01    1.087656e+00
  2.084878e+01    1.081080e+00
  2.086466e+01    1.080952e+00
  2.088054e+01    1.068437e+00
  2.089641e+01    1.052103e+00
  2.091229e+01    1.077910e+00
  2.092816e+01    1.078362e+00
  2.094404e+01    1.098058e+00
  2.095991e+01    1.088112e+00
  2.097579e+01    1.077286e+00
  2.099166e+01    1.090370e+00
  2.100754e+01    1.094425e+00
  2.102342e+01    1.088343e+00
  2.103929e+01    1.081831e+00
  2.105517e+01    1.098488e+00
  2.107104e+01    1.086467e+00
  2.108692e+01    1.080753e+00
  2.110279e+01    1.070428e+00
  2.111867e+01    1.063539e+00
  2.113455e+01    1.085530e+00
  2.115042e+01    1.079244e+00
  2.116630e+01    1.065510e+00
  2.118217e+01    1.079189e+00
  2.119805e+01    1.080084e+00
  2.121392e+01    1.107850e+00
  2.122980e+01    1.131127e+00
  2.124567e+01    1.109393e+00
  2.126155e+01    1.122855e+00
  2.127743e+01    1.125224e+00
  2.129330e+01    1.125472e+00
  2.130918e+01    1.136039e+00
  2.132505e+01    1.123937e+00
  2.134093e+01    1.148918e+00
  2.135680e+01    1.153131e+00
  2.137268e+01    1.167602e+00
  2.138855e+01    1.171495e+00
  2.140443e+01    1.188552e+00
  2.142031e+01    1.186483e+00
  2.143618e+01    1.177289e+00
  2.145206e+01    1.203064e+00
  2.146793e+01    1.230382e+00
  2.148381e+01    1.245011e+00
  2.149968e+01    1.265513e+00
  2.151556e+01    1.310995e+00
  2.153143e+01    1.359217e+00
  2.154731e+01    1.434777e+00
  2.156319e+01    1.436395e+00
  2.157906e+01    1.486994e+00
  2.159494e+01    1.559172e+00
  2.161081e+01    1.635512e+00
  2.162669e+01    1.711486e+00
  2.164256e+01    1.816111e+00
  2.165844e+01    1.956617e+00
  2.167431e+01    2.142879e+00
  2.169019e+01    2.366903e+00
  2.170607e+01    2.614087e+00
  2.172194e+01    2.945426e+00
  2.173782e+01    3.362654e+00
  2.175369e+01    3.773508e+00
  2.176957e+01    4.366568e+00
  2.178544e+01    4.986427e+00
  2.180132e+01    5.658635e+00
  2.181719e+01    6.303534e+00
  2.183307e+01    7.039972e+00
  2.184895e+01    7.762483e+00
  2.186482e+01    8.347515e+00
  2.188070e+01    8.862163e+00
  2.189657e+01    9.246592e+00
  2.191245e+01    9.172637e+00
  2.192832e+01    8.778402e+00
  2.194420e+01    7.960013e+00
  2.196007e+01    6.893842e+00
  2.197595e+01    5.871734e+00
  2.199183e+01    5.022426e+00
  2.200770e+01    4.214795e+00
  2.202358e+01    3.610160e+00
  2.203945e+01    3.157283e+00
  2.205533e+01    2.783010e+00
  2.207120e+01    2.493613e+00
  2.208708e+01    2.255577e+00
  2.210296e+01    2.063542e+00
  2.211883e+01    1.894153e+00
  2.213471e+01    1.760373e+00
  2.215058e+01    1.657732e+00
  2.216646e+01    1.601474e+00
  2.218233e+01    1.512872e+00
  2.219821e+01    1.427369e+00
  2.221408e+01    1.384241e+00
  2.222996e+01    1.359918e+00
  2.224584e+01    1.313936e+00
  2.226171e+01    1.233692e+00
  2.227759e+01    1.207939e+00
  2.229346e+01    1.186088e+00
  2.230934e+01    1.199172e+00
  2.232521e+01    1.188436e+00
  2.234109e+01    1.140508e+00
  2.235696e+01    1.117129e+00
  2.237284e+01    1.107090e+00
  2.238872e+01    1.095008e+00
  2.240459e+01    1.094949e+00
  2.242047e+01    1.077705e+00
  2.243634e+01    1.059841e+00
  2.245222e+01    1.062254e+00
  2.246809e+01    1.047762e+00
  2.248397e+01    1.021565e+00
  2.249984e+01    1.035824e+00
  2.251572e+01    1.025060e+00
  2.253160e+01    1.006601e+00
  2.254747e+01    1.005944e+00
  2.256335e+01    1.001252e+00
  2.257922e+01    1.001916e+00
  2.259510e+01    9.987070e-01
  2.261097e+01    9.967175e-01
  2.262685e+01    9.807036e-01
  2.264272e+01    9.792559e-01
  2.265860e+01    9.601130e-01
  2.267448e+01    9.876565e-01
  2.269035e+01    9.692045e-01
  2.270623e+01    9.605179e-01
  2.272210e+01    9.701170e-01
  2.273798e+01    9.390618e-01
  2.275385e+01    9.465656e-01
  2.276973e+01    9.393491e-01
  2.278560e+01    9.331194e-01
  2.280148e+01    9.384024e-01
  2.281736e+01    9.465997e-01
  2.283323e+01    9.399377e-01
  2.284911e+01    9.213775e-01
  2.286498e+01    9.033951e-01
  2.288086e+01    9.146274e-01
  2.289673e+01    9.229469e-01
  2.291261e+01    9.168960e-01
  2.292848e+01    9.239356e-01
  2.294436e+01    9.135474e-01
  2.296024e+01    9.080373e-01
  2.297611e+01    9.194984e-01
  2.299199e+01    9.089965e-01
  2.300786e+01    9.160892e-01
  2.302374e+01    8.947296e-01
  2.303961e+01    8.863845e-01
  2.305549e+01    8.996933e-01
  2.307137e+01    9.096754e-01
  2.308724e+01    8.920437e-01
  2.310312e+01    9.123169e-01
  2.311899e+01    9.003563e-01
  2.313487e+01    9.064277e-01
  2.315074e+01    9.134784e-01
  2.316662e+01    8.861052e-01
  2.318249e+01    8.777920e-01
  2.319837e+01    8.897985e-01
  2.321425e+01    8.955857e-01
  2.323012e+01    9.088773e-01
  2.324600e+01    8.906101e-01
  2.326187e+01    8.799706e-01
  2.327775e+01    8.732608e-01
  2.329362e+01    8.428822e-01
  2.330950e+01    8.626319e-01
  2.332537e+01    8.718821e-01
  2.334125e+01    8.536114e-01
  2.335713e+01    8.487751e-01
  2.337300e+01    8.488308e-01
  2.338888e+01    8.634605e-01
  2.340475e+01    8.525029e-01
  2.342063e+01    8.545787e-01
  2.343650e+01    8.747777e-01
  2.345238e+01    8.712367e-01
  2.346825e+01    8.678193e-01
  2.348413e+01    8.452012e-01
  2.350001e+01    8.561631e-01
  2.351588e+01    8.677658e-01
  2.353176e+01    8.732289e-01
  2.354763e+01    8.832933e-01
  2.356351e+01    8.486027e-01
  2.357938e+01    8.288647e-01
  2.359526e+01    8.467599e-01
  2.361113e+01    8.697497e-01
  2.362701e+01    8.510966e-01
  2.364289e+01    8.473979e-01
  2.365876e+01    8.414798e-01
  2.367464e+01    8.489439e-01
  2.369051e+01    8.425142e-01
  2.370639e+01    8.392050e-01
  2.372226e+01    8.153620e-01
  2.373814e+01    8.293808e-01
  2.375401e+01    8.375707e-01
  2.376989e+01    8.272564e-01
  2.378577e+01    8.037989e-01
  2.380164e+01    8.231977e-01
  2.381752e+01    8.308710e-01
  2.383339e+01    8.218015e-01
  2.384927e+01    8.232728e-01
  2.386514e+01    7.979912e-01
  2.388102e+01    8.029366e-01
  2.389689e+01    8.147262e-01
  2.391277e+01    8.359235e-01
  2.392865e+01    8.255543e-01
  2.394452e+01    7.940880e-01
  2.396040e+01    7.814455e-01
  2.397627e+01    7.885482e-01
  2.399215e+01    8.012935e-01
  2.400802e+01    7.924961e-01
  2.402390e+01    7.928982e-01
  2.403978e+01    7.819009e-01
  2.405565e+01    7.679737e-01
  2.407153e+01    7.849564e-01
  2.408740e+01    7.889414e-01
  2.410328e+01    7.821469e-01
  2.411915e+01    7.964731e-01
  2.413503e+01    8.161510e-01
  2.415090e+01    7.965475e-01
  2.416678e+01    8.034985e-01
  2.418266e+01    7.921349e-01
  2.419853e+01    7.850124e-01
  2.421441e+01    7.937841e-01
  2.423028e+01    7.868454e-01
  2.424616e+01    7.796873e-01
  2.426203e+01    7.664967e-01
  2.427791e+01    7.790743e-01
  2.429378e+01    7.853029e-01
  2.430966e+01    8.048144e-01
  2.432554e+01    8.081005e-01
  2.434141e+01    7.813601e-01
  2.435729e+01    7.837947e-01
  2.437316e+01    7.755882e-01
  2.438904e+01    7.813280e-01
  2.440491e+01    7.926347e-01
  2.442079e+01    8.087753e-01
  2.443666e+01    8.112874e-01
  2.445254e+01    7.977112e-01
  2.446842e+01    8.158756e-01
  2.448429e+01    7.949221e-01
  2.450017e+01    7.880377e-01
  2.451604e+01    8.109232e-01
  2.453192e+01    8.050506e-01
  2.454779e+01    7.957449e-01
  2.456367e+01    7.938289e-01
  2.457954e+01    7.864543e-01
  2.459542e+01    8.051337e-01
  2.461130e+01    7.791844e-01
  2.462717e+01    7.940902e-01
  2.464305e+01    7.942008e-01
  2.465892e+01    7.753427e-01
  2.467480e+01    7.774502e-01
  2.469067e+01    8.149189e-01
  2.470655e+01    8.023556e-01
  2.472242e+01    7.847058e-01
  2.473830e+01    7.811301e-01
  2.475418e+01    7.852589e-01
  2.477005e+01    7.855780e-01
  2.478593e+01    8.024613e-01
  2.480180e+01    8.126269e-01
  2.481768e+01    7.983956e-01
  2.483355e+01    8.034838e-01
  2.484943e+01    7.996841e-01
  2.486530e+01    8.026106e-01
  2.488118e+01    8.060821e-01
  2.489706e+01    7.850999e-01
  2.491293e+01    8.048273e-01
  2.492881e+01    7.944231e-01
  2.494468e+01    7.846677e-01
  2.496056e+01    8.062442e-01
  2.497643e+01    8.266256e-01
  2.499231e+01    8.204398e-01
  2.500819e+01    8.180550e-01
  2.502406e+01    8.069767e-01
  2.503994e+01    7.776626e-01
  2.505581e+01    7.892348e-01
  2.507169e+01    8.111215e-01
  2.508756e+01    8.184077e-01
  2.510344e+01    8.206797e-01
  2.511931e+01    8.208236e-01
  2.513519e+01    8.311512e-01
  2.515107e+01    8.312350e-01
  2.516694e+01    8.267260e-01
  2.518282e+01    8.261163e-01
  2.519869e+01    8.367888e-01
  2.521457e+01    8.251058e-01
  2.523044e+01    8.308166e-01
  2.524632e+01    8.621902e-01
  2.526219e+01    8.616621e-01
  2.527807e+01    8.669184e-01
  2.529395e+01    8.879948e-01
  2.530982e+01    8.918835e-01
  2.532570e+01    8.675336e-01
  2.534157e+01    8.619913e-01
  2.535745e+01    8.946574e-01
  2.537332e+01    8.976073e-01
  2.538920e+01    8.883640e-01
  2.540507e+01    9.114578e-01
  2.542095e+01    9.267306e-01
  2.543683e+01    9.445961e-01
  2.545270e+01    9.445327e-01
  2.546858e+01    9.484766e-01
  2.548445e+01    9.676559e-01
  2.550033e+01    9.792798e-01
  2.551620e+01    9.932801e-01
  2.553208e+01    1.019692e+00
  2.554795e+01    1.033559e+00
  2.556383e+01    1.047688e+00
  2.557971e+01    1.080451e+00
  2.559558e+01    1.095012e+00
  2.561146e+01    1.126811e+00
  2.562733e+01    1.179072e+00
  2.564321e+01    1.240467e+00
  2.565908e+01    1.303578e+00
  2.567496e+01    1.342550e+00
  2.569083e+01    1.409687e+00
  2.570671e+01    1.510993e+00
  2.572259e+01    1.634646e+00
  2.573846e+01    1.762415e+00
  2.575434e+01    1.911810e+00
  2.577021e+01    2.141500e+00
  2.578609e+01    2.423225e+00
  2.580196e+01    2.692812e+00
  2.581784e+01    3.042620e+00
  2.583371e+01    3.463233e+00
  2.584959e+01    4.046569e+00
  2.586547e+01    4.569442e+00
  2.588134e+01    5.184825e+00
  2.589722e+01    5.781068e+00
  2.591309e+01    6.364224e+00
  2.592897e+01    6.938456e+00
  2.594484e+01    7.338264e+00
  2.596072e+01    7.509279e+00
  2.597660e+01    7.469885e+00
  2.599247e+01    7.097957e+00
  2.600835e+01    6.441447e+00
  2.602422e+01    5.715963e+00
  2.604010e+01    5.001443e+00
  2.605597e+01    4.325866e+00
  2.607185e+01    3.642041e+00
  2.608772e+01    3.142438e+00
  2.610360e+01    2.730182e+00
  2.611948e+01    2.389439e+00
  2.613535e+01    2.134165e+00
  2.615123e+01    1.969389e+00
  2.616710e+01    1.783807e+00
  2.618298e+01    1.646918e+00
  2.619885e+01    1.550497e+00
  2.621473e+01    1.421849e+00
  2.623060e+01    1.331045e+00
  2.624648e+01    1.291511e+00
  2.626236e+01    1.220090e+00
  2.627823e+01    1.171394e+00
  2.629411e+01    1.159738e+00
  2.630998e+01    1.125730e+00
  2.632586e+01    1.079151e+00
  2.634173e+01    1.075688e+00
  2.635761e+01    1.041537e+00
  2.637348e+01    1.022742e+00
  2.638936e+01    9.860989e-01
  2.640524e+01    9.678242e-01
  2.642111e+01    9.714046e-01
  2.643699e+01    9.341800e-01
  2.645286e+01    9.478654e-01
  2.646874e+01    9.518385e-01
  2.648461e+01    9.326196e-01
  2.650049e+01    9.389703e-01
  2.651636e+01    9.146964e-01
  2.653224e+01    9.258902e-01
  2.654812e+01    9.192841e-01
  2.656399e+01    9.322065e-01
  2.657987e+01    9.131311e-01
  2.659574e+01    9.155445e-01
  2.661162e+01    9.096674e-01
  2.662749e+01    8.890653e-01
  2.664337e+01    9.059955e-01
  2.665924e+01    8.898090e-01
  2.667512e+01    8.820068e-01
  2.669100e+01    8.883260e-01
  2.670687e+01    8.982012e-01
  2.672275e+01    8.792424e-01
  2.673862e+01    8.674586e-01
  2.675450e+01    8.858551e-01
  2.677037e+01    8.681222e-01
  2.678625e+01    8.936938e-01
  2.680212e+01    8.840615e-01
  2.681800e+01    8.945949e-01
  2.683388e+01    8.954672e-01
  2.684975e+01    9.142882e-01
  2.686563e+01    9.149103e-01
  2.688150e+01    9.148188e-01
  2.689738e+01    9.314064e-01
  2.691325e+01    9.362690e-01
  2.692913e+01    9.055535e-01
  2.694501e+01    9.203104e-01
  2.696088e+01    9.470433e-01
  2.697676e+01    9.794341e-01
  2.699263e+01    1.019249e+00
  2.700851e+01    1.037163e+00
  2.702438e+01    1.078393e+00
  2.704026e+01    1.135599e+00
  2.705613e+01    1.191370e+00
  2.707201e+01    1.250301e+00
  2.708789e+01    1.311245e+00
  2.710376e+01    1.388707e+00
  2.711964e+01    1.505967e+00
  2.713551e+01    1.653821e+00
  2.715139e+01    1.751864e+00
  2.716726e+01    1.927502e+00
  2.718314e+01    2.066872e+00
  2.719901e+01    2.170711e+00
  2.721489e+01    2.205876e+00
  2.723077e+01    2.242366e+00
  2.724664e+01    2.205310e+00
  2.726252e+01    2.091359e+00
  2.727839e+01    1.904285e+00
  2.729427e+01    1.735265e+00
  2.731014e+01    1.613575e+00
  2.732602e+01    1.454059e+00
  2.734189e+01    1.336488e+00
  2.735777e+01    1.263199e+00
  2.737365e+01    1.178464e+00
  2.738952e+01    1.104196e+00
  2.740540e+01    1.055595e+00
  2.742127e+01    1.025803e+00
  2.743715e+01    1.004060e+00
  2.745302e+01    9.726474e-01
  2.746890e+01    9.282489e-01
  2.748477e+01    8.961076e-01
  2.750065e+01    9.005356e-01
  2.751653e+01    8.893893e-01
  2.753240e+01    8.854309e-01
  2.754828e+01    8.946921e-01
  2.756415e+01    8.760868e-01
  2.758003e+01    8.790994e-01
  2.759590e+01    8.897601e-01
  2.761178e+01    8.689645e-01
  2.762765e+01    8.691178e-01
  2.764353e+01    8.685296e-01
  2.765941e+01    8.450759e-01
  2.767528e+01    8.460328e-01
  2.769116e+01    8.362671e-01
  2.770703e+01    8.161004e-01
  2.772291e+01    8.001006e-01
  2.773878e+01    8.013863e-01
  2.775466e+01    8.147558e-01
  2.777054e+01    7.960085e-01
  2.778641e+01    8.142931e-01
  2.780229e+01    8.172556e-01
  2.781816e+01    8.008690e-01
  2.783404e+01    7.917658e-01
  2.784991e+01    8.083284e-01
  2.786579e+01    8.037782e-01
  2.788166e+01    8.207866e-01
  2.789754e+01    8.212199e-01
  2.791342e+01    8.124087e-01
  2.792929e+01    7.995547e-01
  2.794517e+01    8.172996e-01
  2.796104e+01    8.187979e-01
  2.797692e+01    7.840684e-01
  2.799279e+01    7.878786e-01
  2.800867e+01    8.094485e-01
  2.802454e+01    8.044471e-01
  2.804042e+01    8.151018e-01
  2.805630e+01    7.979620e-01
  2.807217e+01    7.920699e-01
  2.808805e+01    7.667221e-01
  2.810392e+01    7.845636e-01
  2.811980e+01    7.644667e-01
  2.813567e+01    7.540330e-01
  2.815155e+01    7.488428e-01
  2.816742e+01    7.680708e-01
  2.818330e+01    7.860290e-01
  2.819918e+01    7.717943e-01
  2.821505e+01    7.764130e-01
  2.823093e+01    7.929621e-01
  2.824680e+01    7.890366e-01
  2.826268e+01    7.460006e-01
  2.827855e+01    7.695072e-01
  2.829443e+01    7.765067e-01
  2.831030e+01    7.617024e-01
  2.832618e+01    7.688113e-01
  2.834206e+01    7.554036e-01
  2.835793e+01    7.492959e-01
  2.837381e+01    7.564563e-01
  2.838968e+01    7.640244e-01
  2.840556e+01    7.643104e-01
  2.842143e+01    7.751685e-01
  2.843731e+01    7.595549e-01
  2.845318e+01    7.633960e-01
  2.846906e+01    7.786760e-01
  2.848494e+01    7.690616e-01
  2.850081e+01    7.576838e-01
  2.851669e+01    7.440683e-01
  2.853256e+01    7.618331e-01
  2.854844e+01    7.828486e-01
  2.856431e+01    7.869425e-01
  2.858019e+01    7.733024e-01
  2.859606e+01    7.461785e-01
  2.861194e+01    7.743940e-01
  2.862782e+01    7.695971e-01
  2.864369e+01    7.585299e-01
  2.865957e+01    7.776994e-01
  2.867544e+01    7.642378e-01
  2.869132e+01    7.555324e-01
  2.870719e+01    7.418427e-01
  2.872307e+01    7.601883e-01
  2.873895e+01    7.474111e-01
  2.875482e+01    7.585623e-01
  2.877070e+01    7.406306e-01
  2.878657e+01    7.256321e-01
  2.880245e+01    7.609466e-01
  2.881832e+01    7.754286e-01
  2.883420e+01    7.421481e-01
  2.885007e+01    7.251632e-01
  2.886595e+01    7.398747e-01
  2.888183e+01    7.575466e-01
  2.889770e+01    7.421362e-01
  2.891358e+01    7.382728e-01
  2.892945e+01    7.386935e-01
  2.894533e+01    7.335283e-01
  2.896120e+01    7.444511e-01
  2.897708e+01    7.451360e-01
  2.899295e+01    7.447429e-01
  2.900883e+01    7.320805e-01
  2.902471e+01    7.265650e-01
  2.904058e+01    7.437835e-01
  2.905646e+01    7.317210e-01
  2.907233e+01    7.248664e-01
  2.908821e+01    7.438076e-01
  2.910408e+01    7.235195e-01
  2.911996e+01    7.402746e-01
  2.913583e+01    7.515004e-01
  2.915171e+01    7.455882e-01
  2.916759e+01    7.466642e-01
  2.918346e+01    7.381262e-01
  2.919934e+01    7.324317e-01
  2.921521e+01    7.152521e-01
  2.923109e+01    7.100634e-01
  2.924696e+01    7.326251e-01
  2.926284e+01    7.259995e-01
  2.927871e+01    7.283648e-01
  2.929459e+01    7.259371e-01
  2.931047e+01    7.309349e-01
  2.932634e+01    7.505478e-01
  2.934222e+01    7.370781e-01
  2.935809e+01    7.242622e-01
  2.937397e+01    7.231147e-01
  2.938984e+01    7.399105e-01
  2.940572e+01    7.298431e-01
  2.942159e+01    7.311906e-01
  2.943747e+01    7.310553e-01
  2.945335e+01    7.288482e-01
  2.946922e+01    7.400239e-01
  2.948510e+01    7.171509e-01
  2.950097e+01    7.259149e-01
  2.951685e+01    7.457078e-01
  2.953272e+01    7.224267e-01
  2.954860e+01    7.444515e-01
  2.956447e+01    7.361364e-01
  2.958035e+01    7.324632e-01
  2.959623e+01    7.165394e-01
  2.961210e+01    7.178468e-01
  2.962798e+01    7.250087e-01
  2.964385e+01    7.113113e-01
  2.965973e+01    7.126011e-01
  2.967560e+01    7.296430e-01
  2.969148e+01    7.161770e-01
  2.970736e+01    7.046360e-01
  2.972323e+01    7.290482e-01
  2.973911e+01    7.329379e-01
  2.975498e+01    7.097492e-01
  2.977086e+01    7.144270e-01
  2.978673e+01    6.966577e-01
  2.980261e+01    7.073119e-01
  2.981848e+01    7.086715e-01
  2.983436e+01    7.279703e-01
  2.985024e+01    7.352259e-01
  2.986611e+01    7.316062e-01
  2.988199e+01    7.133383e-01
  2.989786e+01    7.120160e-01
  2.991374e+01    7.165117e-01
  2.992961e+01    7.383151e-01
  2.994549e+01    7.245393e-01
  2.996136e+01    7.428777e-01
  2.997724e+01    7.404367e-01
  2.999312e+01    7.385482e-01
  3.000899e+01    7.344698e-01
  3.002487e+01    7.302913e-01
  3.004074e+01    7.290400e-01
  3.005662e+01    7.342877e-01
  3.007249e+01    7.397355e-01
  3.008837e+01    7.320236e-01
  3.010424e+01    7.136450e-01
  3.012012e+01    7.208252e-01
  3.013600e+01    7.384685e-01
  3.015187e+01    7.290785e-01
  3.016775e+01    7.233722e-01
  3.018362e+01    7.166803e-01
  3.019950e+01    7.245078e-01
  3.021537e+01    7.130582e-01
  3.023125e+01    7.233529e-01
  3.024712e+01    7.183266e-01
  3.026300e+01    7.126188e-01
  3.027888e+01    7.039164e-01
  3.029475e+01    7.150548e-01
  3.031063e+01    7.394089e-01
  3.032650e+01    7.461925e-01
  3.034238e+01    7.076836e-01
  3.035825e+01    7.065165e-01
  3.037413e+01    7.104442e-01
  3.039000e+01    7.232322e-01
  3.040588e+01    6.938935e-01
  3.042176e+01    6.983095e-01
  3.043763e+01    7.093467e-01
  3.045351e+01    7.345640e-01
  3.046938e+01    7.337584e-01
  3.048526e+01    7.294921e-01
  3.050113e+01    6.883789e-01
  3.051701e+01    6.989695e-01
  3.053288e+01    7.157627e-01
  3.054876e+01    7.216796e-01
  3.056464e+01    7.223681e-01
  3.058051e+01    7.016166e-01
  3.059639e+01    7.248638e-01
  3.061226e+01    7.252617e-01
  3.062814e+01    7.168537e-01
  3.064401e+01    6.904584e-01
  3.065989e+01    6.901652e-01
  3.067577e+01    7.121878e-01
  3.069164e+01    7.098629e-01
  3.070752e+01    6.991392e-01
  3.072339e+01    6.998509e-01
  3.073927e+01    7.363618e-01
  3.075514e+01    7.245525e-01
  3.077102e+01    6.992528e-01
  3.078689e+01    7.302758e-01
  3.080277e+01    7.261830e-01
  3.081865e+01    7.244938e-01
  3.083452e+01    7.212893e-01
  3.085040e+01    7.189254e-01
  3.086627e+01    7.108070e-01
  3.088215e+01    7.121751e-01
  3.089802e+01    7.287316e-01
  3.091390e+01    7.014366e-01
  3.092977e+01    7.238472e-01
  3.094565e+01    7.119396e-01
  3.096153e+01    7.134892e-01
  3.097740e+01    7.229866e-01
  3.099328e+01    6.936814e-01
  3.100915e+01    7.344726e-01
  3.102503e+01    7.199858e-01
  3.104090e+01    6.909795e-01
  3.105678e+01    7.087428e-01
  3.107265e+01    7.165700e-01
  3.108853e+01    7.185469e-01
  3.110441e+01    7.255903e-01
  3.112028e+01    7.233204e-01
  3.113616e+01    7.301465e-01
  3.115203e+01    7.088009e-01
  3.116791e+01    6.984267e-01
  3.118378e+01    7.248882e-01
  3.119966e+01    7.248600e-01
  3.121553e+01    7.306333e-01
  3.123141e+01    7.400984e-01
  3.124729e+01    7.297356e-01
  3.126316e+01    7.306418e-01
  3.127904e+01    7.345963e-01
  3.129491e+01    7.426090e-01
  3.131079e+01    7.459425e-01
  3.132666e+01    7.396786e-01
  3.134254e+01    7.403014e-01
  3.135841e+01    7.365711e-01
  3.137429e+01    7.421622e-01
  3.139017e+01    7.650152e-01
  3.140604e+01    7.447755e-01
  3.142192e+01    7.541559e-01
  3.143779e+01    7.501371e-01
  3.145367e+01    7.657568e-01
  3.146954e+01    7.723961e-01
  3.148542e+01    7.666883e-01
  3.150129e+01    7.553951e-01
  3.151717e+01    7.470096e-01
  3.153305e+01    7.739732e-01
  3.154892e+01    7.928037e-01
  3.156480e+01    7.964090e-01
  3.158067e+01    8.050297e-01
  3.159655e+01    8.095471e-01
  3.161242e+01    8.071021e-01
  3.162830e+01    8.541864e-01
  3.164418e+01    8.663616e-01
  3.166005e+01    8.767939e-01
  3.167593e+01    8.945312e-01
  3.169180e+01    9.429548e-01
  3.170768e+01    9.598925e-01
  3.172355e+01    1.006724e+00
  3.173943e+01    1.092555e+00
  3.175530e+01    1.155174e+00
  3.177118e+01    1.242385e+00
  3.178706e+01    1.338117e+00
  3.180293e+01    1.435472e+00
  3.181881e+01    1.556754e+00
  3.183468e+01    1.714302e+00
  3.185056e+01    1.871363e+00
  3.186643e+01    1.995556e+00
  3.188231e+01    2.121570e+00
  3.189818e+01    2.199492e+00
  3.191406e+01    2.179630e+00
  3.192994e+01    2.131328e+00
  3.194581e+01    2.059611e+00
  3.196169e+01    1.947733e+00
  3.197756e+01    1.787972e+00
  3.199344e+01    1.620310e+00
  3.200931e+01    1.498672e+00
  3.202519e+01    1.351140e+00
  3.204106e+01    1.242636e+00
  3.205694e+01    1.132963e+00
  3.207282e+01    1.049097e+00
  3.208869e+01    1.021610e+00
  3.210457e+01    9.779428e-01
  3.212044e+01    9.350892e-01
  3.213632e+01    9.147682e-01
  3.215219e+01    8.597893e-01
  3.216807e+01    8.484632e-01
  3.218394e+01    8.159647e-01
  3.219982e+01    8.144564e-01
  3.221570e+01    8.146386e-01
  3.223157e+01    7.809823e-01
  3.224745e+01    7.803337e-01
  3.226332e+01    7.840737e-01
  3.227920e+01    7.870668e-01
  3.229507e+01    7.773886e-01
  3.231095e+01    7.454001e-01
  3.232682e+01    7.458079e-01
  3.234270e+01    7.404813e-01
  3.235858e+01    7.599187e-01
  3.237445e+01    7.503941e-01
  3.239033e+01    7.388237e-01
  3.240620e+01    7.455997e-01
  3.242208e+01    7.431037e-01
  3.243795e+01    7.306433e-01
  3.245383e+01    7.164881e-01
  3.246970e+01    7.236523e-01
  3.248558e+01    7.274091e-01
  3.250146e+01    7.425398e-01
  3.251733e+01    7.190216e-01
  3.253321e+01    7.327712e-01
  3.254908e+01    7.311196e-01
