# == pyFAI calibration ==
# Distance Sample to Detector: 0.3999999939076516 m
# PONI: 9.750e-02, 1.135e-01 m
# Rotations: -0.000175 0.000000 -0.000000 rad
# 
# == Fit2d calibration ==
# Distance Sample-beamCenter: 400.000 mm
# Center: x=1514.000, y=1300.000 pix
# Tilt: 0.010 deg  TiltPlanRot: 0.010 deg
# 
# Detector Detector	 Spline= None	 PixelSize= 7.500e-05, 7.500e-05 m
#    Detector has a mask: False 
#    Detector has a dark current: False 
#    detector has a flat field: False 
# 
# Wavelength: 6.888e-11 m
# Mask applied: user provided
# Dark current applied: False
# Flat field applied: False
# Polarization factor: 0.99
# Normalization factor: 1.0
# --> /home/myspot/data/2024_07_Rosario/Ru-CGO-ex/2024-07-27_002_Ru-CGO-ex_Activtation_ramp_000002_data_000099.dat
#       q_nm^-1             I 
  2.003187e-02    0.000000e+00
  3.590745e-02    0.000000e+00
  5.178302e-02    4.717196e-02
  6.765859e-02    1.692472e-01
  8.353417e-02    2.123272e-01
  9.940974e-02    2.568292e-01
  1.152853e-01    4.820895e-02
  1.311609e-01    4.306189e-02
  1.470365e-01    9.635212e-02
  1.629120e-01    2.390991e-02
  1.787876e-01    1.675887e-02
  1.946632e-01    1.948545e-02
  2.105388e-01    7.027114e-03
  2.264143e-01    3.255566e-02
  2.422899e-01    4.695839e-02
  2.581655e-01    2.085333e-02
  2.740411e-01    1.791357e-02
  2.899166e-01    2.490556e-02
  3.057922e-01    1.278377e-02
  3.216678e-01    1.796772e-02
  3.375433e-01    4.745651e-02
  3.534189e-01    5.626320e-02
  3.692945e-01    6.845025e-02
  3.851701e-01    4.779783e-02
  4.010456e-01    3.123986e-02
  4.169212e-01    2.865076e-02
  4.327968e-01    5.781702e-02
  4.486724e-01    3.706738e-02
  4.645479e-01    2.318390e-02
  4.804235e-01    2.631290e-02
  4.962991e-01    2.077017e-02
  5.121747e-01    1.123966e-02
  5.280502e-01    4.021715e-02
  5.439258e-01    5.417339e-02
  5.598014e-01    7.159873e-02
  5.756770e-01    4.362395e-02
  5.915525e-01    2.065826e-02
  6.074281e-01    2.991671e-02
  6.233037e-01    5.651288e-02
  6.391793e-01    6.377894e-02
  6.550548e-01    2.312517e-02
  6.709304e-01    2.347684e-02
  6.868060e-01    3.476420e-02
  7.026815e-01    3.607816e-02
  7.185571e-01    3.329838e-02
  7.344327e-01    6.153920e-02
  7.503083e-01    7.455962e-02
  7.661838e-01    8.515315e-02
  7.820594e-01    1.160945e-01
  7.979350e-01    1.295483e-01
  8.138106e-01    1.886542e-01
  8.296861e-01    2.460325e-01
  8.455617e-01    3.178027e-01
  8.614373e-01    3.133765e-01
  8.773129e-01    3.930728e-01
  8.931884e-01    5.103102e-01
  9.090640e-01    5.661064e-01
  9.249396e-01    6.902914e-01
  9.408152e-01    7.315572e-01
  9.566907e-01    7.548084e-01
  9.725663e-01    8.363493e-01
  9.884419e-01    9.623152e-01
  1.004317e+00    9.663274e-01
  1.020193e+00    1.061658e+00
  1.036069e+00    1.189408e+00
  1.051944e+00    1.288184e+00
  1.067820e+00    1.308529e+00
  1.083695e+00    1.329325e+00
  1.099571e+00    1.269592e+00
  1.115446e+00    1.308570e+00
  1.131322e+00    1.312946e+00
  1.147198e+00    1.432829e+00
  1.163073e+00    1.518022e+00
  1.178949e+00    1.430629e+00
  1.194824e+00    1.647779e+00
  1.210700e+00    1.954293e+00
  1.226575e+00    2.047549e+00
  1.242451e+00    2.216262e+00
  1.258327e+00    2.324907e+00
  1.274202e+00    2.314389e+00
  1.290078e+00    2.388558e+00
  1.305953e+00    2.468605e+00
  1.321829e+00    2.402925e+00
  1.337705e+00    2.482026e+00
  1.353580e+00    2.527597e+00
  1.369456e+00    2.499800e+00
  1.385331e+00    2.477777e+00
  1.401207e+00    2.641004e+00
  1.417082e+00    2.664676e+00
  1.432958e+00    2.648179e+00
  1.448834e+00    2.643593e+00
  1.464709e+00    2.638003e+00
  1.480585e+00    2.907686e+00
  1.496460e+00    2.925140e+00
  1.512336e+00    2.901800e+00
  1.528211e+00    2.843752e+00
  1.544087e+00    2.907935e+00
  1.559963e+00    2.966390e+00
  1.575838e+00    2.892064e+00
  1.591714e+00    2.986968e+00
  1.607589e+00    2.959442e+00
  1.623465e+00    2.859492e+00
  1.639340e+00    2.932069e+00
  1.655216e+00    2.946267e+00
  1.671092e+00    2.907648e+00
  1.686967e+00    2.993544e+00
  1.702843e+00    2.992359e+00
  1.718718e+00    2.843594e+00
  1.734594e+00    2.744275e+00
  1.750469e+00    2.589944e+00
  1.766345e+00    2.722717e+00
  1.782221e+00    2.785266e+00
  1.798096e+00    2.959421e+00
  1.813972e+00    2.778682e+00
  1.829847e+00    2.821235e+00
  1.845723e+00    2.775643e+00
  1.861598e+00    2.680392e+00
  1.877474e+00    2.644620e+00
  1.893350e+00    2.771439e+00
  1.909225e+00    2.765600e+00
  1.925101e+00    2.687836e+00
  1.940976e+00    2.659647e+00
  1.956852e+00    2.713817e+00
  1.972727e+00    2.715636e+00
  1.988603e+00    2.754102e+00
  2.004479e+00    2.708207e+00
  2.020354e+00    2.706697e+00
  2.036230e+00    2.710415e+00
  2.052105e+00    2.747805e+00
  2.067981e+00    2.721723e+00
  2.083856e+00    2.698158e+00
  2.099732e+00    2.738228e+00
  2.115608e+00    2.746905e+00
  2.131483e+00    2.762392e+00
  2.147359e+00    2.693173e+00
  2.163234e+00    2.651164e+00
  2.179110e+00    2.620101e+00
  2.194985e+00    2.637593e+00
  2.210861e+00    2.744210e+00
  2.226737e+00    2.668315e+00
  2.242612e+00    2.742872e+00
  2.258488e+00    2.796837e+00
  2.274363e+00    2.690967e+00
  2.290239e+00    2.700615e+00
  2.306115e+00    2.748529e+00
  2.321990e+00    2.740191e+00
  2.337866e+00    2.747885e+00
  2.353741e+00    2.810724e+00
  2.369617e+00    2.686230e+00
  2.385492e+00    2.654997e+00
  2.401368e+00    2.638786e+00
  2.417244e+00    2.789710e+00
  2.433119e+00    2.841316e+00
  2.448995e+00    2.768761e+00
  2.464870e+00    2.756080e+00
  2.480746e+00    2.770948e+00
  2.496621e+00    2.726943e+00
  2.512497e+00    2.701011e+00
  2.528373e+00    2.644233e+00
  2.544248e+00    2.749258e+00
  2.560124e+00    2.690495e+00
  2.575999e+00    2.755389e+00
  2.591875e+00    2.784288e+00
  2.607750e+00    2.773758e+00
  2.623626e+00    2.758003e+00
  2.639502e+00    2.783164e+00
  2.655377e+00    2.772110e+00
  2.671253e+00    2.768013e+00
  2.687128e+00    2.765866e+00
  2.703004e+00    2.725517e+00
  2.718879e+00    2.724322e+00
  2.734755e+00    2.732142e+00
  2.750631e+00    2.751307e+00
  2.766506e+00    2.709739e+00
  2.782382e+00    2.785259e+00
  2.798257e+00    2.830741e+00
  2.814133e+00    2.833041e+00
  2.830008e+00    2.794996e+00
  2.845884e+00    2.873685e+00
  2.861760e+00    2.934633e+00
  2.877635e+00    2.830923e+00
  2.893511e+00    2.835432e+00
  2.909386e+00    2.913723e+00
  2.925262e+00    2.780206e+00
  2.941137e+00    2.851972e+00
  2.957013e+00    2.828840e+00
  2.972889e+00    2.903632e+00
  2.988764e+00    2.807078e+00
  3.004640e+00    2.835374e+00
  3.020515e+00    2.770143e+00
  3.036391e+00    2.799030e+00
  3.052266e+00    2.897609e+00
  3.068142e+00    2.957579e+00
  3.084018e+00    2.847786e+00
  3.099893e+00    2.785384e+00
  3.115769e+00    2.738289e+00
  3.131644e+00    2.808583e+00
  3.147520e+00    2.850363e+00
  3.163395e+00    2.808530e+00
  3.179271e+00    2.850609e+00
  3.195147e+00    2.858775e+00
  3.211022e+00    2.861681e+00
  3.226898e+00    2.809028e+00
  3.242773e+00    2.898871e+00
  3.258649e+00    2.957056e+00
  3.274525e+00    2.935600e+00
  3.290400e+00    2.869755e+00
  3.306276e+00    2.882003e+00
  3.322151e+00    2.871205e+00
  3.338027e+00    2.903057e+00
  3.353902e+00    2.919845e+00
  3.369778e+00    2.872067e+00
  3.385654e+00    2.921533e+00
  3.401529e+00    2.899756e+00
  3.417405e+00    2.870703e+00
  3.433280e+00    2.924582e+00
  3.449156e+00    2.897742e+00
  3.465031e+00    2.964193e+00
  3.480907e+00    2.865295e+00
  3.496783e+00    2.879014e+00
  3.512658e+00    2.887263e+00
  3.528534e+00    2.856178e+00
  3.544409e+00    2.866387e+00
  3.560285e+00    2.886672e+00
  3.576160e+00    2.997062e+00
  3.592036e+00    2.886071e+00
  3.607912e+00    2.894733e+00
  3.623787e+00    2.877854e+00
  3.639663e+00    2.905924e+00
  3.655538e+00    2.930405e+00
  3.671414e+00    2.935387e+00
  3.687289e+00    2.977247e+00
  3.703165e+00    2.960334e+00
  3.719041e+00    2.987327e+00
  3.734916e+00    2.960039e+00
  3.750792e+00    3.016677e+00
  3.766667e+00    2.996348e+00
  3.782543e+00    2.971792e+00
  3.798418e+00    3.026379e+00
  3.814294e+00    2.926773e+00
  3.830170e+00    2.946329e+00
  3.846045e+00    3.132928e+00
  3.861921e+00    3.054974e+00
  3.877796e+00    3.000701e+00
  3.893672e+00    3.014600e+00
  3.909547e+00    3.001480e+00
  3.925423e+00    2.999653e+00
  3.941299e+00    2.920142e+00
  3.957174e+00    3.024925e+00
  3.973050e+00    3.094040e+00
  3.988925e+00    2.976730e+00
  4.004801e+00    2.941541e+00
  4.020676e+00    2.870907e+00
  4.036552e+00    2.877979e+00
  4.052428e+00    2.945200e+00
  4.068303e+00    2.979725e+00
  4.084179e+00    2.918518e+00
  4.100054e+00    2.936323e+00
  4.115930e+00    3.009223e+00
  4.131806e+00    2.999735e+00
  4.147681e+00    3.016028e+00
  4.163557e+00    3.003917e+00
  4.179432e+00    3.005840e+00
  4.195308e+00    3.015944e+00
  4.211183e+00    3.022447e+00
  4.227059e+00    3.003458e+00
  4.242935e+00    2.986430e+00
  4.258810e+00    3.046989e+00
  4.274686e+00    3.066347e+00
  4.290561e+00    3.026326e+00
  4.306437e+00    3.006106e+00
  4.322312e+00    2.983375e+00
  4.338188e+00    2.959873e+00
  4.354064e+00    2.947626e+00
  4.369939e+00    3.015443e+00
  4.385815e+00    2.966857e+00
  4.401690e+00    2.990503e+00
  4.417566e+00    3.017658e+00
  4.433441e+00    3.105659e+00
  4.449317e+00    3.046425e+00
  4.465193e+00    2.993497e+00
  4.481068e+00    3.066170e+00
  4.496944e+00    3.016542e+00
  4.512819e+00    3.028436e+00
  4.528695e+00    3.035207e+00
  4.544570e+00    3.027074e+00
  4.560446e+00    3.001612e+00
  4.576322e+00    3.026808e+00
  4.592197e+00    3.032163e+00
  4.608073e+00    3.039606e+00
  4.623948e+00    3.055617e+00
  4.639824e+00    3.029190e+00
  4.655699e+00    3.032839e+00
  4.671575e+00    3.102345e+00
  4.687451e+00    3.039116e+00
  4.703326e+00    3.081112e+00
  4.719202e+00    3.062722e+00
  4.735077e+00    3.250595e+00
  4.750953e+00    3.158001e+00
  4.766828e+00    2.996046e+00
  4.782704e+00    3.015792e+00
  4.798580e+00    3.033965e+00
  4.814455e+00    3.037783e+00
  4.830331e+00    3.062679e+00
  4.846206e+00    3.059398e+00
  4.862082e+00    3.104348e+00
  4.877957e+00    3.133495e+00
  4.893833e+00    3.058738e+00
  4.909709e+00    3.021833e+00
  4.925584e+00    3.008454e+00
  4.941460e+00    2.969828e+00
  4.957335e+00    2.973002e+00
  4.973211e+00    3.056297e+00
  4.989086e+00    3.067727e+00
  5.004962e+00    3.014861e+00
  5.020838e+00    3.050160e+00
  5.036713e+00    3.133220e+00
  5.052589e+00    3.140459e+00
  5.068464e+00    3.108794e+00
  5.084340e+00    3.094774e+00
  5.100216e+00    3.115197e+00
  5.116091e+00    3.123118e+00
  5.131967e+00    3.109796e+00
  5.147842e+00    3.061794e+00
  5.163718e+00    3.069275e+00
  5.179593e+00    3.070156e+00
  5.195469e+00    3.101340e+00
  5.211345e+00    3.077502e+00
  5.227220e+00    2.992603e+00
  5.243096e+00    3.025350e+00
  5.258971e+00    3.070487e+00
  5.274847e+00    3.147150e+00
  5.290722e+00    3.080171e+00
  5.306598e+00    3.012093e+00
  5.322474e+00    3.108321e+00
  5.338349e+00    3.146701e+00
  5.354225e+00    3.146414e+00
  5.370100e+00    3.106643e+00
  5.385976e+00    3.048907e+00
  5.401851e+00    3.051224e+00
  5.417727e+00    3.040383e+00
  5.433603e+00    3.020634e+00
  5.449478e+00    3.009888e+00
  5.465354e+00    3.045491e+00
  5.481229e+00    3.040719e+00
  5.497105e+00    3.060151e+00
  5.512980e+00    3.084766e+00
  5.528856e+00    3.088047e+00
  5.544732e+00    3.083419e+00
  5.560607e+00    3.033720e+00
  5.576483e+00    3.035424e+00
  5.592358e+00    3.034903e+00
  5.608234e+00    2.963093e+00
  5.624109e+00    2.956069e+00
  5.639985e+00    3.080724e+00
  5.655861e+00    3.081262e+00
  5.671736e+00    2.975114e+00
  5.687612e+00    3.029897e+00
  5.703487e+00    3.055954e+00
  5.719363e+00    3.074856e+00
  5.735238e+00    3.036803e+00
  5.751114e+00    2.971002e+00
  5.766990e+00    2.992776e+00
  5.782865e+00    2.968029e+00
  5.798741e+00    2.955195e+00
  5.814616e+00    2.990985e+00
  5.830492e+00    3.030199e+00
  5.846367e+00    3.034626e+00
  5.862243e+00    2.995055e+00
  5.878119e+00    2.947188e+00
  5.893994e+00    2.939166e+00
  5.909870e+00    3.020730e+00
  5.925745e+00    2.989204e+00
  5.941621e+00    3.006896e+00
  5.957497e+00    2.960019e+00
  5.973372e+00    2.956209e+00
  5.989248e+00    3.083834e+00
  6.005123e+00    2.997832e+00
  6.020999e+00    2.973565e+00
  6.036874e+00    2.974492e+00
  6.052750e+00    2.915155e+00
  6.068626e+00    3.013818e+00
  6.084501e+00    3.116267e+00
  6.100377e+00    2.983781e+00
  6.116252e+00    2.910965e+00
  6.132128e+00    3.013468e+00
  6.148003e+00    3.083009e+00
  6.163879e+00    3.092974e+00
  6.179755e+00    3.075836e+00
  6.195630e+00    2.986734e+00
  6.211506e+00    2.944009e+00
  6.227381e+00    3.034928e+00
  6.243257e+00    3.052214e+00
  6.259132e+00    3.025781e+00
  6.275008e+00    2.980723e+00
  6.290884e+00    3.015192e+00
  6.306759e+00    3.077777e+00
  6.322635e+00    3.012511e+00
  6.338510e+00    3.091083e+00
  6.354386e+00    3.120375e+00
  6.370261e+00    3.043702e+00
  6.386137e+00    3.031977e+00
  6.402013e+00    3.006986e+00
  6.417888e+00    2.948476e+00
  6.433764e+00    3.032817e+00
  6.449639e+00    3.065186e+00
  6.465515e+00    2.994807e+00
  6.481390e+00    3.045397e+00
  6.497266e+00    3.003072e+00
  6.513142e+00    2.948033e+00
  6.529017e+00    3.019422e+00
  6.544893e+00    2.996459e+00
  6.560768e+00    2.991273e+00
  6.576644e+00    2.997267e+00
  6.592519e+00    2.908038e+00
  6.608395e+00    2.992173e+00
  6.624271e+00    2.998592e+00
  6.640146e+00    3.005963e+00
  6.656022e+00    3.027888e+00
  6.671897e+00    3.007036e+00
  6.687773e+00    2.977768e+00
  6.703648e+00    2.982049e+00
  6.719524e+00    2.974993e+00
  6.735400e+00    2.965882e+00
  6.751275e+00    3.010240e+00
  6.767151e+00    2.996610e+00
  6.783026e+00    3.001858e+00
  6.798902e+00    2.990272e+00
  6.814777e+00    3.003395e+00
  6.830653e+00    3.008250e+00
  6.846529e+00    3.013206e+00
  6.862404e+00    2.925193e+00
  6.878280e+00    2.995839e+00
  6.894155e+00    3.031843e+00
  6.910031e+00    2.996010e+00
  6.925907e+00    3.015692e+00
  6.941782e+00    2.994084e+00
  6.957658e+00    2.954886e+00
  6.973533e+00    2.971466e+00
  6.989409e+00    2.952260e+00
  7.005284e+00    3.004426e+00
  7.021160e+00    2.972971e+00
  7.037036e+00    3.016314e+00
  7.052911e+00    3.050769e+00
  7.068787e+00    3.022494e+00
  7.084662e+00    3.027812e+00
  7.100538e+00    3.016685e+00
  7.116413e+00    2.999133e+00
  7.132289e+00    3.015668e+00
  7.148165e+00    2.999978e+00
  7.164040e+00    2.956685e+00
  7.179916e+00    2.972355e+00
  7.195791e+00    2.920141e+00
  7.211667e+00    2.913280e+00
  7.227542e+00    2.925043e+00
  7.243418e+00    2.972655e+00
  7.259294e+00    2.969897e+00
  7.275169e+00    2.939458e+00
  7.291045e+00    2.941890e+00
  7.306920e+00    2.982782e+00
  7.322796e+00    2.989614e+00
  7.338671e+00    2.919467e+00
  7.354547e+00    2.944121e+00
  7.370423e+00    2.892615e+00
  7.386298e+00    2.940766e+00
  7.402174e+00    2.903715e+00
  7.418049e+00    2.898253e+00
  7.433925e+00    2.939955e+00
  7.449800e+00    2.973267e+00
  7.465676e+00    2.948031e+00
  7.481552e+00    2.855304e+00
  7.497427e+00    2.895651e+00
  7.513303e+00    2.930151e+00
  7.529178e+00    2.930512e+00
  7.545054e+00    2.949911e+00
  7.560929e+00    2.926833e+00
  7.576805e+00    2.962298e+00
  7.592681e+00    2.948999e+00
  7.608556e+00    2.935794e+00
  7.624432e+00    2.934621e+00
  7.640307e+00    2.867833e+00
  7.656183e+00    2.827232e+00
  7.672058e+00    2.906189e+00
  7.687934e+00    2.963802e+00
  7.703810e+00    2.901233e+00
  7.719685e+00    2.856111e+00
  7.735561e+00    2.904145e+00
  7.751436e+00    2.891050e+00
  7.767312e+00    2.868613e+00
  7.783187e+00    2.904948e+00
  7.799063e+00    2.869758e+00
  7.814939e+00    2.854835e+00
  7.830814e+00    2.920965e+00
  7.846690e+00    2.992327e+00
  7.862565e+00    2.892471e+00
  7.878441e+00    2.808623e+00
  7.894317e+00    2.874862e+00
  7.910192e+00    2.885881e+00
  7.926068e+00    2.925629e+00
  7.941943e+00    2.939175e+00
  7.957819e+00    2.906237e+00
  7.973694e+00    2.869056e+00
  7.989570e+00    2.901130e+00
  8.005446e+00    2.892383e+00
  8.021321e+00    2.856997e+00
  8.037197e+00    2.870183e+00
  8.053072e+00    2.925173e+00
  8.068948e+00    2.909343e+00
  8.084823e+00    2.860946e+00
  8.100699e+00    2.823634e+00
  8.116575e+00    2.924218e+00
  8.132450e+00    2.921507e+00
  8.148326e+00    2.975329e+00
  8.164201e+00    2.949895e+00
  8.180077e+00    2.924671e+00
  8.195952e+00    2.871460e+00
  8.211828e+00    2.888748e+00
  8.227704e+00    2.942637e+00
  8.243579e+00    2.970030e+00
  8.259455e+00    2.975549e+00
  8.275330e+00    2.883592e+00
  8.291206e+00    2.866773e+00
  8.307081e+00    2.869836e+00
  8.322957e+00    2.895191e+00
  8.338833e+00    2.856086e+00
  8.354708e+00    2.879432e+00
  8.370584e+00    2.837756e+00
  8.386459e+00    2.840826e+00
  8.402335e+00    2.808538e+00
  8.418210e+00    2.851938e+00
  8.434086e+00    2.880940e+00
  8.449962e+00    2.810244e+00
  8.465837e+00    2.804060e+00
  8.481713e+00    2.829817e+00
  8.497588e+00    2.888670e+00
  8.513464e+00    2.782888e+00
  8.529339e+00    2.841321e+00
  8.545215e+00    2.812396e+00
  8.561091e+00    2.852972e+00
  8.576966e+00    2.832733e+00
  8.592842e+00    2.797455e+00
  8.608717e+00    2.885741e+00
  8.624593e+00    2.904312e+00
  8.640468e+00    2.834163e+00
  8.656344e+00    2.808632e+00
  8.672220e+00    2.806154e+00
  8.688095e+00    2.848180e+00
  8.703971e+00    2.839511e+00
  8.719846e+00    2.798451e+00
  8.735722e+00    2.809949e+00
  8.751598e+00    2.819918e+00
  8.767473e+00    2.813267e+00
  8.783349e+00    2.830595e+00
  8.799224e+00    2.856554e+00
  8.815100e+00    2.783594e+00
  8.830975e+00    2.834718e+00
  8.846851e+00    2.829431e+00
  8.862727e+00    2.780320e+00
  8.878602e+00    2.874192e+00
  8.894478e+00    2.803063e+00
  8.910353e+00    2.693493e+00
  8.926229e+00    2.859850e+00
  8.942104e+00    2.795076e+00
  8.957980e+00    2.771115e+00
  8.973856e+00    2.792427e+00
  8.989731e+00    2.778917e+00
  9.005607e+00    2.772221e+00
  9.021482e+00    2.735271e+00
  9.037358e+00    2.765028e+00
  9.053233e+00    2.753722e+00
  9.069109e+00    2.715827e+00
  9.084985e+00    2.782861e+00
  9.100860e+00    2.799989e+00
  9.116736e+00    2.799241e+00
  9.132611e+00    2.822101e+00
  9.148487e+00    2.771714e+00
  9.164362e+00    2.731711e+00
  9.180238e+00    2.753633e+00
  9.196114e+00    2.762374e+00
  9.211989e+00    2.762978e+00
  9.227865e+00    2.773180e+00
  9.243740e+00    2.772969e+00
  9.259616e+00    2.781994e+00
  9.275491e+00    2.796450e+00
  9.291367e+00    2.770028e+00
  9.307243e+00    2.711495e+00
  9.323118e+00    2.736515e+00
  9.338994e+00    2.778472e+00
  9.354869e+00    2.768463e+00
  9.370745e+00    2.773403e+00
  9.386620e+00    2.752379e+00
  9.402496e+00    2.718204e+00
  9.418372e+00    2.738390e+00
  9.434247e+00    2.672757e+00
  9.450123e+00    2.686573e+00
  9.465998e+00    2.691487e+00
  9.481874e+00    2.725816e+00
  9.497749e+00    2.726615e+00
  9.513625e+00    2.729455e+00
  9.529501e+00    2.702790e+00
  9.545376e+00    2.759778e+00
  9.561252e+00    2.742098e+00
  9.577127e+00    2.712042e+00
  9.593003e+00    2.740789e+00
  9.608878e+00    2.737463e+00
  9.624754e+00    2.673045e+00
  9.640630e+00    2.736850e+00
  9.656505e+00    2.754472e+00
  9.672381e+00    2.740041e+00
  9.688256e+00    2.698326e+00
  9.704132e+00    2.687438e+00
  9.720008e+00    2.692129e+00
  9.735883e+00    2.718992e+00
  9.751759e+00    2.680603e+00
  9.767634e+00    2.660161e+00
  9.783510e+00    2.721657e+00
  9.799385e+00    2.706585e+00
  9.815261e+00    2.733321e+00
  9.831137e+00    2.703256e+00
  9.847012e+00    2.681849e+00
  9.862888e+00    2.643450e+00
  9.878763e+00    2.596052e+00
  9.894639e+00    2.607209e+00
  9.910514e+00    2.637777e+00
  9.926390e+00    2.603760e+00
  9.942266e+00    2.637767e+00
  9.958141e+00    2.676036e+00
  9.974017e+00    2.677354e+00
  9.989892e+00    2.685924e+00
  1.000577e+01    2.646842e+00
  1.002164e+01    2.629345e+00
  1.003752e+01    2.700858e+00
  1.005339e+01    2.653427e+00
  1.006927e+01    2.617584e+00
  1.008515e+01    2.644840e+00
  1.010102e+01    2.650066e+00
  1.011690e+01    2.616327e+00
  1.013277e+01    2.659698e+00
  1.014865e+01    2.659642e+00
  1.016452e+01    2.650691e+00
  1.018040e+01    2.609905e+00
  1.019627e+01    2.624928e+00
  1.021215e+01    2.613811e+00
  1.022803e+01    2.626798e+00
  1.024390e+01    2.587309e+00
  1.025978e+01    2.618602e+00
  1.027565e+01    2.645239e+00
  1.029153e+01    2.611726e+00
  1.030740e+01    2.581810e+00
  1.032328e+01    2.596637e+00
  1.033915e+01    2.622855e+00
  1.035503e+01    2.633369e+00
  1.037091e+01    2.541543e+00
  1.038678e+01    2.528847e+00
  1.040266e+01    2.571777e+00
  1.041853e+01    2.576226e+00
  1.043441e+01    2.588390e+00
  1.045028e+01    2.571458e+00
  1.046616e+01    2.536129e+00
  1.048204e+01    2.522139e+00
  1.049791e+01    2.574287e+00
  1.051379e+01    2.495550e+00
  1.052966e+01    2.526651e+00
  1.054554e+01    2.588934e+00
  1.056141e+01    2.565908e+00
  1.057729e+01    2.502876e+00
  1.059316e+01    2.505753e+00
  1.060904e+01    2.562914e+00
  1.062492e+01    2.570345e+00
  1.064079e+01    2.532655e+00
  1.065667e+01    2.565882e+00
  1.067254e+01    2.513779e+00
  1.068842e+01    2.530632e+00
  1.070429e+01    2.530597e+00
  1.072017e+01    2.544098e+00
  1.073604e+01    2.499629e+00
  1.075192e+01    2.510708e+00
  1.076780e+01    2.482611e+00
  1.078367e+01    2.495216e+00
  1.079955e+01    2.522858e+00
  1.081542e+01    2.549756e+00
  1.083130e+01    2.547915e+00
  1.084717e+01    2.531621e+00
  1.086305e+01    2.500652e+00
  1.087892e+01    2.470896e+00
  1.089480e+01    2.499541e+00
  1.091068e+01    2.468698e+00
  1.092655e+01    2.475250e+00
  1.094243e+01    2.467297e+00
  1.095830e+01    2.487716e+00
  1.097418e+01    2.445322e+00
  1.099005e+01    2.453400e+00
  1.100593e+01    2.466057e+00
  1.102180e+01    2.459939e+00
  1.103768e+01    2.480005e+00
  1.105356e+01    2.473678e+00
  1.106943e+01    2.463528e+00
  1.108531e+01    2.412947e+00
  1.110118e+01    2.396496e+00
  1.111706e+01    2.431180e+00
  1.113293e+01    2.440825e+00
  1.114881e+01    2.425010e+00
  1.116468e+01    2.432082e+00
  1.118056e+01    2.445408e+00
  1.119644e+01    2.427594e+00
  1.121231e+01    2.405925e+00
  1.122819e+01    2.439875e+00
  1.124406e+01    2.404312e+00
  1.125994e+01    2.436350e+00
  1.127581e+01    2.443727e+00
  1.129169e+01    2.418661e+00
  1.130756e+01    2.394586e+00
  1.132344e+01    2.437054e+00
  1.133932e+01    2.426069e+00
  1.135519e+01    2.434151e+00
  1.137107e+01    2.414721e+00
  1.138694e+01    2.428961e+00
  1.140282e+01    2.433381e+00
  1.141869e+01    2.419113e+00
  1.143457e+01    2.401039e+00
  1.145045e+01    2.392467e+00
  1.146632e+01    2.370478e+00
  1.148220e+01    2.391176e+00
  1.149807e+01    2.348019e+00
  1.151395e+01    2.356133e+00
  1.152982e+01    2.363328e+00
  1.154570e+01    2.364709e+00
  1.156157e+01    2.359944e+00
  1.157745e+01    2.330534e+00
  1.159333e+01    2.316384e+00
  1.160920e+01    2.343582e+00
  1.162508e+01    2.339432e+00
  1.164095e+01    2.395128e+00
  1.165683e+01    2.427908e+00
  1.167270e+01    2.346091e+00
  1.168858e+01    2.329191e+00
  1.170445e+01    2.312999e+00
  1.172033e+01    2.321630e+00
  1.173621e+01    2.416573e+00
  1.175208e+01    2.342828e+00
  1.176796e+01    2.349831e+00
  1.178383e+01    2.354377e+00
  1.179971e+01    2.349542e+00
  1.181558e+01    2.354264e+00
  1.183146e+01    2.352703e+00
  1.184733e+01    2.353783e+00
  1.186321e+01    2.277804e+00
  1.187909e+01    2.261452e+00
  1.189496e+01    2.264579e+00
  1.191084e+01    2.299597e+00
  1.192671e+01    2.313260e+00
  1.194259e+01    2.324276e+00
  1.195846e+01    2.292834e+00
  1.197434e+01    2.313756e+00
  1.199021e+01    2.358116e+00
  1.200609e+01    2.320147e+00
  1.202197e+01    2.313555e+00
  1.203784e+01    2.352272e+00
  1.205372e+01    2.280289e+00
  1.206959e+01    2.263446e+00
  1.208547e+01    2.297253e+00
  1.210134e+01    2.303562e+00
  1.211722e+01    2.277116e+00
  1.213309e+01    2.317505e+00
  1.214897e+01    2.282592e+00
  1.216485e+01    2.303413e+00
  1.218072e+01    2.303850e+00
  1.219660e+01    2.276404e+00
  1.221247e+01    2.299754e+00
  1.222835e+01    2.267656e+00
  1.224422e+01    2.266235e+00
  1.226010e+01    2.301592e+00
  1.227597e+01    2.294758e+00
  1.229185e+01    2.297167e+00
  1.230773e+01    2.272835e+00
  1.232360e+01    2.278483e+00
  1.233948e+01    2.301265e+00
  1.235535e+01    2.298542e+00
  1.237123e+01    2.295188e+00
  1.238710e+01    2.320319e+00
  1.240298e+01    2.277423e+00
  1.241886e+01    2.281159e+00
  1.243473e+01    2.256543e+00
  1.245061e+01    2.275598e+00
  1.246648e+01    2.331707e+00
  1.248236e+01    2.317112e+00
  1.249823e+01    2.283869e+00
  1.251411e+01    2.300569e+00
  1.252998e+01    2.310437e+00
  1.254586e+01    2.347827e+00
  1.256174e+01    2.385789e+00
  1.257761e+01    2.349348e+00
  1.259349e+01    2.341993e+00
  1.260936e+01    2.374296e+00
  1.262524e+01    2.351894e+00
  1.264111e+01    2.377840e+00
  1.265699e+01    2.390613e+00
  1.267286e+01    2.377774e+00
  1.268874e+01    2.401651e+00
  1.270462e+01    2.434674e+00
  1.272049e+01    2.496354e+00
  1.273637e+01    2.492794e+00
  1.275224e+01    2.536412e+00
  1.276812e+01    2.560638e+00
  1.278399e+01    2.587973e+00
  1.279987e+01    2.621961e+00
  1.281574e+01    2.680375e+00
  1.283162e+01    2.679399e+00
  1.284750e+01    2.817491e+00
  1.286337e+01    2.930223e+00
  1.287925e+01    2.998828e+00
  1.289512e+01    3.064922e+00
  1.291100e+01    3.282976e+00
  1.292687e+01    3.467877e+00
  1.294275e+01    3.716849e+00
  1.295862e+01    3.907336e+00
  1.297450e+01    4.302567e+00
  1.299038e+01    4.744029e+00
  1.300625e+01    5.295129e+00
  1.302213e+01    6.056840e+00
  1.303800e+01    6.942349e+00
  1.305388e+01    8.038795e+00
  1.306975e+01    9.312494e+00
  1.308563e+01    1.077877e+01
  1.310150e+01    1.218571e+01
  1.311738e+01    1.343915e+01
  1.313326e+01    1.471552e+01
  1.314913e+01    1.597178e+01
  1.316501e+01    1.706318e+01
  1.318088e+01    1.776531e+01
  1.319676e+01    1.771975e+01
  1.321263e+01    1.686163e+01
  1.322851e+01    1.517639e+01
  1.324438e+01    1.286744e+01
  1.326026e+01    1.094970e+01
  1.327614e+01    9.197614e+00
  1.329201e+01    7.707721e+00
  1.330789e+01    6.641023e+00
  1.332376e+01    5.822469e+00
  1.333964e+01    5.127859e+00
  1.335551e+01    4.562330e+00
  1.337139e+01    4.168794e+00
  1.338727e+01    3.820525e+00
  1.340314e+01    3.635388e+00
  1.341902e+01    3.434793e+00
  1.343489e+01    3.229250e+00
  1.345077e+01    3.045510e+00
  1.346664e+01    2.893774e+00
  1.348252e+01    2.798741e+00
  1.349839e+01    2.742713e+00
  1.351427e+01    2.640368e+00
  1.353015e+01    2.588123e+00
  1.354602e+01    2.546068e+00
  1.356190e+01    2.519158e+00
  1.357777e+01    2.441880e+00
  1.359365e+01    2.410739e+00
  1.360952e+01    2.371892e+00
  1.362540e+01    2.351379e+00
  1.364127e+01    2.317358e+00
  1.365715e+01    2.257416e+00
  1.367303e+01    2.238273e+00
  1.368890e+01    2.277108e+00
  1.370478e+01    2.246184e+00
  1.372065e+01    2.216232e+00
  1.373653e+01    2.175913e+00
  1.375240e+01    2.188566e+00
  1.376828e+01    2.169197e+00
  1.378415e+01    2.138680e+00
  1.380003e+01    2.134152e+00
  1.381591e+01    2.125426e+00
  1.383178e+01    2.141594e+00
  1.384766e+01    2.117674e+00
  1.386353e+01    2.074884e+00
  1.387941e+01    2.065311e+00
  1.389528e+01    2.104670e+00
  1.391116e+01    2.071059e+00
  1.392703e+01    2.033756e+00
  1.394291e+01    2.029145e+00
  1.395879e+01    2.055464e+00
  1.397466e+01    2.030958e+00
  1.399054e+01    2.018636e+00
  1.400641e+01    2.062401e+00
  1.402229e+01    2.079540e+00
  1.403816e+01    2.062961e+00
  1.405404e+01    2.039647e+00
  1.406991e+01    2.003074e+00
  1.408579e+01    2.008450e+00
  1.410167e+01    2.002066e+00
  1.411754e+01    1.980327e+00
  1.413342e+01    1.956429e+00
  1.414929e+01    1.983618e+00
  1.416517e+01    2.003085e+00
  1.418104e+01    2.036143e+00
  1.419692e+01    2.017955e+00
  1.421279e+01    1.993810e+00
  1.422867e+01    1.973355e+00
  1.424455e+01    1.957859e+00
  1.426042e+01    1.963983e+00
  1.427630e+01    1.948934e+00
  1.429217e+01    1.911888e+00
  1.430805e+01    1.931163e+00
  1.432392e+01    1.949206e+00
  1.433980e+01    1.920033e+00
  1.435568e+01    1.900542e+00
  1.437155e+01    1.901114e+00
  1.438743e+01    1.895744e+00
  1.440330e+01    1.919313e+00
  1.441918e+01    1.915410e+00
  1.443505e+01    1.945915e+00
  1.445093e+01    1.937458e+00
  1.446680e+01    1.924700e+00
  1.448268e+01    1.899577e+00
  1.449856e+01    1.892010e+00
  1.451443e+01    1.896239e+00
  1.453031e+01    1.887090e+00
  1.454618e+01    1.885280e+00
  1.456206e+01    1.893274e+00
  1.457793e+01    1.924217e+00
  1.459381e+01    1.898681e+00
  1.460968e+01    1.891571e+00
  1.462556e+01    1.926226e+00
  1.464144e+01    1.916327e+00
  1.465731e+01    1.885108e+00
  1.467319e+01    1.889230e+00
  1.468906e+01    1.889598e+00
  1.470494e+01    1.912305e+00
  1.472081e+01    1.891742e+00
  1.473669e+01    1.829564e+00
  1.475256e+01    1.872851e+00
  1.476844e+01    1.880379e+00
  1.478432e+01    1.875172e+00
  1.480019e+01    1.892482e+00
  1.481607e+01    1.910568e+00
  1.483194e+01    1.868212e+00
  1.484782e+01    1.884261e+00
  1.486369e+01    1.903714e+00
  1.487957e+01    1.936926e+00
  1.489544e+01    1.924787e+00
  1.491132e+01    1.949287e+00
  1.492720e+01    1.959889e+00
  1.494307e+01    1.947151e+00
  1.495895e+01    1.981405e+00
  1.497482e+01    2.028846e+00
  1.499070e+01    2.085839e+00
  1.500657e+01    2.112098e+00
  1.502245e+01    2.173748e+00
  1.503832e+01    2.207341e+00
  1.505420e+01    2.361863e+00
  1.507008e+01    2.519494e+00
  1.508595e+01    2.611683e+00
  1.510183e+01    2.809617e+00
  1.511770e+01    3.061314e+00
  1.513358e+01    3.371442e+00
  1.514945e+01    3.722154e+00
  1.516533e+01    4.058770e+00
  1.518120e+01    4.532665e+00
  1.519708e+01    4.940162e+00
  1.521296e+01    5.246299e+00
  1.522883e+01    5.513562e+00
  1.524471e+01    5.797985e+00
  1.526058e+01    6.027898e+00
  1.527646e+01    6.078867e+00
  1.529233e+01    5.932734e+00
  1.530821e+01    5.678889e+00
  1.532409e+01    5.274798e+00
  1.533996e+01    4.690988e+00
  1.535584e+01    4.130552e+00
  1.537171e+01    3.660175e+00
  1.538759e+01    3.323400e+00
  1.540346e+01    2.977086e+00
  1.541934e+01    2.658711e+00
  1.543521e+01    2.495558e+00
  1.545109e+01    2.403315e+00
  1.546697e+01    2.305563e+00
  1.548284e+01    2.180085e+00
  1.549872e+01    2.043546e+00
  1.551459e+01    2.003757e+00
  1.553047e+01    1.977576e+00
  1.554634e+01    1.935061e+00
  1.556222e+01    1.890654e+00
  1.557809e+01    1.868258e+00
  1.559397e+01    1.860609e+00
  1.560985e+01    1.842600e+00
  1.562572e+01    1.798054e+00
  1.564160e+01    1.779896e+00
  1.565747e+01    1.759471e+00
  1.567335e+01    1.740776e+00
  1.568922e+01    1.719957e+00
  1.570510e+01    1.727855e+00
  1.572097e+01    1.710426e+00
  1.573685e+01    1.715859e+00
  1.575273e+01    1.709710e+00
  1.576860e+01    1.664943e+00
  1.578448e+01    1.661633e+00
  1.580035e+01    1.710445e+00
  1.581623e+01    1.690010e+00
  1.583210e+01    1.655507e+00
  1.584798e+01    1.659154e+00
  1.586385e+01    1.670266e+00
  1.587973e+01    1.635127e+00
  1.589561e+01    1.622922e+00
  1.591148e+01    1.640039e+00
  1.592736e+01    1.648973e+00
  1.594323e+01    1.601335e+00
  1.595911e+01    1.588693e+00
  1.597498e+01    1.571171e+00
  1.599086e+01    1.614269e+00
  1.600673e+01    1.611795e+00
  1.602261e+01    1.625896e+00
  1.603849e+01    1.611093e+00
  1.605436e+01    1.578485e+00
  1.607024e+01    1.581437e+00
  1.608611e+01    1.582509e+00
  1.610199e+01    1.601119e+00
  1.611786e+01    1.585993e+00
  1.613374e+01    1.598135e+00
  1.614961e+01    1.582685e+00
  1.616549e+01    1.577047e+00
  1.618137e+01    1.550996e+00
  1.619724e+01    1.531908e+00
  1.621312e+01    1.548811e+00
  1.622899e+01    1.567609e+00
  1.624487e+01    1.528957e+00
  1.626074e+01    1.527521e+00
  1.627662e+01    1.542726e+00
  1.629250e+01    1.527143e+00
  1.630837e+01    1.520171e+00
  1.632425e+01    1.522749e+00
  1.634012e+01    1.505201e+00
  1.635600e+01    1.495608e+00
  1.637187e+01    1.502079e+00
  1.638775e+01    1.535060e+00
  1.640362e+01    1.533523e+00
  1.641950e+01    1.496166e+00
  1.643538e+01    1.475247e+00
  1.645125e+01    1.508922e+00
  1.646713e+01    1.505730e+00
  1.648300e+01    1.468719e+00
  1.649888e+01    1.483619e+00
  1.651475e+01    1.497651e+00
  1.653063e+01    1.503980e+00
  1.654650e+01    1.499987e+00
  1.656238e+01    1.501092e+00
  1.657826e+01    1.490833e+00
  1.659413e+01    1.501271e+00
  1.661001e+01    1.509717e+00
  1.662588e+01    1.480628e+00
  1.664176e+01    1.486175e+00
  1.665763e+01    1.494639e+00
  1.667351e+01    1.477286e+00
  1.668938e+01    1.483495e+00
  1.670526e+01    1.445570e+00
  1.672114e+01    1.445670e+00
  1.673701e+01    1.463787e+00
  1.675289e+01    1.466608e+00
  1.676876e+01    1.464363e+00
  1.678464e+01    1.424635e+00
  1.680051e+01    1.463428e+00
  1.681639e+01    1.489651e+00
  1.683226e+01    1.464615e+00
  1.684814e+01    1.470299e+00
  1.686402e+01    1.462041e+00
  1.687989e+01    1.481565e+00
  1.689577e+01    1.463295e+00
  1.691164e+01    1.462572e+00
  1.692752e+01    1.417159e+00
  1.694339e+01    1.400108e+00
  1.695927e+01    1.404669e+00
  1.697514e+01    1.427368e+00
  1.699102e+01    1.417086e+00
  1.700690e+01    1.432753e+00
  1.702277e+01    1.431816e+00
  1.703865e+01    1.449415e+00
  1.705452e+01    1.417124e+00
  1.707040e+01    1.422095e+00
  1.708627e+01    1.435437e+00
  1.710215e+01    1.413410e+00
  1.711802e+01    1.415148e+00
  1.713390e+01    1.399861e+00
  1.714978e+01    1.406777e+00
  1.716565e+01    1.398640e+00
  1.718153e+01    1.386593e+00
  1.719740e+01    1.400653e+00
  1.721328e+01    1.406337e+00
  1.722915e+01    1.379052e+00
  1.724503e+01    1.386431e+00
  1.726091e+01    1.404648e+00
  1.727678e+01    1.385178e+00
  1.729266e+01    1.357941e+00
  1.730853e+01    1.368377e+00
  1.732441e+01    1.361206e+00
  1.734028e+01    1.373457e+00
  1.735616e+01    1.362662e+00
  1.737203e+01    1.370347e+00
  1.738791e+01    1.343544e+00
  1.740379e+01    1.343595e+00
  1.741966e+01    1.379086e+00
  1.743554e+01    1.379852e+00
  1.745141e+01    1.361061e+00
  1.746729e+01    1.358994e+00
  1.748316e+01    1.318329e+00
  1.749904e+01    1.350978e+00
  1.751491e+01    1.342460e+00
  1.753079e+01    1.350599e+00
  1.754667e+01    1.347845e+00
  1.756254e+01    1.368104e+00
  1.757842e+01    1.347233e+00
  1.759429e+01    1.342578e+00
  1.761017e+01    1.331542e+00
  1.762604e+01    1.335573e+00
  1.764192e+01    1.312169e+00
  1.765779e+01    1.313460e+00
  1.767367e+01    1.330391e+00
  1.768955e+01    1.336753e+00
  1.770542e+01    1.320885e+00
  1.772130e+01    1.331501e+00
  1.773717e+01    1.352180e+00
  1.775305e+01    1.338864e+00
  1.776892e+01    1.330817e+00
  1.778480e+01    1.355445e+00
  1.780067e+01    1.337891e+00
  1.781655e+01    1.319553e+00
  1.783243e+01    1.305150e+00
  1.784830e+01    1.305305e+00
  1.786418e+01    1.297757e+00
  1.788005e+01    1.317089e+00
  1.789593e+01    1.310020e+00
  1.791180e+01    1.285621e+00
  1.792768e+01    1.287254e+00
  1.794355e+01    1.284969e+00
  1.795943e+01    1.274943e+00
  1.797531e+01    1.283388e+00
  1.799118e+01    1.294386e+00
  1.800706e+01    1.286735e+00
  1.802293e+01    1.269764e+00
  1.803881e+01    1.283549e+00
  1.805468e+01    1.265157e+00
  1.807056e+01    1.293656e+00
  1.808643e+01    1.293379e+00
  1.810231e+01    1.296578e+00
  1.811819e+01    1.274636e+00
  1.813406e+01    1.275090e+00
  1.814994e+01    1.302836e+00
  1.816581e+01    1.290833e+00
  1.818169e+01    1.290060e+00
  1.819756e+01    1.263994e+00
  1.821344e+01    1.271626e+00
  1.822932e+01    1.266665e+00
  1.824519e+01    1.262536e+00
  1.826107e+01    1.274345e+00
  1.827694e+01    1.246307e+00
  1.829282e+01    1.248486e+00
  1.830869e+01    1.249279e+00
  1.832457e+01    1.213498e+00
  1.834044e+01    1.215516e+00
  1.835632e+01    1.267442e+00
  1.837220e+01    1.254663e+00
  1.838807e+01    1.221437e+00
  1.840395e+01    1.224506e+00
  1.841982e+01    1.240789e+00
  1.843570e+01    1.244165e+00
  1.845157e+01    1.236876e+00
  1.846745e+01    1.264102e+00
  1.848332e+01    1.241949e+00
  1.849920e+01    1.227407e+00
  1.851508e+01    1.212613e+00
  1.853095e+01    1.219987e+00
  1.854683e+01    1.243620e+00
  1.856270e+01    1.243401e+00
  1.857858e+01    1.212514e+00
  1.859445e+01    1.212138e+00
  1.861033e+01    1.224743e+00
  1.862620e+01    1.228858e+00
  1.864208e+01    1.224882e+00
  1.865796e+01    1.219697e+00
  1.867383e+01    1.209628e+00
  1.868971e+01    1.232680e+00
  1.870558e+01    1.231984e+00
  1.872146e+01    1.220113e+00
  1.873733e+01    1.248164e+00
  1.875321e+01    1.226304e+00
  1.876908e+01    1.193461e+00
  1.878496e+01    1.222845e+00
  1.880084e+01    1.218222e+00
  1.881671e+01    1.214815e+00
  1.883259e+01    1.201387e+00
  1.884846e+01    1.212405e+00
  1.886434e+01    1.209432e+00
  1.888021e+01    1.211810e+00
  1.889609e+01    1.197675e+00
  1.891196e+01    1.199294e+00
  1.892784e+01    1.198623e+00
  1.894372e+01    1.171247e+00
  1.895959e+01    1.184534e+00
  1.897547e+01    1.209777e+00
  1.899134e+01    1.181776e+00
  1.900722e+01    1.188418e+00
  1.902309e+01    1.195115e+00
  1.903897e+01    1.180902e+00
  1.905484e+01    1.180543e+00
  1.907072e+01    1.203789e+00
  1.908660e+01    1.186484e+00
  1.910247e+01    1.179691e+00
  1.911835e+01    1.186673e+00
  1.913422e+01    1.175164e+00
  1.915010e+01    1.193199e+00
  1.916597e+01    1.178310e+00
  1.918185e+01    1.178494e+00
  1.919773e+01    1.171102e+00
  1.921360e+01    1.187190e+00
  1.922948e+01    1.190951e+00
  1.924535e+01    1.174942e+00
  1.926123e+01    1.170361e+00
  1.927710e+01    1.174621e+00
  1.929298e+01    1.133794e+00
  1.930885e+01    1.154504e+00
  1.932473e+01    1.186990e+00
  1.934061e+01    1.148126e+00
  1.935648e+01    1.151463e+00
  1.937236e+01    1.168253e+00
  1.938823e+01    1.161925e+00
  1.940411e+01    1.179909e+00
  1.941998e+01    1.172302e+00
  1.943586e+01    1.168874e+00
  1.945173e+01    1.165908e+00
  1.946761e+01    1.151631e+00
  1.948349e+01    1.142443e+00
  1.949936e+01    1.138418e+00
  1.951524e+01    1.163317e+00
  1.953111e+01    1.185251e+00
  1.954699e+01    1.161265e+00
  1.956286e+01    1.139557e+00
  1.957874e+01    1.153685e+00
  1.959461e+01    1.148636e+00
  1.961049e+01    1.113274e+00
  1.962637e+01    1.128213e+00
  1.964224e+01    1.151468e+00
  1.965812e+01    1.159343e+00
  1.967399e+01    1.163444e+00
  1.968987e+01    1.159448e+00
  1.970574e+01    1.140219e+00
  1.972162e+01    1.146918e+00
  1.973749e+01    1.138465e+00
  1.975337e+01    1.115741e+00
  1.976925e+01    1.132065e+00
  1.978512e+01    1.135520e+00
  1.980100e+01    1.133753e+00
  1.981687e+01    1.134748e+00
  1.983275e+01    1.111563e+00
  1.984862e+01    1.120107e+00
  1.986450e+01    1.135193e+00
  1.988037e+01    1.126560e+00
  1.989625e+01    1.144498e+00
  1.991213e+01    1.144014e+00
  1.992800e+01    1.121063e+00
  1.994388e+01    1.129139e+00
  1.995975e+01    1.127191e+00
  1.997563e+01    1.131470e+00
  1.999150e+01    1.122803e+00
  2.000738e+01    1.107928e+00
  2.002325e+01    1.101632e+00
  2.003913e+01    1.089245e+00
  2.005501e+01    1.097125e+00
  2.007088e+01    1.114867e+00
  2.008676e+01    1.099676e+00
  2.010263e+01    1.074663e+00
  2.011851e+01    1.092632e+00
  2.013438e+01    1.101464e+00
  2.015026e+01    1.098383e+00
  2.016614e+01    1.109435e+00
  2.018201e+01    1.095059e+00
  2.019789e+01    1.092010e+00
  2.021376e+01    1.086068e+00
  2.022964e+01    1.096401e+00
  2.024551e+01    1.095345e+00
  2.026139e+01    1.100436e+00
  2.027726e+01    1.100833e+00
  2.029314e+01    1.083361e+00
  2.030902e+01    1.090038e+00
  2.032489e+01    1.105065e+00
  2.034077e+01    1.084858e+00
  2.035664e+01    1.070769e+00
  2.037252e+01    1.080348e+00
  2.038839e+01    1.087746e+00
  2.040427e+01    1.083243e+00
  2.042014e+01    1.082255e+00
  2.043602e+01    1.077288e+00
  2.045190e+01    1.063825e+00
  2.046777e+01    1.080374e+00
  2.048365e+01    1.076152e+00
  2.049952e+01    1.075683e+00
  2.051540e+01    1.074794e+00
  2.053127e+01    1.063336e+00
  2.054715e+01    1.062780e+00
  2.056302e+01    1.065269e+00
  2.057890e+01    1.071149e+00
  2.059478e+01    1.076670e+00
  2.061065e+01    1.095714e+00
  2.062653e+01    1.081651e+00
  2.064240e+01    1.075089e+00
  2.065828e+01    1.086482e+00
  2.067415e+01    1.081960e+00
  2.069003e+01    1.079509e+00
  2.070590e+01    1.057914e+00
  2.072178e+01    1.070796e+00
  2.073766e+01    1.067447e+00
  2.075353e+01    1.085282e+00
  2.076941e+01    1.070543e+00
  2.078528e+01    1.051655e+00
  2.080116e+01    1.079457e+00
  2.081703e+01    1.071532e+00
  2.083291e+01    1.068631e+00
  2.084878e+01    1.050454e+00
  2.086466e+01    1.072701e+00
  2.088054e+01    1.053323e+00
  2.089641e+01    1.053452e+00
  2.091229e+01    1.068889e+00
  2.092816e+01    1.034349e+00
  2.094404e+01    1.046818e+00
  2.095991e+01    1.083602e+00
  2.097579e+01    1.108477e+00
  2.099166e+01    1.077589e+00
  2.100754e+01    1.033786e+00
  2.102342e+01    1.059795e+00
  2.103929e+01    1.073552e+00
  2.105517e+01    1.072563e+00
  2.107104e+01    1.074282e+00
  2.108692e+01    1.070608e+00
  2.110279e+01    1.080436e+00
  2.111867e+01    1.080680e+00
  2.113455e+01    1.059462e+00
  2.115042e+01    1.064704e+00
  2.116630e+01    1.102288e+00
  2.118217e+01    1.080036e+00
  2.119805e+01    1.089567e+00
  2.121392e+01    1.079728e+00
  2.122980e+01    1.079005e+00
  2.124567e+01    1.093792e+00
  2.126155e+01    1.100637e+00
  2.127743e+01    1.114739e+00
  2.129330e+01    1.122545e+00
  2.130918e+01    1.131440e+00
  2.132505e+01    1.125928e+00
  2.134093e+01    1.138994e+00
  2.135680e+01    1.138707e+00
  2.137268e+01    1.129355e+00
  2.138855e+01    1.153678e+00
  2.140443e+01    1.179207e+00
  2.142031e+01    1.191459e+00
  2.143618e+01    1.181001e+00
  2.145206e+01    1.201643e+00
  2.146793e+01    1.235636e+00
  2.148381e+01    1.271652e+00
  2.149968e+01    1.265272e+00
  2.151556e+01    1.295168e+00
  2.153143e+01    1.320876e+00
  2.154731e+01    1.345959e+00
  2.156319e+01    1.394997e+00
  2.157906e+01    1.466979e+00
  2.159494e+01    1.531131e+00
  2.161081e+01    1.574807e+00
  2.162669e+01    1.651978e+00
  2.164256e+01    1.741150e+00
  2.165844e+01    1.880265e+00
  2.167431e+01    2.037282e+00
  2.169019e+01    2.219497e+00
  2.170607e+01    2.465285e+00
  2.172194e+01    2.753305e+00
  2.173782e+01    3.112825e+00
  2.175369e+01    3.519362e+00
  2.176957e+01    4.002235e+00
  2.178544e+01    4.602818e+00
  2.180132e+01    5.301560e+00
  2.181719e+01    6.008511e+00
  2.183307e+01    6.696866e+00
  2.184895e+01    7.533533e+00
  2.186482e+01    8.357529e+00
  2.188070e+01    9.013209e+00
  2.189657e+01    9.569115e+00
  2.191245e+01    9.792923e+00
  2.192832e+01    9.663674e+00
  2.194420e+01    9.108289e+00
  2.196007e+01    8.299006e+00
  2.197595e+01    7.173689e+00
  2.199183e+01    6.135175e+00
  2.200770e+01    5.182281e+00
  2.202358e+01    4.379349e+00
  2.203945e+01    3.773605e+00
  2.205533e+01    3.283892e+00
  2.207120e+01    2.884004e+00
  2.208708e+01    2.570093e+00
  2.210296e+01    2.304866e+00
  2.211883e+01    2.108624e+00
  2.213471e+01    1.941384e+00
  2.215058e+01    1.834484e+00
  2.216646e+01    1.689536e+00
  2.218233e+01    1.563868e+00
  2.219821e+01    1.495049e+00
  2.221408e+01    1.441712e+00
  2.222996e+01    1.382531e+00
  2.224584e+01    1.328215e+00
  2.226171e+01    1.311184e+00
  2.227759e+01    1.260361e+00
  2.229346e+01    1.216332e+00
  2.230934e+01    1.206383e+00
  2.232521e+01    1.192406e+00
  2.234109e+01    1.156911e+00
  2.235696e+01    1.129656e+00
  2.237284e+01    1.096249e+00
  2.238872e+01    1.077293e+00
  2.240459e+01    1.086295e+00
  2.242047e+01    1.090477e+00
  2.243634e+01    1.069479e+00
  2.245222e+01    1.059749e+00
  2.246809e+01    1.066020e+00
  2.248397e+01    1.071161e+00
  2.249984e+01    1.052873e+00
  2.251572e+01    1.027937e+00
  2.253160e+01    9.955154e-01
  2.254747e+01    9.987496e-01
  2.256335e+01    1.002704e+00
  2.257922e+01    9.911976e-01
  2.259510e+01    9.872931e-01
  2.261097e+01    9.754561e-01
  2.262685e+01    9.596559e-01
  2.264272e+01    9.801881e-01
  2.265860e+01    9.713921e-01
  2.267448e+01    9.292095e-01
  2.269035e+01    9.483426e-01
  2.270623e+01    9.483495e-01
  2.272210e+01    9.544536e-01
  2.273798e+01    9.491331e-01
  2.275385e+01    9.383420e-01
  2.276973e+01    9.265618e-01
  2.278560e+01    9.222110e-01
  2.280148e+01    9.325866e-01
  2.281736e+01    9.223438e-01
  2.283323e+01    9.294893e-01
  2.284911e+01    9.171212e-01
  2.286498e+01    9.072655e-01
  2.288086e+01    9.258524e-01
  2.289673e+01    9.229782e-01
  2.291261e+01    9.133314e-01
  2.292848e+01    9.230101e-01
  2.294436e+01    9.075344e-01
  2.296024e+01    8.999971e-01
  2.297611e+01    8.954051e-01
  2.299199e+01    9.138931e-01
  2.300786e+01    9.140686e-01
  2.302374e+01    8.970576e-01
  2.303961e+01    8.837689e-01
  2.305549e+01    8.759040e-01
  2.307137e+01    8.903049e-01
  2.308724e+01    8.952676e-01
  2.310312e+01    8.771521e-01
  2.311899e+01    8.675494e-01
  2.313487e+01    8.751901e-01
  2.315074e+01    8.803118e-01
  2.316662e+01    8.754142e-01
  2.318249e+01    8.757471e-01
  2.319837e+01    8.721981e-01
  2.321425e+01    8.613325e-01
  2.323012e+01    8.725548e-01
  2.324600e+01    8.680423e-01
  2.326187e+01    8.549142e-01
  2.327775e+01    8.515430e-01
  2.329362e+01    8.478548e-01
  2.330950e+01    8.814137e-01
  2.332537e+01    8.657743e-01
  2.334125e+01    8.608888e-01
  2.335713e+01    8.498343e-01
  2.337300e+01    8.398150e-01
  2.338888e+01    8.475319e-01
  2.340475e+01    8.422811e-01
  2.342063e+01    8.588669e-01
  2.343650e+01    8.614557e-01
  2.345238e+01    8.531344e-01
  2.346825e+01    8.604480e-01
  2.348413e+01    8.386151e-01
  2.350001e+01    8.374853e-01
  2.351588e+01    8.442827e-01
  2.353176e+01    8.420731e-01
  2.354763e+01    8.258970e-01
  2.356351e+01    8.413947e-01
  2.357938e+01    8.354443e-01
  2.359526e+01    8.037817e-01
  2.361113e+01    8.399356e-01
  2.362701e+01    8.394893e-01
  2.364289e+01    8.468522e-01
  2.365876e+01    8.250459e-01
  2.367464e+01    8.203299e-01
  2.369051e+01    8.257997e-01
  2.370639e+01    8.198233e-01
  2.372226e+01    8.115065e-01
  2.373814e+01    8.215169e-01
  2.375401e+01    8.076871e-01
  2.376989e+01    8.124871e-01
  2.378577e+01    8.154575e-01
  2.380164e+01    8.317050e-01
  2.381752e+01    8.197628e-01
  2.383339e+01    8.064246e-01
  2.384927e+01    7.993442e-01
  2.386514e+01    8.009758e-01
  2.388102e+01    7.879818e-01
  2.389689e+01    7.844341e-01
  2.391277e+01    7.873489e-01
  2.392865e+01    7.909553e-01
  2.394452e+01    7.872437e-01
  2.396040e+01    8.072934e-01
  2.397627e+01    7.811530e-01
  2.399215e+01    7.745374e-01
  2.400802e+01    7.608218e-01
  2.402390e+01    7.798629e-01
  2.403978e+01    7.972845e-01
  2.405565e+01    7.912211e-01
  2.407153e+01    7.748944e-01
  2.408740e+01    7.652323e-01
  2.410328e+01    7.646750e-01
  2.411915e+01    7.744976e-01
  2.413503e+01    7.800053e-01
  2.415090e+01    7.915722e-01
  2.416678e+01    7.859560e-01
  2.418266e+01    7.834014e-01
  2.419853e+01    7.778714e-01
  2.421441e+01    7.723894e-01
  2.423028e+01    7.833280e-01
  2.424616e+01    7.632425e-01
  2.426203e+01    7.737141e-01
  2.427791e+01    7.862610e-01
  2.429378e+01    7.829136e-01
  2.430966e+01    7.740389e-01
  2.432554e+01    7.696778e-01
  2.434141e+01    7.825872e-01
  2.435729e+01    7.928277e-01
  2.437316e+01    7.895927e-01
  2.438904e+01    7.944013e-01
  2.440491e+01    7.918388e-01
  2.442079e+01    7.942669e-01
  2.443666e+01    8.011025e-01
  2.445254e+01    7.842791e-01
  2.446842e+01    7.736267e-01
  2.448429e+01    7.792062e-01
  2.450017e+01    7.993824e-01
  2.451604e+01    8.027097e-01
  2.453192e+01    7.921543e-01
  2.454779e+01    7.698449e-01
  2.456367e+01    7.776172e-01
  2.457954e+01    7.964204e-01
  2.459542e+01    7.918692e-01
  2.461130e+01    7.848792e-01
  2.462717e+01    7.818554e-01
  2.464305e+01    7.962366e-01
  2.465892e+01    7.824816e-01
  2.467480e+01    7.737822e-01
  2.469067e+01    7.759002e-01
  2.470655e+01    7.757970e-01
  2.472242e+01    7.805855e-01
  2.473830e+01    7.753631e-01
  2.475418e+01    7.757737e-01
  2.477005e+01    7.800685e-01
  2.478593e+01    7.968072e-01
  2.480180e+01    7.880958e-01
  2.481768e+01    7.719988e-01
  2.483355e+01    7.750401e-01
  2.484943e+01    7.922226e-01
  2.486530e+01    7.829385e-01
  2.488118e+01    7.843729e-01
  2.489706e+01    7.792574e-01
  2.491293e+01    7.892904e-01
  2.492881e+01    8.027603e-01
  2.494468e+01    8.029941e-01
  2.496056e+01    7.940180e-01
  2.497643e+01    7.991984e-01
  2.499231e+01    7.815980e-01
  2.500819e+01    7.974852e-01
  2.502406e+01    8.127610e-01
  2.503994e+01    8.017210e-01
  2.505581e+01    7.988118e-01
  2.507169e+01    8.051591e-01
  2.508756e+01    8.099467e-01
  2.510344e+01    8.018706e-01
  2.511931e+01    7.951335e-01
  2.513519e+01    8.085393e-01
  2.515107e+01    8.232820e-01
  2.516694e+01    8.365705e-01
  2.518282e+01    8.335423e-01
  2.519869e+01    8.266241e-01
  2.521457e+01    8.240330e-01
  2.523044e+01    8.241931e-01
  2.524632e+01    8.526022e-01
  2.526219e+01    8.505426e-01
  2.527807e+01    8.542182e-01
  2.529395e+01    8.704993e-01
  2.530982e+01    8.703354e-01
  2.532570e+01    8.744642e-01
  2.534157e+01    8.716509e-01
  2.535745e+01    8.714845e-01
  2.537332e+01    8.735391e-01
  2.538920e+01    8.902634e-01
  2.540507e+01    8.913338e-01
  2.542095e+01    9.053726e-01
  2.543683e+01    9.194833e-01
  2.545270e+01    9.155821e-01
  2.546858e+01    9.336917e-01
  2.548445e+01    9.495248e-01
  2.550033e+01    9.758616e-01
  2.551620e+01    9.765875e-01
  2.553208e+01    9.900191e-01
  2.554795e+01    9.950154e-01
  2.556383e+01    1.032727e+00
  2.557971e+01    1.054070e+00
  2.559558e+01    1.077428e+00
  2.561146e+01    1.108210e+00
  2.562733e+01    1.141452e+00
  2.564321e+01    1.175037e+00
  2.565908e+01    1.258987e+00
  2.567496e+01    1.312605e+00
  2.569083e+01    1.375607e+00
  2.570671e+01    1.459511e+00
  2.572259e+01    1.571037e+00
  2.573846e+01    1.661497e+00
  2.575434e+01    1.837060e+00
  2.577021e+01    1.968779e+00
  2.578609e+01    2.210279e+00
  2.580196e+01    2.463740e+00
  2.581784e+01    2.795842e+00
  2.583371e+01    3.144646e+00
  2.584959e+01    3.581746e+00
  2.586547e+01    4.123411e+00
  2.588134e+01    4.759077e+00
  2.589722e+01    5.426157e+00
  2.591309e+01    6.147014e+00
  2.592897e+01    6.800690e+00
  2.594484e+01    7.466433e+00
  2.596072e+01    7.921835e+00
  2.597660e+01    8.097055e+00
  2.599247e+01    8.080399e+00
  2.600835e+01    7.617023e+00
  2.602422e+01    6.967310e+00
  2.604010e+01    6.164485e+00
  2.605597e+01    5.375435e+00
  2.607185e+01    4.602416e+00
  2.608772e+01    3.916165e+00
  2.610360e+01    3.348727e+00
  2.611948e+01    2.905617e+00
  2.613535e+01    2.587225e+00
  2.615123e+01    2.301464e+00
  2.616710e+01    2.105318e+00
  2.618298e+01    1.893550e+00
  2.619885e+01    1.759323e+00
  2.621473e+01    1.631501e+00
  2.623060e+01    1.473898e+00
  2.624648e+01    1.404115e+00
  2.626236e+01    1.341930e+00
  2.627823e+01    1.270569e+00
  2.629411e+01    1.207367e+00
  2.630998e+01    1.174708e+00
  2.632586e+01    1.144645e+00
  2.634173e+01    1.128829e+00
  2.635761e+01    1.090306e+00
  2.637348e+01    1.065675e+00
  2.638936e+01    1.044038e+00
  2.640524e+01    1.004413e+00
  2.642111e+01    1.003962e+00
  2.643699e+01    9.925665e-01
  2.645286e+01    9.670137e-01
  2.646874e+01    9.534993e-01
  2.648461e+01    9.443202e-01
  2.650049e+01    9.483945e-01
  2.651636e+01    9.280043e-01
  2.653224e+01    9.399223e-01
  2.654812e+01    9.481453e-01
  2.656399e+01    9.144543e-01
  2.657987e+01    9.177539e-01
  2.659574e+01    9.077703e-01
  2.661162e+01    9.054196e-01
  2.662749e+01    9.275888e-01
  2.664337e+01    9.269816e-01
  2.665924e+01    9.259388e-01
  2.667512e+01    9.131733e-01
  2.669100e+01    8.962235e-01
  2.670687e+01    8.996719e-01
  2.672275e+01    9.100835e-01
  2.673862e+01    8.860844e-01
  2.675450e+01    8.593315e-01
  2.677037e+01    8.601284e-01
  2.678625e+01    8.952001e-01
  2.680212e+01    9.124907e-01
  2.681800e+01    9.177243e-01
  2.683388e+01    9.145322e-01
  2.684975e+01    9.013715e-01
  2.686563e+01    9.085779e-01
  2.688150e+01    9.069293e-01
  2.689738e+01    9.109115e-01
  2.691325e+01    9.227635e-01
  2.692913e+01    9.267120e-01
  2.694501e+01    9.422323e-01
  2.696088e+01    9.613783e-01
  2.697676e+01    9.720355e-01
  2.699263e+01    9.952430e-01
  2.700851e+01    1.014529e+00
  2.702438e+01    1.056087e+00
  2.704026e+01    1.087207e+00
  2.705613e+01    1.134112e+00
  2.707201e+01    1.188634e+00
  2.708789e+01    1.250186e+00
  2.710376e+01    1.348664e+00
  2.711964e+01    1.441341e+00
  2.713551e+01    1.589170e+00
  2.715139e+01    1.708988e+00
  2.716726e+01    1.851573e+00
  2.718314e+01    2.014544e+00
  2.719901e+01    2.181013e+00
  2.721489e+01    2.267406e+00
  2.723077e+01    2.355216e+00
  2.724664e+01    2.383753e+00
  2.726252e+01    2.341699e+00
  2.727839e+01    2.190961e+00
  2.729427e+01    2.014311e+00
  2.731014e+01    1.854886e+00
  2.732602e+01    1.717350e+00
  2.734189e+01    1.545421e+00
  2.735777e+01    1.407426e+00
  2.737365e+01    1.292451e+00
  2.738952e+01    1.196479e+00
  2.740540e+01    1.132455e+00
  2.742127e+01    1.121331e+00
  2.743715e+01    1.081606e+00
  2.745302e+01    1.011704e+00
  2.746890e+01    9.805024e-01
  2.748477e+01    9.657317e-01
  2.750065e+01    9.378910e-01
  2.751653e+01    9.264959e-01
  2.753240e+01    9.090975e-01
  2.754828e+01    8.980383e-01
  2.756415e+01    8.812255e-01
  2.758003e+01    8.762436e-01
  2.759590e+01    8.620619e-01
  2.761178e+01    8.468828e-01
  2.762765e+01    8.623273e-01
  2.764353e+01    8.456440e-01
  2.765941e+01    8.400605e-01
  2.767528e+01    8.177078e-01
  2.769116e+01    8.225405e-01
  2.770703e+01    8.359485e-01
  2.772291e+01    8.098984e-01
  2.773878e+01    8.070003e-01
  2.775466e+01    8.105045e-01
  2.777054e+01    8.089058e-01
  2.778641e+01    8.085079e-01
  2.780229e+01    8.172176e-01
  2.781816e+01    8.119158e-01
  2.783404e+01    8.184748e-01
  2.784991e+01    8.149455e-01
  2.786579e+01    7.837206e-01
  2.788166e+01    7.835488e-01
  2.789754e+01    8.082405e-01
  2.791342e+01    8.042867e-01
  2.792929e+01    7.963590e-01
  2.794517e+01    7.857827e-01
  2.796104e+01    8.003355e-01
  2.797692e+01    7.820178e-01
  2.799279e+01    7.778885e-01
  2.800867e+01    8.026707e-01
  2.802454e+01    7.850575e-01
  2.804042e+01    7.723856e-01
  2.805630e+01    7.742869e-01
  2.807217e+01    7.606586e-01
  2.808805e+01    7.793870e-01
  2.810392e+01    7.801508e-01
  2.811980e+01    7.687079e-01
  2.813567e+01    7.487513e-01
  2.815155e+01    7.810895e-01
  2.816742e+01    7.761289e-01
  2.818330e+01    7.663548e-01
  2.819918e+01    7.602628e-01
  2.821505e+01    7.648646e-01
  2.823093e+01    7.611895e-01
  2.824680e+01    7.690389e-01
  2.826268e+01    7.639126e-01
  2.827855e+01    7.800364e-01
  2.829443e+01    7.817119e-01
  2.831030e+01    7.714964e-01
  2.832618e+01    7.597771e-01
  2.834206e+01    7.629906e-01
  2.835793e+01    7.487489e-01
  2.837381e+01    7.671989e-01
  2.838968e+01    7.757024e-01
  2.840556e+01    7.660260e-01
  2.842143e+01    7.779124e-01
  2.843731e+01    7.501355e-01
  2.845318e+01    7.599330e-01
  2.846906e+01    7.553176e-01
  2.848494e+01    7.351635e-01
  2.850081e+01    7.489515e-01
  2.851669e+01    7.538603e-01
  2.853256e+01    7.536505e-01
  2.854844e+01    7.727143e-01
  2.856431e+01    7.597389e-01
  2.858019e+01    7.589960e-01
  2.859606e+01    7.540656e-01
  2.861194e+01    7.584345e-01
  2.862782e+01    7.741368e-01
  2.864369e+01    7.699332e-01
  2.865957e+01    7.706186e-01
  2.867544e+01    7.492802e-01
  2.869132e+01    7.650132e-01
  2.870719e+01    7.651596e-01
  2.872307e+01    7.799434e-01
  2.873895e+01    7.747205e-01
  2.875482e+01    7.400848e-01
  2.877070e+01    7.382557e-01
  2.878657e+01    7.430888e-01
  2.880245e+01    7.432349e-01
  2.881832e+01    7.298983e-01
  2.883420e+01    7.285110e-01
  2.885007e+01    7.318387e-01
  2.886595e+01    7.388617e-01
  2.888183e+01    7.461387e-01
  2.889770e+01    7.496252e-01
  2.891358e+01    7.308345e-01
  2.892945e+01    7.336265e-01
  2.894533e+01    7.338229e-01
  2.896120e+01    7.254801e-01
  2.897708e+01    7.533762e-01
  2.899295e+01    7.187941e-01
  2.900883e+01    7.352634e-01
  2.902471e+01    7.520939e-01
  2.904058e+01    7.523327e-01
  2.905646e+01    7.593881e-01
  2.907233e+01    7.370829e-01
  2.908821e+01    7.020044e-01
  2.910408e+01    7.172161e-01
  2.911996e+01    7.295738e-01
  2.913583e+01    7.381936e-01
  2.915171e+01    7.242905e-01
  2.916759e+01    7.372992e-01
  2.918346e+01    7.251016e-01
  2.919934e+01    7.394763e-01
  2.921521e+01    7.461042e-01
  2.923109e+01    7.643612e-01
  2.924696e+01    7.421030e-01
  2.926284e+01    7.251997e-01
  2.927871e+01    7.428607e-01
  2.929459e+01    7.118105e-01
  2.931047e+01    7.140578e-01
  2.932634e+01    7.167625e-01
  2.934222e+01    7.182199e-01
  2.935809e+01    7.104625e-01
  2.937397e+01    7.047715e-01
  2.938984e+01    7.212433e-01
  2.940572e+01    7.236270e-01
  2.942159e+01    7.195225e-01
  2.943747e+01    7.062467e-01
  2.945335e+01    7.188581e-01
  2.946922e+01    7.394599e-01
  2.948510e+01    7.442293e-01
  2.950097e+01    7.280459e-01
  2.951685e+01    7.384385e-01
  2.953272e+01    7.231371e-01
  2.954860e+01    7.252802e-01
  2.956447e+01    7.263629e-01
  2.958035e+01    7.224356e-01
  2.959623e+01    7.382439e-01
  2.961210e+01    7.310543e-01
  2.962798e+01    7.030481e-01
  2.964385e+01    7.245602e-01
  2.965973e+01    7.269252e-01
  2.967560e+01    6.949563e-01
  2.969148e+01    7.094105e-01
  2.970736e+01    7.209223e-01
  2.972323e+01    7.253982e-01
  2.973911e+01    7.140025e-01
  2.975498e+01    7.282935e-01
  2.977086e+01    7.069408e-01
  2.978673e+01    7.098813e-01
  2.980261e+01    7.025883e-01
  2.981848e+01    6.900595e-01
  2.983436e+01    7.270757e-01
  2.985024e+01    7.163959e-01
  2.986611e+01    7.052557e-01
  2.988199e+01    7.086956e-01
  2.989786e+01    7.090237e-01
  2.991374e+01    7.339370e-01
  2.992961e+01    7.167967e-01
  2.994549e+01    7.264703e-01
  2.996136e+01    7.117544e-01
  2.997724e+01    7.336409e-01
  2.999312e+01    7.265645e-01
  3.000899e+01    7.386925e-01
  3.002487e+01    7.272812e-01
  3.004074e+01    7.167727e-01
  3.005662e+01    7.244449e-01
  3.007249e+01    7.380654e-01
  3.008837e+01    7.286308e-01
  3.010424e+01    7.356170e-01
  3.012012e+01    7.231863e-01
  3.013600e+01    7.111748e-01
  3.015187e+01    7.326906e-01
  3.016775e+01    7.221130e-01
  3.018362e+01    7.023575e-01
  3.019950e+01    7.137806e-01
  3.021537e+01    7.310840e-01
  3.023125e+01    7.219865e-01
  3.024712e+01    7.062272e-01
  3.026300e+01    6.942446e-01
  3.027888e+01    7.214589e-01
  3.029475e+01    7.261163e-01
  3.031063e+01    7.104401e-01
  3.032650e+01    6.998641e-01
  3.034238e+01    7.014527e-01
  3.035825e+01    7.243142e-01
  3.037413e+01    7.102270e-01
  3.039000e+01    7.018260e-01
  3.040588e+01    7.008340e-01
  3.042176e+01    7.078969e-01
  3.043763e+01    7.094529e-01
  3.045351e+01    7.106493e-01
  3.046938e+01    7.150017e-01
  3.048526e+01    6.860254e-01
  3.050113e+01    6.872657e-01
  3.051701e+01    7.061376e-01
  3.053288e+01    7.029389e-01
  3.054876e+01    7.009266e-01
  3.056464e+01    6.925553e-01
  3.058051e+01    6.844416e-01
  3.059639e+01    6.869727e-01
  3.061226e+01    6.912858e-01
  3.062814e+01    7.114379e-01
  3.064401e+01    7.147100e-01
  3.065989e+01    7.065093e-01
  3.067577e+01    7.108324e-01
  3.069164e+01    7.015659e-01
  3.070752e+01    7.134569e-01
  3.072339e+01    7.053731e-01
  3.073927e+01    7.134373e-01
  3.075514e+01    7.123142e-01
  3.077102e+01    6.933247e-01
  3.078689e+01    6.910385e-01
  3.080277e+01    6.929025e-01
  3.081865e+01    6.857076e-01
  3.083452e+01    6.943651e-01
  3.085040e+01    6.979568e-01
  3.086627e+01    7.101728e-01
  3.088215e+01    6.971645e-01
  3.089802e+01    7.128823e-01
  3.091390e+01    7.225149e-01
  3.092977e+01    7.418795e-01
  3.094565e+01    7.177984e-01
  3.096153e+01    7.191924e-01
  3.097740e+01    7.028003e-01
  3.099328e+01    7.066994e-01
  3.100915e+01    7.115901e-01
  3.102503e+01    7.141930e-01
  3.104090e+01    7.103873e-01
  3.105678e+01    7.021818e-01
  3.107265e+01    7.016447e-01
  3.108853e+01    7.294304e-01
  3.110441e+01    7.282491e-01
  3.112028e+01    7.203118e-01
  3.113616e+01    6.925863e-01
  3.115203e+01    7.026342e-01
  3.116791e+01    7.266622e-01
  3.118378e+01    7.140744e-01
  3.119966e+01    6.981794e-01
  3.121553e+01    7.105048e-01
  3.123141e+01    7.154884e-01
  3.124729e+01    7.333845e-01
  3.126316e+01    7.386857e-01
  3.127904e+01    7.439082e-01
  3.129491e+01    7.517503e-01
  3.131079e+01    7.478373e-01
  3.132666e+01    7.404242e-01
  3.134254e+01    7.224852e-01
  3.135841e+01    7.234579e-01
  3.137429e+01    7.211883e-01
  3.139017e+01    7.328424e-01
  3.140604e+01    7.261161e-01
  3.142192e+01    7.382850e-01
  3.143779e+01    7.469897e-01
  3.145367e+01    7.456096e-01
  3.146954e+01    7.895285e-01
  3.148542e+01    7.797073e-01
  3.150129e+01    7.514429e-01
  3.151717e+01    7.475689e-01
  3.153305e+01    7.850006e-01
  3.154892e+01    7.817827e-01
  3.156480e+01    7.895347e-01
  3.158067e+01    7.924215e-01
  3.159655e+01    8.044040e-01
  3.161242e+01    7.906790e-01
  3.162830e+01    8.180140e-01
  3.164418e+01    8.196555e-01
  3.166005e+01    8.672574e-01
  3.167593e+01    8.813318e-01
  3.169180e+01    8.948733e-01
  3.170768e+01    9.241681e-01
  3.172355e+01    9.587729e-01
  3.173943e+01    1.012379e+00
  3.175530e+01    1.072316e+00
  3.177118e+01    1.147166e+00
  3.178706e+01    1.239950e+00
  3.180293e+01    1.345970e+00
  3.181881e+01    1.435434e+00
  3.183468e+01    1.548491e+00
  3.185056e+01    1.715047e+00
  3.186643e+01    1.897580e+00
  3.188231e+01    2.063469e+00
  3.189818e+01    2.235039e+00
  3.191406e+01    2.335801e+00
  3.192994e+01    2.342310e+00
  3.194581e+01    2.321152e+00
  3.196169e+01    2.223474e+00
  3.197756e+01    2.096795e+00
  3.199344e+01    1.960181e+00
  3.200931e+01    1.790025e+00
  3.202519e+01    1.575982e+00
  3.204106e+01    1.434993e+00
  3.205694e+01    1.339677e+00
  3.207282e+01    1.218523e+00
  3.208869e+01    1.125802e+00
  3.210457e+01    1.066263e+00
  3.212044e+01    1.025948e+00
  3.213632e+01    9.776635e-01
  3.215219e+01    9.262165e-01
  3.216807e+01    9.117825e-01
  3.218394e+01    8.551767e-01
  3.219982e+01    8.652835e-01
  3.221570e+01    8.354511e-01
  3.223157e+01    8.169042e-01
  3.224745e+01    8.200750e-01
  3.226332e+01    8.107201e-01
  3.227920e+01    7.838534e-01
  3.229507e+01    7.635856e-01
  3.231095e+01    7.657261e-01
  3.232682e+01    7.647567e-01
  3.234270e+01    7.679765e-01
  3.235858e+01    7.573356e-01
  3.237445e+01    7.370391e-01
  3.239033e+01    7.584611e-01
  3.240620e+01    7.521497e-01
  3.242208e+01    7.444402e-01
  3.243795e+01    7.441676e-01
  3.245383e+01    7.341785e-01
  3.246970e+01    7.752866e-01
  3.248558e+01    7.627243e-01
  3.250146e+01    7.216638e-01
  3.251733e+01    7.172012e-01
  3.253321e+01    7.189425e-01
  3.254908e+01    7.126132e-01
