# == pyFAI calibration ==
# Distance Sample to Detector: 0.3999999939076516 m
# PONI: 9.750e-02, 1.135e-01 m
# Rotations: -0.000175 0.000000 -0.000000 rad
# 
# == Fit2d calibration ==
# Distance Sample-beamCenter: 400.000 mm
# Center: x=1514.000, y=1300.000 pix
# Tilt: 0.010 deg  TiltPlanRot: 0.010 deg
# 
# Detector Detector	 Spline= None	 PixelSize= 7.500e-05, 7.500e-05 m
#    Detector has a mask: False 
#    Detector has a dark current: False 
#    detector has a flat field: False 
# 
# Wavelength: 6.888e-11 m
# Mask applied: user provided
# Dark current applied: False
# Flat field applied: False
# Polarization factor: 0.99
# Normalization factor: 1.0
# --> /home/myspot/data/2024_07_Rosario/Ru-CGO-ex/2024-07-27_002_Ru-CGO-ex_Activtation_ramp_000002_data_000110.dat
#       q_nm^-1             I 
  2.003187e-02    1.647344e-01
  3.590745e-02    1.261692e-01
  5.178302e-02    8.768985e-02
  6.765859e-02    5.346302e-02
  8.353417e-02    8.431942e-02
  9.940974e-02    8.705166e-02
  1.152853e-01    7.406245e-02
  1.311609e-01    2.671539e-03
  1.470365e-01    0.000000e+00
  1.629120e-01    0.000000e+00
  1.787876e-01    0.000000e+00
  1.946632e-01    1.098463e-02
  2.105388e-01    4.507859e-02
  2.264143e-01    4.243307e-02
  2.422899e-01    3.209206e-02
  2.581655e-01    2.047611e-02
  2.740411e-01    1.670911e-02
  2.899166e-01    4.292955e-02
  3.057922e-01    4.358960e-02
  3.216678e-01    4.342394e-02
  3.375433e-01    2.487759e-02
  3.534189e-01    5.435245e-02
  3.692945e-01    8.394553e-03
  3.851701e-01    0.000000e+00
  4.010456e-01    1.825567e-02
  4.169212e-01    2.240423e-02
  4.327968e-01    2.139193e-02
  4.486724e-01    3.973771e-02
  4.645479e-01    3.513635e-02
  4.804235e-01    2.666232e-02
  4.962991e-01    3.420366e-02
  5.121747e-01    4.165788e-02
  5.280502e-01    1.761739e-02
  5.439258e-01    4.572596e-02
  5.598014e-01    4.910782e-02
  5.756770e-01    2.762394e-02
  5.915525e-01    4.536130e-02
  6.074281e-01    4.280587e-02
  6.233037e-01    2.981179e-02
  6.391793e-01    1.767853e-02
  6.550548e-01    4.052315e-02
  6.709304e-01    4.162207e-02
  6.868060e-01    4.417037e-02
  7.026815e-01    4.520569e-02
  7.185571e-01    5.063513e-02
  7.344327e-01    5.141853e-02
  7.503083e-01    4.130057e-02
  7.661838e-01    7.973272e-02
  7.820594e-01    1.247345e-01
  7.979350e-01    1.192284e-01
  8.138106e-01    1.556527e-01
  8.296861e-01    2.650246e-01
  8.455617e-01    2.825908e-01
  8.614373e-01    2.765796e-01
  8.773129e-01    3.727663e-01
  8.931884e-01    4.618162e-01
  9.090640e-01    5.292295e-01
  9.249396e-01    6.536750e-01
  9.408152e-01    7.001370e-01
  9.566907e-01    7.365007e-01
  9.725663e-01    8.649374e-01
  9.884419e-01    1.031999e+00
  1.004317e+00    1.070354e+00
  1.020193e+00    1.046429e+00
  1.036069e+00    1.189289e+00
  1.051944e+00    1.244177e+00
  1.067820e+00    1.372935e+00
  1.083695e+00    1.325589e+00
  1.099571e+00    1.308672e+00
  1.115446e+00    1.395567e+00
  1.131322e+00    1.472990e+00
  1.147198e+00    1.391956e+00
  1.163073e+00    1.467686e+00
  1.178949e+00    1.507461e+00
  1.194824e+00    1.650876e+00
  1.210700e+00    1.777269e+00
  1.226575e+00    2.003864e+00
  1.242451e+00    2.207308e+00
  1.258327e+00    2.205589e+00
  1.274202e+00    2.380776e+00
  1.290078e+00    2.476625e+00
  1.305953e+00    2.528046e+00
  1.321829e+00    2.354656e+00
  1.337705e+00    2.487130e+00
  1.353580e+00    2.511965e+00
  1.369456e+00    2.550406e+00
  1.385331e+00    2.529345e+00
  1.401207e+00    2.546309e+00
  1.417082e+00    2.704118e+00
  1.432958e+00    2.677380e+00
  1.448834e+00    2.816012e+00
  1.464709e+00    2.850754e+00
  1.480585e+00    2.774575e+00
  1.496460e+00    2.956531e+00
  1.512336e+00    2.840989e+00
  1.528211e+00    2.888411e+00
  1.544087e+00    3.037915e+00
  1.559963e+00    2.996612e+00
  1.575838e+00    2.881287e+00
  1.591714e+00    2.725291e+00
  1.607589e+00    2.847439e+00
  1.623465e+00    2.866922e+00
  1.639340e+00    2.887212e+00
  1.655216e+00    2.911729e+00
  1.671092e+00    2.737866e+00
  1.686967e+00    2.752635e+00
  1.702843e+00    2.819016e+00
  1.718718e+00    2.803996e+00
  1.734594e+00    2.734115e+00
  1.750469e+00    2.621448e+00
  1.766345e+00    2.679476e+00
  1.782221e+00    2.726332e+00
  1.798096e+00    2.838388e+00
  1.813972e+00    2.851516e+00
  1.829847e+00    2.858095e+00
  1.845723e+00    2.759670e+00
  1.861598e+00    2.696770e+00
  1.877474e+00    2.678438e+00
  1.893350e+00    2.584749e+00
  1.909225e+00    2.706790e+00
  1.925101e+00    2.730300e+00
  1.940976e+00    2.651920e+00
  1.956852e+00    2.748750e+00
  1.972727e+00    2.619728e+00
  1.988603e+00    2.625325e+00
  2.004479e+00    2.759432e+00
  2.020354e+00    2.778924e+00
  2.036230e+00    2.768896e+00
  2.052105e+00    2.705985e+00
  2.067981e+00    2.612261e+00
  2.083856e+00    2.589533e+00
  2.099732e+00    2.718539e+00
  2.115608e+00    2.767395e+00
  2.131483e+00    2.805484e+00
  2.147359e+00    2.774374e+00
  2.163234e+00    2.691695e+00
  2.179110e+00    2.694067e+00
  2.194985e+00    2.635333e+00
  2.210861e+00    2.669336e+00
  2.226737e+00    2.716203e+00
  2.242612e+00    2.699488e+00
  2.258488e+00    2.704756e+00
  2.274363e+00    2.681635e+00
  2.290239e+00    2.667259e+00
  2.306115e+00    2.668333e+00
  2.321990e+00    2.688680e+00
  2.337866e+00    2.595400e+00
  2.353741e+00    2.638303e+00
  2.369617e+00    2.724611e+00
  2.385492e+00    2.813515e+00
  2.401368e+00    2.752167e+00
  2.417244e+00    2.770773e+00
  2.433119e+00    2.687043e+00
  2.448995e+00    2.717897e+00
  2.464870e+00    2.709861e+00
  2.480746e+00    2.696673e+00
  2.496621e+00    2.761519e+00
  2.512497e+00    2.702605e+00
  2.528373e+00    2.676889e+00
  2.544248e+00    2.732946e+00
  2.560124e+00    2.797552e+00
  2.575999e+00    2.799101e+00
  2.591875e+00    2.734231e+00
  2.607750e+00    2.676891e+00
  2.623626e+00    2.631685e+00
  2.639502e+00    2.729594e+00
  2.655377e+00    2.740635e+00
  2.671253e+00    2.751207e+00
  2.687128e+00    2.719452e+00
  2.703004e+00    2.772331e+00
  2.718879e+00    2.826568e+00
  2.734755e+00    2.753958e+00
  2.750631e+00    2.797069e+00
  2.766506e+00    2.840791e+00
  2.782382e+00    2.756063e+00
  2.798257e+00    2.723258e+00
  2.814133e+00    2.827378e+00
  2.830008e+00    2.798234e+00
  2.845884e+00    2.755607e+00
  2.861760e+00    2.867329e+00
  2.877635e+00    2.844700e+00
  2.893511e+00    2.752758e+00
  2.909386e+00    2.742858e+00
  2.925262e+00    2.794924e+00
  2.941137e+00    2.865657e+00
  2.957013e+00    2.834632e+00
  2.972889e+00    2.811689e+00
  2.988764e+00    2.828890e+00
  3.004640e+00    2.812051e+00
  3.020515e+00    2.779811e+00
  3.036391e+00    2.846591e+00
  3.052266e+00    2.839108e+00
  3.068142e+00    2.898754e+00
  3.084018e+00    2.931125e+00
  3.099893e+00    2.805692e+00
  3.115769e+00    2.824349e+00
  3.131644e+00    2.860077e+00
  3.147520e+00    2.880373e+00
  3.163395e+00    2.937747e+00
  3.179271e+00    2.816998e+00
  3.195147e+00    2.804443e+00
  3.211022e+00    2.840035e+00
  3.226898e+00    2.814413e+00
  3.242773e+00    2.762496e+00
  3.258649e+00    2.826797e+00
  3.274525e+00    2.906074e+00
  3.290400e+00    2.949608e+00
  3.306276e+00    2.931938e+00
  3.322151e+00    2.843974e+00
  3.338027e+00    2.838102e+00
  3.353902e+00    2.819267e+00
  3.369778e+00    2.905282e+00
  3.385654e+00    2.900485e+00
  3.401529e+00    2.878070e+00
  3.417405e+00    2.871148e+00
  3.433280e+00    2.966346e+00
  3.449156e+00    2.872067e+00
  3.465031e+00    2.952240e+00
  3.480907e+00    2.882044e+00
  3.496783e+00    2.889178e+00
  3.512658e+00    3.040892e+00
  3.528534e+00    2.981263e+00
  3.544409e+00    2.943888e+00
  3.560285e+00    2.923333e+00
  3.576160e+00    2.855491e+00
  3.592036e+00    2.873386e+00
  3.607912e+00    2.880524e+00
  3.623787e+00    2.966630e+00
  3.639663e+00    2.966453e+00
  3.655538e+00    2.909328e+00
  3.671414e+00    2.971051e+00
  3.687289e+00    2.991743e+00
  3.703165e+00    2.983091e+00
  3.719041e+00    3.018426e+00
  3.734916e+00    2.962542e+00
  3.750792e+00    2.975202e+00
  3.766667e+00    2.946170e+00
  3.782543e+00    2.881148e+00
  3.798418e+00    2.822361e+00
  3.814294e+00    2.882248e+00
  3.830170e+00    2.907969e+00
  3.846045e+00    2.913080e+00
  3.861921e+00    2.838976e+00
  3.877796e+00    2.970734e+00
  3.893672e+00    2.947742e+00
  3.909547e+00    2.980071e+00
  3.925423e+00    2.917706e+00
  3.941299e+00    2.993538e+00
  3.957174e+00    2.947263e+00
  3.973050e+00    2.941799e+00
  3.988925e+00    2.969522e+00
  4.004801e+00    3.030148e+00
  4.020676e+00    3.051634e+00
  4.036552e+00    2.891960e+00
  4.052428e+00    2.890107e+00
  4.068303e+00    3.008342e+00
  4.084179e+00    3.042291e+00
  4.100054e+00    2.973485e+00
  4.115930e+00    2.938314e+00
  4.131806e+00    2.941344e+00
  4.147681e+00    2.990463e+00
  4.163557e+00    2.960212e+00
  4.179432e+00    2.955396e+00
  4.195308e+00    2.924805e+00
  4.211183e+00    2.943815e+00
  4.227059e+00    2.916293e+00
  4.242935e+00    3.005920e+00
  4.258810e+00    3.016973e+00
  4.274686e+00    2.990119e+00
  4.290561e+00    2.979124e+00
  4.306437e+00    3.017962e+00
  4.322312e+00    2.942989e+00
  4.338188e+00    2.996633e+00
  4.354064e+00    3.074914e+00
  4.369939e+00    3.049672e+00
  4.385815e+00    2.988961e+00
  4.401690e+00    2.957492e+00
  4.417566e+00    3.021077e+00
  4.433441e+00    3.034285e+00
  4.449317e+00    3.068182e+00
  4.465193e+00    3.042502e+00
  4.481068e+00    3.082948e+00
  4.496944e+00    3.007729e+00
  4.512819e+00    2.952389e+00
  4.528695e+00    2.916044e+00
  4.544570e+00    2.958941e+00
  4.560446e+00    3.038308e+00
  4.576322e+00    3.064805e+00
  4.592197e+00    3.093611e+00
  4.608073e+00    3.078239e+00
  4.623948e+00    3.059879e+00
  4.639824e+00    3.062265e+00
  4.655699e+00    3.112992e+00
  4.671575e+00    3.063774e+00
  4.687451e+00    3.017004e+00
  4.703326e+00    3.052438e+00
  4.719202e+00    3.138132e+00
  4.735077e+00    3.249845e+00
  4.750953e+00    3.140663e+00
  4.766828e+00    3.028701e+00
  4.782704e+00    2.995623e+00
  4.798580e+00    2.987351e+00
  4.814455e+00    3.000921e+00
  4.830331e+00    2.977006e+00
  4.846206e+00    3.054253e+00
  4.862082e+00    3.057416e+00
  4.877957e+00    3.048401e+00
  4.893833e+00    3.079508e+00
  4.909709e+00    3.019719e+00
  4.925584e+00    2.993488e+00
  4.941460e+00    3.019508e+00
  4.957335e+00    3.047290e+00
  4.973211e+00    3.071476e+00
  4.989086e+00    2.952208e+00
  5.004962e+00    3.071517e+00
  5.020838e+00    3.121850e+00
  5.036713e+00    3.120953e+00
  5.052589e+00    3.049155e+00
  5.068464e+00    3.042949e+00
  5.084340e+00    3.095177e+00
  5.100216e+00    3.134954e+00
  5.116091e+00    3.062990e+00
  5.131967e+00    3.064348e+00
  5.147842e+00    3.106237e+00
  5.163718e+00    3.051768e+00
  5.179593e+00    3.126829e+00
  5.195469e+00    3.088551e+00
  5.211345e+00    3.082814e+00
  5.227220e+00    3.045815e+00
  5.243096e+00    3.114743e+00
  5.258971e+00    3.095202e+00
  5.274847e+00    3.032258e+00
  5.290722e+00    2.982872e+00
  5.306598e+00    2.995149e+00
  5.322474e+00    3.018390e+00
  5.338349e+00    3.091488e+00
  5.354225e+00    3.036327e+00
  5.370100e+00    3.095472e+00
  5.385976e+00    3.103581e+00
  5.401851e+00    3.034463e+00
  5.417727e+00    2.986191e+00
  5.433603e+00    3.052757e+00
  5.449478e+00    3.083584e+00
  5.465354e+00    3.089791e+00
  5.481229e+00    3.098365e+00
  5.497105e+00    3.051624e+00
  5.512980e+00    2.999501e+00
  5.528856e+00    3.027034e+00
  5.544732e+00    3.073744e+00
  5.560607e+00    3.050740e+00
  5.576483e+00    3.019746e+00
  5.592358e+00    3.012268e+00
  5.608234e+00    3.100286e+00
  5.624109e+00    3.078043e+00
  5.639985e+00    2.991551e+00
  5.655861e+00    3.022058e+00
  5.671736e+00    3.091153e+00
  5.687612e+00    3.080141e+00
  5.703487e+00    2.965888e+00
  5.719363e+00    3.024237e+00
  5.735238e+00    2.987431e+00
  5.751114e+00    3.036874e+00
  5.766990e+00    3.054671e+00
  5.782865e+00    3.079925e+00
  5.798741e+00    3.033391e+00
  5.814616e+00    2.999338e+00
  5.830492e+00    2.974960e+00
  5.846367e+00    2.963658e+00
  5.862243e+00    2.977310e+00
  5.878119e+00    2.960443e+00
  5.893994e+00    2.970822e+00
  5.909870e+00    3.022481e+00
  5.925745e+00    3.009864e+00
  5.941621e+00    2.922148e+00
  5.957497e+00    2.934437e+00
  5.973372e+00    2.956579e+00
  5.989248e+00    2.959381e+00
  6.005123e+00    3.027461e+00
  6.020999e+00    2.982812e+00
  6.036874e+00    2.919400e+00
  6.052750e+00    2.946482e+00
  6.068626e+00    2.975137e+00
  6.084501e+00    2.961085e+00
  6.100377e+00    3.006925e+00
  6.116252e+00    3.011347e+00
  6.132128e+00    3.017125e+00
  6.148003e+00    2.989340e+00
  6.163879e+00    3.016773e+00
  6.179755e+00    3.131112e+00
  6.195630e+00    3.013252e+00
  6.211506e+00    2.996834e+00
  6.227381e+00    3.013969e+00
  6.243257e+00    2.956055e+00
  6.259132e+00    2.890649e+00
  6.275008e+00    2.927971e+00
  6.290884e+00    2.992364e+00
  6.306759e+00    3.000859e+00
  6.322635e+00    2.975407e+00
  6.338510e+00    2.981433e+00
  6.354386e+00    3.000427e+00
  6.370261e+00    2.973677e+00
  6.386137e+00    2.962937e+00
  6.402013e+00    3.064371e+00
  6.417888e+00    3.014389e+00
  6.433764e+00    2.974984e+00
  6.449639e+00    2.990583e+00
  6.465515e+00    2.922538e+00
  6.481390e+00    2.905978e+00
  6.497266e+00    2.961877e+00
  6.513142e+00    2.988482e+00
  6.529017e+00    2.987017e+00
  6.544893e+00    2.982625e+00
  6.560768e+00    2.933247e+00
  6.576644e+00    2.974633e+00
  6.592519e+00    2.942432e+00
  6.608395e+00    2.983563e+00
  6.624271e+00    3.024060e+00
  6.640146e+00    3.060339e+00
  6.656022e+00    3.013875e+00
  6.671897e+00    2.998343e+00
  6.687773e+00    3.051802e+00
  6.703648e+00    3.023813e+00
  6.719524e+00    2.952861e+00
  6.735400e+00    3.020785e+00
  6.751275e+00    3.011975e+00
  6.767151e+00    3.062854e+00
  6.783026e+00    3.047436e+00
  6.798902e+00    2.985108e+00
  6.814777e+00    3.008319e+00
  6.830653e+00    2.983510e+00
  6.846529e+00    2.967445e+00
  6.862404e+00    3.048511e+00
  6.878280e+00    2.992306e+00
  6.894155e+00    3.007237e+00
  6.910031e+00    2.931273e+00
  6.925907e+00    2.932608e+00
  6.941782e+00    2.964966e+00
  6.957658e+00    2.929455e+00
  6.973533e+00    2.983196e+00
  6.989409e+00    3.010802e+00
  7.005284e+00    2.928253e+00
  7.021160e+00    2.950077e+00
  7.037036e+00    2.941944e+00
  7.052911e+00    2.902979e+00
  7.068787e+00    2.976366e+00
  7.084662e+00    2.966500e+00
  7.100538e+00    2.953339e+00
  7.116413e+00    2.915333e+00
  7.132289e+00    3.001813e+00
  7.148165e+00    2.958445e+00
  7.164040e+00    2.993351e+00
  7.179916e+00    2.994209e+00
  7.195791e+00    2.982337e+00
  7.211667e+00    2.988542e+00
  7.227542e+00    2.962396e+00
  7.243418e+00    2.895104e+00
  7.259294e+00    2.930498e+00
  7.275169e+00    2.999372e+00
  7.291045e+00    2.986991e+00
  7.306920e+00    2.954499e+00
  7.322796e+00    2.940912e+00
  7.338671e+00    2.916617e+00
  7.354547e+00    2.943574e+00
  7.370423e+00    2.917230e+00
  7.386298e+00    2.905970e+00
  7.402174e+00    2.920391e+00
  7.418049e+00    2.954577e+00
  7.433925e+00    2.949921e+00
  7.449800e+00    2.910686e+00
  7.465676e+00    2.881533e+00
  7.481552e+00    2.929312e+00
  7.497427e+00    2.918902e+00
  7.513303e+00    2.901015e+00
  7.529178e+00    2.885432e+00
  7.545054e+00    2.919810e+00
  7.560929e+00    2.917298e+00
  7.576805e+00    2.970872e+00
  7.592681e+00    2.962694e+00
  7.608556e+00    2.966584e+00
  7.624432e+00    2.930325e+00
  7.640307e+00    2.902415e+00
  7.656183e+00    2.917978e+00
  7.672058e+00    2.885191e+00
  7.687934e+00    2.918229e+00
  7.703810e+00    2.916236e+00
  7.719685e+00    2.901339e+00
  7.735561e+00    2.941173e+00
  7.751436e+00    2.901640e+00
  7.767312e+00    2.910518e+00
  7.783187e+00    2.855861e+00
  7.799063e+00    2.872792e+00
  7.814939e+00    2.950576e+00
  7.830814e+00    2.948301e+00
  7.846690e+00    2.899646e+00
  7.862565e+00    2.841214e+00
  7.878441e+00    2.865875e+00
  7.894317e+00    2.900731e+00
  7.910192e+00    2.919521e+00
  7.926068e+00    2.860084e+00
  7.941943e+00    2.811068e+00
  7.957819e+00    2.820688e+00
  7.973694e+00    2.812187e+00
  7.989570e+00    2.847449e+00
  8.005446e+00    2.884646e+00
  8.021321e+00    2.896303e+00
  8.037197e+00    2.899957e+00
  8.053072e+00    2.908431e+00
  8.068948e+00    2.883594e+00
  8.084823e+00    2.862308e+00
  8.100699e+00    2.950551e+00
  8.116575e+00    2.933668e+00
  8.132450e+00    2.914603e+00
  8.148326e+00    2.936193e+00
  8.164201e+00    2.877769e+00
  8.180077e+00    2.857389e+00
  8.195952e+00    2.932434e+00
  8.211828e+00    2.974140e+00
  8.227704e+00    2.904123e+00
  8.243579e+00    2.871634e+00
  8.259455e+00    2.860770e+00
  8.275330e+00    2.895559e+00
  8.291206e+00    2.925266e+00
  8.307081e+00    2.917284e+00
  8.322957e+00    2.895742e+00
  8.338833e+00    2.881895e+00
  8.354708e+00    2.865072e+00
  8.370584e+00    2.849681e+00
  8.386459e+00    2.882701e+00
  8.402335e+00    2.857039e+00
  8.418210e+00    2.853792e+00
  8.434086e+00    2.842174e+00
  8.449962e+00    2.794997e+00
  8.465837e+00    2.789229e+00
  8.481713e+00    2.771639e+00
  8.497588e+00    2.789422e+00
  8.513464e+00    2.802376e+00
  8.529339e+00    2.795727e+00
  8.545215e+00    2.791069e+00
  8.561091e+00    2.832819e+00
  8.576966e+00    2.839542e+00
  8.592842e+00    2.819803e+00
  8.608717e+00    2.768726e+00
  8.624593e+00    2.729626e+00
  8.640468e+00    2.770474e+00
  8.656344e+00    2.831510e+00
  8.672220e+00    2.863704e+00
  8.688095e+00    2.820313e+00
  8.703971e+00    2.801268e+00
  8.719846e+00    2.848088e+00
  8.735722e+00    2.829976e+00
  8.751598e+00    2.817238e+00
  8.767473e+00    2.803455e+00
  8.783349e+00    2.828497e+00
  8.799224e+00    2.818400e+00
  8.815100e+00    2.803268e+00
  8.830975e+00    2.879228e+00
  8.846851e+00    2.821239e+00
  8.862727e+00    2.738484e+00
  8.878602e+00    2.749476e+00
  8.894478e+00    2.775407e+00
  8.910353e+00    2.792041e+00
  8.926229e+00    2.798343e+00
  8.942104e+00    2.767645e+00
  8.957980e+00    2.809754e+00
  8.973856e+00    2.805770e+00
  8.989731e+00    2.749385e+00
  9.005607e+00    2.745337e+00
  9.021482e+00    2.804644e+00
  9.037358e+00    2.778648e+00
  9.053233e+00    2.744950e+00
  9.069109e+00    2.782469e+00
  9.084985e+00    2.751305e+00
  9.100860e+00    2.725525e+00
  9.116736e+00    2.775225e+00
  9.132611e+00    2.762117e+00
  9.148487e+00    2.737853e+00
  9.164362e+00    2.696567e+00
  9.180238e+00    2.776927e+00
  9.196114e+00    2.782138e+00
  9.211989e+00    2.759032e+00
  9.227865e+00    2.744011e+00
  9.243740e+00    2.718099e+00
  9.259616e+00    2.695263e+00
  9.275491e+00    2.688760e+00
  9.291367e+00    2.750810e+00
  9.307243e+00    2.750280e+00
  9.323118e+00    2.672668e+00
  9.338994e+00    2.690494e+00
  9.354869e+00    2.727629e+00
  9.370745e+00    2.689870e+00
  9.386620e+00    2.748942e+00
  9.402496e+00    2.729690e+00
  9.418372e+00    2.679411e+00
  9.434247e+00    2.669041e+00
  9.450123e+00    2.708336e+00
  9.465998e+00    2.696737e+00
  9.481874e+00    2.739697e+00
  9.497749e+00    2.737395e+00
  9.513625e+00    2.767162e+00
  9.529501e+00    2.686833e+00
  9.545376e+00    2.718289e+00
  9.561252e+00    2.706936e+00
  9.577127e+00    2.740302e+00
  9.593003e+00    2.717684e+00
  9.608878e+00    2.718153e+00
  9.624754e+00    2.715765e+00
  9.640630e+00    2.722787e+00
  9.656505e+00    2.740168e+00
  9.672381e+00    2.700388e+00
  9.688256e+00    2.672221e+00
  9.704132e+00    2.691871e+00
  9.720008e+00    2.722833e+00
  9.735883e+00    2.657925e+00
  9.751759e+00    2.672465e+00
  9.767634e+00    2.665141e+00
  9.783510e+00    2.709872e+00
  9.799385e+00    2.695751e+00
  9.815261e+00    2.636367e+00
  9.831137e+00    2.670567e+00
  9.847012e+00    2.617912e+00
  9.862888e+00    2.655082e+00
  9.878763e+00    2.708882e+00
  9.894639e+00    2.656559e+00
  9.910514e+00    2.660645e+00
  9.926390e+00    2.651064e+00
  9.942266e+00    2.647512e+00
  9.958141e+00    2.614053e+00
  9.974017e+00    2.595891e+00
  9.989892e+00    2.650832e+00
  1.000577e+01    2.640323e+00
  1.002164e+01    2.615613e+00
  1.003752e+01    2.608857e+00
  1.005339e+01    2.616236e+00
  1.006927e+01    2.611096e+00
  1.008515e+01    2.594271e+00
  1.010102e+01    2.556257e+00
  1.011690e+01    2.577820e+00
  1.013277e+01    2.615249e+00
  1.014865e+01    2.652594e+00
  1.016452e+01    2.608783e+00
  1.018040e+01    2.587754e+00
  1.019627e+01    2.591342e+00
  1.021215e+01    2.594402e+00
  1.022803e+01    2.564565e+00
  1.024390e+01    2.563361e+00
  1.025978e+01    2.567301e+00
  1.027565e+01    2.558500e+00
  1.029153e+01    2.561226e+00
  1.030740e+01    2.570531e+00
  1.032328e+01    2.598365e+00
  1.033915e+01    2.583679e+00
  1.035503e+01    2.559675e+00
  1.037091e+01    2.569981e+00
  1.038678e+01    2.580296e+00
  1.040266e+01    2.583405e+00
  1.041853e+01    2.613419e+00
  1.043441e+01    2.562883e+00
  1.045028e+01    2.532161e+00
  1.046616e+01    2.529208e+00
  1.048204e+01    2.499418e+00
  1.049791e+01    2.564471e+00
  1.051379e+01    2.552792e+00
  1.052966e+01    2.552658e+00
  1.054554e+01    2.505874e+00
  1.056141e+01    2.524674e+00
  1.057729e+01    2.530785e+00
  1.059316e+01    2.534369e+00
  1.060904e+01    2.468848e+00
  1.062492e+01    2.510935e+00
  1.064079e+01    2.511781e+00
  1.065667e+01    2.476238e+00
  1.067254e+01    2.512632e+00
  1.068842e+01    2.541223e+00
  1.070429e+01    2.565722e+00
  1.072017e+01    2.536535e+00
  1.073604e+01    2.539699e+00
  1.075192e+01    2.552828e+00
  1.076780e+01    2.530869e+00
  1.078367e+01    2.511760e+00
  1.079955e+01    2.497026e+00
  1.081542e+01    2.505991e+00
  1.083130e+01    2.526689e+00
  1.084717e+01    2.485639e+00
  1.086305e+01    2.468465e+00
  1.087892e+01    2.468185e+00
  1.089480e+01    2.479939e+00
  1.091068e+01    2.461563e+00
  1.092655e+01    2.444088e+00
  1.094243e+01    2.460592e+00
  1.095830e+01    2.436862e+00
  1.097418e+01    2.425094e+00
  1.099005e+01    2.446741e+00
  1.100593e+01    2.471371e+00
  1.102180e+01    2.467621e+00
  1.103768e+01    2.414777e+00
  1.105356e+01    2.379871e+00
  1.106943e+01    2.419391e+00
  1.108531e+01    2.474850e+00
  1.110118e+01    2.441292e+00
  1.111706e+01    2.455477e+00
  1.113293e+01    2.446262e+00
  1.114881e+01    2.422233e+00
  1.116468e+01    2.387928e+00
  1.118056e+01    2.370733e+00
  1.119644e+01    2.390296e+00
  1.121231e+01    2.414933e+00
  1.122819e+01    2.397176e+00
  1.124406e+01    2.378605e+00
  1.125994e+01    2.421855e+00
  1.127581e+01    2.415080e+00
  1.129169e+01    2.384722e+00
  1.130756e+01    2.395927e+00
  1.132344e+01    2.404255e+00
  1.133932e+01    2.402910e+00
  1.135519e+01    2.365537e+00
  1.137107e+01    2.411764e+00
  1.138694e+01    2.426905e+00
  1.140282e+01    2.384538e+00
  1.141869e+01    2.427931e+00
  1.143457e+01    2.354175e+00
  1.145045e+01    2.356157e+00
  1.146632e+01    2.350457e+00
  1.148220e+01    2.320727e+00
  1.149807e+01    2.347783e+00
  1.151395e+01    2.406580e+00
  1.152982e+01    2.385950e+00
  1.154570e+01    2.357333e+00
  1.156157e+01    2.331849e+00
  1.157745e+01    2.372046e+00
  1.159333e+01    2.398892e+00
  1.160920e+01    2.351483e+00
  1.162508e+01    2.346745e+00
  1.164095e+01    2.371468e+00
  1.165683e+01    2.360988e+00
  1.167270e+01    2.334492e+00
  1.168858e+01    2.328191e+00
  1.170445e+01    2.324547e+00
  1.172033e+01    2.307121e+00
  1.173621e+01    2.322471e+00
  1.175208e+01    2.314396e+00
  1.176796e+01    2.350438e+00
  1.178383e+01    2.298443e+00
  1.179971e+01    2.269229e+00
  1.181558e+01    2.323201e+00
  1.183146e+01    2.292508e+00
  1.184733e+01    2.315657e+00
  1.186321e+01    2.316069e+00
  1.187909e+01    2.290502e+00
  1.189496e+01    2.284524e+00
  1.191084e+01    2.256834e+00
  1.192671e+01    2.303199e+00
  1.194259e+01    2.317312e+00
  1.195846e+01    2.275091e+00
  1.197434e+01    2.281116e+00
  1.199021e+01    2.254283e+00
  1.200609e+01    2.303921e+00
  1.202197e+01    2.321106e+00
  1.203784e+01    2.301808e+00
  1.205372e+01    2.307521e+00
  1.206959e+01    2.266224e+00
  1.208547e+01    2.265472e+00
  1.210134e+01    2.266971e+00
  1.211722e+01    2.299270e+00
  1.213309e+01    2.312048e+00
  1.214897e+01    2.323337e+00
  1.216485e+01    2.269392e+00
  1.218072e+01    2.299679e+00
  1.219660e+01    2.329085e+00
  1.221247e+01    2.299926e+00
  1.222835e+01    2.300949e+00
  1.224422e+01    2.227168e+00
  1.226010e+01    2.242076e+00
  1.227597e+01    2.276802e+00
  1.229185e+01    2.272327e+00
  1.230773e+01    2.275502e+00
  1.232360e+01    2.281922e+00
  1.233948e+01    2.294178e+00
  1.235535e+01    2.307938e+00
  1.237123e+01    2.272073e+00
  1.238710e+01    2.253515e+00
  1.240298e+01    2.287870e+00
  1.241886e+01    2.304972e+00
  1.243473e+01    2.300393e+00
  1.245061e+01    2.288983e+00
  1.246648e+01    2.285817e+00
  1.248236e+01    2.311447e+00
  1.249823e+01    2.331839e+00
  1.251411e+01    2.317894e+00
  1.252998e+01    2.311775e+00
  1.254586e+01    2.372650e+00
  1.256174e+01    2.295362e+00
  1.257761e+01    2.321085e+00
  1.259349e+01    2.388610e+00
  1.260936e+01    2.324872e+00
  1.262524e+01    2.378589e+00
  1.264111e+01    2.411054e+00
  1.265699e+01    2.390502e+00
  1.267286e+01    2.398456e+00
  1.268874e+01    2.417623e+00
  1.270462e+01    2.447226e+00
  1.272049e+01    2.501051e+00
  1.273637e+01    2.477546e+00
  1.275224e+01    2.495558e+00
  1.276812e+01    2.523381e+00
  1.278399e+01    2.561369e+00
  1.279987e+01    2.617289e+00
  1.281574e+01    2.643167e+00
  1.283162e+01    2.720098e+00
  1.284750e+01    2.837061e+00
  1.286337e+01    2.893045e+00
  1.287925e+01    2.979092e+00
  1.289512e+01    3.078549e+00
  1.291100e+01    3.244471e+00
  1.292687e+01    3.451704e+00
  1.294275e+01    3.696545e+00
  1.295862e+01    3.901587e+00
  1.297450e+01    4.293103e+00
  1.299038e+01    4.803507e+00
  1.300625e+01    5.343839e+00
  1.302213e+01    5.993711e+00
  1.303800e+01    6.930389e+00
  1.305388e+01    8.029509e+00
  1.306975e+01    9.353389e+00
  1.308563e+01    1.071521e+01
  1.310150e+01    1.197519e+01
  1.311738e+01    1.339585e+01
  1.313326e+01    1.464624e+01
  1.314913e+01    1.589698e+01
  1.316501e+01    1.679494e+01
  1.318088e+01    1.748078e+01
  1.319676e+01    1.735545e+01
  1.321263e+01    1.641844e+01
  1.322851e+01    1.465727e+01
  1.324438e+01    1.249185e+01
  1.326026e+01    1.056091e+01
  1.327614e+01    8.888083e+00
  1.329201e+01    7.446774e+00
  1.330789e+01    6.410875e+00
  1.332376e+01    5.675432e+00
  1.333964e+01    4.993606e+00
  1.335551e+01    4.457732e+00
  1.337139e+01    4.107164e+00
  1.338727e+01    3.790098e+00
  1.340314e+01    3.510829e+00
  1.341902e+01    3.322319e+00
  1.343489e+01    3.180500e+00
  1.345077e+01    2.948257e+00
  1.346664e+01    2.832431e+00
  1.348252e+01    2.800865e+00
  1.349839e+01    2.716775e+00
  1.351427e+01    2.616673e+00
  1.353015e+01    2.507812e+00
  1.354602e+01    2.472429e+00
  1.356190e+01    2.469338e+00
  1.357777e+01    2.394101e+00
  1.359365e+01    2.333107e+00
  1.360952e+01    2.323545e+00
  1.362540e+01    2.299552e+00
  1.364127e+01    2.326329e+00
  1.365715e+01    2.299337e+00
  1.367303e+01    2.250427e+00
  1.368890e+01    2.272427e+00
  1.370478e+01    2.232300e+00
  1.372065e+01    2.177194e+00
  1.373653e+01    2.161233e+00
  1.375240e+01    2.179672e+00
  1.376828e+01    2.180411e+00
  1.378415e+01    2.133792e+00
  1.380003e+01    2.095093e+00
  1.381591e+01    2.124553e+00
  1.383178e+01    2.112939e+00
  1.384766e+01    2.091396e+00
  1.386353e+01    2.070194e+00
  1.387941e+01    2.117766e+00
  1.389528e+01    2.106424e+00
  1.391116e+01    2.066429e+00
  1.392703e+01    2.044948e+00
  1.394291e+01    2.027318e+00
  1.395879e+01    2.068189e+00
  1.397466e+01    2.028216e+00
  1.399054e+01    2.036405e+00
  1.400641e+01    2.012558e+00
  1.402229e+01    2.011317e+00
  1.403816e+01    2.015932e+00
  1.405404e+01    2.000183e+00
  1.406991e+01    2.022537e+00
  1.408579e+01    2.002867e+00
  1.410167e+01    1.974152e+00
  1.411754e+01    1.958081e+00
  1.413342e+01    1.964142e+00
  1.414929e+01    1.975020e+00
  1.416517e+01    1.950161e+00
  1.418104e+01    1.968583e+00
  1.419692e+01    1.977573e+00
  1.421279e+01    1.935731e+00
  1.422867e+01    1.945087e+00
  1.424455e+01    1.975626e+00
  1.426042e+01    1.969997e+00
  1.427630e+01    1.937468e+00
  1.429217e+01    1.935225e+00
  1.430805e+01    1.954307e+00
  1.432392e+01    1.935997e+00
  1.433980e+01    1.927899e+00
  1.435568e+01    1.916810e+00
  1.437155e+01    1.916359e+00
  1.438743e+01    1.889225e+00
  1.440330e+01    1.913443e+00
  1.441918e+01    1.915350e+00
  1.443505e+01    1.951497e+00
  1.445093e+01    1.908655e+00
  1.446680e+01    1.867134e+00
  1.448268e+01    1.868809e+00
  1.449856e+01    1.873841e+00
  1.451443e+01    1.905657e+00
  1.453031e+01    1.888382e+00
  1.454618e+01    1.870529e+00
  1.456206e+01    1.870971e+00
  1.457793e+01    1.918570e+00
  1.459381e+01    1.907045e+00
  1.460968e+01    1.867663e+00
  1.462556e+01    1.880959e+00
  1.464144e+01    1.867893e+00
  1.465731e+01    1.861204e+00
  1.467319e+01    1.861098e+00
  1.468906e+01    1.879043e+00
  1.470494e+01    1.866541e+00
  1.472081e+01    1.888605e+00
  1.473669e+01    1.879080e+00
  1.475256e+01    1.847726e+00
  1.476844e+01    1.873286e+00
  1.478432e+01    1.896353e+00
  1.480019e+01    1.916398e+00
  1.481607e+01    1.909477e+00
  1.483194e+01    1.894243e+00
  1.484782e+01    1.917879e+00
  1.486369e+01    1.886863e+00
  1.487957e+01    1.891006e+00
  1.489544e+01    1.900535e+00
  1.491132e+01    1.929478e+00
  1.492720e+01    1.989333e+00
  1.494307e+01    2.022213e+00
  1.495895e+01    2.012717e+00
  1.497482e+01    2.058849e+00
  1.499070e+01    2.102881e+00
  1.500657e+01    2.101525e+00
  1.502245e+01    2.199130e+00
  1.503832e+01    2.279928e+00
  1.505420e+01    2.393360e+00
  1.507008e+01    2.500568e+00
  1.508595e+01    2.610060e+00
  1.510183e+01    2.849483e+00
  1.511770e+01    3.086599e+00
  1.513358e+01    3.395658e+00
  1.514945e+01    3.684798e+00
  1.516533e+01    4.098584e+00
  1.518120e+01    4.484962e+00
  1.519708e+01    4.879037e+00
  1.521296e+01    5.249573e+00
  1.522883e+01    5.555496e+00
  1.524471e+01    5.735394e+00
  1.526058e+01    5.928193e+00
  1.527646e+01    5.968494e+00
  1.529233e+01    5.797146e+00
  1.530821e+01    5.571958e+00
  1.532409e+01    5.089540e+00
  1.533996e+01    4.462307e+00
  1.535584e+01    3.992386e+00
  1.537171e+01    3.566083e+00
  1.538759e+01    3.140908e+00
  1.540346e+01    2.872745e+00
  1.541934e+01    2.651458e+00
  1.543521e+01    2.481355e+00
  1.545109e+01    2.353178e+00
  1.546697e+01    2.243143e+00
  1.548284e+01    2.139587e+00
  1.549872e+01    2.082301e+00
  1.551459e+01    2.000441e+00
  1.553047e+01    1.938146e+00
  1.554634e+01    1.895709e+00
  1.556222e+01    1.896688e+00
  1.557809e+01    1.891570e+00
  1.559397e+01    1.842241e+00
  1.560985e+01    1.830905e+00
  1.562572e+01    1.747969e+00
  1.564160e+01    1.750453e+00
  1.565747e+01    1.772763e+00
  1.567335e+01    1.753423e+00
  1.568922e+01    1.713240e+00
  1.570510e+01    1.705968e+00
  1.572097e+01    1.706789e+00
  1.573685e+01    1.686461e+00
  1.575273e+01    1.672522e+00
  1.576860e+01    1.673002e+00
  1.578448e+01    1.670323e+00
  1.580035e+01    1.671813e+00
  1.581623e+01    1.696517e+00
  1.583210e+01    1.665462e+00
  1.584798e+01    1.632452e+00
  1.586385e+01    1.641470e+00
  1.587973e+01    1.670831e+00
  1.589561e+01    1.628572e+00
  1.591148e+01    1.622539e+00
  1.592736e+01    1.604774e+00
  1.594323e+01    1.631263e+00
  1.595911e+01    1.607406e+00
  1.597498e+01    1.607449e+00
  1.599086e+01    1.619097e+00
  1.600673e+01    1.609218e+00
  1.602261e+01    1.606771e+00
  1.603849e+01    1.583061e+00
  1.605436e+01    1.587987e+00
  1.607024e+01    1.621821e+00
  1.608611e+01    1.578784e+00
  1.610199e+01    1.540812e+00
  1.611786e+01    1.552675e+00
  1.613374e+01    1.553862e+00
  1.614961e+01    1.551290e+00
  1.616549e+01    1.538698e+00
  1.618137e+01    1.554460e+00
  1.619724e+01    1.567750e+00
  1.621312e+01    1.515944e+00
  1.622899e+01    1.535543e+00
  1.624487e+01    1.535464e+00
  1.626074e+01    1.543518e+00
  1.627662e+01    1.519738e+00
  1.629250e+01    1.543737e+00
  1.630837e+01    1.562970e+00
  1.632425e+01    1.556469e+00
  1.634012e+01    1.522791e+00
  1.635600e+01    1.521409e+00
  1.637187e+01    1.530113e+00
  1.638775e+01    1.513771e+00
  1.640362e+01    1.501999e+00
  1.641950e+01    1.526328e+00
  1.643538e+01    1.520897e+00
  1.645125e+01    1.503313e+00
  1.646713e+01    1.501866e+00
  1.648300e+01    1.497153e+00
  1.649888e+01    1.484730e+00
  1.651475e+01    1.478331e+00
  1.653063e+01    1.488632e+00
  1.654650e+01    1.466427e+00
  1.656238e+01    1.466978e+00
  1.657826e+01    1.489304e+00
  1.659413e+01    1.496177e+00
  1.661001e+01    1.471546e+00
  1.662588e+01    1.456571e+00
  1.664176e+01    1.445322e+00
  1.665763e+01    1.470359e+00
  1.667351e+01    1.464416e+00
  1.668938e+01    1.460472e+00
  1.670526e+01    1.466141e+00
  1.672114e+01    1.434363e+00
  1.673701e+01    1.429842e+00
  1.675289e+01    1.451664e+00
  1.676876e+01    1.443551e+00
  1.678464e+01    1.443314e+00
  1.680051e+01    1.435661e+00
  1.681639e+01    1.417300e+00
  1.683226e+01    1.421488e+00
  1.684814e+01    1.443614e+00
  1.686402e+01    1.416811e+00
  1.687989e+01    1.424629e+00
  1.689577e+01    1.452144e+00
  1.691164e+01    1.431925e+00
  1.692752e+01    1.424185e+00
  1.694339e+01    1.412060e+00
  1.695927e+01    1.420071e+00
  1.697514e+01    1.424799e+00
  1.699102e+01    1.410494e+00
  1.700690e+01    1.424766e+00
  1.702277e+01    1.430327e+00
  1.703865e+01    1.420026e+00
  1.705452e+01    1.426982e+00
  1.707040e+01    1.419225e+00
  1.708627e+01    1.407176e+00
  1.710215e+01    1.436798e+00
  1.711802e+01    1.418735e+00
  1.713390e+01    1.390059e+00
  1.714978e+01    1.362598e+00
  1.716565e+01    1.374723e+00
  1.718153e+01    1.398710e+00
  1.719740e+01    1.385715e+00
  1.721328e+01    1.385320e+00
  1.722915e+01    1.380037e+00
  1.724503e+01    1.388604e+00
  1.726091e+01    1.374619e+00
  1.727678e+01    1.343987e+00
  1.729266e+01    1.332450e+00
  1.730853e+01    1.346378e+00
  1.732441e+01    1.346996e+00
  1.734028e+01    1.329053e+00
  1.735616e+01    1.373111e+00
  1.737203e+01    1.401941e+00
  1.738791e+01    1.387959e+00
  1.740379e+01    1.363292e+00
  1.741966e+01    1.341115e+00
  1.743554e+01    1.357957e+00
  1.745141e+01    1.348324e+00
  1.746729e+01    1.335514e+00
  1.748316e+01    1.334944e+00
  1.749904e+01    1.350726e+00
  1.751491e+01    1.320926e+00
  1.753079e+01    1.348871e+00
  1.754667e+01    1.372903e+00
  1.756254e+01    1.353611e+00
  1.757842e+01    1.334874e+00
  1.759429e+01    1.330167e+00
  1.761017e+01    1.321458e+00
  1.762604e+01    1.328259e+00
  1.764192e+01    1.319464e+00
  1.765779e+01    1.328605e+00
  1.767367e+01    1.327789e+00
  1.768955e+01    1.331304e+00
  1.770542e+01    1.319950e+00
  1.772130e+01    1.306597e+00
  1.773717e+01    1.310358e+00
  1.775305e+01    1.305365e+00
  1.776892e+01    1.301696e+00
  1.778480e+01    1.318915e+00
  1.780067e+01    1.312316e+00
  1.781655e+01    1.317884e+00
  1.783243e+01    1.315676e+00
  1.784830e+01    1.296032e+00
  1.786418e+01    1.298661e+00
  1.788005e+01    1.294757e+00
  1.789593e+01    1.320014e+00
  1.791180e+01    1.334254e+00
  1.792768e+01    1.308791e+00
  1.794355e+01    1.267935e+00
  1.795943e+01    1.282224e+00
  1.797531e+01    1.271848e+00
  1.799118e+01    1.259478e+00
  1.800706e+01    1.271515e+00
  1.802293e+01    1.302284e+00
  1.803881e+01    1.316340e+00
  1.805468e+01    1.259960e+00
  1.807056e+01    1.264963e+00
  1.808643e+01    1.271272e+00
  1.810231e+01    1.269901e+00
  1.811819e+01    1.272372e+00
  1.813406e+01    1.300910e+00
  1.814994e+01    1.279204e+00
  1.816581e+01    1.266195e+00
  1.818169e+01    1.264197e+00
  1.819756e+01    1.250498e+00
  1.821344e+01    1.246817e+00
  1.822932e+01    1.278905e+00
  1.824519e+01    1.251496e+00
  1.826107e+01    1.270671e+00
  1.827694e+01    1.269350e+00
  1.829282e+01    1.292351e+00
  1.830869e+01    1.294797e+00
  1.832457e+01    1.268122e+00
  1.834044e+01    1.232739e+00
  1.835632e+01    1.231394e+00
  1.837220e+01    1.241032e+00
  1.838807e+01    1.256496e+00
  1.840395e+01    1.249324e+00
  1.841982e+01    1.241429e+00
  1.843570e+01    1.246959e+00
  1.845157e+01    1.248407e+00
  1.846745e+01    1.246765e+00
  1.848332e+01    1.216585e+00
  1.849920e+01    1.244118e+00
  1.851508e+01    1.221916e+00
  1.853095e+01    1.229866e+00
  1.854683e+01    1.242316e+00
  1.856270e+01    1.247238e+00
  1.857858e+01    1.197640e+00
  1.859445e+01    1.200898e+00
  1.861033e+01    1.221208e+00
  1.862620e+01    1.227254e+00
  1.864208e+01    1.236467e+00
  1.865796e+01    1.217058e+00
  1.867383e+01    1.202042e+00
  1.868971e+01    1.191818e+00
  1.870558e+01    1.223180e+00
  1.872146e+01    1.200469e+00
  1.873733e+01    1.204745e+00
  1.875321e+01    1.198954e+00
  1.876908e+01    1.201028e+00
  1.878496e+01    1.222939e+00
  1.880084e+01    1.210289e+00
  1.881671e+01    1.177235e+00
  1.883259e+01    1.213209e+00
  1.884846e+01    1.190788e+00
  1.886434e+01    1.182840e+00
  1.888021e+01    1.211666e+00
  1.889609e+01    1.201129e+00
  1.891196e+01    1.190862e+00
  1.892784e+01    1.181826e+00
  1.894372e+01    1.195676e+00
  1.895959e+01    1.198168e+00
  1.897547e+01    1.158834e+00
  1.899134e+01    1.167028e+00
  1.900722e+01    1.156676e+00
  1.902309e+01    1.181295e+00
  1.903897e+01    1.184936e+00
  1.905484e+01    1.164412e+00
  1.907072e+01    1.160400e+00
  1.908660e+01    1.172905e+00
  1.910247e+01    1.167619e+00
  1.911835e+01    1.170458e+00
  1.913422e+01    1.155442e+00
  1.915010e+01    1.171103e+00
  1.916597e+01    1.166135e+00
  1.918185e+01    1.153941e+00
  1.919773e+01    1.156032e+00
  1.921360e+01    1.163155e+00
  1.922948e+01    1.157767e+00
  1.924535e+01    1.153792e+00
  1.926123e+01    1.169641e+00
  1.927710e+01    1.159312e+00
  1.929298e+01    1.194393e+00
  1.930885e+01    1.169714e+00
  1.932473e+01    1.159971e+00
  1.934061e+01    1.146174e+00
  1.935648e+01    1.145498e+00
  1.937236e+01    1.162936e+00
  1.938823e+01    1.148372e+00
  1.940411e+01    1.117538e+00
  1.941998e+01    1.121940e+00
  1.943586e+01    1.136587e+00
  1.945173e+01    1.146777e+00
  1.946761e+01    1.147643e+00
  1.948349e+01    1.137992e+00
  1.949936e+01    1.140679e+00
  1.951524e+01    1.151292e+00
  1.953111e+01    1.160540e+00
  1.954699e+01    1.149906e+00
  1.956286e+01    1.138613e+00
  1.957874e+01    1.124994e+00
  1.959461e+01    1.133876e+00
  1.961049e+01    1.112002e+00
  1.962637e+01    1.115297e+00
  1.964224e+01    1.122589e+00
  1.965812e+01    1.126034e+00
  1.967399e+01    1.138940e+00
  1.968987e+01    1.113866e+00
  1.970574e+01    1.091314e+00
  1.972162e+01    1.097262e+00
  1.973749e+01    1.095330e+00
  1.975337e+01    1.108832e+00
  1.976925e+01    1.104085e+00
  1.978512e+01    1.110585e+00
  1.980100e+01    1.113817e+00
  1.981687e+01    1.112233e+00
  1.983275e+01    1.099578e+00
  1.984862e+01    1.120164e+00
  1.986450e+01    1.118383e+00
  1.988037e+01    1.098338e+00
  1.989625e+01    1.124895e+00
  1.991213e+01    1.136631e+00
  1.992800e+01    1.100556e+00
  1.994388e+01    1.114259e+00
  1.995975e+01    1.093183e+00
  1.997563e+01    1.104877e+00
  1.999150e+01    1.113333e+00
  2.000738e+01    1.114369e+00
  2.002325e+01    1.105771e+00
  2.003913e+01    1.102009e+00
  2.005501e+01    1.088672e+00
  2.007088e+01    1.090973e+00
  2.008676e+01    1.076912e+00
  2.010263e+01    1.105234e+00
  2.011851e+01    1.108232e+00
  2.013438e+01    1.077767e+00
  2.015026e+01    1.060037e+00
  2.016614e+01    1.071302e+00
  2.018201e+01    1.095711e+00
  2.019789e+01    1.088103e+00
  2.021376e+01    1.080617e+00
  2.022964e+01    1.104899e+00
  2.024551e+01    1.105964e+00
  2.026139e+01    1.106119e+00
  2.027726e+01    1.108957e+00
  2.029314e+01    1.084920e+00
  2.030902e+01    1.060069e+00
  2.032489e+01    1.065320e+00
  2.034077e+01    1.086336e+00
  2.035664e+01    1.077112e+00
  2.037252e+01    1.058643e+00
  2.038839e+01    1.062452e+00
  2.040427e+01    1.072117e+00
  2.042014e+01    1.079447e+00
  2.043602e+01    1.083617e+00
  2.045190e+01    1.090995e+00
  2.046777e+01    1.089907e+00
  2.048365e+01    1.050588e+00
  2.049952e+01    1.065616e+00
  2.051540e+01    1.067366e+00
  2.053127e+01    1.071672e+00
  2.054715e+01    1.075193e+00
  2.056302e+01    1.073972e+00
  2.057890e+01    1.062524e+00
  2.059478e+01    1.077463e+00
  2.061065e+01    1.052172e+00
  2.062653e+01    1.070389e+00
  2.064240e+01    1.089418e+00
  2.065828e+01    1.063428e+00
  2.067415e+01    1.064216e+00
  2.069003e+01    1.051313e+00
  2.070590e+01    1.063776e+00
  2.072178e+01    1.051565e+00
  2.073766e+01    1.057469e+00
  2.075353e+01    1.038532e+00
  2.076941e+01    1.050949e+00
  2.078528e+01    1.087702e+00
  2.080116e+01    1.085561e+00
  2.081703e+01    1.078170e+00
  2.083291e+01    1.078913e+00
  2.084878e+01    1.094580e+00
  2.086466e+01    1.078013e+00
  2.088054e+01    1.053607e+00
  2.089641e+01    1.051533e+00
  2.091229e+01    1.075515e+00
  2.092816e+01    1.089730e+00
  2.094404e+01    1.077970e+00
  2.095991e+01    1.067578e+00
  2.097579e+01    1.092114e+00
  2.099166e+01    1.064373e+00
  2.100754e+01    1.049420e+00
  2.102342e+01    1.049693e+00
  2.103929e+01    1.055707e+00
  2.105517e+01    1.079786e+00
  2.107104e+01    1.072230e+00
  2.108692e+01    1.065087e+00
  2.110279e+01    1.065295e+00
  2.111867e+01    1.071756e+00
  2.113455e+01    1.062315e+00
  2.115042e+01    1.077141e+00
  2.116630e+01    1.092881e+00
  2.118217e+01    1.056386e+00
  2.119805e+01    1.072767e+00
  2.121392e+01    1.062009e+00
  2.122980e+01    1.060560e+00
  2.124567e+01    1.077609e+00
  2.126155e+01    1.095997e+00
  2.127743e+01    1.095352e+00
  2.129330e+01    1.109893e+00
  2.130918e+01    1.120651e+00
  2.132505e+01    1.104834e+00
  2.134093e+01    1.123431e+00
  2.135680e+01    1.123607e+00
  2.137268e+01    1.148894e+00
  2.138855e+01    1.147665e+00
  2.140443e+01    1.173167e+00
  2.142031e+01    1.173644e+00
  2.143618e+01    1.176603e+00
  2.145206e+01    1.208784e+00
  2.146793e+01    1.210700e+00
  2.148381e+01    1.221376e+00
  2.149968e+01    1.237005e+00
  2.151556e+01    1.302743e+00
  2.153143e+01    1.336274e+00
  2.154731e+01    1.362415e+00
  2.156319e+01    1.393523e+00
  2.157906e+01    1.459608e+00
  2.159494e+01    1.533096e+00
  2.161081e+01    1.572903e+00
  2.162669e+01    1.645664e+00
  2.164256e+01    1.743141e+00
  2.165844e+01    1.899698e+00
  2.167431e+01    2.034878e+00
  2.169019e+01    2.226847e+00
  2.170607e+01    2.464308e+00
  2.172194e+01    2.709523e+00
  2.173782e+01    3.117323e+00
  2.175369e+01    3.539142e+00
  2.176957e+01    4.092751e+00
  2.178544e+01    4.712500e+00
  2.180132e+01    5.303219e+00
  2.181719e+01    6.041939e+00
  2.183307e+01    6.802518e+00
  2.184895e+01    7.505599e+00
  2.186482e+01    8.190300e+00
  2.188070e+01    8.942162e+00
  2.189657e+01    9.528430e+00
  2.191245e+01    9.632500e+00
  2.192832e+01    9.468246e+00
  2.194420e+01    8.837142e+00
  2.196007e+01    7.916652e+00
  2.197595e+01    6.866215e+00
  2.199183e+01    5.845838e+00
  2.200770e+01    4.933938e+00
  2.202358e+01    4.185865e+00
  2.203945e+01    3.634825e+00
  2.205533e+01    3.126092e+00
  2.207120e+01    2.765863e+00
  2.208708e+01    2.471486e+00
  2.210296e+01    2.248838e+00
  2.211883e+01    2.046841e+00
  2.213471e+01    1.902191e+00
  2.215058e+01    1.770018e+00
  2.216646e+01    1.656010e+00
  2.218233e+01    1.576081e+00
  2.219821e+01    1.474732e+00
  2.221408e+01    1.410941e+00
  2.222996e+01    1.369014e+00
  2.224584e+01    1.313195e+00
  2.226171e+01    1.274764e+00
  2.227759e+01    1.241389e+00
  2.229346e+01    1.219260e+00
  2.230934e+01    1.173895e+00
  2.232521e+01    1.160663e+00
  2.234109e+01    1.149998e+00
  2.235696e+01    1.122880e+00
  2.237284e+01    1.124974e+00
  2.238872e+01    1.100033e+00
  2.240459e+01    1.075485e+00
  2.242047e+01    1.059245e+00
  2.243634e+01    1.036544e+00
  2.245222e+01    1.037202e+00
  2.246809e+01    1.018475e+00
  2.248397e+01    1.024093e+00
  2.249984e+01    9.836620e-01
  2.251572e+01    9.851604e-01
  2.253160e+01    1.021350e+00
  2.254747e+01    1.012002e+00
  2.256335e+01    9.930166e-01
  2.257922e+01    9.921409e-01
  2.259510e+01    9.669645e-01
  2.261097e+01    9.548611e-01
  2.262685e+01    9.749597e-01
  2.264272e+01    9.603683e-01
  2.265860e+01    9.502043e-01
  2.267448e+01    9.427902e-01
  2.269035e+01    9.468920e-01
  2.270623e+01    9.568552e-01
  2.272210e+01    9.537517e-01
  2.273798e+01    9.361236e-01
  2.275385e+01    9.257764e-01
  2.276973e+01    9.154445e-01
  2.278560e+01    9.087465e-01
  2.280148e+01    9.111543e-01
  2.281736e+01    9.287395e-01
  2.283323e+01    9.282140e-01
  2.284911e+01    8.989823e-01
  2.286498e+01    9.054309e-01
  2.288086e+01    9.004228e-01
  2.289673e+01    8.899909e-01
  2.291261e+01    9.008022e-01
  2.292848e+01    9.044750e-01
  2.294436e+01    8.925461e-01
  2.296024e+01    8.892835e-01
  2.297611e+01    9.063651e-01
  2.299199e+01    8.935159e-01
  2.300786e+01    9.127654e-01
  2.302374e+01    8.977507e-01
  2.303961e+01    9.090211e-01
  2.305549e+01    9.102675e-01
  2.307137e+01    8.844742e-01
  2.308724e+01    8.862700e-01
  2.310312e+01    8.691812e-01
  2.311899e+01    8.750656e-01
  2.313487e+01    8.501322e-01
  2.315074e+01    8.656914e-01
  2.316662e+01    8.745268e-01
  2.318249e+01    8.744138e-01
  2.319837e+01    8.735216e-01
  2.321425e+01    8.653663e-01
  2.323012e+01    8.397616e-01
  2.324600e+01    8.529859e-01
  2.326187e+01    8.572548e-01
  2.327775e+01    8.555125e-01
  2.329362e+01    8.582746e-01
  2.330950e+01    8.388523e-01
  2.332537e+01    8.604736e-01
  2.334125e+01    8.675981e-01
  2.335713e+01    8.520134e-01
  2.337300e+01    8.217299e-01
  2.338888e+01    8.324153e-01
  2.340475e+01    8.341872e-01
  2.342063e+01    8.467318e-01
  2.343650e+01    8.401599e-01
  2.345238e+01    8.460079e-01
  2.346825e+01    8.349047e-01
  2.348413e+01    8.358939e-01
  2.350001e+01    8.298469e-01
  2.351588e+01    8.357124e-01
  2.353176e+01    8.441054e-01
  2.354763e+01    8.304179e-01
  2.356351e+01    8.173702e-01
  2.357938e+01    8.467608e-01
  2.359526e+01    8.228069e-01
  2.361113e+01    8.271452e-01
  2.362701e+01    8.403186e-01
  2.364289e+01    8.287750e-01
  2.365876e+01    8.336876e-01
  2.367464e+01    8.494658e-01
  2.369051e+01    8.185650e-01
  2.370639e+01    8.183030e-01
  2.372226e+01    8.372365e-01
  2.373814e+01    8.308621e-01
  2.375401e+01    8.147741e-01
  2.376989e+01    8.111067e-01
  2.378577e+01    8.081182e-01
  2.380164e+01    8.018165e-01
  2.381752e+01    7.883242e-01
  2.383339e+01    7.919441e-01
  2.384927e+01    7.851985e-01
  2.386514e+01    7.962627e-01
  2.388102e+01    8.022537e-01
  2.389689e+01    7.773811e-01
  2.391277e+01    7.792848e-01
  2.392865e+01    7.764215e-01
  2.394452e+01    7.702128e-01
  2.396040e+01    7.673203e-01
  2.397627e+01    7.827665e-01
  2.399215e+01    7.795182e-01
  2.400802e+01    7.663134e-01
  2.402390e+01    7.779593e-01
  2.403978e+01    7.853199e-01
  2.405565e+01    7.795838e-01
  2.407153e+01    7.705875e-01
  2.408740e+01    7.963536e-01
  2.410328e+01    7.960587e-01
  2.411915e+01    7.726235e-01
  2.413503e+01    7.573844e-01
  2.415090e+01    7.781578e-01
  2.416678e+01    7.665877e-01
  2.418266e+01    7.727660e-01
  2.419853e+01    7.970597e-01
  2.421441e+01    7.975469e-01
  2.423028e+01    7.842149e-01
  2.424616e+01    7.718812e-01
  2.426203e+01    7.562565e-01
  2.427791e+01    7.796655e-01
  2.429378e+01    7.698860e-01
  2.430966e+01    7.666302e-01
  2.432554e+01    7.737080e-01
  2.434141e+01    7.873696e-01
  2.435729e+01    7.868363e-01
  2.437316e+01    7.720904e-01
  2.438904e+01    7.901484e-01
  2.440491e+01    7.730098e-01
  2.442079e+01    7.804466e-01
  2.443666e+01    7.732344e-01
  2.445254e+01    7.881066e-01
  2.446842e+01    7.862858e-01
  2.448429e+01    7.784186e-01
  2.450017e+01    7.829419e-01
  2.451604e+01    7.831176e-01
  2.453192e+01    7.680380e-01
  2.454779e+01    7.757506e-01
  2.456367e+01    7.694578e-01
  2.457954e+01    7.814122e-01
  2.459542e+01    7.817753e-01
  2.461130e+01    7.867159e-01
  2.462717e+01    7.848885e-01
  2.464305e+01    7.666293e-01
  2.465892e+01    7.791162e-01
  2.467480e+01    7.841879e-01
  2.469067e+01    7.856559e-01
  2.470655e+01    7.768921e-01
  2.472242e+01    7.749094e-01
  2.473830e+01    7.925154e-01
  2.475418e+01    7.851031e-01
  2.477005e+01    7.797621e-01
  2.478593e+01    7.844558e-01
  2.480180e+01    8.003816e-01
  2.481768e+01    7.979757e-01
  2.483355e+01    8.040757e-01
  2.484943e+01    7.857615e-01
  2.486530e+01    7.835481e-01
  2.488118e+01    7.839877e-01
  2.489706e+01    7.982641e-01
  2.491293e+01    7.971837e-01
  2.492881e+01    7.819987e-01
  2.494468e+01    7.904052e-01
  2.496056e+01    7.951962e-01
  2.497643e+01    7.993677e-01
  2.499231e+01    7.862296e-01
  2.500819e+01    7.846400e-01
  2.502406e+01    7.834051e-01
  2.503994e+01    7.886279e-01
  2.505581e+01    7.993624e-01
  2.507169e+01    8.141140e-01
  2.508756e+01    8.206453e-01
  2.510344e+01    7.822070e-01
  2.511931e+01    7.833458e-01
  2.513519e+01    8.036257e-01
  2.515107e+01    7.991926e-01
  2.516694e+01    7.918714e-01
  2.518282e+01    8.139099e-01
  2.519869e+01    8.153936e-01
  2.521457e+01    8.173519e-01
  2.523044e+01    8.190184e-01
  2.524632e+01    8.296727e-01
  2.526219e+01    8.432954e-01
  2.527807e+01    8.341925e-01
  2.529395e+01    8.554231e-01
  2.530982e+01    8.736351e-01
  2.532570e+01    8.681401e-01
  2.534157e+01    8.790383e-01
  2.535745e+01    8.772201e-01
  2.537332e+01    8.735146e-01
  2.538920e+01    8.839371e-01
  2.540507e+01    8.745058e-01
  2.542095e+01    8.909439e-01
  2.543683e+01    9.235733e-01
  2.545270e+01    9.362820e-01
  2.546858e+01    9.278073e-01
  2.548445e+01    9.525315e-01
  2.550033e+01    9.734715e-01
  2.551620e+01    9.927751e-01
  2.553208e+01    1.004605e+00
  2.554795e+01    1.005494e+00
  2.556383e+01    1.026320e+00
  2.557971e+01    1.050557e+00
  2.559558e+01    1.100580e+00
  2.561146e+01    1.093365e+00
  2.562733e+01    1.152688e+00
  2.564321e+01    1.210597e+00
  2.565908e+01    1.253476e+00
  2.567496e+01    1.315382e+00
  2.569083e+01    1.345940e+00
  2.570671e+01    1.445726e+00
  2.572259e+01    1.574154e+00
  2.573846e+01    1.667790e+00
  2.575434e+01    1.809227e+00
  2.577021e+01    2.014298e+00
  2.578609e+01    2.210189e+00
  2.580196e+01    2.485754e+00
  2.581784e+01    2.789129e+00
  2.583371e+01    3.197792e+00
  2.584959e+01    3.691876e+00
  2.586547e+01    4.225395e+00
  2.588134e+01    4.804312e+00
  2.589722e+01    5.503757e+00
  2.591309e+01    6.140535e+00
  2.592897e+01    6.798297e+00
  2.594484e+01    7.380612e+00
  2.596072e+01    7.771831e+00
  2.597660e+01    7.954405e+00
  2.599247e+01    7.778784e+00
  2.600835e+01    7.380997e+00
  2.602422e+01    6.761628e+00
  2.604010e+01    5.929015e+00
  2.605597e+01    5.094766e+00
  2.607185e+01    4.367411e+00
  2.608772e+01    3.727591e+00
  2.610360e+01    3.213048e+00
  2.611948e+01    2.791363e+00
  2.613535e+01    2.460770e+00
  2.615123e+01    2.205250e+00
  2.616710e+01    1.990701e+00
  2.618298e+01    1.797216e+00
  2.619885e+01    1.671465e+00
  2.621473e+01    1.589278e+00
  2.623060e+01    1.499552e+00
  2.624648e+01    1.401155e+00
  2.626236e+01    1.319200e+00
  2.627823e+01    1.247822e+00
  2.629411e+01    1.172003e+00
  2.630998e+01    1.167646e+00
  2.632586e+01    1.115824e+00
  2.634173e+01    1.073354e+00
  2.635761e+01    1.071918e+00
  2.637348e+01    1.035297e+00
  2.638936e+01    9.941124e-01
  2.640524e+01    9.993465e-01
  2.642111e+01    1.015828e+00
  2.643699e+01    9.908483e-01
  2.645286e+01    9.608178e-01
  2.646874e+01    9.545569e-01
  2.648461e+01    9.474698e-01
  2.650049e+01    9.360853e-01
  2.651636e+01    9.268155e-01
  2.653224e+01    9.256160e-01
  2.654812e+01    9.188822e-01
  2.656399e+01    9.212634e-01
  2.657987e+01    9.131501e-01
  2.659574e+01    9.075422e-01
  2.661162e+01    9.037654e-01
  2.662749e+01    8.663806e-01
  2.664337e+01    8.794407e-01
  2.665924e+01    8.771788e-01
  2.667512e+01    8.904651e-01
  2.669100e+01    8.699803e-01
  2.670687e+01    8.963375e-01
  2.672275e+01    8.838119e-01
  2.673862e+01    8.820117e-01
  2.675450e+01    8.878855e-01
  2.677037e+01    8.724092e-01
  2.678625e+01    8.760214e-01
  2.680212e+01    8.935664e-01
  2.681800e+01    9.170778e-01
  2.683388e+01    9.233944e-01
  2.684975e+01    8.907271e-01
  2.686563e+01    8.850598e-01
  2.688150e+01    8.886204e-01
  2.689738e+01    9.167504e-01
  2.691325e+01    9.165022e-01
  2.692913e+01    9.293060e-01
  2.694501e+01    9.325883e-01
  2.696088e+01    9.547263e-01
  2.697676e+01    9.495964e-01
  2.699263e+01    9.702549e-01
  2.700851e+01    1.006745e+00
  2.702438e+01    1.055193e+00
  2.704026e+01    1.095900e+00
  2.705613e+01    1.131411e+00
  2.707201e+01    1.180001e+00
  2.708789e+01    1.259576e+00
  2.710376e+01    1.330350e+00
  2.711964e+01    1.458829e+00
  2.713551e+01    1.589095e+00
  2.715139e+01    1.723229e+00
  2.716726e+01    1.837721e+00
  2.718314e+01    1.994116e+00
  2.719901e+01    2.143424e+00
  2.721489e+01    2.241700e+00
  2.723077e+01    2.320473e+00
  2.724664e+01    2.328505e+00
  2.726252e+01    2.252062e+00
  2.727839e+01    2.146526e+00
  2.729427e+01    1.981929e+00
  2.731014e+01    1.798063e+00
  2.732602e+01    1.614590e+00
  2.734189e+01    1.456992e+00
  2.735777e+01    1.325347e+00
  2.737365e+01    1.252177e+00
  2.738952e+01    1.215580e+00
  2.740540e+01    1.154645e+00
  2.742127e+01    1.095224e+00
  2.743715e+01    1.041447e+00
  2.745302e+01    9.869788e-01
  2.746890e+01    9.625462e-01
  2.748477e+01    9.618770e-01
  2.750065e+01    9.227636e-01
  2.751653e+01    8.950031e-01
  2.753240e+01    8.931771e-01
  2.754828e+01    8.741363e-01
  2.756415e+01    8.547169e-01
  2.758003e+01    8.598042e-01
  2.759590e+01    8.490578e-01
  2.761178e+01    8.345481e-01
  2.762765e+01    8.423872e-01
  2.764353e+01    8.432559e-01
  2.765941e+01    8.424813e-01
  2.767528e+01    8.430269e-01
  2.769116e+01    8.113819e-01
  2.770703e+01    8.166494e-01
  2.772291e+01    8.134601e-01
  2.773878e+01    8.197481e-01
  2.775466e+01    7.940531e-01
  2.777054e+01    8.151391e-01
  2.778641e+01    7.970251e-01
  2.780229e+01    7.929626e-01
  2.781816e+01    7.942643e-01
  2.783404e+01    7.773532e-01
  2.784991e+01    7.827443e-01
  2.786579e+01    7.979573e-01
  2.788166e+01    7.874331e-01
  2.789754e+01    7.762460e-01
  2.791342e+01    7.942367e-01
  2.792929e+01    7.954090e-01
  2.794517e+01    7.674862e-01
  2.796104e+01    7.797760e-01
  2.797692e+01    7.687198e-01
  2.799279e+01    7.741656e-01
  2.800867e+01    7.898510e-01
  2.802454e+01    7.802567e-01
  2.804042e+01    7.844819e-01
  2.805630e+01    7.698191e-01
  2.807217e+01    7.642087e-01
  2.808805e+01    7.701406e-01
  2.810392e+01    7.643023e-01
  2.811980e+01    7.808418e-01
  2.813567e+01    7.744270e-01
  2.815155e+01    7.830092e-01
  2.816742e+01    7.660004e-01
  2.818330e+01    7.650640e-01
  2.819918e+01    7.670539e-01
  2.821505e+01    7.669895e-01
  2.823093e+01    7.714531e-01
  2.824680e+01    7.648845e-01
  2.826268e+01    7.563135e-01
  2.827855e+01    7.834539e-01
  2.829443e+01    7.887846e-01
  2.831030e+01    7.697838e-01
  2.832618e+01    7.703099e-01
  2.834206e+01    7.629734e-01
  2.835793e+01    7.562678e-01
  2.837381e+01    7.529575e-01
  2.838968e+01    7.390807e-01
  2.840556e+01    7.364170e-01
  2.842143e+01    7.439873e-01
  2.843731e+01    7.407060e-01
  2.845318e+01    7.412710e-01
  2.846906e+01    7.484300e-01
  2.848494e+01    7.372717e-01
  2.850081e+01    7.582569e-01
  2.851669e+01    7.638559e-01
  2.853256e+01    7.560126e-01
  2.854844e+01    7.541347e-01
  2.856431e+01    7.571755e-01
  2.858019e+01    7.538488e-01
  2.859606e+01    7.599248e-01
  2.861194e+01    7.522871e-01
  2.862782e+01    7.527559e-01
  2.864369e+01    7.604089e-01
  2.865957e+01    7.458413e-01
  2.867544e+01    7.353493e-01
  2.869132e+01    7.533173e-01
  2.870719e+01    7.321154e-01
  2.872307e+01    7.459670e-01
  2.873895e+01    7.339577e-01
  2.875482e+01    7.283145e-01
  2.877070e+01    7.536251e-01
  2.878657e+01    7.605154e-01
  2.880245e+01    7.415450e-01
  2.881832e+01    7.473794e-01
  2.883420e+01    7.227062e-01
  2.885007e+01    7.093285e-01
  2.886595e+01    7.088959e-01
  2.888183e+01    7.190802e-01
  2.889770e+01    7.207129e-01
  2.891358e+01    7.229261e-01
  2.892945e+01    7.208910e-01
  2.894533e+01    7.224811e-01
  2.896120e+01    7.350823e-01
  2.897708e+01    7.385436e-01
  2.899295e+01    7.271553e-01
  2.900883e+01    7.458515e-01
  2.902471e+01    7.396852e-01
  2.904058e+01    7.445992e-01
  2.905646e+01    7.452765e-01
  2.907233e+01    7.376266e-01
  2.908821e+01    7.436829e-01
  2.910408e+01    7.463024e-01
  2.911996e+01    7.460656e-01
  2.913583e+01    7.279978e-01
  2.915171e+01    7.390423e-01
  2.916759e+01    7.462439e-01
  2.918346e+01    7.350494e-01
  2.919934e+01    7.469296e-01
  2.921521e+01    7.569963e-01
  2.923109e+01    7.355555e-01
  2.924696e+01    7.196099e-01
  2.926284e+01    7.145264e-01
  2.927871e+01    6.921901e-01
  2.929459e+01    7.147702e-01
  2.931047e+01    7.339608e-01
  2.932634e+01    7.285277e-01
  2.934222e+01    7.416958e-01
  2.935809e+01    7.311848e-01
  2.937397e+01    7.368149e-01
  2.938984e+01    7.168084e-01
  2.940572e+01    7.250019e-01
  2.942159e+01    7.302571e-01
  2.943747e+01    7.072045e-01
  2.945335e+01    7.058730e-01
  2.946922e+01    7.184401e-01
  2.948510e+01    7.270558e-01
  2.950097e+01    7.072965e-01
  2.951685e+01    7.199617e-01
  2.953272e+01    7.254900e-01
  2.954860e+01    7.425023e-01
  2.956447e+01    7.357202e-01
  2.958035e+01    6.987655e-01
  2.959623e+01    7.056218e-01
  2.961210e+01    7.174719e-01
  2.962798e+01    7.037802e-01
  2.964385e+01    7.048030e-01
  2.965973e+01    7.077054e-01
  2.967560e+01    7.180010e-01
  2.969148e+01    7.180704e-01
  2.970736e+01    7.004521e-01
  2.972323e+01    7.084040e-01
  2.973911e+01    7.012337e-01
  2.975498e+01    7.101728e-01
  2.977086e+01    7.182876e-01
  2.978673e+01    7.153469e-01
  2.980261e+01    7.074334e-01
  2.981848e+01    7.035865e-01
  2.983436e+01    7.020233e-01
  2.985024e+01    7.197074e-01
  2.986611e+01    7.157289e-01
  2.988199e+01    7.192606e-01
  2.989786e+01    7.349833e-01
  2.991374e+01    7.083764e-01
  2.992961e+01    7.228815e-01
  2.994549e+01    6.904984e-01
  2.996136e+01    6.952327e-01
  2.997724e+01    7.284350e-01
  2.999312e+01    7.132335e-01
  3.000899e+01    7.113238e-01
  3.002487e+01    7.360003e-01
  3.004074e+01    7.216553e-01
  3.005662e+01    7.247298e-01
  3.007249e+01    7.271835e-01
  3.008837e+01    7.262763e-01
  3.010424e+01    7.408077e-01
  3.012012e+01    7.316939e-01
  3.013600e+01    7.349834e-01
  3.015187e+01    7.176477e-01
  3.016775e+01    7.275994e-01
  3.018362e+01    7.089495e-01
  3.019950e+01    6.968154e-01
  3.021537e+01    7.189873e-01
  3.023125e+01    7.199236e-01
  3.024712e+01    6.984217e-01
  3.026300e+01    7.108618e-01
  3.027888e+01    6.839140e-01
  3.029475e+01    6.884034e-01
  3.031063e+01    7.013947e-01
  3.032650e+01    7.260175e-01
  3.034238e+01    7.020599e-01
  3.035825e+01    6.950013e-01
  3.037413e+01    7.105374e-01
  3.039000e+01    7.108871e-01
  3.040588e+01    7.023085e-01
  3.042176e+01    6.920992e-01
  3.043763e+01    6.824645e-01
  3.045351e+01    6.968072e-01
  3.046938e+01    7.079651e-01
  3.048526e+01    6.886327e-01
  3.050113e+01    6.804085e-01
  3.051701e+01    6.968834e-01
  3.053288e+01    7.007518e-01
  3.054876e+01    7.090327e-01
  3.056464e+01    7.151666e-01
  3.058051e+01    7.227461e-01
  3.059639e+01    6.958844e-01
  3.061226e+01    7.025851e-01
  3.062814e+01    7.138416e-01
  3.064401e+01    6.837930e-01
  3.065989e+01    6.856740e-01
  3.067577e+01    7.239794e-01
  3.069164e+01    7.246140e-01
  3.070752e+01    6.868507e-01
  3.072339e+01    7.062145e-01
  3.073927e+01    7.057527e-01
  3.075514e+01    7.148658e-01
  3.077102e+01    7.270827e-01
  3.078689e+01    7.272993e-01
  3.080277e+01    7.052867e-01
  3.081865e+01    6.945896e-01
  3.083452e+01    6.869283e-01
  3.085040e+01    6.834663e-01
  3.086627e+01    7.169094e-01
  3.088215e+01    7.189460e-01
  3.089802e+01    7.294828e-01
  3.091390e+01    7.238980e-01
  3.092977e+01    7.084292e-01
  3.094565e+01    6.947406e-01
  3.096153e+01    7.133112e-01
  3.097740e+01    7.179590e-01
  3.099328e+01    7.217587e-01
  3.100915e+01    7.141746e-01
  3.102503e+01    7.288730e-01
  3.104090e+01    7.141088e-01
  3.105678e+01    7.147202e-01
  3.107265e+01    7.047241e-01
  3.108853e+01    7.032974e-01
  3.110441e+01    7.124853e-01
  3.112028e+01    7.008887e-01
  3.113616e+01    7.233871e-01
  3.115203e+01    7.155413e-01
  3.116791e+01    6.910751e-01
  3.118378e+01    7.104809e-01
  3.119966e+01    7.235200e-01
  3.121553e+01    7.362230e-01
  3.123141e+01    7.254766e-01
  3.124729e+01    7.321010e-01
  3.126316e+01    7.370785e-01
  3.127904e+01    7.275136e-01
  3.129491e+01    7.190842e-01
  3.131079e+01    7.273723e-01
  3.132666e+01    7.474865e-01
  3.134254e+01    7.213642e-01
  3.135841e+01    7.173735e-01
  3.137429e+01    7.324255e-01
  3.139017e+01    7.575463e-01
  3.140604e+01    7.466639e-01
  3.142192e+01    7.512228e-01
  3.143779e+01    7.491692e-01
  3.145367e+01    7.433354e-01
  3.146954e+01    7.423412e-01
  3.148542e+01    7.393973e-01
  3.150129e+01    7.527835e-01
  3.151717e+01    7.627853e-01
  3.153305e+01    7.710636e-01
  3.154892e+01    7.640123e-01
  3.156480e+01    7.880986e-01
  3.158067e+01    7.970181e-01
  3.159655e+01    8.131987e-01
  3.161242e+01    8.321645e-01
  3.162830e+01    8.365610e-01
  3.164418e+01    8.447375e-01
  3.166005e+01    8.569797e-01
  3.167593e+01    8.835645e-01
  3.169180e+01    9.264338e-01
  3.170768e+01    9.344746e-01
  3.172355e+01    9.742469e-01
  3.173943e+01    1.031461e+00
  3.175530e+01    1.062752e+00
  3.177118e+01    1.132751e+00
  3.178706e+01    1.220090e+00
  3.180293e+01    1.300974e+00
  3.181881e+01    1.407451e+00
  3.183468e+01    1.596725e+00
  3.185056e+01    1.718282e+00
  3.186643e+01    1.904356e+00
  3.188231e+01    2.077039e+00
  3.189818e+01    2.178155e+00
  3.191406e+01    2.292322e+00
  3.192994e+01    2.296704e+00
  3.194581e+01    2.288989e+00
  3.196169e+01    2.174076e+00
  3.197756e+01    2.011074e+00
  3.199344e+01    1.841233e+00
  3.200931e+01    1.683042e+00
  3.202519e+01    1.521850e+00
  3.204106e+01    1.394413e+00
  3.205694e+01    1.245054e+00
  3.207282e+01    1.185471e+00
  3.208869e+01    1.091520e+00
  3.210457e+01    1.028342e+00
  3.212044e+01    9.850480e-01
  3.213632e+01    9.406220e-01
  3.215219e+01    9.174597e-01
  3.216807e+01    9.001005e-01
  3.218394e+01    8.599845e-01
  3.219982e+01    8.209444e-01
  3.221570e+01    8.255529e-01
  3.223157e+01    8.386666e-01
  3.224745e+01    8.076921e-01
  3.226332e+01    7.779663e-01
  3.227920e+01    7.654653e-01
  3.229507e+01    7.951300e-01
  3.231095e+01    7.712115e-01
  3.232682e+01    7.539815e-01
  3.234270e+01    7.480775e-01
  3.235858e+01    7.636510e-01
  3.237445e+01    7.394399e-01
  3.239033e+01    7.357857e-01
  3.240620e+01    7.363709e-01
  3.242208e+01    7.162961e-01
  3.243795e+01    7.408442e-01
  3.245383e+01    7.409581e-01
  3.246970e+01    7.301890e-01
  3.248558e+01    7.321709e-01
  3.250146e+01    7.169197e-01
  3.251733e+01    7.180786e-01
  3.253321e+01    7.136135e-01
  3.254908e+01    7.176669e-01
