# == pyFAI calibration ==
# Distance Sample to Detector: 0.3999999939076516 m
# PONI: 9.750e-02, 1.135e-01 m
# Rotations: -0.000175 0.000000 -0.000000 rad
# 
# == Fit2d calibration ==
# Distance Sample-beamCenter: 400.000 mm
# Center: x=1514.000, y=1300.000 pix
# Tilt: 0.010 deg  TiltPlanRot: 0.010 deg
# 
# Detector Detector	 Spline= None	 PixelSize= 7.500e-05, 7.500e-05 m
#    Detector has a mask: False 
#    Detector has a dark current: False 
#    detector has a flat field: False 
# 
# Wavelength: 6.888e-11 m
# Mask applied: user provided
# Dark current applied: False
# Flat field applied: False
# Polarization factor: 0.99
# Normalization factor: 1.0
# --> /home/myspot/data/2024_07_Rosario/Ru-CGO-ex/2024-07-27_002_Ru-CGO-ex_Activtation_ramp_000002_data_000186.dat
#       q_nm^-1             I 
  2.003187e-02    0.000000e+00
  3.590745e-02    3.427850e-02
  5.178302e-02    1.629360e-01
  6.765859e-02    1.820831e-01
  8.353417e-02    1.405548e-01
  9.940974e-02    1.091405e-01
  1.152853e-01    3.895709e-02
  1.311609e-01    3.487048e-03
  1.470365e-01    3.390466e-02
  1.629120e-01    5.108232e-02
  1.787876e-01    5.237325e-02
  1.946632e-01    7.392395e-02
  2.105388e-01    4.099061e-02
  2.264143e-01    2.035140e-02
  2.422899e-01    2.767542e-02
  2.581655e-01    2.522844e-02
  2.740411e-01    2.687073e-02
  2.899166e-01    5.245103e-02
  3.057922e-01    5.654119e-02
  3.216678e-01    3.619581e-02
  3.375433e-01    5.832879e-02
  3.534189e-01    4.736309e-02
  3.692945e-01    3.513383e-02
  3.851701e-01    5.006669e-02
  4.010456e-01    4.618417e-02
  4.169212e-01    3.424922e-02
  4.327968e-01    4.101352e-02
  4.486724e-01    6.044232e-02
  4.645479e-01    5.852387e-02
  4.804235e-01    3.041281e-02
  4.962991e-01    1.396217e-02
  5.121747e-01    1.370797e-02
  5.280502e-01    4.573936e-02
  5.439258e-01    5.446312e-02
  5.598014e-01    6.094103e-02
  5.756770e-01    3.265024e-02
  5.915525e-01    3.945146e-02
  6.074281e-01    5.603948e-02
  6.233037e-01    4.388868e-02
  6.391793e-01    3.332542e-02
  6.550548e-01    3.175318e-02
  6.709304e-01    2.202442e-02
  6.868060e-01    3.778511e-02
  7.026815e-01    4.766823e-02
  7.185571e-01    4.191983e-02
  7.344327e-01    3.888679e-02
  7.503083e-01    3.450490e-02
  7.661838e-01    5.285229e-02
  7.820594e-01    1.100189e-01
  7.979350e-01    1.172146e-01
  8.138106e-01    2.154706e-01
  8.296861e-01    2.830233e-01
  8.455617e-01    2.691899e-01
  8.614373e-01    3.549896e-01
  8.773129e-01    4.111411e-01
  8.931884e-01    4.729932e-01
  9.090640e-01    6.102558e-01
  9.249396e-01    6.665461e-01
  9.408152e-01    7.470763e-01
  9.566907e-01    8.688838e-01
  9.725663e-01    8.927196e-01
  9.884419e-01    9.753346e-01
  1.004317e+00    1.004483e+00
  1.020193e+00    1.101006e+00
  1.036069e+00    1.138146e+00
  1.051944e+00    1.227926e+00
  1.067820e+00    1.286719e+00
  1.083695e+00    1.417906e+00
  1.099571e+00    1.384027e+00
  1.115446e+00    1.413348e+00
  1.131322e+00    1.361770e+00
  1.147198e+00    1.400801e+00
  1.163073e+00    1.454860e+00
  1.178949e+00    1.466591e+00
  1.194824e+00    1.651049e+00
  1.210700e+00    1.874267e+00
  1.226575e+00    1.956492e+00
  1.242451e+00    2.174199e+00
  1.258327e+00    2.248458e+00
  1.274202e+00    2.330128e+00
  1.290078e+00    2.385504e+00
  1.305953e+00    2.575309e+00
  1.321829e+00    2.601477e+00
  1.337705e+00    2.565927e+00
  1.353580e+00    2.576537e+00
  1.369456e+00    2.536161e+00
  1.385331e+00    2.495812e+00
  1.401207e+00    2.540104e+00
  1.417082e+00    2.594755e+00
  1.432958e+00    2.599461e+00
  1.448834e+00    2.698437e+00
  1.464709e+00    2.890292e+00
  1.480585e+00    2.829072e+00
  1.496460e+00    2.900359e+00
  1.512336e+00    2.888104e+00
  1.528211e+00    2.798252e+00
  1.544087e+00    2.819710e+00
  1.559963e+00    2.835606e+00
  1.575838e+00    2.862515e+00
  1.591714e+00    2.794134e+00
  1.607589e+00    2.862973e+00
  1.623465e+00    2.808322e+00
  1.639340e+00    2.708787e+00
  1.655216e+00    2.780807e+00
  1.671092e+00    2.873697e+00
  1.686967e+00    2.680833e+00
  1.702843e+00    2.650887e+00
  1.718718e+00    2.738469e+00
  1.734594e+00    2.679276e+00
  1.750469e+00    2.600677e+00
  1.766345e+00    2.683722e+00
  1.782221e+00    2.765230e+00
  1.798096e+00    2.723256e+00
  1.813972e+00    2.659768e+00
  1.829847e+00    2.677961e+00
  1.845723e+00    2.675673e+00
  1.861598e+00    2.695095e+00
  1.877474e+00    2.609697e+00
  1.893350e+00    2.571115e+00
  1.909225e+00    2.679926e+00
  1.925101e+00    2.679657e+00
  1.940976e+00    2.603913e+00
  1.956852e+00    2.625301e+00
  1.972727e+00    2.685607e+00
  1.988603e+00    2.724886e+00
  2.004479e+00    2.699965e+00
  2.020354e+00    2.720557e+00
  2.036230e+00    2.741520e+00
  2.052105e+00    2.680048e+00
  2.067981e+00    2.712257e+00
  2.083856e+00    2.758740e+00
  2.099732e+00    2.827523e+00
  2.115608e+00    2.767943e+00
  2.131483e+00    2.891368e+00
  2.147359e+00    2.742968e+00
  2.163234e+00    2.789083e+00
  2.179110e+00    2.704419e+00
  2.194985e+00    2.641781e+00
  2.210861e+00    2.639588e+00
  2.226737e+00    2.673175e+00
  2.242612e+00    2.638955e+00
  2.258488e+00    2.623422e+00
  2.274363e+00    2.744148e+00
  2.290239e+00    2.710613e+00
  2.306115e+00    2.603265e+00
  2.321990e+00    2.628134e+00
  2.337866e+00    2.759649e+00
  2.353741e+00    2.814131e+00
  2.369617e+00    2.829610e+00
  2.385492e+00    2.832466e+00
  2.401368e+00    2.811741e+00
  2.417244e+00    2.906955e+00
  2.433119e+00    2.882532e+00
  2.448995e+00    2.927273e+00
  2.464870e+00    2.850926e+00
  2.480746e+00    2.871385e+00
  2.496621e+00    2.773181e+00
  2.512497e+00    2.736257e+00
  2.528373e+00    2.807361e+00
  2.544248e+00    2.840041e+00
  2.560124e+00    2.737303e+00
  2.575999e+00    2.650129e+00
  2.591875e+00    2.698025e+00
  2.607750e+00    2.840383e+00
  2.623626e+00    2.745994e+00
  2.639502e+00    2.819311e+00
  2.655377e+00    2.879356e+00
  2.671253e+00    2.798646e+00
  2.687128e+00    2.786375e+00
  2.703004e+00    2.762119e+00
  2.718879e+00    2.713068e+00
  2.734755e+00    2.715333e+00
  2.750631e+00    2.800715e+00
  2.766506e+00    2.872893e+00
  2.782382e+00    2.781603e+00
  2.798257e+00    2.838928e+00
  2.814133e+00    2.885704e+00
  2.830008e+00    2.864227e+00
  2.845884e+00    2.823953e+00
  2.861760e+00    2.797381e+00
  2.877635e+00    2.871727e+00
  2.893511e+00    2.870358e+00
  2.909386e+00    2.896015e+00
  2.925262e+00    2.939554e+00
  2.941137e+00    2.895860e+00
  2.957013e+00    2.843363e+00
  2.972889e+00    2.842745e+00
  2.988764e+00    2.870204e+00
  3.004640e+00    2.868669e+00
  3.020515e+00    2.875356e+00
  3.036391e+00    2.862887e+00
  3.052266e+00    2.772873e+00
  3.068142e+00    2.777796e+00
  3.084018e+00    2.817612e+00
  3.099893e+00    2.729270e+00
  3.115769e+00    2.879039e+00
  3.131644e+00    2.939632e+00
  3.147520e+00    2.898605e+00
  3.163395e+00    2.920265e+00
  3.179271e+00    2.845799e+00
  3.195147e+00    2.934302e+00
  3.211022e+00    2.902829e+00
  3.226898e+00    2.926234e+00
  3.242773e+00    2.904348e+00
  3.258649e+00    2.873024e+00
  3.274525e+00    2.886724e+00
  3.290400e+00    2.890369e+00
  3.306276e+00    2.951902e+00
  3.322151e+00    2.932365e+00
  3.338027e+00    2.894850e+00
  3.353902e+00    2.875953e+00
  3.369778e+00    3.005808e+00
  3.385654e+00    2.911215e+00
  3.401529e+00    2.899553e+00
  3.417405e+00    2.983478e+00
  3.433280e+00    2.991842e+00
  3.449156e+00    3.041411e+00
  3.465031e+00    2.989504e+00
  3.480907e+00    2.983930e+00
  3.496783e+00    2.953357e+00
  3.512658e+00    2.989091e+00
  3.528534e+00    2.894893e+00
  3.544409e+00    2.860565e+00
  3.560285e+00    2.906211e+00
  3.576160e+00    2.973133e+00
  3.592036e+00    3.014441e+00
  3.607912e+00    2.986334e+00
  3.623787e+00    3.036107e+00
  3.639663e+00    2.961284e+00
  3.655538e+00    2.903795e+00
  3.671414e+00    3.008517e+00
  3.687289e+00    3.003092e+00
  3.703165e+00    3.018457e+00
  3.719041e+00    2.932715e+00
  3.734916e+00    2.991589e+00
  3.750792e+00    3.028193e+00
  3.766667e+00    2.985210e+00
  3.782543e+00    2.954822e+00
  3.798418e+00    2.979809e+00
  3.814294e+00    2.997728e+00
  3.830170e+00    2.957742e+00
  3.846045e+00    3.010727e+00
  3.861921e+00    3.092878e+00
  3.877796e+00    3.018970e+00
  3.893672e+00    2.904937e+00
  3.909547e+00    2.999580e+00
  3.925423e+00    3.027851e+00
  3.941299e+00    2.924042e+00
  3.957174e+00    2.982445e+00
  3.973050e+00    2.961785e+00
  3.988925e+00    2.953285e+00
  4.004801e+00    2.996289e+00
  4.020676e+00    3.065187e+00
  4.036552e+00    3.015997e+00
  4.052428e+00    3.049925e+00
  4.068303e+00    3.079207e+00
  4.084179e+00    2.985838e+00
  4.100054e+00    3.013438e+00
  4.115930e+00    3.024567e+00
  4.131806e+00    2.984483e+00
  4.147681e+00    3.076561e+00
  4.163557e+00    3.113174e+00
  4.179432e+00    3.044902e+00
  4.195308e+00    2.974956e+00
  4.211183e+00    3.074258e+00
  4.227059e+00    3.036140e+00
  4.242935e+00    2.938401e+00
  4.258810e+00    2.973504e+00
  4.274686e+00    2.996792e+00
  4.290561e+00    3.020456e+00
  4.306437e+00    3.042424e+00
  4.322312e+00    3.071454e+00
  4.338188e+00    3.132408e+00
  4.354064e+00    3.052083e+00
  4.369939e+00    2.966830e+00
  4.385815e+00    3.012414e+00
  4.401690e+00    3.076133e+00
  4.417566e+00    3.111279e+00
  4.433441e+00    3.146082e+00
  4.449317e+00    3.041278e+00
  4.465193e+00    3.066131e+00
  4.481068e+00    3.116744e+00
  4.496944e+00    3.106684e+00
  4.512819e+00    3.063734e+00
  4.528695e+00    3.133086e+00
  4.544570e+00    3.121083e+00
  4.560446e+00    3.112150e+00
  4.576322e+00    3.132674e+00
  4.592197e+00    3.170378e+00
  4.608073e+00    3.136111e+00
  4.623948e+00    3.081303e+00
  4.639824e+00    3.069730e+00
  4.655699e+00    3.070771e+00
  4.671575e+00    3.094809e+00
  4.687451e+00    3.109208e+00
  4.703326e+00    3.187262e+00
  4.719202e+00    3.148354e+00
  4.735077e+00    3.095110e+00
  4.750953e+00    3.055872e+00
  4.766828e+00    3.099808e+00
  4.782704e+00    3.121366e+00
  4.798580e+00    3.093611e+00
  4.814455e+00    3.068457e+00
  4.830331e+00    3.116776e+00
  4.846206e+00    3.165060e+00
  4.862082e+00    3.114225e+00
  4.877957e+00    3.103022e+00
  4.893833e+00    3.198802e+00
  4.909709e+00    3.114963e+00
  4.925584e+00    3.045568e+00
  4.941460e+00    3.110611e+00
  4.957335e+00    3.134795e+00
  4.973211e+00    3.078992e+00
  4.989086e+00    3.153798e+00
  5.004962e+00    3.198807e+00
  5.020838e+00    3.194566e+00
  5.036713e+00    3.187894e+00
  5.052589e+00    3.158527e+00
  5.068464e+00    3.187715e+00
  5.084340e+00    3.124712e+00
  5.100216e+00    3.133100e+00
  5.116091e+00    3.162917e+00
  5.131967e+00    3.160872e+00
  5.147842e+00    3.202327e+00
  5.163718e+00    3.161108e+00
  5.179593e+00    3.142067e+00
  5.195469e+00    3.152822e+00
  5.211345e+00    3.075824e+00
  5.227220e+00    3.033241e+00
  5.243096e+00    3.117139e+00
  5.258971e+00    3.129982e+00
  5.274847e+00    3.118996e+00
  5.290722e+00    3.051658e+00
  5.306598e+00    3.040998e+00
  5.322474e+00    3.101397e+00
  5.338349e+00    3.171069e+00
  5.354225e+00    3.260293e+00
  5.370100e+00    3.144648e+00
  5.385976e+00    3.143779e+00
  5.401851e+00    3.189523e+00
  5.417727e+00    3.110789e+00
  5.433603e+00    3.114118e+00
  5.449478e+00    3.148873e+00
  5.465354e+00    3.118397e+00
  5.481229e+00    3.143260e+00
  5.497105e+00    3.069536e+00
  5.512980e+00    3.017936e+00
  5.528856e+00    3.022897e+00
  5.544732e+00    3.056211e+00
  5.560607e+00    3.116403e+00
  5.576483e+00    3.126204e+00
  5.592358e+00    3.137155e+00
  5.608234e+00    3.120862e+00
  5.624109e+00    3.129284e+00
  5.639985e+00    3.136861e+00
  5.655861e+00    3.133934e+00
  5.671736e+00    3.138686e+00
  5.687612e+00    3.135814e+00
  5.703487e+00    3.090391e+00
  5.719363e+00    3.073685e+00
  5.735238e+00    3.154654e+00
  5.751114e+00    3.077879e+00
  5.766990e+00    3.002480e+00
  5.782865e+00    2.990290e+00
  5.798741e+00    3.058407e+00
  5.814616e+00    3.076112e+00
  5.830492e+00    3.082040e+00
  5.846367e+00    3.009660e+00
  5.862243e+00    3.019116e+00
  5.878119e+00    3.099263e+00
  5.893994e+00    3.043271e+00
  5.909870e+00    3.078073e+00
  5.925745e+00    3.037901e+00
  5.941621e+00    2.997467e+00
  5.957497e+00    2.985303e+00
  5.973372e+00    3.031224e+00
  5.989248e+00    2.997871e+00
  6.005123e+00    3.037842e+00
  6.020999e+00    3.004967e+00
  6.036874e+00    3.016256e+00
  6.052750e+00    3.043641e+00
  6.068626e+00    3.067833e+00
  6.084501e+00    3.038493e+00
  6.100377e+00    3.119100e+00
  6.116252e+00    3.060746e+00
  6.132128e+00    3.010510e+00
  6.148003e+00    3.072090e+00
  6.163879e+00    3.096354e+00
  6.179755e+00    3.048002e+00
  6.195630e+00    3.067185e+00
  6.211506e+00    3.070795e+00
  6.227381e+00    3.028754e+00
  6.243257e+00    3.039100e+00
  6.259132e+00    3.071524e+00
  6.275008e+00    2.983636e+00
  6.290884e+00    3.001959e+00
  6.306759e+00    3.051483e+00
  6.322635e+00    3.064563e+00
  6.338510e+00    3.111815e+00
  6.354386e+00    3.087438e+00
  6.370261e+00    2.986101e+00
  6.386137e+00    2.963600e+00
  6.402013e+00    3.070700e+00
  6.417888e+00    3.129289e+00
  6.433764e+00    3.106729e+00
  6.449639e+00    3.107560e+00
  6.465515e+00    3.130402e+00
  6.481390e+00    3.052052e+00
  6.497266e+00    3.024782e+00
  6.513142e+00    2.969322e+00
  6.529017e+00    3.030453e+00
  6.544893e+00    3.098974e+00
  6.560768e+00    3.071646e+00
  6.576644e+00    3.016256e+00
  6.592519e+00    2.992072e+00
  6.608395e+00    2.991669e+00
  6.624271e+00    3.022960e+00
  6.640146e+00    3.025332e+00
  6.656022e+00    3.029280e+00
  6.671897e+00    3.032536e+00
  6.687773e+00    3.105179e+00
  6.703648e+00    3.096520e+00
  6.719524e+00    3.097604e+00
  6.735400e+00    3.087911e+00
  6.751275e+00    3.141369e+00
  6.767151e+00    3.049973e+00
  6.783026e+00    3.053490e+00
  6.798902e+00    3.047132e+00
  6.814777e+00    3.011538e+00
  6.830653e+00    3.066923e+00
  6.846529e+00    3.016803e+00
  6.862404e+00    3.061032e+00
  6.878280e+00    3.060672e+00
  6.894155e+00    2.967376e+00
  6.910031e+00    2.962536e+00
  6.925907e+00    2.988701e+00
  6.941782e+00    3.071429e+00
  6.957658e+00    3.022633e+00
  6.973533e+00    3.061257e+00
  6.989409e+00    3.066663e+00
  7.005284e+00    2.997108e+00
  7.021160e+00    2.965869e+00
  7.037036e+00    3.038553e+00
  7.052911e+00    3.031668e+00
  7.068787e+00    3.069549e+00
  7.084662e+00    3.032257e+00
  7.100538e+00    3.082678e+00
  7.116413e+00    3.080457e+00
  7.132289e+00    3.061301e+00
  7.148165e+00    2.981034e+00
  7.164040e+00    3.010844e+00
  7.179916e+00    3.035405e+00
  7.195791e+00    3.040134e+00
  7.211667e+00    3.036347e+00
  7.227542e+00    3.057465e+00
  7.243418e+00    3.030501e+00
  7.259294e+00    3.064194e+00
  7.275169e+00    3.049238e+00
  7.291045e+00    3.063203e+00
  7.306920e+00    2.995008e+00
  7.322796e+00    3.058658e+00
  7.338671e+00    3.105157e+00
  7.354547e+00    3.031753e+00
  7.370423e+00    3.048374e+00
  7.386298e+00    2.991374e+00
  7.402174e+00    2.993578e+00
  7.418049e+00    2.986265e+00
  7.433925e+00    2.990327e+00
  7.449800e+00    3.004350e+00
  7.465676e+00    3.015025e+00
  7.481552e+00    2.918818e+00
  7.497427e+00    2.970183e+00
  7.513303e+00    3.047867e+00
  7.529178e+00    2.949083e+00
  7.545054e+00    3.002316e+00
  7.560929e+00    2.970636e+00
  7.576805e+00    2.945990e+00
  7.592681e+00    2.970783e+00
  7.608556e+00    3.024498e+00
  7.624432e+00    3.012228e+00
  7.640307e+00    2.976384e+00
  7.656183e+00    2.926087e+00
  7.672058e+00    2.932915e+00
  7.687934e+00    2.900017e+00
  7.703810e+00    2.973158e+00
  7.719685e+00    2.984252e+00
  7.735561e+00    3.019679e+00
  7.751436e+00    3.056746e+00
  7.767312e+00    2.980623e+00
  7.783187e+00    2.985705e+00
  7.799063e+00    2.964354e+00
  7.814939e+00    2.978362e+00
  7.830814e+00    2.968795e+00
  7.846690e+00    2.966527e+00
  7.862565e+00    2.952066e+00
  7.878441e+00    2.917922e+00
  7.894317e+00    2.943285e+00
  7.910192e+00    3.039244e+00
  7.926068e+00    2.997947e+00
  7.941943e+00    2.954364e+00
  7.957819e+00    2.916134e+00
  7.973694e+00    2.953094e+00
  7.989570e+00    2.964638e+00
  8.005446e+00    2.963217e+00
  8.021321e+00    2.939801e+00
  8.037197e+00    2.945552e+00
  8.053072e+00    2.948902e+00
  8.068948e+00    2.906375e+00
  8.084823e+00    2.985443e+00
  8.100699e+00    3.011213e+00
  8.116575e+00    2.973639e+00
  8.132450e+00    3.000259e+00
  8.148326e+00    2.986178e+00
  8.164201e+00    2.997971e+00
  8.180077e+00    2.954816e+00
  8.195952e+00    2.930969e+00
  8.211828e+00    2.992626e+00
  8.227704e+00    2.979149e+00
  8.243579e+00    3.001190e+00
  8.259455e+00    3.014563e+00
  8.275330e+00    2.989837e+00
  8.291206e+00    2.976707e+00
  8.307081e+00    2.984772e+00
  8.322957e+00    2.992319e+00
  8.338833e+00    2.928241e+00
  8.354708e+00    2.915945e+00
  8.370584e+00    2.948764e+00
  8.386459e+00    2.963471e+00
  8.402335e+00    2.964862e+00
  8.418210e+00    2.878923e+00
  8.434086e+00    2.829870e+00
  8.449962e+00    2.873468e+00
  8.465837e+00    2.889770e+00
  8.481713e+00    2.905687e+00
  8.497588e+00    2.856237e+00
  8.513464e+00    2.884531e+00
  8.529339e+00    2.871689e+00
  8.545215e+00    2.888329e+00
  8.561091e+00    2.916515e+00
  8.576966e+00    2.932363e+00
  8.592842e+00    2.869887e+00
  8.608717e+00    2.885420e+00
  8.624593e+00    2.892352e+00
  8.640468e+00    2.923934e+00
  8.656344e+00    2.893124e+00
  8.672220e+00    2.913450e+00
  8.688095e+00    2.952949e+00
  8.703971e+00    2.853776e+00
  8.719846e+00    2.848705e+00
  8.735722e+00    2.826178e+00
  8.751598e+00    2.840905e+00
  8.767473e+00    2.916077e+00
  8.783349e+00    2.873732e+00
  8.799224e+00    2.872746e+00
  8.815100e+00    2.859920e+00
  8.830975e+00    2.851684e+00
  8.846851e+00    2.832128e+00
  8.862727e+00    2.873920e+00
  8.878602e+00    2.901334e+00
  8.894478e+00    2.891155e+00
  8.910353e+00    2.832233e+00
  8.926229e+00    2.808729e+00
  8.942104e+00    2.782529e+00
  8.957980e+00    2.839363e+00
  8.973856e+00    2.791985e+00
  8.989731e+00    2.741686e+00
  9.005607e+00    2.804185e+00
  9.021482e+00    2.815745e+00
  9.037358e+00    2.838431e+00
  9.053233e+00    2.862505e+00
  9.069109e+00    2.845764e+00
  9.084985e+00    2.890784e+00
  9.100860e+00    2.857694e+00
  9.116736e+00    2.813700e+00
  9.132611e+00    2.797987e+00
  9.148487e+00    2.826226e+00
  9.164362e+00    2.775638e+00
  9.180238e+00    2.759081e+00
  9.196114e+00    2.812570e+00
  9.211989e+00    2.846055e+00
  9.227865e+00    2.839702e+00
  9.243740e+00    2.792025e+00
  9.259616e+00    2.794586e+00
  9.275491e+00    2.797668e+00
  9.291367e+00    2.803014e+00
  9.307243e+00    2.801094e+00
  9.323118e+00    2.773418e+00
  9.338994e+00    2.747314e+00
  9.354869e+00    2.775980e+00
  9.370745e+00    2.775900e+00
  9.386620e+00    2.806297e+00
  9.402496e+00    2.757360e+00
  9.418372e+00    2.741317e+00
  9.434247e+00    2.735261e+00
  9.450123e+00    2.805401e+00
  9.465998e+00    2.771659e+00
  9.481874e+00    2.754918e+00
  9.497749e+00    2.806921e+00
  9.513625e+00    2.804056e+00
  9.529501e+00    2.798039e+00
  9.545376e+00    2.775949e+00
  9.561252e+00    2.771378e+00
  9.577127e+00    2.846295e+00
  9.593003e+00    2.808874e+00
  9.608878e+00    2.777548e+00
  9.624754e+00    2.749824e+00
  9.640630e+00    2.754373e+00
  9.656505e+00    2.748789e+00
  9.672381e+00    2.711993e+00
  9.688256e+00    2.673892e+00
  9.704132e+00    2.760051e+00
  9.720008e+00    2.712009e+00
  9.735883e+00    2.724141e+00
  9.751759e+00    2.723982e+00
  9.767634e+00    2.704395e+00
  9.783510e+00    2.735987e+00
  9.799385e+00    2.754131e+00
  9.815261e+00    2.771514e+00
  9.831137e+00    2.730055e+00
  9.847012e+00    2.660829e+00
  9.862888e+00    2.723492e+00
  9.878763e+00    2.733820e+00
  9.894639e+00    2.701340e+00
  9.910514e+00    2.687413e+00
  9.926390e+00    2.704942e+00
  9.942266e+00    2.689983e+00
  9.958141e+00    2.632233e+00
  9.974017e+00    2.675053e+00
  9.989892e+00    2.676036e+00
  1.000577e+01    2.657054e+00
  1.002164e+01    2.677510e+00
  1.003752e+01    2.675412e+00
  1.005339e+01    2.592954e+00
  1.006927e+01    2.660597e+00
  1.008515e+01    2.682490e+00
  1.010102e+01    2.670305e+00
  1.011690e+01    2.637413e+00
  1.013277e+01    2.590040e+00
  1.014865e+01    2.628282e+00
  1.016452e+01    2.648928e+00
  1.018040e+01    2.644390e+00
  1.019627e+01    2.643702e+00
  1.021215e+01    2.643925e+00
  1.022803e+01    2.708155e+00
  1.024390e+01    2.654823e+00
  1.025978e+01    2.625280e+00
  1.027565e+01    2.625890e+00
  1.029153e+01    2.725717e+00
  1.030740e+01    2.630637e+00
  1.032328e+01    2.603360e+00
  1.033915e+01    2.663233e+00
  1.035503e+01    2.620219e+00
  1.037091e+01    2.618945e+00
  1.038678e+01    2.624901e+00
  1.040266e+01    2.633182e+00
  1.041853e+01    2.595011e+00
  1.043441e+01    2.547139e+00
  1.045028e+01    2.591652e+00
  1.046616e+01    2.655560e+00
  1.048204e+01    2.598185e+00
  1.049791e+01    2.538788e+00
  1.051379e+01    2.619112e+00
  1.052966e+01    2.659102e+00
  1.054554e+01    2.612239e+00
  1.056141e+01    2.564589e+00
  1.057729e+01    2.576324e+00
  1.059316e+01    2.571040e+00
  1.060904e+01    2.545056e+00
  1.062492e+01    2.580922e+00
  1.064079e+01    2.577185e+00
  1.065667e+01    2.566060e+00
  1.067254e+01    2.540863e+00
  1.068842e+01    2.579479e+00
  1.070429e+01    2.543281e+00
  1.072017e+01    2.545454e+00
  1.073604e+01    2.500381e+00
  1.075192e+01    2.540995e+00
  1.076780e+01    2.562722e+00
  1.078367e+01    2.579973e+00
  1.079955e+01    2.577372e+00
  1.081542e+01    2.569436e+00
  1.083130e+01    2.511286e+00
  1.084717e+01    2.490688e+00
  1.086305e+01    2.528666e+00
  1.087892e+01    2.518051e+00
  1.089480e+01    2.573637e+00
  1.091068e+01    2.548927e+00
  1.092655e+01    2.487635e+00
  1.094243e+01    2.517080e+00
  1.095830e+01    2.493252e+00
  1.097418e+01    2.469527e+00
  1.099005e+01    2.483305e+00
  1.100593e+01    2.462531e+00
  1.102180e+01    2.498322e+00
  1.103768e+01    2.535379e+00
  1.105356e+01    2.467596e+00
  1.106943e+01    2.464074e+00
  1.108531e+01    2.487092e+00
  1.110118e+01    2.488987e+00
  1.111706e+01    2.462649e+00
  1.113293e+01    2.475296e+00
  1.114881e+01    2.515409e+00
  1.116468e+01    2.481987e+00
  1.118056e+01    2.458164e+00
  1.119644e+01    2.471829e+00
  1.121231e+01    2.464088e+00
  1.122819e+01    2.445574e+00
  1.124406e+01    2.465760e+00
  1.125994e+01    2.476095e+00
  1.127581e+01    2.488510e+00
  1.129169e+01    2.508670e+00
  1.130756e+01    2.487664e+00
  1.132344e+01    2.434650e+00
  1.133932e+01    2.464556e+00
  1.135519e+01    2.428255e+00
  1.137107e+01    2.400525e+00
  1.138694e+01    2.444796e+00
  1.140282e+01    2.454461e+00
  1.141869e+01    2.389456e+00
  1.143457e+01    2.404319e+00
  1.145045e+01    2.418965e+00
  1.146632e+01    2.432396e+00
  1.148220e+01    2.410356e+00
  1.149807e+01    2.408326e+00
  1.151395e+01    2.426598e+00
  1.152982e+01    2.357184e+00
  1.154570e+01    2.340096e+00
  1.156157e+01    2.359368e+00
  1.157745e+01    2.387153e+00
  1.159333e+01    2.371973e+00
  1.160920e+01    2.362547e+00
  1.162508e+01    2.356011e+00
  1.164095e+01    2.380936e+00
  1.165683e+01    2.351648e+00
  1.167270e+01    2.399502e+00
  1.168858e+01    2.342748e+00
  1.170445e+01    2.377897e+00
  1.172033e+01    2.373536e+00
  1.173621e+01    2.358865e+00
  1.175208e+01    2.365955e+00
  1.176796e+01    2.376558e+00
  1.178383e+01    2.405971e+00
  1.179971e+01    2.368513e+00
  1.181558e+01    2.367474e+00
  1.183146e+01    2.368472e+00
  1.184733e+01    2.306549e+00
  1.186321e+01    2.312852e+00
  1.187909e+01    2.313183e+00
  1.189496e+01    2.351551e+00
  1.191084e+01    2.343998e+00
  1.192671e+01    2.327830e+00
  1.194259e+01    2.317096e+00
  1.195846e+01    2.349033e+00
  1.197434e+01    2.349519e+00
  1.199021e+01    2.305685e+00
  1.200609e+01    2.344227e+00
  1.202197e+01    2.346617e+00
  1.203784e+01    2.336568e+00
  1.205372e+01    2.363810e+00
  1.206959e+01    2.417475e+00
  1.208547e+01    2.400079e+00
  1.210134e+01    2.316561e+00
  1.211722e+01    2.304011e+00
  1.213309e+01    2.349154e+00
  1.214897e+01    2.344731e+00
  1.216485e+01    2.368604e+00
  1.218072e+01    2.355539e+00
  1.219660e+01    2.304804e+00
  1.221247e+01    2.357918e+00
  1.222835e+01    2.340516e+00
  1.224422e+01    2.334218e+00
  1.226010e+01    2.327249e+00
  1.227597e+01    2.301361e+00
  1.229185e+01    2.337194e+00
  1.230773e+01    2.341586e+00
  1.232360e+01    2.339131e+00
  1.233948e+01    2.376524e+00
  1.235535e+01    2.411667e+00
  1.237123e+01    2.368595e+00
  1.238710e+01    2.349864e+00
  1.240298e+01    2.351929e+00
  1.241886e+01    2.370152e+00
  1.243473e+01    2.340909e+00
  1.245061e+01    2.335550e+00
  1.246648e+01    2.343454e+00
  1.248236e+01    2.373414e+00
  1.249823e+01    2.349044e+00
  1.251411e+01    2.317570e+00
  1.252998e+01    2.352292e+00
  1.254586e+01    2.329107e+00
  1.256174e+01    2.352299e+00
  1.257761e+01    2.388367e+00
  1.259349e+01    2.352185e+00
  1.260936e+01    2.358307e+00
  1.262524e+01    2.370055e+00
  1.264111e+01    2.388951e+00
  1.265699e+01    2.414830e+00
  1.267286e+01    2.362449e+00
  1.268874e+01    2.443535e+00
  1.270462e+01    2.473177e+00
  1.272049e+01    2.478350e+00
  1.273637e+01    2.521431e+00
  1.275224e+01    2.560124e+00
  1.276812e+01    2.637353e+00
  1.278399e+01    2.641267e+00
  1.279987e+01    2.668884e+00
  1.281574e+01    2.704575e+00
  1.283162e+01    2.732142e+00
  1.284750e+01    2.799872e+00
  1.286337e+01    2.889650e+00
  1.287925e+01    3.015745e+00
  1.289512e+01    3.167986e+00
  1.291100e+01    3.287950e+00
  1.292687e+01    3.493384e+00
  1.294275e+01    3.727025e+00
  1.295862e+01    4.018480e+00
  1.297450e+01    4.331216e+00
  1.299038e+01    4.774510e+00
  1.300625e+01    5.330543e+00
  1.302213e+01    6.098243e+00
  1.303800e+01    7.081896e+00
  1.305388e+01    8.201070e+00
  1.306975e+01    9.348278e+00
  1.308563e+01    1.054484e+01
  1.310150e+01    1.176717e+01
  1.311738e+01    1.293896e+01
  1.313326e+01    1.396804e+01
  1.314913e+01    1.488357e+01
  1.316501e+01    1.555252e+01
  1.318088e+01    1.572767e+01
  1.319676e+01    1.521670e+01
  1.321263e+01    1.396506e+01
  1.322851e+01    1.227182e+01
  1.324438e+01    1.036569e+01
  1.326026e+01    8.744229e+00
  1.327614e+01    7.448610e+00
  1.329201e+01    6.382560e+00
  1.330789e+01    5.568807e+00
  1.332376e+01    4.949298e+00
  1.333964e+01    4.449613e+00
  1.335551e+01    4.071712e+00
  1.337139e+01    3.730956e+00
  1.338727e+01    3.474060e+00
  1.340314e+01    3.298200e+00
  1.341902e+01    3.101866e+00
  1.343489e+01    2.942219e+00
  1.345077e+01    2.867867e+00
  1.346664e+01    2.786583e+00
  1.348252e+01    2.693256e+00
  1.349839e+01    2.579771e+00
  1.351427e+01    2.608377e+00
  1.353015e+01    2.555721e+00
  1.354602e+01    2.542224e+00
  1.356190e+01    2.446307e+00
  1.357777e+01    2.344828e+00
  1.359365e+01    2.376300e+00
  1.360952e+01    2.359837e+00
  1.362540e+01    2.311897e+00
  1.364127e+01    2.294702e+00
  1.365715e+01    2.272913e+00
  1.367303e+01    2.266782e+00
  1.368890e+01    2.209665e+00
  1.370478e+01    2.195805e+00
  1.372065e+01    2.202387e+00
  1.373653e+01    2.204437e+00
  1.375240e+01    2.167456e+00
  1.376828e+01    2.137406e+00
  1.378415e+01    2.158638e+00
  1.380003e+01    2.139259e+00
  1.381591e+01    2.125553e+00
  1.383178e+01    2.135861e+00
  1.384766e+01    2.140747e+00
  1.386353e+01    2.103568e+00
  1.387941e+01    2.090718e+00
  1.389528e+01    2.075697e+00
  1.391116e+01    2.075952e+00
  1.392703e+01    2.040472e+00
  1.394291e+01    2.042962e+00
  1.395879e+01    2.052152e+00
  1.397466e+01    2.043342e+00
  1.399054e+01    2.051888e+00
  1.400641e+01    2.019063e+00
  1.402229e+01    1.985081e+00
  1.403816e+01    2.003623e+00
  1.405404e+01    2.041009e+00
  1.406991e+01    2.031039e+00
  1.408579e+01    2.030629e+00
  1.410167e+01    1.977581e+00
  1.411754e+01    1.992406e+00
  1.413342e+01    2.003483e+00
  1.414929e+01    2.018142e+00
  1.416517e+01    1.978013e+00
  1.418104e+01    1.982311e+00
  1.419692e+01    2.010729e+00
  1.421279e+01    2.014173e+00
  1.422867e+01    1.989969e+00
  1.424455e+01    1.980400e+00
  1.426042e+01    1.958457e+00
  1.427630e+01    1.938839e+00
  1.429217e+01    1.958880e+00
  1.430805e+01    1.977994e+00
  1.432392e+01    2.001731e+00
  1.433980e+01    1.967269e+00
  1.435568e+01    1.927185e+00
  1.437155e+01    1.929742e+00
  1.438743e+01    1.979256e+00
  1.440330e+01    1.983664e+00
  1.441918e+01    1.963924e+00
  1.443505e+01    1.949683e+00
  1.445093e+01    1.922722e+00
  1.446680e+01    1.953801e+00
  1.448268e+01    1.955542e+00
  1.449856e+01    1.926520e+00
  1.451443e+01    1.927418e+00
  1.453031e+01    1.929770e+00
  1.454618e+01    1.939477e+00
  1.456206e+01    1.907573e+00
  1.457793e+01    1.911675e+00
  1.459381e+01    1.925574e+00
  1.460968e+01    1.903255e+00
  1.462556e+01    1.889140e+00
  1.464144e+01    1.912770e+00
  1.465731e+01    1.912193e+00
  1.467319e+01    1.933723e+00
  1.468906e+01    1.957134e+00
  1.470494e+01    1.963115e+00
  1.472081e+01    1.913312e+00
  1.473669e+01    1.908332e+00
  1.475256e+01    1.906191e+00
  1.476844e+01    1.909139e+00
  1.478432e+01    1.938623e+00
  1.480019e+01    1.938394e+00
  1.481607e+01    1.879328e+00
  1.483194e+01    1.894042e+00
  1.484782e+01    1.912730e+00
  1.486369e+01    1.957175e+00
  1.487957e+01    1.961729e+00
  1.489544e+01    1.975424e+00
  1.491132e+01    2.005749e+00
  1.492720e+01    1.993437e+00
  1.494307e+01    2.043173e+00
  1.495895e+01    2.055042e+00
  1.497482e+01    2.081866e+00
  1.499070e+01    2.113860e+00
  1.500657e+01    2.174585e+00
  1.502245e+01    2.229932e+00
  1.503832e+01    2.300692e+00
  1.505420e+01    2.422778e+00
  1.507008e+01    2.481831e+00
  1.508595e+01    2.668576e+00
  1.510183e+01    2.861325e+00
  1.511770e+01    3.121716e+00
  1.513358e+01    3.414130e+00
  1.514945e+01    3.776926e+00
  1.516533e+01    4.163297e+00
  1.518120e+01    4.451939e+00
  1.519708e+01    4.745677e+00
  1.521296e+01    4.971683e+00
  1.522883e+01    5.223519e+00
  1.524471e+01    5.421756e+00
  1.526058e+01    5.517187e+00
  1.527646e+01    5.439583e+00
  1.529233e+01    5.173579e+00
  1.530821e+01    4.857268e+00
  1.532409e+01    4.437529e+00
  1.533996e+01    3.945747e+00
  1.535584e+01    3.473729e+00
  1.537171e+01    3.183979e+00
  1.538759e+01    2.941605e+00
  1.540346e+01    2.666034e+00
  1.541934e+01    2.474939e+00
  1.543521e+01    2.325596e+00
  1.545109e+01    2.235945e+00
  1.546697e+01    2.174968e+00
  1.548284e+01    2.076258e+00
  1.549872e+01    2.049380e+00
  1.551459e+01    2.014648e+00
  1.553047e+01    1.960792e+00
  1.554634e+01    1.907019e+00
  1.556222e+01    1.871041e+00
  1.557809e+01    1.877779e+00
  1.559397e+01    1.820112e+00
  1.560985e+01    1.837083e+00
  1.562572e+01    1.851291e+00
  1.564160e+01    1.798697e+00
  1.565747e+01    1.782652e+00
  1.567335e+01    1.748823e+00
  1.568922e+01    1.725011e+00
  1.570510e+01    1.708179e+00
  1.572097e+01    1.705784e+00
  1.573685e+01    1.718982e+00
  1.575273e+01    1.718793e+00
  1.576860e+01    1.671455e+00
  1.578448e+01    1.661234e+00
  1.580035e+01    1.669429e+00
  1.581623e+01    1.675616e+00
  1.583210e+01    1.688339e+00
  1.584798e+01    1.701521e+00
  1.586385e+01    1.671398e+00
  1.587973e+01    1.659625e+00
  1.589561e+01    1.629797e+00
  1.591148e+01    1.599777e+00
  1.592736e+01    1.622110e+00
  1.594323e+01    1.606089e+00
  1.595911e+01    1.625822e+00
  1.597498e+01    1.604476e+00
  1.599086e+01    1.617590e+00
  1.600673e+01    1.684439e+00
  1.602261e+01    1.647442e+00
  1.603849e+01    1.604013e+00
  1.605436e+01    1.602424e+00
  1.607024e+01    1.592753e+00
  1.608611e+01    1.591058e+00
  1.610199e+01    1.600840e+00
  1.611786e+01    1.584979e+00
  1.613374e+01    1.572391e+00
  1.614961e+01    1.578805e+00
  1.616549e+01    1.581643e+00
  1.618137e+01    1.566218e+00
  1.619724e+01    1.577383e+00
  1.621312e+01    1.595562e+00
  1.622899e+01    1.571241e+00
  1.624487e+01    1.560948e+00
  1.626074e+01    1.570423e+00
  1.627662e+01    1.571635e+00
  1.629250e+01    1.554747e+00
  1.630837e+01    1.564600e+00
  1.632425e+01    1.577940e+00
  1.634012e+01    1.552067e+00
  1.635600e+01    1.542699e+00
  1.637187e+01    1.547240e+00
  1.638775e+01    1.556246e+00
  1.640362e+01    1.543173e+00
  1.641950e+01    1.535068e+00
  1.643538e+01    1.520979e+00
  1.645125e+01    1.523932e+00
  1.646713e+01    1.516853e+00
  1.648300e+01    1.553950e+00
  1.649888e+01    1.517986e+00
  1.651475e+01    1.533785e+00
  1.653063e+01    1.555372e+00
  1.654650e+01    1.517725e+00
  1.656238e+01    1.492667e+00
  1.657826e+01    1.499077e+00
  1.659413e+01    1.495860e+00
  1.661001e+01    1.518620e+00
  1.662588e+01    1.501715e+00
  1.664176e+01    1.459716e+00
  1.665763e+01    1.484036e+00
  1.667351e+01    1.490639e+00
  1.668938e+01    1.482164e+00
  1.670526e+01    1.487582e+00
  1.672114e+01    1.501909e+00
  1.673701e+01    1.506558e+00
  1.675289e+01    1.445142e+00
  1.676876e+01    1.446608e+00
  1.678464e+01    1.478738e+00
  1.680051e+01    1.480162e+00
  1.681639e+01    1.458934e+00
  1.683226e+01    1.463628e+00
  1.684814e+01    1.459966e+00
  1.686402e+01    1.461118e+00
  1.687989e+01    1.481334e+00
  1.689577e+01    1.456678e+00
  1.691164e+01    1.448160e+00
  1.692752e+01    1.466444e+00
  1.694339e+01    1.449715e+00
  1.695927e+01    1.423622e+00
  1.697514e+01    1.447637e+00
  1.699102e+01    1.408678e+00
  1.700690e+01    1.406028e+00
  1.702277e+01    1.395670e+00
  1.703865e+01    1.410885e+00
  1.705452e+01    1.437131e+00
  1.707040e+01    1.452519e+00
  1.708627e+01    1.444065e+00
  1.710215e+01    1.417360e+00
  1.711802e+01    1.404136e+00
  1.713390e+01    1.413929e+00
  1.714978e+01    1.432745e+00
  1.716565e+01    1.425839e+00
  1.718153e+01    1.394633e+00
  1.719740e+01    1.366488e+00
  1.721328e+01    1.390494e+00
  1.722915e+01    1.389834e+00
  1.724503e+01    1.379313e+00
  1.726091e+01    1.365139e+00
  1.727678e+01    1.374435e+00
  1.729266e+01    1.394632e+00
  1.730853e+01    1.400436e+00
  1.732441e+01    1.384007e+00
  1.734028e+01    1.377683e+00
  1.735616e+01    1.362042e+00
  1.737203e+01    1.382253e+00
  1.738791e+01    1.384311e+00
  1.740379e+01    1.370391e+00
  1.741966e+01    1.379907e+00
  1.743554e+01    1.371921e+00
  1.745141e+01    1.354752e+00
  1.746729e+01    1.384023e+00
  1.748316e+01    1.403824e+00
  1.749904e+01    1.371189e+00
  1.751491e+01    1.375947e+00
  1.753079e+01    1.369471e+00
  1.754667e+01    1.387789e+00
  1.756254e+01    1.392566e+00
  1.757842e+01    1.378165e+00
  1.759429e+01    1.371682e+00
  1.761017e+01    1.352304e+00
  1.762604e+01    1.358531e+00
  1.764192e+01    1.338044e+00
  1.765779e+01    1.307993e+00
  1.767367e+01    1.338939e+00
  1.768955e+01    1.354144e+00
  1.770542e+01    1.369608e+00
  1.772130e+01    1.340872e+00
  1.773717e+01    1.322431e+00
  1.775305e+01    1.315422e+00
  1.776892e+01    1.313807e+00
  1.778480e+01    1.327245e+00
  1.780067e+01    1.314435e+00
  1.781655e+01    1.311951e+00
  1.783243e+01    1.331322e+00
  1.784830e+01    1.333768e+00
  1.786418e+01    1.346236e+00
  1.788005e+01    1.339161e+00
  1.789593e+01    1.318465e+00
  1.791180e+01    1.328509e+00
  1.792768e+01    1.331787e+00
  1.794355e+01    1.284601e+00
  1.795943e+01    1.315836e+00
  1.797531e+01    1.317708e+00
  1.799118e+01    1.339541e+00
  1.800706e+01    1.342790e+00
  1.802293e+01    1.320234e+00
  1.803881e+01    1.313108e+00
  1.805468e+01    1.307877e+00
  1.807056e+01    1.291130e+00
  1.808643e+01    1.319697e+00
  1.810231e+01    1.316764e+00
  1.811819e+01    1.294108e+00
  1.813406e+01    1.284247e+00
  1.814994e+01    1.281870e+00
  1.816581e+01    1.282171e+00
  1.818169e+01    1.266517e+00
  1.819756e+01    1.266635e+00
  1.821344e+01    1.296060e+00
  1.822932e+01    1.285922e+00
  1.824519e+01    1.283936e+00
  1.826107e+01    1.271710e+00
  1.827694e+01    1.281770e+00
  1.829282e+01    1.279181e+00
  1.830869e+01    1.280774e+00
  1.832457e+01    1.275428e+00
  1.834044e+01    1.261293e+00
  1.835632e+01    1.265968e+00
  1.837220e+01    1.270936e+00
  1.838807e+01    1.283845e+00
  1.840395e+01    1.288846e+00
  1.841982e+01    1.268818e+00
  1.843570e+01    1.279463e+00
  1.845157e+01    1.251380e+00
  1.846745e+01    1.248952e+00
  1.848332e+01    1.262196e+00
  1.849920e+01    1.249821e+00
  1.851508e+01    1.248118e+00
  1.853095e+01    1.251609e+00
  1.854683e+01    1.247571e+00
  1.856270e+01    1.283726e+00
  1.857858e+01    1.280183e+00
  1.859445e+01    1.251469e+00
  1.861033e+01    1.244764e+00
  1.862620e+01    1.253038e+00
  1.864208e+01    1.223212e+00
  1.865796e+01    1.239937e+00
  1.867383e+01    1.239710e+00
  1.868971e+01    1.215962e+00
  1.870558e+01    1.198386e+00
  1.872146e+01    1.216841e+00
  1.873733e+01    1.232831e+00
  1.875321e+01    1.219552e+00
  1.876908e+01    1.207599e+00
  1.878496e+01    1.202427e+00
  1.880084e+01    1.217333e+00
  1.881671e+01    1.203382e+00
  1.883259e+01    1.204337e+00
  1.884846e+01    1.214762e+00
  1.886434e+01    1.209256e+00
  1.888021e+01    1.203249e+00
  1.889609e+01    1.205571e+00
  1.891196e+01    1.209215e+00
  1.892784e+01    1.218989e+00
  1.894372e+01    1.195324e+00
  1.895959e+01    1.218427e+00
  1.897547e+01    1.210260e+00
  1.899134e+01    1.214980e+00
  1.900722e+01    1.189789e+00
  1.902309e+01    1.184122e+00
  1.903897e+01    1.204820e+00
  1.905484e+01    1.210511e+00
  1.907072e+01    1.185255e+00
  1.908660e+01    1.176544e+00
  1.910247e+01    1.185493e+00
  1.911835e+01    1.179494e+00
  1.913422e+01    1.203172e+00
  1.915010e+01    1.204388e+00
  1.916597e+01    1.216560e+00
  1.918185e+01    1.231030e+00
  1.919773e+01    1.198290e+00
  1.921360e+01    1.174539e+00
  1.922948e+01    1.158676e+00
  1.924535e+01    1.151604e+00
  1.926123e+01    1.176225e+00
  1.927710e+01    1.136879e+00
  1.929298e+01    1.174757e+00
  1.930885e+01    1.173764e+00
  1.932473e+01    1.184613e+00
  1.934061e+01    1.170481e+00
  1.935648e+01    1.171778e+00
  1.937236e+01    1.170243e+00
  1.938823e+01    1.159536e+00
  1.940411e+01    1.159997e+00
  1.941998e+01    1.149824e+00
  1.943586e+01    1.152463e+00
  1.945173e+01    1.153898e+00
  1.946761e+01    1.173453e+00
  1.948349e+01    1.168609e+00
  1.949936e+01    1.162187e+00
  1.951524e+01    1.148043e+00
  1.953111e+01    1.141136e+00
  1.954699e+01    1.155335e+00
  1.956286e+01    1.142197e+00
  1.957874e+01    1.148559e+00
  1.959461e+01    1.154278e+00
  1.961049e+01    1.156723e+00
  1.962637e+01    1.146990e+00
  1.964224e+01    1.124084e+00
  1.965812e+01    1.141495e+00
  1.967399e+01    1.157546e+00
  1.968987e+01    1.131281e+00
  1.970574e+01    1.123668e+00
  1.972162e+01    1.133801e+00
  1.973749e+01    1.136736e+00
  1.975337e+01    1.125125e+00
  1.976925e+01    1.125759e+00
  1.978512e+01    1.126863e+00
  1.980100e+01    1.124268e+00
  1.981687e+01    1.173334e+00
  1.983275e+01    1.142609e+00
  1.984862e+01    1.113204e+00
  1.986450e+01    1.116428e+00
  1.988037e+01    1.143912e+00
  1.989625e+01    1.120563e+00
  1.991213e+01    1.090935e+00
  1.992800e+01    1.116894e+00
  1.994388e+01    1.102127e+00
  1.995975e+01    1.101648e+00
  1.997563e+01    1.133381e+00
  1.999150e+01    1.138842e+00
  2.000738e+01    1.146701e+00
  2.002325e+01    1.137876e+00
  2.003913e+01    1.141322e+00
  2.005501e+01    1.106478e+00
  2.007088e+01    1.114801e+00
  2.008676e+01    1.124497e+00
  2.010263e+01    1.109756e+00
  2.011851e+01    1.117938e+00
  2.013438e+01    1.112830e+00
  2.015026e+01    1.109440e+00
  2.016614e+01    1.124683e+00
  2.018201e+01    1.119465e+00
  2.019789e+01    1.095911e+00
  2.021376e+01    1.083424e+00
  2.022964e+01    1.100810e+00
  2.024551e+01    1.085892e+00
  2.026139e+01    1.082256e+00
  2.027726e+01    1.088034e+00
  2.029314e+01    1.092063e+00
  2.030902e+01    1.073719e+00
  2.032489e+01    1.077253e+00
  2.034077e+01    1.101382e+00
  2.035664e+01    1.087250e+00
  2.037252e+01    1.084936e+00
  2.038839e+01    1.085373e+00
  2.040427e+01    1.066774e+00
  2.042014e+01    1.084795e+00
  2.043602e+01    1.103844e+00
  2.045190e+01    1.088337e+00
  2.046777e+01    1.084814e+00
  2.048365e+01    1.090961e+00
  2.049952e+01    1.098287e+00
  2.051540e+01    1.094430e+00
  2.053127e+01    1.083537e+00
  2.054715e+01    1.084382e+00
  2.056302e+01    1.090912e+00
  2.057890e+01    1.091161e+00
  2.059478e+01    1.084919e+00
  2.061065e+01    1.076528e+00
  2.062653e+01    1.088777e+00
  2.064240e+01    1.070574e+00
  2.065828e+01    1.057864e+00
  2.067415e+01    1.065909e+00
  2.069003e+01    1.054412e+00
  2.070590e+01    1.059888e+00
  2.072178e+01    1.049535e+00
  2.073766e+01    1.057094e+00
  2.075353e+01    1.061434e+00
  2.076941e+01    1.083315e+00
  2.078528e+01    1.064354e+00
  2.080116e+01    1.069666e+00
  2.081703e+01    1.075018e+00
  2.083291e+01    1.090070e+00
  2.084878e+01    1.116417e+00
  2.086466e+01    1.086093e+00
  2.088054e+01    1.091584e+00
  2.089641e+01    1.102692e+00
  2.091229e+01    1.077802e+00
  2.092816e+01    1.077414e+00
  2.094404e+01    1.071024e+00
  2.095991e+01    1.073528e+00
  2.097579e+01    1.075372e+00
  2.099166e+01    1.090089e+00
  2.100754e+01    1.081594e+00
  2.102342e+01    1.048228e+00
  2.103929e+01    1.059606e+00
  2.105517e+01    1.070149e+00
  2.107104e+01    1.080318e+00
  2.108692e+01    1.061394e+00
  2.110279e+01    1.062499e+00
  2.111867e+01    1.079136e+00
  2.113455e+01    1.106582e+00
  2.115042e+01    1.101109e+00
  2.116630e+01    1.096805e+00
  2.118217e+01    1.095961e+00
  2.119805e+01    1.080519e+00
  2.121392e+01    1.096629e+00
  2.122980e+01    1.090598e+00
  2.124567e+01    1.090699e+00
  2.126155e+01    1.109069e+00
  2.127743e+01    1.119733e+00
  2.129330e+01    1.124340e+00
  2.130918e+01    1.106058e+00
  2.132505e+01    1.127393e+00
  2.134093e+01    1.162666e+00
  2.135680e+01    1.157411e+00
  2.137268e+01    1.139734e+00
  2.138855e+01    1.184802e+00
  2.140443e+01    1.165344e+00
  2.142031e+01    1.174409e+00
  2.143618e+01    1.204171e+00
  2.145206e+01    1.204468e+00
  2.146793e+01    1.222113e+00
  2.148381e+01    1.247473e+00
  2.149968e+01    1.292818e+00
  2.151556e+01    1.314961e+00
  2.153143e+01    1.362308e+00
  2.154731e+01    1.377732e+00
  2.156319e+01    1.431235e+00
  2.157906e+01    1.487663e+00
  2.159494e+01    1.545853e+00
  2.161081e+01    1.599641e+00
  2.162669e+01    1.669921e+00
  2.164256e+01    1.843907e+00
  2.165844e+01    1.955486e+00
  2.167431e+01    2.131200e+00
  2.169019e+01    2.321748e+00
  2.170607e+01    2.596996e+00
  2.172194e+01    2.919052e+00
  2.173782e+01    3.321934e+00
  2.175369e+01    3.758876e+00
  2.176957e+01    4.287371e+00
  2.178544e+01    4.940577e+00
  2.180132e+01    5.508243e+00
  2.181719e+01    6.136313e+00
  2.183307e+01    6.839613e+00
  2.184895e+01    7.487781e+00
  2.186482e+01    8.062527e+00
  2.188070e+01    8.553247e+00
  2.189657e+01    8.738142e+00
  2.191245e+01    8.585777e+00
  2.192832e+01    8.104309e+00
  2.194420e+01    7.330568e+00
  2.196007e+01    6.410802e+00
  2.197595e+01    5.475950e+00
  2.199183e+01    4.619568e+00
  2.200770e+01    3.968664e+00
  2.202358e+01    3.404908e+00
  2.203945e+01    2.990333e+00
  2.205533e+01    2.652888e+00
  2.207120e+01    2.369163e+00
  2.208708e+01    2.155541e+00
  2.210296e+01    1.988680e+00
  2.211883e+01    1.842695e+00
  2.213471e+01    1.703725e+00
  2.215058e+01    1.627199e+00
  2.216646e+01    1.528946e+00
  2.218233e+01    1.433892e+00
  2.219821e+01    1.379242e+00
  2.221408e+01    1.338720e+00
  2.222996e+01    1.303704e+00
  2.224584e+01    1.258893e+00
  2.226171e+01    1.250137e+00
  2.227759e+01    1.211674e+00
  2.229346e+01    1.178540e+00
  2.230934e+01    1.154940e+00
  2.232521e+01    1.162483e+00
  2.234109e+01    1.146286e+00
  2.235696e+01    1.088309e+00
  2.237284e+01    1.075701e+00
  2.238872e+01    1.041868e+00
  2.240459e+01    1.047066e+00
  2.242047e+01    1.061078e+00
  2.243634e+01    1.060190e+00
  2.245222e+01    1.037589e+00
  2.246809e+01    1.018097e+00
  2.248397e+01    1.006143e+00
  2.249984e+01    1.010158e+00
  2.251572e+01    1.012034e+00
  2.253160e+01    1.002555e+00
  2.254747e+01    9.888089e-01
  2.256335e+01    9.859900e-01
  2.257922e+01    9.812796e-01
  2.259510e+01    9.794198e-01
  2.261097e+01    9.791853e-01
  2.262685e+01    9.881012e-01
  2.264272e+01    9.856194e-01
  2.265860e+01    9.578497e-01
  2.267448e+01    9.782917e-01
  2.269035e+01    9.591676e-01
  2.270623e+01    9.363256e-01
  2.272210e+01    9.359593e-01
  2.273798e+01    9.444606e-01
  2.275385e+01    9.285304e-01
  2.276973e+01    9.328830e-01
  2.278560e+01    9.307435e-01
  2.280148e+01    9.229519e-01
  2.281736e+01    9.430571e-01
  2.283323e+01    9.218270e-01
  2.284911e+01    9.120138e-01
  2.286498e+01    9.224181e-01
  2.288086e+01    9.056555e-01
  2.289673e+01    8.909607e-01
  2.291261e+01    9.097556e-01
  2.292848e+01    9.184728e-01
  2.294436e+01    9.000636e-01
  2.296024e+01    9.108108e-01
  2.297611e+01    8.970597e-01
  2.299199e+01    9.009390e-01
  2.300786e+01    9.003947e-01
  2.302374e+01    8.964416e-01
  2.303961e+01    9.069325e-01
  2.305549e+01    8.956435e-01
  2.307137e+01    8.880279e-01
  2.308724e+01    8.856577e-01
  2.310312e+01    8.903009e-01
  2.311899e+01    8.958037e-01
  2.313487e+01    8.779033e-01
  2.315074e+01    8.717583e-01
  2.316662e+01    8.790206e-01
  2.318249e+01    8.842650e-01
  2.319837e+01    8.985513e-01
  2.321425e+01    8.709434e-01
  2.323012e+01    8.682872e-01
  2.324600e+01    8.702664e-01
  2.326187e+01    8.620580e-01
  2.327775e+01    8.536701e-01
  2.329362e+01    8.455119e-01
  2.330950e+01    8.477721e-01
  2.332537e+01    8.477146e-01
  2.334125e+01    8.367851e-01
  2.335713e+01    8.641376e-01
  2.337300e+01    8.662650e-01
  2.338888e+01    8.703420e-01
  2.340475e+01    8.726462e-01
  2.342063e+01    8.660944e-01
  2.343650e+01    8.160504e-01
  2.345238e+01    8.372098e-01
  2.346825e+01    8.400906e-01
  2.348413e+01    8.360018e-01
  2.350001e+01    8.431113e-01
  2.351588e+01    8.424765e-01
  2.353176e+01    8.536642e-01
  2.354763e+01    8.528959e-01
  2.356351e+01    8.443981e-01
  2.357938e+01    8.446093e-01
  2.359526e+01    8.376453e-01
  2.361113e+01    8.438066e-01
  2.362701e+01    8.497449e-01
  2.364289e+01    8.389479e-01
  2.365876e+01    8.196191e-01
  2.367464e+01    8.077533e-01
  2.369051e+01    8.312621e-01
  2.370639e+01    8.323274e-01
  2.372226e+01    8.281030e-01
  2.373814e+01    8.042916e-01
  2.375401e+01    8.099260e-01
  2.376989e+01    7.919718e-01
  2.378577e+01    8.114071e-01
  2.380164e+01    8.231671e-01
  2.381752e+01    8.208241e-01
  2.383339e+01    8.209282e-01
  2.384927e+01    8.068722e-01
  2.386514e+01    8.139343e-01
  2.388102e+01    7.852297e-01
  2.389689e+01    7.985089e-01
  2.391277e+01    7.982412e-01
  2.392865e+01    8.016943e-01
  2.394452e+01    7.909079e-01
  2.396040e+01    7.861779e-01
  2.397627e+01    7.885298e-01
  2.399215e+01    7.696022e-01
  2.400802e+01    7.780944e-01
  2.402390e+01    7.823917e-01
  2.403978e+01    7.819843e-01
  2.405565e+01    7.723467e-01
  2.407153e+01    7.765515e-01
  2.408740e+01    7.913237e-01
  2.410328e+01    7.881781e-01
  2.411915e+01    7.844111e-01
  2.413503e+01    7.870712e-01
  2.415090e+01    7.754321e-01
  2.416678e+01    7.915264e-01
  2.418266e+01    7.758318e-01
  2.419853e+01    7.893288e-01
  2.421441e+01    7.824079e-01
  2.423028e+01    7.958049e-01
  2.424616e+01    7.955217e-01
  2.426203e+01    7.898560e-01
  2.427791e+01    7.902123e-01
  2.429378e+01    7.772549e-01
  2.430966e+01    7.635302e-01
  2.432554e+01    7.645833e-01
  2.434141e+01    7.898313e-01
  2.435729e+01    7.793654e-01
  2.437316e+01    8.033900e-01
  2.438904e+01    7.948875e-01
  2.440491e+01    7.749681e-01
  2.442079e+01    7.829573e-01
  2.443666e+01    7.909814e-01
  2.445254e+01    7.726099e-01
  2.446842e+01    7.853146e-01
  2.448429e+01    7.737409e-01
  2.450017e+01    7.733658e-01
  2.451604e+01    7.928762e-01
  2.453192e+01    7.865555e-01
  2.454779e+01    7.914973e-01
  2.456367e+01    7.950002e-01
  2.457954e+01    7.878118e-01
  2.459542e+01    7.755144e-01
  2.461130e+01    7.793388e-01
  2.462717e+01    7.995746e-01
  2.464305e+01    7.816923e-01
  2.465892e+01    7.854522e-01
  2.467480e+01    7.684078e-01
  2.469067e+01    7.809672e-01
  2.470655e+01    7.842511e-01
  2.472242e+01    8.034492e-01
  2.473830e+01    7.900515e-01
  2.475418e+01    8.164110e-01
  2.477005e+01    7.772679e-01
  2.478593e+01    7.633632e-01
  2.480180e+01    7.927433e-01
  2.481768e+01    8.024163e-01
  2.483355e+01    7.951945e-01
  2.484943e+01    8.048678e-01
  2.486530e+01    7.877435e-01
  2.488118e+01    7.845182e-01
  2.489706e+01    7.893788e-01
  2.491293e+01    7.903496e-01
  2.492881e+01    7.951435e-01
  2.494468e+01    7.996953e-01
  2.496056e+01    7.818720e-01
  2.497643e+01    7.894489e-01
  2.499231e+01    7.875010e-01
  2.500819e+01    8.069338e-01
  2.502406e+01    8.073982e-01
  2.503994e+01    7.933071e-01
  2.505581e+01    7.995979e-01
  2.507169e+01    8.063320e-01
  2.508756e+01    8.086171e-01
  2.510344e+01    8.134543e-01
  2.511931e+01    8.189747e-01
  2.513519e+01    8.283071e-01
  2.515107e+01    8.180688e-01
  2.516694e+01    8.317586e-01
  2.518282e+01    8.217495e-01
  2.519869e+01    8.414267e-01
  2.521457e+01    8.534825e-01
  2.523044e+01    8.353219e-01
  2.524632e+01    8.636090e-01
  2.526219e+01    8.528381e-01
  2.527807e+01    8.553893e-01
  2.529395e+01    8.564070e-01
  2.530982e+01    8.532764e-01
  2.532570e+01    8.552999e-01
  2.534157e+01    8.637999e-01
  2.535745e+01    8.715764e-01
  2.537332e+01    8.806234e-01
  2.538920e+01    8.655351e-01
  2.540507e+01    9.102354e-01
  2.542095e+01    8.981544e-01
  2.543683e+01    9.019819e-01
  2.545270e+01    9.084405e-01
  2.546858e+01    9.141420e-01
  2.548445e+01    9.408760e-01
  2.550033e+01    9.602295e-01
  2.551620e+01    9.749165e-01
  2.553208e+01    9.857811e-01
  2.554795e+01    1.006816e+00
  2.556383e+01    1.021158e+00
  2.557971e+01    1.043327e+00
  2.559558e+01    1.090092e+00
  2.561146e+01    1.145693e+00
  2.562733e+01    1.137878e+00
  2.564321e+01    1.190216e+00
  2.565908e+01    1.254910e+00
  2.567496e+01    1.323296e+00
  2.569083e+01    1.369521e+00
  2.570671e+01    1.467197e+00
  2.572259e+01    1.591669e+00
  2.573846e+01    1.714515e+00
  2.575434e+01    1.899904e+00
  2.577021e+01    2.106019e+00
  2.578609e+01    2.339357e+00
  2.580196e+01    2.637710e+00
  2.581784e+01    3.024832e+00
  2.583371e+01    3.437546e+00
  2.584959e+01    3.904695e+00
  2.586547e+01    4.455143e+00
  2.588134e+01    4.965989e+00
  2.589722e+01    5.615359e+00
  2.591309e+01    6.136335e+00
  2.592897e+01    6.617455e+00
  2.594484e+01    6.914652e+00
  2.596072e+01    7.058954e+00
  2.597660e+01    6.898040e+00
  2.599247e+01    6.464507e+00
  2.600835e+01    5.930148e+00
  2.602422e+01    5.270257e+00
  2.604010e+01    4.569369e+00
  2.605597e+01    3.934447e+00
  2.607185e+01    3.360329e+00
  2.608772e+01    2.870174e+00
  2.610360e+01    2.527672e+00
  2.611948e+01    2.250777e+00
  2.613535e+01    2.030931e+00
  2.615123e+01    1.822791e+00
  2.616710e+01    1.704168e+00
  2.618298e+01    1.585068e+00
  2.619885e+01    1.490532e+00
  2.621473e+01    1.379374e+00
  2.623060e+01    1.301945e+00
  2.624648e+01    1.244802e+00
  2.626236e+01    1.209932e+00
  2.627823e+01    1.129964e+00
  2.629411e+01    1.107396e+00
  2.630998e+01    1.092157e+00
  2.632586e+01    1.028600e+00
  2.634173e+01    1.003983e+00
  2.635761e+01    9.864334e-01
  2.637348e+01    9.773300e-01
  2.638936e+01    9.757944e-01
  2.640524e+01    9.493068e-01
  2.642111e+01    9.598318e-01
  2.643699e+01    9.402543e-01
  2.645286e+01    9.264506e-01
  2.646874e+01    9.265329e-01
  2.648461e+01    9.186426e-01
  2.650049e+01    9.049910e-01
  2.651636e+01    9.055741e-01
  2.653224e+01    9.096750e-01
  2.654812e+01    8.847399e-01
  2.656399e+01    8.599921e-01
  2.657987e+01    8.797160e-01
  2.659574e+01    9.082444e-01
  2.661162e+01    8.839335e-01
  2.662749e+01    8.853951e-01
  2.664337e+01    8.863372e-01
  2.665924e+01    8.721778e-01
  2.667512e+01    8.831677e-01
  2.669100e+01    8.740834e-01
  2.670687e+01    8.743203e-01
  2.672275e+01    8.783070e-01
  2.673862e+01    8.753768e-01
  2.675450e+01    8.712659e-01
  2.677037e+01    8.899469e-01
  2.678625e+01    8.729293e-01
  2.680212e+01    8.896027e-01
  2.681800e+01    8.920698e-01
  2.683388e+01    9.057121e-01
  2.684975e+01    8.953087e-01
  2.686563e+01    8.907869e-01
  2.688150e+01    8.860795e-01
  2.689738e+01    8.922005e-01
  2.691325e+01    9.291442e-01
  2.692913e+01    9.239211e-01
  2.694501e+01    9.195702e-01
  2.696088e+01    9.404929e-01
  2.697676e+01    9.653444e-01
  2.699263e+01    9.932257e-01
  2.700851e+01    1.017183e+00
  2.702438e+01    1.042748e+00
  2.704026e+01    1.095022e+00
  2.705613e+01    1.144338e+00
  2.707201e+01    1.223974e+00
  2.708789e+01    1.293453e+00
  2.710376e+01    1.370411e+00
  2.711964e+01    1.513930e+00
  2.713551e+01    1.636189e+00
  2.715139e+01    1.769436e+00
  2.716726e+01    1.903091e+00
  2.718314e+01    2.035370e+00
  2.719901e+01    2.095320e+00
  2.721489e+01    2.131416e+00
  2.723077e+01    2.123768e+00
  2.724664e+01    2.015951e+00
  2.726252e+01    1.927877e+00
  2.727839e+01    1.801420e+00
  2.729427e+01    1.626103e+00
  2.731014e+01    1.499749e+00
  2.732602e+01    1.353622e+00
  2.734189e+01    1.284746e+00
  2.735777e+01    1.204981e+00
  2.737365e+01    1.144907e+00
  2.738952e+01    1.088133e+00
  2.740540e+01    1.029710e+00
  2.742127e+01    1.001082e+00
  2.743715e+01    9.914474e-01
  2.745302e+01    9.626856e-01
  2.746890e+01    9.257606e-01
  2.748477e+01    9.001424e-01
  2.750065e+01    8.980317e-01
  2.751653e+01    8.718531e-01
  2.753240e+01    8.624761e-01
  2.754828e+01    8.782077e-01
  2.756415e+01    8.644242e-01
  2.758003e+01    8.531766e-01
  2.759590e+01    8.226402e-01
  2.761178e+01    8.358237e-01
  2.762765e+01    8.281939e-01
  2.764353e+01    8.170389e-01
  2.765941e+01    8.109270e-01
  2.767528e+01    8.038685e-01
  2.769116e+01    8.091327e-01
  2.770703e+01    7.924395e-01
  2.772291e+01    8.034443e-01
  2.773878e+01    8.146411e-01
  2.775466e+01    7.911951e-01
  2.777054e+01    7.890602e-01
  2.778641e+01    7.866068e-01
  2.780229e+01    8.125463e-01
  2.781816e+01    7.886412e-01
  2.783404e+01    7.604806e-01
  2.784991e+01    7.842805e-01
  2.786579e+01    7.836967e-01
  2.788166e+01    7.805759e-01
  2.789754e+01    8.145928e-01
  2.791342e+01    8.076062e-01
  2.792929e+01    7.908906e-01
  2.794517e+01    7.829339e-01
  2.796104e+01    7.736867e-01
  2.797692e+01    7.754721e-01
  2.799279e+01    7.816586e-01
  2.800867e+01    7.631240e-01
  2.802454e+01    7.769269e-01
  2.804042e+01    7.672910e-01
  2.805630e+01    7.591335e-01
  2.807217e+01    7.815407e-01
  2.808805e+01    7.841304e-01
  2.810392e+01    7.788011e-01
  2.811980e+01    7.679126e-01
  2.813567e+01    7.647937e-01
  2.815155e+01    7.584599e-01
  2.816742e+01    7.518705e-01
  2.818330e+01    7.696882e-01
  2.819918e+01    7.625116e-01
  2.821505e+01    7.526965e-01
  2.823093e+01    7.721782e-01
  2.824680e+01    7.516253e-01
  2.826268e+01    7.593629e-01
  2.827855e+01    7.745264e-01
  2.829443e+01    7.697994e-01
  2.831030e+01    7.517515e-01
  2.832618e+01    7.615579e-01
  2.834206e+01    7.456778e-01
  2.835793e+01    7.386875e-01
  2.837381e+01    7.649425e-01
  2.838968e+01    7.596609e-01
  2.840556e+01    7.618532e-01
  2.842143e+01    7.649432e-01
  2.843731e+01    7.572917e-01
  2.845318e+01    7.602424e-01
  2.846906e+01    7.745526e-01
  2.848494e+01    7.662424e-01
  2.850081e+01    7.669511e-01
  2.851669e+01    7.536936e-01
  2.853256e+01    7.481371e-01
  2.854844e+01    7.456844e-01
  2.856431e+01    7.579532e-01
  2.858019e+01    7.511216e-01
  2.859606e+01    7.414912e-01
  2.861194e+01    7.459974e-01
  2.862782e+01    7.599985e-01
  2.864369e+01    7.540761e-01
  2.865957e+01    7.339883e-01
  2.867544e+01    7.444212e-01
  2.869132e+01    7.373303e-01
  2.870719e+01    7.504712e-01
  2.872307e+01    7.446571e-01
  2.873895e+01    7.355822e-01
  2.875482e+01    7.523631e-01
  2.877070e+01    7.377691e-01
  2.878657e+01    7.500259e-01
  2.880245e+01    7.390593e-01
  2.881832e+01    7.296458e-01
  2.883420e+01    7.369634e-01
  2.885007e+01    7.224002e-01
  2.886595e+01    7.542096e-01
  2.888183e+01    7.279829e-01
  2.889770e+01    7.017068e-01
  2.891358e+01    7.111487e-01
  2.892945e+01    7.201650e-01
  2.894533e+01    7.258340e-01
  2.896120e+01    7.454889e-01
  2.897708e+01    7.276849e-01
  2.899295e+01    7.134076e-01
  2.900883e+01    7.502519e-01
  2.902471e+01    7.448462e-01
  2.904058e+01    7.301463e-01
  2.905646e+01    7.238696e-01
  2.907233e+01    7.246199e-01
  2.908821e+01    7.143118e-01
  2.910408e+01    7.244805e-01
  2.911996e+01    7.195217e-01
  2.913583e+01    7.270311e-01
  2.915171e+01    7.122726e-01
  2.916759e+01    7.057799e-01
  2.918346e+01    7.222099e-01
  2.919934e+01    7.166348e-01
  2.921521e+01    7.223225e-01
  2.923109e+01    7.292829e-01
  2.924696e+01    7.115670e-01
  2.926284e+01    7.076343e-01
  2.927871e+01    7.054285e-01
  2.929459e+01    7.268199e-01
  2.931047e+01    7.264795e-01
  2.932634e+01    7.144445e-01
  2.934222e+01    7.101403e-01
  2.935809e+01    7.121508e-01
  2.937397e+01    7.318063e-01
  2.938984e+01    7.088488e-01
  2.940572e+01    7.096695e-01
  2.942159e+01    7.031107e-01
  2.943747e+01    7.112059e-01
  2.945335e+01    7.274681e-01
  2.946922e+01    7.354806e-01
  2.948510e+01    7.215211e-01
  2.950097e+01    7.290598e-01
  2.951685e+01    7.186525e-01
  2.953272e+01    7.125906e-01
  2.954860e+01    7.218868e-01
  2.956447e+01    7.247367e-01
  2.958035e+01    7.299713e-01
  2.959623e+01    7.086573e-01
  2.961210e+01    7.064171e-01
  2.962798e+01    7.091500e-01
  2.964385e+01    7.187883e-01
  2.965973e+01    7.199087e-01
  2.967560e+01    7.193539e-01
  2.969148e+01    7.206118e-01
  2.970736e+01    7.332299e-01
  2.972323e+01    7.304452e-01
  2.973911e+01    7.311505e-01
  2.975498e+01    7.322526e-01
  2.977086e+01    7.072728e-01
  2.978673e+01    7.022880e-01
  2.980261e+01    7.097723e-01
  2.981848e+01    7.262886e-01
  2.983436e+01    7.017511e-01
  2.985024e+01    7.138944e-01
  2.986611e+01    7.158907e-01
  2.988199e+01    7.147335e-01
  2.989786e+01    7.247062e-01
  2.991374e+01    7.055015e-01
  2.992961e+01    7.130501e-01
  2.994549e+01    6.952115e-01
  2.996136e+01    7.025573e-01
  2.997724e+01    7.195728e-01
  2.999312e+01    7.175629e-01
  3.000899e+01    7.417281e-01
  3.002487e+01    7.448846e-01
  3.004074e+01    7.357451e-01
  3.005662e+01    7.299373e-01
  3.007249e+01    7.320387e-01
  3.008837e+01    7.264481e-01
  3.010424e+01    7.427017e-01
  3.012012e+01    7.416033e-01
  3.013600e+01    7.142845e-01
  3.015187e+01    7.222076e-01
  3.016775e+01    7.275217e-01
  3.018362e+01    7.126779e-01
  3.019950e+01    6.907804e-01
  3.021537e+01    7.194515e-01
  3.023125e+01    7.058127e-01
  3.024712e+01    7.191336e-01
  3.026300e+01    7.265897e-01
  3.027888e+01    7.197391e-01
  3.029475e+01    7.194381e-01
  3.031063e+01    7.037116e-01
  3.032650e+01    6.966599e-01
  3.034238e+01    7.146435e-01
  3.035825e+01    7.011381e-01
  3.037413e+01    6.990411e-01
  3.039000e+01    7.025681e-01
  3.040588e+01    7.197846e-01
  3.042176e+01    7.135321e-01
  3.043763e+01    7.051193e-01
  3.045351e+01    6.993488e-01
  3.046938e+01    6.940449e-01
  3.048526e+01    6.999941e-01
  3.050113e+01    6.965228e-01
  3.051701e+01    7.252640e-01
  3.053288e+01    7.129366e-01
  3.054876e+01    7.065836e-01
  3.056464e+01    7.088434e-01
  3.058051e+01    7.183400e-01
  3.059639e+01    7.059311e-01
  3.061226e+01    7.131431e-01
  3.062814e+01    7.131801e-01
  3.064401e+01    7.255734e-01
  3.065989e+01    7.160765e-01
  3.067577e+01    6.905671e-01
  3.069164e+01    7.070680e-01
  3.070752e+01    7.008553e-01
  3.072339e+01    6.941813e-01
  3.073927e+01    7.014713e-01
  3.075514e+01    7.123716e-01
  3.077102e+01    7.189418e-01
  3.078689e+01    7.176611e-01
  3.080277e+01    7.107170e-01
  3.081865e+01    7.192407e-01
  3.083452e+01    7.050466e-01
  3.085040e+01    6.931894e-01
  3.086627e+01    7.200721e-01
  3.088215e+01    7.029033e-01
  3.089802e+01    7.088411e-01
  3.091390e+01    7.145431e-01
  3.092977e+01    6.927168e-01
  3.094565e+01    7.020626e-01
  3.096153e+01    7.188688e-01
  3.097740e+01    7.053388e-01
  3.099328e+01    7.094209e-01
  3.100915e+01    6.982716e-01
  3.102503e+01    7.105327e-01
  3.104090e+01    7.129998e-01
  3.105678e+01    7.106583e-01
  3.107265e+01    6.985699e-01
  3.108853e+01    7.069256e-01
  3.110441e+01    7.186737e-01
  3.112028e+01    7.102526e-01
  3.113616e+01    6.967701e-01
  3.115203e+01    7.164058e-01
  3.116791e+01    7.105864e-01
  3.118378e+01    7.073748e-01
  3.119966e+01    7.145913e-01
  3.121553e+01    7.128115e-01
  3.123141e+01    7.153101e-01
  3.124729e+01    7.377006e-01
  3.126316e+01    7.156581e-01
  3.127904e+01    7.361801e-01
  3.129491e+01    7.370018e-01
  3.131079e+01    7.222074e-01
  3.132666e+01    7.302833e-01
  3.134254e+01    7.161419e-01
  3.135841e+01    7.200051e-01
  3.137429e+01    7.415333e-01
  3.139017e+01    7.490400e-01
  3.140604e+01    7.425854e-01
  3.142192e+01    7.346030e-01
  3.143779e+01    7.194109e-01
  3.145367e+01    7.394169e-01
  3.146954e+01    7.467999e-01
  3.148542e+01    7.671858e-01
  3.150129e+01    7.591350e-01
  3.151717e+01    7.632179e-01
  3.153305e+01    7.479941e-01
  3.154892e+01    7.709190e-01
  3.156480e+01    7.789952e-01
  3.158067e+01    7.903659e-01
  3.159655e+01    7.823541e-01
  3.161242e+01    8.020341e-01
  3.162830e+01    8.281071e-01
  3.164418e+01    8.322806e-01
  3.166005e+01    8.776172e-01
  3.167593e+01    8.913465e-01
  3.169180e+01    8.903079e-01
  3.170768e+01    9.475589e-01
  3.172355e+01    9.890400e-01
  3.173943e+01    1.037578e+00
  3.175530e+01    1.116908e+00
  3.177118e+01    1.189046e+00
  3.178706e+01    1.286988e+00
  3.180293e+01    1.391040e+00
  3.181881e+01    1.530141e+00
  3.183468e+01    1.644241e+00
  3.185056e+01    1.791059e+00
  3.186643e+01    1.949781e+00
  3.188231e+01    2.071421e+00
  3.189818e+01    2.080516e+00
  3.191406e+01    2.057488e+00
  3.192994e+01    2.011607e+00
  3.194581e+01    1.931503e+00
  3.196169e+01    1.839838e+00
  3.197756e+01    1.645994e+00
  3.199344e+01    1.500975e+00
  3.200931e+01    1.378563e+00
  3.202519e+01    1.294481e+00
  3.204106e+01    1.161370e+00
  3.205694e+01    1.079986e+00
  3.207282e+01    1.048248e+00
  3.208869e+01    9.598523e-01
  3.210457e+01    9.383655e-01
  3.212044e+01    9.273341e-01
  3.213632e+01    8.733214e-01
  3.215219e+01    8.460787e-01
  3.216807e+01    8.227476e-01
  3.218394e+01    7.948226e-01
  3.219982e+01    8.035001e-01
  3.221570e+01    7.989039e-01
  3.223157e+01    7.838789e-01
  3.224745e+01    7.801061e-01
  3.226332e+01    7.539834e-01
  3.227920e+01    7.389249e-01
  3.229507e+01    7.407959e-01
  3.231095e+01    7.575484e-01
  3.232682e+01    7.446779e-01
  3.234270e+01    7.512354e-01
  3.235858e+01    7.427558e-01
  3.237445e+01    7.099965e-01
  3.239033e+01    7.242600e-01
  3.240620e+01    7.524915e-01
  3.242208e+01    7.277519e-01
  3.243795e+01    7.092659e-01
  3.245383e+01    7.044023e-01
  3.246970e+01    6.968567e-01
  3.248558e+01    6.932979e-01
  3.250146e+01    7.062800e-01
  3.251733e+01    7.224122e-01
  3.253321e+01    7.177187e-01
  3.254908e+01    6.941027e-01
