# == pyFAI calibration ==
# Distance Sample to Detector: 0.3999999939076516 m
# PONI: 9.750e-02, 1.135e-01 m
# Rotations: -0.000175 0.000000 -0.000000 rad
# 
# == Fit2d calibration ==
# Distance Sample-beamCenter: 400.000 mm
# Center: x=1514.000, y=1300.000 pix
# Tilt: 0.010 deg  TiltPlanRot: 0.010 deg
# 
# Detector Detector	 Spline= None	 PixelSize= 7.500e-05, 7.500e-05 m
#    Detector has a mask: False 
#    Detector has a dark current: False 
#    detector has a flat field: False 
# 
# Wavelength: 6.888e-11 m
# Mask applied: user provided
# Dark current applied: False
# Flat field applied: False
# Polarization factor: 0.99
# Normalization factor: 1.0
# --> /home/myspot/data/2024_07_Rosario/Ru-CGO-ex/2024-07-27_002_Ru-CGO-ex_Activtation_ramp_000002_data_000020.dat
#       q_nm^-1             I 
  2.003187e-02    7.711996e-02
  3.590745e-02    2.073992e-01
  5.178302e-02    2.207118e-01
  6.765859e-02    1.719553e-01
  8.353417e-02    1.788316e-01
  9.940974e-02    7.799263e-02
  1.152853e-01    3.196925e-02
  1.311609e-01    2.826107e-02
  1.470365e-01    1.344727e-02
  1.629120e-01    5.848453e-02
  1.787876e-01    7.510759e-03
  1.946632e-01    3.541815e-02
  2.105388e-01    3.816455e-02
  2.264143e-01    5.701248e-02
  2.422899e-01    7.989109e-02
  2.581655e-01    5.589211e-02
  2.740411e-01    4.071893e-02
  2.899166e-01    4.774848e-02
  3.057922e-01    3.465611e-02
  3.216678e-01    1.587128e-02
  3.375433e-01    2.925158e-02
  3.534189e-01    3.690318e-02
  3.692945e-01    1.208677e-02
  3.851701e-01    3.089392e-02
  4.010456e-01    2.038029e-02
  4.169212e-01    1.354019e-02
  4.327968e-01    3.193741e-02
  4.486724e-01    3.297330e-02
  4.645479e-01    1.929263e-02
  4.804235e-01    1.808915e-02
  4.962991e-01    2.460684e-02
  5.121747e-01    2.935283e-02
  5.280502e-01    1.519031e-02
  5.439258e-01    2.627383e-02
  5.598014e-01    3.285228e-02
  5.756770e-01    8.729046e-03
  5.915525e-01    6.215478e-02
  6.074281e-01    4.773017e-02
  6.233037e-01    3.494017e-02
  6.391793e-01    2.487998e-02
  6.550548e-01    1.541765e-02
  6.709304e-01    3.334692e-02
  6.868060e-01    7.169709e-02
  7.026815e-01    7.357296e-02
  7.185571e-01    3.861987e-02
  7.344327e-01    2.405632e-02
  7.503083e-01    3.593665e-02
  7.661838e-01    4.965331e-02
  7.820594e-01    9.009302e-02
  7.979350e-01    1.247791e-01
  8.138106e-01    1.587501e-01
  8.296861e-01    2.045706e-01
  8.455617e-01    2.799253e-01
  8.614373e-01    3.669377e-01
  8.773129e-01    4.841970e-01
  8.931884e-01    4.783879e-01
  9.090640e-01    5.090039e-01
  9.249396e-01    5.831555e-01
  9.408152e-01    7.149101e-01
  9.566907e-01    7.940308e-01
  9.725663e-01    8.598388e-01
  9.884419e-01    9.806224e-01
  1.004317e+00    9.718683e-01
  1.020193e+00    1.069489e+00
  1.036069e+00    1.213453e+00
  1.051944e+00    1.227990e+00
  1.067820e+00    1.191581e+00
  1.083695e+00    1.346545e+00
  1.099571e+00    1.371677e+00
  1.115446e+00    1.422412e+00
  1.131322e+00    1.414752e+00
  1.147198e+00    1.405152e+00
  1.163073e+00    1.508192e+00
  1.178949e+00    1.453594e+00
  1.194824e+00    1.555440e+00
  1.210700e+00    1.886712e+00
  1.226575e+00    2.094628e+00
  1.242451e+00    2.141594e+00
  1.258327e+00    2.334049e+00
  1.274202e+00    2.611698e+00
  1.290078e+00    2.557714e+00
  1.305953e+00    2.494594e+00
  1.321829e+00    2.500743e+00
  1.337705e+00    2.596974e+00
  1.353580e+00    2.695014e+00
  1.369456e+00    2.644580e+00
  1.385331e+00    2.691840e+00
  1.401207e+00    2.742000e+00
  1.417082e+00    2.637022e+00
  1.432958e+00    2.751116e+00
  1.448834e+00    2.724818e+00
  1.464709e+00    2.663720e+00
  1.480585e+00    2.966593e+00
  1.496460e+00    3.032483e+00
  1.512336e+00    2.934955e+00
  1.528211e+00    2.948910e+00
  1.544087e+00    3.034118e+00
  1.559963e+00    3.189153e+00
  1.575838e+00    3.082986e+00
  1.591714e+00    2.979777e+00
  1.607589e+00    3.003138e+00
  1.623465e+00    3.020622e+00
  1.639340e+00    2.953639e+00
  1.655216e+00    2.992357e+00
  1.671092e+00    3.064528e+00
  1.686967e+00    2.986985e+00
  1.702843e+00    2.867887e+00
  1.718718e+00    3.041517e+00
  1.734594e+00    2.995912e+00
  1.750469e+00    2.970897e+00
  1.766345e+00    2.867635e+00
  1.782221e+00    2.777364e+00
  1.798096e+00    2.854448e+00
  1.813972e+00    2.773413e+00
  1.829847e+00    2.823416e+00
  1.845723e+00    2.871826e+00
  1.861598e+00    2.926019e+00
  1.877474e+00    2.970639e+00
  1.893350e+00    2.867820e+00
  1.909225e+00    2.798054e+00
  1.925101e+00    2.789881e+00
  1.940976e+00    2.838776e+00
  1.956852e+00    2.780612e+00
  1.972727e+00    2.738957e+00
  1.988603e+00    2.826196e+00
  2.004479e+00    2.793500e+00
  2.020354e+00    2.673799e+00
  2.036230e+00    2.720562e+00
  2.052105e+00    2.846744e+00
  2.067981e+00    2.827781e+00
  2.083856e+00    2.811335e+00
  2.099732e+00    2.859930e+00
  2.115608e+00    2.850179e+00
  2.131483e+00    2.824059e+00
  2.147359e+00    2.856354e+00
  2.163234e+00    2.930714e+00
  2.179110e+00    2.702995e+00
  2.194985e+00    2.751096e+00
  2.210861e+00    2.882230e+00
  2.226737e+00    2.715537e+00
  2.242612e+00    2.837194e+00
  2.258488e+00    2.942326e+00
  2.274363e+00    2.826092e+00
  2.290239e+00    2.784944e+00
  2.306115e+00    2.852097e+00
  2.321990e+00    2.770947e+00
  2.337866e+00    2.701085e+00
  2.353741e+00    2.791369e+00
  2.369617e+00    2.761015e+00
  2.385492e+00    2.823687e+00
  2.401368e+00    2.796370e+00
  2.417244e+00    2.881802e+00
  2.433119e+00    2.821965e+00
  2.448995e+00    2.839946e+00
  2.464870e+00    2.810184e+00
  2.480746e+00    2.857159e+00
  2.496621e+00    2.876969e+00
  2.512497e+00    2.717275e+00
  2.528373e+00    2.711372e+00
  2.544248e+00    2.817267e+00
  2.560124e+00    2.961291e+00
  2.575999e+00    2.805536e+00
  2.591875e+00    2.801353e+00
  2.607750e+00    2.913818e+00
  2.623626e+00    2.893544e+00
  2.639502e+00    2.884274e+00
  2.655377e+00    2.851969e+00
  2.671253e+00    2.963317e+00
  2.687128e+00    2.973808e+00
  2.703004e+00    2.881928e+00
  2.718879e+00    2.842066e+00
  2.734755e+00    2.800008e+00
  2.750631e+00    2.845049e+00
  2.766506e+00    2.912165e+00
  2.782382e+00    2.844587e+00
  2.798257e+00    2.879329e+00
  2.814133e+00    2.957522e+00
  2.830008e+00    2.968022e+00
  2.845884e+00    2.960656e+00
  2.861760e+00    2.849025e+00
  2.877635e+00    2.889448e+00
  2.893511e+00    2.951551e+00
  2.909386e+00    2.934344e+00
  2.925262e+00    2.925225e+00
  2.941137e+00    2.911926e+00
  2.957013e+00    2.858949e+00
  2.972889e+00    2.902856e+00
  2.988764e+00    2.889412e+00
  3.004640e+00    2.943560e+00
  3.020515e+00    3.003661e+00
  3.036391e+00    2.894451e+00
  3.052266e+00    2.777151e+00
  3.068142e+00    2.828629e+00
  3.084018e+00    2.901915e+00
  3.099893e+00    2.912428e+00
  3.115769e+00    2.886706e+00
  3.131644e+00    2.942191e+00
  3.147520e+00    2.940129e+00
  3.163395e+00    2.923454e+00
  3.179271e+00    2.929443e+00
  3.195147e+00    2.987167e+00
  3.211022e+00    2.933814e+00
  3.226898e+00    3.003603e+00
  3.242773e+00    3.036406e+00
  3.258649e+00    2.967232e+00
  3.274525e+00    2.992506e+00
  3.290400e+00    2.964014e+00
  3.306276e+00    2.919683e+00
  3.322151e+00    2.964164e+00
  3.338027e+00    2.857022e+00
  3.353902e+00    2.902576e+00
  3.369778e+00    2.913064e+00
  3.385654e+00    2.921826e+00
  3.401529e+00    2.909863e+00
  3.417405e+00    2.936393e+00
  3.433280e+00    3.028218e+00
  3.449156e+00    2.975913e+00
  3.465031e+00    2.946467e+00
  3.480907e+00    3.053647e+00
  3.496783e+00    3.015141e+00
  3.512658e+00    3.040014e+00
  3.528534e+00    2.967316e+00
  3.544409e+00    2.997980e+00
  3.560285e+00    2.980754e+00
  3.576160e+00    3.041625e+00
  3.592036e+00    2.952663e+00
  3.607912e+00    2.823887e+00
  3.623787e+00    2.899498e+00
  3.639663e+00    2.964890e+00
  3.655538e+00    3.036886e+00
  3.671414e+00    3.019345e+00
  3.687289e+00    3.022567e+00
  3.703165e+00    3.052057e+00
  3.719041e+00    2.967856e+00
  3.734916e+00    2.977859e+00
  3.750792e+00    2.959422e+00
  3.766667e+00    2.989969e+00
  3.782543e+00    2.971118e+00
  3.798418e+00    2.961368e+00
  3.814294e+00    2.935723e+00
  3.830170e+00    3.035780e+00
  3.846045e+00    3.000223e+00
  3.861921e+00    3.096385e+00
  3.877796e+00    3.113317e+00
  3.893672e+00    2.972634e+00
  3.909547e+00    3.019005e+00
  3.925423e+00    3.003411e+00
  3.941299e+00    3.036413e+00
  3.957174e+00    3.094869e+00
  3.973050e+00    3.152901e+00
  3.988925e+00    3.030872e+00
  4.004801e+00    3.000355e+00
  4.020676e+00    2.984213e+00
  4.036552e+00    3.019506e+00
  4.052428e+00    3.041893e+00
  4.068303e+00    3.016809e+00
  4.084179e+00    3.042417e+00
  4.100054e+00    3.088299e+00
  4.115930e+00    3.045229e+00
  4.131806e+00    3.035677e+00
  4.147681e+00    2.991443e+00
  4.163557e+00    3.092940e+00
  4.179432e+00    3.157537e+00
  4.195308e+00    3.020849e+00
  4.211183e+00    3.050539e+00
  4.227059e+00    3.102004e+00
  4.242935e+00    3.071385e+00
  4.258810e+00    3.098081e+00
  4.274686e+00    3.024152e+00
  4.290561e+00    3.075624e+00
  4.306437e+00    3.148047e+00
  4.322312e+00    3.127711e+00
  4.338188e+00    2.941500e+00
  4.354064e+00    3.000447e+00
  4.369939e+00    3.157236e+00
  4.385815e+00    3.197507e+00
  4.401690e+00    3.095385e+00
  4.417566e+00    3.103648e+00
  4.433441e+00    3.084880e+00
  4.449317e+00    3.089990e+00
  4.465193e+00    3.061049e+00
  4.481068e+00    3.147179e+00
  4.496944e+00    3.130678e+00
  4.512819e+00    3.141568e+00
  4.528695e+00    3.143718e+00
  4.544570e+00    3.099159e+00
  4.560446e+00    3.148305e+00
  4.576322e+00    3.054018e+00
  4.592197e+00    3.065119e+00
  4.608073e+00    3.064092e+00
  4.623948e+00    3.086195e+00
  4.639824e+00    3.130541e+00
  4.655699e+00    3.099289e+00
  4.671575e+00    3.079089e+00
  4.687451e+00    3.119453e+00
  4.703326e+00    3.109432e+00
  4.719202e+00    3.061920e+00
  4.735077e+00    3.164572e+00
  4.750953e+00    3.193015e+00
  4.766828e+00    3.148252e+00
  4.782704e+00    3.125173e+00
  4.798580e+00    3.068345e+00
  4.814455e+00    3.130186e+00
  4.830331e+00    3.165328e+00
  4.846206e+00    3.130836e+00
  4.862082e+00    3.056997e+00
  4.877957e+00    3.103460e+00
  4.893833e+00    3.106086e+00
  4.909709e+00    3.093567e+00
  4.925584e+00    3.099887e+00
  4.941460e+00    3.125676e+00
  4.957335e+00    3.098289e+00
  4.973211e+00    3.101602e+00
  4.989086e+00    3.144757e+00
  5.004962e+00    3.147614e+00
  5.020838e+00    3.156687e+00
  5.036713e+00    3.192684e+00
  5.052589e+00    3.197121e+00
  5.068464e+00    3.150526e+00
  5.084340e+00    3.180850e+00
  5.100216e+00    3.128202e+00
  5.116091e+00    3.193150e+00
  5.131967e+00    3.138112e+00
  5.147842e+00    3.129541e+00
  5.163718e+00    3.140131e+00
  5.179593e+00    3.160688e+00
  5.195469e+00    3.093595e+00
  5.211345e+00    3.129687e+00
  5.227220e+00    3.158597e+00
  5.243096e+00    3.232607e+00
  5.258971e+00    3.095913e+00
  5.274847e+00    3.091412e+00
  5.290722e+00    3.147291e+00
  5.306598e+00    3.102876e+00
  5.322474e+00    3.073205e+00
  5.338349e+00    3.077811e+00
  5.354225e+00    3.086975e+00
  5.370100e+00    3.073478e+00
  5.385976e+00    3.109322e+00
  5.401851e+00    3.131935e+00
  5.417727e+00    3.087764e+00
  5.433603e+00    3.106333e+00
  5.449478e+00    3.149022e+00
  5.465354e+00    3.103175e+00
  5.481229e+00    3.083665e+00
  5.497105e+00    3.079332e+00
  5.512980e+00    3.060235e+00
  5.528856e+00    3.170589e+00
  5.544732e+00    3.094765e+00
  5.560607e+00    3.047210e+00
  5.576483e+00    3.001718e+00
  5.592358e+00    3.033666e+00
  5.608234e+00    3.104863e+00
  5.624109e+00    3.089448e+00
  5.639985e+00    3.114517e+00
  5.655861e+00    3.162447e+00
  5.671736e+00    3.103925e+00
  5.687612e+00    3.032262e+00
  5.703487e+00    3.072701e+00
  5.719363e+00    3.022460e+00
  5.735238e+00    3.054919e+00
  5.751114e+00    2.973407e+00
  5.766990e+00    2.991552e+00
  5.782865e+00    3.110633e+00
  5.798741e+00    3.163717e+00
  5.814616e+00    3.177153e+00
  5.830492e+00    3.139953e+00
  5.846367e+00    3.082473e+00
  5.862243e+00    3.067978e+00
  5.878119e+00    3.070632e+00
  5.893994e+00    3.079674e+00
  5.909870e+00    2.932958e+00
  5.925745e+00    3.016733e+00
  5.941621e+00    3.137363e+00
  5.957497e+00    3.167981e+00
  5.973372e+00    3.166295e+00
  5.989248e+00    3.025043e+00
  6.005123e+00    3.015140e+00
  6.020999e+00    3.060990e+00
  6.036874e+00    3.123785e+00
  6.052750e+00    3.113890e+00
  6.068626e+00    3.014765e+00
  6.084501e+00    3.042509e+00
  6.100377e+00    3.061001e+00
  6.116252e+00    3.096918e+00
  6.132128e+00    3.122302e+00
  6.148003e+00    3.162262e+00
  6.163879e+00    3.053525e+00
  6.179755e+00    3.067101e+00
  6.195630e+00    3.090690e+00
  6.211506e+00    3.095968e+00
  6.227381e+00    3.017284e+00
  6.243257e+00    3.067103e+00
  6.259132e+00    3.074521e+00
  6.275008e+00    3.083814e+00
  6.290884e+00    3.015596e+00
  6.306759e+00    3.046577e+00
  6.322635e+00    3.074948e+00
  6.338510e+00    3.075098e+00
  6.354386e+00    3.074549e+00
  6.370261e+00    3.107838e+00
  6.386137e+00    3.045256e+00
  6.402013e+00    3.071553e+00
  6.417888e+00    2.985443e+00
  6.433764e+00    2.979035e+00
  6.449639e+00    2.976135e+00
  6.465515e+00    2.998103e+00
  6.481390e+00    3.047495e+00
  6.497266e+00    3.090085e+00
  6.513142e+00    3.110703e+00
  6.529017e+00    3.091830e+00
  6.544893e+00    3.067293e+00
  6.560768e+00    2.991163e+00
  6.576644e+00    2.952124e+00
  6.592519e+00    3.082000e+00
  6.608395e+00    3.086107e+00
  6.624271e+00    3.064147e+00
  6.640146e+00    3.041468e+00
  6.656022e+00    3.035936e+00
  6.671897e+00    3.063085e+00
  6.687773e+00    3.015496e+00
  6.703648e+00    3.091432e+00
  6.719524e+00    3.082787e+00
  6.735400e+00    3.101844e+00
  6.751275e+00    3.040536e+00
  6.767151e+00    2.988403e+00
  6.783026e+00    3.043398e+00
  6.798902e+00    3.088117e+00
  6.814777e+00    3.056479e+00
  6.830653e+00    3.027339e+00
  6.846529e+00    3.076444e+00
  6.862404e+00    3.065925e+00
  6.878280e+00    2.936046e+00
  6.894155e+00    2.978577e+00
  6.910031e+00    3.049605e+00
  6.925907e+00    3.085014e+00
  6.941782e+00    3.072089e+00
  6.957658e+00    3.109504e+00
  6.973533e+00    3.087797e+00
  6.989409e+00    3.036643e+00
  7.005284e+00    3.018344e+00
  7.021160e+00    2.995379e+00
  7.037036e+00    2.988317e+00
  7.052911e+00    3.042241e+00
  7.068787e+00    3.040316e+00
  7.084662e+00    3.043488e+00
  7.100538e+00    3.034670e+00
  7.116413e+00    2.986571e+00
  7.132289e+00    3.017857e+00
  7.148165e+00    3.054323e+00
  7.164040e+00    3.064594e+00
  7.179916e+00    2.998142e+00
  7.195791e+00    3.004765e+00
  7.211667e+00    2.978496e+00
  7.227542e+00    2.927007e+00
  7.243418e+00    2.905639e+00
  7.259294e+00    3.041689e+00
  7.275169e+00    3.006612e+00
  7.291045e+00    2.944242e+00
  7.306920e+00    2.918902e+00
  7.322796e+00    2.977972e+00
  7.338671e+00    3.043927e+00
  7.354547e+00    3.048707e+00
  7.370423e+00    2.977099e+00
  7.386298e+00    3.013522e+00
  7.402174e+00    3.006530e+00
  7.418049e+00    2.941282e+00
  7.433925e+00    3.034857e+00
  7.449800e+00    3.031651e+00
  7.465676e+00    3.036608e+00
  7.481552e+00    3.028447e+00
  7.497427e+00    3.028594e+00
  7.513303e+00    2.955543e+00
  7.529178e+00    3.007333e+00
  7.545054e+00    3.008557e+00
  7.560929e+00    2.996019e+00
  7.576805e+00    2.920051e+00
  7.592681e+00    2.945992e+00
  7.608556e+00    3.035827e+00
  7.624432e+00    2.934275e+00
  7.640307e+00    2.946416e+00
  7.656183e+00    2.975920e+00
  7.672058e+00    2.933968e+00
  7.687934e+00    2.997242e+00
  7.703810e+00    3.042647e+00
  7.719685e+00    2.959868e+00
  7.735561e+00    2.912477e+00
  7.751436e+00    2.939518e+00
  7.767312e+00    2.972842e+00
  7.783187e+00    2.910578e+00
  7.799063e+00    2.940435e+00
  7.814939e+00    2.882411e+00
  7.830814e+00    2.885947e+00
  7.846690e+00    2.972041e+00
  7.862565e+00    2.979556e+00
  7.878441e+00    2.923484e+00
  7.894317e+00    2.931364e+00
  7.910192e+00    2.966024e+00
  7.926068e+00    2.933053e+00
  7.941943e+00    2.916291e+00
  7.957819e+00    2.932757e+00
  7.973694e+00    2.890253e+00
  7.989570e+00    2.913117e+00
  8.005446e+00    2.957316e+00
  8.021321e+00    2.952418e+00
  8.037197e+00    2.914092e+00
  8.053072e+00    2.892536e+00
  8.068948e+00    2.956521e+00
  8.084823e+00    3.022482e+00
  8.100699e+00    3.006184e+00
  8.116575e+00    2.986481e+00
  8.132450e+00    2.966177e+00
  8.148326e+00    2.902541e+00
  8.164201e+00    2.930159e+00
  8.180077e+00    2.937060e+00
  8.195952e+00    2.967970e+00
  8.211828e+00    2.985287e+00
  8.227704e+00    2.967884e+00
  8.243579e+00    2.905522e+00
  8.259455e+00    2.997321e+00
  8.275330e+00    2.931261e+00
  8.291206e+00    2.905877e+00
  8.307081e+00    2.951882e+00
  8.322957e+00    2.932560e+00
  8.338833e+00    2.879883e+00
  8.354708e+00    2.899162e+00
  8.370584e+00    2.921340e+00
  8.386459e+00    2.916817e+00
  8.402335e+00    2.970830e+00
  8.418210e+00    2.957788e+00
  8.434086e+00    2.945199e+00
  8.449962e+00    3.004847e+00
  8.465837e+00    2.955165e+00
  8.481713e+00    2.897819e+00
  8.497588e+00    2.891319e+00
  8.513464e+00    2.925897e+00
  8.529339e+00    2.944052e+00
  8.545215e+00    2.934627e+00
  8.561091e+00    2.909841e+00
  8.576966e+00    2.881564e+00
  8.592842e+00    2.868354e+00
  8.608717e+00    2.914603e+00
  8.624593e+00    2.898622e+00
  8.640468e+00    2.913600e+00
  8.656344e+00    2.890842e+00
  8.672220e+00    2.907410e+00
  8.688095e+00    2.906878e+00
  8.703971e+00    2.825242e+00
  8.719846e+00    2.872730e+00
  8.735722e+00    2.871529e+00
  8.751598e+00    2.879929e+00
  8.767473e+00    2.912087e+00
  8.783349e+00    2.925054e+00
  8.799224e+00    2.894317e+00
  8.815100e+00    2.896434e+00
  8.830975e+00    2.810834e+00
  8.846851e+00    2.849178e+00
  8.862727e+00    2.835890e+00
  8.878602e+00    2.882969e+00
  8.894478e+00    2.894913e+00
  8.910353e+00    2.890224e+00
  8.926229e+00    2.848711e+00
  8.942104e+00    2.847959e+00
  8.957980e+00    2.784807e+00
  8.973856e+00    2.813995e+00
  8.989731e+00    2.854611e+00
  9.005607e+00    2.882482e+00
  9.021482e+00    2.842244e+00
  9.037358e+00    2.813317e+00
  9.053233e+00    2.814850e+00
  9.069109e+00    2.815683e+00
  9.084985e+00    2.807486e+00
  9.100860e+00    2.829764e+00
  9.116736e+00    2.830538e+00
  9.132611e+00    2.824184e+00
  9.148487e+00    2.795419e+00
  9.164362e+00    2.805085e+00
  9.180238e+00    2.810277e+00
  9.196114e+00    2.797169e+00
  9.211989e+00    2.810903e+00
  9.227865e+00    2.835037e+00
  9.243740e+00    2.831582e+00
  9.259616e+00    2.832058e+00
  9.275491e+00    2.854686e+00
  9.291367e+00    2.774412e+00
  9.307243e+00    2.782791e+00
  9.323118e+00    2.785863e+00
  9.338994e+00    2.780741e+00
  9.354869e+00    2.783778e+00
  9.370745e+00    2.794387e+00
  9.386620e+00    2.793925e+00
  9.402496e+00    2.788687e+00
  9.418372e+00    2.808560e+00
  9.434247e+00    2.784797e+00
  9.450123e+00    2.801898e+00
  9.465998e+00    2.804645e+00
  9.481874e+00    2.761709e+00
  9.497749e+00    2.783774e+00
  9.513625e+00    2.825657e+00
  9.529501e+00    2.830028e+00
  9.545376e+00    2.781202e+00
  9.561252e+00    2.782717e+00
  9.577127e+00    2.811716e+00
  9.593003e+00    2.836555e+00
  9.608878e+00    2.812116e+00
  9.624754e+00    2.737230e+00
  9.640630e+00    2.751340e+00
  9.656505e+00    2.713539e+00
  9.672381e+00    2.689103e+00
  9.688256e+00    2.744788e+00
  9.704132e+00    2.794914e+00
  9.720008e+00    2.766279e+00
  9.735883e+00    2.740147e+00
  9.751759e+00    2.742635e+00
  9.767634e+00    2.705437e+00
  9.783510e+00    2.713955e+00
  9.799385e+00    2.715446e+00
  9.815261e+00    2.739037e+00
  9.831137e+00    2.744886e+00
  9.847012e+00    2.748886e+00
  9.862888e+00    2.701035e+00
  9.878763e+00    2.693323e+00
  9.894639e+00    2.698239e+00
  9.910514e+00    2.719164e+00
  9.926390e+00    2.750916e+00
  9.942266e+00    2.736240e+00
  9.958141e+00    2.722172e+00
  9.974017e+00    2.644792e+00
  9.989892e+00    2.647023e+00
  1.000577e+01    2.641306e+00
  1.002164e+01    2.718720e+00
  1.003752e+01    2.699777e+00
  1.005339e+01    2.662274e+00
  1.006927e+01    2.672848e+00
  1.008515e+01    2.674634e+00
  1.010102e+01    2.673252e+00
  1.011690e+01    2.676741e+00
  1.013277e+01    2.669953e+00
  1.014865e+01    2.715070e+00
  1.016452e+01    2.676661e+00
  1.018040e+01    2.722951e+00
  1.019627e+01    2.708841e+00
  1.021215e+01    2.680842e+00
  1.022803e+01    2.723254e+00
  1.024390e+01    2.637998e+00
  1.025978e+01    2.649172e+00
  1.027565e+01    2.652542e+00
  1.029153e+01    2.605084e+00
  1.030740e+01    2.599811e+00
  1.032328e+01    2.628471e+00
  1.033915e+01    2.613631e+00
  1.035503e+01    2.645866e+00
  1.037091e+01    2.685269e+00
  1.038678e+01    2.679428e+00
  1.040266e+01    2.651478e+00
  1.041853e+01    2.577357e+00
  1.043441e+01    2.567887e+00
  1.045028e+01    2.591323e+00
  1.046616e+01    2.629449e+00
  1.048204e+01    2.669290e+00
  1.049791e+01    2.665285e+00
  1.051379e+01    2.626352e+00
  1.052966e+01    2.617790e+00
  1.054554e+01    2.595435e+00
  1.056141e+01    2.605783e+00
  1.057729e+01    2.601989e+00
  1.059316e+01    2.628132e+00
  1.060904e+01    2.597429e+00
  1.062492e+01    2.528743e+00
  1.064079e+01    2.548354e+00
  1.065667e+01    2.592310e+00
  1.067254e+01    2.578437e+00
  1.068842e+01    2.557763e+00
  1.070429e+01    2.508315e+00
  1.072017e+01    2.608151e+00
  1.073604e+01    2.604547e+00
  1.075192e+01    2.584885e+00
  1.076780e+01    2.544669e+00
  1.078367e+01    2.562669e+00
  1.079955e+01    2.606080e+00
  1.081542e+01    2.547071e+00
  1.083130e+01    2.525223e+00
  1.084717e+01    2.513521e+00
  1.086305e+01    2.548036e+00
  1.087892e+01    2.531246e+00
  1.089480e+01    2.525963e+00
  1.091068e+01    2.529833e+00
  1.092655e+01    2.534237e+00
  1.094243e+01    2.526537e+00
  1.095830e+01    2.545043e+00
  1.097418e+01    2.530140e+00
  1.099005e+01    2.500987e+00
  1.100593e+01    2.514570e+00
  1.102180e+01    2.539755e+00
  1.103768e+01    2.479046e+00
  1.105356e+01    2.474383e+00
  1.106943e+01    2.461115e+00
  1.108531e+01    2.473625e+00
  1.110118e+01    2.531335e+00
  1.111706e+01    2.493830e+00
  1.113293e+01    2.467017e+00
  1.114881e+01    2.488925e+00
  1.116468e+01    2.462515e+00
  1.118056e+01    2.454240e+00
  1.119644e+01    2.429427e+00
  1.121231e+01    2.479075e+00
  1.122819e+01    2.496282e+00
  1.124406e+01    2.474159e+00
  1.125994e+01    2.432230e+00
  1.127581e+01    2.437142e+00
  1.129169e+01    2.413148e+00
  1.130756e+01    2.451384e+00
  1.132344e+01    2.459185e+00
  1.133932e+01    2.448643e+00
  1.135519e+01    2.413512e+00
  1.137107e+01    2.471971e+00
  1.138694e+01    2.447795e+00
  1.140282e+01    2.433285e+00
  1.141869e+01    2.472822e+00
  1.143457e+01    2.430553e+00
  1.145045e+01    2.399606e+00
  1.146632e+01    2.417976e+00
  1.148220e+01    2.458467e+00
  1.149807e+01    2.397398e+00
  1.151395e+01    2.438655e+00
  1.152982e+01    2.453900e+00
  1.154570e+01    2.412643e+00
  1.156157e+01    2.425535e+00
  1.157745e+01    2.396732e+00
  1.159333e+01    2.431559e+00
  1.160920e+01    2.485019e+00
  1.162508e+01    2.467582e+00
  1.164095e+01    2.433977e+00
  1.165683e+01    2.380307e+00
  1.167270e+01    2.353390e+00
  1.168858e+01    2.417804e+00
  1.170445e+01    2.433105e+00
  1.172033e+01    2.419987e+00
  1.173621e+01    2.419652e+00
  1.175208e+01    2.425075e+00
  1.176796e+01    2.423248e+00
  1.178383e+01    2.409011e+00
  1.179971e+01    2.363481e+00
  1.181558e+01    2.378254e+00
  1.183146e+01    2.374407e+00
  1.184733e+01    2.397021e+00
  1.186321e+01    2.371746e+00
  1.187909e+01    2.388938e+00
  1.189496e+01    2.375927e+00
  1.191084e+01    2.335904e+00
  1.192671e+01    2.340910e+00
  1.194259e+01    2.326593e+00
  1.195846e+01    2.310872e+00
  1.197434e+01    2.346233e+00
  1.199021e+01    2.362734e+00
  1.200609e+01    2.365848e+00
  1.202197e+01    2.397809e+00
  1.203784e+01    2.336320e+00
  1.205372e+01    2.272178e+00
  1.206959e+01    2.320626e+00
  1.208547e+01    2.329868e+00
  1.210134e+01    2.342138e+00
  1.211722e+01    2.328326e+00
  1.213309e+01    2.352441e+00
  1.214897e+01    2.398845e+00
  1.216485e+01    2.329150e+00
  1.218072e+01    2.355244e+00
  1.219660e+01    2.361564e+00
  1.221247e+01    2.352279e+00
  1.222835e+01    2.321899e+00
  1.224422e+01    2.289983e+00
  1.226010e+01    2.296905e+00
  1.227597e+01    2.346673e+00
  1.229185e+01    2.336751e+00
  1.230773e+01    2.332572e+00
  1.232360e+01    2.324422e+00
  1.233948e+01    2.334300e+00
  1.235535e+01    2.341810e+00
  1.237123e+01    2.331271e+00
  1.238710e+01    2.320690e+00
  1.240298e+01    2.345685e+00
  1.241886e+01    2.342002e+00
  1.243473e+01    2.395362e+00
  1.245061e+01    2.403808e+00
  1.246648e+01    2.383452e+00
  1.248236e+01    2.367972e+00
  1.249823e+01    2.334870e+00
  1.251411e+01    2.323474e+00
  1.252998e+01    2.361676e+00
  1.254586e+01    2.434223e+00
  1.256174e+01    2.402675e+00
  1.257761e+01    2.405062e+00
  1.259349e+01    2.400611e+00
  1.260936e+01    2.403574e+00
  1.262524e+01    2.470230e+00
  1.264111e+01    2.444371e+00
  1.265699e+01    2.449432e+00
  1.267286e+01    2.480419e+00
  1.268874e+01    2.477907e+00
  1.270462e+01    2.507856e+00
  1.272049e+01    2.519484e+00
  1.273637e+01    2.519042e+00
  1.275224e+01    2.588268e+00
  1.276812e+01    2.634671e+00
  1.278399e+01    2.653414e+00
  1.279987e+01    2.723142e+00
  1.281574e+01    2.760918e+00
  1.283162e+01    2.788885e+00
  1.284750e+01    2.876050e+00
  1.286337e+01    2.973637e+00
  1.287925e+01    3.061990e+00
  1.289512e+01    3.181157e+00
  1.291100e+01    3.277010e+00
  1.292687e+01    3.395756e+00
  1.294275e+01    3.653899e+00
  1.295862e+01    3.920853e+00
  1.297450e+01    4.240189e+00
  1.299038e+01    4.634720e+00
  1.300625e+01    5.159534e+00
  1.302213e+01    5.859665e+00
  1.303800e+01    6.613080e+00
  1.305388e+01    7.653625e+00
  1.306975e+01    8.959746e+00
  1.308563e+01    1.029746e+01
  1.310150e+01    1.198315e+01
  1.311738e+01    1.358166e+01
  1.313326e+01    1.503639e+01
  1.314913e+01    1.660774e+01
  1.316501e+01    1.792452e+01
  1.318088e+01    1.910478e+01
  1.319676e+01    1.988848e+01
  1.321263e+01    1.978248e+01
  1.322851e+01    1.845065e+01
  1.324438e+01    1.638979e+01
  1.326026e+01    1.402361e+01
  1.327614e+01    1.193739e+01
  1.329201e+01    9.942777e+00
  1.330789e+01    8.371704e+00
  1.332376e+01    7.212078e+00
  1.333964e+01    6.194495e+00
  1.335551e+01    5.512537e+00
  1.337139e+01    5.005029e+00
  1.338727e+01    4.468203e+00
  1.340314e+01    4.126627e+00
  1.341902e+01    3.860483e+00
  1.343489e+01    3.599333e+00
  1.345077e+01    3.373360e+00
  1.346664e+01    3.189791e+00
  1.348252e+01    3.063000e+00
  1.349839e+01    2.986048e+00
  1.351427e+01    2.878165e+00
  1.353015e+01    2.811885e+00
  1.354602e+01    2.733986e+00
  1.356190e+01    2.706635e+00
  1.357777e+01    2.566021e+00
  1.359365e+01    2.539051e+00
  1.360952e+01    2.505837e+00
  1.362540e+01    2.457822e+00
  1.364127e+01    2.441708e+00
  1.365715e+01    2.388092e+00
  1.367303e+01    2.369539e+00
  1.368890e+01    2.373112e+00
  1.370478e+01    2.291901e+00
  1.372065e+01    2.273061e+00
  1.373653e+01    2.257849e+00
  1.375240e+01    2.256793e+00
  1.376828e+01    2.232593e+00
  1.378415e+01    2.235493e+00
  1.380003e+01    2.206845e+00
  1.381591e+01    2.200762e+00
  1.383178e+01    2.201764e+00
  1.384766e+01    2.171520e+00
  1.386353e+01    2.147462e+00
  1.387941e+01    2.144590e+00
  1.389528e+01    2.173095e+00
  1.391116e+01    2.125081e+00
  1.392703e+01    2.156289e+00
  1.394291e+01    2.161217e+00
  1.395879e+01    2.108530e+00
  1.397466e+01    2.088524e+00
  1.399054e+01    2.139604e+00
  1.400641e+01    2.120630e+00
  1.402229e+01    2.096509e+00
  1.403816e+01    2.090454e+00
  1.405404e+01    2.097671e+00
  1.406991e+01    2.062336e+00
  1.408579e+01    2.062633e+00
  1.410167e+01    2.054127e+00
  1.411754e+01    2.051134e+00
  1.413342e+01    2.043625e+00
  1.414929e+01    2.047065e+00
  1.416517e+01    2.065847e+00
  1.418104e+01    2.054890e+00
  1.419692e+01    2.026714e+00
  1.421279e+01    2.042884e+00
  1.422867e+01    2.012237e+00
  1.424455e+01    2.007336e+00
  1.426042e+01    2.020243e+00
  1.427630e+01    2.031266e+00
  1.429217e+01    2.013526e+00
  1.430805e+01    2.006639e+00
  1.432392e+01    2.016722e+00
  1.433980e+01    2.009449e+00
  1.435568e+01    2.006678e+00
  1.437155e+01    1.946022e+00
  1.438743e+01    1.949415e+00
  1.440330e+01    1.948082e+00
  1.441918e+01    1.990029e+00
  1.443505e+01    2.000928e+00
  1.445093e+01    1.978258e+00
  1.446680e+01    1.961243e+00
  1.448268e+01    1.953782e+00
  1.449856e+01    1.956004e+00
  1.451443e+01    1.963246e+00
  1.453031e+01    1.971065e+00
  1.454618e+01    1.940765e+00
  1.456206e+01    1.915970e+00
  1.457793e+01    1.916869e+00
  1.459381e+01    1.928615e+00
  1.460968e+01    1.925018e+00
  1.462556e+01    1.929775e+00
  1.464144e+01    1.953484e+00
  1.465731e+01    1.988094e+00
  1.467319e+01    1.946678e+00
  1.468906e+01    1.905810e+00
  1.470494e+01    1.935774e+00
  1.472081e+01    1.910830e+00
  1.473669e+01    1.892747e+00
  1.475256e+01    1.922943e+00
  1.476844e+01    1.939912e+00
  1.478432e+01    1.957520e+00
  1.480019e+01    1.944612e+00
  1.481607e+01    1.971945e+00
  1.483194e+01    1.960256e+00
  1.484782e+01    1.939404e+00
  1.486369e+01    1.932117e+00
  1.487957e+01    1.951989e+00
  1.489544e+01    1.943169e+00
  1.491132e+01    1.966416e+00
  1.492720e+01    1.987823e+00
  1.494307e+01    2.029299e+00
  1.495895e+01    2.021655e+00
  1.497482e+01    2.037020e+00
  1.499070e+01    2.086325e+00
  1.500657e+01    2.146935e+00
  1.502245e+01    2.199004e+00
  1.503832e+01    2.277918e+00
  1.505420e+01    2.342285e+00
  1.507008e+01    2.442342e+00
  1.508595e+01    2.588848e+00
  1.510183e+01    2.753972e+00
  1.511770e+01    2.952143e+00
  1.513358e+01    3.175611e+00
  1.514945e+01    3.557616e+00
  1.516533e+01    3.883683e+00
  1.518120e+01    4.326562e+00
  1.519708e+01    4.876112e+00
  1.521296e+01    5.282185e+00
  1.522883e+01    5.644874e+00
  1.524471e+01    6.011422e+00
  1.526058e+01    6.296046e+00
  1.527646e+01    6.551544e+00
  1.529233e+01    6.676787e+00
  1.530821e+01    6.584790e+00
  1.532409e+01    6.300560e+00
  1.533996e+01    5.763005e+00
  1.535584e+01    5.046831e+00
  1.537171e+01    4.443940e+00
  1.538759e+01    3.906983e+00
  1.540346e+01    3.507367e+00
  1.541934e+01    3.135923e+00
  1.543521e+01    2.837690e+00
  1.545109e+01    2.623278e+00
  1.546697e+01    2.542456e+00
  1.548284e+01    2.396605e+00
  1.549872e+01    2.313260e+00
  1.551459e+01    2.213950e+00
  1.553047e+01    2.116226e+00
  1.554634e+01    2.063474e+00
  1.556222e+01    2.029683e+00
  1.557809e+01    2.003376e+00
  1.559397e+01    1.952484e+00
  1.560985e+01    1.905700e+00
  1.562572e+01    1.863065e+00
  1.564160e+01    1.815827e+00
  1.565747e+01    1.852171e+00
  1.567335e+01    1.859398e+00
  1.568922e+01    1.811527e+00
  1.570510e+01    1.789691e+00
  1.572097e+01    1.776912e+00
  1.573685e+01    1.752985e+00
  1.575273e+01    1.772676e+00
  1.576860e+01    1.763568e+00
  1.578448e+01    1.719899e+00
  1.580035e+01    1.736844e+00
  1.581623e+01    1.753443e+00
  1.583210e+01    1.708972e+00
  1.584798e+01    1.704236e+00
  1.586385e+01    1.674097e+00
  1.587973e+01    1.649020e+00
  1.589561e+01    1.654207e+00
  1.591148e+01    1.656681e+00
  1.592736e+01    1.678797e+00
  1.594323e+01    1.664717e+00
  1.595911e+01    1.628930e+00
  1.597498e+01    1.674916e+00
  1.599086e+01    1.662172e+00
  1.600673e+01    1.663030e+00
  1.602261e+01    1.639235e+00
  1.603849e+01    1.589923e+00
  1.605436e+01    1.618477e+00
  1.607024e+01    1.647615e+00
  1.608611e+01    1.619185e+00
  1.610199e+01    1.588327e+00
  1.611786e+01    1.615918e+00
  1.613374e+01    1.632578e+00
  1.614961e+01    1.605800e+00
  1.616549e+01    1.600042e+00
  1.618137e+01    1.612234e+00
  1.619724e+01    1.616080e+00
  1.621312e+01    1.599514e+00
  1.622899e+01    1.579170e+00
  1.624487e+01    1.574318e+00
  1.626074e+01    1.580762e+00
  1.627662e+01    1.579405e+00
  1.629250e+01    1.535216e+00
  1.630837e+01    1.574900e+00
  1.632425e+01    1.574403e+00
  1.634012e+01    1.550035e+00
  1.635600e+01    1.522210e+00
  1.637187e+01    1.559646e+00
  1.638775e+01    1.553602e+00
  1.640362e+01    1.520652e+00
  1.641950e+01    1.537894e+00
  1.643538e+01    1.539033e+00
  1.645125e+01    1.523367e+00
  1.646713e+01    1.534883e+00
  1.648300e+01    1.526119e+00
  1.649888e+01    1.552198e+00
  1.651475e+01    1.555099e+00
  1.653063e+01    1.522218e+00
  1.654650e+01    1.520554e+00
  1.656238e+01    1.512211e+00
  1.657826e+01    1.512398e+00
  1.659413e+01    1.512314e+00
  1.661001e+01    1.523962e+00
  1.662588e+01    1.519251e+00
  1.664176e+01    1.516885e+00
  1.665763e+01    1.504626e+00
  1.667351e+01    1.497903e+00
  1.668938e+01    1.508969e+00
  1.670526e+01    1.514499e+00
  1.672114e+01    1.539880e+00
  1.673701e+01    1.488776e+00
  1.675289e+01    1.448534e+00
  1.676876e+01    1.473772e+00
  1.678464e+01    1.451649e+00
  1.680051e+01    1.465103e+00
  1.681639e+01    1.486911e+00
  1.683226e+01    1.488545e+00
  1.684814e+01    1.476957e+00
  1.686402e+01    1.472065e+00
  1.687989e+01    1.505317e+00
  1.689577e+01    1.489342e+00
  1.691164e+01    1.457035e+00
  1.692752e+01    1.454620e+00
  1.694339e+01    1.469510e+00
  1.695927e+01    1.475680e+00
  1.697514e+01    1.484837e+00
  1.699102e+01    1.483062e+00
  1.700690e+01    1.437013e+00
  1.702277e+01    1.426422e+00
  1.703865e+01    1.455543e+00
  1.705452e+01    1.423834e+00
  1.707040e+01    1.416011e+00
  1.708627e+01    1.407583e+00
  1.710215e+01    1.420617e+00
  1.711802e+01    1.421617e+00
  1.713390e+01    1.410130e+00
  1.714978e+01    1.408796e+00
  1.716565e+01    1.437574e+00
  1.718153e+01    1.439428e+00
  1.719740e+01    1.405608e+00
  1.721328e+01    1.408445e+00
  1.722915e+01    1.415081e+00
  1.724503e+01    1.429823e+00
  1.726091e+01    1.431406e+00
  1.727678e+01    1.430055e+00
  1.729266e+01    1.432852e+00
  1.730853e+01    1.410765e+00
  1.732441e+01    1.399038e+00
  1.734028e+01    1.400654e+00
  1.735616e+01    1.379388e+00
  1.737203e+01    1.400197e+00
  1.738791e+01    1.389965e+00
  1.740379e+01    1.380512e+00
  1.741966e+01    1.377900e+00
  1.743554e+01    1.377333e+00
  1.745141e+01    1.385193e+00
  1.746729e+01    1.377014e+00
  1.748316e+01    1.358039e+00
  1.749904e+01    1.402348e+00
  1.751491e+01    1.406627e+00
  1.753079e+01    1.390861e+00
  1.754667e+01    1.361318e+00
  1.756254e+01    1.386614e+00
  1.757842e+01    1.397807e+00
  1.759429e+01    1.377888e+00
  1.761017e+01    1.343132e+00
  1.762604e+01    1.380864e+00
  1.764192e+01    1.405504e+00
  1.765779e+01    1.374981e+00
  1.767367e+01    1.377444e+00
  1.768955e+01    1.383334e+00
  1.770542e+01    1.376179e+00
  1.772130e+01    1.404768e+00
  1.773717e+01    1.374653e+00
  1.775305e+01    1.364547e+00
  1.776892e+01    1.349633e+00
  1.778480e+01    1.351076e+00
  1.780067e+01    1.331637e+00
  1.781655e+01    1.310741e+00
  1.783243e+01    1.342979e+00
  1.784830e+01    1.376976e+00
  1.786418e+01    1.349341e+00
  1.788005e+01    1.336900e+00
  1.789593e+01    1.314775e+00
  1.791180e+01    1.319086e+00
  1.792768e+01    1.339712e+00
  1.794355e+01    1.322729e+00
  1.795943e+01    1.333245e+00
  1.797531e+01    1.365828e+00
  1.799118e+01    1.341548e+00
  1.800706e+01    1.313052e+00
  1.802293e+01    1.326484e+00
  1.803881e+01    1.313291e+00
  1.805468e+01    1.314860e+00
  1.807056e+01    1.330698e+00
  1.808643e+01    1.341031e+00
  1.810231e+01    1.296179e+00
  1.811819e+01    1.298912e+00
  1.813406e+01    1.333354e+00
  1.814994e+01    1.327837e+00
  1.816581e+01    1.308967e+00
  1.818169e+01    1.288397e+00
  1.819756e+01    1.302281e+00
  1.821344e+01    1.286282e+00
  1.822932e+01    1.272069e+00
  1.824519e+01    1.305305e+00
  1.826107e+01    1.327527e+00
  1.827694e+01    1.308761e+00
  1.829282e+01    1.289724e+00
  1.830869e+01    1.281480e+00
  1.832457e+01    1.283311e+00
  1.834044e+01    1.266325e+00
  1.835632e+01    1.303306e+00
  1.837220e+01    1.304142e+00
  1.838807e+01    1.277544e+00
  1.840395e+01    1.259182e+00
  1.841982e+01    1.273698e+00
  1.843570e+01    1.283566e+00
  1.845157e+01    1.256266e+00
  1.846745e+01    1.311010e+00
  1.848332e+01    1.309801e+00
  1.849920e+01    1.276948e+00
  1.851508e+01    1.257199e+00
  1.853095e+01    1.250080e+00
  1.854683e+01    1.270242e+00
  1.856270e+01    1.265125e+00
  1.857858e+01    1.242359e+00
  1.859445e+01    1.269794e+00
  1.861033e+01    1.261813e+00
  1.862620e+01    1.254849e+00
  1.864208e+01    1.254428e+00
  1.865796e+01    1.279023e+00
  1.867383e+01    1.236305e+00
  1.868971e+01    1.253281e+00
  1.870558e+01    1.236118e+00
  1.872146e+01    1.238849e+00
  1.873733e+01    1.245674e+00
  1.875321e+01    1.220364e+00
  1.876908e+01    1.239145e+00
  1.878496e+01    1.248570e+00
  1.880084e+01    1.248722e+00
  1.881671e+01    1.270709e+00
  1.883259e+01    1.254718e+00
  1.884846e+01    1.220365e+00
  1.886434e+01    1.215679e+00
  1.888021e+01    1.215950e+00
  1.889609e+01    1.248311e+00
  1.891196e+01    1.226440e+00
  1.892784e+01    1.214151e+00
  1.894372e+01    1.242276e+00
  1.895959e+01    1.242090e+00
  1.897547e+01    1.225234e+00
  1.899134e+01    1.231773e+00
  1.900722e+01    1.219657e+00
  1.902309e+01    1.200112e+00
  1.903897e+01    1.201926e+00
  1.905484e+01    1.213126e+00
  1.907072e+01    1.235079e+00
  1.908660e+01    1.239783e+00
  1.910247e+01    1.212566e+00
  1.911835e+01    1.208770e+00
  1.913422e+01    1.203421e+00
  1.915010e+01    1.216708e+00
  1.916597e+01    1.189318e+00
  1.918185e+01    1.186505e+00
  1.919773e+01    1.210286e+00
  1.921360e+01    1.195273e+00
  1.922948e+01    1.169733e+00
  1.924535e+01    1.207878e+00
  1.926123e+01    1.219736e+00
  1.927710e+01    1.205752e+00
  1.929298e+01    1.185483e+00
  1.930885e+01    1.194613e+00
  1.932473e+01    1.193561e+00
  1.934061e+01    1.175400e+00
  1.935648e+01    1.191504e+00
  1.937236e+01    1.239710e+00
  1.938823e+01    1.206005e+00
  1.940411e+01    1.189087e+00
  1.941998e+01    1.173045e+00
  1.943586e+01    1.181002e+00
  1.945173e+01    1.166088e+00
  1.946761e+01    1.183749e+00
  1.948349e+01    1.207211e+00
  1.949936e+01    1.190925e+00
  1.951524e+01    1.162123e+00
  1.953111e+01    1.180865e+00
  1.954699e+01    1.184971e+00
  1.956286e+01    1.176573e+00
  1.957874e+01    1.185937e+00
  1.959461e+01    1.158524e+00
  1.961049e+01    1.180095e+00
  1.962637e+01    1.166821e+00
  1.964224e+01    1.160968e+00
  1.965812e+01    1.173635e+00
  1.967399e+01    1.181200e+00
  1.968987e+01    1.147356e+00
  1.970574e+01    1.173767e+00
  1.972162e+01    1.175502e+00
  1.973749e+01    1.147389e+00
  1.975337e+01    1.131526e+00
  1.976925e+01    1.157854e+00
  1.978512e+01    1.155657e+00
  1.980100e+01    1.148813e+00
  1.981687e+01    1.151594e+00
  1.983275e+01    1.155331e+00
  1.984862e+01    1.141076e+00
  1.986450e+01    1.157979e+00
  1.988037e+01    1.146324e+00
  1.989625e+01    1.150115e+00
  1.991213e+01    1.144210e+00
  1.992800e+01    1.128499e+00
  1.994388e+01    1.135609e+00
  1.995975e+01    1.116008e+00
  1.997563e+01    1.129390e+00
  1.999150e+01    1.139111e+00
  2.000738e+01    1.128670e+00
  2.002325e+01    1.146124e+00
  2.003913e+01    1.148335e+00
  2.005501e+01    1.123144e+00
  2.007088e+01    1.128307e+00
  2.008676e+01    1.140823e+00
  2.010263e+01    1.124497e+00
  2.011851e+01    1.138108e+00
  2.013438e+01    1.116436e+00
  2.015026e+01    1.127774e+00
  2.016614e+01    1.121420e+00
  2.018201e+01    1.086544e+00
  2.019789e+01    1.111870e+00
  2.021376e+01    1.130790e+00
  2.022964e+01    1.116509e+00
  2.024551e+01    1.102216e+00
  2.026139e+01    1.114380e+00
  2.027726e+01    1.109465e+00
  2.029314e+01    1.113382e+00
  2.030902e+01    1.125412e+00
  2.032489e+01    1.131253e+00
  2.034077e+01    1.118847e+00
  2.035664e+01    1.157291e+00
  2.037252e+01    1.120764e+00
  2.038839e+01    1.086647e+00
  2.040427e+01    1.115384e+00
  2.042014e+01    1.129591e+00
  2.043602e+01    1.125490e+00
  2.045190e+01    1.150626e+00
  2.046777e+01    1.105980e+00
  2.048365e+01    1.109228e+00
  2.049952e+01    1.090868e+00
  2.051540e+01    1.100266e+00
  2.053127e+01    1.109860e+00
  2.054715e+01    1.095020e+00
  2.056302e+01    1.104398e+00
  2.057890e+01    1.101183e+00
  2.059478e+01    1.081755e+00
  2.061065e+01    1.073126e+00
  2.062653e+01    1.089675e+00
  2.064240e+01    1.097642e+00
  2.065828e+01    1.093746e+00
  2.067415e+01    1.105252e+00
  2.069003e+01    1.105381e+00
  2.070590e+01    1.128634e+00
  2.072178e+01    1.100793e+00
  2.073766e+01    1.096724e+00
  2.075353e+01    1.106325e+00
  2.076941e+01    1.107429e+00
  2.078528e+01    1.087819e+00
  2.080116e+01    1.075760e+00
  2.081703e+01    1.103998e+00
  2.083291e+01    1.099552e+00
  2.084878e+01    1.089157e+00
  2.086466e+01    1.100689e+00
  2.088054e+01    1.105561e+00
  2.089641e+01    1.112512e+00
  2.091229e+01    1.098966e+00
  2.092816e+01    1.110877e+00
  2.094404e+01    1.098879e+00
  2.095991e+01    1.069840e+00
  2.097579e+01    1.088215e+00
  2.099166e+01    1.100854e+00
  2.100754e+01    1.082865e+00
  2.102342e+01    1.084687e+00
  2.103929e+01    1.094769e+00
  2.105517e+01    1.118052e+00
  2.107104e+01    1.110783e+00
  2.108692e+01    1.083109e+00
  2.110279e+01    1.093602e+00
  2.111867e+01    1.113908e+00
  2.113455e+01    1.101701e+00
  2.115042e+01    1.121518e+00
  2.116630e+01    1.108288e+00
  2.118217e+01    1.138116e+00
  2.119805e+01    1.134166e+00
  2.121392e+01    1.118614e+00
  2.122980e+01    1.125674e+00
  2.124567e+01    1.129191e+00
  2.126155e+01    1.134203e+00
  2.127743e+01    1.134053e+00
  2.129330e+01    1.149713e+00
  2.130918e+01    1.156931e+00
  2.132505e+01    1.134107e+00
  2.134093e+01    1.141511e+00
  2.135680e+01    1.157920e+00
  2.137268e+01    1.163496e+00
  2.138855e+01    1.157973e+00
  2.140443e+01    1.182362e+00
  2.142031e+01    1.225071e+00
  2.143618e+01    1.220297e+00
  2.145206e+01    1.238168e+00
  2.146793e+01    1.250351e+00
  2.148381e+01    1.246566e+00
  2.149968e+01    1.249135e+00
  2.151556e+01    1.276934e+00
  2.153143e+01    1.327283e+00
  2.154731e+01    1.391433e+00
  2.156319e+01    1.429644e+00
  2.157906e+01    1.451110e+00
  2.159494e+01    1.481096e+00
  2.161081e+01    1.544273e+00
  2.162669e+01    1.612524e+00
  2.164256e+01    1.707537e+00
  2.165844e+01    1.819303e+00
  2.167431e+01    1.948826e+00
  2.169019e+01    2.077082e+00
  2.170607e+01    2.279385e+00
  2.172194e+01    2.535121e+00
  2.173782e+01    2.819141e+00
  2.175369e+01    3.151878e+00
  2.176957e+01    3.621186e+00
  2.178544e+01    4.136837e+00
  2.180132e+01    4.793278e+00
  2.181719e+01    5.495331e+00
  2.183307e+01    6.260042e+00
  2.184895e+01    7.102898e+00
  2.186482e+01    8.028594e+00
  2.188070e+01    8.885738e+00
  2.189657e+01    9.770151e+00
  2.191245e+01    1.051997e+01
  2.192832e+01    1.098285e+01
  2.194420e+01    1.096589e+01
  2.196007e+01    1.055769e+01
  2.197595e+01    9.654389e+00
  2.199183e+01    8.599469e+00
  2.200770e+01    7.346041e+00
  2.202358e+01    6.164164e+00
  2.203945e+01    5.226064e+00
  2.205533e+01    4.469634e+00
  2.207120e+01    3.868428e+00
  2.208708e+01    3.368825e+00
  2.210296e+01    2.943391e+00
  2.211883e+01    2.646181e+00
  2.213471e+01    2.329764e+00
  2.215058e+01    2.138392e+00
  2.216646e+01    1.982765e+00
  2.218233e+01    1.878445e+00
  2.219821e+01    1.744131e+00
  2.221408e+01    1.642556e+00
  2.222996e+01    1.555534e+00
  2.224584e+01    1.493513e+00
  2.226171e+01    1.419181e+00
  2.227759e+01    1.353426e+00
  2.229346e+01    1.339880e+00
  2.230934e+01    1.305882e+00
  2.232521e+01    1.265275e+00
  2.234109e+01    1.221073e+00
  2.235696e+01    1.197157e+00
  2.237284e+01    1.170138e+00
  2.238872e+01    1.156369e+00
  2.240459e+01    1.146390e+00
  2.242047e+01    1.153741e+00
  2.243634e+01    1.116939e+00
  2.245222e+01    1.117782e+00
  2.246809e+01    1.091910e+00
  2.248397e+01    1.061284e+00
  2.249984e+01    1.091318e+00
  2.251572e+01    1.075757e+00
  2.253160e+01    1.067311e+00
  2.254747e+01    1.064284e+00
  2.256335e+01    1.046532e+00
  2.257922e+01    1.009261e+00
  2.259510e+01    1.012353e+00
  2.261097e+01    1.012907e+00
  2.262685e+01    1.022734e+00
  2.264272e+01    1.006306e+00
  2.265860e+01    1.018950e+00
  2.267448e+01    9.872820e-01
  2.269035e+01    1.002316e+00
  2.270623e+01    9.840032e-01
  2.272210e+01    9.573835e-01
  2.273798e+01    9.679903e-01
  2.275385e+01    9.801497e-01
  2.276973e+01    9.675149e-01
  2.278560e+01    9.763275e-01
  2.280148e+01    9.742034e-01
  2.281736e+01    9.497073e-01
  2.283323e+01    9.503710e-01
  2.284911e+01    9.223518e-01
  2.286498e+01    9.585863e-01
  2.288086e+01    9.465200e-01
  2.289673e+01    9.358633e-01
  2.291261e+01    9.344960e-01
  2.292848e+01    9.383407e-01
  2.294436e+01    9.312237e-01
  2.296024e+01    9.299479e-01
  2.297611e+01    9.011986e-01
  2.299199e+01    9.074458e-01
  2.300786e+01    9.148648e-01
  2.302374e+01    9.134119e-01
  2.303961e+01    9.212447e-01
  2.305549e+01    9.072509e-01
  2.307137e+01    9.051029e-01
  2.308724e+01    9.058639e-01
  2.310312e+01    8.994371e-01
  2.311899e+01    8.866207e-01
  2.313487e+01    9.087099e-01
  2.315074e+01    9.079670e-01
  2.316662e+01    8.915841e-01
  2.318249e+01    9.017019e-01
  2.319837e+01    8.964019e-01
  2.321425e+01    8.790830e-01
  2.323012e+01    8.867412e-01
  2.324600e+01    8.929617e-01
  2.326187e+01    8.748493e-01
  2.327775e+01    8.739666e-01
  2.329362e+01    8.723775e-01
  2.330950e+01    8.915251e-01
  2.332537e+01    8.912169e-01
  2.334125e+01    8.931531e-01
  2.335713e+01    8.745872e-01
  2.337300e+01    8.753492e-01
  2.338888e+01    8.986301e-01
  2.340475e+01    8.943582e-01
  2.342063e+01    8.821824e-01
  2.343650e+01    8.582986e-01
  2.345238e+01    8.588899e-01
  2.346825e+01    8.669457e-01
  2.348413e+01    8.677716e-01
  2.350001e+01    8.575894e-01
  2.351588e+01    8.523020e-01
  2.353176e+01    8.629441e-01
  2.354763e+01    8.545324e-01
  2.356351e+01    8.599564e-01
  2.357938e+01    8.614426e-01
  2.359526e+01    8.506338e-01
  2.361113e+01    8.492180e-01
  2.362701e+01    8.449311e-01
  2.364289e+01    8.427755e-01
  2.365876e+01    8.402588e-01
  2.367464e+01    8.346021e-01
  2.369051e+01    8.600951e-01
  2.370639e+01    8.532712e-01
  2.372226e+01    8.189977e-01
  2.373814e+01    8.250636e-01
  2.375401e+01    8.266174e-01
  2.376989e+01    8.294576e-01
  2.378577e+01    8.223209e-01
  2.380164e+01    8.209959e-01
  2.381752e+01    8.240962e-01
  2.383339e+01    8.226129e-01
  2.384927e+01    8.314982e-01
  2.386514e+01    8.252669e-01
  2.388102e+01    8.125399e-01
  2.389689e+01    8.320314e-01
  2.391277e+01    8.405140e-01
  2.392865e+01    8.386370e-01
  2.394452e+01    8.284181e-01
  2.396040e+01    8.093359e-01
  2.397627e+01    8.170547e-01
  2.399215e+01    7.979020e-01
  2.400802e+01    7.971427e-01
  2.402390e+01    8.060258e-01
  2.403978e+01    7.920237e-01
  2.405565e+01    7.961846e-01
  2.407153e+01    8.169677e-01
  2.408740e+01    8.155968e-01
  2.410328e+01    7.875044e-01
  2.411915e+01    8.094854e-01
  2.413503e+01    7.988911e-01
  2.415090e+01    7.924355e-01
  2.416678e+01    8.008736e-01
  2.418266e+01    7.972930e-01
  2.419853e+01    7.955771e-01
  2.421441e+01    7.863863e-01
  2.423028e+01    7.874024e-01
  2.424616e+01    7.891403e-01
  2.426203e+01    7.753467e-01
  2.427791e+01    7.958070e-01
  2.429378e+01    8.056336e-01
  2.430966e+01    8.148818e-01
  2.432554e+01    8.161901e-01
  2.434141e+01    8.153455e-01
  2.435729e+01    8.230221e-01
  2.437316e+01    8.011491e-01
  2.438904e+01    7.839991e-01
  2.440491e+01    8.059216e-01
  2.442079e+01    8.013594e-01
  2.443666e+01    8.080392e-01
  2.445254e+01    8.096123e-01
  2.446842e+01    8.095546e-01
  2.448429e+01    8.148589e-01
  2.450017e+01    8.120884e-01
  2.451604e+01    8.122044e-01
  2.453192e+01    8.145947e-01
  2.454779e+01    8.039984e-01
  2.456367e+01    8.006907e-01
  2.457954e+01    7.965714e-01
  2.459542e+01    8.158508e-01
  2.461130e+01    7.958579e-01
  2.462717e+01    8.025730e-01
  2.464305e+01    8.070872e-01
  2.465892e+01    8.037606e-01
  2.467480e+01    7.903996e-01
  2.469067e+01    8.072742e-01
  2.470655e+01    7.885373e-01
  2.472242e+01    7.868360e-01
  2.473830e+01    8.045695e-01
  2.475418e+01    7.914964e-01
  2.477005e+01    7.990852e-01
  2.478593e+01    8.200167e-01
  2.480180e+01    8.084773e-01
  2.481768e+01    7.947996e-01
  2.483355e+01    7.912036e-01
  2.484943e+01    7.907395e-01
  2.486530e+01    8.043135e-01
  2.488118e+01    7.933106e-01
  2.489706e+01    8.112695e-01
  2.491293e+01    8.457937e-01
  2.492881e+01    8.239112e-01
  2.494468e+01    8.148704e-01
  2.496056e+01    8.142757e-01
  2.497643e+01    8.065459e-01
  2.499231e+01    8.064802e-01
  2.500819e+01    7.984787e-01
  2.502406e+01    7.875655e-01
  2.503994e+01    8.063797e-01
  2.505581e+01    8.205792e-01
  2.507169e+01    8.271544e-01
  2.508756e+01    8.186449e-01
  2.510344e+01    8.199896e-01
  2.511931e+01    8.232223e-01
  2.513519e+01    8.385134e-01
  2.515107e+01    8.211600e-01
  2.516694e+01    8.461710e-01
  2.518282e+01    8.658778e-01
  2.519869e+01    8.585770e-01
  2.521457e+01    8.465941e-01
  2.523044e+01    8.602216e-01
  2.524632e+01    8.520622e-01
  2.526219e+01    8.527972e-01
  2.527807e+01    8.563448e-01
  2.529395e+01    8.549559e-01
  2.530982e+01    8.601431e-01
  2.532570e+01    8.994436e-01
  2.534157e+01    8.997147e-01
  2.535745e+01    9.045870e-01
  2.537332e+01    8.956816e-01
  2.538920e+01    9.038255e-01
  2.540507e+01    9.221568e-01
  2.542095e+01    9.318211e-01
  2.543683e+01    9.510550e-01
  2.545270e+01    9.691900e-01
  2.546858e+01    9.660914e-01
  2.548445e+01    9.634005e-01
  2.550033e+01    1.000305e+00
  2.551620e+01    1.030351e+00
  2.553208e+01    1.003031e+00
  2.554795e+01    1.007359e+00
  2.556383e+01    1.034584e+00
  2.557971e+01    1.057139e+00
  2.559558e+01    1.092269e+00
  2.561146e+01    1.130095e+00
  2.562733e+01    1.151494e+00
  2.564321e+01    1.198697e+00
  2.565908e+01    1.233521e+00
  2.567496e+01    1.276571e+00
  2.569083e+01    1.330767e+00
  2.570671e+01    1.371568e+00
  2.572259e+01    1.436762e+00
  2.573846e+01    1.532815e+00
  2.575434e+01    1.660653e+00
  2.577021e+01    1.800827e+00
  2.578609e+01    1.965629e+00
  2.580196e+01    2.207209e+00
  2.581784e+01    2.418459e+00
  2.583371e+01    2.727374e+00
  2.584959e+01    3.101935e+00
  2.586547e+01    3.553342e+00
  2.588134e+01    4.119893e+00
  2.589722e+01    4.757775e+00
  2.591309e+01    5.416594e+00
  2.592897e+01    6.217268e+00
  2.594484e+01    7.078361e+00
  2.596072e+01    7.811595e+00
  2.597660e+01    8.468185e+00
  2.599247e+01    8.909951e+00
  2.600835e+01    9.119144e+00
  2.602422e+01    8.957556e+00
  2.604010e+01    8.497541e+00
  2.605597e+01    7.704165e+00
  2.607185e+01    6.831825e+00
  2.608772e+01    5.838510e+00
  2.610360e+01    4.960849e+00
  2.611948e+01    4.231972e+00
  2.613535e+01    3.638362e+00
  2.615123e+01    3.159624e+00
  2.616710e+01    2.749221e+00
  2.618298e+01    2.453795e+00
  2.619885e+01    2.217314e+00
  2.621473e+01    2.024350e+00
  2.623060e+01    1.854358e+00
  2.624648e+01    1.698756e+00
  2.626236e+01    1.603367e+00
  2.627823e+01    1.502110e+00
  2.629411e+01    1.424541e+00
  2.630998e+01    1.359318e+00
  2.632586e+01    1.298156e+00
  2.634173e+01    1.259455e+00
  2.635761e+01    1.183226e+00
  2.637348e+01    1.172104e+00
  2.638936e+01    1.144364e+00
  2.640524e+01    1.109217e+00
  2.642111e+01    1.093588e+00
  2.643699e+01    1.081971e+00
  2.645286e+01    1.050384e+00
  2.646874e+01    1.030636e+00
  2.648461e+01    1.019421e+00
  2.650049e+01    1.002468e+00
  2.651636e+01    9.967468e-01
  2.653224e+01    9.945357e-01
  2.654812e+01    9.902114e-01
  2.656399e+01    9.825179e-01
  2.657987e+01    9.775691e-01
  2.659574e+01    9.646414e-01
  2.661162e+01    9.382780e-01
  2.662749e+01    9.220668e-01
  2.664337e+01    9.322179e-01
  2.665924e+01    9.137979e-01
  2.667512e+01    9.293844e-01
  2.669100e+01    9.457082e-01
  2.670687e+01    9.328558e-01
  2.672275e+01    9.376339e-01
  2.673862e+01    9.377624e-01
  2.675450e+01    9.439780e-01
  2.677037e+01    9.241517e-01
  2.678625e+01    9.037048e-01
  2.680212e+01    9.161826e-01
  2.681800e+01    9.017671e-01
  2.683388e+01    9.185004e-01
  2.684975e+01    9.212378e-01
  2.686563e+01    9.117897e-01
  2.688150e+01    9.332028e-01
  2.689738e+01    9.528196e-01
  2.691325e+01    9.535522e-01
  2.692913e+01    9.630602e-01
  2.694501e+01    9.555916e-01
  2.696088e+01    9.589056e-01
  2.697676e+01    9.770965e-01
  2.699263e+01    1.000596e+00
  2.700851e+01    1.000700e+00
  2.702438e+01    1.016527e+00
  2.704026e+01    1.030143e+00
  2.705613e+01    1.066069e+00
  2.707201e+01    1.146543e+00
  2.708789e+01    1.209253e+00
  2.710376e+01    1.274047e+00
  2.711964e+01    1.346059e+00
  2.713551e+01    1.450267e+00
  2.715139e+01    1.590116e+00
  2.716726e+01    1.712222e+00
  2.718314e+01    1.846811e+00
  2.719901e+01    2.044568e+00
  2.721489e+01    2.197194e+00
  2.723077e+01    2.378631e+00
  2.724664e+01    2.534748e+00
  2.726252e+01    2.615400e+00
  2.727839e+01    2.609850e+00
  2.729427e+01    2.548844e+00
  2.731014e+01    2.399184e+00
  2.732602e+01    2.206850e+00
  2.734189e+01    2.014501e+00
  2.735777e+01    1.845805e+00
  2.737365e+01    1.676280e+00
  2.738952e+01    1.516435e+00
  2.740540e+01    1.398381e+00
  2.742127e+01    1.275132e+00
  2.743715e+01    1.229758e+00
  2.745302e+01    1.165070e+00
  2.746890e+01    1.120936e+00
  2.748477e+01    1.071783e+00
  2.750065e+01    1.040391e+00
  2.751653e+01    1.011165e+00
  2.753240e+01    9.824596e-01
  2.754828e+01    9.660929e-01
  2.756415e+01    9.472061e-01
  2.758003e+01    9.132276e-01
  2.759590e+01    9.179351e-01
  2.761178e+01    9.020235e-01
  2.762765e+01    8.983828e-01
  2.764353e+01    8.784871e-01
  2.765941e+01    8.598477e-01
  2.767528e+01    8.643210e-01
  2.769116e+01    8.533362e-01
  2.770703e+01    8.515911e-01
  2.772291e+01    8.616491e-01
  2.773878e+01    8.726566e-01
  2.775466e+01    8.611199e-01
  2.777054e+01    8.336188e-01
  2.778641e+01    8.233105e-01
  2.780229e+01    8.513749e-01
  2.781816e+01    8.475940e-01
  2.783404e+01    8.411060e-01
  2.784991e+01    8.214018e-01
  2.786579e+01    8.127388e-01
  2.788166e+01    8.249788e-01
  2.789754e+01    8.309271e-01
  2.791342e+01    8.341334e-01
  2.792929e+01    8.133706e-01
  2.794517e+01    8.130484e-01
  2.796104e+01    8.172354e-01
  2.797692e+01    8.214104e-01
  2.799279e+01    8.190457e-01
  2.800867e+01    7.936855e-01
  2.802454e+01    7.793925e-01
  2.804042e+01    7.930411e-01
  2.805630e+01    7.865812e-01
  2.807217e+01    7.939308e-01
  2.808805e+01    8.162728e-01
  2.810392e+01    8.184671e-01
  2.811980e+01    8.009736e-01
  2.813567e+01    8.064633e-01
  2.815155e+01    8.297642e-01
  2.816742e+01    7.894454e-01
  2.818330e+01    7.907214e-01
  2.819918e+01    7.870538e-01
  2.821505e+01    7.969670e-01
  2.823093e+01    8.002303e-01
  2.824680e+01    7.875243e-01
  2.826268e+01    7.940189e-01
  2.827855e+01    8.013237e-01
  2.829443e+01    7.908928e-01
  2.831030e+01    7.788491e-01
  2.832618e+01    7.839075e-01
  2.834206e+01    7.881479e-01
  2.835793e+01    7.890443e-01
  2.837381e+01    7.881299e-01
  2.838968e+01    7.876872e-01
  2.840556e+01    7.956129e-01
  2.842143e+01    7.902939e-01
  2.843731e+01    7.835288e-01
  2.845318e+01    7.637712e-01
  2.846906e+01    7.826173e-01
  2.848494e+01    7.761313e-01
  2.850081e+01    7.615159e-01
  2.851669e+01    7.781792e-01
  2.853256e+01    7.897602e-01
  2.854844e+01    7.650598e-01
  2.856431e+01    7.734540e-01
  2.858019e+01    7.816096e-01
  2.859606e+01    7.804455e-01
  2.861194e+01    7.644109e-01
  2.862782e+01    7.730574e-01
  2.864369e+01    7.780895e-01
  2.865957e+01    7.767702e-01
  2.867544e+01    7.578577e-01
  2.869132e+01    7.522151e-01
  2.870719e+01    7.713090e-01
  2.872307e+01    7.828841e-01
  2.873895e+01    7.870234e-01
  2.875482e+01    7.768376e-01
  2.877070e+01    7.744156e-01
  2.878657e+01    7.784087e-01
  2.880245e+01    7.611135e-01
  2.881832e+01    7.454591e-01
  2.883420e+01    7.643721e-01
  2.885007e+01    7.731889e-01
  2.886595e+01    7.738857e-01
  2.888183e+01    7.653211e-01
  2.889770e+01    7.547127e-01
  2.891358e+01    7.386190e-01
  2.892945e+01    7.509983e-01
  2.894533e+01    7.466969e-01
  2.896120e+01    7.194052e-01
  2.897708e+01    7.350197e-01
  2.899295e+01    7.606298e-01
  2.900883e+01    7.319978e-01
  2.902471e+01    7.458662e-01
  2.904058e+01    7.504114e-01
  2.905646e+01    7.514978e-01
  2.907233e+01    7.456404e-01
  2.908821e+01    7.569765e-01
  2.910408e+01    7.465391e-01
  2.911996e+01    7.586787e-01
  2.913583e+01    7.529484e-01
  2.915171e+01    7.621431e-01
  2.916759e+01    7.544956e-01
  2.918346e+01    7.621092e-01
  2.919934e+01    7.573577e-01
  2.921521e+01    7.421822e-01
  2.923109e+01    7.535477e-01
  2.924696e+01    7.490297e-01
  2.926284e+01    7.372305e-01
  2.927871e+01    7.539649e-01
  2.929459e+01    7.688631e-01
  2.931047e+01    7.578158e-01
  2.932634e+01    7.506684e-01
  2.934222e+01    7.302061e-01
  2.935809e+01    7.427525e-01
  2.937397e+01    7.739422e-01
  2.938984e+01    7.630195e-01
  2.940572e+01    7.323766e-01
  2.942159e+01    7.553271e-01
  2.943747e+01    7.465129e-01
  2.945335e+01    7.279113e-01
  2.946922e+01    7.559736e-01
  2.948510e+01    7.452037e-01
  2.950097e+01    7.642436e-01
  2.951685e+01    7.464378e-01
  2.953272e+01    7.283922e-01
  2.954860e+01    7.228180e-01
  2.956447e+01    7.184056e-01
  2.958035e+01    7.220625e-01
  2.959623e+01    7.311702e-01
  2.961210e+01    7.320742e-01
  2.962798e+01    7.356094e-01
  2.964385e+01    7.319429e-01
  2.965973e+01    7.321617e-01
  2.967560e+01    7.326121e-01
  2.969148e+01    7.199682e-01
  2.970736e+01    7.371088e-01
  2.972323e+01    7.306659e-01
  2.973911e+01    7.413496e-01
  2.975498e+01    7.388197e-01
  2.977086e+01    7.481002e-01
  2.978673e+01    7.328924e-01
  2.980261e+01    7.246727e-01
  2.981848e+01    7.357457e-01
  2.983436e+01    7.436284e-01
  2.985024e+01    7.310460e-01
  2.986611e+01    7.383783e-01
  2.988199e+01    7.528518e-01
  2.989786e+01    7.516754e-01
  2.991374e+01    7.095024e-01
  2.992961e+01    7.148688e-01
  2.994549e+01    7.358172e-01
  2.996136e+01    7.589051e-01
  2.997724e+01    7.376927e-01
  2.999312e+01    7.229107e-01
  3.000899e+01    7.441359e-01
  3.002487e+01    7.303312e-01
  3.004074e+01    7.250071e-01
  3.005662e+01    7.381763e-01
  3.007249e+01    7.748889e-01
  3.008837e+01    7.449390e-01
  3.010424e+01    7.330269e-01
  3.012012e+01    7.504364e-01
  3.013600e+01    7.459769e-01
  3.015187e+01    7.357811e-01
  3.016775e+01    7.249650e-01
  3.018362e+01    7.499540e-01
  3.019950e+01    7.321622e-01
  3.021537e+01    7.477453e-01
  3.023125e+01    7.227022e-01
  3.024712e+01    7.154322e-01
  3.026300e+01    7.253640e-01
  3.027888e+01    7.212124e-01
  3.029475e+01    7.173811e-01
  3.031063e+01    7.274967e-01
  3.032650e+01    7.337379e-01
  3.034238e+01    7.506106e-01
  3.035825e+01    7.413514e-01
  3.037413e+01    7.094745e-01
  3.039000e+01    7.055715e-01
  3.040588e+01    7.044092e-01
  3.042176e+01    7.247528e-01
  3.043763e+01    7.465996e-01
  3.045351e+01    7.295425e-01
  3.046938e+01    7.146924e-01
  3.048526e+01    7.116414e-01
  3.050113e+01    7.215901e-01
  3.051701e+01    7.115973e-01
  3.053288e+01    7.098116e-01
  3.054876e+01    7.078362e-01
  3.056464e+01    7.069492e-01
  3.058051e+01    6.998425e-01
  3.059639e+01    7.196944e-01
  3.061226e+01    7.281669e-01
  3.062814e+01    7.216321e-01
  3.064401e+01    7.272000e-01
  3.065989e+01    7.376650e-01
  3.067577e+01    7.523896e-01
  3.069164e+01    7.405024e-01
  3.070752e+01    7.349928e-01
  3.072339e+01    7.438609e-01
  3.073927e+01    7.437818e-01
  3.075514e+01    7.377853e-01
  3.077102e+01    7.397719e-01
  3.078689e+01    7.183850e-01
  3.080277e+01    7.245139e-01
  3.081865e+01    7.283853e-01
  3.083452e+01    7.308330e-01
  3.085040e+01    7.285757e-01
  3.086627e+01    7.211189e-01
  3.088215e+01    7.300053e-01
  3.089802e+01    7.263901e-01
  3.091390e+01    7.254072e-01
  3.092977e+01    7.235111e-01
  3.094565e+01    7.264104e-01
  3.096153e+01    7.353438e-01
  3.097740e+01    7.311072e-01
  3.099328e+01    7.203295e-01
  3.100915e+01    7.086714e-01
  3.102503e+01    7.276644e-01
  3.104090e+01    7.215304e-01
  3.105678e+01    7.227965e-01
  3.107265e+01    7.289117e-01
  3.108853e+01    7.409459e-01
  3.110441e+01    7.432340e-01
  3.112028e+01    7.501935e-01
  3.113616e+01    7.367569e-01
  3.115203e+01    7.263723e-01
  3.116791e+01    7.210267e-01
  3.118378e+01    7.595409e-01
  3.119966e+01    7.331842e-01
  3.121553e+01    7.491524e-01
  3.123141e+01    7.498388e-01
  3.124729e+01    7.477276e-01
  3.126316e+01    7.502071e-01
  3.127904e+01    7.469312e-01
  3.129491e+01    7.561150e-01
  3.131079e+01    7.508861e-01
  3.132666e+01    7.560034e-01
  3.134254e+01    7.568802e-01
  3.135841e+01    7.385573e-01
  3.137429e+01    7.408349e-01
  3.139017e+01    7.641705e-01
  3.140604e+01    7.490551e-01
  3.142192e+01    7.457747e-01
  3.143779e+01    7.710120e-01
  3.145367e+01    7.548662e-01
  3.146954e+01    7.600023e-01
  3.148542e+01    7.717698e-01
  3.150129e+01    7.690005e-01
  3.151717e+01    7.920588e-01
  3.153305e+01    7.906056e-01
  3.154892e+01    7.828239e-01
  3.156480e+01    7.688187e-01
  3.158067e+01    7.906325e-01
  3.159655e+01    8.084235e-01
  3.161242e+01    8.007472e-01
  3.162830e+01    8.088750e-01
  3.164418e+01    8.296623e-01
  3.166005e+01    8.527219e-01
  3.167593e+01    8.714167e-01
  3.169180e+01    8.897831e-01
  3.170768e+01    9.156542e-01
  3.172355e+01    9.334185e-01
  3.173943e+01    9.494059e-01
  3.175530e+01    1.012485e+00
  3.177118e+01    1.050428e+00
  3.178706e+01    1.107279e+00
  3.180293e+01    1.196498e+00
  3.181881e+01    1.279331e+00
  3.183468e+01    1.371085e+00
  3.185056e+01    1.495115e+00
  3.186643e+01    1.666697e+00
  3.188231e+01    1.843100e+00
  3.189818e+01    1.999309e+00
  3.191406e+01    2.186646e+00
  3.192994e+01    2.383378e+00
  3.194581e+01    2.514271e+00
  3.196169e+01    2.576739e+00
  3.197756e+01    2.603134e+00
  3.199344e+01    2.532623e+00
  3.200931e+01    2.329907e+00
  3.202519e+01    2.186201e+00
  3.204106e+01    1.994149e+00
  3.205694e+01    1.781999e+00
  3.207282e+01    1.578728e+00
  3.208869e+01    1.430756e+00
  3.210457e+01    1.309994e+00
  3.212044e+01    1.195724e+00
  3.213632e+01    1.137650e+00
  3.215219e+01    1.085921e+00
  3.216807e+01    1.029224e+00
  3.218394e+01    9.905283e-01
  3.219982e+01    9.327404e-01
  3.221570e+01    9.104259e-01
  3.223157e+01    9.018031e-01
  3.224745e+01    9.036257e-01
  3.226332e+01    8.869028e-01
  3.227920e+01    8.439944e-01
  3.229507e+01    8.363502e-01
  3.231095e+01    8.298336e-01
  3.232682e+01    8.063566e-01
  3.234270e+01    7.923179e-01
  3.235858e+01    8.070176e-01
  3.237445e+01    7.731838e-01
  3.239033e+01    7.629809e-01
  3.240620e+01    7.693244e-01
  3.242208e+01    7.649649e-01
  3.243795e+01    7.717019e-01
  3.245383e+01    7.719833e-01
  3.246970e+01    7.571461e-01
  3.248558e+01    7.573879e-01
  3.250146e+01    7.605031e-01
  3.251733e+01    7.701564e-01
  3.253321e+01    7.529939e-01
  3.254908e+01    7.438735e-01
