# == pyFAI calibration ==
# Distance Sample to Detector: 0.3999999939076516 m
# PONI: 9.750e-02, 1.135e-01 m
# Rotations: -0.000175 0.000000 -0.000000 rad
# 
# == Fit2d calibration ==
# Distance Sample-beamCenter: 400.000 mm
# Center: x=1514.000, y=1300.000 pix
# Tilt: 0.010 deg  TiltPlanRot: 0.010 deg
# 
# Detector Detector	 Spline= None	 PixelSize= 7.500e-05, 7.500e-05 m
#    Detector has a mask: False 
#    Detector has a dark current: False 
#    detector has a flat field: False 
# 
# Wavelength: 6.888e-11 m
# Mask applied: user provided
# Dark current applied: False
# Flat field applied: False
# Polarization factor: 0.99
# Normalization factor: 1.0
# --> /home/myspot/data/2024_07_Rosario/Ru-CGO-ex/2024-07-27_002_Ru-CGO-ex_Activtation_ramp_000002_data_000061.dat
#       q_nm^-1             I 
  2.003187e-02    1.424646e-01
  3.590745e-02    0.000000e+00
  5.178302e-02    7.387542e-02
  6.765859e-02    2.649334e-01
  8.353417e-02    2.062235e-01
  9.940974e-02    4.493613e-02
  1.152853e-01    6.296851e-02
  1.311609e-01    3.842907e-02
  1.470365e-01    3.294456e-02
  1.629120e-01    3.823922e-03
  1.787876e-01    4.115042e-02
  1.946632e-01    7.414132e-02
  2.105388e-01    2.949855e-02
  2.264143e-01    3.446884e-02
  2.422899e-01    5.119044e-02
  2.581655e-01    6.813399e-02
  2.740411e-01    4.738483e-02
  2.899166e-01    1.060359e-02
  3.057922e-01    4.426270e-02
  3.216678e-01    4.340934e-02
  3.375433e-01    1.329707e-02
  3.534189e-01    6.969986e-03
  3.692945e-01    2.386931e-02
  3.851701e-01    2.546268e-02
  4.010456e-01    4.262448e-02
  4.169212e-01    6.209803e-02
  4.327968e-01    4.816232e-02
  4.486724e-01    4.463529e-02
  4.645479e-01    2.509265e-02
  4.804235e-01    2.824882e-02
  4.962991e-01    3.698023e-02
  5.121747e-01    3.913388e-02
  5.280502e-01    3.948625e-02
  5.439258e-01    2.671749e-02
  5.598014e-01    4.469080e-02
  5.756770e-01    3.396600e-02
  5.915525e-01    5.465811e-02
  6.074281e-01    6.304624e-02
  6.233037e-01    5.032938e-02
  6.391793e-01    3.398417e-02
  6.550548e-01    2.027744e-02
  6.709304e-01    3.277187e-02
  6.868060e-01    3.676494e-02
  7.026815e-01    3.062106e-02
  7.185571e-01    4.621714e-02
  7.344327e-01    5.375670e-02
  7.503083e-01    5.201344e-02
  7.661838e-01    5.798651e-02
  7.820594e-01    1.182898e-01
  7.979350e-01    1.590118e-01
  8.138106e-01    2.374845e-01
  8.296861e-01    2.920056e-01
  8.455617e-01    3.309049e-01
  8.614373e-01    4.085523e-01
  8.773129e-01    4.114679e-01
  8.931884e-01    5.016626e-01
  9.090640e-01    6.797996e-01
  9.249396e-01    6.595379e-01
  9.408152e-01    7.045339e-01
  9.566907e-01    8.897702e-01
  9.725663e-01    8.673649e-01
  9.884419e-01    8.994845e-01
  1.004317e+00    1.040712e+00
  1.020193e+00    1.046479e+00
  1.036069e+00    1.134720e+00
  1.051944e+00    1.290086e+00
  1.067820e+00    1.197898e+00
  1.083695e+00    1.280131e+00
  1.099571e+00    1.248088e+00
  1.115446e+00    1.282954e+00
  1.131322e+00    1.414783e+00
  1.147198e+00    1.356544e+00
  1.163073e+00    1.381721e+00
  1.178949e+00    1.444641e+00
  1.194824e+00    1.657400e+00
  1.210700e+00    1.855746e+00
  1.226575e+00    2.099954e+00
  1.242451e+00    2.236193e+00
  1.258327e+00    2.317838e+00
  1.274202e+00    2.410237e+00
  1.290078e+00    2.521282e+00
  1.305953e+00    2.609996e+00
  1.321829e+00    2.497138e+00
  1.337705e+00    2.533095e+00
  1.353580e+00    2.641690e+00
  1.369456e+00    2.620188e+00
  1.385331e+00    2.628943e+00
  1.401207e+00    2.626584e+00
  1.417082e+00    2.703817e+00
  1.432958e+00    2.680560e+00
  1.448834e+00    2.750688e+00
  1.464709e+00    2.811392e+00
  1.480585e+00    2.811163e+00
  1.496460e+00    2.942400e+00
  1.512336e+00    2.976592e+00
  1.528211e+00    2.940895e+00
  1.544087e+00    3.105392e+00
  1.559963e+00    3.121408e+00
  1.575838e+00    2.887446e+00
  1.591714e+00    2.875082e+00
  1.607589e+00    2.984965e+00
  1.623465e+00    2.965138e+00
  1.639340e+00    2.856552e+00
  1.655216e+00    2.937828e+00
  1.671092e+00    2.928607e+00
  1.686967e+00    2.836378e+00
  1.702843e+00    2.810605e+00
  1.718718e+00    2.860090e+00
  1.734594e+00    2.877135e+00
  1.750469e+00    2.826005e+00
  1.766345e+00    2.843419e+00
  1.782221e+00    2.815706e+00
  1.798096e+00    2.685167e+00
  1.813972e+00    2.829258e+00
  1.829847e+00    2.999416e+00
  1.845723e+00    2.978501e+00
  1.861598e+00    2.932090e+00
  1.877474e+00    2.804456e+00
  1.893350e+00    2.736133e+00
  1.909225e+00    2.777318e+00
  1.925101e+00    2.804493e+00
  1.940976e+00    2.846324e+00
  1.956852e+00    2.885783e+00
  1.972727e+00    2.809755e+00
  1.988603e+00    2.879501e+00
  2.004479e+00    2.854551e+00
  2.020354e+00    2.818372e+00
  2.036230e+00    2.701486e+00
  2.052105e+00    2.692456e+00
  2.067981e+00    2.724301e+00
  2.083856e+00    2.820772e+00
  2.099732e+00    2.751666e+00
  2.115608e+00    2.649347e+00
  2.131483e+00    2.732123e+00
  2.147359e+00    2.700083e+00
  2.163234e+00    2.760814e+00
  2.179110e+00    2.841556e+00
  2.194985e+00    2.822251e+00
  2.210861e+00    2.789871e+00
  2.226737e+00    2.762608e+00
  2.242612e+00    2.717723e+00
  2.258488e+00    2.619511e+00
  2.274363e+00    2.647200e+00
  2.290239e+00    2.719058e+00
  2.306115e+00    2.830154e+00
  2.321990e+00    2.805429e+00
  2.337866e+00    2.777718e+00
  2.353741e+00    2.792618e+00
  2.369617e+00    2.722370e+00
  2.385492e+00    2.860176e+00
  2.401368e+00    2.773439e+00
  2.417244e+00    2.736811e+00
  2.433119e+00    2.744741e+00
  2.448995e+00    2.840737e+00
  2.464870e+00    2.870906e+00
  2.480746e+00    2.820773e+00
  2.496621e+00    2.777806e+00
  2.512497e+00    2.806663e+00
  2.528373e+00    2.805529e+00
  2.544248e+00    2.788933e+00
  2.560124e+00    2.810375e+00
  2.575999e+00    2.748084e+00
  2.591875e+00    2.690109e+00
  2.607750e+00    2.638804e+00
  2.623626e+00    2.751730e+00
  2.639502e+00    2.731716e+00
  2.655377e+00    2.783154e+00
  2.671253e+00    2.815944e+00
  2.687128e+00    2.788224e+00
  2.703004e+00    2.731162e+00
  2.718879e+00    2.810533e+00
  2.734755e+00    2.832965e+00
  2.750631e+00    2.825801e+00
  2.766506e+00    2.851716e+00
  2.782382e+00    2.885622e+00
  2.798257e+00    2.881884e+00
  2.814133e+00    2.806373e+00
  2.830008e+00    2.800630e+00
  2.845884e+00    2.929243e+00
  2.861760e+00    2.998626e+00
  2.877635e+00    2.932765e+00
  2.893511e+00    2.849635e+00
  2.909386e+00    2.867732e+00
  2.925262e+00    2.884984e+00
  2.941137e+00    2.892809e+00
  2.957013e+00    2.864733e+00
  2.972889e+00    2.850496e+00
  2.988764e+00    2.847492e+00
  3.004640e+00    2.824767e+00
  3.020515e+00    2.851264e+00
  3.036391e+00    2.920207e+00
  3.052266e+00    2.978403e+00
  3.068142e+00    2.918383e+00
  3.084018e+00    2.855128e+00
  3.099893e+00    2.952580e+00
  3.115769e+00    2.929474e+00
  3.131644e+00    2.938807e+00
  3.147520e+00    2.893858e+00
  3.163395e+00    2.879438e+00
  3.179271e+00    2.904543e+00
  3.195147e+00    2.967987e+00
  3.211022e+00    2.996221e+00
  3.226898e+00    2.944599e+00
  3.242773e+00    2.925412e+00
  3.258649e+00    2.936270e+00
  3.274525e+00    2.972986e+00
  3.290400e+00    2.923099e+00
  3.306276e+00    2.917284e+00
  3.322151e+00    2.888753e+00
  3.338027e+00    2.941306e+00
  3.353902e+00    2.965171e+00
  3.369778e+00    3.035385e+00
  3.385654e+00    3.004585e+00
  3.401529e+00    2.889896e+00
  3.417405e+00    3.046785e+00
  3.433280e+00    3.075009e+00
  3.449156e+00    3.092574e+00
  3.465031e+00    3.060424e+00
  3.480907e+00    2.967542e+00
  3.496783e+00    2.998964e+00
  3.512658e+00    2.983155e+00
  3.528534e+00    3.022880e+00
  3.544409e+00    3.024670e+00
  3.560285e+00    2.946278e+00
  3.576160e+00    3.054002e+00
  3.592036e+00    2.947908e+00
  3.607912e+00    2.996313e+00
  3.623787e+00    3.076922e+00
  3.639663e+00    3.042566e+00
  3.655538e+00    2.973608e+00
  3.671414e+00    2.969282e+00
  3.687289e+00    3.012817e+00
  3.703165e+00    2.967553e+00
  3.719041e+00    2.900439e+00
  3.734916e+00    2.898331e+00
  3.750792e+00    3.011614e+00
  3.766667e+00    3.085320e+00
  3.782543e+00    3.081336e+00
  3.798418e+00    2.986958e+00
  3.814294e+00    2.988656e+00
  3.830170e+00    2.953851e+00
  3.846045e+00    2.950230e+00
  3.861921e+00    2.969454e+00
  3.877796e+00    2.984512e+00
  3.893672e+00    3.095292e+00
  3.909547e+00    3.058531e+00
  3.925423e+00    3.009314e+00
  3.941299e+00    2.972965e+00
  3.957174e+00    3.009658e+00
  3.973050e+00    3.095899e+00
  3.988925e+00    3.028003e+00
  4.004801e+00    3.022584e+00
  4.020676e+00    2.982570e+00
  4.036552e+00    3.023556e+00
  4.052428e+00    3.054326e+00
  4.068303e+00    2.994715e+00
  4.084179e+00    2.938926e+00
  4.100054e+00    3.027917e+00
  4.115930e+00    2.991791e+00
  4.131806e+00    3.025696e+00
  4.147681e+00    3.035717e+00
  4.163557e+00    3.080955e+00
  4.179432e+00    3.078215e+00
  4.195308e+00    2.944260e+00
  4.211183e+00    3.008372e+00
  4.227059e+00    3.076711e+00
  4.242935e+00    3.051329e+00
  4.258810e+00    3.063070e+00
  4.274686e+00    3.157627e+00
  4.290561e+00    3.121823e+00
  4.306437e+00    3.082444e+00
  4.322312e+00    3.075814e+00
  4.338188e+00    3.043703e+00
  4.354064e+00    2.987214e+00
  4.369939e+00    2.913903e+00
  4.385815e+00    3.005660e+00
  4.401690e+00    3.083495e+00
  4.417566e+00    3.103745e+00
  4.433441e+00    3.117293e+00
  4.449317e+00    3.131391e+00
  4.465193e+00    3.069466e+00
  4.481068e+00    3.103373e+00
  4.496944e+00    3.100717e+00
  4.512819e+00    3.028670e+00
  4.528695e+00    2.992694e+00
  4.544570e+00    3.067386e+00
  4.560446e+00    3.013220e+00
  4.576322e+00    3.066782e+00
  4.592197e+00    3.120469e+00
  4.608073e+00    3.097116e+00
  4.623948e+00    3.036761e+00
  4.639824e+00    3.082765e+00
  4.655699e+00    3.084097e+00
  4.671575e+00    3.093293e+00
  4.687451e+00    3.063682e+00
  4.703326e+00    3.102246e+00
  4.719202e+00    3.138770e+00
  4.735077e+00    3.091212e+00
  4.750953e+00    3.117255e+00
  4.766828e+00    3.045928e+00
  4.782704e+00    3.031787e+00
  4.798580e+00    3.146479e+00
  4.814455e+00    3.158567e+00
  4.830331e+00    3.207672e+00
  4.846206e+00    3.116567e+00
  4.862082e+00    3.050871e+00
  4.877957e+00    3.086905e+00
  4.893833e+00    3.109646e+00
  4.909709e+00    3.146176e+00
  4.925584e+00    3.161830e+00
  4.941460e+00    3.141618e+00
  4.957335e+00    3.078666e+00
  4.973211e+00    3.092890e+00
  4.989086e+00    3.121949e+00
  5.004962e+00    3.064881e+00
  5.020838e+00    3.064727e+00
  5.036713e+00    3.077669e+00
  5.052589e+00    3.086434e+00
  5.068464e+00    3.126066e+00
  5.084340e+00    3.170048e+00
  5.100216e+00    3.184891e+00
  5.116091e+00    3.208876e+00
  5.131967e+00    3.168081e+00
  5.147842e+00    3.078834e+00
  5.163718e+00    3.076663e+00
  5.179593e+00    3.121419e+00
  5.195469e+00    3.064324e+00
  5.211345e+00    3.151080e+00
  5.227220e+00    3.113318e+00
  5.243096e+00    3.130832e+00
  5.258971e+00    3.146860e+00
  5.274847e+00    3.114631e+00
  5.290722e+00    3.077995e+00
  5.306598e+00    3.116117e+00
  5.322474e+00    3.174410e+00
  5.338349e+00    3.149993e+00
  5.354225e+00    3.132905e+00
  5.370100e+00    3.168062e+00
  5.385976e+00    3.200824e+00
  5.401851e+00    3.163022e+00
  5.417727e+00    3.049600e+00
  5.433603e+00    3.113350e+00
  5.449478e+00    3.104892e+00
  5.465354e+00    3.081587e+00
  5.481229e+00    3.085072e+00
  5.497105e+00    3.065261e+00
  5.512980e+00    3.118260e+00
  5.528856e+00    3.138449e+00
  5.544732e+00    3.081053e+00
  5.560607e+00    3.108363e+00
  5.576483e+00    3.100540e+00
  5.592358e+00    3.078978e+00
  5.608234e+00    3.083212e+00
  5.624109e+00    3.082264e+00
  5.639985e+00    3.011172e+00
  5.655861e+00    3.029528e+00
  5.671736e+00    3.086535e+00
  5.687612e+00    3.054489e+00
  5.703487e+00    3.076899e+00
  5.719363e+00    3.027778e+00
  5.735238e+00    3.025519e+00
  5.751114e+00    3.026083e+00
  5.766990e+00    3.059399e+00
  5.782865e+00    3.041527e+00
  5.798741e+00    3.066843e+00
  5.814616e+00    3.037642e+00
  5.830492e+00    2.982798e+00
  5.846367e+00    2.996922e+00
  5.862243e+00    3.025057e+00
  5.878119e+00    3.067374e+00
  5.893994e+00    3.054980e+00
  5.909870e+00    3.084826e+00
  5.925745e+00    3.114728e+00
  5.941621e+00    3.068194e+00
  5.957497e+00    3.012477e+00
  5.973372e+00    2.966750e+00
  5.989248e+00    2.999688e+00
  6.005123e+00    3.067601e+00
  6.020999e+00    3.093927e+00
  6.036874e+00    3.065817e+00
  6.052750e+00    3.037579e+00
  6.068626e+00    3.076028e+00
  6.084501e+00    3.135180e+00
  6.100377e+00    3.111607e+00
  6.116252e+00    3.076442e+00
  6.132128e+00    3.121207e+00
  6.148003e+00    3.112335e+00
  6.163879e+00    3.084695e+00
  6.179755e+00    3.051781e+00
  6.195630e+00    3.110023e+00
  6.211506e+00    3.102055e+00
  6.227381e+00    3.089794e+00
  6.243257e+00    3.037404e+00
  6.259132e+00    3.042729e+00
  6.275008e+00    3.023712e+00
  6.290884e+00    3.024644e+00
  6.306759e+00    3.069291e+00
  6.322635e+00    3.078178e+00
  6.338510e+00    3.069407e+00
  6.354386e+00    3.032423e+00
  6.370261e+00    3.035728e+00
  6.386137e+00    3.040812e+00
  6.402013e+00    3.047573e+00
  6.417888e+00    3.054944e+00
  6.433764e+00    3.097306e+00
  6.449639e+00    3.087228e+00
  6.465515e+00    3.108247e+00
  6.481390e+00    3.039375e+00
  6.497266e+00    3.060642e+00
  6.513142e+00    3.044258e+00
  6.529017e+00    3.129631e+00
  6.544893e+00    3.065011e+00
  6.560768e+00    2.983916e+00
  6.576644e+00    2.940230e+00
  6.592519e+00    3.024238e+00
  6.608395e+00    3.052660e+00
  6.624271e+00    3.066558e+00
  6.640146e+00    3.002130e+00
  6.656022e+00    3.057603e+00
  6.671897e+00    3.017268e+00
  6.687773e+00    2.976223e+00
  6.703648e+00    2.929362e+00
  6.719524e+00    2.959610e+00
  6.735400e+00    2.995962e+00
  6.751275e+00    2.988538e+00
  6.767151e+00    3.107963e+00
  6.783026e+00    3.066447e+00
  6.798902e+00    3.037283e+00
  6.814777e+00    2.972169e+00
  6.830653e+00    2.965498e+00
  6.846529e+00    3.030388e+00
  6.862404e+00    2.952300e+00
  6.878280e+00    3.022482e+00
  6.894155e+00    3.015222e+00
  6.910031e+00    2.935746e+00
  6.925907e+00    3.001522e+00
  6.941782e+00    3.017973e+00
  6.957658e+00    3.037681e+00
  6.973533e+00    3.033549e+00
  6.989409e+00    3.023027e+00
  7.005284e+00    3.047967e+00
  7.021160e+00    3.025867e+00
  7.037036e+00    3.046244e+00
  7.052911e+00    3.049754e+00
  7.068787e+00    2.987500e+00
  7.084662e+00    2.945591e+00
  7.100538e+00    3.015887e+00
  7.116413e+00    3.085409e+00
  7.132289e+00    3.041950e+00
  7.148165e+00    3.039008e+00
  7.164040e+00    2.972621e+00
  7.179916e+00    3.016511e+00
  7.195791e+00    3.055682e+00
  7.211667e+00    3.061939e+00
  7.227542e+00    3.036425e+00
  7.243418e+00    2.986986e+00
  7.259294e+00    2.969242e+00
  7.275169e+00    2.991475e+00
  7.291045e+00    3.036252e+00
  7.306920e+00    3.047312e+00
  7.322796e+00    2.959880e+00
  7.338671e+00    3.012055e+00
  7.354547e+00    3.042532e+00
  7.370423e+00    3.058259e+00
  7.386298e+00    2.995343e+00
  7.402174e+00    2.996683e+00
  7.418049e+00    3.009279e+00
  7.433925e+00    2.983711e+00
  7.449800e+00    2.979138e+00
  7.465676e+00    2.946916e+00
  7.481552e+00    3.007500e+00
  7.497427e+00    2.999524e+00
  7.513303e+00    3.023404e+00
  7.529178e+00    2.971177e+00
  7.545054e+00    2.943594e+00
  7.560929e+00    2.940542e+00
  7.576805e+00    2.974587e+00
  7.592681e+00    2.971441e+00
  7.608556e+00    2.955313e+00
  7.624432e+00    2.963324e+00
  7.640307e+00    2.957254e+00
  7.656183e+00    2.930745e+00
  7.672058e+00    2.949898e+00
  7.687934e+00    2.935001e+00
  7.703810e+00    2.954920e+00
  7.719685e+00    2.964266e+00
  7.735561e+00    2.922069e+00
  7.751436e+00    2.866017e+00
  7.767312e+00    2.927889e+00
  7.783187e+00    2.987134e+00
  7.799063e+00    2.974315e+00
  7.814939e+00    2.917941e+00
  7.830814e+00    2.924242e+00
  7.846690e+00    2.894370e+00
  7.862565e+00    2.899538e+00
  7.878441e+00    2.865405e+00
  7.894317e+00    2.827629e+00
  7.910192e+00    2.885395e+00
  7.926068e+00    2.906837e+00
  7.941943e+00    2.856288e+00
  7.957819e+00    2.878302e+00
  7.973694e+00    2.918708e+00
  7.989570e+00    2.890474e+00
  8.005446e+00    2.884108e+00
  8.021321e+00    2.911998e+00
  8.037197e+00    2.898574e+00
  8.053072e+00    2.912390e+00
  8.068948e+00    2.923546e+00
  8.084823e+00    2.961514e+00
  8.100699e+00    2.991502e+00
  8.116575e+00    3.006772e+00
  8.132450e+00    2.962151e+00
  8.148326e+00    2.975816e+00
  8.164201e+00    2.941035e+00
  8.180077e+00    2.889833e+00
  8.195952e+00    2.900706e+00
  8.211828e+00    2.946968e+00
  8.227704e+00    2.941813e+00
  8.243579e+00    2.919739e+00
  8.259455e+00    2.946139e+00
  8.275330e+00    2.941874e+00
  8.291206e+00    2.896370e+00
  8.307081e+00    2.895077e+00
  8.322957e+00    2.890977e+00
  8.338833e+00    2.863033e+00
  8.354708e+00    2.894997e+00
  8.370584e+00    2.909229e+00
  8.386459e+00    2.935128e+00
  8.402335e+00    2.952763e+00
  8.418210e+00    2.922100e+00
  8.434086e+00    2.922673e+00
  8.449962e+00    2.897773e+00
  8.465837e+00    2.856308e+00
  8.481713e+00    2.883232e+00
  8.497588e+00    2.852810e+00
  8.513464e+00    2.860821e+00
  8.529339e+00    2.963994e+00
  8.545215e+00    2.881586e+00
  8.561091e+00    2.889936e+00
  8.576966e+00    2.882743e+00
  8.592842e+00    2.862820e+00
  8.608717e+00    2.857249e+00
  8.624593e+00    2.858473e+00
  8.640468e+00    2.903986e+00
  8.656344e+00    2.887612e+00
  8.672220e+00    2.874844e+00
  8.688095e+00    2.848635e+00
  8.703971e+00    2.870811e+00
  8.719846e+00    2.842938e+00
  8.735722e+00    2.814929e+00
  8.751598e+00    2.849203e+00
  8.767473e+00    2.842344e+00
  8.783349e+00    2.820745e+00
  8.799224e+00    2.836028e+00
  8.815100e+00    2.829721e+00
  8.830975e+00    2.887783e+00
  8.846851e+00    2.902499e+00
  8.862727e+00    2.834795e+00
  8.878602e+00    2.862931e+00
  8.894478e+00    2.862559e+00
  8.910353e+00    2.832258e+00
  8.926229e+00    2.853033e+00
  8.942104e+00    2.810111e+00
  8.957980e+00    2.797501e+00
  8.973856e+00    2.825876e+00
  8.989731e+00    2.852980e+00
  9.005607e+00    2.805444e+00
  9.021482e+00    2.842809e+00
  9.037358e+00    2.805632e+00
  9.053233e+00    2.843189e+00
  9.069109e+00    2.826416e+00
  9.084985e+00    2.796035e+00
  9.100860e+00    2.819675e+00
  9.116736e+00    2.865692e+00
  9.132611e+00    2.833904e+00
  9.148487e+00    2.828552e+00
  9.164362e+00    2.730522e+00
  9.180238e+00    2.705321e+00
  9.196114e+00    2.751751e+00
  9.211989e+00    2.799884e+00
  9.227865e+00    2.855185e+00
  9.243740e+00    2.790380e+00
  9.259616e+00    2.762599e+00
  9.275491e+00    2.736453e+00
  9.291367e+00    2.746651e+00
  9.307243e+00    2.741731e+00
  9.323118e+00    2.738885e+00
  9.338994e+00    2.789554e+00
  9.354869e+00    2.780655e+00
  9.370745e+00    2.758485e+00
  9.386620e+00    2.747052e+00
  9.402496e+00    2.758320e+00
  9.418372e+00    2.755286e+00
  9.434247e+00    2.758585e+00
  9.450123e+00    2.797384e+00
  9.465998e+00    2.801059e+00
  9.481874e+00    2.807833e+00
  9.497749e+00    2.764204e+00
  9.513625e+00    2.763410e+00
  9.529501e+00    2.734141e+00
  9.545376e+00    2.750383e+00
  9.561252e+00    2.720708e+00
  9.577127e+00    2.761728e+00
  9.593003e+00    2.769213e+00
  9.608878e+00    2.751866e+00
  9.624754e+00    2.710924e+00
  9.640630e+00    2.693937e+00
  9.656505e+00    2.742611e+00
  9.672381e+00    2.787835e+00
  9.688256e+00    2.688474e+00
  9.704132e+00    2.686329e+00
  9.720008e+00    2.746328e+00
  9.735883e+00    2.753491e+00
  9.751759e+00    2.744737e+00
  9.767634e+00    2.731028e+00
  9.783510e+00    2.743150e+00
  9.799385e+00    2.720659e+00
  9.815261e+00    2.737417e+00
  9.831137e+00    2.737068e+00
  9.847012e+00    2.782800e+00
  9.862888e+00    2.716702e+00
  9.878763e+00    2.679457e+00
  9.894639e+00    2.715938e+00
  9.910514e+00    2.685956e+00
  9.926390e+00    2.661108e+00
  9.942266e+00    2.697870e+00
  9.958141e+00    2.709470e+00
  9.974017e+00    2.713286e+00
  9.989892e+00    2.673499e+00
  1.000577e+01    2.707463e+00
  1.002164e+01    2.721948e+00
  1.003752e+01    2.712350e+00
  1.005339e+01    2.658783e+00
  1.006927e+01    2.655188e+00
  1.008515e+01    2.680668e+00
  1.010102e+01    2.687653e+00
  1.011690e+01    2.677506e+00
  1.013277e+01    2.631372e+00
  1.014865e+01    2.627320e+00
  1.016452e+01    2.651546e+00
  1.018040e+01    2.646832e+00
  1.019627e+01    2.609928e+00
  1.021215e+01    2.661712e+00
  1.022803e+01    2.632774e+00
  1.024390e+01    2.611262e+00
  1.025978e+01    2.591768e+00
  1.027565e+01    2.568013e+00
  1.029153e+01    2.574582e+00
  1.030740e+01    2.604467e+00
  1.032328e+01    2.651611e+00
  1.033915e+01    2.599582e+00
  1.035503e+01    2.605942e+00
  1.037091e+01    2.647787e+00
  1.038678e+01    2.635533e+00
  1.040266e+01    2.625108e+00
  1.041853e+01    2.629938e+00
  1.043441e+01    2.591258e+00
  1.045028e+01    2.589430e+00
  1.046616e+01    2.595103e+00
  1.048204e+01    2.591325e+00
  1.049791e+01    2.636148e+00
  1.051379e+01    2.574520e+00
  1.052966e+01    2.554931e+00
  1.054554e+01    2.620417e+00
  1.056141e+01    2.676973e+00
  1.057729e+01    2.606685e+00
  1.059316e+01    2.520762e+00
  1.060904e+01    2.585322e+00
  1.062492e+01    2.512662e+00
  1.064079e+01    2.529193e+00
  1.065667e+01    2.575423e+00
  1.067254e+01    2.611957e+00
  1.068842e+01    2.612844e+00
  1.070429e+01    2.585959e+00
  1.072017e+01    2.565727e+00
  1.073604e+01    2.561481e+00
  1.075192e+01    2.577128e+00
  1.076780e+01    2.579462e+00
  1.078367e+01    2.546932e+00
  1.079955e+01    2.573998e+00
  1.081542e+01    2.559169e+00
  1.083130e+01    2.499770e+00
  1.084717e+01    2.539870e+00
  1.086305e+01    2.560043e+00
  1.087892e+01    2.531269e+00
  1.089480e+01    2.552969e+00
  1.091068e+01    2.533935e+00
  1.092655e+01    2.548204e+00
  1.094243e+01    2.521479e+00
  1.095830e+01    2.472931e+00
  1.097418e+01    2.496256e+00
  1.099005e+01    2.459233e+00
  1.100593e+01    2.492235e+00
  1.102180e+01    2.529857e+00
  1.103768e+01    2.484908e+00
  1.105356e+01    2.467871e+00
  1.106943e+01    2.477904e+00
  1.108531e+01    2.525976e+00
  1.110118e+01    2.510772e+00
  1.111706e+01    2.526795e+00
  1.113293e+01    2.506188e+00
  1.114881e+01    2.474765e+00
  1.116468e+01    2.462973e+00
  1.118056e+01    2.444741e+00
  1.119644e+01    2.434131e+00
  1.121231e+01    2.458025e+00
  1.122819e+01    2.445574e+00
  1.124406e+01    2.427579e+00
  1.125994e+01    2.479554e+00
  1.127581e+01    2.427146e+00
  1.129169e+01    2.487029e+00
  1.130756e+01    2.448895e+00
  1.132344e+01    2.467207e+00
  1.133932e+01    2.459420e+00
  1.135519e+01    2.453049e+00
  1.137107e+01    2.493141e+00
  1.138694e+01    2.424870e+00
  1.140282e+01    2.414092e+00
  1.141869e+01    2.435513e+00
  1.143457e+01    2.396250e+00
  1.145045e+01    2.377805e+00
  1.146632e+01    2.428136e+00
  1.148220e+01    2.463942e+00
  1.149807e+01    2.411660e+00
  1.151395e+01    2.391858e+00
  1.152982e+01    2.433466e+00
  1.154570e+01    2.376506e+00
  1.156157e+01    2.415238e+00
  1.157745e+01    2.403884e+00
  1.159333e+01    2.370764e+00
  1.160920e+01    2.368283e+00
  1.162508e+01    2.375409e+00
  1.164095e+01    2.417003e+00
  1.165683e+01    2.435354e+00
  1.167270e+01    2.415927e+00
  1.168858e+01    2.399481e+00
  1.170445e+01    2.388587e+00
  1.172033e+01    2.408376e+00
  1.173621e+01    2.390620e+00
  1.175208e+01    2.342474e+00
  1.176796e+01    2.389015e+00
  1.178383e+01    2.404485e+00
  1.179971e+01    2.366996e+00
  1.181558e+01    2.364543e+00
  1.183146e+01    2.350497e+00
  1.184733e+01    2.397433e+00
  1.186321e+01    2.387563e+00
  1.187909e+01    2.341770e+00
  1.189496e+01    2.390428e+00
  1.191084e+01    2.378417e+00
  1.192671e+01    2.354892e+00
  1.194259e+01    2.319843e+00
  1.195846e+01    2.310678e+00
  1.197434e+01    2.337783e+00
  1.199021e+01    2.310983e+00
  1.200609e+01    2.314816e+00
  1.202197e+01    2.280765e+00
  1.203784e+01    2.306756e+00
  1.205372e+01    2.308074e+00
  1.206959e+01    2.315269e+00
  1.208547e+01    2.308773e+00
  1.210134e+01    2.321501e+00
  1.211722e+01    2.341284e+00
  1.213309e+01    2.357159e+00
  1.214897e+01    2.334292e+00
  1.216485e+01    2.339899e+00
  1.218072e+01    2.390461e+00
  1.219660e+01    2.295300e+00
  1.221247e+01    2.286944e+00
  1.222835e+01    2.308754e+00
  1.224422e+01    2.309543e+00
  1.226010e+01    2.311713e+00
  1.227597e+01    2.330056e+00
  1.229185e+01    2.364712e+00
  1.230773e+01    2.298821e+00
  1.232360e+01    2.296126e+00
  1.233948e+01    2.286422e+00
  1.235535e+01    2.284033e+00
  1.237123e+01    2.330412e+00
  1.238710e+01    2.332073e+00
  1.240298e+01    2.346672e+00
  1.241886e+01    2.342050e+00
  1.243473e+01    2.351440e+00
  1.245061e+01    2.365680e+00
  1.246648e+01    2.345754e+00
  1.248236e+01    2.362091e+00
  1.249823e+01    2.379617e+00
  1.251411e+01    2.374852e+00
  1.252998e+01    2.451330e+00
  1.254586e+01    2.401151e+00
  1.256174e+01    2.354199e+00
  1.257761e+01    2.360271e+00
  1.259349e+01    2.409228e+00
  1.260936e+01    2.407022e+00
  1.262524e+01    2.389594e+00
  1.264111e+01    2.399229e+00
  1.265699e+01    2.452356e+00
  1.267286e+01    2.473337e+00
  1.268874e+01    2.494838e+00
  1.270462e+01    2.439294e+00
  1.272049e+01    2.508503e+00
  1.273637e+01    2.534738e+00
  1.275224e+01    2.529903e+00
  1.276812e+01    2.625354e+00
  1.278399e+01    2.696657e+00
  1.279987e+01    2.660919e+00
  1.281574e+01    2.700081e+00
  1.283162e+01    2.737800e+00
  1.284750e+01    2.812260e+00
  1.286337e+01    2.934428e+00
  1.287925e+01    3.013043e+00
  1.289512e+01    3.153543e+00
  1.291100e+01    3.326595e+00
  1.292687e+01    3.462575e+00
  1.294275e+01    3.710201e+00
  1.295862e+01    4.000119e+00
  1.297450e+01    4.304005e+00
  1.299038e+01    4.763977e+00
  1.300625e+01    5.281817e+00
  1.302213e+01    5.952124e+00
  1.303800e+01    6.813116e+00
  1.305388e+01    7.986386e+00
  1.306975e+01    9.243119e+00
  1.308563e+01    1.067896e+01
  1.310150e+01    1.209768e+01
  1.311738e+01    1.356595e+01
  1.313326e+01    1.494066e+01
  1.314913e+01    1.624820e+01
  1.316501e+01    1.760055e+01
  1.318088e+01    1.867416e+01
  1.319676e+01    1.892394e+01
  1.321263e+01    1.830634e+01
  1.322851e+01    1.678848e+01
  1.324438e+01    1.471692e+01
  1.326026e+01    1.246048e+01
  1.327614e+01    1.035652e+01
  1.329201e+01    8.704375e+00
  1.330789e+01    7.455577e+00
  1.332376e+01    6.361726e+00
  1.333964e+01    5.541719e+00
  1.335551e+01    4.998722e+00
  1.337139e+01    4.548724e+00
  1.338727e+01    4.154352e+00
  1.340314e+01    3.813999e+00
  1.341902e+01    3.546264e+00
  1.343489e+01    3.379378e+00
  1.345077e+01    3.204991e+00
  1.346664e+01    3.031977e+00
  1.348252e+01    2.895635e+00
  1.349839e+01    2.795928e+00
  1.351427e+01    2.688876e+00
  1.353015e+01    2.711915e+00
  1.354602e+01    2.658054e+00
  1.356190e+01    2.592098e+00
  1.357777e+01    2.521222e+00
  1.359365e+01    2.457851e+00
  1.360952e+01    2.430293e+00
  1.362540e+01    2.421578e+00
  1.364127e+01    2.399899e+00
  1.365715e+01    2.366651e+00
  1.367303e+01    2.368104e+00
  1.368890e+01    2.276306e+00
  1.370478e+01    2.271166e+00
  1.372065e+01    2.269678e+00
  1.373653e+01    2.221102e+00
  1.375240e+01    2.182080e+00
  1.376828e+01    2.218564e+00
  1.378415e+01    2.215987e+00
  1.380003e+01    2.193342e+00
  1.381591e+01    2.144500e+00
  1.383178e+01    2.151858e+00
  1.384766e+01    2.169348e+00
  1.386353e+01    2.197793e+00
  1.387941e+01    2.153619e+00
  1.389528e+01    2.109184e+00
  1.391116e+01    2.125048e+00
  1.392703e+01    2.082430e+00
  1.394291e+01    2.059297e+00
  1.395879e+01    2.065164e+00
  1.397466e+01    2.069438e+00
  1.399054e+01    2.076289e+00
  1.400641e+01    2.035990e+00
  1.402229e+01    2.031947e+00
  1.403816e+01    2.034662e+00
  1.405404e+01    2.018601e+00
  1.406991e+01    2.046909e+00
  1.408579e+01    2.044096e+00
  1.410167e+01    2.031281e+00
  1.411754e+01    2.001492e+00
  1.413342e+01    2.008164e+00
  1.414929e+01    2.032655e+00
  1.416517e+01    2.006437e+00
  1.418104e+01    1.964743e+00
  1.419692e+01    2.005424e+00
  1.421279e+01    2.026565e+00
  1.422867e+01    1.983645e+00
  1.424455e+01    2.004687e+00
  1.426042e+01    1.986493e+00
  1.427630e+01    1.971303e+00
  1.429217e+01    1.964675e+00
  1.430805e+01    1.932817e+00
  1.432392e+01    1.921861e+00
  1.433980e+01    1.944268e+00
  1.435568e+01    1.947929e+00
  1.437155e+01    1.974837e+00
  1.438743e+01    1.950284e+00
  1.440330e+01    1.923434e+00
  1.441918e+01    1.940574e+00
  1.443505e+01    1.962001e+00
  1.445093e+01    1.975192e+00
  1.446680e+01    1.944196e+00
  1.448268e+01    1.940625e+00
  1.449856e+01    1.941207e+00
  1.451443e+01    1.924186e+00
  1.453031e+01    1.914448e+00
  1.454618e+01    1.941033e+00
  1.456206e+01    1.923809e+00
  1.457793e+01    1.913866e+00
  1.459381e+01    1.921968e+00
  1.460968e+01    1.923259e+00
  1.462556e+01    1.946330e+00
  1.464144e+01    1.951073e+00
  1.465731e+01    1.962196e+00
  1.467319e+01    1.921138e+00
  1.468906e+01    1.909616e+00
  1.470494e+01    1.902456e+00
  1.472081e+01    1.894367e+00
  1.473669e+01    1.893195e+00
  1.475256e+01    1.895961e+00
  1.476844e+01    1.900434e+00
  1.478432e+01    1.924237e+00
  1.480019e+01    1.918289e+00
  1.481607e+01    1.941592e+00
  1.483194e+01    1.916008e+00
  1.484782e+01    1.947433e+00
  1.486369e+01    1.975083e+00
  1.487957e+01    1.972837e+00
  1.489544e+01    1.941203e+00
  1.491132e+01    1.966212e+00
  1.492720e+01    1.992009e+00
  1.494307e+01    1.995262e+00
  1.495895e+01    2.022014e+00
  1.497482e+01    2.028110e+00
  1.499070e+01    2.086001e+00
  1.500657e+01    2.164094e+00
  1.502245e+01    2.202775e+00
  1.503832e+01    2.257964e+00
  1.505420e+01    2.364742e+00
  1.507008e+01    2.501915e+00
  1.508595e+01    2.659379e+00
  1.510183e+01    2.790342e+00
  1.511770e+01    3.033792e+00
  1.513358e+01    3.349527e+00
  1.514945e+01    3.711149e+00
  1.516533e+01    4.096170e+00
  1.518120e+01    4.486193e+00
  1.519708e+01    4.859020e+00
  1.521296e+01    5.239471e+00
  1.522883e+01    5.566081e+00
  1.524471e+01    5.856338e+00
  1.526058e+01    6.127607e+00
  1.527646e+01    6.342261e+00
  1.529233e+01    6.357364e+00
  1.530821e+01    6.254324e+00
  1.532409e+01    5.826502e+00
  1.533996e+01    5.180880e+00
  1.535584e+01    4.561625e+00
  1.537171e+01    3.958899e+00
  1.538759e+01    3.559263e+00
  1.540346e+01    3.184148e+00
  1.541934e+01    2.919186e+00
  1.543521e+01    2.696806e+00
  1.545109e+01    2.562262e+00
  1.546697e+01    2.433842e+00
  1.548284e+01    2.290313e+00
  1.549872e+01    2.152989e+00
  1.551459e+01    2.094094e+00
  1.553047e+01    2.030837e+00
  1.554634e+01    1.976779e+00
  1.556222e+01    1.978414e+00
  1.557809e+01    1.934885e+00
  1.559397e+01    1.939687e+00
  1.560985e+01    1.900882e+00
  1.562572e+01    1.846179e+00
  1.564160e+01    1.795720e+00
  1.565747e+01    1.752523e+00
  1.567335e+01    1.765842e+00
  1.568922e+01    1.773558e+00
  1.570510e+01    1.754253e+00
  1.572097e+01    1.794006e+00
  1.573685e+01    1.748717e+00
  1.575273e+01    1.700949e+00
  1.576860e+01    1.724333e+00
  1.578448e+01    1.708300e+00
  1.580035e+01    1.707059e+00
  1.581623e+01    1.700485e+00
  1.583210e+01    1.674175e+00
  1.584798e+01    1.651559e+00
  1.586385e+01    1.634167e+00
  1.587973e+01    1.628026e+00
  1.589561e+01    1.645260e+00
  1.591148e+01    1.674579e+00
  1.592736e+01    1.658312e+00
  1.594323e+01    1.653082e+00
  1.595911e+01    1.670905e+00
  1.597498e+01    1.633083e+00
  1.599086e+01    1.661288e+00
  1.600673e+01    1.666261e+00
  1.602261e+01    1.615896e+00
  1.603849e+01    1.562031e+00
  1.605436e+01    1.555001e+00
  1.607024e+01    1.581490e+00
  1.608611e+01    1.569568e+00
  1.610199e+01    1.593928e+00
  1.611786e+01    1.579154e+00
  1.613374e+01    1.569564e+00
  1.614961e+01    1.548054e+00
  1.616549e+01    1.536441e+00
  1.618137e+01    1.578039e+00
  1.619724e+01    1.567455e+00
  1.621312e+01    1.584532e+00
  1.622899e+01    1.530939e+00
  1.624487e+01    1.523271e+00
  1.626074e+01    1.546762e+00
  1.627662e+01    1.552026e+00
  1.629250e+01    1.571110e+00
  1.630837e+01    1.559350e+00
  1.632425e+01    1.536217e+00
  1.634012e+01    1.543085e+00
  1.635600e+01    1.536346e+00
  1.637187e+01    1.528528e+00
  1.638775e+01    1.556220e+00
  1.640362e+01    1.555040e+00
  1.641950e+01    1.552357e+00
  1.643538e+01    1.528919e+00
  1.645125e+01    1.502313e+00
  1.646713e+01    1.539781e+00
  1.648300e+01    1.532750e+00
  1.649888e+01    1.516463e+00
  1.651475e+01    1.524413e+00
  1.653063e+01    1.532051e+00
  1.654650e+01    1.514830e+00
  1.656238e+01    1.530690e+00
  1.657826e+01    1.528900e+00
  1.659413e+01    1.486082e+00
  1.661001e+01    1.486057e+00
  1.662588e+01    1.479061e+00
  1.664176e+01    1.489836e+00
  1.665763e+01    1.521282e+00
  1.667351e+01    1.517924e+00
  1.668938e+01    1.478135e+00
  1.670526e+01    1.452616e+00
  1.672114e+01    1.474603e+00
  1.673701e+01    1.489147e+00
  1.675289e+01    1.464934e+00
  1.676876e+01    1.477259e+00
  1.678464e+01    1.473062e+00
  1.680051e+01    1.433581e+00
  1.681639e+01    1.422439e+00
  1.683226e+01    1.441333e+00
  1.684814e+01    1.464639e+00
  1.686402e+01    1.454223e+00
  1.687989e+01    1.444449e+00
  1.689577e+01    1.452574e+00
  1.691164e+01    1.453297e+00
  1.692752e+01    1.450008e+00
  1.694339e+01    1.450012e+00
  1.695927e+01    1.431602e+00
  1.697514e+01    1.453170e+00
  1.699102e+01    1.457541e+00
  1.700690e+01    1.454827e+00
  1.702277e+01    1.464549e+00
  1.703865e+01    1.445657e+00
  1.705452e+01    1.425832e+00
  1.707040e+01    1.421464e+00
  1.708627e+01    1.433581e+00
  1.710215e+01    1.462152e+00
  1.711802e+01    1.422127e+00
  1.713390e+01    1.412863e+00
  1.714978e+01    1.429105e+00
  1.716565e+01    1.401214e+00
  1.718153e+01    1.409029e+00
  1.719740e+01    1.415720e+00
  1.721328e+01    1.423566e+00
  1.722915e+01    1.429192e+00
  1.724503e+01    1.422676e+00
  1.726091e+01    1.393643e+00
  1.727678e+01    1.420984e+00
  1.729266e+01    1.397479e+00
  1.730853e+01    1.376317e+00
  1.732441e+01    1.408440e+00
  1.734028e+01    1.397783e+00
  1.735616e+01    1.394490e+00
  1.737203e+01    1.400171e+00
  1.738791e+01    1.361349e+00
  1.740379e+01    1.362580e+00
  1.741966e+01    1.390410e+00
  1.743554e+01    1.383959e+00
  1.745141e+01    1.375967e+00
  1.746729e+01    1.380953e+00
  1.748316e+01    1.369557e+00
  1.749904e+01    1.354189e+00
  1.751491e+01    1.388654e+00
  1.753079e+01    1.398488e+00
  1.754667e+01    1.412284e+00
  1.756254e+01    1.391191e+00
  1.757842e+01    1.400649e+00
  1.759429e+01    1.362359e+00
  1.761017e+01    1.348068e+00
  1.762604e+01    1.338977e+00
  1.764192e+01    1.344801e+00
  1.765779e+01    1.366685e+00
  1.767367e+01    1.354245e+00
  1.768955e+01    1.353073e+00
  1.770542e+01    1.346551e+00
  1.772130e+01    1.321359e+00
  1.773717e+01    1.370090e+00
  1.775305e+01    1.348097e+00
  1.776892e+01    1.337522e+00
  1.778480e+01    1.328958e+00
  1.780067e+01    1.321518e+00
  1.781655e+01    1.327670e+00
  1.783243e+01    1.329290e+00
  1.784830e+01    1.335736e+00
  1.786418e+01    1.336313e+00
  1.788005e+01    1.335585e+00
  1.789593e+01    1.331639e+00
  1.791180e+01    1.342902e+00
  1.792768e+01    1.313166e+00
  1.794355e+01    1.302795e+00
  1.795943e+01    1.328233e+00
  1.797531e+01    1.319875e+00
  1.799118e+01    1.314123e+00
  1.800706e+01    1.299548e+00
  1.802293e+01    1.297840e+00
  1.803881e+01    1.314892e+00
  1.805468e+01    1.286513e+00
  1.807056e+01    1.289477e+00
  1.808643e+01    1.301250e+00
  1.810231e+01    1.328668e+00
  1.811819e+01    1.281482e+00
  1.813406e+01    1.282288e+00
  1.814994e+01    1.287787e+00
  1.816581e+01    1.285416e+00
  1.818169e+01    1.284036e+00
  1.819756e+01    1.281607e+00
  1.821344e+01    1.290436e+00
  1.822932e+01    1.304486e+00
  1.824519e+01    1.290890e+00
  1.826107e+01    1.298380e+00
  1.827694e+01    1.301938e+00
  1.829282e+01    1.271235e+00
  1.830869e+01    1.292899e+00
  1.832457e+01    1.272996e+00
  1.834044e+01    1.250763e+00
  1.835632e+01    1.270943e+00
  1.837220e+01    1.265640e+00
  1.838807e+01    1.245755e+00
  1.840395e+01    1.247566e+00
  1.841982e+01    1.262816e+00
  1.843570e+01    1.244259e+00
  1.845157e+01    1.264323e+00
  1.846745e+01    1.304775e+00
  1.848332e+01    1.257645e+00
  1.849920e+01    1.265860e+00
  1.851508e+01    1.244793e+00
  1.853095e+01    1.265700e+00
  1.854683e+01    1.245931e+00
  1.856270e+01    1.257797e+00
  1.857858e+01    1.277185e+00
  1.859445e+01    1.254989e+00
  1.861033e+01    1.250877e+00
  1.862620e+01    1.232499e+00
  1.864208e+01    1.214687e+00
  1.865796e+01    1.225401e+00
  1.867383e+01    1.252228e+00
  1.868971e+01    1.253970e+00
  1.870558e+01    1.261060e+00
  1.872146e+01    1.231437e+00
  1.873733e+01    1.244305e+00
  1.875321e+01    1.218489e+00
  1.876908e+01    1.228932e+00
  1.878496e+01    1.235114e+00
  1.880084e+01    1.234977e+00
  1.881671e+01    1.224225e+00
  1.883259e+01    1.227179e+00
  1.884846e+01    1.249004e+00
  1.886434e+01    1.229958e+00
  1.888021e+01    1.205470e+00
  1.889609e+01    1.211281e+00
  1.891196e+01    1.217410e+00
  1.892784e+01    1.232984e+00
  1.894372e+01    1.214041e+00
  1.895959e+01    1.188229e+00
  1.897547e+01    1.203558e+00
  1.899134e+01    1.183066e+00
  1.900722e+01    1.164021e+00
  1.902309e+01    1.206123e+00
  1.903897e+01    1.211403e+00
  1.905484e+01    1.223113e+00
  1.907072e+01    1.211272e+00
  1.908660e+01    1.206373e+00
  1.910247e+01    1.233574e+00
  1.911835e+01    1.194955e+00
  1.913422e+01    1.181382e+00
  1.915010e+01    1.185979e+00
  1.916597e+01    1.183181e+00
  1.918185e+01    1.198417e+00
  1.919773e+01    1.201859e+00
  1.921360e+01    1.184515e+00
  1.922948e+01    1.210493e+00
  1.924535e+01    1.185781e+00
  1.926123e+01    1.175470e+00
  1.927710e+01    1.198914e+00
  1.929298e+01    1.189237e+00
  1.930885e+01    1.174810e+00
  1.932473e+01    1.185410e+00
  1.934061e+01    1.183638e+00
  1.935648e+01    1.163739e+00
  1.937236e+01    1.160707e+00
  1.938823e+01    1.191843e+00
  1.940411e+01    1.189897e+00
  1.941998e+01    1.199312e+00
  1.943586e+01    1.194883e+00
  1.945173e+01    1.181141e+00
  1.946761e+01    1.192525e+00
  1.948349e+01    1.183231e+00
  1.949936e+01    1.191841e+00
  1.951524e+01    1.200160e+00
  1.953111e+01    1.172916e+00
  1.954699e+01    1.169484e+00
  1.956286e+01    1.175498e+00
  1.957874e+01    1.168997e+00
  1.959461e+01    1.155757e+00
  1.961049e+01    1.185078e+00
  1.962637e+01    1.162681e+00
  1.964224e+01    1.169974e+00
  1.965812e+01    1.148356e+00
  1.967399e+01    1.143788e+00
  1.968987e+01    1.151483e+00
  1.970574e+01    1.131482e+00
  1.972162e+01    1.145145e+00
  1.973749e+01    1.120816e+00
  1.975337e+01    1.128164e+00
  1.976925e+01    1.150482e+00
  1.978512e+01    1.169721e+00
  1.980100e+01    1.139991e+00
  1.981687e+01    1.139415e+00
  1.983275e+01    1.126557e+00
  1.984862e+01    1.155489e+00
  1.986450e+01    1.156891e+00
  1.988037e+01    1.141055e+00
  1.989625e+01    1.149197e+00
  1.991213e+01    1.154200e+00
  1.992800e+01    1.146575e+00
  1.994388e+01    1.141877e+00
  1.995975e+01    1.122085e+00
  1.997563e+01    1.134511e+00
  1.999150e+01    1.142179e+00
  2.000738e+01    1.122773e+00
  2.002325e+01    1.114351e+00
  2.003913e+01    1.119021e+00
  2.005501e+01    1.129547e+00
  2.007088e+01    1.119287e+00
  2.008676e+01    1.090979e+00
  2.010263e+01    1.123967e+00
  2.011851e+01    1.109733e+00
  2.013438e+01    1.101949e+00
  2.015026e+01    1.107209e+00
  2.016614e+01    1.090113e+00
  2.018201e+01    1.100160e+00
  2.019789e+01    1.096532e+00
  2.021376e+01    1.081236e+00
  2.022964e+01    1.104598e+00
  2.024551e+01    1.115509e+00
  2.026139e+01    1.101666e+00
  2.027726e+01    1.105502e+00
  2.029314e+01    1.129309e+00
  2.030902e+01    1.107976e+00
  2.032489e+01    1.119819e+00
  2.034077e+01    1.098868e+00
  2.035664e+01    1.115234e+00
  2.037252e+01    1.102563e+00
  2.038839e+01    1.086165e+00
  2.040427e+01    1.086009e+00
  2.042014e+01    1.092370e+00
  2.043602e+01    1.081143e+00
  2.045190e+01    1.085842e+00
  2.046777e+01    1.075574e+00
  2.048365e+01    1.100365e+00
  2.049952e+01    1.103296e+00
  2.051540e+01    1.071263e+00
  2.053127e+01    1.092048e+00
  2.054715e+01    1.091028e+00
  2.056302e+01    1.109046e+00
  2.057890e+01    1.096703e+00
  2.059478e+01    1.092339e+00
  2.061065e+01    1.094445e+00
  2.062653e+01    1.092424e+00
  2.064240e+01    1.087915e+00
  2.065828e+01    1.090297e+00
  2.067415e+01    1.092105e+00
  2.069003e+01    1.094596e+00
  2.070590e+01    1.097028e+00
  2.072178e+01    1.091154e+00
  2.073766e+01    1.103397e+00
  2.075353e+01    1.099204e+00
  2.076941e+01    1.094118e+00
  2.078528e+01    1.078457e+00
  2.080116e+01    1.086810e+00
  2.081703e+01    1.076571e+00
  2.083291e+01    1.078809e+00
  2.084878e+01    1.096336e+00
  2.086466e+01    1.077274e+00
  2.088054e+01    1.077183e+00
  2.089641e+01    1.082466e+00
  2.091229e+01    1.063545e+00
  2.092816e+01    1.069176e+00
  2.094404e+01    1.062578e+00
  2.095991e+01    1.087908e+00
  2.097579e+01    1.082525e+00
  2.099166e+01    1.090050e+00
  2.100754e+01    1.076491e+00
  2.102342e+01    1.094427e+00
  2.103929e+01    1.086382e+00
  2.105517e+01    1.063668e+00
  2.107104e+01    1.101726e+00
  2.108692e+01    1.106149e+00
  2.110279e+01    1.099019e+00
  2.111867e+01    1.104471e+00
  2.113455e+01    1.115962e+00
  2.115042e+01    1.091325e+00
  2.116630e+01    1.094876e+00
  2.118217e+01    1.093051e+00
  2.119805e+01    1.095607e+00
  2.121392e+01    1.132809e+00
  2.122980e+01    1.101635e+00
  2.124567e+01    1.101374e+00
  2.126155e+01    1.132849e+00
  2.127743e+01    1.150519e+00
  2.129330e+01    1.135676e+00
  2.130918e+01    1.133887e+00
  2.132505e+01    1.131944e+00
  2.134093e+01    1.139342e+00
  2.135680e+01    1.172449e+00
  2.137268e+01    1.166056e+00
  2.138855e+01    1.181950e+00
  2.140443e+01    1.170714e+00
  2.142031e+01    1.191108e+00
  2.143618e+01    1.213391e+00
  2.145206e+01    1.224034e+00
  2.146793e+01    1.211643e+00
  2.148381e+01    1.258023e+00
  2.149968e+01    1.296870e+00
  2.151556e+01    1.302021e+00
  2.153143e+01    1.321895e+00
  2.154731e+01    1.378887e+00
  2.156319e+01    1.412345e+00
  2.157906e+01    1.430411e+00
  2.159494e+01    1.537883e+00
  2.161081e+01    1.581218e+00
  2.162669e+01    1.680582e+00
  2.164256e+01    1.755012e+00
  2.165844e+01    1.867808e+00
  2.167431e+01    2.018132e+00
  2.169019e+01    2.185511e+00
  2.170607e+01    2.378375e+00
  2.172194e+01    2.634825e+00
  2.173782e+01    2.964117e+00
  2.175369e+01    3.383586e+00
  2.176957e+01    3.862229e+00
  2.178544e+01    4.442060e+00
  2.180132e+01    5.144585e+00
  2.181719e+01    5.870005e+00
  2.183307e+01    6.647548e+00
  2.184895e+01    7.436739e+00
  2.186482e+01    8.263047e+00
  2.188070e+01    9.122664e+00
  2.189657e+01    9.882579e+00
  2.191245e+01    1.031360e+01
  2.192832e+01    1.047933e+01
  2.194420e+01    1.014564e+01
  2.196007e+01    9.394474e+00
  2.197595e+01    8.390544e+00
  2.199183e+01    7.206706e+00
  2.200770e+01    6.121763e+00
  2.202358e+01    5.168684e+00
  2.203945e+01    4.412795e+00
  2.205533e+01    3.809080e+00
  2.207120e+01    3.252812e+00
  2.208708e+01    2.870872e+00
  2.210296e+01    2.573588e+00
  2.211883e+01    2.332076e+00
  2.213471e+01    2.121804e+00
  2.215058e+01    1.946663e+00
  2.216646e+01    1.790618e+00
  2.218233e+01    1.710221e+00
  2.219821e+01    1.657475e+00
  2.221408e+01    1.566972e+00
  2.222996e+01    1.467730e+00
  2.224584e+01    1.405222e+00
  2.226171e+01    1.351388e+00
  2.227759e+01    1.329029e+00
  2.229346e+01    1.308548e+00
  2.230934e+01    1.240269e+00
  2.232521e+01    1.213838e+00
  2.234109e+01    1.205891e+00
  2.235696e+01    1.176536e+00
  2.237284e+01    1.165515e+00
  2.238872e+01    1.149849e+00
  2.240459e+01    1.115274e+00
  2.242047e+01    1.107599e+00
  2.243634e+01    1.099523e+00
  2.245222e+01    1.072734e+00
  2.246809e+01    1.077907e+00
  2.248397e+01    1.056943e+00
  2.249984e+01    1.058585e+00
  2.251572e+01    1.053469e+00
  2.253160e+01    1.056032e+00
  2.254747e+01    1.039266e+00
  2.256335e+01    1.022510e+00
  2.257922e+01    1.034661e+00
  2.259510e+01    1.011032e+00
  2.261097e+01    9.911702e-01
  2.262685e+01    9.583177e-01
  2.264272e+01    9.563176e-01
  2.265860e+01    9.803908e-01
  2.267448e+01    9.654650e-01
  2.269035e+01    9.730667e-01
  2.270623e+01    9.765420e-01
  2.272210e+01    9.623662e-01
  2.273798e+01    9.759189e-01
  2.275385e+01    9.757259e-01
  2.276973e+01    9.592358e-01
  2.278560e+01    9.318053e-01
  2.280148e+01    9.232122e-01
  2.281736e+01    9.621465e-01
  2.283323e+01    9.379929e-01
  2.284911e+01    9.399573e-01
  2.286498e+01    9.408062e-01
  2.288086e+01    9.190540e-01
  2.289673e+01    9.169062e-01
  2.291261e+01    9.313630e-01
  2.292848e+01    9.243577e-01
  2.294436e+01    9.104027e-01
  2.296024e+01    9.041542e-01
  2.297611e+01    8.961260e-01
  2.299199e+01    8.949120e-01
  2.300786e+01    9.061534e-01
  2.302374e+01    9.050903e-01
  2.303961e+01    9.043033e-01
  2.305549e+01    9.088919e-01
  2.307137e+01    9.229011e-01
  2.308724e+01    8.867484e-01
  2.310312e+01    8.812158e-01
  2.311899e+01    8.823606e-01
  2.313487e+01    8.841183e-01
  2.315074e+01    8.938276e-01
  2.316662e+01    8.863667e-01
  2.318249e+01    8.862829e-01
  2.319837e+01    8.809563e-01
  2.321425e+01    8.817971e-01
  2.323012e+01    8.976942e-01
  2.324600e+01    8.871657e-01
  2.326187e+01    8.829927e-01
  2.327775e+01    8.821437e-01
  2.329362e+01    8.666144e-01
  2.330950e+01    8.697075e-01
  2.332537e+01    8.675449e-01
  2.334125e+01    8.776239e-01
  2.335713e+01    8.783731e-01
  2.337300e+01    8.625437e-01
  2.338888e+01    8.624009e-01
  2.340475e+01    8.524143e-01
  2.342063e+01    8.643966e-01
  2.343650e+01    8.672132e-01
  2.345238e+01    8.401216e-01
  2.346825e+01    8.479395e-01
  2.348413e+01    8.448094e-01
  2.350001e+01    8.258567e-01
  2.351588e+01    8.534331e-01
  2.353176e+01    8.544243e-01
  2.354763e+01    8.749452e-01
  2.356351e+01    8.539943e-01
  2.357938e+01    8.304771e-01
  2.359526e+01    8.393385e-01
  2.361113e+01    8.488541e-01
  2.362701e+01    8.457537e-01
  2.364289e+01    8.550189e-01
  2.365876e+01    8.416451e-01
  2.367464e+01    8.497527e-01
  2.369051e+01    8.341569e-01
  2.370639e+01    8.322188e-01
  2.372226e+01    8.401816e-01
  2.373814e+01    8.200435e-01
  2.375401e+01    8.444459e-01
  2.376989e+01    8.370131e-01
  2.378577e+01    8.385901e-01
  2.380164e+01    8.293370e-01
  2.381752e+01    8.125518e-01
  2.383339e+01    8.091436e-01
  2.384927e+01    8.101042e-01
  2.386514e+01    8.294188e-01
  2.388102e+01    8.218645e-01
  2.389689e+01    8.041153e-01
  2.391277e+01    8.045993e-01
  2.392865e+01    8.341687e-01
  2.394452e+01    8.237024e-01
  2.396040e+01    7.889500e-01
  2.397627e+01    8.007565e-01
  2.399215e+01    8.110812e-01
  2.400802e+01    8.060110e-01
  2.402390e+01    7.884604e-01
  2.403978e+01    7.611464e-01
  2.405565e+01    7.736518e-01
  2.407153e+01    7.865756e-01
  2.408740e+01    8.091865e-01
  2.410328e+01    8.077011e-01
  2.411915e+01    7.882336e-01
  2.413503e+01    7.850559e-01
  2.415090e+01    7.923848e-01
  2.416678e+01    7.957613e-01
  2.418266e+01    8.100246e-01
  2.419853e+01    7.889299e-01
  2.421441e+01    7.924227e-01
  2.423028e+01    7.899557e-01
  2.424616e+01    7.888119e-01
  2.426203e+01    7.889337e-01
  2.427791e+01    7.953667e-01
  2.429378e+01    7.894641e-01
  2.430966e+01    7.888367e-01
  2.432554e+01    8.094500e-01
  2.434141e+01    8.077663e-01
  2.435729e+01    8.072529e-01
  2.437316e+01    8.027509e-01
  2.438904e+01    8.069304e-01
  2.440491e+01    7.922950e-01
  2.442079e+01    8.009011e-01
  2.443666e+01    8.123971e-01
  2.445254e+01    7.945356e-01
  2.446842e+01    8.012677e-01
  2.448429e+01    7.930720e-01
  2.450017e+01    7.985054e-01
  2.451604e+01    7.894351e-01
  2.453192e+01    7.999111e-01
  2.454779e+01    8.032706e-01
  2.456367e+01    8.218469e-01
  2.457954e+01    8.191986e-01
  2.459542e+01    7.881382e-01
  2.461130e+01    7.998815e-01
  2.462717e+01    8.009635e-01
  2.464305e+01    8.011803e-01
  2.465892e+01    7.845234e-01
  2.467480e+01    7.948720e-01
  2.469067e+01    8.021217e-01
  2.470655e+01    7.660663e-01
  2.472242e+01    7.878866e-01
  2.473830e+01    8.231762e-01
  2.475418e+01    8.149903e-01
  2.477005e+01    8.125422e-01
  2.478593e+01    7.893582e-01
  2.480180e+01    8.004558e-01
  2.481768e+01    7.987636e-01
  2.483355e+01    8.033768e-01
  2.484943e+01    7.954301e-01
  2.486530e+01    8.062357e-01
  2.488118e+01    7.973983e-01
  2.489706e+01    7.804651e-01
  2.491293e+01    7.979999e-01
  2.492881e+01    8.039687e-01
  2.494468e+01    8.022060e-01
  2.496056e+01    8.057245e-01
  2.497643e+01    8.162032e-01
  2.499231e+01    8.306229e-01
  2.500819e+01    8.118483e-01
  2.502406e+01    8.077061e-01
  2.503994e+01    8.129463e-01
  2.505581e+01    8.316202e-01
  2.507169e+01    8.055453e-01
  2.508756e+01    8.173686e-01
  2.510344e+01    8.189089e-01
  2.511931e+01    8.206219e-01
  2.513519e+01    8.431785e-01
  2.515107e+01    8.371680e-01
  2.516694e+01    8.444456e-01
  2.518282e+01    8.411165e-01
  2.519869e+01    8.367495e-01
  2.521457e+01    8.483942e-01
  2.523044e+01    8.488821e-01
  2.524632e+01    8.573601e-01
  2.526219e+01    8.677258e-01
  2.527807e+01    8.763557e-01
  2.529395e+01    8.955273e-01
  2.530982e+01    8.784326e-01
  2.532570e+01    8.818858e-01
  2.534157e+01    8.666295e-01
  2.535745e+01    8.763170e-01
  2.537332e+01    8.688616e-01
  2.538920e+01    8.805651e-01
  2.540507e+01    9.029105e-01
  2.542095e+01    9.151972e-01
  2.543683e+01    9.043654e-01
  2.545270e+01    9.349743e-01
  2.546858e+01    9.684814e-01
  2.548445e+01    9.887319e-01
  2.550033e+01    9.806330e-01
  2.551620e+01    9.897829e-01
  2.553208e+01    1.001643e+00
  2.554795e+01    1.039794e+00
  2.556383e+01    1.032544e+00
  2.557971e+01    1.065052e+00
  2.559558e+01    1.087553e+00
  2.561146e+01    1.127218e+00
  2.562733e+01    1.159829e+00
  2.564321e+01    1.196262e+00
  2.565908e+01    1.232208e+00
  2.567496e+01    1.308188e+00
  2.569083e+01    1.355666e+00
  2.570671e+01    1.409767e+00
  2.572259e+01    1.485914e+00
  2.573846e+01    1.592633e+00
  2.575434e+01    1.745899e+00
  2.577021e+01    1.895742e+00
  2.578609e+01    2.100908e+00
  2.580196e+01    2.315065e+00
  2.581784e+01    2.609746e+00
  2.583371e+01    2.962095e+00
  2.584959e+01    3.381609e+00
  2.586547e+01    3.893636e+00
  2.588134e+01    4.467095e+00
  2.589722e+01    5.128792e+00
  2.591309e+01    5.826764e+00
  2.592897e+01    6.581379e+00
  2.594484e+01    7.344642e+00
  2.596072e+01    7.988946e+00
  2.597660e+01    8.516180e+00
  2.599247e+01    8.711182e+00
  2.600835e+01    8.522936e+00
  2.602422e+01    8.054498e+00
  2.604010e+01    7.323835e+00
  2.605597e+01    6.419679e+00
  2.607185e+01    5.558959e+00
  2.608772e+01    4.750781e+00
  2.610360e+01    4.039548e+00
  2.611948e+01    3.485540e+00
  2.613535e+01    3.017679e+00
  2.615123e+01    2.670243e+00
  2.616710e+01    2.344723e+00
  2.618298e+01    2.114296e+00
  2.619885e+01    1.958870e+00
  2.621473e+01    1.783368e+00
  2.623060e+01    1.640918e+00
  2.624648e+01    1.549344e+00
  2.626236e+01    1.430580e+00
  2.627823e+01    1.395274e+00
  2.629411e+01    1.313696e+00
  2.630998e+01    1.260624e+00
  2.632586e+01    1.225549e+00
  2.634173e+01    1.175730e+00
  2.635761e+01    1.124324e+00
  2.637348e+01    1.133951e+00
  2.638936e+01    1.090319e+00
  2.640524e+01    1.068333e+00
  2.642111e+01    1.051595e+00
  2.643699e+01    1.048205e+00
  2.645286e+01    1.025192e+00
  2.646874e+01    1.024719e+00
  2.648461e+01    9.961572e-01
  2.650049e+01    9.682757e-01
  2.651636e+01    9.604261e-01
  2.653224e+01    9.529598e-01
  2.654812e+01    9.447585e-01
  2.656399e+01    9.413036e-01
  2.657987e+01    9.240173e-01
  2.659574e+01    9.325063e-01
  2.661162e+01    9.259151e-01
  2.662749e+01    9.527309e-01
  2.664337e+01    9.144069e-01
  2.665924e+01    9.230112e-01
  2.667512e+01    9.156151e-01
  2.669100e+01    9.048500e-01
  2.670687e+01    9.225997e-01
  2.672275e+01    9.083133e-01
  2.673862e+01    9.072755e-01
  2.675450e+01    8.961858e-01
  2.677037e+01    8.835990e-01
  2.678625e+01    9.138495e-01
  2.680212e+01    9.142456e-01
  2.681800e+01    9.238893e-01
  2.683388e+01    9.218972e-01
  2.684975e+01    9.125145e-01
  2.686563e+01    9.213787e-01
  2.688150e+01    9.148625e-01
  2.689738e+01    9.342712e-01
  2.691325e+01    9.578584e-01
  2.692913e+01    9.501877e-01
  2.694501e+01    9.451908e-01
  2.696088e+01    9.644912e-01
  2.697676e+01    9.815873e-01
  2.699263e+01    1.002889e+00
  2.700851e+01    1.011268e+00
  2.702438e+01    1.046260e+00
  2.704026e+01    1.089817e+00
  2.705613e+01    1.083726e+00
  2.707201e+01    1.152297e+00
  2.708789e+01    1.225043e+00
  2.710376e+01    1.297868e+00
  2.711964e+01    1.393247e+00
  2.713551e+01    1.513558e+00
  2.715139e+01    1.629626e+00
  2.716726e+01    1.794062e+00
  2.718314e+01    1.956200e+00
  2.719901e+01    2.125694e+00
  2.721489e+01    2.335065e+00
  2.723077e+01    2.407098e+00
  2.724664e+01    2.483328e+00
  2.726252e+01    2.454338e+00
  2.727839e+01    2.409987e+00
  2.729427e+01    2.270263e+00
  2.731014e+01    2.105293e+00
  2.732602e+01    1.943818e+00
  2.734189e+01    1.786013e+00
  2.735777e+01    1.611906e+00
  2.737365e+01    1.455894e+00
  2.738952e+01    1.331401e+00
  2.740540e+01    1.269260e+00
  2.742127e+01    1.205427e+00
  2.743715e+01    1.129905e+00
  2.745302e+01    1.082769e+00
  2.746890e+01    1.030005e+00
  2.748477e+01    9.999846e-01
  2.750065e+01    9.779572e-01
  2.751653e+01    9.757372e-01
  2.753240e+01    9.625388e-01
  2.754828e+01    9.236277e-01
  2.756415e+01    9.258264e-01
  2.758003e+01    9.057448e-01
  2.759590e+01    8.940517e-01
  2.761178e+01    8.798308e-01
  2.762765e+01    8.642263e-01
  2.764353e+01    8.549072e-01
  2.765941e+01    8.397957e-01
  2.767528e+01    8.330154e-01
  2.769116e+01    8.546482e-01
  2.770703e+01    8.347193e-01
  2.772291e+01    8.262466e-01
  2.773878e+01    8.355458e-01
  2.775466e+01    8.238636e-01
  2.777054e+01    8.423494e-01
  2.778641e+01    8.280386e-01
  2.780229e+01    8.258877e-01
  2.781816e+01    8.174105e-01
  2.783404e+01    8.126990e-01
  2.784991e+01    8.163210e-01
  2.786579e+01    7.927777e-01
  2.788166e+01    8.025957e-01
  2.789754e+01    8.123479e-01
  2.791342e+01    8.143487e-01
  2.792929e+01    8.093439e-01
  2.794517e+01    7.919037e-01
  2.796104e+01    8.063343e-01
  2.797692e+01    8.209386e-01
  2.799279e+01    7.953795e-01
  2.800867e+01    7.747456e-01
  2.802454e+01    7.916214e-01
  2.804042e+01    7.982059e-01
  2.805630e+01    7.954811e-01
  2.807217e+01    7.995270e-01
  2.808805e+01    8.085715e-01
  2.810392e+01    7.892236e-01
  2.811980e+01    7.845212e-01
  2.813567e+01    7.824041e-01
  2.815155e+01    8.038065e-01
  2.816742e+01    7.919509e-01
  2.818330e+01    7.816247e-01
  2.819918e+01    7.950307e-01
  2.821505e+01    7.973332e-01
  2.823093e+01    7.938604e-01
  2.824680e+01    7.870775e-01
  2.826268e+01    7.936172e-01
  2.827855e+01    8.005017e-01
  2.829443e+01    7.916170e-01
  2.831030e+01    7.892582e-01
  2.832618e+01    7.812660e-01
  2.834206e+01    7.773352e-01
  2.835793e+01    7.838618e-01
  2.837381e+01    7.771720e-01
  2.838968e+01    7.567257e-01
  2.840556e+01    7.513259e-01
  2.842143e+01    7.474627e-01
  2.843731e+01    7.717994e-01
  2.845318e+01    7.606397e-01
  2.846906e+01    7.529740e-01
  2.848494e+01    7.712019e-01
  2.850081e+01    7.747169e-01
  2.851669e+01    7.921522e-01
  2.853256e+01    7.523242e-01
  2.854844e+01    7.669533e-01
  2.856431e+01    7.619116e-01
  2.858019e+01    7.467247e-01
  2.859606e+01    7.770119e-01
  2.861194e+01    7.587388e-01
  2.862782e+01    7.433275e-01
  2.864369e+01    7.593735e-01
  2.865957e+01    7.676098e-01
  2.867544e+01    7.754217e-01
  2.869132e+01    7.799131e-01
  2.870719e+01    7.698944e-01
  2.872307e+01    7.610068e-01
  2.873895e+01    7.678016e-01
  2.875482e+01    7.536963e-01
  2.877070e+01    7.612110e-01
  2.878657e+01    7.691036e-01
  2.880245e+01    7.686633e-01
  2.881832e+01    7.459437e-01
  2.883420e+01    7.461758e-01
  2.885007e+01    7.331610e-01
  2.886595e+01    7.304966e-01
  2.888183e+01    7.319833e-01
  2.889770e+01    7.361852e-01
  2.891358e+01    7.436687e-01
  2.892945e+01    7.374340e-01
  2.894533e+01    7.581694e-01
  2.896120e+01    7.407510e-01
  2.897708e+01    7.463942e-01
  2.899295e+01    7.531793e-01
  2.900883e+01    7.587823e-01
  2.902471e+01    7.457000e-01
  2.904058e+01    7.540865e-01
  2.905646e+01    7.477047e-01
  2.907233e+01    7.367244e-01
  2.908821e+01    7.462167e-01
  2.910408e+01    7.585603e-01
  2.911996e+01    7.779478e-01
  2.913583e+01    7.366033e-01
  2.915171e+01    7.223296e-01
  2.916759e+01    7.214831e-01
  2.918346e+01    7.405336e-01
  2.919934e+01    7.528167e-01
  2.921521e+01    7.399936e-01
  2.923109e+01    7.332886e-01
  2.924696e+01    7.389799e-01
  2.926284e+01    7.470114e-01
  2.927871e+01    7.112848e-01
  2.929459e+01    7.118137e-01
  2.931047e+01    7.447556e-01
  2.932634e+01    7.373737e-01
  2.934222e+01    7.328093e-01
  2.935809e+01    7.482473e-01
  2.937397e+01    7.601312e-01
  2.938984e+01    7.543759e-01
  2.940572e+01    7.418141e-01
  2.942159e+01    7.210529e-01
  2.943747e+01    7.197855e-01
  2.945335e+01    7.397947e-01
  2.946922e+01    7.333257e-01
  2.948510e+01    7.309552e-01
  2.950097e+01    7.304829e-01
  2.951685e+01    7.446465e-01
  2.953272e+01    7.501159e-01
  2.954860e+01    7.437632e-01
  2.956447e+01    7.342255e-01
  2.958035e+01    7.246166e-01
  2.959623e+01    7.149993e-01
  2.961210e+01    7.297970e-01
  2.962798e+01    7.407329e-01
  2.964385e+01    7.324639e-01
  2.965973e+01    7.394743e-01
  2.967560e+01    7.124798e-01
  2.969148e+01    7.247207e-01
  2.970736e+01    6.980902e-01
  2.972323e+01    7.239258e-01
  2.973911e+01    7.318096e-01
  2.975498e+01    7.118839e-01
  2.977086e+01    7.328337e-01
  2.978673e+01    7.448735e-01
  2.980261e+01    7.337454e-01
  2.981848e+01    7.320527e-01
  2.983436e+01    7.259355e-01
  2.985024e+01    7.216232e-01
  2.986611e+01    7.024330e-01
  2.988199e+01    7.083071e-01
  2.989786e+01    7.392940e-01
  2.991374e+01    7.498852e-01
  2.992961e+01    7.436867e-01
  2.994549e+01    7.354583e-01
  2.996136e+01    7.389675e-01
  2.997724e+01    7.280061e-01
  2.999312e+01    7.228842e-01
  3.000899e+01    7.390046e-01
  3.002487e+01    7.415851e-01
  3.004074e+01    7.443274e-01
  3.005662e+01    7.303715e-01
  3.007249e+01    7.573280e-01
  3.008837e+01    7.467071e-01
  3.010424e+01    7.490572e-01
  3.012012e+01    7.285596e-01
  3.013600e+01    7.280426e-01
  3.015187e+01    7.368685e-01
  3.016775e+01    7.295274e-01
  3.018362e+01    7.306447e-01
  3.019950e+01    7.049226e-01
  3.021537e+01    7.227924e-01
  3.023125e+01    7.407852e-01
  3.024712e+01    7.436730e-01
  3.026300e+01    7.259108e-01
  3.027888e+01    7.204299e-01
  3.029475e+01    7.058187e-01
  3.031063e+01    6.961034e-01
  3.032650e+01    7.117752e-01
  3.034238e+01    7.125593e-01
  3.035825e+01    7.214224e-01
  3.037413e+01    7.312337e-01
  3.039000e+01    7.242334e-01
  3.040588e+01    7.132630e-01
  3.042176e+01    7.113203e-01
  3.043763e+01    6.960583e-01
  3.045351e+01    7.135839e-01
  3.046938e+01    7.285661e-01
  3.048526e+01    7.304046e-01
  3.050113e+01    7.036924e-01
  3.051701e+01    7.104484e-01
  3.053288e+01    7.158279e-01
  3.054876e+01    7.209013e-01
  3.056464e+01    7.339003e-01
  3.058051e+01    7.080060e-01
  3.059639e+01    7.236291e-01
  3.061226e+01    7.211391e-01
  3.062814e+01    7.110922e-01
  3.064401e+01    7.106200e-01
  3.065989e+01    7.210390e-01
  3.067577e+01    7.094522e-01
  3.069164e+01    7.380476e-01
  3.070752e+01    7.119554e-01
  3.072339e+01    7.250317e-01
  3.073927e+01    7.344342e-01
  3.075514e+01    7.307820e-01
  3.077102e+01    7.412487e-01
  3.078689e+01    7.356508e-01
  3.080277e+01    7.193857e-01
  3.081865e+01    7.170193e-01
  3.083452e+01    7.089151e-01
  3.085040e+01    7.296754e-01
  3.086627e+01    7.111574e-01
  3.088215e+01    7.022049e-01
  3.089802e+01    7.099574e-01
  3.091390e+01    6.925936e-01
  3.092977e+01    7.200787e-01
  3.094565e+01    7.252744e-01
  3.096153e+01    7.132432e-01
  3.097740e+01    7.005822e-01
  3.099328e+01    7.208639e-01
  3.100915e+01    7.337795e-01
  3.102503e+01    7.217435e-01
  3.104090e+01    7.195480e-01
  3.105678e+01    7.259025e-01
  3.107265e+01    7.070330e-01
  3.108853e+01    7.313778e-01
  3.110441e+01    7.374119e-01
  3.112028e+01    7.508245e-01
  3.113616e+01    7.199655e-01
  3.115203e+01    7.061765e-01
  3.116791e+01    7.239339e-01
  3.118378e+01    7.258096e-01
  3.119966e+01    7.200085e-01
  3.121553e+01    7.219862e-01
  3.123141e+01    7.353035e-01
  3.124729e+01    7.346460e-01
  3.126316e+01    7.202283e-01
  3.127904e+01    7.502166e-01
  3.129491e+01    7.340664e-01
  3.131079e+01    7.389511e-01
  3.132666e+01    7.347742e-01
  3.134254e+01    7.476080e-01
  3.135841e+01    7.610202e-01
  3.137429e+01    7.507363e-01
  3.139017e+01    7.625571e-01
  3.140604e+01    7.819057e-01
  3.142192e+01    7.425301e-01
  3.143779e+01    7.460736e-01
  3.145367e+01    7.477050e-01
  3.146954e+01    7.516537e-01
  3.148542e+01    7.467543e-01
  3.150129e+01    7.584922e-01
  3.151717e+01    7.640129e-01
  3.153305e+01    7.727256e-01
  3.154892e+01    8.016810e-01
  3.156480e+01    8.107546e-01
  3.158067e+01    8.019840e-01
  3.159655e+01    8.069311e-01
  3.161242e+01    8.148945e-01
  3.162830e+01    8.469295e-01
  3.164418e+01    8.493699e-01
  3.166005e+01    8.730068e-01
  3.167593e+01    8.982578e-01
  3.169180e+01    8.773101e-01
  3.170768e+01    9.468766e-01
  3.172355e+01    9.576345e-01
  3.173943e+01    1.002735e+00
  3.175530e+01    1.058708e+00
  3.177118e+01    1.120470e+00
  3.178706e+01    1.199330e+00
  3.180293e+01    1.242570e+00
  3.181881e+01    1.373138e+00
  3.183468e+01    1.494356e+00
  3.185056e+01    1.632222e+00
  3.186643e+01    1.782783e+00
  3.188231e+01    1.941157e+00
  3.189818e+01    2.135755e+00
  3.191406e+01    2.298096e+00
  3.192994e+01    2.398080e+00
  3.194581e+01    2.448615e+00
  3.196169e+01    2.484504e+00
  3.197756e+01    2.366620e+00
  3.199344e+01    2.209130e+00
  3.200931e+01    2.077342e+00
  3.202519e+01    1.894111e+00
  3.204106e+01    1.680122e+00
  3.205694e+01    1.513794e+00
  3.207282e+01    1.382824e+00
  3.208869e+01    1.270288e+00
  3.210457e+01    1.157591e+00
  3.212044e+01    1.091567e+00
  3.213632e+01    1.034632e+00
  3.215219e+01    9.913068e-01
  3.216807e+01    9.573135e-01
  3.218394e+01    9.184591e-01
  3.219982e+01    8.968995e-01
  3.221570e+01    8.535573e-01
  3.223157e+01    8.603609e-01
  3.224745e+01    8.203469e-01
  3.226332e+01    8.156486e-01
  3.227920e+01    8.224419e-01
  3.229507e+01    8.110726e-01
  3.231095e+01    7.951278e-01
  3.232682e+01    7.800460e-01
  3.234270e+01    7.858538e-01
  3.235858e+01    7.804254e-01
  3.237445e+01    7.625070e-01
  3.239033e+01    7.474502e-01
  3.240620e+01    7.372931e-01
  3.242208e+01    7.560676e-01
  3.243795e+01    7.583799e-01
  3.245383e+01    7.481663e-01
  3.246970e+01    7.285455e-01
  3.248558e+01    7.462978e-01
  3.250146e+01    7.736720e-01
  3.251733e+01    7.346349e-01
  3.253321e+01    7.205871e-01
  3.254908e+01    7.311195e-01
