# == pyFAI calibration ==
# Distance Sample to Detector: 0.3999999939076516 m
# PONI: 9.750e-02, 1.135e-01 m
# Rotations: -0.000175 0.000000 -0.000000 rad
# 
# == Fit2d calibration ==
# Distance Sample-beamCenter: 400.000 mm
# Center: x=1514.000, y=1300.000 pix
# Tilt: 0.010 deg  TiltPlanRot: 0.010 deg
# 
# Detector Detector	 Spline= None	 PixelSize= 7.500e-05, 7.500e-05 m
#    Detector has a mask: False 
#    Detector has a dark current: False 
#    detector has a flat field: False 
# 
# Wavelength: 6.888e-11 m
# Mask applied: user provided
# Dark current applied: False
# Flat field applied: False
# Polarization factor: 0.99
# Normalization factor: 1.0
# --> /home/myspot/data/2024_07_Rosario/Ru-CGO-ex/2024-07-27_002_Ru-CGO-ex_Activtation_ramp_000002_data_000070.dat
#       q_nm^-1             I 
  2.003187e-02    7.711350e-02
  3.590745e-02    6.422365e-02
  5.178302e-02    2.670345e-02
  6.765859e-02    1.183661e-01
  8.353417e-02    1.327516e-01
  9.940974e-02    5.173076e-02
  1.152853e-01    4.352646e-02
  1.311609e-01    1.852852e-02
  1.470365e-01    1.846686e-02
  1.629120e-01    5.147946e-02
  1.787876e-01    1.797055e-03
  1.946632e-01    1.443527e-02
  2.105388e-01    3.399912e-02
  2.264143e-01    1.843994e-02
  2.422899e-01    2.241457e-02
  2.581655e-01    1.746962e-02
  2.740411e-01    2.701031e-02
  2.899166e-01    2.342419e-02
  3.057922e-01    3.132180e-02
  3.216678e-01    1.326672e-02
  3.375433e-01    2.490217e-02
  3.534189e-01    3.202115e-02
  3.692945e-01    5.402008e-02
  3.851701e-01    5.534043e-02
  4.010456e-01    1.752088e-02
  4.169212e-01    5.664349e-02
  4.327968e-01    5.960218e-02
  4.486724e-01    6.790107e-02
  4.645479e-01    4.991880e-02
  4.804235e-01    3.948925e-02
  4.962991e-01    3.304458e-02
  5.121747e-01    6.004875e-02
  5.280502e-01    3.860640e-02
  5.439258e-01    5.597904e-02
  5.598014e-01    6.935047e-02
  5.756770e-01    2.720070e-02
  5.915525e-01    2.005768e-02
  6.074281e-01    2.581147e-02
  6.233037e-01    2.656193e-02
  6.391793e-01    4.372697e-02
  6.550548e-01    1.816726e-02
  6.709304e-01    2.173836e-02
  6.868060e-01    3.826494e-02
  7.026815e-01    4.095385e-02
  7.185571e-01    3.142527e-02
  7.344327e-01    2.660187e-02
  7.503083e-01    3.671811e-02
  7.661838e-01    9.224023e-02
  7.820594e-01    1.229768e-01
  7.979350e-01    1.591012e-01
  8.138106e-01    2.204639e-01
  8.296861e-01    2.705345e-01
  8.455617e-01    2.994482e-01
  8.614373e-01    3.584589e-01
  8.773129e-01    4.397017e-01
  8.931884e-01    4.732051e-01
  9.090640e-01    5.722384e-01
  9.249396e-01    6.063458e-01
  9.408152e-01    7.294003e-01
  9.566907e-01    8.034257e-01
  9.725663e-01    7.506497e-01
  9.884419e-01    8.120943e-01
  1.004317e+00    9.983748e-01
  1.020193e+00    1.112376e+00
  1.036069e+00    1.183363e+00
  1.051944e+00    1.233052e+00
  1.067820e+00    1.304529e+00
  1.083695e+00    1.301829e+00
  1.099571e+00    1.192629e+00
  1.115446e+00    1.380199e+00
  1.131322e+00    1.426479e+00
  1.147198e+00    1.495521e+00
  1.163073e+00    1.507756e+00
  1.178949e+00    1.488959e+00
  1.194824e+00    1.663433e+00
  1.210700e+00    1.827003e+00
  1.226575e+00    2.028077e+00
  1.242451e+00    2.202105e+00
  1.258327e+00    2.501343e+00
  1.274202e+00    2.424886e+00
  1.290078e+00    2.471158e+00
  1.305953e+00    2.564921e+00
  1.321829e+00    2.610787e+00
  1.337705e+00    2.535793e+00
  1.353580e+00    2.631299e+00
  1.369456e+00    2.722238e+00
  1.385331e+00    2.656436e+00
  1.401207e+00    2.674060e+00
  1.417082e+00    2.655792e+00
  1.432958e+00    2.646611e+00
  1.448834e+00    2.697425e+00
  1.464709e+00    2.836317e+00
  1.480585e+00    2.898977e+00
  1.496460e+00    2.866341e+00
  1.512336e+00    2.795778e+00
  1.528211e+00    2.878174e+00
  1.544087e+00    3.021058e+00
  1.559963e+00    3.069096e+00
  1.575838e+00    3.084088e+00
  1.591714e+00    3.001279e+00
  1.607589e+00    2.999454e+00
  1.623465e+00    3.025380e+00
  1.639340e+00    3.053897e+00
  1.655216e+00    2.949464e+00
  1.671092e+00    2.860588e+00
  1.686967e+00    2.798623e+00
  1.702843e+00    2.870047e+00
  1.718718e+00    2.793991e+00
  1.734594e+00    2.882700e+00
  1.750469e+00    2.843868e+00
  1.766345e+00    2.830191e+00
  1.782221e+00    2.756462e+00
  1.798096e+00    2.671165e+00
  1.813972e+00    2.636998e+00
  1.829847e+00    2.763467e+00
  1.845723e+00    2.733186e+00
  1.861598e+00    2.797230e+00
  1.877474e+00    2.746572e+00
  1.893350e+00    2.842214e+00
  1.909225e+00    2.847423e+00
  1.925101e+00    2.801116e+00
  1.940976e+00    2.711828e+00
  1.956852e+00    2.643601e+00
  1.972727e+00    2.639432e+00
  1.988603e+00    2.738623e+00
  2.004479e+00    2.772264e+00
  2.020354e+00    2.640482e+00
  2.036230e+00    2.733457e+00
  2.052105e+00    2.681418e+00
  2.067981e+00    2.765382e+00
  2.083856e+00    2.705805e+00
  2.099732e+00    2.675180e+00
  2.115608e+00    2.727195e+00
  2.131483e+00    2.734480e+00
  2.147359e+00    2.685153e+00
  2.163234e+00    2.717143e+00
  2.179110e+00    2.809850e+00
  2.194985e+00    2.767309e+00
  2.210861e+00    2.793934e+00
  2.226737e+00    2.783339e+00
  2.242612e+00    2.859882e+00
  2.258488e+00    2.848724e+00
  2.274363e+00    2.833433e+00
  2.290239e+00    2.784826e+00
  2.306115e+00    2.801393e+00
  2.321990e+00    2.804665e+00
  2.337866e+00    2.816874e+00
  2.353741e+00    2.832690e+00
  2.369617e+00    2.667764e+00
  2.385492e+00    2.794677e+00
  2.401368e+00    2.829503e+00
  2.417244e+00    2.832722e+00
  2.433119e+00    2.747016e+00
  2.448995e+00    2.749334e+00
  2.464870e+00    2.843727e+00
  2.480746e+00    2.862333e+00
  2.496621e+00    2.805798e+00
  2.512497e+00    2.742991e+00
  2.528373e+00    2.827171e+00
  2.544248e+00    2.851609e+00
  2.560124e+00    2.817958e+00
  2.575999e+00    2.856790e+00
  2.591875e+00    2.860553e+00
  2.607750e+00    2.862100e+00
  2.623626e+00    2.910454e+00
  2.639502e+00    2.862008e+00
  2.655377e+00    2.647442e+00
  2.671253e+00    2.695850e+00
  2.687128e+00    2.795389e+00
  2.703004e+00    2.844210e+00
  2.718879e+00    2.888533e+00
  2.734755e+00    2.805953e+00
  2.750631e+00    2.740541e+00
  2.766506e+00    2.732544e+00
  2.782382e+00    2.778177e+00
  2.798257e+00    2.786095e+00
  2.814133e+00    2.877185e+00
  2.830008e+00    2.857490e+00
  2.845884e+00    2.884046e+00
  2.861760e+00    2.878277e+00
  2.877635e+00    2.843012e+00
  2.893511e+00    2.833333e+00
  2.909386e+00    2.865971e+00
  2.925262e+00    2.876813e+00
  2.941137e+00    2.769667e+00
  2.957013e+00    2.806424e+00
  2.972889e+00    2.942271e+00
  2.988764e+00    2.885617e+00
  3.004640e+00    2.888601e+00
  3.020515e+00    2.902288e+00
  3.036391e+00    2.882021e+00
  3.052266e+00    2.973537e+00
  3.068142e+00    2.906174e+00
  3.084018e+00    2.853207e+00
  3.099893e+00    2.941910e+00
  3.115769e+00    2.916027e+00
  3.131644e+00    2.897943e+00
  3.147520e+00    2.908655e+00
  3.163395e+00    2.875788e+00
  3.179271e+00    2.876841e+00
  3.195147e+00    2.909341e+00
  3.211022e+00    2.893339e+00
  3.226898e+00    2.941513e+00
  3.242773e+00    2.916666e+00
  3.258649e+00    2.883576e+00
  3.274525e+00    2.972403e+00
  3.290400e+00    2.964888e+00
  3.306276e+00    2.903518e+00
  3.322151e+00    2.952994e+00
  3.338027e+00    3.009531e+00
  3.353902e+00    2.963920e+00
  3.369778e+00    2.968706e+00
  3.385654e+00    3.016280e+00
  3.401529e+00    2.989586e+00
  3.417405e+00    3.001157e+00
  3.433280e+00    2.992036e+00
  3.449156e+00    2.900831e+00
  3.465031e+00    2.871444e+00
  3.480907e+00    2.948805e+00
  3.496783e+00    3.009760e+00
  3.512658e+00    2.968863e+00
  3.528534e+00    3.010941e+00
  3.544409e+00    2.962219e+00
  3.560285e+00    2.890898e+00
  3.576160e+00    2.932327e+00
  3.592036e+00    2.898839e+00
  3.607912e+00    2.938405e+00
  3.623787e+00    2.967404e+00
  3.639663e+00    2.993736e+00
  3.655538e+00    2.886457e+00
  3.671414e+00    2.947437e+00
  3.687289e+00    2.953887e+00
  3.703165e+00    2.937555e+00
  3.719041e+00    2.933041e+00
  3.734916e+00    2.947522e+00
  3.750792e+00    2.963230e+00
  3.766667e+00    2.948116e+00
  3.782543e+00    3.014456e+00
  3.798418e+00    3.020162e+00
  3.814294e+00    2.995570e+00
  3.830170e+00    3.025193e+00
  3.846045e+00    3.034440e+00
  3.861921e+00    3.006105e+00
  3.877796e+00    2.945460e+00
  3.893672e+00    2.907375e+00
  3.909547e+00    2.986750e+00
  3.925423e+00    3.008953e+00
  3.941299e+00    2.996428e+00
  3.957174e+00    2.998686e+00
  3.973050e+00    3.010360e+00
  3.988925e+00    2.963869e+00
  4.004801e+00    2.979870e+00
  4.020676e+00    3.019336e+00
  4.036552e+00    3.010730e+00
  4.052428e+00    3.065715e+00
  4.068303e+00    3.019822e+00
  4.084179e+00    2.940053e+00
  4.100054e+00    2.883932e+00
  4.115930e+00    2.995688e+00
  4.131806e+00    2.989975e+00
  4.147681e+00    3.010430e+00
  4.163557e+00    3.009436e+00
  4.179432e+00    3.019521e+00
  4.195308e+00    2.955276e+00
  4.211183e+00    2.960342e+00
  4.227059e+00    2.943147e+00
  4.242935e+00    2.997888e+00
  4.258810e+00    3.008080e+00
  4.274686e+00    3.029757e+00
  4.290561e+00    3.095520e+00
  4.306437e+00    3.096109e+00
  4.322312e+00    3.046918e+00
  4.338188e+00    3.060948e+00
  4.354064e+00    3.058835e+00
  4.369939e+00    3.086489e+00
  4.385815e+00    3.150842e+00
  4.401690e+00    3.093176e+00
  4.417566e+00    3.002843e+00
  4.433441e+00    3.073367e+00
  4.449317e+00    3.126351e+00
  4.465193e+00    3.151142e+00
  4.481068e+00    3.133026e+00
  4.496944e+00    3.116261e+00
  4.512819e+00    3.099377e+00
  4.528695e+00    3.132415e+00
  4.544570e+00    3.190360e+00
  4.560446e+00    3.063852e+00
  4.576322e+00    2.977448e+00
  4.592197e+00    3.048347e+00
  4.608073e+00    3.051408e+00
  4.623948e+00    2.982251e+00
  4.639824e+00    3.028765e+00
  4.655699e+00    3.041968e+00
  4.671575e+00    3.104949e+00
  4.687451e+00    3.136402e+00
  4.703326e+00    3.084034e+00
  4.719202e+00    3.077728e+00
  4.735077e+00    3.063495e+00
  4.750953e+00    3.116032e+00
  4.766828e+00    3.200575e+00
  4.782704e+00    3.130312e+00
  4.798580e+00    3.144270e+00
  4.814455e+00    3.087724e+00
  4.830331e+00    3.015829e+00
  4.846206e+00    3.037800e+00
  4.862082e+00    3.059732e+00
  4.877957e+00    3.069287e+00
  4.893833e+00    3.110460e+00
  4.909709e+00    3.069429e+00
  4.925584e+00    3.134552e+00
  4.941460e+00    3.100505e+00
  4.957335e+00    3.116793e+00
  4.973211e+00    3.099330e+00
  4.989086e+00    3.117769e+00
  5.004962e+00    3.136071e+00
  5.020838e+00    3.122459e+00
  5.036713e+00    3.081487e+00
  5.052589e+00    3.031239e+00
  5.068464e+00    3.050990e+00
  5.084340e+00    3.153164e+00
  5.100216e+00    3.124252e+00
  5.116091e+00    3.084424e+00
  5.131967e+00    3.149611e+00
  5.147842e+00    3.189554e+00
  5.163718e+00    3.135951e+00
  5.179593e+00    3.064820e+00
  5.195469e+00    3.110629e+00
  5.211345e+00    3.151965e+00
  5.227220e+00    3.177948e+00
  5.243096e+00    3.138341e+00
  5.258971e+00    3.093004e+00
  5.274847e+00    3.130179e+00
  5.290722e+00    3.169853e+00
  5.306598e+00    3.147907e+00
  5.322474e+00    3.160925e+00
  5.338349e+00    3.127951e+00
  5.354225e+00    3.182550e+00
  5.370100e+00    3.112756e+00
  5.385976e+00    3.050289e+00
  5.401851e+00    3.081124e+00
  5.417727e+00    3.031958e+00
  5.433603e+00    3.030600e+00
  5.449478e+00    3.062029e+00
  5.465354e+00    3.050205e+00
  5.481229e+00    3.023626e+00
  5.497105e+00    3.126210e+00
  5.512980e+00    3.036823e+00
  5.528856e+00    3.083214e+00
  5.544732e+00    3.045685e+00
  5.560607e+00    2.992865e+00
  5.576483e+00    3.056986e+00
  5.592358e+00    3.037369e+00
  5.608234e+00    3.089052e+00
  5.624109e+00    3.087708e+00
  5.639985e+00    3.052430e+00
  5.655861e+00    3.054797e+00
  5.671736e+00    3.067764e+00
  5.687612e+00    3.087133e+00
  5.703487e+00    3.069967e+00
  5.719363e+00    3.053986e+00
  5.735238e+00    3.054170e+00
  5.751114e+00    3.010151e+00
  5.766990e+00    3.030119e+00
  5.782865e+00    3.001559e+00
  5.798741e+00    2.972128e+00
  5.814616e+00    3.015935e+00
  5.830492e+00    2.993205e+00
  5.846367e+00    3.109915e+00
  5.862243e+00    3.138158e+00
  5.878119e+00    3.060442e+00
  5.893994e+00    2.975740e+00
  5.909870e+00    3.058970e+00
  5.925745e+00    3.063797e+00
  5.941621e+00    3.011397e+00
  5.957497e+00    3.034612e+00
  5.973372e+00    2.953395e+00
  5.989248e+00    2.959800e+00
  6.005123e+00    2.983541e+00
  6.020999e+00    3.049533e+00
  6.036874e+00    3.091893e+00
  6.052750e+00    3.081574e+00
  6.068626e+00    3.017237e+00
  6.084501e+00    3.055004e+00
  6.100377e+00    2.988983e+00
  6.116252e+00    3.000974e+00
  6.132128e+00    3.026086e+00
  6.148003e+00    2.997826e+00
  6.163879e+00    3.026072e+00
  6.179755e+00    3.106160e+00
  6.195630e+00    3.057753e+00
  6.211506e+00    3.014325e+00
  6.227381e+00    3.021864e+00
  6.243257e+00    3.106715e+00
  6.259132e+00    3.025343e+00
  6.275008e+00    3.043159e+00
  6.290884e+00    3.054162e+00
  6.306759e+00    3.002964e+00
  6.322635e+00    3.095349e+00
  6.338510e+00    3.065715e+00
  6.354386e+00    2.956239e+00
  6.370261e+00    3.011698e+00
  6.386137e+00    2.994659e+00
  6.402013e+00    3.000432e+00
  6.417888e+00    3.011812e+00
  6.433764e+00    2.957977e+00
  6.449639e+00    2.990698e+00
  6.465515e+00    3.008613e+00
  6.481390e+00    3.067404e+00
  6.497266e+00    3.000700e+00
  6.513142e+00    3.065022e+00
  6.529017e+00    2.998625e+00
  6.544893e+00    3.041669e+00
  6.560768e+00    2.988178e+00
  6.576644e+00    2.967250e+00
  6.592519e+00    3.042625e+00
  6.608395e+00    3.026656e+00
  6.624271e+00    2.980105e+00
  6.640146e+00    3.068760e+00
  6.656022e+00    3.031543e+00
  6.671897e+00    3.018261e+00
  6.687773e+00    3.041375e+00
  6.703648e+00    3.015042e+00
  6.719524e+00    3.012107e+00
  6.735400e+00    2.942971e+00
  6.751275e+00    2.924265e+00
  6.767151e+00    2.985634e+00
  6.783026e+00    3.032591e+00
  6.798902e+00    2.959646e+00
  6.814777e+00    3.053123e+00
  6.830653e+00    3.042450e+00
  6.846529e+00    3.039346e+00
  6.862404e+00    3.059856e+00
  6.878280e+00    3.019577e+00
  6.894155e+00    3.031244e+00
  6.910031e+00    2.983294e+00
  6.925907e+00    3.002277e+00
  6.941782e+00    3.018848e+00
  6.957658e+00    3.062595e+00
  6.973533e+00    3.046896e+00
  6.989409e+00    3.027586e+00
  7.005284e+00    3.037213e+00
  7.021160e+00    2.985279e+00
  7.037036e+00    2.947838e+00
  7.052911e+00    2.986763e+00
  7.068787e+00    2.961858e+00
  7.084662e+00    2.991311e+00
  7.100538e+00    2.956262e+00
  7.116413e+00    2.933264e+00
  7.132289e+00    2.992467e+00
  7.148165e+00    3.042802e+00
  7.164040e+00    3.044512e+00
  7.179916e+00    3.037005e+00
  7.195791e+00    2.997003e+00
  7.211667e+00    2.976186e+00
  7.227542e+00    2.899297e+00
  7.243418e+00    2.915428e+00
  7.259294e+00    2.942224e+00
  7.275169e+00    2.979820e+00
  7.291045e+00    2.969920e+00
  7.306920e+00    2.957205e+00
  7.322796e+00    2.965041e+00
  7.338671e+00    3.010238e+00
  7.354547e+00    3.007303e+00
  7.370423e+00    2.992818e+00
  7.386298e+00    3.030449e+00
  7.402174e+00    3.027848e+00
  7.418049e+00    3.021295e+00
  7.433925e+00    3.036332e+00
  7.449800e+00    2.982322e+00
  7.465676e+00    3.037728e+00
  7.481552e+00    3.030462e+00
  7.497427e+00    3.065701e+00
  7.513303e+00    3.010430e+00
  7.529178e+00    2.915105e+00
  7.545054e+00    2.955582e+00
  7.560929e+00    2.925059e+00
  7.576805e+00    2.927701e+00
  7.592681e+00    2.948338e+00
  7.608556e+00    2.887813e+00
  7.624432e+00    2.884230e+00
  7.640307e+00    2.923093e+00
  7.656183e+00    3.003767e+00
  7.672058e+00    2.946286e+00
  7.687934e+00    2.912910e+00
  7.703810e+00    2.902196e+00
  7.719685e+00    2.886643e+00
  7.735561e+00    2.937853e+00
  7.751436e+00    2.879676e+00
  7.767312e+00    2.897418e+00
  7.783187e+00    2.948235e+00
  7.799063e+00    2.880543e+00
  7.814939e+00    2.899832e+00
  7.830814e+00    2.866930e+00
  7.846690e+00    2.892277e+00
  7.862565e+00    2.880862e+00
  7.878441e+00    2.972526e+00
  7.894317e+00    2.964115e+00
  7.910192e+00    2.927230e+00
  7.926068e+00    2.894395e+00
  7.941943e+00    2.959241e+00
  7.957819e+00    2.868929e+00
  7.973694e+00    2.977562e+00
  7.989570e+00    2.964154e+00
  8.005446e+00    2.901844e+00
  8.021321e+00    2.880814e+00
  8.037197e+00    2.908314e+00
  8.053072e+00    2.876927e+00
  8.068948e+00    2.884749e+00
  8.084823e+00    2.935843e+00
  8.100699e+00    2.929659e+00
  8.116575e+00    2.942002e+00
  8.132450e+00    2.944415e+00
  8.148326e+00    2.934063e+00
  8.164201e+00    2.874148e+00
  8.180077e+00    2.948124e+00
  8.195952e+00    2.928423e+00
  8.211828e+00    2.909348e+00
  8.227704e+00    2.950905e+00
  8.243579e+00    2.929335e+00
  8.259455e+00    2.930265e+00
  8.275330e+00    2.931204e+00
  8.291206e+00    2.917864e+00
  8.307081e+00    2.911229e+00
  8.322957e+00    2.934845e+00
  8.338833e+00    2.917852e+00
  8.354708e+00    2.903121e+00
  8.370584e+00    2.891702e+00
  8.386459e+00    2.868188e+00
  8.402335e+00    2.892217e+00
  8.418210e+00    2.907681e+00
  8.434086e+00    2.898873e+00
  8.449962e+00    2.874498e+00
  8.465837e+00    2.859232e+00
  8.481713e+00    2.879855e+00
  8.497588e+00    2.827446e+00
  8.513464e+00    2.870132e+00
  8.529339e+00    2.853776e+00
  8.545215e+00    2.854421e+00
  8.561091e+00    2.843354e+00
  8.576966e+00    2.832579e+00
  8.592842e+00    2.867430e+00
  8.608717e+00    2.842066e+00
  8.624593e+00    2.905090e+00
  8.640468e+00    2.832566e+00
  8.656344e+00    2.749778e+00
  8.672220e+00    2.837221e+00
  8.688095e+00    2.878473e+00
  8.703971e+00    2.852501e+00
  8.719846e+00    2.792451e+00
  8.735722e+00    2.831650e+00
  8.751598e+00    2.836166e+00
  8.767473e+00    2.839759e+00
  8.783349e+00    2.783929e+00
  8.799224e+00    2.834820e+00
  8.815100e+00    2.757441e+00
  8.830975e+00    2.793954e+00
  8.846851e+00    2.860938e+00
  8.862727e+00    2.821059e+00
  8.878602e+00    2.844814e+00
  8.894478e+00    2.833876e+00
  8.910353e+00    2.807670e+00
  8.926229e+00    2.774503e+00
  8.942104e+00    2.759278e+00
  8.957980e+00    2.748993e+00
  8.973856e+00    2.790349e+00
  8.989731e+00    2.814987e+00
  9.005607e+00    2.800904e+00
  9.021482e+00    2.790173e+00
  9.037358e+00    2.776145e+00
  9.053233e+00    2.776071e+00
  9.069109e+00    2.801825e+00
  9.084985e+00    2.779277e+00
  9.100860e+00    2.762402e+00
  9.116736e+00    2.785121e+00
  9.132611e+00    2.852664e+00
  9.148487e+00    2.836393e+00
  9.164362e+00    2.829990e+00
  9.180238e+00    2.792087e+00
  9.196114e+00    2.756699e+00
  9.211989e+00    2.789646e+00
  9.227865e+00    2.793294e+00
  9.243740e+00    2.796863e+00
  9.259616e+00    2.804646e+00
  9.275491e+00    2.767278e+00
  9.291367e+00    2.738658e+00
  9.307243e+00    2.721412e+00
  9.323118e+00    2.742172e+00
  9.338994e+00    2.742511e+00
  9.354869e+00    2.745916e+00
  9.370745e+00    2.736923e+00
  9.386620e+00    2.767953e+00
  9.402496e+00    2.681176e+00
  9.418372e+00    2.721269e+00
  9.434247e+00    2.735468e+00
  9.450123e+00    2.723966e+00
  9.465998e+00    2.706053e+00
  9.481874e+00    2.785563e+00
  9.497749e+00    2.754089e+00
  9.513625e+00    2.746529e+00
  9.529501e+00    2.708349e+00
  9.545376e+00    2.713078e+00
  9.561252e+00    2.743170e+00
  9.577127e+00    2.817454e+00
  9.593003e+00    2.822717e+00
  9.608878e+00    2.781481e+00
  9.624754e+00    2.789686e+00
  9.640630e+00    2.799112e+00
  9.656505e+00    2.729321e+00
  9.672381e+00    2.688798e+00
  9.688256e+00    2.701858e+00
  9.704132e+00    2.730810e+00
  9.720008e+00    2.792344e+00
  9.735883e+00    2.744153e+00
  9.751759e+00    2.754571e+00
  9.767634e+00    2.726789e+00
  9.783510e+00    2.737941e+00
  9.799385e+00    2.762676e+00
  9.815261e+00    2.758241e+00
  9.831137e+00    2.728579e+00
  9.847012e+00    2.704429e+00
  9.862888e+00    2.705790e+00
  9.878763e+00    2.692016e+00
  9.894639e+00    2.677772e+00
  9.910514e+00    2.697640e+00
  9.926390e+00    2.641594e+00
  9.942266e+00    2.668126e+00
  9.958141e+00    2.626436e+00
  9.974017e+00    2.651711e+00
  9.989892e+00    2.675967e+00
  1.000577e+01    2.657177e+00
  1.002164e+01    2.663166e+00
  1.003752e+01    2.611363e+00
  1.005339e+01    2.658198e+00
  1.006927e+01    2.670357e+00
  1.008515e+01    2.695845e+00
  1.010102e+01    2.688753e+00
  1.011690e+01    2.632786e+00
  1.013277e+01    2.633284e+00
  1.014865e+01    2.669969e+00
  1.016452e+01    2.615666e+00
  1.018040e+01    2.597316e+00
  1.019627e+01    2.640652e+00
  1.021215e+01    2.704765e+00
  1.022803e+01    2.685389e+00
  1.024390e+01    2.634242e+00
  1.025978e+01    2.616572e+00
  1.027565e+01    2.622382e+00
  1.029153e+01    2.615727e+00
  1.030740e+01    2.652819e+00
  1.032328e+01    2.630578e+00
  1.033915e+01    2.628798e+00
  1.035503e+01    2.619299e+00
  1.037091e+01    2.580337e+00
  1.038678e+01    2.584671e+00
  1.040266e+01    2.547811e+00
  1.041853e+01    2.544025e+00
  1.043441e+01    2.565021e+00
  1.045028e+01    2.621645e+00
  1.046616e+01    2.637775e+00
  1.048204e+01    2.601994e+00
  1.049791e+01    2.602317e+00
  1.051379e+01    2.624159e+00
  1.052966e+01    2.613739e+00
  1.054554e+01    2.611268e+00
  1.056141e+01    2.610103e+00
  1.057729e+01    2.600139e+00
  1.059316e+01    2.571155e+00
  1.060904e+01    2.580738e+00
  1.062492e+01    2.554782e+00
  1.064079e+01    2.575577e+00
  1.065667e+01    2.593598e+00
  1.067254e+01    2.558130e+00
  1.068842e+01    2.549577e+00
  1.070429e+01    2.550239e+00
  1.072017e+01    2.550709e+00
  1.073604e+01    2.499579e+00
  1.075192e+01    2.503666e+00
  1.076780e+01    2.521464e+00
  1.078367e+01    2.552135e+00
  1.079955e+01    2.515149e+00
  1.081542e+01    2.510371e+00
  1.083130e+01    2.540857e+00
  1.084717e+01    2.487280e+00
  1.086305e+01    2.520771e+00
  1.087892e+01    2.505798e+00
  1.089480e+01    2.465456e+00
  1.091068e+01    2.478300e+00
  1.092655e+01    2.533785e+00
  1.094243e+01    2.490442e+00
  1.095830e+01    2.528367e+00
  1.097418e+01    2.517123e+00
  1.099005e+01    2.521430e+00
  1.100593e+01    2.466903e+00
  1.102180e+01    2.446258e+00
  1.103768e+01    2.473684e+00
  1.105356e+01    2.476045e+00
  1.106943e+01    2.459795e+00
  1.108531e+01    2.473799e+00
  1.110118e+01    2.486267e+00
  1.111706e+01    2.510341e+00
  1.113293e+01    2.477679e+00
  1.114881e+01    2.428101e+00
  1.116468e+01    2.415994e+00
  1.118056e+01    2.411956e+00
  1.119644e+01    2.433301e+00
  1.121231e+01    2.468057e+00
  1.122819e+01    2.456696e+00
  1.124406e+01    2.424280e+00
  1.125994e+01    2.412187e+00
  1.127581e+01    2.429717e+00
  1.129169e+01    2.485762e+00
  1.130756e+01    2.433030e+00
  1.132344e+01    2.427611e+00
  1.133932e+01    2.461335e+00
  1.135519e+01    2.437219e+00
  1.137107e+01    2.424603e+00
  1.138694e+01    2.428286e+00
  1.140282e+01    2.404176e+00
  1.141869e+01    2.409026e+00
  1.143457e+01    2.386704e+00
  1.145045e+01    2.376811e+00
  1.146632e+01    2.370447e+00
  1.148220e+01    2.374074e+00
  1.149807e+01    2.431527e+00
  1.151395e+01    2.427954e+00
  1.152982e+01    2.398639e+00
  1.154570e+01    2.408125e+00
  1.156157e+01    2.370474e+00
  1.157745e+01    2.374662e+00
  1.159333e+01    2.357071e+00
  1.160920e+01    2.368623e+00
  1.162508e+01    2.411587e+00
  1.164095e+01    2.396362e+00
  1.165683e+01    2.350940e+00
  1.167270e+01    2.377724e+00
  1.168858e+01    2.370099e+00
  1.170445e+01    2.344566e+00
  1.172033e+01    2.363148e+00
  1.173621e+01    2.359827e+00
  1.175208e+01    2.339397e+00
  1.176796e+01    2.358497e+00
  1.178383e+01    2.389410e+00
  1.179971e+01    2.312010e+00
  1.181558e+01    2.361942e+00
  1.183146e+01    2.356131e+00
  1.184733e+01    2.356426e+00
  1.186321e+01    2.396006e+00
  1.187909e+01    2.332921e+00
  1.189496e+01    2.299335e+00
  1.191084e+01    2.344882e+00
  1.192671e+01    2.333628e+00
  1.194259e+01    2.317290e+00
  1.195846e+01    2.327088e+00
  1.197434e+01    2.302060e+00
  1.199021e+01    2.311930e+00
  1.200609e+01    2.332814e+00
  1.202197e+01    2.340985e+00
  1.203784e+01    2.293455e+00
  1.205372e+01    2.296184e+00
  1.206959e+01    2.328331e+00
  1.208547e+01    2.353516e+00
  1.210134e+01    2.298608e+00
  1.211722e+01    2.268464e+00
  1.213309e+01    2.299694e+00
  1.214897e+01    2.302503e+00
  1.216485e+01    2.302228e+00
  1.218072e+01    2.308717e+00
  1.219660e+01    2.313969e+00
  1.221247e+01    2.325143e+00
  1.222835e+01    2.322207e+00
  1.224422e+01    2.316569e+00
  1.226010e+01    2.307778e+00
  1.227597e+01    2.319909e+00
  1.229185e+01    2.341948e+00
  1.230773e+01    2.340899e+00
  1.232360e+01    2.376557e+00
  1.233948e+01    2.347105e+00
  1.235535e+01    2.344418e+00
  1.237123e+01    2.339741e+00
  1.238710e+01    2.275449e+00
  1.240298e+01    2.317626e+00
  1.241886e+01    2.313735e+00
  1.243473e+01    2.314155e+00
  1.245061e+01    2.320186e+00
  1.246648e+01    2.347712e+00
  1.248236e+01    2.310809e+00
  1.249823e+01    2.310956e+00
  1.251411e+01    2.369643e+00
  1.252998e+01    2.377531e+00
  1.254586e+01    2.344602e+00
  1.256174e+01    2.347512e+00
  1.257761e+01    2.418058e+00
  1.259349e+01    2.399944e+00
  1.260936e+01    2.356369e+00
  1.262524e+01    2.386493e+00
  1.264111e+01    2.428524e+00
  1.265699e+01    2.379958e+00
  1.267286e+01    2.389238e+00
  1.268874e+01    2.407051e+00
  1.270462e+01    2.487583e+00
  1.272049e+01    2.540527e+00
  1.273637e+01    2.496697e+00
  1.275224e+01    2.535006e+00
  1.276812e+01    2.622160e+00
  1.278399e+01    2.651266e+00
  1.279987e+01    2.680895e+00
  1.281574e+01    2.686522e+00
  1.283162e+01    2.753860e+00
  1.284750e+01    2.813560e+00
  1.286337e+01    2.946068e+00
  1.287925e+01    3.043977e+00
  1.289512e+01    3.165772e+00
  1.291100e+01    3.239797e+00
  1.292687e+01    3.408735e+00
  1.294275e+01    3.699180e+00
  1.295862e+01    3.967280e+00
  1.297450e+01    4.274436e+00
  1.299038e+01    4.679550e+00
  1.300625e+01    5.227715e+00
  1.302213e+01    6.027991e+00
  1.303800e+01    6.962592e+00
  1.305388e+01    8.041390e+00
  1.306975e+01    9.275442e+00
  1.308563e+01    1.058628e+01
  1.310150e+01    1.210020e+01
  1.311738e+01    1.357212e+01
  1.313326e+01    1.500064e+01
  1.314913e+01    1.640951e+01
  1.316501e+01    1.748400e+01
  1.318088e+01    1.837025e+01
  1.319676e+01    1.868522e+01
  1.321263e+01    1.782706e+01
  1.322851e+01    1.614264e+01
  1.324438e+01    1.403558e+01
  1.326026e+01    1.188896e+01
  1.327614e+01    1.002454e+01
  1.329201e+01    8.477025e+00
  1.330789e+01    7.179287e+00
  1.332376e+01    6.270661e+00
  1.333964e+01    5.538091e+00
  1.335551e+01    4.890939e+00
  1.337139e+01    4.423633e+00
  1.338727e+01    4.071290e+00
  1.340314e+01    3.777887e+00
  1.341902e+01    3.526715e+00
  1.343489e+01    3.324058e+00
  1.345077e+01    3.162118e+00
  1.346664e+01    3.034456e+00
  1.348252e+01    2.888911e+00
  1.349839e+01    2.788143e+00
  1.351427e+01    2.787218e+00
  1.353015e+01    2.712227e+00
  1.354602e+01    2.623984e+00
  1.356190e+01    2.565652e+00
  1.357777e+01    2.497282e+00
  1.359365e+01    2.471922e+00
  1.360952e+01    2.429080e+00
  1.362540e+01    2.377961e+00
  1.364127e+01    2.326200e+00
  1.365715e+01    2.307774e+00
  1.367303e+01    2.293986e+00
  1.368890e+01    2.276325e+00
  1.370478e+01    2.287172e+00
  1.372065e+01    2.254232e+00
  1.373653e+01    2.253276e+00
  1.375240e+01    2.198249e+00
  1.376828e+01    2.191086e+00
  1.378415e+01    2.176872e+00
  1.380003e+01    2.115664e+00
  1.381591e+01    2.097823e+00
  1.383178e+01    2.094584e+00
  1.384766e+01    2.090006e+00
  1.386353e+01    2.116234e+00
  1.387941e+01    2.142811e+00
  1.389528e+01    2.149266e+00
  1.391116e+01    2.105280e+00
  1.392703e+01    2.102461e+00
  1.394291e+01    2.083106e+00
  1.395879e+01    2.097387e+00
  1.397466e+01    2.074680e+00
  1.399054e+01    2.061672e+00
  1.400641e+01    2.064410e+00
  1.402229e+01    2.094225e+00
  1.403816e+01    2.036454e+00
  1.405404e+01    2.025587e+00
  1.406991e+01    1.992563e+00
  1.408579e+01    1.984541e+00
  1.410167e+01    2.015723e+00
  1.411754e+01    2.023957e+00
  1.413342e+01    1.998701e+00
  1.414929e+01    1.980606e+00
  1.416517e+01    2.009212e+00
  1.418104e+01    2.026170e+00
  1.419692e+01    1.986376e+00
  1.421279e+01    2.012332e+00
  1.422867e+01    1.994676e+00
  1.424455e+01    1.954400e+00
  1.426042e+01    1.960821e+00
  1.427630e+01    1.983200e+00
  1.429217e+01    1.972296e+00
  1.430805e+01    1.952347e+00
  1.432392e+01    1.947333e+00
  1.433980e+01    1.951689e+00
  1.435568e+01    1.933341e+00
  1.437155e+01    1.952842e+00
  1.438743e+01    1.934013e+00
  1.440330e+01    1.945831e+00
  1.441918e+01    1.961153e+00
  1.443505e+01    1.921525e+00
  1.445093e+01    1.883991e+00
  1.446680e+01    1.880559e+00
  1.448268e+01    1.945531e+00
  1.449856e+01    1.896508e+00
  1.451443e+01    1.906385e+00
  1.453031e+01    1.975108e+00
  1.454618e+01    1.939263e+00
  1.456206e+01    1.904475e+00
  1.457793e+01    1.905211e+00
  1.459381e+01    1.870127e+00
  1.460968e+01    1.875367e+00
  1.462556e+01    1.888670e+00
  1.464144e+01    1.913778e+00
  1.465731e+01    1.929642e+00
  1.467319e+01    1.873783e+00
  1.468906e+01    1.865492e+00
  1.470494e+01    1.936979e+00
  1.472081e+01    1.938511e+00
  1.473669e+01    1.906137e+00
  1.475256e+01    1.884386e+00
  1.476844e+01    1.903988e+00
  1.478432e+01    1.902020e+00
  1.480019e+01    1.913080e+00
  1.481607e+01    1.904332e+00
  1.483194e+01    1.948652e+00
  1.484782e+01    1.921381e+00
  1.486369e+01    1.918153e+00
  1.487957e+01    1.941408e+00
  1.489544e+01    1.960417e+00
  1.491132e+01    1.954022e+00
  1.492720e+01    1.953063e+00
  1.494307e+01    1.971175e+00
  1.495895e+01    2.009951e+00
  1.497482e+01    2.085951e+00
  1.499070e+01    2.076234e+00
  1.500657e+01    2.075600e+00
  1.502245e+01    2.160592e+00
  1.503832e+01    2.280714e+00
  1.505420e+01    2.369507e+00
  1.507008e+01    2.488716e+00
  1.508595e+01    2.619664e+00
  1.510183e+01    2.798509e+00
  1.511770e+01    3.019365e+00
  1.513358e+01    3.363646e+00
  1.514945e+01    3.672584e+00
  1.516533e+01    4.041844e+00
  1.518120e+01    4.413051e+00
  1.519708e+01    4.805847e+00
  1.521296e+01    5.242560e+00
  1.522883e+01    5.662777e+00
  1.524471e+01    5.869795e+00
  1.526058e+01    6.141178e+00
  1.527646e+01    6.328555e+00
  1.529233e+01    6.270735e+00
  1.530821e+01    6.047468e+00
  1.532409e+01    5.566895e+00
  1.533996e+01    5.016369e+00
  1.535584e+01    4.416427e+00
  1.537171e+01    3.884849e+00
  1.538759e+01    3.492096e+00
  1.540346e+01    3.167100e+00
  1.541934e+01    2.844493e+00
  1.543521e+01    2.644900e+00
  1.545109e+01    2.474631e+00
  1.546697e+01    2.340343e+00
  1.548284e+01    2.230556e+00
  1.549872e+01    2.144786e+00
  1.551459e+01    2.070810e+00
  1.553047e+01    2.021396e+00
  1.554634e+01    1.983617e+00
  1.556222e+01    1.922984e+00
  1.557809e+01    1.935241e+00
  1.559397e+01    1.896194e+00
  1.560985e+01    1.807755e+00
  1.562572e+01    1.842954e+00
  1.564160e+01    1.866806e+00
  1.565747e+01    1.846711e+00
  1.567335e+01    1.781787e+00
  1.568922e+01    1.765588e+00
  1.570510e+01    1.753110e+00
  1.572097e+01    1.749629e+00
  1.573685e+01    1.762044e+00
  1.575273e+01    1.732816e+00
  1.576860e+01    1.731198e+00
  1.578448e+01    1.703419e+00
  1.580035e+01    1.695828e+00
  1.581623e+01    1.699831e+00
  1.583210e+01    1.672450e+00
  1.584798e+01    1.684575e+00
  1.586385e+01    1.687241e+00
  1.587973e+01    1.626438e+00
  1.589561e+01    1.657888e+00
  1.591148e+01    1.687396e+00
  1.592736e+01    1.641901e+00
  1.594323e+01    1.632888e+00
  1.595911e+01    1.626663e+00
  1.597498e+01    1.628284e+00
  1.599086e+01    1.595070e+00
  1.600673e+01    1.578052e+00
  1.602261e+01    1.605080e+00
  1.603849e+01    1.600431e+00
  1.605436e+01    1.617769e+00
  1.607024e+01    1.613864e+00
  1.608611e+01    1.611632e+00
  1.610199e+01    1.588911e+00
  1.611786e+01    1.600983e+00
  1.613374e+01    1.568332e+00
  1.614961e+01    1.547475e+00
  1.616549e+01    1.562093e+00
  1.618137e+01    1.575897e+00
  1.619724e+01    1.567217e+00
  1.621312e+01    1.562542e+00
  1.622899e+01    1.574686e+00
  1.624487e+01    1.554483e+00
  1.626074e+01    1.573035e+00
  1.627662e+01    1.572161e+00
  1.629250e+01    1.534789e+00
  1.630837e+01    1.515090e+00
  1.632425e+01    1.525242e+00
  1.634012e+01    1.550204e+00
  1.635600e+01    1.531252e+00
  1.637187e+01    1.506531e+00
  1.638775e+01    1.531692e+00
  1.640362e+01    1.526805e+00
  1.641950e+01    1.520976e+00
  1.643538e+01    1.538614e+00
  1.645125e+01    1.522764e+00
  1.646713e+01    1.501048e+00
  1.648300e+01    1.521041e+00
  1.649888e+01    1.514043e+00
  1.651475e+01    1.511332e+00
  1.653063e+01    1.522302e+00
  1.654650e+01    1.499034e+00
  1.656238e+01    1.500308e+00
  1.657826e+01    1.470950e+00
  1.659413e+01    1.475837e+00
  1.661001e+01    1.504656e+00
  1.662588e+01    1.489398e+00
  1.664176e+01    1.479301e+00
  1.665763e+01    1.504221e+00
  1.667351e+01    1.485895e+00
  1.668938e+01    1.467691e+00
  1.670526e+01    1.459373e+00
  1.672114e+01    1.457859e+00
  1.673701e+01    1.437798e+00
  1.675289e+01    1.442371e+00
  1.676876e+01    1.457611e+00
  1.678464e+01    1.419153e+00
  1.680051e+01    1.477132e+00
  1.681639e+01    1.453887e+00
  1.683226e+01    1.436957e+00
  1.684814e+01    1.419780e+00
  1.686402e+01    1.444540e+00
  1.687989e+01    1.454370e+00
  1.689577e+01    1.468540e+00
  1.691164e+01    1.473680e+00
  1.692752e+01    1.456381e+00
  1.694339e+01    1.446641e+00
  1.695927e+01    1.443839e+00
  1.697514e+01    1.444196e+00
  1.699102e+01    1.427416e+00
  1.700690e+01    1.440346e+00
  1.702277e+01    1.410106e+00
  1.703865e+01    1.421819e+00
  1.705452e+01    1.441131e+00
  1.707040e+01    1.443532e+00
  1.708627e+01    1.420598e+00
  1.710215e+01    1.426762e+00
  1.711802e+01    1.435739e+00
  1.713390e+01    1.432553e+00
  1.714978e+01    1.411174e+00
  1.716565e+01    1.416160e+00
  1.718153e+01    1.422081e+00
  1.719740e+01    1.400073e+00
  1.721328e+01    1.390453e+00
  1.722915e+01    1.396857e+00
  1.724503e+01    1.411109e+00
  1.726091e+01    1.410424e+00
  1.727678e+01    1.389211e+00
  1.729266e+01    1.383039e+00
  1.730853e+01    1.375613e+00
  1.732441e+01    1.405382e+00
  1.734028e+01    1.388981e+00
  1.735616e+01    1.366264e+00
  1.737203e+01    1.367249e+00
  1.738791e+01    1.388648e+00
  1.740379e+01    1.396398e+00
  1.741966e+01    1.387347e+00
  1.743554e+01    1.384191e+00
  1.745141e+01    1.363361e+00
  1.746729e+01    1.356497e+00
  1.748316e+01    1.363575e+00
  1.749904e+01    1.357416e+00
  1.751491e+01    1.352782e+00
  1.753079e+01    1.370132e+00
  1.754667e+01    1.369418e+00
  1.756254e+01    1.378143e+00
  1.757842e+01    1.381620e+00
  1.759429e+01    1.339678e+00
  1.761017e+01    1.335074e+00
  1.762604e+01    1.356390e+00
  1.764192e+01    1.355254e+00
  1.765779e+01    1.354878e+00
  1.767367e+01    1.366186e+00
  1.768955e+01    1.353566e+00
  1.770542e+01    1.357963e+00
  1.772130e+01    1.368197e+00
  1.773717e+01    1.332771e+00
  1.775305e+01    1.320505e+00
  1.776892e+01    1.328976e+00
  1.778480e+01    1.311441e+00
  1.780067e+01    1.350006e+00
  1.781655e+01    1.359548e+00
  1.783243e+01    1.318280e+00
  1.784830e+01    1.300971e+00
  1.786418e+01    1.304460e+00
  1.788005e+01    1.306298e+00
  1.789593e+01    1.313371e+00
  1.791180e+01    1.311571e+00
  1.792768e+01    1.298391e+00
  1.794355e+01    1.301284e+00
  1.795943e+01    1.305912e+00
  1.797531e+01    1.329093e+00
  1.799118e+01    1.306465e+00
  1.800706e+01    1.312629e+00
  1.802293e+01    1.284846e+00
  1.803881e+01    1.290061e+00
  1.805468e+01    1.320742e+00
  1.807056e+01    1.316430e+00
  1.808643e+01    1.270740e+00
  1.810231e+01    1.298009e+00
  1.811819e+01    1.311227e+00
  1.813406e+01    1.330937e+00
  1.814994e+01    1.308204e+00
  1.816581e+01    1.310869e+00
  1.818169e+01    1.293666e+00
  1.819756e+01    1.273713e+00
  1.821344e+01    1.296875e+00
  1.822932e+01    1.305609e+00
  1.824519e+01    1.280753e+00
  1.826107e+01    1.247823e+00
  1.827694e+01    1.239525e+00
  1.829282e+01    1.253873e+00
  1.830869e+01    1.265230e+00
  1.832457e+01    1.275300e+00
  1.834044e+01    1.277025e+00
  1.835632e+01    1.290865e+00
  1.837220e+01    1.287124e+00
  1.838807e+01    1.254098e+00
  1.840395e+01    1.234896e+00
  1.841982e+01    1.230141e+00
  1.843570e+01    1.247626e+00
  1.845157e+01    1.261768e+00
  1.846745e+01    1.233779e+00
  1.848332e+01    1.258348e+00
  1.849920e+01    1.242200e+00
  1.851508e+01    1.245403e+00
  1.853095e+01    1.233999e+00
  1.854683e+01    1.235335e+00
  1.856270e+01    1.262491e+00
  1.857858e+01    1.279624e+00
  1.859445e+01    1.266109e+00
  1.861033e+01    1.255488e+00
  1.862620e+01    1.233699e+00
  1.864208e+01    1.230029e+00
  1.865796e+01    1.221874e+00
  1.867383e+01    1.264012e+00
  1.868971e+01    1.247014e+00
  1.870558e+01    1.221302e+00
  1.872146e+01    1.212968e+00
  1.873733e+01    1.208724e+00
  1.875321e+01    1.210550e+00
  1.876908e+01    1.192717e+00
  1.878496e+01    1.202922e+00
  1.880084e+01    1.218890e+00
  1.881671e+01    1.213364e+00
  1.883259e+01    1.213405e+00
  1.884846e+01    1.197530e+00
  1.886434e+01    1.213212e+00
  1.888021e+01    1.209048e+00
  1.889609e+01    1.189346e+00
  1.891196e+01    1.214696e+00
  1.892784e+01    1.231108e+00
  1.894372e+01    1.227590e+00
  1.895959e+01    1.208549e+00
  1.897547e+01    1.213117e+00
  1.899134e+01    1.210932e+00
  1.900722e+01    1.208528e+00
  1.902309e+01    1.215780e+00
  1.903897e+01    1.217901e+00
  1.905484e+01    1.209906e+00
  1.907072e+01    1.182100e+00
  1.908660e+01    1.187916e+00
  1.910247e+01    1.178619e+00
  1.911835e+01    1.180812e+00
  1.913422e+01    1.187201e+00
  1.915010e+01    1.206338e+00
  1.916597e+01    1.214298e+00
  1.918185e+01    1.230398e+00
  1.919773e+01    1.179859e+00
  1.921360e+01    1.185785e+00
  1.922948e+01    1.216805e+00
  1.924535e+01    1.200634e+00
  1.926123e+01    1.180800e+00
  1.927710e+01    1.192158e+00
  1.929298e+01    1.190642e+00
  1.930885e+01    1.147718e+00
  1.932473e+01    1.173863e+00
  1.934061e+01    1.198207e+00
  1.935648e+01    1.163845e+00
  1.937236e+01    1.166768e+00
  1.938823e+01    1.165235e+00
  1.940411e+01    1.169069e+00
  1.941998e+01    1.158140e+00
  1.943586e+01    1.155952e+00
  1.945173e+01    1.167595e+00
  1.946761e+01    1.172060e+00
  1.948349e+01    1.153399e+00
  1.949936e+01    1.163032e+00
  1.951524e+01    1.144678e+00
  1.953111e+01    1.143700e+00
  1.954699e+01    1.160671e+00
  1.956286e+01    1.154129e+00
  1.957874e+01    1.133743e+00
  1.959461e+01    1.164130e+00
  1.961049e+01    1.141900e+00
  1.962637e+01    1.146142e+00
  1.964224e+01    1.118431e+00
  1.965812e+01    1.141806e+00
  1.967399e+01    1.146612e+00
  1.968987e+01    1.147936e+00
  1.970574e+01    1.136552e+00
  1.972162e+01    1.134729e+00
  1.973749e+01    1.153086e+00
  1.975337e+01    1.144291e+00
  1.976925e+01    1.141077e+00
  1.978512e+01    1.150477e+00
  1.980100e+01    1.149865e+00
  1.981687e+01    1.122157e+00
  1.983275e+01    1.110056e+00
  1.984862e+01    1.135287e+00
  1.986450e+01    1.125577e+00
  1.988037e+01    1.122154e+00
  1.989625e+01    1.144211e+00
  1.991213e+01    1.138187e+00
  1.992800e+01    1.138045e+00
  1.994388e+01    1.108902e+00
  1.995975e+01    1.110719e+00
  1.997563e+01    1.144352e+00
  1.999150e+01    1.115730e+00
  2.000738e+01    1.105161e+00
  2.002325e+01    1.105228e+00
  2.003913e+01    1.131249e+00
  2.005501e+01    1.127865e+00
  2.007088e+01    1.106071e+00
  2.008676e+01    1.120469e+00
  2.010263e+01    1.118183e+00
  2.011851e+01    1.107724e+00
  2.013438e+01    1.110800e+00
  2.015026e+01    1.114129e+00
  2.016614e+01    1.126686e+00
  2.018201e+01    1.108668e+00
  2.019789e+01    1.093559e+00
  2.021376e+01    1.083997e+00
  2.022964e+01    1.108099e+00
  2.024551e+01    1.107420e+00
  2.026139e+01    1.117538e+00
  2.027726e+01    1.097912e+00
  2.029314e+01    1.103722e+00
  2.030902e+01    1.103548e+00
  2.032489e+01    1.116950e+00
  2.034077e+01    1.123961e+00
  2.035664e+01    1.120518e+00
  2.037252e+01    1.084087e+00
  2.038839e+01    1.090064e+00
  2.040427e+01    1.087409e+00
  2.042014e+01    1.125537e+00
  2.043602e+01    1.119857e+00
  2.045190e+01    1.090821e+00
  2.046777e+01    1.105106e+00
  2.048365e+01    1.114346e+00
  2.049952e+01    1.085773e+00
  2.051540e+01    1.063755e+00
  2.053127e+01    1.087033e+00
  2.054715e+01    1.092019e+00
  2.056302e+01    1.097074e+00
  2.057890e+01    1.082072e+00
  2.059478e+01    1.073401e+00
  2.061065e+01    1.086684e+00
  2.062653e+01    1.073371e+00
  2.064240e+01    1.083579e+00
  2.065828e+01    1.094570e+00
  2.067415e+01    1.098279e+00
  2.069003e+01    1.082555e+00
  2.070590e+01    1.082682e+00
  2.072178e+01    1.074629e+00
  2.073766e+01    1.074846e+00
  2.075353e+01    1.067079e+00
  2.076941e+01    1.082514e+00
  2.078528e+01    1.076016e+00
  2.080116e+01    1.062531e+00
  2.081703e+01    1.070221e+00
  2.083291e+01    1.108228e+00
  2.084878e+01    1.110429e+00
  2.086466e+01    1.079943e+00
  2.088054e+01    1.086006e+00
  2.089641e+01    1.092404e+00
  2.091229e+01    1.085235e+00
  2.092816e+01    1.075638e+00
  2.094404e+01    1.074805e+00
  2.095991e+01    1.089407e+00
  2.097579e+01    1.088176e+00
  2.099166e+01    1.085540e+00
  2.100754e+01    1.078232e+00
  2.102342e+01    1.075282e+00
  2.103929e+01    1.076222e+00
  2.105517e+01    1.082635e+00
  2.107104e+01    1.076338e+00
  2.108692e+01    1.072394e+00
  2.110279e+01    1.062561e+00
  2.111867e+01    1.084211e+00
  2.113455e+01    1.096901e+00
  2.115042e+01    1.086939e+00
  2.116630e+01    1.097472e+00
  2.118217e+01    1.088768e+00
  2.119805e+01    1.076450e+00
  2.121392e+01    1.077690e+00
  2.122980e+01    1.107547e+00
  2.124567e+01    1.114425e+00
  2.126155e+01    1.107343e+00
  2.127743e+01    1.124573e+00
  2.129330e+01    1.126850e+00
  2.130918e+01    1.121491e+00
  2.132505e+01    1.124109e+00
  2.134093e+01    1.125075e+00
  2.135680e+01    1.133847e+00
  2.137268e+01    1.160227e+00
  2.138855e+01    1.169772e+00
  2.140443e+01    1.173860e+00
  2.142031e+01    1.162805e+00
  2.143618e+01    1.193565e+00
  2.145206e+01    1.222861e+00
  2.146793e+01    1.252309e+00
  2.148381e+01    1.250449e+00
  2.149968e+01    1.269174e+00
  2.151556e+01    1.303990e+00
  2.153143e+01    1.326517e+00
  2.154731e+01    1.355028e+00
  2.156319e+01    1.390227e+00
  2.157906e+01    1.471408e+00
  2.159494e+01    1.532770e+00
  2.161081e+01    1.585084e+00
  2.162669e+01    1.682070e+00
  2.164256e+01    1.802862e+00
  2.165844e+01    1.890857e+00
  2.167431e+01    2.014494e+00
  2.169019e+01    2.174777e+00
  2.170607e+01    2.388720e+00
  2.172194e+01    2.681519e+00
  2.173782e+01    3.031271e+00
  2.175369e+01    3.430471e+00
  2.176957e+01    3.904545e+00
  2.178544e+01    4.487665e+00
  2.180132e+01    5.176187e+00
  2.181719e+01    5.851966e+00
  2.183307e+01    6.623550e+00
  2.184895e+01    7.455815e+00
  2.186482e+01    8.274228e+00
  2.188070e+01    9.042789e+00
  2.189657e+01    9.740905e+00
  2.191245e+01    1.021475e+01
  2.192832e+01    1.027994e+01
  2.194420e+01    9.905796e+00
  2.196007e+01    9.102075e+00
  2.197595e+01    8.072092e+00
  2.199183e+01    6.928922e+00
  2.200770e+01    5.880224e+00
  2.202358e+01    4.941714e+00
  2.203945e+01    4.214465e+00
  2.205533e+01    3.612109e+00
  2.207120e+01    3.144071e+00
  2.208708e+01    2.741313e+00
  2.210296e+01    2.448108e+00
  2.211883e+01    2.245484e+00
  2.213471e+01    2.070590e+00
  2.215058e+01    1.928660e+00
  2.216646e+01    1.793455e+00
  2.218233e+01    1.701366e+00
  2.219821e+01    1.586097e+00
  2.221408e+01    1.496198e+00
  2.222996e+01    1.444453e+00
  2.224584e+01    1.377843e+00
  2.226171e+01    1.358280e+00
  2.227759e+01    1.292354e+00
  2.229346e+01    1.259709e+00
  2.230934e+01    1.246342e+00
  2.232521e+01    1.208706e+00
  2.234109e+01    1.178899e+00
  2.235696e+01    1.166628e+00
  2.237284e+01    1.142916e+00
  2.238872e+01    1.135260e+00
  2.240459e+01    1.099909e+00
  2.242047e+01    1.100730e+00
  2.243634e+01    1.099372e+00
  2.245222e+01    1.066978e+00
  2.246809e+01    1.077355e+00
  2.248397e+01    1.071786e+00
  2.249984e+01    1.026739e+00
  2.251572e+01    1.034845e+00
  2.253160e+01    1.030452e+00
  2.254747e+01    1.028372e+00
  2.256335e+01    1.026242e+00
  2.257922e+01    1.009110e+00
  2.259510e+01    1.000470e+00
  2.261097e+01    1.006627e+00
  2.262685e+01    1.013642e+00
  2.264272e+01    9.668112e-01
  2.265860e+01    9.634849e-01
  2.267448e+01    9.718400e-01
  2.269035e+01    9.821270e-01
  2.270623e+01    9.559522e-01
  2.272210e+01    9.698839e-01
  2.273798e+01    9.612058e-01
  2.275385e+01    9.643508e-01
  2.276973e+01    9.331428e-01
  2.278560e+01    9.426227e-01
  2.280148e+01    9.359488e-01
  2.281736e+01    9.283836e-01
  2.283323e+01    9.407276e-01
  2.284911e+01    9.228219e-01
  2.286498e+01    9.195672e-01
  2.288086e+01    9.245967e-01
  2.289673e+01    9.257198e-01
  2.291261e+01    9.290412e-01
  2.292848e+01    9.371716e-01
  2.294436e+01    9.175225e-01
  2.296024e+01    9.150685e-01
  2.297611e+01    9.343176e-01
  2.299199e+01    9.122148e-01
  2.300786e+01    9.046534e-01
  2.302374e+01    8.901264e-01
  2.303961e+01    9.013857e-01
  2.305549e+01    9.092582e-01
  2.307137e+01    8.955295e-01
  2.308724e+01    8.839109e-01
  2.310312e+01    8.861132e-01
  2.311899e+01    8.967959e-01
  2.313487e+01    8.770538e-01
  2.315074e+01    8.795547e-01
  2.316662e+01    8.941469e-01
  2.318249e+01    8.786839e-01
  2.319837e+01    8.821975e-01
  2.321425e+01    9.061052e-01
  2.323012e+01    8.904832e-01
  2.324600e+01    8.764436e-01
  2.326187e+01    8.605211e-01
  2.327775e+01    8.533813e-01
  2.329362e+01    8.575987e-01
  2.330950e+01    8.644451e-01
  2.332537e+01    8.669049e-01
  2.334125e+01    8.876399e-01
  2.335713e+01    8.651061e-01
  2.337300e+01    8.622294e-01
  2.338888e+01    8.556769e-01
  2.340475e+01    8.510237e-01
  2.342063e+01    8.583161e-01
  2.343650e+01    8.507528e-01
  2.345238e+01    8.653913e-01
  2.346825e+01    8.506177e-01
  2.348413e+01    8.566818e-01
  2.350001e+01    8.590124e-01
  2.351588e+01    8.368303e-01
  2.353176e+01    8.581607e-01
  2.354763e+01    8.447412e-01
  2.356351e+01    8.421906e-01
  2.357938e+01    8.480318e-01
  2.359526e+01    8.414154e-01
  2.361113e+01    8.458710e-01
  2.362701e+01    8.578534e-01
  2.364289e+01    8.633418e-01
  2.365876e+01    8.471389e-01
  2.367464e+01    8.223478e-01
  2.369051e+01    8.192378e-01
  2.370639e+01    8.246624e-01
  2.372226e+01    8.307446e-01
  2.373814e+01    8.319557e-01
  2.375401e+01    8.274992e-01
  2.376989e+01    8.254192e-01
  2.378577e+01    8.166534e-01
  2.380164e+01    8.217469e-01
  2.381752e+01    8.060235e-01
  2.383339e+01    7.995983e-01
  2.384927e+01    7.909672e-01
  2.386514e+01    8.207226e-01
  2.388102e+01    8.329900e-01
  2.389689e+01    8.113769e-01
  2.391277e+01    8.140934e-01
  2.392865e+01    7.967978e-01
  2.394452e+01    8.035281e-01
  2.396040e+01    7.946068e-01
  2.397627e+01    7.905535e-01
  2.399215e+01    7.810970e-01
  2.400802e+01    7.817883e-01
  2.402390e+01    7.896410e-01
  2.403978e+01    7.913364e-01
  2.405565e+01    7.824700e-01
  2.407153e+01    7.874955e-01
  2.408740e+01    7.933734e-01
  2.410328e+01    7.780967e-01
  2.411915e+01    7.830435e-01
  2.413503e+01    7.664745e-01
  2.415090e+01    7.665093e-01
  2.416678e+01    7.893243e-01
  2.418266e+01    7.838233e-01
  2.419853e+01    7.698954e-01
  2.421441e+01    7.698206e-01
  2.423028e+01    7.751133e-01
  2.424616e+01    7.579024e-01
  2.426203e+01    7.692807e-01
  2.427791e+01    7.921675e-01
  2.429378e+01    7.826990e-01
  2.430966e+01    7.946610e-01
  2.432554e+01    8.057811e-01
  2.434141e+01    8.106330e-01
  2.435729e+01    8.107160e-01
  2.437316e+01    8.075072e-01
  2.438904e+01    8.025145e-01
  2.440491e+01    8.006931e-01
  2.442079e+01    7.840171e-01
  2.443666e+01    7.892237e-01
  2.445254e+01    7.733167e-01
  2.446842e+01    7.970721e-01
  2.448429e+01    7.945619e-01
  2.450017e+01    7.817473e-01
  2.451604e+01    7.810573e-01
  2.453192e+01    7.811662e-01
  2.454779e+01    7.787148e-01
  2.456367e+01    7.975364e-01
  2.457954e+01    7.843292e-01
  2.459542e+01    7.899917e-01
  2.461130e+01    8.112264e-01
  2.462717e+01    7.861584e-01
  2.464305e+01    7.722154e-01
  2.465892e+01    7.799563e-01
  2.467480e+01    7.966552e-01
  2.469067e+01    8.010034e-01
  2.470655e+01    7.982195e-01
  2.472242e+01    7.843416e-01
  2.473830e+01    7.938702e-01
  2.475418e+01    7.930379e-01
  2.477005e+01    8.008145e-01
  2.478593e+01    7.960184e-01
  2.480180e+01    7.844270e-01
  2.481768e+01    7.860605e-01
  2.483355e+01    7.910110e-01
  2.484943e+01    8.026273e-01
  2.486530e+01    7.802128e-01
  2.488118e+01    7.738842e-01
  2.489706e+01    8.092265e-01
  2.491293e+01    8.095078e-01
  2.492881e+01    7.924952e-01
  2.494468e+01    8.083745e-01
  2.496056e+01    8.275696e-01
  2.497643e+01    8.047572e-01
  2.499231e+01    8.056248e-01
  2.500819e+01    8.109604e-01
  2.502406e+01    8.116021e-01
  2.503994e+01    8.147049e-01
  2.505581e+01    8.277329e-01
  2.507169e+01    8.073037e-01
  2.508756e+01    8.355860e-01
  2.510344e+01    8.168544e-01
  2.511931e+01    8.105472e-01
  2.513519e+01    8.156993e-01
  2.515107e+01    8.254895e-01
  2.516694e+01    8.180745e-01
  2.518282e+01    8.257827e-01
  2.519869e+01    8.410777e-01
  2.521457e+01    8.496943e-01
  2.523044e+01    8.540051e-01
  2.524632e+01    8.507918e-01
  2.526219e+01    8.603348e-01
  2.527807e+01    8.542755e-01
  2.529395e+01    8.538710e-01
  2.530982e+01    8.728491e-01
  2.532570e+01    8.698696e-01
  2.534157e+01    8.845247e-01
  2.535745e+01    9.092157e-01
  2.537332e+01    9.010877e-01
  2.538920e+01    9.104878e-01
  2.540507e+01    9.096208e-01
  2.542095e+01    8.957133e-01
  2.543683e+01    9.252735e-01
  2.545270e+01    9.527209e-01
  2.546858e+01    9.558452e-01
  2.548445e+01    9.678310e-01
  2.550033e+01    9.809929e-01
  2.551620e+01    9.702435e-01
  2.553208e+01    9.918303e-01
  2.554795e+01    1.017076e+00
  2.556383e+01    1.042688e+00
  2.557971e+01    1.049480e+00
  2.559558e+01    1.114795e+00
  2.561146e+01    1.144843e+00
  2.562733e+01    1.152592e+00
  2.564321e+01    1.201131e+00
  2.565908e+01    1.245161e+00
  2.567496e+01    1.313297e+00
  2.569083e+01    1.378287e+00
  2.570671e+01    1.452600e+00
  2.572259e+01    1.519392e+00
  2.573846e+01    1.617196e+00
  2.575434e+01    1.773054e+00
  2.577021e+01    1.943995e+00
  2.578609e+01    2.143993e+00
  2.580196e+01    2.352389e+00
  2.581784e+01    2.651534e+00
  2.583371e+01    3.023137e+00
  2.584959e+01    3.456072e+00
  2.586547e+01    3.994493e+00
  2.588134e+01    4.555918e+00
  2.589722e+01    5.240502e+00
  2.591309e+01    6.006547e+00
  2.592897e+01    6.727322e+00
  2.594484e+01    7.365038e+00
  2.596072e+01    7.967119e+00
  2.597660e+01    8.376548e+00
  2.599247e+01    8.505821e+00
  2.600835e+01    8.264962e+00
  2.602422e+01    7.718199e+00
  2.604010e+01    6.954874e+00
  2.605597e+01    6.070558e+00
  2.607185e+01    5.226266e+00
  2.608772e+01    4.454966e+00
  2.610360e+01    3.798716e+00
  2.611948e+01    3.268395e+00
  2.613535e+01    2.874940e+00
  2.615123e+01    2.521854e+00
  2.616710e+01    2.276536e+00
  2.618298e+01    2.068852e+00
  2.619885e+01    1.863263e+00
  2.621473e+01    1.716811e+00
  2.623060e+01    1.591539e+00
  2.624648e+01    1.500181e+00
  2.626236e+01    1.413623e+00
  2.627823e+01    1.343603e+00
  2.629411e+01    1.282722e+00
  2.630998e+01    1.217400e+00
  2.632586e+01    1.176873e+00
  2.634173e+01    1.163263e+00
  2.635761e+01    1.129307e+00
  2.637348e+01    1.093631e+00
  2.638936e+01    1.042733e+00
  2.640524e+01    1.031876e+00
  2.642111e+01    1.015392e+00
  2.643699e+01    1.004047e+00
  2.645286e+01    9.971303e-01
  2.646874e+01    9.958916e-01
  2.648461e+01    9.781211e-01
  2.650049e+01    9.719892e-01
  2.651636e+01    9.631382e-01
  2.653224e+01    9.358610e-01
  2.654812e+01    9.480086e-01
  2.656399e+01    9.488042e-01
  2.657987e+01    9.311985e-01
  2.659574e+01    9.283623e-01
  2.661162e+01    9.292254e-01
  2.662749e+01    9.054237e-01
  2.664337e+01    8.964742e-01
  2.665924e+01    8.851805e-01
  2.667512e+01    8.901124e-01
  2.669100e+01    9.047595e-01
  2.670687e+01    8.931141e-01
  2.672275e+01    8.925592e-01
  2.673862e+01    9.086655e-01
  2.675450e+01    9.188213e-01
  2.677037e+01    9.247079e-01
  2.678625e+01    9.327978e-01
  2.680212e+01    8.945211e-01
  2.681800e+01    9.185041e-01
  2.683388e+01    9.272552e-01
  2.684975e+01    9.018774e-01
  2.686563e+01    9.077510e-01
  2.688150e+01    8.964283e-01
  2.689738e+01    9.072805e-01
  2.691325e+01    9.194085e-01
  2.692913e+01    9.489996e-01
  2.694501e+01    9.503049e-01
  2.696088e+01    9.661428e-01
  2.697676e+01    9.765413e-01
  2.699263e+01    9.952930e-01
  2.700851e+01    1.010751e+00
  2.702438e+01    1.046548e+00
  2.704026e+01    1.094072e+00
  2.705613e+01    1.133068e+00
  2.707201e+01    1.178504e+00
  2.708789e+01    1.221455e+00
  2.710376e+01    1.303521e+00
  2.711964e+01    1.389261e+00
  2.713551e+01    1.543127e+00
  2.715139e+01    1.652480e+00
  2.716726e+01    1.790718e+00
  2.718314e+01    1.939726e+00
  2.719901e+01    2.133714e+00
  2.721489e+01    2.287214e+00
  2.723077e+01    2.383001e+00
  2.724664e+01    2.452730e+00
  2.726252e+01    2.451346e+00
  2.727839e+01    2.373382e+00
  2.729427e+01    2.177397e+00
  2.731014e+01    2.015271e+00
  2.732602e+01    1.845806e+00
  2.734189e+01    1.621335e+00
  2.735777e+01    1.517194e+00
  2.737365e+01    1.440401e+00
  2.738952e+01    1.303821e+00
  2.740540e+01    1.239147e+00
  2.742127e+01    1.171929e+00
  2.743715e+01    1.103709e+00
  2.745302e+01    1.070432e+00
  2.746890e+01    1.005885e+00
  2.748477e+01    1.011661e+00
  2.750065e+01    1.002992e+00
  2.751653e+01    9.523187e-01
  2.753240e+01    9.113412e-01
  2.754828e+01    9.257316e-01
  2.756415e+01    8.874279e-01
  2.758003e+01    8.855619e-01
  2.759590e+01    8.993362e-01
  2.761178e+01    8.701115e-01
  2.762765e+01    8.464652e-01
  2.764353e+01    8.395446e-01
  2.765941e+01    8.529365e-01
  2.767528e+01    8.335919e-01
  2.769116e+01    8.283387e-01
  2.770703e+01    8.291843e-01
  2.772291e+01    8.361731e-01
  2.773878e+01    8.300988e-01
  2.775466e+01    8.246235e-01
  2.777054e+01    8.274906e-01
  2.778641e+01    8.408322e-01
  2.780229e+01    8.268472e-01
  2.781816e+01    8.123202e-01
  2.783404e+01    8.159550e-01
  2.784991e+01    8.172442e-01
  2.786579e+01    8.037952e-01
  2.788166e+01    7.977569e-01
  2.789754e+01    7.898622e-01
  2.791342e+01    8.142325e-01
  2.792929e+01    8.088841e-01
  2.794517e+01    8.175402e-01
  2.796104e+01    8.136544e-01
  2.797692e+01    8.050488e-01
  2.799279e+01    8.136622e-01
  2.800867e+01    7.847002e-01
  2.802454e+01    7.801633e-01
  2.804042e+01    7.973629e-01
  2.805630e+01    8.001919e-01
  2.807217e+01    8.052722e-01
  2.808805e+01    7.833487e-01
  2.810392e+01    7.848656e-01
  2.811980e+01    7.788528e-01
  2.813567e+01    7.874825e-01
  2.815155e+01    8.026574e-01
  2.816742e+01    7.996557e-01
  2.818330e+01    7.721523e-01
  2.819918e+01    7.548754e-01
  2.821505e+01    7.579769e-01
  2.823093e+01    7.619297e-01
  2.824680e+01    7.621889e-01
  2.826268e+01    7.670004e-01
  2.827855e+01    7.687221e-01
  2.829443e+01    7.604094e-01
  2.831030e+01    7.525858e-01
  2.832618e+01    7.726579e-01
  2.834206e+01    7.814654e-01
  2.835793e+01    7.714934e-01
  2.837381e+01    7.596076e-01
  2.838968e+01    7.653150e-01
  2.840556e+01    7.698563e-01
  2.842143e+01    7.643649e-01
  2.843731e+01    7.774560e-01
  2.845318e+01    7.818371e-01
  2.846906e+01    7.646926e-01
  2.848494e+01    7.594476e-01
  2.850081e+01    7.615162e-01
  2.851669e+01    7.746204e-01
  2.853256e+01    7.396040e-01
  2.854844e+01    7.539967e-01
  2.856431e+01    7.792259e-01
  2.858019e+01    7.877305e-01
  2.859606e+01    7.740987e-01
  2.861194e+01    7.550313e-01
  2.862782e+01    7.655789e-01
  2.864369e+01    7.659431e-01
  2.865957e+01    7.604479e-01
  2.867544e+01    7.622660e-01
  2.869132e+01    7.584838e-01
  2.870719e+01    7.405986e-01
  2.872307e+01    7.461576e-01
  2.873895e+01    7.597838e-01
  2.875482e+01    7.501725e-01
  2.877070e+01    7.503884e-01
  2.878657e+01    7.633710e-01
  2.880245e+01    7.615228e-01
  2.881832e+01    7.760715e-01
  2.883420e+01    7.653500e-01
  2.885007e+01    7.491779e-01
  2.886595e+01    7.459231e-01
  2.888183e+01    7.415485e-01
  2.889770e+01    7.669479e-01
  2.891358e+01    7.606897e-01
  2.892945e+01    7.314999e-01
  2.894533e+01    7.210911e-01
  2.896120e+01    7.372717e-01
  2.897708e+01    7.461041e-01
  2.899295e+01    7.466393e-01
  2.900883e+01    7.506281e-01
  2.902471e+01    7.408244e-01
  2.904058e+01    7.371657e-01
  2.905646e+01    7.348586e-01
  2.907233e+01    7.222933e-01
  2.908821e+01    7.301726e-01
  2.910408e+01    7.449433e-01
  2.911996e+01    7.447240e-01
  2.913583e+01    7.479892e-01
  2.915171e+01    7.450335e-01
  2.916759e+01    7.342459e-01
  2.918346e+01    7.370425e-01
  2.919934e+01    7.320225e-01
  2.921521e+01    7.261305e-01
  2.923109e+01    7.364958e-01
  2.924696e+01    7.217090e-01
  2.926284e+01    7.172423e-01
  2.927871e+01    7.399302e-01
  2.929459e+01    7.500687e-01
  2.931047e+01    7.238984e-01
  2.932634e+01    7.341358e-01
  2.934222e+01    7.445872e-01
  2.935809e+01    7.381411e-01
  2.937397e+01    7.204670e-01
  2.938984e+01    7.166426e-01
  2.940572e+01    7.394951e-01
  2.942159e+01    7.397953e-01
  2.943747e+01    7.203934e-01
  2.945335e+01    6.996297e-01
  2.946922e+01    7.034217e-01
  2.948510e+01    7.168114e-01
  2.950097e+01    7.317727e-01
  2.951685e+01    7.348188e-01
  2.953272e+01    7.449544e-01
  2.954860e+01    7.218505e-01
  2.956447e+01    7.310079e-01
  2.958035e+01    7.382797e-01
  2.959623e+01    7.231854e-01
  2.961210e+01    7.219250e-01
  2.962798e+01    7.119110e-01
  2.964385e+01    7.399296e-01
  2.965973e+01    7.180019e-01
  2.967560e+01    6.998704e-01
  2.969148e+01    7.209576e-01
  2.970736e+01    7.328364e-01
  2.972323e+01    7.037820e-01
  2.973911e+01    7.232008e-01
  2.975498e+01    7.499813e-01
  2.977086e+01    7.369483e-01
  2.978673e+01    7.384022e-01
  2.980261e+01    7.265807e-01
  2.981848e+01    6.978759e-01
  2.983436e+01    7.197367e-01
  2.985024e+01    7.075713e-01
  2.986611e+01    7.210670e-01
  2.988199e+01    7.413852e-01
  2.989786e+01    7.151707e-01
  2.991374e+01    7.192414e-01
  2.992961e+01    7.198797e-01
  2.994549e+01    7.386406e-01
  2.996136e+01    7.358325e-01
  2.997724e+01    7.517499e-01
  2.999312e+01    7.251284e-01
  3.000899e+01    7.398571e-01
  3.002487e+01    7.396672e-01
  3.004074e+01    7.479692e-01
  3.005662e+01    7.431765e-01
  3.007249e+01    7.434493e-01
  3.008837e+01    7.317668e-01
  3.010424e+01    7.208616e-01
  3.012012e+01    7.293336e-01
  3.013600e+01    7.520435e-01
  3.015187e+01    7.297416e-01
  3.016775e+01    7.205627e-01
  3.018362e+01    7.150787e-01
  3.019950e+01    7.126606e-01
  3.021537e+01    7.244659e-01
  3.023125e+01    6.997181e-01
  3.024712e+01    7.040733e-01
  3.026300e+01    7.103515e-01
  3.027888e+01    7.122760e-01
  3.029475e+01    7.256072e-01
  3.031063e+01    6.995422e-01
  3.032650e+01    7.009224e-01
  3.034238e+01    7.133204e-01
  3.035825e+01    7.064939e-01
  3.037413e+01    7.240799e-01
  3.039000e+01    7.128704e-01
  3.040588e+01    7.301502e-01
  3.042176e+01    7.321314e-01
  3.043763e+01    7.260882e-01
  3.045351e+01    7.182502e-01
  3.046938e+01    7.318642e-01
  3.048526e+01    7.168890e-01
  3.050113e+01    7.064436e-01
  3.051701e+01    7.111507e-01
  3.053288e+01    7.255193e-01
  3.054876e+01    7.188115e-01
  3.056464e+01    6.954021e-01
  3.058051e+01    6.925247e-01
  3.059639e+01    7.061912e-01
  3.061226e+01    7.152703e-01
  3.062814e+01    7.132478e-01
  3.064401e+01    7.192003e-01
  3.065989e+01    7.233872e-01
  3.067577e+01    7.155648e-01
  3.069164e+01    7.102301e-01
  3.070752e+01    7.280629e-01
  3.072339e+01    7.218845e-01
  3.073927e+01    7.287951e-01
  3.075514e+01    7.236931e-01
  3.077102e+01    7.097813e-01
  3.078689e+01    7.142543e-01
  3.080277e+01    7.109329e-01
  3.081865e+01    7.274039e-01
  3.083452e+01    7.228703e-01
  3.085040e+01    7.211815e-01
  3.086627e+01    7.301567e-01
  3.088215e+01    7.302058e-01
  3.089802e+01    7.178618e-01
  3.091390e+01    6.995942e-01
  3.092977e+01    7.166577e-01
  3.094565e+01    7.119341e-01
  3.096153e+01    7.167859e-01
  3.097740e+01    7.152063e-01
  3.099328e+01    7.158232e-01
  3.100915e+01    7.203176e-01
  3.102503e+01    7.233409e-01
  3.104090e+01    7.260708e-01
  3.105678e+01    7.198142e-01
  3.107265e+01    7.162353e-01
  3.108853e+01    7.259954e-01
  3.110441e+01    7.310915e-01
  3.112028e+01    7.067556e-01
  3.113616e+01    7.120624e-01
  3.115203e+01    7.218036e-01
  3.116791e+01    7.197160e-01
  3.118378e+01    7.384064e-01
  3.119966e+01    7.508566e-01
  3.121553e+01    7.340810e-01
  3.123141e+01    7.190168e-01
  3.124729e+01    7.318940e-01
  3.126316e+01    7.229345e-01
  3.127904e+01    7.594255e-01
  3.129491e+01    7.670950e-01
  3.131079e+01    7.496147e-01
  3.132666e+01    7.441667e-01
  3.134254e+01    7.204434e-01
  3.135841e+01    7.232553e-01
  3.137429e+01    7.294809e-01
  3.139017e+01    7.519463e-01
  3.140604e+01    7.612548e-01
  3.142192e+01    7.539594e-01
  3.143779e+01    7.474530e-01
  3.145367e+01    7.534649e-01
  3.146954e+01    7.747206e-01
  3.148542e+01    7.691882e-01
  3.150129e+01    7.824533e-01
  3.151717e+01    7.771106e-01
  3.153305e+01    7.585418e-01
  3.154892e+01    7.684144e-01
  3.156480e+01    7.725243e-01
  3.158067e+01    7.890660e-01
  3.159655e+01    8.056358e-01
  3.161242e+01    8.251354e-01
  3.162830e+01    8.305981e-01
  3.164418e+01    8.441545e-01
  3.166005e+01    8.602004e-01
  3.167593e+01    9.154832e-01
  3.169180e+01    9.280725e-01
  3.170768e+01    9.442437e-01
  3.172355e+01    9.740573e-01
  3.173943e+01    1.009798e+00
  3.175530e+01    1.051986e+00
  3.177118e+01    1.125850e+00
  3.178706e+01    1.177332e+00
  3.180293e+01    1.281796e+00
  3.181881e+01    1.401238e+00
  3.183468e+01    1.517165e+00
  3.185056e+01    1.654864e+00
  3.186643e+01    1.780528e+00
  3.188231e+01    1.979255e+00
  3.189818e+01    2.190001e+00
  3.191406e+01    2.313593e+00
  3.192994e+01    2.398983e+00
  3.194581e+01    2.425262e+00
  3.196169e+01    2.401771e+00
  3.197756e+01    2.284174e+00
  3.199344e+01    2.148091e+00
  3.200931e+01    1.974836e+00
  3.202519e+01    1.776080e+00
  3.204106e+01    1.584432e+00
  3.205694e+01    1.438257e+00
  3.207282e+01    1.302235e+00
  3.208869e+01    1.229281e+00
  3.210457e+01    1.134898e+00
  3.212044e+01    1.047777e+00
  3.213632e+01    9.988931e-01
  3.215219e+01    9.476495e-01
  3.216807e+01    9.223547e-01
  3.218394e+01    8.950288e-01
  3.219982e+01    8.714792e-01
  3.221570e+01    8.557284e-01
  3.223157e+01    8.398224e-01
  3.224745e+01    8.396844e-01
  3.226332e+01    8.248744e-01
  3.227920e+01    7.942106e-01
  3.229507e+01    7.753357e-01
  3.231095e+01    7.978556e-01
  3.232682e+01    7.848172e-01
  3.234270e+01    7.820200e-01
  3.235858e+01    7.542296e-01
  3.237445e+01    7.751923e-01
  3.239033e+01    7.912794e-01
  3.240620e+01    7.723427e-01
  3.242208e+01    7.510921e-01
  3.243795e+01    7.422577e-01
  3.245383e+01    7.327287e-01
  3.246970e+01    7.176682e-01
  3.248558e+01    7.191181e-01
  3.250146e+01    7.261865e-01
  3.251733e+01    7.214932e-01
  3.253321e+01    7.162901e-01
  3.254908e+01    7.545885e-01
