# == pyFAI calibration ==
# Distance Sample to Detector: 0.3999999939076516 m
# PONI: 9.750e-02, 1.135e-01 m
# Rotations: -0.000175 0.000000 -0.000000 rad
# 
# == Fit2d calibration ==
# Distance Sample-beamCenter: 400.000 mm
# Center: x=1514.000, y=1300.000 pix
# Tilt: 0.010 deg  TiltPlanRot: 0.010 deg
# 
# Detector Detector	 Spline= None	 PixelSize= 7.500e-05, 7.500e-05 m
#    Detector has a mask: False 
#    Detector has a dark current: False 
#    detector has a flat field: False 
# 
# Wavelength: 6.888e-11 m
# Mask applied: user provided
# Dark current applied: False
# Flat field applied: False
# Polarization factor: 0.99
# Normalization factor: 1.0
# --> /home/myspot/data/2024_07_Rosario/Ru-CGO-ex/2024-07-27_002_Ru-CGO-ex_Activtation_ramp_000002_data_000041.dat
#       q_nm^-1             I 
  2.003187e-02    1.542422e-01
  3.590745e-02    1.284323e-01
  5.178302e-02    0.000000e+00
  6.765859e-02    1.985621e-02
  8.353417e-02    1.699680e-01
  9.940974e-02    1.196661e-01
  1.152853e-01    1.884233e-03
  1.311609e-01    0.000000e+00
  1.470365e-01    3.196593e-02
  1.629120e-01    6.638602e-02
  1.787876e-01    2.579308e-02
  1.946632e-01    7.361992e-02
  2.105388e-01    2.572664e-02
  2.264143e-01    2.147366e-02
  2.422899e-01    5.749959e-02
  2.581655e-01    4.937128e-02
  2.740411e-01    3.226928e-02
  2.899166e-01    7.901723e-02
  3.057922e-01    6.426112e-02
  3.216678e-01    4.189157e-02
  3.375433e-01    3.875288e-02
  3.534189e-01    2.949231e-02
  3.692945e-01    8.763395e-03
  3.851701e-01    3.016202e-02
  4.010456e-01    3.429523e-02
  4.169212e-01    1.521958e-02
  4.327968e-01    1.122702e-02
  4.486724e-01    2.272503e-02
  4.645479e-01    2.748089e-02
  4.804235e-01    2.881180e-02
  4.962991e-01    4.395525e-02
  5.121747e-01    3.497594e-02
  5.280502e-01    1.083459e-02
  5.439258e-01    3.789111e-02
  5.598014e-01    4.342734e-02
  5.756770e-01    3.035558e-02
  5.915525e-01    3.115150e-02
  6.074281e-01    4.745945e-02
  6.233037e-01    4.588784e-02
  6.391793e-01    4.737921e-02
  6.550548e-01    4.079117e-02
  6.709304e-01    3.724688e-02
  6.868060e-01    4.071840e-02
  7.026815e-01    3.922913e-02
  7.185571e-01    2.480246e-02
  7.344327e-01    3.440697e-02
  7.503083e-01    6.839162e-02
  7.661838e-01    6.614187e-02
  7.820594e-01    8.514185e-02
  7.979350e-01    1.229678e-01
  8.138106e-01    1.813872e-01
  8.296861e-01    2.155850e-01
  8.455617e-01    2.360179e-01
  8.614373e-01    3.089597e-01
  8.773129e-01    3.912942e-01
  8.931884e-01    4.985130e-01
  9.090640e-01    5.897386e-01
  9.249396e-01    5.911183e-01
  9.408152e-01    6.964001e-01
  9.566907e-01    8.274684e-01
  9.725663e-01    9.144032e-01
  9.884419e-01    1.016728e+00
  1.004317e+00    9.915827e-01
  1.020193e+00    1.118118e+00
  1.036069e+00    1.158697e+00
  1.051944e+00    1.109837e+00
  1.067820e+00    1.312956e+00
  1.083695e+00    1.357135e+00
  1.099571e+00    1.275645e+00
  1.115446e+00    1.319965e+00
  1.131322e+00    1.319543e+00
  1.147198e+00    1.407327e+00
  1.163073e+00    1.546401e+00
  1.178949e+00    1.633220e+00
  1.194824e+00    1.622689e+00
  1.210700e+00    1.886919e+00
  1.226575e+00    2.196375e+00
  1.242451e+00    2.203567e+00
  1.258327e+00    2.367091e+00
  1.274202e+00    2.392250e+00
  1.290078e+00    2.510150e+00
  1.305953e+00    2.530210e+00
  1.321829e+00    2.396024e+00
  1.337705e+00    2.404374e+00
  1.353580e+00    2.635932e+00
  1.369456e+00    2.630362e+00
  1.385331e+00    2.631162e+00
  1.401207e+00    2.567549e+00
  1.417082e+00    2.682401e+00
  1.432958e+00    2.690525e+00
  1.448834e+00    2.779392e+00
  1.464709e+00    2.773238e+00
  1.480585e+00    2.878287e+00
  1.496460e+00    3.011230e+00
  1.512336e+00    2.927966e+00
  1.528211e+00    2.915203e+00
  1.544087e+00    3.057470e+00
  1.559963e+00    2.990496e+00
  1.575838e+00    2.915266e+00
  1.591714e+00    2.858167e+00
  1.607589e+00    2.938286e+00
  1.623465e+00    2.937312e+00
  1.639340e+00    2.910235e+00
  1.655216e+00    2.929237e+00
  1.671092e+00    2.906537e+00
  1.686967e+00    2.954072e+00
  1.702843e+00    2.718155e+00
  1.718718e+00    2.819602e+00
  1.734594e+00    2.786574e+00
  1.750469e+00    2.880096e+00
  1.766345e+00    2.895525e+00
  1.782221e+00    2.932990e+00
  1.798096e+00    2.921202e+00
  1.813972e+00    2.973869e+00
  1.829847e+00    2.902714e+00
  1.845723e+00    2.866778e+00
  1.861598e+00    2.760595e+00
  1.877474e+00    2.876309e+00
  1.893350e+00    2.901419e+00
  1.909225e+00    2.806266e+00
  1.925101e+00    2.742570e+00
  1.940976e+00    2.818144e+00
  1.956852e+00    2.864230e+00
  1.972727e+00    2.796675e+00
  1.988603e+00    2.756283e+00
  2.004479e+00    2.781777e+00
  2.020354e+00    2.808428e+00
  2.036230e+00    2.750238e+00
  2.052105e+00    2.792118e+00
  2.067981e+00    2.848408e+00
  2.083856e+00    2.779113e+00
  2.099732e+00    2.867607e+00
  2.115608e+00    2.785296e+00
  2.131483e+00    2.869736e+00
  2.147359e+00    2.915908e+00
  2.163234e+00    2.820382e+00
  2.179110e+00    2.892493e+00
  2.194985e+00    2.733994e+00
  2.210861e+00    2.707312e+00
  2.226737e+00    2.711082e+00
  2.242612e+00    2.763846e+00
  2.258488e+00    2.869471e+00
  2.274363e+00    2.871313e+00
  2.290239e+00    2.756441e+00
  2.306115e+00    2.852895e+00
  2.321990e+00    2.802945e+00
  2.337866e+00    2.771346e+00
  2.353741e+00    2.804305e+00
  2.369617e+00    2.747449e+00
  2.385492e+00    2.746758e+00
  2.401368e+00    2.784678e+00
  2.417244e+00    2.865200e+00
  2.433119e+00    2.873499e+00
  2.448995e+00    2.882674e+00
  2.464870e+00    2.895514e+00
  2.480746e+00    2.804884e+00
  2.496621e+00    2.803899e+00
  2.512497e+00    2.803370e+00
  2.528373e+00    2.819149e+00
  2.544248e+00    2.908991e+00
  2.560124e+00    2.936391e+00
  2.575999e+00    2.868967e+00
  2.591875e+00    2.840333e+00
  2.607750e+00    2.780930e+00
  2.623626e+00    2.824350e+00
  2.639502e+00    2.880369e+00
  2.655377e+00    2.833303e+00
  2.671253e+00    2.818158e+00
  2.687128e+00    2.793468e+00
  2.703004e+00    2.783875e+00
  2.718879e+00    2.780901e+00
  2.734755e+00    2.788494e+00
  2.750631e+00    2.801026e+00
  2.766506e+00    2.829224e+00
  2.782382e+00    2.788501e+00
  2.798257e+00    2.781911e+00
  2.814133e+00    2.858725e+00
  2.830008e+00    3.030845e+00
  2.845884e+00    2.980432e+00
  2.861760e+00    2.916395e+00
  2.877635e+00    2.835587e+00
  2.893511e+00    2.880239e+00
  2.909386e+00    2.909494e+00
  2.925262e+00    2.922644e+00
  2.941137e+00    2.887346e+00
  2.957013e+00    2.813966e+00
  2.972889e+00    2.900397e+00
  2.988764e+00    2.813101e+00
  3.004640e+00    2.867855e+00
  3.020515e+00    2.890919e+00
  3.036391e+00    2.871266e+00
  3.052266e+00    2.825550e+00
  3.068142e+00    2.920777e+00
  3.084018e+00    2.839098e+00
  3.099893e+00    2.869154e+00
  3.115769e+00    2.808453e+00
  3.131644e+00    2.896303e+00
  3.147520e+00    2.858965e+00
  3.163395e+00    2.819902e+00
  3.179271e+00    2.986773e+00
  3.195147e+00    2.938615e+00
  3.211022e+00    2.960424e+00
  3.226898e+00    3.003932e+00
  3.242773e+00    2.987482e+00
  3.258649e+00    2.938984e+00
  3.274525e+00    2.943846e+00
  3.290400e+00    2.959195e+00
  3.306276e+00    2.853651e+00
  3.322151e+00    2.881732e+00
  3.338027e+00    2.868263e+00
  3.353902e+00    2.866269e+00
  3.369778e+00    2.912671e+00
  3.385654e+00    2.900174e+00
  3.401529e+00    2.848984e+00
  3.417405e+00    2.942949e+00
  3.433280e+00    2.984478e+00
  3.449156e+00    2.938602e+00
  3.465031e+00    2.936728e+00
  3.480907e+00    2.940184e+00
  3.496783e+00    2.958983e+00
  3.512658e+00    2.870859e+00
  3.528534e+00    2.999064e+00
  3.544409e+00    3.001870e+00
  3.560285e+00    3.011147e+00
  3.576160e+00    3.019652e+00
  3.592036e+00    3.040875e+00
  3.607912e+00    2.927762e+00
  3.623787e+00    2.948346e+00
  3.639663e+00    2.958007e+00
  3.655538e+00    2.951476e+00
  3.671414e+00    2.944930e+00
  3.687289e+00    2.981711e+00
  3.703165e+00    2.992016e+00
  3.719041e+00    3.023788e+00
  3.734916e+00    3.026147e+00
  3.750792e+00    3.028074e+00
  3.766667e+00    3.039414e+00
  3.782543e+00    3.079694e+00
  3.798418e+00    3.024499e+00
  3.814294e+00    3.130105e+00
  3.830170e+00    3.119529e+00
  3.846045e+00    2.989122e+00
  3.861921e+00    3.078542e+00
  3.877796e+00    3.020319e+00
  3.893672e+00    2.951523e+00
  3.909547e+00    2.905590e+00
  3.925423e+00    2.954649e+00
  3.941299e+00    3.018002e+00
  3.957174e+00    2.996269e+00
  3.973050e+00    3.002014e+00
  3.988925e+00    3.007603e+00
  4.004801e+00    3.074198e+00
  4.020676e+00    3.032452e+00
  4.036552e+00    3.024443e+00
  4.052428e+00    2.950510e+00
  4.068303e+00    3.038906e+00
  4.084179e+00    3.020154e+00
  4.100054e+00    3.000343e+00
  4.115930e+00    2.983729e+00
  4.131806e+00    2.998942e+00
  4.147681e+00    2.985650e+00
  4.163557e+00    3.034367e+00
  4.179432e+00    3.014726e+00
  4.195308e+00    3.104437e+00
  4.211183e+00    3.086905e+00
  4.227059e+00    3.118349e+00
  4.242935e+00    3.064057e+00
  4.258810e+00    3.091395e+00
  4.274686e+00    3.047068e+00
  4.290561e+00    3.090916e+00
  4.306437e+00    3.062586e+00
  4.322312e+00    3.061071e+00
  4.338188e+00    3.008770e+00
  4.354064e+00    2.955796e+00
  4.369939e+00    3.016643e+00
  4.385815e+00    3.107728e+00
  4.401690e+00    3.169049e+00
  4.417566e+00    3.058706e+00
  4.433441e+00    3.068725e+00
  4.449317e+00    3.109881e+00
  4.465193e+00    3.025060e+00
  4.481068e+00    3.037599e+00
  4.496944e+00    3.051510e+00
  4.512819e+00    3.150552e+00
  4.528695e+00    3.144803e+00
  4.544570e+00    3.048147e+00
  4.560446e+00    3.034363e+00
  4.576322e+00    3.064357e+00
  4.592197e+00    3.132105e+00
  4.608073e+00    3.102609e+00
  4.623948e+00    3.155652e+00
  4.639824e+00    3.029797e+00
  4.655699e+00    3.102742e+00
  4.671575e+00    3.073643e+00
  4.687451e+00    3.084643e+00
  4.703326e+00    3.080608e+00
  4.719202e+00    3.021879e+00
  4.735077e+00    3.267852e+00
  4.750953e+00    3.286881e+00
  4.766828e+00    3.096205e+00
  4.782704e+00    3.102001e+00
  4.798580e+00    3.136903e+00
  4.814455e+00    3.182723e+00
  4.830331e+00    3.093784e+00
  4.846206e+00    3.063254e+00
  4.862082e+00    3.081778e+00
  4.877957e+00    3.187837e+00
  4.893833e+00    3.143295e+00
  4.909709e+00    3.015919e+00
  4.925584e+00    3.131602e+00
  4.941460e+00    3.080641e+00
  4.957335e+00    3.133513e+00
  4.973211e+00    3.177789e+00
  4.989086e+00    3.219391e+00
  5.004962e+00    3.165764e+00
  5.020838e+00    3.068688e+00
  5.036713e+00    3.113345e+00
  5.052589e+00    3.101251e+00
  5.068464e+00    3.102306e+00
  5.084340e+00    3.079183e+00
  5.100216e+00    3.072209e+00
  5.116091e+00    3.058974e+00
  5.131967e+00    3.132079e+00
  5.147842e+00    3.093630e+00
  5.163718e+00    3.102831e+00
  5.179593e+00    3.130833e+00
  5.195469e+00    3.092265e+00
  5.211345e+00    3.094040e+00
  5.227220e+00    3.164450e+00
  5.243096e+00    3.177440e+00
  5.258971e+00    3.175544e+00
  5.274847e+00    3.097306e+00
  5.290722e+00    3.133285e+00
  5.306598e+00    3.174466e+00
  5.322474e+00    3.146119e+00
  5.338349e+00    3.180151e+00
  5.354225e+00    3.107151e+00
  5.370100e+00    3.123929e+00
  5.385976e+00    3.117518e+00
  5.401851e+00    3.102435e+00
  5.417727e+00    3.089308e+00
  5.433603e+00    3.077384e+00
  5.449478e+00    3.005807e+00
  5.465354e+00    3.055153e+00
  5.481229e+00    3.110642e+00
  5.497105e+00    3.036286e+00
  5.512980e+00    3.078914e+00
  5.528856e+00    3.127987e+00
  5.544732e+00    3.131522e+00
  5.560607e+00    3.180076e+00
  5.576483e+00    3.142416e+00
  5.592358e+00    3.083054e+00
  5.608234e+00    3.064595e+00
  5.624109e+00    3.036558e+00
  5.639985e+00    2.994232e+00
  5.655861e+00    3.001802e+00
  5.671736e+00    3.080968e+00
  5.687612e+00    3.078941e+00
  5.703487e+00    3.035475e+00
  5.719363e+00    3.092085e+00
  5.735238e+00    3.158433e+00
  5.751114e+00    3.158595e+00
  5.766990e+00    3.157191e+00
  5.782865e+00    3.078976e+00
  5.798741e+00    3.102053e+00
  5.814616e+00    3.093854e+00
  5.830492e+00    3.066373e+00
  5.846367e+00    3.024571e+00
  5.862243e+00    3.053483e+00
  5.878119e+00    3.045301e+00
  5.893994e+00    3.035603e+00
  5.909870e+00    2.992420e+00
  5.925745e+00    3.006083e+00
  5.941621e+00    3.126113e+00
  5.957497e+00    3.077427e+00
  5.973372e+00    2.990714e+00
  5.989248e+00    2.982685e+00
  6.005123e+00    2.983051e+00
  6.020999e+00    3.066877e+00
  6.036874e+00    3.043278e+00
  6.052750e+00    3.051051e+00
  6.068626e+00    3.006654e+00
  6.084501e+00    2.979732e+00
  6.100377e+00    3.060360e+00
  6.116252e+00    3.062538e+00
  6.132128e+00    3.049706e+00
  6.148003e+00    3.069073e+00
  6.163879e+00    3.131899e+00
  6.179755e+00    3.108792e+00
  6.195630e+00    3.035817e+00
  6.211506e+00    3.030062e+00
  6.227381e+00    3.038018e+00
  6.243257e+00    3.092637e+00
  6.259132e+00    3.073445e+00
  6.275008e+00    3.040289e+00
  6.290884e+00    3.056723e+00
  6.306759e+00    3.077878e+00
  6.322635e+00    2.995626e+00
  6.338510e+00    3.039428e+00
  6.354386e+00    3.083943e+00
  6.370261e+00    3.067604e+00
  6.386137e+00    3.123337e+00
  6.402013e+00    3.075636e+00
  6.417888e+00    3.077993e+00
  6.433764e+00    3.067467e+00
  6.449639e+00    3.058367e+00
  6.465515e+00    3.018033e+00
  6.481390e+00    3.011494e+00
  6.497266e+00    3.039342e+00
  6.513142e+00    3.058685e+00
  6.529017e+00    2.973280e+00
  6.544893e+00    2.959136e+00
  6.560768e+00    3.021746e+00
  6.576644e+00    2.964821e+00
  6.592519e+00    3.028812e+00
  6.608395e+00    3.081982e+00
  6.624271e+00    3.012358e+00
  6.640146e+00    3.004213e+00
  6.656022e+00    3.013888e+00
  6.671897e+00    3.010386e+00
  6.687773e+00    2.998708e+00
  6.703648e+00    2.973732e+00
  6.719524e+00    3.036601e+00
  6.735400e+00    3.093072e+00
  6.751275e+00    3.066858e+00
  6.767151e+00    3.075103e+00
  6.783026e+00    3.059241e+00
  6.798902e+00    3.027934e+00
  6.814777e+00    3.063518e+00
  6.830653e+00    3.000027e+00
  6.846529e+00    2.952635e+00
  6.862404e+00    2.974790e+00
  6.878280e+00    3.073483e+00
  6.894155e+00    3.028284e+00
  6.910031e+00    2.916427e+00
  6.925907e+00    2.955978e+00
  6.941782e+00    3.078881e+00
  6.957658e+00    3.056489e+00
  6.973533e+00    3.014175e+00
  6.989409e+00    2.963776e+00
  7.005284e+00    2.960155e+00
  7.021160e+00    2.945551e+00
  7.037036e+00    3.039522e+00
  7.052911e+00    3.049922e+00
  7.068787e+00    3.007106e+00
  7.084662e+00    2.954466e+00
  7.100538e+00    2.971866e+00
  7.116413e+00    3.012678e+00
  7.132289e+00    2.995030e+00
  7.148165e+00    3.008824e+00
  7.164040e+00    3.006669e+00
  7.179916e+00    2.976408e+00
  7.195791e+00    2.987262e+00
  7.211667e+00    3.017323e+00
  7.227542e+00    2.985182e+00
  7.243418e+00    3.013972e+00
  7.259294e+00    3.042909e+00
  7.275169e+00    2.987025e+00
  7.291045e+00    3.011215e+00
  7.306920e+00    2.972670e+00
  7.322796e+00    2.973778e+00
  7.338671e+00    3.030289e+00
  7.354547e+00    2.992803e+00
  7.370423e+00    3.026447e+00
  7.386298e+00    2.965037e+00
  7.402174e+00    2.913012e+00
  7.418049e+00    2.983957e+00
  7.433925e+00    2.989563e+00
  7.449800e+00    2.975175e+00
  7.465676e+00    3.038468e+00
  7.481552e+00    2.993182e+00
  7.497427e+00    2.961941e+00
  7.513303e+00    2.993279e+00
  7.529178e+00    2.920527e+00
  7.545054e+00    2.998488e+00
  7.560929e+00    3.067430e+00
  7.576805e+00    3.012337e+00
  7.592681e+00    3.002881e+00
  7.608556e+00    3.001591e+00
  7.624432e+00    2.949508e+00
  7.640307e+00    3.015072e+00
  7.656183e+00    3.016353e+00
  7.672058e+00    2.948325e+00
  7.687934e+00    2.939607e+00
  7.703810e+00    2.943344e+00
  7.719685e+00    2.930266e+00
  7.735561e+00    2.894510e+00
  7.751436e+00    2.923486e+00
  7.767312e+00    2.942600e+00
  7.783187e+00    2.923381e+00
  7.799063e+00    2.937700e+00
  7.814939e+00    2.936577e+00
  7.830814e+00    2.920263e+00
  7.846690e+00    2.956138e+00
  7.862565e+00    2.913638e+00
  7.878441e+00    2.886680e+00
  7.894317e+00    2.898201e+00
  7.910192e+00    2.902550e+00
  7.926068e+00    2.890223e+00
  7.941943e+00    2.894177e+00
  7.957819e+00    2.972989e+00
  7.973694e+00    2.942065e+00
  7.989570e+00    2.896631e+00
  8.005446e+00    2.915756e+00
  8.021321e+00    2.993954e+00
  8.037197e+00    2.880422e+00
  8.053072e+00    2.873608e+00
  8.068948e+00    2.926319e+00
  8.084823e+00    2.935311e+00
  8.100699e+00    2.895046e+00
  8.116575e+00    2.903997e+00
  8.132450e+00    2.876503e+00
  8.148326e+00    2.903674e+00
  8.164201e+00    2.894988e+00
  8.180077e+00    2.913544e+00
  8.195952e+00    2.880896e+00
  8.211828e+00    2.952844e+00
  8.227704e+00    2.988327e+00
  8.243579e+00    2.895280e+00
  8.259455e+00    2.932035e+00
  8.275330e+00    2.951497e+00
  8.291206e+00    2.830278e+00
  8.307081e+00    2.865823e+00
  8.322957e+00    2.955406e+00
  8.338833e+00    2.976385e+00
  8.354708e+00    2.929203e+00
  8.370584e+00    2.965787e+00
  8.386459e+00    2.962224e+00
  8.402335e+00    2.906815e+00
  8.418210e+00    2.914786e+00
  8.434086e+00    2.860614e+00
  8.449962e+00    2.873056e+00
  8.465837e+00    2.945810e+00
  8.481713e+00    2.930702e+00
  8.497588e+00    2.902887e+00
  8.513464e+00    2.877717e+00
  8.529339e+00    2.884977e+00
  8.545215e+00    2.920039e+00
  8.561091e+00    2.894046e+00
  8.576966e+00    2.865188e+00
  8.592842e+00    2.881263e+00
  8.608717e+00    2.900021e+00
  8.624593e+00    2.877049e+00
  8.640468e+00    2.906446e+00
  8.656344e+00    2.934226e+00
  8.672220e+00    2.922295e+00
  8.688095e+00    2.937723e+00
  8.703971e+00    2.907392e+00
  8.719846e+00    2.833367e+00
  8.735722e+00    2.829371e+00
  8.751598e+00    2.836015e+00
  8.767473e+00    2.905879e+00
  8.783349e+00    2.882060e+00
  8.799224e+00    2.851902e+00
  8.815100e+00    2.848191e+00
  8.830975e+00    2.919757e+00
  8.846851e+00    2.904160e+00
  8.862727e+00    2.900774e+00
  8.878602e+00    2.866634e+00
  8.894478e+00    2.803134e+00
  8.910353e+00    2.830837e+00
  8.926229e+00    2.804252e+00
  8.942104e+00    2.759556e+00
  8.957980e+00    2.797232e+00
  8.973856e+00    2.755792e+00
  8.989731e+00    2.762946e+00
  9.005607e+00    2.850609e+00
  9.021482e+00    2.889567e+00
  9.037358e+00    2.848589e+00
  9.053233e+00    2.892584e+00
  9.069109e+00    2.820378e+00
  9.084985e+00    2.792010e+00
  9.100860e+00    2.817128e+00
  9.116736e+00    2.775676e+00
  9.132611e+00    2.759264e+00
  9.148487e+00    2.843043e+00
  9.164362e+00    2.838562e+00
  9.180238e+00    2.784660e+00
  9.196114e+00    2.829715e+00
  9.211989e+00    2.766077e+00
  9.227865e+00    2.745621e+00
  9.243740e+00    2.767876e+00
  9.259616e+00    2.819796e+00
  9.275491e+00    2.805668e+00
  9.291367e+00    2.776029e+00
  9.307243e+00    2.783551e+00
  9.323118e+00    2.784505e+00
  9.338994e+00    2.789102e+00
  9.354869e+00    2.784119e+00
  9.370745e+00    2.816504e+00
  9.386620e+00    2.808651e+00
  9.402496e+00    2.754240e+00
  9.418372e+00    2.741049e+00
  9.434247e+00    2.745089e+00
  9.450123e+00    2.739237e+00
  9.465998e+00    2.750957e+00
  9.481874e+00    2.779185e+00
  9.497749e+00    2.760851e+00
  9.513625e+00    2.806878e+00
  9.529501e+00    2.795343e+00
  9.545376e+00    2.756824e+00
  9.561252e+00    2.761176e+00
  9.577127e+00    2.760204e+00
  9.593003e+00    2.725402e+00
  9.608878e+00    2.748301e+00
  9.624754e+00    2.791207e+00
  9.640630e+00    2.808052e+00
  9.656505e+00    2.835500e+00
  9.672381e+00    2.804526e+00
  9.688256e+00    2.716182e+00
  9.704132e+00    2.727508e+00
  9.720008e+00    2.772908e+00
  9.735883e+00    2.745324e+00
  9.751759e+00    2.699808e+00
  9.767634e+00    2.686649e+00
  9.783510e+00    2.745822e+00
  9.799385e+00    2.708024e+00
  9.815261e+00    2.707170e+00
  9.831137e+00    2.703419e+00
  9.847012e+00    2.692872e+00
  9.862888e+00    2.716264e+00
  9.878763e+00    2.682452e+00
  9.894639e+00    2.673297e+00
  9.910514e+00    2.714731e+00
  9.926390e+00    2.735829e+00
  9.942266e+00    2.732421e+00
  9.958141e+00    2.723676e+00
  9.974017e+00    2.689153e+00
  9.989892e+00    2.690310e+00
  1.000577e+01    2.635043e+00
  1.002164e+01    2.750648e+00
  1.003752e+01    2.708332e+00
  1.005339e+01    2.669138e+00
  1.006927e+01    2.667503e+00
  1.008515e+01    2.713757e+00
  1.010102e+01    2.654594e+00
  1.011690e+01    2.610226e+00
  1.013277e+01    2.625559e+00
  1.014865e+01    2.602470e+00
  1.016452e+01    2.615303e+00
  1.018040e+01    2.689934e+00
  1.019627e+01    2.692693e+00
  1.021215e+01    2.604489e+00
  1.022803e+01    2.644573e+00
  1.024390e+01    2.665889e+00
  1.025978e+01    2.663807e+00
  1.027565e+01    2.625349e+00
  1.029153e+01    2.689751e+00
  1.030740e+01    2.638808e+00
  1.032328e+01    2.615367e+00
  1.033915e+01    2.636727e+00
  1.035503e+01    2.635032e+00
  1.037091e+01    2.602367e+00
  1.038678e+01    2.595759e+00
  1.040266e+01    2.611444e+00
  1.041853e+01    2.627032e+00
  1.043441e+01    2.617034e+00
  1.045028e+01    2.605265e+00
  1.046616e+01    2.546860e+00
  1.048204e+01    2.548147e+00
  1.049791e+01    2.565743e+00
  1.051379e+01    2.598931e+00
  1.052966e+01    2.636540e+00
  1.054554e+01    2.602624e+00
  1.056141e+01    2.615279e+00
  1.057729e+01    2.616725e+00
  1.059316e+01    2.636474e+00
  1.060904e+01    2.583953e+00
  1.062492e+01    2.574636e+00
  1.064079e+01    2.613680e+00
  1.065667e+01    2.587394e+00
  1.067254e+01    2.587815e+00
  1.068842e+01    2.542922e+00
  1.070429e+01    2.553275e+00
  1.072017e+01    2.536404e+00
  1.073604e+01    2.563392e+00
  1.075192e+01    2.613583e+00
  1.076780e+01    2.563319e+00
  1.078367e+01    2.497590e+00
  1.079955e+01    2.504558e+00
  1.081542e+01    2.535652e+00
  1.083130e+01    2.515351e+00
  1.084717e+01    2.532919e+00
  1.086305e+01    2.595871e+00
  1.087892e+01    2.593707e+00
  1.089480e+01    2.548196e+00
  1.091068e+01    2.587568e+00
  1.092655e+01    2.557655e+00
  1.094243e+01    2.506492e+00
  1.095830e+01    2.517940e+00
  1.097418e+01    2.533423e+00
  1.099005e+01    2.509648e+00
  1.100593e+01    2.505621e+00
  1.102180e+01    2.472502e+00
  1.103768e+01    2.497842e+00
  1.105356e+01    2.513452e+00
  1.106943e+01    2.517583e+00
  1.108531e+01    2.449899e+00
  1.110118e+01    2.491869e+00
  1.111706e+01    2.469685e+00
  1.113293e+01    2.492331e+00
  1.114881e+01    2.497269e+00
  1.116468e+01    2.488311e+00
  1.118056e+01    2.471692e+00
  1.119644e+01    2.522516e+00
  1.121231e+01    2.487483e+00
  1.122819e+01    2.478021e+00
  1.124406e+01    2.480211e+00
  1.125994e+01    2.470699e+00
  1.127581e+01    2.470102e+00
  1.129169e+01    2.448684e+00
  1.130756e+01    2.435205e+00
  1.132344e+01    2.452369e+00
  1.133932e+01    2.448338e+00
  1.135519e+01    2.444417e+00
  1.137107e+01    2.467737e+00
  1.138694e+01    2.426418e+00
  1.140282e+01    2.472552e+00
  1.141869e+01    2.448615e+00
  1.143457e+01    2.401834e+00
  1.145045e+01    2.423696e+00
  1.146632e+01    2.463198e+00
  1.148220e+01    2.429723e+00
  1.149807e+01    2.403410e+00
  1.151395e+01    2.438296e+00
  1.152982e+01    2.383091e+00
  1.154570e+01    2.372892e+00
  1.156157e+01    2.396179e+00
  1.157745e+01    2.426369e+00
  1.159333e+01    2.402628e+00
  1.160920e+01    2.373573e+00
  1.162508e+01    2.359696e+00
  1.164095e+01    2.386193e+00
  1.165683e+01    2.390711e+00
  1.167270e+01    2.387505e+00
  1.168858e+01    2.353949e+00
  1.170445e+01    2.366475e+00
  1.172033e+01    2.372475e+00
  1.173621e+01    2.355372e+00
  1.175208e+01    2.342176e+00
  1.176796e+01    2.330089e+00
  1.178383e+01    2.323218e+00
  1.179971e+01    2.383574e+00
  1.181558e+01    2.365082e+00
  1.183146e+01    2.301174e+00
  1.184733e+01    2.361900e+00
  1.186321e+01    2.366949e+00
  1.187909e+01    2.369951e+00
  1.189496e+01    2.339385e+00
  1.191084e+01    2.362339e+00
  1.192671e+01    2.382438e+00
  1.194259e+01    2.362461e+00
  1.195846e+01    2.327228e+00
  1.197434e+01    2.293254e+00
  1.199021e+01    2.334313e+00
  1.200609e+01    2.313729e+00
  1.202197e+01    2.343481e+00
  1.203784e+01    2.339027e+00
  1.205372e+01    2.304201e+00
  1.206959e+01    2.288820e+00
  1.208547e+01    2.296211e+00
  1.210134e+01    2.298334e+00
  1.211722e+01    2.339002e+00
  1.213309e+01    2.318097e+00
  1.214897e+01    2.309528e+00
  1.216485e+01    2.344064e+00
  1.218072e+01    2.335907e+00
  1.219660e+01    2.330642e+00
  1.221247e+01    2.337902e+00
  1.222835e+01    2.362784e+00
  1.224422e+01    2.336690e+00
  1.226010e+01    2.323608e+00
  1.227597e+01    2.275920e+00
  1.229185e+01    2.330707e+00
  1.230773e+01    2.347474e+00
  1.232360e+01    2.347972e+00
  1.233948e+01    2.349311e+00
  1.235535e+01    2.318174e+00
  1.237123e+01    2.359585e+00
  1.238710e+01    2.376297e+00
  1.240298e+01    2.389594e+00
  1.241886e+01    2.334599e+00
  1.243473e+01    2.279771e+00
  1.245061e+01    2.342594e+00
  1.246648e+01    2.371778e+00
  1.248236e+01    2.345078e+00
  1.249823e+01    2.330920e+00
  1.251411e+01    2.379456e+00
  1.252998e+01    2.353840e+00
  1.254586e+01    2.365166e+00
  1.256174e+01    2.409057e+00
  1.257761e+01    2.398993e+00
  1.259349e+01    2.366727e+00
  1.260936e+01    2.376048e+00
  1.262524e+01    2.415115e+00
  1.264111e+01    2.428931e+00
  1.265699e+01    2.426272e+00
  1.267286e+01    2.458357e+00
  1.268874e+01    2.487533e+00
  1.270462e+01    2.481521e+00
  1.272049e+01    2.551364e+00
  1.273637e+01    2.545680e+00
  1.275224e+01    2.527884e+00
  1.276812e+01    2.560653e+00
  1.278399e+01    2.642491e+00
  1.279987e+01    2.686504e+00
  1.281574e+01    2.745510e+00
  1.283162e+01    2.780867e+00
  1.284750e+01    2.842955e+00
  1.286337e+01    2.953705e+00
  1.287925e+01    3.042511e+00
  1.289512e+01    3.194377e+00
  1.291100e+01    3.285846e+00
  1.292687e+01    3.414348e+00
  1.294275e+01    3.684834e+00
  1.295862e+01    3.934023e+00
  1.297450e+01    4.237936e+00
  1.299038e+01    4.627665e+00
  1.300625e+01    5.177274e+00
  1.302213e+01    5.845550e+00
  1.303800e+01    6.719186e+00
  1.305388e+01    7.804282e+00
  1.306975e+01    9.234268e+00
  1.308563e+01    1.063871e+01
  1.310150e+01    1.206675e+01
  1.311738e+01    1.362929e+01
  1.313326e+01    1.513200e+01
  1.314913e+01    1.650916e+01
  1.316501e+01    1.786405e+01
  1.318088e+01    1.890413e+01
  1.319676e+01    1.944848e+01
  1.321263e+01    1.905681e+01
  1.322851e+01    1.774360e+01
  1.324438e+01    1.572848e+01
  1.326026e+01    1.332371e+01
  1.327614e+01    1.109492e+01
  1.329201e+01    9.310233e+00
  1.330789e+01    7.854852e+00
  1.332376e+01    6.759652e+00
  1.333964e+01    5.942844e+00
  1.335551e+01    5.278521e+00
  1.337139e+01    4.688285e+00
  1.338727e+01    4.317923e+00
  1.340314e+01    4.016938e+00
  1.341902e+01    3.660714e+00
  1.343489e+01    3.514355e+00
  1.345077e+01    3.310644e+00
  1.346664e+01    3.166606e+00
  1.348252e+01    3.045254e+00
  1.349839e+01    2.908323e+00
  1.351427e+01    2.874384e+00
  1.353015e+01    2.697988e+00
  1.354602e+01    2.620161e+00
  1.356190e+01    2.613527e+00
  1.357777e+01    2.571270e+00
  1.359365e+01    2.509794e+00
  1.360952e+01    2.419020e+00
  1.362540e+01    2.428838e+00
  1.364127e+01    2.387815e+00
  1.365715e+01    2.360577e+00
  1.367303e+01    2.346154e+00
  1.368890e+01    2.314196e+00
  1.370478e+01    2.355829e+00
  1.372065e+01    2.303297e+00
  1.373653e+01    2.259305e+00
  1.375240e+01    2.247911e+00
  1.376828e+01    2.226828e+00
  1.378415e+01    2.231981e+00
  1.380003e+01    2.194074e+00
  1.381591e+01    2.184966e+00
  1.383178e+01    2.170530e+00
  1.384766e+01    2.192363e+00
  1.386353e+01    2.192163e+00
  1.387941e+01    2.175695e+00
  1.389528e+01    2.163978e+00
  1.391116e+01    2.119492e+00
  1.392703e+01    2.149542e+00
  1.394291e+01    2.136189e+00
  1.395879e+01    2.111391e+00
  1.397466e+01    2.084303e+00
  1.399054e+01    2.069032e+00
  1.400641e+01    2.063509e+00
  1.402229e+01    2.058862e+00
  1.403816e+01    2.042004e+00
  1.405404e+01    2.045124e+00
  1.406991e+01    2.033638e+00
  1.408579e+01    1.966855e+00
  1.410167e+01    1.990216e+00
  1.411754e+01    2.015438e+00
  1.413342e+01    2.042168e+00
  1.414929e+01    2.045659e+00
  1.416517e+01    2.028802e+00
  1.418104e+01    2.035319e+00
  1.419692e+01    2.020781e+00
  1.421279e+01    2.013670e+00
  1.422867e+01    2.014322e+00
  1.424455e+01    2.014715e+00
  1.426042e+01    1.977213e+00
  1.427630e+01    1.960738e+00
  1.429217e+01    2.017168e+00
  1.430805e+01    2.015282e+00
  1.432392e+01    1.967675e+00
  1.433980e+01    1.965111e+00
  1.435568e+01    1.964012e+00
  1.437155e+01    1.950642e+00
  1.438743e+01    1.959296e+00
  1.440330e+01    1.941341e+00
  1.441918e+01    1.927396e+00
  1.443505e+01    1.941777e+00
  1.445093e+01    1.929611e+00
  1.446680e+01    1.927859e+00
  1.448268e+01    1.954090e+00
  1.449856e+01    1.969105e+00
  1.451443e+01    1.961559e+00
  1.453031e+01    1.970261e+00
  1.454618e+01    1.953103e+00
  1.456206e+01    1.942204e+00
  1.457793e+01    1.899839e+00
  1.459381e+01    1.882168e+00
  1.460968e+01    1.899951e+00
  1.462556e+01    1.903784e+00
  1.464144e+01    1.907928e+00
  1.465731e+01    1.942854e+00
  1.467319e+01    1.969299e+00
  1.468906e+01    1.936440e+00
  1.470494e+01    1.911376e+00
  1.472081e+01    1.884099e+00
  1.473669e+01    1.905110e+00
  1.475256e+01    1.928669e+00
  1.476844e+01    1.914586e+00
  1.478432e+01    1.918481e+00
  1.480019e+01    1.953631e+00
  1.481607e+01    1.957239e+00
  1.483194e+01    1.957379e+00
  1.484782e+01    1.956397e+00
  1.486369e+01    1.921674e+00
  1.487957e+01    1.947276e+00
  1.489544e+01    1.956692e+00
  1.491132e+01    1.958625e+00
  1.492720e+01    1.986287e+00
  1.494307e+01    2.048579e+00
  1.495895e+01    2.075278e+00
  1.497482e+01    2.083504e+00
  1.499070e+01    2.135134e+00
  1.500657e+01    2.190426e+00
  1.502245e+01    2.235045e+00
  1.503832e+01    2.244230e+00
  1.505420e+01    2.385527e+00
  1.507008e+01    2.478977e+00
  1.508595e+01    2.581782e+00
  1.510183e+01    2.756443e+00
  1.511770e+01    2.965627e+00
  1.513358e+01    3.248593e+00
  1.514945e+01    3.643878e+00
  1.516533e+01    4.002734e+00
  1.518120e+01    4.400623e+00
  1.519708e+01    4.897678e+00
  1.521296e+01    5.305711e+00
  1.522883e+01    5.654089e+00
  1.524471e+01    5.931401e+00
  1.526058e+01    6.252304e+00
  1.527646e+01    6.458343e+00
  1.529233e+01    6.450618e+00
  1.530821e+01    6.357555e+00
  1.532409e+01    5.943846e+00
  1.533996e+01    5.415511e+00
  1.535584e+01    4.788747e+00
  1.537171e+01    4.238811e+00
  1.538759e+01    3.718059e+00
  1.540346e+01    3.345690e+00
  1.541934e+01    3.098111e+00
  1.543521e+01    2.811428e+00
  1.545109e+01    2.614100e+00
  1.546697e+01    2.399382e+00
  1.548284e+01    2.296262e+00
  1.549872e+01    2.228898e+00
  1.551459e+01    2.130229e+00
  1.553047e+01    2.064955e+00
  1.554634e+01    2.030654e+00
  1.556222e+01    2.002323e+00
  1.557809e+01    1.938129e+00
  1.559397e+01    1.925938e+00
  1.560985e+01    1.912920e+00
  1.562572e+01    1.870602e+00
  1.564160e+01    1.828776e+00
  1.565747e+01    1.825306e+00
  1.567335e+01    1.805514e+00
  1.568922e+01    1.794056e+00
  1.570510e+01    1.753468e+00
  1.572097e+01    1.737992e+00
  1.573685e+01    1.730034e+00
  1.575273e+01    1.717595e+00
  1.576860e+01    1.733980e+00
  1.578448e+01    1.704524e+00
  1.580035e+01    1.687966e+00
  1.581623e+01    1.676247e+00
  1.583210e+01    1.690321e+00
  1.584798e+01    1.669672e+00
  1.586385e+01    1.665608e+00
  1.587973e+01    1.683598e+00
  1.589561e+01    1.679116e+00
  1.591148e+01    1.662187e+00
  1.592736e+01    1.667433e+00
  1.594323e+01    1.649542e+00
  1.595911e+01    1.663222e+00
  1.597498e+01    1.654184e+00
  1.599086e+01    1.617163e+00
  1.600673e+01    1.636443e+00
  1.602261e+01    1.619254e+00
  1.603849e+01    1.617617e+00
  1.605436e+01    1.626612e+00
  1.607024e+01    1.615838e+00
  1.608611e+01    1.615854e+00
  1.610199e+01    1.593717e+00
  1.611786e+01    1.582004e+00
  1.613374e+01    1.619265e+00
  1.614961e+01    1.618104e+00
  1.616549e+01    1.580821e+00
  1.618137e+01    1.575413e+00
  1.619724e+01    1.587531e+00
  1.621312e+01    1.618967e+00
  1.622899e+01    1.595026e+00
  1.624487e+01    1.592903e+00
  1.626074e+01    1.573998e+00
  1.627662e+01    1.550473e+00
  1.629250e+01    1.545797e+00
  1.630837e+01    1.563477e+00
  1.632425e+01    1.573861e+00
  1.634012e+01    1.564701e+00
  1.635600e+01    1.552846e+00
  1.637187e+01    1.548114e+00
  1.638775e+01    1.534199e+00
  1.640362e+01    1.554457e+00
  1.641950e+01    1.541936e+00
  1.643538e+01    1.554389e+00
  1.645125e+01    1.537663e+00
  1.646713e+01    1.520872e+00
  1.648300e+01    1.561766e+00
  1.649888e+01    1.543993e+00
  1.651475e+01    1.516524e+00
  1.653063e+01    1.529568e+00
  1.654650e+01    1.542478e+00
  1.656238e+01    1.507157e+00
  1.657826e+01    1.516459e+00
  1.659413e+01    1.502605e+00
  1.661001e+01    1.539611e+00
  1.662588e+01    1.533953e+00
  1.664176e+01    1.497765e+00
  1.665763e+01    1.516048e+00
  1.667351e+01    1.532559e+00
  1.668938e+01    1.489405e+00
  1.670526e+01    1.478491e+00
  1.672114e+01    1.489933e+00
  1.673701e+01    1.508936e+00
  1.675289e+01    1.514979e+00
  1.676876e+01    1.486749e+00
  1.678464e+01    1.488866e+00
  1.680051e+01    1.512835e+00
  1.681639e+01    1.474449e+00
  1.683226e+01    1.472767e+00
  1.684814e+01    1.490867e+00
  1.686402e+01    1.496305e+00
  1.687989e+01    1.482389e+00
  1.689577e+01    1.456010e+00
  1.691164e+01    1.465681e+00
  1.692752e+01    1.454846e+00
  1.694339e+01    1.454228e+00
  1.695927e+01    1.469391e+00
  1.697514e+01    1.440291e+00
  1.699102e+01    1.465109e+00
  1.700690e+01    1.427169e+00
  1.702277e+01    1.431245e+00
  1.703865e+01    1.453305e+00
  1.705452e+01    1.445554e+00
  1.707040e+01    1.433488e+00
  1.708627e+01    1.405779e+00
  1.710215e+01    1.434708e+00
  1.711802e+01    1.443019e+00
  1.713390e+01    1.433635e+00
  1.714978e+01    1.429881e+00
  1.716565e+01    1.428163e+00
  1.718153e+01    1.398270e+00
  1.719740e+01    1.404737e+00
  1.721328e+01    1.421689e+00
  1.722915e+01    1.425614e+00
  1.724503e+01    1.416680e+00
  1.726091e+01    1.425614e+00
  1.727678e+01    1.429426e+00
  1.729266e+01    1.411709e+00
  1.730853e+01    1.383583e+00
  1.732441e+01    1.394398e+00
  1.734028e+01    1.387930e+00
  1.735616e+01    1.411863e+00
  1.737203e+01    1.388383e+00
  1.738791e+01    1.375752e+00
  1.740379e+01    1.371373e+00
  1.741966e+01    1.369158e+00
  1.743554e+01    1.381262e+00
  1.745141e+01    1.373369e+00
  1.746729e+01    1.391046e+00
  1.748316e+01    1.374957e+00
  1.749904e+01    1.403170e+00
  1.751491e+01    1.383476e+00
  1.753079e+01    1.369844e+00
  1.754667e+01    1.368948e+00
  1.756254e+01    1.375930e+00
  1.757842e+01    1.367806e+00
  1.759429e+01    1.330251e+00
  1.761017e+01    1.335220e+00
  1.762604e+01    1.335554e+00
  1.764192e+01    1.357379e+00
  1.765779e+01    1.352625e+00
  1.767367e+01    1.350556e+00
  1.768955e+01    1.356052e+00
  1.770542e+01    1.325215e+00
  1.772130e+01    1.346473e+00
  1.773717e+01    1.314786e+00
  1.775305e+01    1.321087e+00
  1.776892e+01    1.345190e+00
  1.778480e+01    1.343594e+00
  1.780067e+01    1.355476e+00
  1.781655e+01    1.353300e+00
  1.783243e+01    1.336016e+00
  1.784830e+01    1.340910e+00
  1.786418e+01    1.379774e+00
  1.788005e+01    1.345543e+00
  1.789593e+01    1.349524e+00
  1.791180e+01    1.365145e+00
  1.792768e+01    1.344163e+00
  1.794355e+01    1.344990e+00
  1.795943e+01    1.324625e+00
  1.797531e+01    1.312077e+00
  1.799118e+01    1.313681e+00
  1.800706e+01    1.322778e+00
  1.802293e+01    1.283256e+00
  1.803881e+01    1.288456e+00
  1.805468e+01    1.295724e+00
  1.807056e+01    1.301779e+00
  1.808643e+01    1.289272e+00
  1.810231e+01    1.312238e+00
  1.811819e+01    1.325662e+00
  1.813406e+01    1.309858e+00
  1.814994e+01    1.318431e+00
  1.816581e+01    1.312759e+00
  1.818169e+01    1.313825e+00
  1.819756e+01    1.289573e+00
  1.821344e+01    1.294153e+00
  1.822932e+01    1.312889e+00
  1.824519e+01    1.294693e+00
  1.826107e+01    1.286916e+00
  1.827694e+01    1.280354e+00
  1.829282e+01    1.286977e+00
  1.830869e+01    1.266645e+00
  1.832457e+01    1.279728e+00
  1.834044e+01    1.297278e+00
  1.835632e+01    1.266609e+00
  1.837220e+01    1.278650e+00
  1.838807e+01    1.278056e+00
  1.840395e+01    1.255192e+00
  1.841982e+01    1.270431e+00
  1.843570e+01    1.264718e+00
  1.845157e+01    1.281226e+00
  1.846745e+01    1.268105e+00
  1.848332e+01    1.265302e+00
  1.849920e+01    1.230574e+00
  1.851508e+01    1.220695e+00
  1.853095e+01    1.266075e+00
  1.854683e+01    1.245904e+00
  1.856270e+01    1.265970e+00
  1.857858e+01    1.276623e+00
  1.859445e+01    1.283392e+00
  1.861033e+01    1.283680e+00
  1.862620e+01    1.227065e+00
  1.864208e+01    1.215683e+00
  1.865796e+01    1.240130e+00
  1.867383e+01    1.263561e+00
  1.868971e+01    1.252447e+00
  1.870558e+01    1.205060e+00
  1.872146e+01    1.217411e+00
  1.873733e+01    1.220796e+00
  1.875321e+01    1.214486e+00
  1.876908e+01    1.219957e+00
  1.878496e+01    1.228302e+00
  1.880084e+01    1.241026e+00
  1.881671e+01    1.239523e+00
  1.883259e+01    1.213422e+00
  1.884846e+01    1.228102e+00
  1.886434e+01    1.226311e+00
  1.888021e+01    1.241909e+00
  1.889609e+01    1.237276e+00
  1.891196e+01    1.221182e+00
  1.892784e+01    1.230489e+00
  1.894372e+01    1.219478e+00
  1.895959e+01    1.215329e+00
  1.897547e+01    1.184586e+00
  1.899134e+01    1.188224e+00
  1.900722e+01    1.188466e+00
  1.902309e+01    1.210952e+00
  1.903897e+01    1.236012e+00
  1.905484e+01    1.222252e+00
  1.907072e+01    1.224423e+00
  1.908660e+01    1.192432e+00
  1.910247e+01    1.179777e+00
  1.911835e+01    1.183102e+00
  1.913422e+01    1.177290e+00
  1.915010e+01    1.172505e+00
  1.916597e+01    1.181863e+00
  1.918185e+01    1.206100e+00
  1.919773e+01    1.201619e+00
  1.921360e+01    1.194627e+00
  1.922948e+01    1.206871e+00
  1.924535e+01    1.193346e+00
  1.926123e+01    1.180964e+00
  1.927710e+01    1.193158e+00
  1.929298e+01    1.196897e+00
  1.930885e+01    1.200808e+00
  1.932473e+01    1.197129e+00
  1.934061e+01    1.197078e+00
  1.935648e+01    1.203036e+00
  1.937236e+01    1.191751e+00
  1.938823e+01    1.174462e+00
  1.940411e+01    1.170243e+00
  1.941998e+01    1.176369e+00
  1.943586e+01    1.205461e+00
  1.945173e+01    1.202548e+00
  1.946761e+01    1.186478e+00
  1.948349e+01    1.170881e+00
  1.949936e+01    1.185503e+00
  1.951524e+01    1.182063e+00
  1.953111e+01    1.182953e+00
  1.954699e+01    1.188125e+00
  1.956286e+01    1.159620e+00
  1.957874e+01    1.151300e+00
  1.959461e+01    1.177200e+00
  1.961049e+01    1.175724e+00
  1.962637e+01    1.146403e+00
  1.964224e+01    1.142080e+00
  1.965812e+01    1.147574e+00
  1.967399e+01    1.158705e+00
  1.968987e+01    1.166839e+00
  1.970574e+01    1.150957e+00
  1.972162e+01    1.142052e+00
  1.973749e+01    1.141188e+00
  1.975337e+01    1.140783e+00
  1.976925e+01    1.158762e+00
  1.978512e+01    1.157823e+00
  1.980100e+01    1.150353e+00
  1.981687e+01    1.138449e+00
  1.983275e+01    1.140616e+00
  1.984862e+01    1.160282e+00
  1.986450e+01    1.163000e+00
  1.988037e+01    1.129833e+00
  1.989625e+01    1.128777e+00
  1.991213e+01    1.118527e+00
  1.992800e+01    1.101239e+00
  1.994388e+01    1.103863e+00
  1.995975e+01    1.119196e+00
  1.997563e+01    1.120505e+00
  1.999150e+01    1.125147e+00
  2.000738e+01    1.113171e+00
  2.002325e+01    1.115874e+00
  2.003913e+01    1.123346e+00
  2.005501e+01    1.118192e+00
  2.007088e+01    1.106657e+00
  2.008676e+01    1.112183e+00
  2.010263e+01    1.134492e+00
  2.011851e+01    1.137371e+00
  2.013438e+01    1.115575e+00
  2.015026e+01    1.123614e+00
  2.016614e+01    1.114125e+00
  2.018201e+01    1.124473e+00
  2.019789e+01    1.139430e+00
  2.021376e+01    1.099275e+00
  2.022964e+01    1.090391e+00
  2.024551e+01    1.096276e+00
  2.026139e+01    1.123787e+00
  2.027726e+01    1.099943e+00
  2.029314e+01    1.081962e+00
  2.030902e+01    1.098361e+00
  2.032489e+01    1.128417e+00
  2.034077e+01    1.118729e+00
  2.035664e+01    1.098798e+00
  2.037252e+01    1.108515e+00
  2.038839e+01    1.103752e+00
  2.040427e+01    1.122558e+00
  2.042014e+01    1.091157e+00
  2.043602e+01    1.086375e+00
  2.045190e+01    1.105372e+00
  2.046777e+01    1.105512e+00
  2.048365e+01    1.097456e+00
  2.049952e+01    1.086402e+00
  2.051540e+01    1.101913e+00
  2.053127e+01    1.093401e+00
  2.054715e+01    1.087783e+00
  2.056302e+01    1.077568e+00
  2.057890e+01    1.075652e+00
  2.059478e+01    1.080946e+00
  2.061065e+01    1.103922e+00
  2.062653e+01    1.085495e+00
  2.064240e+01    1.072450e+00
  2.065828e+01    1.096129e+00
  2.067415e+01    1.108124e+00
  2.069003e+01    1.095150e+00
  2.070590e+01    1.099606e+00
  2.072178e+01    1.083274e+00
  2.073766e+01    1.061781e+00
  2.075353e+01    1.079027e+00
  2.076941e+01    1.094126e+00
  2.078528e+01    1.102921e+00
  2.080116e+01    1.083643e+00
  2.081703e+01    1.089118e+00
  2.083291e+01    1.088549e+00
  2.084878e+01    1.088521e+00
  2.086466e+01    1.088685e+00
  2.088054e+01    1.082772e+00
  2.089641e+01    1.099480e+00
  2.091229e+01    1.113798e+00
  2.092816e+01    1.098882e+00
  2.094404e+01    1.068343e+00
  2.095991e+01    1.076888e+00
  2.097579e+01    1.063601e+00
  2.099166e+01    1.075956e+00
  2.100754e+01    1.086980e+00
  2.102342e+01    1.089366e+00
  2.103929e+01    1.077053e+00
  2.105517e+01    1.102884e+00
  2.107104e+01    1.088070e+00
  2.108692e+01    1.095989e+00
  2.110279e+01    1.119162e+00
  2.111867e+01    1.102448e+00
  2.113455e+01    1.102452e+00
  2.115042e+01    1.086235e+00
  2.116630e+01    1.102745e+00
  2.118217e+01    1.131850e+00
  2.119805e+01    1.131922e+00
  2.121392e+01    1.123888e+00
  2.122980e+01    1.112407e+00
  2.124567e+01    1.133104e+00
  2.126155e+01    1.151043e+00
  2.127743e+01    1.131054e+00
  2.129330e+01    1.118692e+00
  2.130918e+01    1.146675e+00
  2.132505e+01    1.123524e+00
  2.134093e+01    1.129543e+00
  2.135680e+01    1.163909e+00
  2.137268e+01    1.165877e+00
  2.138855e+01    1.165571e+00
  2.140443e+01    1.188370e+00
  2.142031e+01    1.199595e+00
  2.143618e+01    1.206843e+00
  2.145206e+01    1.262248e+00
  2.146793e+01    1.236019e+00
  2.148381e+01    1.274992e+00
  2.149968e+01    1.299795e+00
  2.151556e+01    1.294407e+00
  2.153143e+01    1.340693e+00
  2.154731e+01    1.361393e+00
  2.156319e+01    1.408803e+00
  2.157906e+01    1.467941e+00
  2.159494e+01    1.527544e+00
  2.161081e+01    1.587148e+00
  2.162669e+01    1.641297e+00
  2.164256e+01    1.717474e+00
  2.165844e+01    1.805253e+00
  2.167431e+01    1.953348e+00
  2.169019e+01    2.116995e+00
  2.170607e+01    2.323183e+00
  2.172194e+01    2.555065e+00
  2.173782e+01    2.882449e+00
  2.175369e+01    3.252021e+00
  2.176957e+01    3.698660e+00
  2.178544e+01    4.283423e+00
  2.180132e+01    4.932907e+00
  2.181719e+01    5.646375e+00
  2.183307e+01    6.376555e+00
  2.184895e+01    7.201708e+00
  2.186482e+01    8.101486e+00
  2.188070e+01    8.968699e+00
  2.189657e+01    9.808243e+00
  2.191245e+01    1.042782e+01
  2.192832e+01    1.079613e+01
  2.194420e+01    1.063106e+01
  2.196007e+01    1.002258e+01
  2.197595e+01    9.064793e+00
  2.199183e+01    7.965834e+00
  2.200770e+01    6.773170e+00
  2.202358e+01    5.716670e+00
  2.203945e+01    4.833653e+00
  2.205533e+01    4.146835e+00
  2.207120e+01    3.586195e+00
  2.208708e+01    3.087116e+00
  2.210296e+01    2.734071e+00
  2.211883e+01    2.503870e+00
  2.213471e+01    2.282893e+00
  2.215058e+01    2.073151e+00
  2.216646e+01    1.927508e+00
  2.218233e+01    1.786087e+00
  2.219821e+01    1.669490e+00
  2.221408e+01    1.592515e+00
  2.222996e+01    1.503705e+00
  2.224584e+01    1.437230e+00
  2.226171e+01    1.373111e+00
  2.227759e+01    1.331586e+00
  2.229346e+01    1.293869e+00
  2.230934e+01    1.271683e+00
  2.232521e+01    1.247698e+00
  2.234109e+01    1.212817e+00
  2.235696e+01    1.201581e+00
  2.237284e+01    1.193648e+00
  2.238872e+01    1.172394e+00
  2.240459e+01    1.119180e+00
  2.242047e+01    1.108532e+00
  2.243634e+01    1.128631e+00
  2.245222e+01    1.119303e+00
  2.246809e+01    1.085995e+00
  2.248397e+01    1.065945e+00
  2.249984e+01    1.056553e+00
  2.251572e+01    1.052895e+00
  2.253160e+01    1.023235e+00
  2.254747e+01    1.031468e+00
  2.256335e+01    1.012427e+00
  2.257922e+01    1.024782e+00
  2.259510e+01    1.019550e+00
  2.261097e+01    1.016818e+00
  2.262685e+01    1.015658e+00
  2.264272e+01    1.003369e+00
  2.265860e+01    9.893775e-01
  2.267448e+01    9.738612e-01
  2.269035e+01    9.733595e-01
  2.270623e+01    9.767150e-01
  2.272210e+01    9.733669e-01
  2.273798e+01    9.699115e-01
  2.275385e+01    9.830787e-01
  2.276973e+01    9.802147e-01
  2.278560e+01    9.520543e-01
  2.280148e+01    9.394197e-01
  2.281736e+01    9.261265e-01
  2.283323e+01    9.443092e-01
  2.284911e+01    9.443091e-01
  2.286498e+01    9.261945e-01
  2.288086e+01    9.493742e-01
  2.289673e+01    9.407901e-01
  2.291261e+01    9.402733e-01
  2.292848e+01    9.392746e-01
  2.294436e+01    9.331071e-01
  2.296024e+01    9.342963e-01
  2.297611e+01    9.205791e-01
  2.299199e+01    9.183460e-01
  2.300786e+01    9.010935e-01
  2.302374e+01    8.978694e-01
  2.303961e+01    9.205198e-01
  2.305549e+01    8.935974e-01
  2.307137e+01    9.033414e-01
  2.308724e+01    9.100285e-01
  2.310312e+01    8.973390e-01
  2.311899e+01    8.835326e-01
  2.313487e+01    8.863276e-01
  2.315074e+01    8.881154e-01
  2.316662e+01    9.034111e-01
  2.318249e+01    8.762255e-01
  2.319837e+01    8.830837e-01
  2.321425e+01    8.872339e-01
  2.323012e+01    8.794357e-01
  2.324600e+01    8.833320e-01
  2.326187e+01    8.584151e-01
  2.327775e+01    8.819399e-01
  2.329362e+01    9.008463e-01
  2.330950e+01    8.924618e-01
  2.332537e+01    8.712807e-01
  2.334125e+01    8.932294e-01
  2.335713e+01    8.967218e-01
  2.337300e+01    8.683588e-01
  2.338888e+01    8.533112e-01
  2.340475e+01    8.575807e-01
  2.342063e+01    8.414715e-01
  2.343650e+01    8.602827e-01
  2.345238e+01    8.584085e-01
  2.346825e+01    8.611964e-01
  2.348413e+01    8.549130e-01
  2.350001e+01    8.703665e-01
  2.351588e+01    8.645871e-01
  2.353176e+01    8.816577e-01
  2.354763e+01    8.860604e-01
  2.356351e+01    8.585739e-01
  2.357938e+01    8.599645e-01
  2.359526e+01    8.811530e-01
  2.361113e+01    8.530923e-01
  2.362701e+01    8.663704e-01
  2.364289e+01    8.406901e-01
  2.365876e+01    8.256236e-01
  2.367464e+01    8.478644e-01
  2.369051e+01    8.279824e-01
  2.370639e+01    8.290362e-01
  2.372226e+01    8.236616e-01
  2.373814e+01    8.355147e-01
  2.375401e+01    8.216135e-01
  2.376989e+01    8.075427e-01
  2.378577e+01    8.268254e-01
  2.380164e+01    8.316559e-01
  2.381752e+01    8.265259e-01
  2.383339e+01    8.166196e-01
  2.384927e+01    8.181804e-01
  2.386514e+01    8.377829e-01
  2.388102e+01    8.252131e-01
  2.389689e+01    8.012124e-01
  2.391277e+01    7.861845e-01
  2.392865e+01    7.984067e-01
  2.394452e+01    8.136619e-01
  2.396040e+01    7.930733e-01
  2.397627e+01    7.947366e-01
  2.399215e+01    7.913213e-01
  2.400802e+01    7.792898e-01
  2.402390e+01    7.902917e-01
  2.403978e+01    7.915241e-01
  2.405565e+01    7.899987e-01
  2.407153e+01    8.005308e-01
  2.408740e+01    8.118295e-01
  2.410328e+01    7.988136e-01
  2.411915e+01    7.892931e-01
  2.413503e+01    7.825849e-01
  2.415090e+01    7.965225e-01
  2.416678e+01    7.736579e-01
  2.418266e+01    7.710884e-01
  2.419853e+01    7.838408e-01
  2.421441e+01    7.831860e-01
  2.423028e+01    8.001594e-01
  2.424616e+01    7.884693e-01
  2.426203e+01    8.204556e-01
  2.427791e+01    8.116129e-01
  2.429378e+01    7.957010e-01
  2.430966e+01    8.010018e-01
  2.432554e+01    8.221706e-01
  2.434141e+01    8.133911e-01
  2.435729e+01    8.065528e-01
  2.437316e+01    8.133652e-01
  2.438904e+01    7.972244e-01
  2.440491e+01    7.898575e-01
  2.442079e+01    7.926675e-01
  2.443666e+01    7.929582e-01
  2.445254e+01    8.073789e-01
  2.446842e+01    7.938744e-01
  2.448429e+01    7.969868e-01
  2.450017e+01    8.156693e-01
  2.451604e+01    8.078086e-01
  2.453192e+01    7.821745e-01
  2.454779e+01    8.121917e-01
  2.456367e+01    8.113155e-01
  2.457954e+01    7.996827e-01
  2.459542e+01    7.935295e-01
  2.461130e+01    8.101084e-01
  2.462717e+01    8.060123e-01
  2.464305e+01    8.092858e-01
  2.465892e+01    8.059171e-01
  2.467480e+01    7.933853e-01
  2.469067e+01    8.076242e-01
  2.470655e+01    7.994813e-01
  2.472242e+01    7.753727e-01
  2.473830e+01    8.016962e-01
  2.475418e+01    8.058511e-01
  2.477005e+01    7.865873e-01
  2.478593e+01    8.001712e-01
  2.480180e+01    8.050466e-01
  2.481768e+01    7.867057e-01
  2.483355e+01    8.055606e-01
  2.484943e+01    8.109033e-01
  2.486530e+01    8.118399e-01
  2.488118e+01    8.147996e-01
  2.489706e+01    8.062229e-01
  2.491293e+01    8.021609e-01
  2.492881e+01    8.325529e-01
  2.494468e+01    8.279105e-01
  2.496056e+01    8.023489e-01
  2.497643e+01    8.078485e-01
  2.499231e+01    8.083895e-01
  2.500819e+01    8.088028e-01
  2.502406e+01    8.212744e-01
  2.503994e+01    8.092303e-01
  2.505581e+01    7.952064e-01
  2.507169e+01    8.180307e-01
  2.508756e+01    8.293358e-01
  2.510344e+01    8.227270e-01
  2.511931e+01    8.077912e-01
  2.513519e+01    8.230952e-01
  2.515107e+01    8.390149e-01
  2.516694e+01    8.409088e-01
  2.518282e+01    8.439953e-01
  2.519869e+01    8.454757e-01
  2.521457e+01    8.525060e-01
  2.523044e+01    8.477949e-01
  2.524632e+01    8.549508e-01
  2.526219e+01    8.537429e-01
  2.527807e+01    8.722856e-01
  2.529395e+01    8.553953e-01
  2.530982e+01    8.611355e-01
  2.532570e+01    8.658655e-01
  2.534157e+01    8.819561e-01
  2.535745e+01    8.940167e-01
  2.537332e+01    8.955629e-01
  2.538920e+01    8.900686e-01
  2.540507e+01    8.978044e-01
  2.542095e+01    9.264950e-01
  2.543683e+01    9.395806e-01
  2.545270e+01    9.808677e-01
  2.546858e+01    9.514844e-01
  2.548445e+01    9.646460e-01
  2.550033e+01    9.678262e-01
  2.551620e+01    9.790689e-01
  2.553208e+01    9.925717e-01
  2.554795e+01    1.002542e+00
  2.556383e+01    1.011224e+00
  2.557971e+01    1.048082e+00
  2.559558e+01    1.072582e+00
  2.561146e+01    1.108447e+00
  2.562733e+01    1.163635e+00
  2.564321e+01    1.184669e+00
  2.565908e+01    1.199568e+00
  2.567496e+01    1.289562e+00
  2.569083e+01    1.350898e+00
  2.570671e+01    1.415043e+00
  2.572259e+01    1.501667e+00
  2.573846e+01    1.616615e+00
  2.575434e+01    1.733201e+00
  2.577021e+01    1.865103e+00
  2.578609e+01    2.047145e+00
  2.580196e+01    2.242831e+00
  2.581784e+01    2.539205e+00
  2.583371e+01    2.879075e+00
  2.584959e+01    3.280229e+00
  2.586547e+01    3.709573e+00
  2.588134e+01    4.241112e+00
  2.589722e+01    4.974355e+00
  2.591309e+01    5.728440e+00
  2.592897e+01    6.485161e+00
  2.594484e+01    7.171430e+00
  2.596072e+01    7.953238e+00
  2.597660e+01    8.525071e+00
  2.599247e+01    8.917206e+00
  2.600835e+01    8.864276e+00
  2.602422e+01    8.588345e+00
  2.604010e+01    8.000337e+00
  2.605597e+01    7.112393e+00
  2.607185e+01    6.210062e+00
  2.608772e+01    5.292859e+00
  2.610360e+01    4.516919e+00
  2.611948e+01    3.887878e+00
  2.613535e+01    3.325646e+00
  2.615123e+01    2.923571e+00
  2.616710e+01    2.600890e+00
  2.618298e+01    2.322758e+00
  2.619885e+01    2.091786e+00
  2.621473e+01    1.907255e+00
  2.623060e+01    1.738507e+00
  2.624648e+01    1.620289e+00
  2.626236e+01    1.530352e+00
  2.627823e+01    1.437448e+00
  2.629411e+01    1.354593e+00
  2.630998e+01    1.314391e+00
  2.632586e+01    1.253339e+00
  2.634173e+01    1.212650e+00
  2.635761e+01    1.149200e+00
  2.637348e+01    1.115931e+00
  2.638936e+01    1.099329e+00
  2.640524e+01    1.080548e+00
  2.642111e+01    1.065877e+00
  2.643699e+01    1.053111e+00
  2.645286e+01    1.032995e+00
  2.646874e+01    1.016946e+00
  2.648461e+01    9.959829e-01
  2.650049e+01    9.752468e-01
  2.651636e+01    9.867770e-01
  2.653224e+01    9.848009e-01
  2.654812e+01    9.663705e-01
  2.656399e+01    9.205434e-01
  2.657987e+01    9.514402e-01
  2.659574e+01    9.749959e-01
  2.661162e+01    9.291994e-01
  2.662749e+01    9.098405e-01
  2.664337e+01    9.119928e-01
  2.665924e+01    9.388622e-01
  2.667512e+01    9.278322e-01
  2.669100e+01    9.453346e-01
  2.670687e+01    9.492297e-01
  2.672275e+01    9.269996e-01
  2.673862e+01    9.101663e-01
  2.675450e+01    9.389829e-01
  2.677037e+01    9.323366e-01
  2.678625e+01    9.416243e-01
  2.680212e+01    9.162149e-01
  2.681800e+01    9.044817e-01
  2.683388e+01    9.303344e-01
  2.684975e+01    9.345925e-01
  2.686563e+01    9.456182e-01
  2.688150e+01    9.257511e-01
  2.689738e+01    9.309976e-01
  2.691325e+01    9.406003e-01
  2.692913e+01    9.469450e-01
  2.694501e+01    9.445227e-01
  2.696088e+01    9.743920e-01
  2.697676e+01    9.749810e-01
  2.699263e+01    9.604356e-01
  2.700851e+01    1.010849e+00
  2.702438e+01    1.029077e+00
  2.704026e+01    1.048457e+00
  2.705613e+01    1.100475e+00
  2.707201e+01    1.169371e+00
  2.708789e+01    1.206449e+00
  2.710376e+01    1.275301e+00
  2.711964e+01    1.358469e+00
  2.713551e+01    1.444795e+00
  2.715139e+01    1.603364e+00
  2.716726e+01    1.767339e+00
  2.718314e+01    1.928800e+00
  2.719901e+01    2.116050e+00
  2.721489e+01    2.260818e+00
  2.723077e+01    2.395593e+00
  2.724664e+01    2.515418e+00
  2.726252e+01    2.559889e+00
  2.727839e+01    2.535397e+00
  2.729427e+01    2.439806e+00
  2.731014e+01    2.309849e+00
  2.732602e+01    2.076068e+00
  2.734189e+01    1.881678e+00
  2.735777e+01    1.700074e+00
  2.737365e+01    1.553170e+00
  2.738952e+01    1.440889e+00
  2.740540e+01    1.339236e+00
  2.742127e+01    1.276786e+00
  2.743715e+01    1.189513e+00
  2.745302e+01    1.149227e+00
  2.746890e+01    1.091023e+00
  2.748477e+01    1.037849e+00
  2.750065e+01    1.007803e+00
  2.751653e+01    9.758531e-01
  2.753240e+01    9.787083e-01
  2.754828e+01    9.242506e-01
  2.756415e+01    9.191283e-01
  2.758003e+01    9.222814e-01
  2.759590e+01    9.225362e-01
  2.761178e+01    8.952549e-01
  2.762765e+01    9.170126e-01
  2.764353e+01    8.968526e-01
  2.765941e+01    8.812986e-01
  2.767528e+01    8.634868e-01
  2.769116e+01    8.565475e-01
  2.770703e+01    8.576851e-01
  2.772291e+01    8.422050e-01
  2.773878e+01    8.266985e-01
  2.775466e+01    8.440381e-01
  2.777054e+01    8.412212e-01
  2.778641e+01    8.562111e-01
  2.780229e+01    8.222275e-01
  2.781816e+01    8.388602e-01
  2.783404e+01    8.324686e-01
  2.784991e+01    8.357074e-01
  2.786579e+01    8.288293e-01
  2.788166e+01    8.184147e-01
  2.789754e+01    8.057312e-01
  2.791342e+01    8.227530e-01
  2.792929e+01    7.954400e-01
  2.794517e+01    7.897982e-01
  2.796104e+01    8.407885e-01
  2.797692e+01    8.009820e-01
  2.799279e+01    8.001925e-01
  2.800867e+01    8.106602e-01
  2.802454e+01    7.962496e-01
  2.804042e+01    7.788859e-01
  2.805630e+01    8.039703e-01
  2.807217e+01    8.010244e-01
  2.808805e+01    8.010405e-01
  2.810392e+01    8.088752e-01
  2.811980e+01    7.989138e-01
  2.813567e+01    8.090555e-01
  2.815155e+01    7.968667e-01
  2.816742e+01    7.925791e-01
  2.818330e+01    8.096973e-01
  2.819918e+01    8.185335e-01
  2.821505e+01    8.098787e-01
  2.823093e+01    7.933756e-01
  2.824680e+01    7.813514e-01
  2.826268e+01    7.850358e-01
  2.827855e+01    7.842338e-01
  2.829443e+01    7.679905e-01
  2.831030e+01    7.495364e-01
  2.832618e+01    7.727873e-01
  2.834206e+01    7.904662e-01
  2.835793e+01    7.952176e-01
  2.837381e+01    7.763951e-01
  2.838968e+01    7.666959e-01
  2.840556e+01    7.616694e-01
  2.842143e+01    7.779331e-01
  2.843731e+01    7.976217e-01
  2.845318e+01    7.922757e-01
  2.846906e+01    7.715099e-01
  2.848494e+01    7.815881e-01
  2.850081e+01    8.010454e-01
  2.851669e+01    7.930838e-01
  2.853256e+01    7.847440e-01
  2.854844e+01    7.837068e-01
  2.856431e+01    7.807002e-01
  2.858019e+01    7.684268e-01
  2.859606e+01    7.640033e-01
  2.861194e+01    7.581097e-01
  2.862782e+01    7.810037e-01
  2.864369e+01    7.869555e-01
  2.865957e+01    7.735178e-01
  2.867544e+01    7.647621e-01
  2.869132e+01    7.559991e-01
  2.870719e+01    7.437504e-01
  2.872307e+01    7.527255e-01
  2.873895e+01    7.734997e-01
  2.875482e+01    7.769669e-01
  2.877070e+01    7.710872e-01
  2.878657e+01    7.643131e-01
  2.880245e+01    7.625669e-01
  2.881832e+01    7.631136e-01
  2.883420e+01    7.770098e-01
  2.885007e+01    7.682841e-01
  2.886595e+01    7.598167e-01
  2.888183e+01    7.659181e-01
  2.889770e+01    7.731495e-01
  2.891358e+01    7.570152e-01
  2.892945e+01    7.490916e-01
  2.894533e+01    7.534916e-01
  2.896120e+01    7.532467e-01
  2.897708e+01    7.467512e-01
  2.899295e+01    7.369292e-01
  2.900883e+01    7.373754e-01
  2.902471e+01    7.460613e-01
  2.904058e+01    7.437779e-01
  2.905646e+01    7.525167e-01
  2.907233e+01    7.450588e-01
  2.908821e+01    7.323344e-01
  2.910408e+01    7.407244e-01
  2.911996e+01    7.290487e-01
  2.913583e+01    7.193800e-01
  2.915171e+01    7.414353e-01
  2.916759e+01    7.345728e-01
  2.918346e+01    7.486387e-01
  2.919934e+01    7.745386e-01
  2.921521e+01    7.591440e-01
  2.923109e+01    7.624639e-01
  2.924696e+01    7.620977e-01
  2.926284e+01    7.340220e-01
  2.927871e+01    7.283355e-01
  2.929459e+01    7.606397e-01
  2.931047e+01    7.665456e-01
  2.932634e+01    7.251791e-01
  2.934222e+01    7.279083e-01
  2.935809e+01    7.470673e-01
  2.937397e+01    7.457038e-01
  2.938984e+01    7.328138e-01
  2.940572e+01    7.384310e-01
  2.942159e+01    7.592334e-01
  2.943747e+01    7.811837e-01
  2.945335e+01    7.550442e-01
  2.946922e+01    7.233832e-01
  2.948510e+01    7.272429e-01
  2.950097e+01    7.075877e-01
  2.951685e+01    7.150003e-01
  2.953272e+01    7.322476e-01
  2.954860e+01    7.386377e-01
  2.956447e+01    7.328520e-01
  2.958035e+01    7.400348e-01
  2.959623e+01    7.445326e-01
  2.961210e+01    7.386540e-01
  2.962798e+01    7.077625e-01
  2.964385e+01    7.306011e-01
  2.965973e+01    7.377500e-01
  2.967560e+01    7.470164e-01
  2.969148e+01    7.403746e-01
  2.970736e+01    7.301140e-01
  2.972323e+01    7.386060e-01
  2.973911e+01    7.344038e-01
  2.975498e+01    7.057965e-01
  2.977086e+01    7.118405e-01
  2.978673e+01    7.400113e-01
  2.980261e+01    7.375333e-01
  2.981848e+01    7.345334e-01
  2.983436e+01    7.273820e-01
  2.985024e+01    7.231057e-01
  2.986611e+01    6.982486e-01
  2.988199e+01    7.420360e-01
  2.989786e+01    7.399303e-01
  2.991374e+01    7.096103e-01
  2.992961e+01    7.276379e-01
  2.994549e+01    7.312160e-01
  2.996136e+01    7.440093e-01
  2.997724e+01    7.338548e-01
  2.999312e+01    7.206309e-01
  3.000899e+01    7.372831e-01
  3.002487e+01    7.494967e-01
  3.004074e+01    7.153086e-01
  3.005662e+01    7.347674e-01
  3.007249e+01    7.248860e-01
  3.008837e+01    7.269977e-01
  3.010424e+01    7.322267e-01
  3.012012e+01    7.437199e-01
  3.013600e+01    7.369084e-01
  3.015187e+01    7.329568e-01
  3.016775e+01    7.331939e-01
  3.018362e+01    7.156838e-01
  3.019950e+01    7.096792e-01
  3.021537e+01    7.171140e-01
  3.023125e+01    7.218488e-01
  3.024712e+01    7.244519e-01
  3.026300e+01    7.370564e-01
  3.027888e+01    7.248017e-01
  3.029475e+01    7.248352e-01
  3.031063e+01    7.199030e-01
  3.032650e+01    7.278097e-01
  3.034238e+01    7.078795e-01
  3.035825e+01    7.173468e-01
  3.037413e+01    7.465028e-01
  3.039000e+01    7.309495e-01
  3.040588e+01    7.340991e-01
  3.042176e+01    7.221466e-01
  3.043763e+01    7.397671e-01
  3.045351e+01    7.334680e-01
  3.046938e+01    7.306358e-01
  3.048526e+01    7.279553e-01
  3.050113e+01    6.990078e-01
  3.051701e+01    7.357509e-01
  3.053288e+01    7.344056e-01
  3.054876e+01    7.309182e-01
  3.056464e+01    7.200997e-01
  3.058051e+01    7.131709e-01
  3.059639e+01    7.180535e-01
  3.061226e+01    7.066939e-01
  3.062814e+01    7.126942e-01
  3.064401e+01    7.267637e-01
  3.065989e+01    7.272992e-01
  3.067577e+01    7.051884e-01
  3.069164e+01    7.010333e-01
  3.070752e+01    7.119197e-01
  3.072339e+01    7.196464e-01
  3.073927e+01    6.978162e-01
  3.075514e+01    7.272300e-01
  3.077102e+01    7.398657e-01
  3.078689e+01    7.211978e-01
  3.080277e+01    7.275548e-01
  3.081865e+01    7.356991e-01
  3.083452e+01    7.239879e-01
  3.085040e+01    7.168490e-01
  3.086627e+01    7.035125e-01
  3.088215e+01    7.203359e-01
  3.089802e+01    7.509668e-01
  3.091390e+01    7.236786e-01
  3.092977e+01    7.063025e-01
  3.094565e+01    7.109168e-01
  3.096153e+01    7.309839e-01
  3.097740e+01    7.282481e-01
  3.099328e+01    7.247484e-01
  3.100915e+01    7.114100e-01
  3.102503e+01    7.179349e-01
  3.104090e+01    7.257786e-01
  3.105678e+01    7.297079e-01
  3.107265e+01    7.178919e-01
  3.108853e+01    7.216014e-01
  3.110441e+01    7.315686e-01
  3.112028e+01    7.282121e-01
  3.113616e+01    7.265209e-01
  3.115203e+01    7.243734e-01
  3.116791e+01    7.298435e-01
  3.118378e+01    7.289266e-01
  3.119966e+01    7.226374e-01
  3.121553e+01    7.360464e-01
  3.123141e+01    7.405666e-01
  3.124729e+01    7.472521e-01
  3.126316e+01    7.348914e-01
  3.127904e+01    7.391346e-01
  3.129491e+01    7.374080e-01
  3.131079e+01    7.432574e-01
  3.132666e+01    7.419813e-01
  3.134254e+01    7.460226e-01
  3.135841e+01    7.170823e-01
  3.137429e+01    7.213641e-01
  3.139017e+01    7.520676e-01
  3.140604e+01    7.546439e-01
  3.142192e+01    7.672567e-01
  3.143779e+01    7.504818e-01
  3.145367e+01    7.632223e-01
  3.146954e+01    7.689117e-01
  3.148542e+01    7.708923e-01
  3.150129e+01    7.739825e-01
  3.151717e+01    7.789087e-01
  3.153305e+01    7.789485e-01
  3.154892e+01    7.839456e-01
  3.156480e+01    8.040262e-01
  3.158067e+01    7.999942e-01
  3.159655e+01    8.060784e-01
  3.161242e+01    8.360926e-01
  3.162830e+01    8.319397e-01
  3.164418e+01    8.351796e-01
  3.166005e+01    8.736646e-01
  3.167593e+01    8.884192e-01
  3.169180e+01    8.852913e-01
  3.170768e+01    9.255741e-01
  3.172355e+01    9.383029e-01
  3.173943e+01    9.718497e-01
  3.175530e+01    1.018439e+00
  3.177118e+01    1.065737e+00
  3.178706e+01    1.143637e+00
  3.180293e+01    1.238196e+00
  3.181881e+01    1.322619e+00
  3.183468e+01    1.405785e+00
  3.185056e+01    1.555194e+00
  3.186643e+01    1.702455e+00
  3.188231e+01    1.916824e+00
  3.189818e+01    2.077327e+00
  3.191406e+01    2.273438e+00
  3.192994e+01    2.390864e+00
  3.194581e+01    2.505848e+00
  3.196169e+01    2.569285e+00
  3.197756e+01    2.510164e+00
  3.199344e+01    2.397102e+00
  3.200931e+01    2.257256e+00
  3.202519e+01    2.029644e+00
  3.204106e+01    1.826925e+00
  3.205694e+01    1.658397e+00
  3.207282e+01    1.482618e+00
  3.208869e+01    1.354475e+00
  3.210457e+01    1.249403e+00
  3.212044e+01    1.157013e+00
  3.213632e+01    1.097296e+00
  3.215219e+01    1.013384e+00
  3.216807e+01    9.683020e-01
  3.218394e+01    9.588097e-01
  3.219982e+01    9.062389e-01
  3.221570e+01    8.919154e-01
  3.223157e+01    8.568076e-01
  3.224745e+01    8.420460e-01
  3.226332e+01    8.362380e-01
  3.227920e+01    8.152353e-01
  3.229507e+01    8.284801e-01
  3.231095e+01    8.168017e-01
  3.232682e+01    7.917199e-01
  3.234270e+01    7.786157e-01
  3.235858e+01    7.673619e-01
  3.237445e+01    7.641631e-01
  3.239033e+01    7.599237e-01
  3.240620e+01    7.592000e-01
  3.242208e+01    7.612063e-01
  3.243795e+01    7.389947e-01
  3.245383e+01    7.434762e-01
  3.246970e+01    7.500851e-01
  3.248558e+01    7.340931e-01
  3.250146e+01    7.385733e-01
  3.251733e+01    7.437550e-01
  3.253321e+01    7.383457e-01
  3.254908e+01    7.577087e-01
