# == pyFAI calibration ==
# Distance Sample to Detector: 0.3999999939076516 m
# PONI: 9.750e-02, 1.135e-01 m
# Rotations: -0.000175 0.000000 -0.000000 rad
# 
# == Fit2d calibration ==
# Distance Sample-beamCenter: 400.000 mm
# Center: x=1514.000, y=1300.000 pix
# Tilt: 0.010 deg  TiltPlanRot: 0.010 deg
# 
# Detector Detector	 Spline= None	 PixelSize= 7.500e-05, 7.500e-05 m
#    Detector has a mask: False 
#    Detector has a dark current: False 
#    detector has a flat field: False 
# 
# Wavelength: 6.888e-11 m
# Mask applied: user provided
# Dark current applied: False
# Flat field applied: False
# Polarization factor: 0.99
# Normalization factor: 1.0
# --> /home/myspot/data/2024_07_Rosario/Ru-CGO-ex/2024-07-27_002_Ru-CGO-ex_Activtation_ramp_000002_data_000009.dat
#       q_nm^-1             I 
  2.003187e-02    9.938969e-02
  3.590745e-02    1.560978e-01
  5.178302e-02    4.581373e-02
  6.765859e-02    2.065797e-01
  8.353417e-02    1.706136e-01
  9.940974e-02    3.203979e-02
  1.152853e-01    2.774768e-02
  1.311609e-01    1.852852e-02
  1.470365e-01    1.268926e-02
  1.629120e-01    2.331523e-02
  1.787876e-01    1.236549e-02
  1.946632e-01    2.729819e-02
  2.105388e-01    2.065802e-02
  2.264143e-01    1.880496e-02
  2.422899e-01    3.653629e-02
  2.581655e-01    6.858983e-02
  2.740411e-01    5.881839e-02
  2.899166e-01    2.082148e-02
  3.057922e-01    1.286936e-02
  3.216678e-01    1.460677e-02
  3.375433e-01    5.232389e-02
  3.534189e-01    4.345289e-02
  3.692945e-01    6.245703e-02
  3.851701e-01    2.634755e-02
  4.010456e-01    1.994371e-02
  4.169212e-01    4.148717e-02
  4.327968e-01    4.125639e-02
  4.486724e-01    2.676031e-02
  4.645479e-01    3.406818e-02
  4.804235e-01    4.944712e-02
  4.962991e-01    3.702109e-02
  5.121747e-01    5.488529e-02
  5.280502e-01    5.733385e-02
  5.439258e-01    4.249665e-02
  5.598014e-01    3.936038e-02
  5.756770e-01    7.438821e-02
  5.915525e-01    5.969824e-02
  6.074281e-01    4.933574e-02
  6.233037e-01    4.704309e-02
  6.391793e-01    2.624006e-02
  6.550548e-01    4.679808e-02
  6.709304e-01    3.373131e-02
  6.868060e-01    4.640022e-02
  7.026815e-01    4.680035e-02
  7.185571e-01    4.362157e-02
  7.344327e-01    3.643888e-02
  7.503083e-01    3.993799e-02
  7.661838e-01    7.968310e-02
  7.820594e-01    1.006532e-01
  7.979350e-01    1.202643e-01
  8.138106e-01    2.039646e-01
  8.296861e-01    2.655477e-01
  8.455617e-01    3.031963e-01
  8.614373e-01    3.554075e-01
  8.773129e-01    4.249646e-01
  8.931884e-01    4.936387e-01
  9.090640e-01    5.640698e-01
  9.249396e-01    6.213602e-01
  9.408152e-01    6.935727e-01
  9.566907e-01    8.750361e-01
  9.725663e-01    8.309309e-01
  9.884419e-01    9.177533e-01
  1.004317e+00    1.031664e+00
  1.020193e+00    1.147975e+00
  1.036069e+00    1.263352e+00
  1.051944e+00    1.338899e+00
  1.067820e+00    1.356712e+00
  1.083695e+00    1.346107e+00
  1.099571e+00    1.375186e+00
  1.115446e+00    1.413814e+00
  1.131322e+00    1.432091e+00
  1.147198e+00    1.525519e+00
  1.163073e+00    1.573398e+00
  1.178949e+00    1.589877e+00
  1.194824e+00    1.718801e+00
  1.210700e+00    1.849832e+00
  1.226575e+00    2.115984e+00
  1.242451e+00    2.382625e+00
  1.258327e+00    2.393410e+00
  1.274202e+00    2.525335e+00
  1.290078e+00    2.513732e+00
  1.305953e+00    2.596560e+00
  1.321829e+00    2.725560e+00
  1.337705e+00    2.590537e+00
  1.353580e+00    2.523005e+00
  1.369456e+00    2.537338e+00
  1.385331e+00    2.624383e+00
  1.401207e+00    2.773505e+00
  1.417082e+00    2.785758e+00
  1.432958e+00    2.700523e+00
  1.448834e+00    2.824803e+00
  1.464709e+00    2.920697e+00
  1.480585e+00    3.037134e+00
  1.496460e+00    2.986392e+00
  1.512336e+00    2.932951e+00
  1.528211e+00    2.918923e+00
  1.544087e+00    2.997237e+00
  1.559963e+00    3.076478e+00
  1.575838e+00    3.037354e+00
  1.591714e+00    3.055640e+00
  1.607589e+00    3.061864e+00
  1.623465e+00    3.096421e+00
  1.639340e+00    3.078777e+00
  1.655216e+00    2.986190e+00
  1.671092e+00    2.853723e+00
  1.686967e+00    2.878611e+00
  1.702843e+00    2.983154e+00
  1.718718e+00    2.878075e+00
  1.734594e+00    2.889990e+00
  1.750469e+00    3.009160e+00
  1.766345e+00    2.945819e+00
  1.782221e+00    2.993754e+00
  1.798096e+00    3.009382e+00
  1.813972e+00    2.880301e+00
  1.829847e+00    2.900295e+00
  1.845723e+00    2.934896e+00
  1.861598e+00    2.875206e+00
  1.877474e+00    2.825682e+00
  1.893350e+00    2.854658e+00
  1.909225e+00    2.862294e+00
  1.925101e+00    2.878175e+00
  1.940976e+00    2.816195e+00
  1.956852e+00    2.798719e+00
  1.972727e+00    2.808705e+00
  1.988603e+00    2.842153e+00
  2.004479e+00    2.761464e+00
  2.020354e+00    2.803889e+00
  2.036230e+00    2.821542e+00
  2.052105e+00    2.706395e+00
  2.067981e+00    2.782200e+00
  2.083856e+00    2.816503e+00
  2.099732e+00    2.822658e+00
  2.115608e+00    2.831066e+00
  2.131483e+00    2.841407e+00
  2.147359e+00    2.762825e+00
  2.163234e+00    2.784320e+00
  2.179110e+00    2.867235e+00
  2.194985e+00    2.910670e+00
  2.210861e+00    2.852740e+00
  2.226737e+00    2.817800e+00
  2.242612e+00    2.788675e+00
  2.258488e+00    2.814229e+00
  2.274363e+00    2.776967e+00
  2.290239e+00    2.737420e+00
  2.306115e+00    2.743348e+00
  2.321990e+00    2.703492e+00
  2.337866e+00    2.813892e+00
  2.353741e+00    2.832756e+00
  2.369617e+00    2.841576e+00
  2.385492e+00    2.884641e+00
  2.401368e+00    2.881736e+00
  2.417244e+00    2.825493e+00
  2.433119e+00    2.868759e+00
  2.448995e+00    2.841941e+00
  2.464870e+00    2.812533e+00
  2.480746e+00    2.814500e+00
  2.496621e+00    2.761226e+00
  2.512497e+00    2.734726e+00
  2.528373e+00    2.693472e+00
  2.544248e+00    2.765680e+00
  2.560124e+00    2.808144e+00
  2.575999e+00    2.801981e+00
  2.591875e+00    2.834081e+00
  2.607750e+00    2.830980e+00
  2.623626e+00    2.876280e+00
  2.639502e+00    2.780072e+00
  2.655377e+00    2.811552e+00
  2.671253e+00    2.940221e+00
  2.687128e+00    2.895073e+00
  2.703004e+00    2.834872e+00
  2.718879e+00    2.890266e+00
  2.734755e+00    2.887668e+00
  2.750631e+00    2.882216e+00
  2.766506e+00    2.811511e+00
  2.782382e+00    2.894394e+00
  2.798257e+00    2.839308e+00
  2.814133e+00    2.878111e+00
  2.830008e+00    2.822670e+00
  2.845884e+00    2.766002e+00
  2.861760e+00    2.881765e+00
  2.877635e+00    2.871218e+00
  2.893511e+00    2.889223e+00
  2.909386e+00    2.822101e+00
  2.925262e+00    2.889722e+00
  2.941137e+00    2.944805e+00
  2.957013e+00    2.891243e+00
  2.972889e+00    2.888919e+00
  2.988764e+00    2.966987e+00
  3.004640e+00    2.982736e+00
  3.020515e+00    2.899388e+00
  3.036391e+00    2.832187e+00
  3.052266e+00    2.911136e+00
  3.068142e+00    3.018947e+00
  3.084018e+00    2.922380e+00
  3.099893e+00    2.861073e+00
  3.115769e+00    2.913831e+00
  3.131644e+00    2.903673e+00
  3.147520e+00    2.896455e+00
  3.163395e+00    2.970026e+00
  3.179271e+00    2.954922e+00
  3.195147e+00    2.983206e+00
  3.211022e+00    2.911461e+00
  3.226898e+00    2.920088e+00
  3.242773e+00    3.008576e+00
  3.258649e+00    2.913244e+00
  3.274525e+00    2.830034e+00
  3.290400e+00    2.895912e+00
  3.306276e+00    2.910604e+00
  3.322151e+00    2.992897e+00
  3.338027e+00    3.003517e+00
  3.353902e+00    2.972946e+00
  3.369778e+00    2.991167e+00
  3.385654e+00    2.978094e+00
  3.401529e+00    2.927455e+00
  3.417405e+00    2.962712e+00
  3.433280e+00    2.979175e+00
  3.449156e+00    2.929706e+00
  3.465031e+00    2.944487e+00
  3.480907e+00    2.992846e+00
  3.496783e+00    3.028685e+00
  3.512658e+00    3.000015e+00
  3.528534e+00    2.950742e+00
  3.544409e+00    2.996928e+00
  3.560285e+00    2.942043e+00
  3.576160e+00    3.000736e+00
  3.592036e+00    2.979084e+00
  3.607912e+00    2.934377e+00
  3.623787e+00    2.990259e+00
  3.639663e+00    3.052971e+00
  3.655538e+00    3.001619e+00
  3.671414e+00    2.955037e+00
  3.687289e+00    2.945684e+00
  3.703165e+00    3.002233e+00
  3.719041e+00    3.018028e+00
  3.734916e+00    3.063509e+00
  3.750792e+00    3.015333e+00
  3.766667e+00    3.006107e+00
  3.782543e+00    2.967265e+00
  3.798418e+00    2.999292e+00
  3.814294e+00    3.096275e+00
  3.830170e+00    3.164485e+00
  3.846045e+00    3.023072e+00
  3.861921e+00    2.976507e+00
  3.877796e+00    3.013848e+00
  3.893672e+00    3.062135e+00
  3.909547e+00    3.067500e+00
  3.925423e+00    3.069104e+00
  3.941299e+00    2.986492e+00
  3.957174e+00    2.980004e+00
  3.973050e+00    2.940513e+00
  3.988925e+00    2.892157e+00
  4.004801e+00    3.010665e+00
  4.020676e+00    3.023626e+00
  4.036552e+00    3.057225e+00
  4.052428e+00    3.054909e+00
  4.068303e+00    2.979751e+00
  4.084179e+00    2.978384e+00
  4.100054e+00    3.039171e+00
  4.115930e+00    3.104127e+00
  4.131806e+00    2.972317e+00
  4.147681e+00    3.078285e+00
  4.163557e+00    3.093730e+00
  4.179432e+00    3.020298e+00
  4.195308e+00    3.013474e+00
  4.211183e+00    3.145018e+00
  4.227059e+00    3.082005e+00
  4.242935e+00    3.061166e+00
  4.258810e+00    3.168507e+00
  4.274686e+00    3.181983e+00
  4.290561e+00    3.093042e+00
  4.306437e+00    3.001389e+00
  4.322312e+00    3.065926e+00
  4.338188e+00    3.128366e+00
  4.354064e+00    3.075164e+00
  4.369939e+00    3.122880e+00
  4.385815e+00    3.126801e+00
  4.401690e+00    3.063404e+00
  4.417566e+00    3.019023e+00
  4.433441e+00    3.017715e+00
  4.449317e+00    3.017378e+00
  4.465193e+00    3.044458e+00
  4.481068e+00    3.078276e+00
  4.496944e+00    3.070722e+00
  4.512819e+00    3.119230e+00
  4.528695e+00    3.095417e+00
  4.544570e+00    3.037614e+00
  4.560446e+00    3.095317e+00
  4.576322e+00    3.149894e+00
  4.592197e+00    3.120621e+00
  4.608073e+00    3.106028e+00
  4.623948e+00    3.105693e+00
  4.639824e+00    3.101706e+00
  4.655699e+00    3.075103e+00
  4.671575e+00    3.113955e+00
  4.687451e+00    3.078616e+00
  4.703326e+00    3.048890e+00
  4.719202e+00    3.112758e+00
  4.735077e+00    3.110809e+00
  4.750953e+00    3.159589e+00
  4.766828e+00    3.133696e+00
  4.782704e+00    3.151369e+00
  4.798580e+00    3.188687e+00
  4.814455e+00    3.233597e+00
  4.830331e+00    3.171792e+00
  4.846206e+00    3.159485e+00
  4.862082e+00    3.105908e+00
  4.877957e+00    3.045135e+00
  4.893833e+00    3.101075e+00
  4.909709e+00    3.060827e+00
  4.925584e+00    3.122479e+00
  4.941460e+00    3.163871e+00
  4.957335e+00    3.127099e+00
  4.973211e+00    3.203123e+00
  4.989086e+00    3.105749e+00
  5.004962e+00    3.099209e+00
  5.020838e+00    3.135510e+00
  5.036713e+00    3.118981e+00
  5.052589e+00    3.136655e+00
  5.068464e+00    3.203013e+00
  5.084340e+00    3.150767e+00
  5.100216e+00    3.076350e+00
  5.116091e+00    3.057275e+00
  5.131967e+00    3.106971e+00
  5.147842e+00    3.145397e+00
  5.163718e+00    3.121019e+00
  5.179593e+00    3.190126e+00
  5.195469e+00    3.152267e+00
  5.211345e+00    3.133106e+00
  5.227220e+00    3.100080e+00
  5.243096e+00    3.095227e+00
  5.258971e+00    3.114115e+00
  5.274847e+00    3.164277e+00
  5.290722e+00    3.167877e+00
  5.306598e+00    3.127011e+00
  5.322474e+00    3.064082e+00
  5.338349e+00    3.155816e+00
  5.354225e+00    3.163197e+00
  5.370100e+00    3.104330e+00
  5.385976e+00    3.099775e+00
  5.401851e+00    3.101572e+00
  5.417727e+00    3.092788e+00
  5.433603e+00    3.128101e+00
  5.449478e+00    3.200741e+00
  5.465354e+00    3.166914e+00
  5.481229e+00    3.188498e+00
  5.497105e+00    3.199441e+00
  5.512980e+00    3.116517e+00
  5.528856e+00    3.064091e+00
  5.544732e+00    3.103810e+00
  5.560607e+00    3.156309e+00
  5.576483e+00    3.126979e+00
  5.592358e+00    3.078655e+00
  5.608234e+00    3.070487e+00
  5.624109e+00    3.095324e+00
  5.639985e+00    3.101936e+00
  5.655861e+00    3.104728e+00
  5.671736e+00    3.047226e+00
  5.687612e+00    3.008686e+00
  5.703487e+00    3.028254e+00
  5.719363e+00    3.072023e+00
  5.735238e+00    3.019944e+00
  5.751114e+00    3.030755e+00
  5.766990e+00    3.044174e+00
  5.782865e+00    3.005572e+00
  5.798741e+00    2.993372e+00
  5.814616e+00    3.016035e+00
  5.830492e+00    3.054028e+00
  5.846367e+00    3.052678e+00
  5.862243e+00    3.049520e+00
  5.878119e+00    3.103315e+00
  5.893994e+00    3.070850e+00
  5.909870e+00    3.038888e+00
  5.925745e+00    2.980545e+00
  5.941621e+00    2.990169e+00
  5.957497e+00    2.990139e+00
  5.973372e+00    3.011591e+00
  5.989248e+00    3.008457e+00
  6.005123e+00    2.981324e+00
  6.020999e+00    3.059454e+00
  6.036874e+00    3.071863e+00
  6.052750e+00    3.040371e+00
  6.068626e+00    3.129958e+00
  6.084501e+00    3.169314e+00
  6.100377e+00    3.162134e+00
  6.116252e+00    3.087787e+00
  6.132128e+00    3.106616e+00
  6.148003e+00    3.126556e+00
  6.163879e+00    3.035474e+00
  6.179755e+00    2.999669e+00
  6.195630e+00    3.088504e+00
  6.211506e+00    3.049297e+00
  6.227381e+00    3.019643e+00
  6.243257e+00    3.110203e+00
  6.259132e+00    3.072187e+00
  6.275008e+00    3.005105e+00
  6.290884e+00    3.060046e+00
  6.306759e+00    3.037681e+00
  6.322635e+00    3.047077e+00
  6.338510e+00    3.094321e+00
  6.354386e+00    3.051627e+00
  6.370261e+00    3.018958e+00
  6.386137e+00    3.005596e+00
  6.402013e+00    3.070294e+00
  6.417888e+00    3.074044e+00
  6.433764e+00    3.091025e+00
  6.449639e+00    3.084179e+00
  6.465515e+00    3.077706e+00
  6.481390e+00    3.107906e+00
  6.497266e+00    3.087632e+00
  6.513142e+00    3.062425e+00
  6.529017e+00    3.051201e+00
  6.544893e+00    3.039646e+00
  6.560768e+00    3.062195e+00
  6.576644e+00    3.038486e+00
  6.592519e+00    3.005843e+00
  6.608395e+00    3.083547e+00
  6.624271e+00    3.099160e+00
  6.640146e+00    3.020662e+00
  6.656022e+00    3.004622e+00
  6.671897e+00    3.025627e+00
  6.687773e+00    3.011659e+00
  6.703648e+00    3.019927e+00
  6.719524e+00    3.029156e+00
  6.735400e+00    3.058222e+00
  6.751275e+00    3.041474e+00
  6.767151e+00    3.091450e+00
  6.783026e+00    3.084146e+00
  6.798902e+00    3.051347e+00
  6.814777e+00    3.066200e+00
  6.830653e+00    3.057998e+00
  6.846529e+00    2.982216e+00
  6.862404e+00    2.981488e+00
  6.878280e+00    3.006556e+00
  6.894155e+00    2.995239e+00
  6.910031e+00    3.039865e+00
  6.925907e+00    2.984980e+00
  6.941782e+00    2.990517e+00
  6.957658e+00    3.004113e+00
  6.973533e+00    3.008037e+00
  6.989409e+00    2.970364e+00
  7.005284e+00    2.989950e+00
  7.021160e+00    3.041250e+00
  7.037036e+00    3.059730e+00
  7.052911e+00    3.048219e+00
  7.068787e+00    3.049812e+00
  7.084662e+00    3.098878e+00
  7.100538e+00    3.030788e+00
  7.116413e+00    3.029106e+00
  7.132289e+00    3.079969e+00
  7.148165e+00    3.063982e+00
  7.164040e+00    3.070191e+00
  7.179916e+00    3.061329e+00
  7.195791e+00    3.043278e+00
  7.211667e+00    3.031961e+00
  7.227542e+00    2.978229e+00
  7.243418e+00    3.038973e+00
  7.259294e+00    3.027377e+00
  7.275169e+00    3.020522e+00
  7.291045e+00    3.003899e+00
  7.306920e+00    3.023279e+00
  7.322796e+00    3.053173e+00
  7.338671e+00    3.076585e+00
  7.354547e+00    3.024728e+00
  7.370423e+00    2.981804e+00
  7.386298e+00    2.976484e+00
  7.402174e+00    2.948955e+00
  7.418049e+00    2.947017e+00
  7.433925e+00    2.909078e+00
  7.449800e+00    2.978611e+00
  7.465676e+00    3.049601e+00
  7.481552e+00    2.991587e+00
  7.497427e+00    2.999702e+00
  7.513303e+00    3.043630e+00
  7.529178e+00    3.034914e+00
  7.545054e+00    3.046633e+00
  7.560929e+00    2.972422e+00
  7.576805e+00    2.929581e+00
  7.592681e+00    2.940725e+00
  7.608556e+00    2.975029e+00
  7.624432e+00    3.015683e+00
  7.640307e+00    3.047002e+00
  7.656183e+00    2.959325e+00
  7.672058e+00    3.024146e+00
  7.687934e+00    2.972506e+00
  7.703810e+00    3.001875e+00
  7.719685e+00    3.023225e+00
  7.735561e+00    2.995761e+00
  7.751436e+00    2.987231e+00
  7.767312e+00    2.982812e+00
  7.783187e+00    2.906387e+00
  7.799063e+00    2.940627e+00
  7.814939e+00    2.965080e+00
  7.830814e+00    2.966920e+00
  7.846690e+00    2.948943e+00
  7.862565e+00    2.932472e+00
  7.878441e+00    2.963402e+00
  7.894317e+00    2.919346e+00
  7.910192e+00    2.918712e+00
  7.926068e+00    2.970260e+00
  7.941943e+00    2.929528e+00
  7.957819e+00    2.888120e+00
  7.973694e+00    2.950832e+00
  7.989570e+00    2.963145e+00
  8.005446e+00    2.964311e+00
  8.021321e+00    2.982077e+00
  8.037197e+00    2.904800e+00
  8.053072e+00    2.945944e+00
  8.068948e+00    2.939481e+00
  8.084823e+00    2.911504e+00
  8.100699e+00    2.942858e+00
  8.116575e+00    3.020679e+00
  8.132450e+00    2.997770e+00
  8.148326e+00    2.945287e+00
  8.164201e+00    3.007851e+00
  8.180077e+00    3.071561e+00
  8.195952e+00    3.006040e+00
  8.211828e+00    2.969988e+00
  8.227704e+00    3.006250e+00
  8.243579e+00    3.003062e+00
  8.259455e+00    2.925832e+00
  8.275330e+00    2.893215e+00
  8.291206e+00    2.916504e+00
  8.307081e+00    2.921301e+00
  8.322957e+00    2.888679e+00
  8.338833e+00    2.991268e+00
  8.354708e+00    2.960747e+00
  8.370584e+00    2.870740e+00
  8.386459e+00    2.890592e+00
  8.402335e+00    2.908325e+00
  8.418210e+00    2.892799e+00
  8.434086e+00    2.907094e+00
  8.449962e+00    2.940811e+00
  8.465837e+00    2.937052e+00
  8.481713e+00    2.882952e+00
  8.497588e+00    2.940506e+00
  8.513464e+00    2.933103e+00
  8.529339e+00    2.916960e+00
  8.545215e+00    2.869788e+00
  8.561091e+00    2.914212e+00
  8.576966e+00    2.862432e+00
  8.592842e+00    2.815794e+00
  8.608717e+00    2.865664e+00
  8.624593e+00    2.878499e+00
  8.640468e+00    2.901424e+00
  8.656344e+00    2.904676e+00
  8.672220e+00    2.930587e+00
  8.688095e+00    2.886358e+00
  8.703971e+00    2.899105e+00
  8.719846e+00    2.893428e+00
  8.735722e+00    2.927555e+00
  8.751598e+00    2.887035e+00
  8.767473e+00    2.925789e+00
  8.783349e+00    2.889258e+00
  8.799224e+00    2.839212e+00
  8.815100e+00    2.863760e+00
  8.830975e+00    2.852794e+00
  8.846851e+00    2.793889e+00
  8.862727e+00    2.819549e+00
  8.878602e+00    2.785072e+00
  8.894478e+00    2.814813e+00
  8.910353e+00    2.866717e+00
  8.926229e+00    2.816949e+00
  8.942104e+00    2.784928e+00
  8.957980e+00    2.780604e+00
  8.973856e+00    2.821679e+00
  8.989731e+00    2.857573e+00
  9.005607e+00    2.859940e+00
  9.021482e+00    2.826221e+00
  9.037358e+00    2.889280e+00
  9.053233e+00    2.930644e+00
  9.069109e+00    2.850032e+00
  9.084985e+00    2.816818e+00
  9.100860e+00    2.834078e+00
  9.116736e+00    2.837789e+00
  9.132611e+00    2.853441e+00
  9.148487e+00    2.764804e+00
  9.164362e+00    2.771695e+00
  9.180238e+00    2.825855e+00
  9.196114e+00    2.850763e+00
  9.211989e+00    2.845184e+00
  9.227865e+00    2.821985e+00
  9.243740e+00    2.821831e+00
  9.259616e+00    2.848560e+00
  9.275491e+00    2.797661e+00
  9.291367e+00    2.812613e+00
  9.307243e+00    2.831910e+00
  9.323118e+00    2.843186e+00
  9.338994e+00    2.818607e+00
  9.354869e+00    2.782572e+00
  9.370745e+00    2.787559e+00
  9.386620e+00    2.830606e+00
  9.402496e+00    2.774172e+00
  9.418372e+00    2.781597e+00
  9.434247e+00    2.808388e+00
  9.450123e+00    2.837965e+00
  9.465998e+00    2.788274e+00
  9.481874e+00    2.822069e+00
  9.497749e+00    2.833266e+00
  9.513625e+00    2.838329e+00
  9.529501e+00    2.836957e+00
  9.545376e+00    2.797894e+00
  9.561252e+00    2.785931e+00
  9.577127e+00    2.793672e+00
  9.593003e+00    2.747940e+00
  9.608878e+00    2.769235e+00
  9.624754e+00    2.771403e+00
  9.640630e+00    2.830807e+00
  9.656505e+00    2.805553e+00
  9.672381e+00    2.785200e+00
  9.688256e+00    2.812184e+00
  9.704132e+00    2.808635e+00
  9.720008e+00    2.694118e+00
  9.735883e+00    2.732610e+00
  9.751759e+00    2.790312e+00
  9.767634e+00    2.753215e+00
  9.783510e+00    2.718670e+00
  9.799385e+00    2.674213e+00
  9.815261e+00    2.719200e+00
  9.831137e+00    2.730671e+00
  9.847012e+00    2.679319e+00
  9.862888e+00    2.684372e+00
  9.878763e+00    2.711058e+00
  9.894639e+00    2.677287e+00
  9.910514e+00    2.714888e+00
  9.926390e+00    2.715668e+00
  9.942266e+00    2.731977e+00
  9.958141e+00    2.709066e+00
  9.974017e+00    2.710900e+00
  9.989892e+00    2.715477e+00
  1.000577e+01    2.671653e+00
  1.002164e+01    2.698433e+00
  1.003752e+01    2.674018e+00
  1.005339e+01    2.717143e+00
  1.006927e+01    2.703736e+00
  1.008515e+01    2.701949e+00
  1.010102e+01    2.681379e+00
  1.011690e+01    2.665466e+00
  1.013277e+01    2.698624e+00
  1.014865e+01    2.703030e+00
  1.016452e+01    2.710132e+00
  1.018040e+01    2.670646e+00
  1.019627e+01    2.677059e+00
  1.021215e+01    2.635826e+00
  1.022803e+01    2.671931e+00
  1.024390e+01    2.667073e+00
  1.025978e+01    2.632869e+00
  1.027565e+01    2.625594e+00
  1.029153e+01    2.606770e+00
  1.030740e+01    2.648942e+00
  1.032328e+01    2.692116e+00
  1.033915e+01    2.694408e+00
  1.035503e+01    2.653473e+00
  1.037091e+01    2.592820e+00
  1.038678e+01    2.611868e+00
  1.040266e+01    2.629267e+00
  1.041853e+01    2.675681e+00
  1.043441e+01    2.663486e+00
  1.045028e+01    2.618063e+00
  1.046616e+01    2.586842e+00
  1.048204e+01    2.597683e+00
  1.049791e+01    2.613558e+00
  1.051379e+01    2.599430e+00
  1.052966e+01    2.624192e+00
  1.054554e+01    2.583942e+00
  1.056141e+01    2.579570e+00
  1.057729e+01    2.589102e+00
  1.059316e+01    2.618534e+00
  1.060904e+01    2.590442e+00
  1.062492e+01    2.588439e+00
  1.064079e+01    2.585132e+00
  1.065667e+01    2.560273e+00
  1.067254e+01    2.537400e+00
  1.068842e+01    2.534078e+00
  1.070429e+01    2.561975e+00
  1.072017e+01    2.580008e+00
  1.073604e+01    2.567800e+00
  1.075192e+01    2.555859e+00
  1.076780e+01    2.540282e+00
  1.078367e+01    2.548707e+00
  1.079955e+01    2.561983e+00
  1.081542e+01    2.517038e+00
  1.083130e+01    2.524155e+00
  1.084717e+01    2.544077e+00
  1.086305e+01    2.541448e+00
  1.087892e+01    2.565596e+00
  1.089480e+01    2.536656e+00
  1.091068e+01    2.543346e+00
  1.092655e+01    2.550164e+00
  1.094243e+01    2.578941e+00
  1.095830e+01    2.539613e+00
  1.097418e+01    2.490464e+00
  1.099005e+01    2.476475e+00
  1.100593e+01    2.487635e+00
  1.102180e+01    2.496208e+00
  1.103768e+01    2.492685e+00
  1.105356e+01    2.517491e+00
  1.106943e+01    2.480650e+00
  1.108531e+01    2.470274e+00
  1.110118e+01    2.492878e+00
  1.111706e+01    2.492749e+00
  1.113293e+01    2.492609e+00
  1.114881e+01    2.476138e+00
  1.116468e+01    2.496516e+00
  1.118056e+01    2.493418e+00
  1.119644e+01    2.451841e+00
  1.121231e+01    2.428252e+00
  1.122819e+01    2.469789e+00
  1.124406e+01    2.475508e+00
  1.125994e+01    2.436448e+00
  1.127581e+01    2.450542e+00
  1.129169e+01    2.445977e+00
  1.130756e+01    2.425652e+00
  1.132344e+01    2.475970e+00
  1.133932e+01    2.460855e+00
  1.135519e+01    2.478946e+00
  1.137107e+01    2.463093e+00
  1.138694e+01    2.404641e+00
  1.140282e+01    2.430533e+00
  1.141869e+01    2.387857e+00
  1.143457e+01    2.385921e+00
  1.145045e+01    2.472197e+00
  1.146632e+01    2.462824e+00
  1.148220e+01    2.437644e+00
  1.149807e+01    2.426950e+00
  1.151395e+01    2.423552e+00
  1.152982e+01    2.432873e+00
  1.154570e+01    2.417257e+00
  1.156157e+01    2.402549e+00
  1.157745e+01    2.410028e+00
  1.159333e+01    2.372519e+00
  1.160920e+01    2.358388e+00
  1.162508e+01    2.423225e+00
  1.164095e+01    2.402586e+00
  1.165683e+01    2.402754e+00
  1.167270e+01    2.438312e+00
  1.168858e+01    2.375122e+00
  1.170445e+01    2.363540e+00
  1.172033e+01    2.410451e+00
  1.173621e+01    2.360060e+00
  1.175208e+01    2.343036e+00
  1.176796e+01    2.362475e+00
  1.178383e+01    2.344173e+00
  1.179971e+01    2.373588e+00
  1.181558e+01    2.380789e+00
  1.183146e+01    2.387063e+00
  1.184733e+01    2.381866e+00
  1.186321e+01    2.352501e+00
  1.187909e+01    2.318750e+00
  1.189496e+01    2.343626e+00
  1.191084e+01    2.363229e+00
  1.192671e+01    2.353339e+00
  1.194259e+01    2.357971e+00
  1.195846e+01    2.376168e+00
  1.197434e+01    2.382400e+00
  1.199021e+01    2.350865e+00
  1.200609e+01    2.350646e+00
  1.202197e+01    2.321520e+00
  1.203784e+01    2.329542e+00
  1.205372e+01    2.342903e+00
  1.206959e+01    2.360607e+00
  1.208547e+01    2.299499e+00
  1.210134e+01    2.314621e+00
  1.211722e+01    2.324424e+00
  1.213309e+01    2.351762e+00
  1.214897e+01    2.353861e+00
  1.216485e+01    2.324590e+00
  1.218072e+01    2.370772e+00
  1.219660e+01    2.361341e+00
  1.221247e+01    2.324888e+00
  1.222835e+01    2.343150e+00
  1.224422e+01    2.341883e+00
  1.226010e+01    2.337361e+00
  1.227597e+01    2.330490e+00
  1.229185e+01    2.307445e+00
  1.230773e+01    2.350700e+00
  1.232360e+01    2.363885e+00
  1.233948e+01    2.357579e+00
  1.235535e+01    2.306118e+00
  1.237123e+01    2.295430e+00
  1.238710e+01    2.328385e+00
  1.240298e+01    2.313467e+00
  1.241886e+01    2.310016e+00
  1.243473e+01    2.378219e+00
  1.245061e+01    2.387707e+00
  1.246648e+01    2.364761e+00
  1.248236e+01    2.379976e+00
  1.249823e+01    2.362298e+00
  1.251411e+01    2.367306e+00
  1.252998e+01    2.366384e+00
  1.254586e+01    2.375897e+00
  1.256174e+01    2.370975e+00
  1.257761e+01    2.390667e+00
  1.259349e+01    2.414098e+00
  1.260936e+01    2.429010e+00
  1.262524e+01    2.464425e+00
  1.264111e+01    2.464221e+00
  1.265699e+01    2.441175e+00
  1.267286e+01    2.498010e+00
  1.268874e+01    2.542187e+00
  1.270462e+01    2.508909e+00
  1.272049e+01    2.498504e+00
  1.273637e+01    2.539238e+00
  1.275224e+01    2.588341e+00
  1.276812e+01    2.604108e+00
  1.278399e+01    2.668960e+00
  1.279987e+01    2.691272e+00
  1.281574e+01    2.725345e+00
  1.283162e+01    2.771981e+00
  1.284750e+01    2.847271e+00
  1.286337e+01    2.938131e+00
  1.287925e+01    3.001507e+00
  1.289512e+01    3.103938e+00
  1.291100e+01    3.286361e+00
  1.292687e+01    3.424468e+00
  1.294275e+01    3.619054e+00
  1.295862e+01    3.887292e+00
  1.297450e+01    4.254464e+00
  1.299038e+01    4.596800e+00
  1.300625e+01    5.081654e+00
  1.302213e+01    5.750333e+00
  1.303800e+01    6.652718e+00
  1.305388e+01    7.602850e+00
  1.306975e+01    8.918067e+00
  1.308563e+01    1.033091e+01
  1.310150e+01    1.187739e+01
  1.311738e+01    1.346200e+01
  1.313326e+01    1.492217e+01
  1.314913e+01    1.646175e+01
  1.316501e+01    1.794389e+01
  1.318088e+01    1.923193e+01
  1.319676e+01    1.990336e+01
  1.321263e+01    1.977504e+01
  1.322851e+01    1.867661e+01
  1.324438e+01    1.664805e+01
  1.326026e+01    1.427963e+01
  1.327614e+01    1.206040e+01
  1.329201e+01    9.994008e+00
  1.330789e+01    8.525992e+00
  1.332376e+01    7.278898e+00
  1.333964e+01    6.345606e+00
  1.335551e+01    5.549069e+00
  1.337139e+01    5.009137e+00
  1.338727e+01    4.536100e+00
  1.340314e+01    4.099817e+00
  1.341902e+01    3.781029e+00
  1.343489e+01    3.576869e+00
  1.345077e+01    3.389940e+00
  1.346664e+01    3.209714e+00
  1.348252e+01    3.064162e+00
  1.349839e+01    2.988131e+00
  1.351427e+01    2.882315e+00
  1.353015e+01    2.811067e+00
  1.354602e+01    2.726937e+00
  1.356190e+01    2.651458e+00
  1.357777e+01    2.622650e+00
  1.359365e+01    2.603271e+00
  1.360952e+01    2.542716e+00
  1.362540e+01    2.457720e+00
  1.364127e+01    2.427183e+00
  1.365715e+01    2.375194e+00
  1.367303e+01    2.368360e+00
  1.368890e+01    2.330251e+00
  1.370478e+01    2.362604e+00
  1.372065e+01    2.302954e+00
  1.373653e+01    2.254105e+00
  1.375240e+01    2.235884e+00
  1.376828e+01    2.226054e+00
  1.378415e+01    2.241695e+00
  1.380003e+01    2.259229e+00
  1.381591e+01    2.227385e+00
  1.383178e+01    2.199662e+00
  1.384766e+01    2.174160e+00
  1.386353e+01    2.156617e+00
  1.387941e+01    2.148200e+00
  1.389528e+01    2.128838e+00
  1.391116e+01    2.138302e+00
  1.392703e+01    2.097001e+00
  1.394291e+01    2.104872e+00
  1.395879e+01    2.069556e+00
  1.397466e+01    2.053284e+00
  1.399054e+01    2.104963e+00
  1.400641e+01    2.100252e+00
  1.402229e+01    2.101574e+00
  1.403816e+01    2.085850e+00
  1.405404e+01    2.087667e+00
  1.406991e+01    2.089134e+00
  1.408579e+01    2.074739e+00
  1.410167e+01    2.050316e+00
  1.411754e+01    2.049098e+00
  1.413342e+01    2.006431e+00
  1.414929e+01    2.022251e+00
  1.416517e+01    2.026820e+00
  1.418104e+01    2.024451e+00
  1.419692e+01    2.023205e+00
  1.421279e+01    1.985224e+00
  1.422867e+01    2.001807e+00
  1.424455e+01    2.010191e+00
  1.426042e+01    1.992285e+00
  1.427630e+01    2.009708e+00
  1.429217e+01    1.999989e+00
  1.430805e+01    1.969965e+00
  1.432392e+01    1.995380e+00
  1.433980e+01    1.977928e+00
  1.435568e+01    2.000169e+00
  1.437155e+01    1.973191e+00
  1.438743e+01    1.975530e+00
  1.440330e+01    1.960004e+00
  1.441918e+01    1.999311e+00
  1.443505e+01    1.965315e+00
  1.445093e+01    1.975040e+00
  1.446680e+01    1.953908e+00
  1.448268e+01    1.950723e+00
  1.449856e+01    1.921043e+00
  1.451443e+01    1.900510e+00
  1.453031e+01    1.937215e+00
  1.454618e+01    1.956392e+00
  1.456206e+01    1.949076e+00
  1.457793e+01    1.936140e+00
  1.459381e+01    1.920821e+00
  1.460968e+01    1.968685e+00
  1.462556e+01    1.970634e+00
  1.464144e+01    1.963567e+00
  1.465731e+01    1.931519e+00
  1.467319e+01    1.946146e+00
  1.468906e+01    1.973658e+00
  1.470494e+01    1.992618e+00
  1.472081e+01    1.967428e+00
  1.473669e+01    1.971836e+00
  1.475256e+01    1.923377e+00
  1.476844e+01    1.932836e+00
  1.478432e+01    1.932973e+00
  1.480019e+01    1.923864e+00
  1.481607e+01    1.910158e+00
  1.483194e+01    1.936619e+00
  1.484782e+01    1.898368e+00
  1.486369e+01    1.909400e+00
  1.487957e+01    1.972329e+00
  1.489544e+01    1.988549e+00
  1.491132e+01    1.967725e+00
  1.492720e+01    1.968913e+00
  1.494307e+01    1.984279e+00
  1.495895e+01    2.017667e+00
  1.497482e+01    2.056596e+00
  1.499070e+01    2.079549e+00
  1.500657e+01    2.157026e+00
  1.502245e+01    2.202239e+00
  1.503832e+01    2.245133e+00
  1.505420e+01    2.358042e+00
  1.507008e+01    2.459945e+00
  1.508595e+01    2.593818e+00
  1.510183e+01    2.758194e+00
  1.511770e+01    2.971281e+00
  1.513358e+01    3.253508e+00
  1.514945e+01    3.575469e+00
  1.516533e+01    3.911049e+00
  1.518120e+01    4.312405e+00
  1.519708e+01    4.788873e+00
  1.521296e+01    5.306695e+00
  1.522883e+01    5.651670e+00
  1.524471e+01    5.927425e+00
  1.526058e+01    6.275893e+00
  1.527646e+01    6.493258e+00
  1.529233e+01    6.678713e+00
  1.530821e+01    6.652834e+00
  1.532409e+01    6.304244e+00
  1.533996e+01    5.794055e+00
  1.535584e+01    5.127757e+00
  1.537171e+01    4.456076e+00
  1.538759e+01    3.946884e+00
  1.540346e+01    3.519317e+00
  1.541934e+01    3.124971e+00
  1.543521e+01    2.875478e+00
  1.545109e+01    2.717361e+00
  1.546697e+01    2.550337e+00
  1.548284e+01    2.379680e+00
  1.549872e+01    2.308603e+00
  1.551459e+01    2.212449e+00
  1.553047e+01    2.131789e+00
  1.554634e+01    2.058398e+00
  1.556222e+01    2.035586e+00
  1.557809e+01    1.978963e+00
  1.559397e+01    1.915870e+00
  1.560985e+01    1.878773e+00
  1.562572e+01    1.842216e+00
  1.564160e+01    1.819486e+00
  1.565747e+01    1.810847e+00
  1.567335e+01    1.828270e+00
  1.568922e+01    1.775033e+00
  1.570510e+01    1.775344e+00
  1.572097e+01    1.797241e+00
  1.573685e+01    1.807685e+00
  1.575273e+01    1.773625e+00
  1.576860e+01    1.750662e+00
  1.578448e+01    1.761150e+00
  1.580035e+01    1.731096e+00
  1.581623e+01    1.714637e+00
  1.583210e+01    1.730106e+00
  1.584798e+01    1.699899e+00
  1.586385e+01    1.678001e+00
  1.587973e+01    1.674744e+00
  1.589561e+01    1.671039e+00
  1.591148e+01    1.699551e+00
  1.592736e+01    1.681611e+00
  1.594323e+01    1.676622e+00
  1.595911e+01    1.664502e+00
  1.597498e+01    1.662459e+00
  1.599086e+01    1.652460e+00
  1.600673e+01    1.642092e+00
  1.602261e+01    1.628525e+00
  1.603849e+01    1.617963e+00
  1.605436e+01    1.651135e+00
  1.607024e+01    1.649522e+00
  1.608611e+01    1.638876e+00
  1.610199e+01    1.636410e+00
  1.611786e+01    1.617524e+00
  1.613374e+01    1.584900e+00
  1.614961e+01    1.596290e+00
  1.616549e+01    1.591251e+00
  1.618137e+01    1.570309e+00
  1.619724e+01    1.553265e+00
  1.621312e+01    1.593916e+00
  1.622899e+01    1.582383e+00
  1.624487e+01    1.562714e+00
  1.626074e+01    1.573146e+00
  1.627662e+01    1.577934e+00
  1.629250e+01    1.578196e+00
  1.630837e+01    1.588650e+00
  1.632425e+01    1.568554e+00
  1.634012e+01    1.578356e+00
  1.635600e+01    1.561239e+00
  1.637187e+01    1.521154e+00
  1.638775e+01    1.524837e+00
  1.640362e+01    1.527744e+00
  1.641950e+01    1.543437e+00
  1.643538e+01    1.557222e+00
  1.645125e+01    1.543252e+00
  1.646713e+01    1.543878e+00
  1.648300e+01    1.509246e+00
  1.649888e+01    1.499677e+00
  1.651475e+01    1.519462e+00
  1.653063e+01    1.527404e+00
  1.654650e+01    1.540398e+00
  1.656238e+01    1.511355e+00
  1.657826e+01    1.530543e+00
  1.659413e+01    1.515787e+00
  1.661001e+01    1.526109e+00
  1.662588e+01    1.524683e+00
  1.664176e+01    1.518533e+00
  1.665763e+01    1.515503e+00
  1.667351e+01    1.519127e+00
  1.668938e+01    1.505248e+00
  1.670526e+01    1.485575e+00
  1.672114e+01    1.502406e+00
  1.673701e+01    1.521482e+00
  1.675289e+01    1.507227e+00
  1.676876e+01    1.502859e+00
  1.678464e+01    1.506140e+00
  1.680051e+01    1.494616e+00
  1.681639e+01    1.509850e+00
  1.683226e+01    1.469259e+00
  1.684814e+01    1.472126e+00
  1.686402e+01    1.476481e+00
  1.687989e+01    1.488188e+00
  1.689577e+01    1.490517e+00
  1.691164e+01    1.476895e+00
  1.692752e+01    1.429259e+00
  1.694339e+01    1.459169e+00
  1.695927e+01    1.464265e+00
  1.697514e+01    1.445291e+00
  1.699102e+01    1.447440e+00
  1.700690e+01    1.446957e+00
  1.702277e+01    1.445899e+00
  1.703865e+01    1.461014e+00
  1.705452e+01    1.446445e+00
  1.707040e+01    1.450246e+00
  1.708627e+01    1.427469e+00
  1.710215e+01    1.443776e+00
  1.711802e+01    1.415951e+00
  1.713390e+01    1.413151e+00
  1.714978e+01    1.425248e+00
  1.716565e+01    1.425872e+00
  1.718153e+01    1.446691e+00
  1.719740e+01    1.425712e+00
  1.721328e+01    1.409504e+00
  1.722915e+01    1.423887e+00
  1.724503e+01    1.393889e+00
  1.726091e+01    1.390077e+00
  1.727678e+01    1.416507e+00
  1.729266e+01    1.429498e+00
  1.730853e+01    1.426105e+00
  1.732441e+01    1.395129e+00
  1.734028e+01    1.368285e+00
  1.735616e+01    1.392805e+00
  1.737203e+01    1.420256e+00
  1.738791e+01    1.413621e+00
  1.740379e+01    1.394283e+00
  1.741966e+01    1.405301e+00
  1.743554e+01    1.385772e+00
  1.745141e+01    1.354985e+00
  1.746729e+01    1.354019e+00
  1.748316e+01    1.372285e+00
  1.749904e+01    1.375821e+00
  1.751491e+01    1.361889e+00
  1.753079e+01    1.372841e+00
  1.754667e+01    1.395405e+00
  1.756254e+01    1.389676e+00
  1.757842e+01    1.352772e+00
  1.759429e+01    1.391092e+00
  1.761017e+01    1.386329e+00
  1.762604e+01    1.370768e+00
  1.764192e+01    1.373198e+00
  1.765779e+01    1.376950e+00
  1.767367e+01    1.381723e+00
  1.768955e+01    1.355074e+00
  1.770542e+01    1.335181e+00
  1.772130e+01    1.354545e+00
  1.773717e+01    1.383505e+00
  1.775305e+01    1.349949e+00
  1.776892e+01    1.330800e+00
  1.778480e+01    1.335736e+00
  1.780067e+01    1.353912e+00
  1.781655e+01    1.330920e+00
  1.783243e+01    1.337686e+00
  1.784830e+01    1.353411e+00
  1.786418e+01    1.333076e+00
  1.788005e+01    1.346825e+00
  1.789593e+01    1.358722e+00
  1.791180e+01    1.333498e+00
  1.792768e+01    1.312192e+00
  1.794355e+01    1.324274e+00
  1.795943e+01    1.341944e+00
  1.797531e+01    1.334694e+00
  1.799118e+01    1.304566e+00
  1.800706e+01    1.311424e+00
  1.802293e+01    1.315454e+00
  1.803881e+01    1.310566e+00
  1.805468e+01    1.322301e+00
  1.807056e+01    1.320944e+00
  1.808643e+01    1.305820e+00
  1.810231e+01    1.314490e+00
  1.811819e+01    1.320844e+00
  1.813406e+01    1.316185e+00
  1.814994e+01    1.307709e+00
  1.816581e+01    1.312321e+00
  1.818169e+01    1.283742e+00
  1.819756e+01    1.302575e+00
  1.821344e+01    1.303213e+00
  1.822932e+01    1.288527e+00
  1.824519e+01    1.302985e+00
  1.826107e+01    1.299002e+00
  1.827694e+01    1.306392e+00
  1.829282e+01    1.305243e+00
  1.830869e+01    1.302162e+00
  1.832457e+01    1.313660e+00
  1.834044e+01    1.279451e+00
  1.835632e+01    1.289404e+00
  1.837220e+01    1.292175e+00
  1.838807e+01    1.285160e+00
  1.840395e+01    1.258427e+00
  1.841982e+01    1.262234e+00
  1.843570e+01    1.264325e+00
  1.845157e+01    1.290921e+00
  1.846745e+01    1.279827e+00
  1.848332e+01    1.279325e+00
  1.849920e+01    1.260231e+00
  1.851508e+01    1.264494e+00
  1.853095e+01    1.259342e+00
  1.854683e+01    1.272388e+00
  1.856270e+01    1.281338e+00
  1.857858e+01    1.264796e+00
  1.859445e+01    1.233730e+00
  1.861033e+01    1.244638e+00
  1.862620e+01    1.250009e+00
  1.864208e+01    1.227236e+00
  1.865796e+01    1.269788e+00
  1.867383e+01    1.273416e+00
  1.868971e+01    1.214031e+00
  1.870558e+01    1.221710e+00
  1.872146e+01    1.223384e+00
  1.873733e+01    1.232637e+00
  1.875321e+01    1.237198e+00
  1.876908e+01    1.237524e+00
  1.878496e+01    1.259698e+00
  1.880084e+01    1.265499e+00
  1.881671e+01    1.244082e+00
  1.883259e+01    1.217862e+00
  1.884846e+01    1.221298e+00
  1.886434e+01    1.225872e+00
  1.888021e+01    1.231238e+00
  1.889609e+01    1.240730e+00
  1.891196e+01    1.248930e+00
  1.892784e+01    1.215354e+00
  1.894372e+01    1.232804e+00
  1.895959e+01    1.197602e+00
  1.897547e+01    1.219343e+00
  1.899134e+01    1.237051e+00
  1.900722e+01    1.223730e+00
  1.902309e+01    1.220216e+00
  1.903897e+01    1.226127e+00
  1.905484e+01    1.203915e+00
  1.907072e+01    1.219046e+00
  1.908660e+01    1.194718e+00
  1.910247e+01    1.207182e+00
  1.911835e+01    1.214974e+00
  1.913422e+01    1.214295e+00
  1.915010e+01    1.196617e+00
  1.916597e+01    1.211524e+00
  1.918185e+01    1.211686e+00
  1.919773e+01    1.200153e+00
  1.921360e+01    1.182073e+00
  1.922948e+01    1.185803e+00
  1.924535e+01    1.193211e+00
  1.926123e+01    1.198253e+00
  1.927710e+01    1.188218e+00
  1.929298e+01    1.185971e+00
  1.930885e+01    1.196254e+00
  1.932473e+01    1.203782e+00
  1.934061e+01    1.178953e+00
  1.935648e+01    1.171282e+00
  1.937236e+01    1.232907e+00
  1.938823e+01    1.190463e+00
  1.940411e+01    1.183441e+00
  1.941998e+01    1.172891e+00
  1.943586e+01    1.168792e+00
  1.945173e+01    1.170583e+00
  1.946761e+01    1.192730e+00
  1.948349e+01    1.190008e+00
  1.949936e+01    1.192298e+00
  1.951524e+01    1.183676e+00
  1.953111e+01    1.189331e+00
  1.954699e+01    1.174786e+00
  1.956286e+01    1.148173e+00
  1.957874e+01    1.177795e+00
  1.959461e+01    1.162229e+00
  1.961049e+01    1.177299e+00
  1.962637e+01    1.181093e+00
  1.964224e+01    1.169646e+00
  1.965812e+01    1.135588e+00
  1.967399e+01    1.133955e+00
  1.968987e+01    1.147288e+00
  1.970574e+01    1.157639e+00
  1.972162e+01    1.151597e+00
  1.973749e+01    1.156560e+00
  1.975337e+01    1.148422e+00
  1.976925e+01    1.148040e+00
  1.978512e+01    1.142078e+00
  1.980100e+01    1.167883e+00
  1.981687e+01    1.178089e+00
  1.983275e+01    1.183054e+00
  1.984862e+01    1.167749e+00
  1.986450e+01    1.143835e+00
  1.988037e+01    1.123829e+00
  1.989625e+01    1.157530e+00
  1.991213e+01    1.158206e+00
  1.992800e+01    1.135625e+00
  1.994388e+01    1.125626e+00
  1.995975e+01    1.142782e+00
  1.997563e+01    1.184344e+00
  1.999150e+01    1.192506e+00
  2.000738e+01    1.162978e+00
  2.002325e+01    1.135076e+00
  2.003913e+01    1.133303e+00
  2.005501e+01    1.132980e+00
  2.007088e+01    1.115328e+00
  2.008676e+01    1.127922e+00
  2.010263e+01    1.148464e+00
  2.011851e+01    1.121265e+00
  2.013438e+01    1.109957e+00
  2.015026e+01    1.147648e+00
  2.016614e+01    1.128876e+00
  2.018201e+01    1.130735e+00
  2.019789e+01    1.157341e+00
  2.021376e+01    1.131370e+00
  2.022964e+01    1.123359e+00
  2.024551e+01    1.112623e+00
  2.026139e+01    1.098335e+00
  2.027726e+01    1.089090e+00
  2.029314e+01    1.132535e+00
  2.030902e+01    1.130099e+00
  2.032489e+01    1.108097e+00
  2.034077e+01    1.108425e+00
  2.035664e+01    1.135202e+00
  2.037252e+01    1.142350e+00
  2.038839e+01    1.131438e+00
  2.040427e+01    1.100558e+00
  2.042014e+01    1.087647e+00
  2.043602e+01    1.109083e+00
  2.045190e+01    1.106890e+00
  2.046777e+01    1.103935e+00
  2.048365e+01    1.131034e+00
  2.049952e+01    1.124812e+00
  2.051540e+01    1.103325e+00
  2.053127e+01    1.096513e+00
  2.054715e+01    1.081988e+00
  2.056302e+01    1.088561e+00
  2.057890e+01    1.108710e+00
  2.059478e+01    1.112836e+00
  2.061065e+01    1.100426e+00
  2.062653e+01    1.080904e+00
  2.064240e+01    1.101339e+00
  2.065828e+01    1.097291e+00
  2.067415e+01    1.092239e+00
  2.069003e+01    1.088214e+00
  2.070590e+01    1.115173e+00
  2.072178e+01    1.106543e+00
  2.073766e+01    1.092857e+00
  2.075353e+01    1.100536e+00
  2.076941e+01    1.116125e+00
  2.078528e+01    1.112740e+00
  2.080116e+01    1.080070e+00
  2.081703e+01    1.078068e+00
  2.083291e+01    1.104015e+00
  2.084878e+01    1.101274e+00
  2.086466e+01    1.096818e+00
  2.088054e+01    1.086372e+00
  2.089641e+01    1.109744e+00
  2.091229e+01    1.124749e+00
  2.092816e+01    1.115998e+00
  2.094404e+01    1.100197e+00
  2.095991e+01    1.094957e+00
  2.097579e+01    1.096390e+00
  2.099166e+01    1.100612e+00
  2.100754e+01    1.103158e+00
  2.102342e+01    1.087175e+00
  2.103929e+01    1.078983e+00
  2.105517e+01    1.106377e+00
  2.107104e+01    1.106597e+00
  2.108692e+01    1.109294e+00
  2.110279e+01    1.107173e+00
  2.111867e+01    1.087287e+00
  2.113455e+01    1.104653e+00
  2.115042e+01    1.114766e+00
  2.116630e+01    1.115695e+00
  2.118217e+01    1.108981e+00
  2.119805e+01    1.121413e+00
  2.121392e+01    1.129038e+00
  2.122980e+01    1.125245e+00
  2.124567e+01    1.134654e+00
  2.126155e+01    1.120895e+00
  2.127743e+01    1.131960e+00
  2.129330e+01    1.143960e+00
  2.130918e+01    1.125988e+00
  2.132505e+01    1.128584e+00
  2.134093e+01    1.133828e+00
  2.135680e+01    1.133918e+00
  2.137268e+01    1.156793e+00
  2.138855e+01    1.173701e+00
  2.140443e+01    1.189577e+00
  2.142031e+01    1.210950e+00
  2.143618e+01    1.210065e+00
  2.145206e+01    1.227839e+00
  2.146793e+01    1.250803e+00
  2.148381e+01    1.283952e+00
  2.149968e+01    1.294246e+00
  2.151556e+01    1.327869e+00
  2.153143e+01    1.341469e+00
  2.154731e+01    1.362188e+00
  2.156319e+01    1.391650e+00
  2.157906e+01    1.416829e+00
  2.159494e+01    1.468005e+00
  2.161081e+01    1.546871e+00
  2.162669e+01    1.642378e+00
  2.164256e+01    1.710880e+00
  2.165844e+01    1.843700e+00
  2.167431e+01    1.939627e+00
  2.169019e+01    2.065528e+00
  2.170607e+01    2.290938e+00
  2.172194e+01    2.468325e+00
  2.173782e+01    2.733809e+00
  2.175369e+01    3.143953e+00
  2.176957e+01    3.550639e+00
  2.178544e+01    4.118045e+00
  2.180132e+01    4.697321e+00
  2.181719e+01    5.359547e+00
  2.183307e+01    6.196507e+00
  2.184895e+01    7.037400e+00
  2.186482e+01    7.920230e+00
  2.188070e+01    8.853592e+00
  2.189657e+01    9.751633e+00
  2.191245e+01    1.052283e+01
  2.192832e+01    1.100326e+01
  2.194420e+01    1.112662e+01
  2.196007e+01    1.072358e+01
  2.197595e+01    9.855938e+00
  2.199183e+01    8.808793e+00
  2.200770e+01    7.572289e+00
  2.202358e+01    6.433139e+00
  2.203945e+01    5.434716e+00
  2.205533e+01    4.624513e+00
  2.207120e+01    3.904370e+00
  2.208708e+01    3.424392e+00
  2.210296e+01    3.001530e+00
  2.211883e+01    2.689407e+00
  2.213471e+01    2.414431e+00
  2.215058e+01    2.172695e+00
  2.216646e+01    1.991055e+00
  2.218233e+01    1.886711e+00
  2.219821e+01    1.775817e+00
  2.221408e+01    1.645157e+00
  2.222996e+01    1.559389e+00
  2.224584e+01    1.491257e+00
  2.226171e+01    1.441476e+00
  2.227759e+01    1.404685e+00
  2.229346e+01    1.355119e+00
  2.230934e+01    1.307866e+00
  2.232521e+01    1.300136e+00
  2.234109e+01    1.269214e+00
  2.235696e+01    1.213835e+00
  2.237284e+01    1.198140e+00
  2.238872e+01    1.192400e+00
  2.240459e+01    1.155940e+00
  2.242047e+01    1.139938e+00
  2.243634e+01    1.137676e+00
  2.245222e+01    1.118206e+00
  2.246809e+01    1.073061e+00
  2.248397e+01    1.109126e+00
  2.249984e+01    1.100656e+00
  2.251572e+01    1.092128e+00
  2.253160e+01    1.084488e+00
  2.254747e+01    1.056850e+00
  2.256335e+01    1.070788e+00
  2.257922e+01    1.061543e+00
  2.259510e+01    1.017432e+00
  2.261097e+01    1.003949e+00
  2.262685e+01    1.013264e+00
  2.264272e+01    1.013553e+00
  2.265860e+01    1.002882e+00
  2.267448e+01    9.906605e-01
  2.269035e+01    9.831566e-01
  2.270623e+01    9.836231e-01
  2.272210e+01    9.874686e-01
  2.273798e+01    9.806669e-01
  2.275385e+01    9.780437e-01
  2.276973e+01    9.564285e-01
  2.278560e+01    9.517626e-01
  2.280148e+01    9.525821e-01
  2.281736e+01    9.485193e-01
  2.283323e+01    9.371301e-01
  2.284911e+01    9.498084e-01
  2.286498e+01    9.591113e-01
  2.288086e+01    9.298181e-01
  2.289673e+01    9.391838e-01
  2.291261e+01    9.563697e-01
  2.292848e+01    9.275005e-01
  2.294436e+01    9.143735e-01
  2.296024e+01    9.048462e-01
  2.297611e+01    9.070566e-01
  2.299199e+01    9.242006e-01
  2.300786e+01    9.227389e-01
  2.302374e+01    9.199806e-01
  2.303961e+01    8.939044e-01
  2.305549e+01    8.916528e-01
  2.307137e+01    9.210936e-01
  2.308724e+01    9.168220e-01
  2.310312e+01    8.975535e-01
  2.311899e+01    9.102404e-01
  2.313487e+01    9.035953e-01
  2.315074e+01    8.952747e-01
  2.316662e+01    8.995872e-01
  2.318249e+01    8.805434e-01
  2.319837e+01    8.715124e-01
  2.321425e+01    8.825766e-01
  2.323012e+01    8.919674e-01
  2.324600e+01    8.781980e-01
  2.326187e+01    8.693085e-01
  2.327775e+01    8.887095e-01
  2.329362e+01    8.893108e-01
  2.330950e+01    8.620677e-01
  2.332537e+01    8.856218e-01
  2.334125e+01    8.901964e-01
  2.335713e+01    8.819309e-01
  2.337300e+01    8.589644e-01
  2.338888e+01    8.501903e-01
  2.340475e+01    8.593713e-01
  2.342063e+01    8.683925e-01
  2.343650e+01    8.522527e-01
  2.345238e+01    8.491524e-01
  2.346825e+01    8.710789e-01
  2.348413e+01    8.710180e-01
  2.350001e+01    8.575220e-01
  2.351588e+01    8.649715e-01
  2.353176e+01    8.674055e-01
  2.354763e+01    8.688697e-01
  2.356351e+01    8.571392e-01
  2.357938e+01    8.494829e-01
  2.359526e+01    8.756319e-01
  2.361113e+01    8.869007e-01
  2.362701e+01    8.648472e-01
  2.364289e+01    8.518052e-01
  2.365876e+01    8.524398e-01
  2.367464e+01    8.371456e-01
  2.369051e+01    8.244894e-01
  2.370639e+01    8.396624e-01
  2.372226e+01    8.470282e-01
  2.373814e+01    8.389004e-01
  2.375401e+01    8.492810e-01
  2.376989e+01    8.374414e-01
  2.378577e+01    8.319035e-01
  2.380164e+01    8.201573e-01
  2.381752e+01    8.079014e-01
  2.383339e+01    8.051531e-01
  2.384927e+01    8.112285e-01
  2.386514e+01    8.104710e-01
  2.388102e+01    8.276083e-01
  2.389689e+01    8.266369e-01
  2.391277e+01    8.237978e-01
  2.392865e+01    8.121763e-01
  2.394452e+01    7.892467e-01
  2.396040e+01    8.087626e-01
  2.397627e+01    8.121060e-01
  2.399215e+01    7.944903e-01
  2.400802e+01    8.054174e-01
  2.402390e+01    8.133980e-01
  2.403978e+01    8.068979e-01
  2.405565e+01    8.129683e-01
  2.407153e+01    8.059492e-01
  2.408740e+01    7.899145e-01
  2.410328e+01    7.900234e-01
  2.411915e+01    7.998738e-01
  2.413503e+01    7.868603e-01
  2.415090e+01    7.787290e-01
  2.416678e+01    7.917174e-01
  2.418266e+01    7.889429e-01
  2.419853e+01    8.273866e-01
  2.421441e+01    7.949896e-01
  2.423028e+01    7.858061e-01
  2.424616e+01    7.910468e-01
  2.426203e+01    7.931520e-01
  2.427791e+01    8.055559e-01
  2.429378e+01    8.119692e-01
  2.430966e+01    8.073872e-01
  2.432554e+01    8.148169e-01
  2.434141e+01    7.964519e-01
  2.435729e+01    7.950410e-01
  2.437316e+01    7.985443e-01
  2.438904e+01    8.013942e-01
  2.440491e+01    7.934225e-01
  2.442079e+01    7.858002e-01
  2.443666e+01    7.982763e-01
  2.445254e+01    7.963427e-01
  2.446842e+01    8.099243e-01
  2.448429e+01    8.098006e-01
  2.450017e+01    8.065817e-01
  2.451604e+01    8.131854e-01
  2.453192e+01    8.059473e-01
  2.454779e+01    8.232735e-01
  2.456367e+01    8.175449e-01
  2.457954e+01    8.294291e-01
  2.459542e+01    8.023619e-01
  2.461130e+01    8.188123e-01
  2.462717e+01    8.168940e-01
  2.464305e+01    8.158151e-01
  2.465892e+01    8.028750e-01
  2.467480e+01    7.823305e-01
  2.469067e+01    8.037410e-01
  2.470655e+01    8.095517e-01
  2.472242e+01    8.159354e-01
  2.473830e+01    8.023848e-01
  2.475418e+01    7.997743e-01
  2.477005e+01    8.031111e-01
  2.478593e+01    8.015349e-01
  2.480180e+01    8.137944e-01
  2.481768e+01    7.972391e-01
  2.483355e+01    7.972685e-01
  2.484943e+01    8.151590e-01
  2.486530e+01    8.061250e-01
  2.488118e+01    8.074542e-01
  2.489706e+01    7.981195e-01
  2.491293e+01    7.991228e-01
  2.492881e+01    8.027238e-01
  2.494468e+01    7.942662e-01
  2.496056e+01    7.952986e-01
  2.497643e+01    7.996443e-01
  2.499231e+01    8.347052e-01
  2.500819e+01    8.346441e-01
  2.502406e+01    8.066270e-01
  2.503994e+01    8.079419e-01
  2.505581e+01    8.175631e-01
  2.507169e+01    8.282310e-01
  2.508756e+01    8.435177e-01
  2.510344e+01    8.350156e-01
  2.511931e+01    8.377065e-01
  2.513519e+01    8.376759e-01
  2.515107e+01    8.354394e-01
  2.516694e+01    8.449923e-01
  2.518282e+01    8.353650e-01
  2.519869e+01    8.750795e-01
  2.521457e+01    8.596880e-01
  2.523044e+01    8.378621e-01
  2.524632e+01    8.569730e-01
  2.526219e+01    8.571237e-01
  2.527807e+01    8.648427e-01
  2.529395e+01    8.837240e-01
  2.530982e+01    8.818124e-01
  2.532570e+01    8.868104e-01
  2.534157e+01    8.762561e-01
  2.535745e+01    8.746655e-01
  2.537332e+01    8.831493e-01
  2.538920e+01    9.141361e-01
  2.540507e+01    9.260091e-01
  2.542095e+01    9.273028e-01
  2.543683e+01    9.173069e-01
  2.545270e+01    9.368514e-01
  2.546858e+01    9.562206e-01
  2.548445e+01    9.601143e-01
  2.550033e+01    9.637486e-01
  2.551620e+01    9.879668e-01
  2.553208e+01    9.970006e-01
  2.554795e+01    1.032436e+00
  2.556383e+01    1.038754e+00
  2.557971e+01    1.061419e+00
  2.559558e+01    1.101165e+00
  2.561146e+01    1.114259e+00
  2.562733e+01    1.154747e+00
  2.564321e+01    1.168990e+00
  2.565908e+01    1.204121e+00
  2.567496e+01    1.269662e+00
  2.569083e+01    1.316746e+00
  2.570671e+01    1.377430e+00
  2.572259e+01    1.452428e+00
  2.573846e+01    1.541550e+00
  2.575434e+01    1.644442e+00
  2.577021e+01    1.792632e+00
  2.578609e+01    1.967280e+00
  2.580196e+01    2.145410e+00
  2.581784e+01    2.383984e+00
  2.583371e+01    2.715177e+00
  2.584959e+01    3.095257e+00
  2.586547e+01    3.515678e+00
  2.588134e+01    4.010767e+00
  2.589722e+01    4.658367e+00
  2.591309e+01    5.377524e+00
  2.592897e+01    6.125999e+00
  2.594484e+01    6.948093e+00
  2.596072e+01    7.723843e+00
  2.597660e+01    8.480274e+00
  2.599247e+01    9.001222e+00
  2.600835e+01    9.251959e+00
  2.602422e+01    9.135387e+00
  2.604010e+01    8.636667e+00
  2.605597e+01    7.917773e+00
  2.607185e+01    6.954372e+00
  2.608772e+01    6.006677e+00
  2.610360e+01    5.159451e+00
  2.611948e+01    4.396560e+00
  2.613535e+01    3.805362e+00
  2.615123e+01    3.285764e+00
  2.616710e+01    2.855186e+00
  2.618298e+01    2.504161e+00
  2.619885e+01    2.286385e+00
  2.621473e+01    2.090083e+00
  2.623060e+01    1.916470e+00
  2.624648e+01    1.736908e+00
  2.626236e+01    1.590911e+00
  2.627823e+01    1.525213e+00
  2.629411e+01    1.419290e+00
  2.630998e+01    1.357841e+00
  2.632586e+01    1.294587e+00
  2.634173e+01    1.222170e+00
  2.635761e+01    1.192865e+00
  2.637348e+01    1.168094e+00
  2.638936e+01    1.167172e+00
  2.640524e+01    1.123272e+00
  2.642111e+01    1.099729e+00
  2.643699e+01    1.077675e+00
  2.645286e+01    1.055907e+00
  2.646874e+01    1.044893e+00
  2.648461e+01    1.021074e+00
  2.650049e+01    1.013516e+00
  2.651636e+01    1.003646e+00
  2.653224e+01    1.004922e+00
  2.654812e+01    9.758798e-01
  2.656399e+01    9.702251e-01
  2.657987e+01    9.445097e-01
  2.659574e+01    9.664347e-01
  2.661162e+01    9.595286e-01
  2.662749e+01    9.492571e-01
  2.664337e+01    9.344992e-01
  2.665924e+01    9.365977e-01
  2.667512e+01    9.237632e-01
  2.669100e+01    9.312328e-01
  2.670687e+01    9.488657e-01
  2.672275e+01    9.243451e-01
  2.673862e+01    9.233952e-01
  2.675450e+01    9.319293e-01
  2.677037e+01    9.479020e-01
  2.678625e+01    9.301033e-01
  2.680212e+01    9.053577e-01
  2.681800e+01    9.024767e-01
  2.683388e+01    9.159420e-01
  2.684975e+01    9.207052e-01
  2.686563e+01    9.301538e-01
  2.688150e+01    9.241341e-01
  2.689738e+01    9.370461e-01
  2.691325e+01    9.405698e-01
  2.692913e+01    9.478214e-01
  2.694501e+01    9.733061e-01
  2.696088e+01    9.656675e-01
  2.697676e+01    9.709916e-01
  2.699263e+01    1.006188e+00
  2.700851e+01    1.012800e+00
  2.702438e+01    1.022932e+00
  2.704026e+01    1.049421e+00
  2.705613e+01    1.078279e+00
  2.707201e+01    1.101567e+00
  2.708789e+01    1.179514e+00
  2.710376e+01    1.241237e+00
  2.711964e+01    1.303823e+00
  2.713551e+01    1.384693e+00
  2.715139e+01    1.526310e+00
  2.716726e+01    1.666674e+00
  2.718314e+01    1.847407e+00
  2.719901e+01    2.044048e+00
  2.721489e+01    2.202297e+00
  2.723077e+01    2.391709e+00
  2.724664e+01    2.497693e+00
  2.726252e+01    2.582599e+00
  2.727839e+01    2.602664e+00
  2.729427e+01    2.538225e+00
  2.731014e+01    2.388909e+00
  2.732602e+01    2.226829e+00
  2.734189e+01    2.035589e+00
  2.735777e+01    1.854120e+00
  2.737365e+01    1.676535e+00
  2.738952e+01    1.526700e+00
  2.740540e+01    1.395582e+00
  2.742127e+01    1.340106e+00
  2.743715e+01    1.259569e+00
  2.745302e+01    1.185784e+00
  2.746890e+01    1.114479e+00
  2.748477e+01    1.091205e+00
  2.750065e+01    1.024968e+00
  2.751653e+01    9.933543e-01
  2.753240e+01    9.947021e-01
  2.754828e+01    9.748937e-01
  2.756415e+01    9.429725e-01
  2.758003e+01    9.111930e-01
  2.759590e+01    9.145531e-01
  2.761178e+01    9.149433e-01
  2.762765e+01    8.923211e-01
  2.764353e+01    8.841839e-01
  2.765941e+01    8.957111e-01
  2.767528e+01    8.913074e-01
  2.769116e+01    8.678834e-01
  2.770703e+01    8.600652e-01
  2.772291e+01    8.532405e-01
  2.773878e+01    8.486789e-01
  2.775466e+01    8.451173e-01
  2.777054e+01    8.586661e-01
  2.778641e+01    8.494547e-01
  2.780229e+01    8.398724e-01
  2.781816e+01    8.379163e-01
  2.783404e+01    8.240359e-01
  2.784991e+01    8.149261e-01
  2.786579e+01    8.262665e-01
  2.788166e+01    8.269535e-01
  2.789754e+01    8.277050e-01
  2.791342e+01    7.956800e-01
  2.792929e+01    8.089194e-01
  2.794517e+01    8.177834e-01
  2.796104e+01    8.176661e-01
  2.797692e+01    8.293784e-01
  2.799279e+01    8.268361e-01
  2.800867e+01    8.048112e-01
  2.802454e+01    8.033240e-01
  2.804042e+01    7.980770e-01
  2.805630e+01    8.009397e-01
  2.807217e+01    8.107103e-01
  2.808805e+01    8.073683e-01
  2.810392e+01    7.746534e-01
  2.811980e+01    7.842191e-01
  2.813567e+01    8.024741e-01
  2.815155e+01    7.871410e-01
  2.816742e+01    7.943030e-01
  2.818330e+01    7.961116e-01
  2.819918e+01    7.949932e-01
  2.821505e+01    7.928379e-01
  2.823093e+01    8.066925e-01
  2.824680e+01    7.989337e-01
  2.826268e+01    7.986579e-01
  2.827855e+01    8.097948e-01
  2.829443e+01    7.909986e-01
  2.831030e+01    7.867901e-01
  2.832618e+01    7.886586e-01
  2.834206e+01    7.967909e-01
  2.835793e+01    7.975444e-01
  2.837381e+01    7.814730e-01
  2.838968e+01    7.987697e-01
  2.840556e+01    8.059743e-01
  2.842143e+01    8.128174e-01
  2.843731e+01    7.813742e-01
  2.845318e+01    7.763592e-01
  2.846906e+01    7.898534e-01
  2.848494e+01    7.530658e-01
  2.850081e+01    7.740401e-01
  2.851669e+01    8.147743e-01
  2.853256e+01    8.149460e-01
  2.854844e+01    7.724504e-01
  2.856431e+01    7.693053e-01
  2.858019e+01    7.666074e-01
  2.859606e+01    7.631624e-01
  2.861194e+01    7.694314e-01
  2.862782e+01    7.765557e-01
  2.864369e+01    7.754197e-01
  2.865957e+01    7.780483e-01
  2.867544e+01    7.731615e-01
  2.869132e+01    7.766123e-01
  2.870719e+01    7.663291e-01
  2.872307e+01    7.528730e-01
  2.873895e+01    7.713576e-01
  2.875482e+01    7.705261e-01
  2.877070e+01    7.792173e-01
  2.878657e+01    7.481830e-01
  2.880245e+01    7.495357e-01
  2.881832e+01    7.559240e-01
  2.883420e+01    7.557433e-01
  2.885007e+01    7.534632e-01
  2.886595e+01    7.544329e-01
  2.888183e+01    7.533274e-01
  2.889770e+01    7.645208e-01
  2.891358e+01    7.844676e-01
  2.892945e+01    7.648603e-01
  2.894533e+01    7.482105e-01
  2.896120e+01    7.584093e-01
  2.897708e+01    7.279961e-01
  2.899295e+01    7.411208e-01
  2.900883e+01    7.491313e-01
  2.902471e+01    7.598025e-01
  2.904058e+01    7.446624e-01
  2.905646e+01    7.618463e-01
  2.907233e+01    7.631397e-01
  2.908821e+01    7.519171e-01
  2.910408e+01    7.430924e-01
  2.911996e+01    7.478718e-01
  2.913583e+01    7.479858e-01
  2.915171e+01    7.607989e-01
  2.916759e+01    7.672322e-01
  2.918346e+01    7.459680e-01
  2.919934e+01    7.558615e-01
  2.921521e+01    7.498496e-01
  2.923109e+01    7.527153e-01
  2.924696e+01    7.456340e-01
  2.926284e+01    7.429689e-01
  2.927871e+01    7.349635e-01
  2.929459e+01    7.255944e-01
  2.931047e+01    7.287375e-01
  2.932634e+01    7.605162e-01
  2.934222e+01    7.481155e-01
  2.935809e+01    7.185007e-01
  2.937397e+01    7.416264e-01
  2.938984e+01    7.400514e-01
  2.940572e+01    7.300515e-01
  2.942159e+01    7.332789e-01
  2.943747e+01    7.623163e-01
  2.945335e+01    7.519825e-01
  2.946922e+01    7.461175e-01
  2.948510e+01    7.446408e-01
  2.950097e+01    7.299867e-01
  2.951685e+01    7.444001e-01
  2.953272e+01    7.568213e-01
  2.954860e+01    7.512031e-01
  2.956447e+01    7.415187e-01
  2.958035e+01    7.160208e-01
  2.959623e+01    7.400939e-01
  2.961210e+01    7.384462e-01
  2.962798e+01    7.329196e-01
  2.964385e+01    7.294061e-01
  2.965973e+01    7.393402e-01
  2.967560e+01    7.284964e-01
  2.969148e+01    7.285405e-01
  2.970736e+01    7.272658e-01
  2.972323e+01    6.977976e-01
  2.973911e+01    7.186102e-01
  2.975498e+01    7.146822e-01
  2.977086e+01    7.286015e-01
  2.978673e+01    7.329993e-01
  2.980261e+01    7.240449e-01
  2.981848e+01    7.245049e-01
  2.983436e+01    7.060209e-01
  2.985024e+01    7.295216e-01
  2.986611e+01    7.543802e-01
  2.988199e+01    7.498295e-01
  2.989786e+01    7.328702e-01
  2.991374e+01    7.347254e-01
  2.992961e+01    7.459027e-01
  2.994549e+01    7.224637e-01
  2.996136e+01    7.418365e-01
  2.997724e+01    7.561634e-01
  2.999312e+01    7.494425e-01
  3.000899e+01    7.641048e-01
  3.002487e+01    7.496591e-01
  3.004074e+01    7.359454e-01
  3.005662e+01    7.534805e-01
  3.007249e+01    7.383414e-01
  3.008837e+01    7.344565e-01
  3.010424e+01    7.082943e-01
  3.012012e+01    7.306514e-01
  3.013600e+01    7.645346e-01
  3.015187e+01    7.544925e-01
  3.016775e+01    7.239206e-01
  3.018362e+01    7.082060e-01
  3.019950e+01    7.191156e-01
  3.021537e+01    7.381633e-01
  3.023125e+01    7.339081e-01
  3.024712e+01    7.165009e-01
  3.026300e+01    7.299073e-01
  3.027888e+01    7.272705e-01
  3.029475e+01    7.437836e-01
  3.031063e+01    7.511605e-01
  3.032650e+01    7.292947e-01
  3.034238e+01    7.357847e-01
  3.035825e+01    7.134489e-01
  3.037413e+01    7.137003e-01
  3.039000e+01    7.170141e-01
  3.040588e+01    7.108996e-01
  3.042176e+01    7.482404e-01
  3.043763e+01    7.243442e-01
  3.045351e+01    7.259919e-01
  3.046938e+01    7.334660e-01
  3.048526e+01    7.316508e-01
  3.050113e+01    7.333251e-01
  3.051701e+01    7.261168e-01
  3.053288e+01    7.348090e-01
  3.054876e+01    7.312594e-01
  3.056464e+01    7.194482e-01
  3.058051e+01    7.267683e-01
  3.059639e+01    7.329657e-01
  3.061226e+01    7.171177e-01
  3.062814e+01    7.302551e-01
  3.064401e+01    7.126936e-01
  3.065989e+01    7.184231e-01
  3.067577e+01    7.093288e-01
  3.069164e+01    7.296360e-01
  3.070752e+01    7.103783e-01
  3.072339e+01    6.875765e-01
  3.073927e+01    7.032166e-01
  3.075514e+01    7.279336e-01
  3.077102e+01    7.408916e-01
  3.078689e+01    7.219197e-01
  3.080277e+01    7.263511e-01
  3.081865e+01    7.169577e-01
  3.083452e+01    7.228579e-01
  3.085040e+01    7.415504e-01
  3.086627e+01    7.250306e-01
  3.088215e+01    7.191132e-01
  3.089802e+01    7.283474e-01
  3.091390e+01    7.270080e-01
  3.092977e+01    7.380086e-01
  3.094565e+01    7.492011e-01
  3.096153e+01    7.266507e-01
  3.097740e+01    7.241421e-01
  3.099328e+01    7.365283e-01
  3.100915e+01    7.145123e-01
  3.102503e+01    7.165800e-01
  3.104090e+01    7.331337e-01
  3.105678e+01    7.429101e-01
  3.107265e+01    7.264273e-01
  3.108853e+01    7.077658e-01
  3.110441e+01    7.201903e-01
  3.112028e+01    7.224148e-01
  3.113616e+01    7.224842e-01
  3.115203e+01    7.294316e-01
  3.116791e+01    7.268833e-01
  3.118378e+01    7.287217e-01
  3.119966e+01    7.351944e-01
  3.121553e+01    7.394084e-01
  3.123141e+01    7.537404e-01
  3.124729e+01    7.412836e-01
  3.126316e+01    7.672096e-01
  3.127904e+01    7.422689e-01
  3.129491e+01    7.447334e-01
  3.131079e+01    7.414461e-01
  3.132666e+01    7.260508e-01
  3.134254e+01    7.580529e-01
  3.135841e+01    7.527238e-01
  3.137429e+01    7.467020e-01
  3.139017e+01    7.446553e-01
  3.140604e+01    7.506132e-01
  3.142192e+01    7.466686e-01
  3.143779e+01    7.588755e-01
  3.145367e+01    7.663575e-01
  3.146954e+01    7.766016e-01
  3.148542e+01    7.738191e-01
  3.150129e+01    7.743736e-01
  3.151717e+01    7.895688e-01
  3.153305e+01    7.964084e-01
  3.154892e+01    7.889780e-01
  3.156480e+01    8.101432e-01
  3.158067e+01    8.073592e-01
  3.159655e+01    7.882835e-01
  3.161242e+01    8.226790e-01
  3.162830e+01    8.249362e-01
  3.164418e+01    8.360171e-01
  3.166005e+01    8.464971e-01
  3.167593e+01    8.891162e-01
  3.169180e+01    8.903360e-01
  3.170768e+01    9.140815e-01
  3.172355e+01    9.434806e-01
  3.173943e+01    9.794310e-01
  3.175530e+01    9.990385e-01
  3.177118e+01    1.062379e+00
  3.178706e+01    1.129737e+00
  3.180293e+01    1.186474e+00
  3.181881e+01    1.268365e+00
  3.183468e+01    1.371602e+00
  3.185056e+01    1.494012e+00
  3.186643e+01    1.633525e+00
  3.188231e+01    1.796100e+00
  3.189818e+01    1.987549e+00
  3.191406e+01    2.201003e+00
  3.192994e+01    2.357807e+00
  3.194581e+01    2.506844e+00
  3.196169e+01    2.592943e+00
  3.197756e+01    2.591687e+00
  3.199344e+01    2.531498e+00
  3.200931e+01    2.390310e+00
  3.202519e+01    2.211718e+00
  3.204106e+01    1.991910e+00
  3.205694e+01    1.816071e+00
  3.207282e+01    1.655276e+00
  3.208869e+01    1.473654e+00
  3.210457e+01    1.330288e+00
  3.212044e+01    1.233770e+00
  3.213632e+01    1.184237e+00
  3.215219e+01    1.121795e+00
  3.216807e+01    1.029951e+00
  3.218394e+01    1.000201e+00
  3.219982e+01    9.612526e-01
  3.221570e+01    9.399430e-01
  3.223157e+01    8.950659e-01
  3.224745e+01    8.667298e-01
  3.226332e+01    8.791707e-01
  3.227920e+01    8.452935e-01
  3.229507e+01    8.419183e-01
  3.231095e+01    8.139145e-01
  3.232682e+01    8.207001e-01
  3.234270e+01    7.918282e-01
  3.235858e+01    7.979656e-01
  3.237445e+01    7.818597e-01
  3.239033e+01    7.829930e-01
  3.240620e+01    7.774472e-01
  3.242208e+01    7.828327e-01
  3.243795e+01    7.857351e-01
  3.245383e+01    7.673484e-01
  3.246970e+01    7.685058e-01
  3.248558e+01    7.736290e-01
  3.250146e+01    7.550206e-01
  3.251733e+01    7.358798e-01
  3.253321e+01    7.626085e-01
  3.254908e+01    7.534568e-01
