# == pyFAI calibration ==
# Distance Sample to Detector: 0.3999999939076516 m
# PONI: 9.750e-02, 1.135e-01 m
# Rotations: -0.000175 0.000000 -0.000000 rad
# 
# == Fit2d calibration ==
# Distance Sample-beamCenter: 400.000 mm
# Center: x=1514.000, y=1300.000 pix
# Tilt: 0.010 deg  TiltPlanRot: 0.010 deg
# 
# Detector Detector	 Spline= None	 PixelSize= 7.500e-05, 7.500e-05 m
#    Detector has a mask: False 
#    Detector has a dark current: False 
#    detector has a flat field: False 
# 
# Wavelength: 6.888e-11 m
# Mask applied: user provided
# Dark current applied: False
# Flat field applied: False
# Polarization factor: 0.99
# Normalization factor: 1.0
# --> /home/myspot/data/2024_07_Rosario/Ru-CGO-ex/2024-07-27_002_Ru-CGO-ex_Activtation_ramp_000002_data_000001.dat
#       q_nm^-1             I 
  2.003187e-02    0.000000e+00
  3.590745e-02    7.159255e-02
  5.178302e-02    4.982381e-02
  6.765859e-02    7.934761e-02
  8.353417e-02    1.378261e-01
  9.940974e-02    1.031991e-01
  1.152853e-01    3.425630e-02
  1.311609e-01    1.394856e-01
  1.470365e-01    4.380239e-02
  1.629120e-01    1.413806e-02
  1.787876e-01    2.776049e-02
  1.946632e-01    6.366139e-02
  2.105388e-01    6.211128e-02
  2.264143e-01    1.931106e-02
  2.422899e-01    4.846483e-02
  2.581655e-01    5.598600e-02
  2.740411e-01    8.408379e-02
  2.899166e-01    7.161907e-02
  3.057922e-01    4.116444e-02
  3.216678e-01    3.954705e-02
  3.375433e-01    6.773150e-02
  3.534189e-01    3.083201e-02
  3.692945e-01    7.402383e-03
  3.851701e-01    1.750870e-02
  4.010456e-01    1.638512e-02
  4.169212e-01    3.515298e-02
  4.327968e-01    4.705777e-02
  4.486724e-01    5.276743e-02
  4.645479e-01    6.906959e-02
  4.804235e-01    4.114563e-02
  4.962991e-01    3.111212e-02
  5.121747e-01    3.333996e-02
  5.280502e-01    4.643807e-02
  5.439258e-01    6.276491e-02
  5.598014e-01    5.536465e-02
  5.756770e-01    2.505833e-02
  5.915525e-01    1.793692e-02
  6.074281e-01    1.738639e-02
  6.233037e-01    4.463424e-02
  6.391793e-01    5.050169e-02
  6.550548e-01    4.833589e-02
  6.709304e-01    1.603929e-02
  6.868060e-01    1.408403e-02
  7.026815e-01    2.239351e-02
  7.185571e-01    3.451778e-02
  7.344327e-01    3.910915e-02
  7.503083e-01    5.579256e-02
  7.661838e-01    7.685111e-02
  7.820594e-01    6.555030e-02
  7.979350e-01    9.766860e-02
  8.138106e-01    1.839425e-01
  8.296861e-01    2.499120e-01
  8.455617e-01    2.943394e-01
  8.614373e-01    3.809714e-01
  8.773129e-01    5.107433e-01
  8.931884e-01    5.639181e-01
  9.090640e-01    5.356330e-01
  9.249396e-01    6.895409e-01
  9.408152e-01    7.449189e-01
  9.566907e-01    7.966260e-01
  9.725663e-01    8.808228e-01
  9.884419e-01    9.359969e-01
  1.004317e+00    1.011057e+00
  1.020193e+00    1.158760e+00
  1.036069e+00    1.179542e+00
  1.051944e+00    1.163061e+00
  1.067820e+00    1.280468e+00
  1.083695e+00    1.497061e+00
  1.099571e+00    1.531699e+00
  1.115446e+00    1.571737e+00
  1.131322e+00    1.521300e+00
  1.147198e+00    1.515865e+00
  1.163073e+00    1.511208e+00
  1.178949e+00    1.560949e+00
  1.194824e+00    1.759244e+00
  1.210700e+00    1.894077e+00
  1.226575e+00    2.189371e+00
  1.242451e+00    2.352036e+00
  1.258327e+00    2.485744e+00
  1.274202e+00    2.434969e+00
  1.290078e+00    2.509063e+00
  1.305953e+00    2.659142e+00
  1.321829e+00    2.582996e+00
  1.337705e+00    2.547428e+00
  1.353580e+00    2.676651e+00
  1.369456e+00    2.752309e+00
  1.385331e+00    2.740687e+00
  1.401207e+00    2.667361e+00
  1.417082e+00    2.708961e+00
  1.432958e+00    2.750324e+00
  1.448834e+00    2.761124e+00
  1.464709e+00    2.867654e+00
  1.480585e+00    2.929299e+00
  1.496460e+00    2.987258e+00
  1.512336e+00    2.961213e+00
  1.528211e+00    3.173869e+00
  1.544087e+00    3.246639e+00
  1.559963e+00    3.172068e+00
  1.575838e+00    2.981420e+00
  1.591714e+00    3.034864e+00
  1.607589e+00    3.061837e+00
  1.623465e+00    3.104149e+00
  1.639340e+00    3.063663e+00
  1.655216e+00    2.902685e+00
  1.671092e+00    2.972578e+00
  1.686967e+00    2.894730e+00
  1.702843e+00    2.791728e+00
  1.718718e+00    2.879153e+00
  1.734594e+00    3.038871e+00
  1.750469e+00    2.881110e+00
  1.766345e+00    2.794984e+00
  1.782221e+00    2.999443e+00
  1.798096e+00    2.897225e+00
  1.813972e+00    2.806522e+00
  1.829847e+00    2.837578e+00
  1.845723e+00    2.956612e+00
  1.861598e+00    2.915344e+00
  1.877474e+00    2.914037e+00
  1.893350e+00    2.906090e+00
  1.909225e+00    2.826488e+00
  1.925101e+00    2.820042e+00
  1.940976e+00    2.808330e+00
  1.956852e+00    2.798030e+00
  1.972727e+00    2.837412e+00
  1.988603e+00    2.944470e+00
  2.004479e+00    2.912969e+00
  2.020354e+00    2.903297e+00
  2.036230e+00    2.932330e+00
  2.052105e+00    2.846262e+00
  2.067981e+00    2.731720e+00
  2.083856e+00    2.847852e+00
  2.099732e+00    2.882156e+00
  2.115608e+00    2.820433e+00
  2.131483e+00    2.828141e+00
  2.147359e+00    2.727131e+00
  2.163234e+00    2.679780e+00
  2.179110e+00    2.800220e+00
  2.194985e+00    2.755263e+00
  2.210861e+00    2.847220e+00
  2.226737e+00    2.907164e+00
  2.242612e+00    2.959036e+00
  2.258488e+00    2.882220e+00
  2.274363e+00    2.816525e+00
  2.290239e+00    2.806949e+00
  2.306115e+00    2.855647e+00
  2.321990e+00    2.916503e+00
  2.337866e+00    2.849182e+00
  2.353741e+00    2.811574e+00
  2.369617e+00    2.863983e+00
  2.385492e+00    2.941633e+00
  2.401368e+00    2.846578e+00
  2.417244e+00    2.774199e+00
  2.433119e+00    2.793083e+00
  2.448995e+00    2.881116e+00
  2.464870e+00    2.857511e+00
  2.480746e+00    2.821625e+00
  2.496621e+00    2.865324e+00
  2.512497e+00    2.881043e+00
  2.528373e+00    2.870093e+00
  2.544248e+00    2.778999e+00
  2.560124e+00    2.856589e+00
  2.575999e+00    2.862920e+00
  2.591875e+00    2.900448e+00
  2.607750e+00    2.863098e+00
  2.623626e+00    2.802626e+00
  2.639502e+00    2.852924e+00
  2.655377e+00    2.937256e+00
  2.671253e+00    2.968609e+00
  2.687128e+00    2.884374e+00
  2.703004e+00    2.763698e+00
  2.718879e+00    2.889208e+00
  2.734755e+00    2.939316e+00
  2.750631e+00    2.956314e+00
  2.766506e+00    2.967001e+00
  2.782382e+00    2.887002e+00
  2.798257e+00    2.897073e+00
  2.814133e+00    2.870341e+00
  2.830008e+00    2.865414e+00
  2.845884e+00    2.851676e+00
  2.861760e+00    2.931216e+00
  2.877635e+00    2.952405e+00
  2.893511e+00    2.862340e+00
  2.909386e+00    2.871069e+00
  2.925262e+00    2.908496e+00
  2.941137e+00    2.900719e+00
  2.957013e+00    2.959921e+00
  2.972889e+00    2.948596e+00
  2.988764e+00    2.865000e+00
  3.004640e+00    2.877432e+00
  3.020515e+00    2.941004e+00
  3.036391e+00    2.964994e+00
  3.052266e+00    2.971679e+00
  3.068142e+00    2.921033e+00
  3.084018e+00    2.926988e+00
  3.099893e+00    2.908921e+00
  3.115769e+00    2.818734e+00
  3.131644e+00    2.844709e+00
  3.147520e+00    2.898265e+00
  3.163395e+00    2.981307e+00
  3.179271e+00    2.927212e+00
  3.195147e+00    2.968406e+00
  3.211022e+00    2.940829e+00
  3.226898e+00    2.897272e+00
  3.242773e+00    2.883415e+00
  3.258649e+00    2.918990e+00
  3.274525e+00    3.017296e+00
  3.290400e+00    2.912652e+00
  3.306276e+00    2.910960e+00
  3.322151e+00    2.993341e+00
  3.338027e+00    3.111842e+00
  3.353902e+00    3.020902e+00
  3.369778e+00    2.907890e+00
  3.385654e+00    2.902087e+00
  3.401529e+00    2.954746e+00
  3.417405e+00    2.979406e+00
  3.433280e+00    2.959737e+00
  3.449156e+00    2.962738e+00
  3.465031e+00    2.994569e+00
  3.480907e+00    2.925451e+00
  3.496783e+00    2.935009e+00
  3.512658e+00    2.964589e+00
  3.528534e+00    3.041258e+00
  3.544409e+00    2.995164e+00
  3.560285e+00    2.984761e+00
  3.576160e+00    3.033317e+00
  3.592036e+00    3.029652e+00
  3.607912e+00    3.030337e+00
  3.623787e+00    3.049143e+00
  3.639663e+00    2.941723e+00
  3.655538e+00    3.016290e+00
  3.671414e+00    2.999650e+00
  3.687289e+00    2.946748e+00
  3.703165e+00    2.991904e+00
  3.719041e+00    3.080471e+00
  3.734916e+00    3.051005e+00
  3.750792e+00    2.986864e+00
  3.766667e+00    2.983559e+00
  3.782543e+00    3.046792e+00
  3.798418e+00    3.042754e+00
  3.814294e+00    3.029634e+00
  3.830170e+00    3.076009e+00
  3.846045e+00    3.048438e+00
  3.861921e+00    2.989283e+00
  3.877796e+00    3.046897e+00
  3.893672e+00    3.082421e+00
  3.909547e+00    3.024128e+00
  3.925423e+00    3.065440e+00
  3.941299e+00    3.042543e+00
  3.957174e+00    3.028841e+00
  3.973050e+00    3.113666e+00
  3.988925e+00    3.045451e+00
  4.004801e+00    3.062823e+00
  4.020676e+00    3.060367e+00
  4.036552e+00    2.997503e+00
  4.052428e+00    3.041172e+00
  4.068303e+00    3.017247e+00
  4.084179e+00    2.996213e+00
  4.100054e+00    2.941838e+00
  4.115930e+00    3.000693e+00
  4.131806e+00    3.085755e+00
  4.147681e+00    3.094247e+00
  4.163557e+00    3.033511e+00
  4.179432e+00    3.060486e+00
  4.195308e+00    3.110272e+00
  4.211183e+00    3.049489e+00
  4.227059e+00    3.056962e+00
  4.242935e+00    3.050132e+00
  4.258810e+00    3.043476e+00
  4.274686e+00    3.101897e+00
  4.290561e+00    3.162379e+00
  4.306437e+00    3.183121e+00
  4.322312e+00    3.125765e+00
  4.338188e+00    3.078780e+00
  4.354064e+00    3.017985e+00
  4.369939e+00    3.072338e+00
  4.385815e+00    3.107604e+00
  4.401690e+00    3.098007e+00
  4.417566e+00    3.037702e+00
  4.433441e+00    3.062641e+00
  4.449317e+00    3.087159e+00
  4.465193e+00    3.113305e+00
  4.481068e+00    3.050431e+00
  4.496944e+00    2.988535e+00
  4.512819e+00    3.159080e+00
  4.528695e+00    3.156177e+00
  4.544570e+00    3.133372e+00
  4.560446e+00    3.154843e+00
  4.576322e+00    3.169171e+00
  4.592197e+00    3.150055e+00
  4.608073e+00    3.086460e+00
  4.623948e+00    3.088524e+00
  4.639824e+00    3.061731e+00
  4.655699e+00    3.109212e+00
  4.671575e+00    3.163568e+00
  4.687451e+00    3.121846e+00
  4.703326e+00    3.189992e+00
  4.719202e+00    3.185668e+00
  4.735077e+00    3.097775e+00
  4.750953e+00    3.079584e+00
  4.766828e+00    3.143823e+00
  4.782704e+00    3.135579e+00
  4.798580e+00    3.106167e+00
  4.814455e+00    3.128251e+00
  4.830331e+00    3.188349e+00
  4.846206e+00    3.239809e+00
  4.862082e+00    3.140879e+00
  4.877957e+00    3.104617e+00
  4.893833e+00    3.215926e+00
  4.909709e+00    3.150451e+00
  4.925584e+00    3.118580e+00
  4.941460e+00    3.119580e+00
  4.957335e+00    3.159492e+00
  4.973211e+00    3.094882e+00
  4.989086e+00    3.198856e+00
  5.004962e+00    3.120386e+00
  5.020838e+00    3.124212e+00
  5.036713e+00    3.172937e+00
  5.052589e+00    3.111450e+00
  5.068464e+00    3.089294e+00
  5.084340e+00    3.065893e+00
  5.100216e+00    3.104494e+00
  5.116091e+00    3.158139e+00
  5.131967e+00    3.167810e+00
  5.147842e+00    3.134997e+00
  5.163718e+00    3.161811e+00
  5.179593e+00    3.162043e+00
  5.195469e+00    3.149662e+00
  5.211345e+00    3.182486e+00
  5.227220e+00    3.142727e+00
  5.243096e+00    3.142628e+00
  5.258971e+00    3.154042e+00
  5.274847e+00    3.135214e+00
  5.290722e+00    3.134746e+00
  5.306598e+00    3.178131e+00
  5.322474e+00    3.213610e+00
  5.338349e+00    3.251750e+00
  5.354225e+00    3.236003e+00
  5.370100e+00    3.186102e+00
  5.385976e+00    3.102894e+00
  5.401851e+00    3.170411e+00
  5.417727e+00    3.159972e+00
  5.433603e+00    3.117548e+00
  5.449478e+00    3.171150e+00
  5.465354e+00    3.086172e+00
  5.481229e+00    3.055929e+00
  5.497105e+00    3.130100e+00
  5.512980e+00    3.140805e+00
  5.528856e+00    3.147308e+00
  5.544732e+00    3.124626e+00
  5.560607e+00    3.195180e+00
  5.576483e+00    3.197949e+00
  5.592358e+00    3.158018e+00
  5.608234e+00    3.197590e+00
  5.624109e+00    3.175913e+00
  5.639985e+00    3.209849e+00
  5.655861e+00    3.192301e+00
  5.671736e+00    3.147186e+00
  5.687612e+00    3.075951e+00
  5.703487e+00    3.068328e+00
  5.719363e+00    3.134856e+00
  5.735238e+00    3.136384e+00
  5.751114e+00    3.070104e+00
  5.766990e+00    3.087449e+00
  5.782865e+00    3.058919e+00
  5.798741e+00    3.089499e+00
  5.814616e+00    3.073964e+00
  5.830492e+00    3.053456e+00
  5.846367e+00    3.019087e+00
  5.862243e+00    3.112761e+00
  5.878119e+00    3.143561e+00
  5.893994e+00    3.071374e+00
  5.909870e+00    3.000689e+00
  5.925745e+00    3.071145e+00
  5.941621e+00    3.055739e+00
  5.957497e+00    3.098532e+00
  5.973372e+00    3.081946e+00
  5.989248e+00    3.090622e+00
  6.005123e+00    2.995805e+00
  6.020999e+00    3.115125e+00
  6.036874e+00    3.116425e+00
  6.052750e+00    3.000946e+00
  6.068626e+00    3.052015e+00
  6.084501e+00    3.050189e+00
  6.100377e+00    3.159322e+00
  6.116252e+00    3.128086e+00
  6.132128e+00    3.051471e+00
  6.148003e+00    3.107322e+00
  6.163879e+00    3.107982e+00
  6.179755e+00    3.039071e+00
  6.195630e+00    3.102182e+00
  6.211506e+00    3.153302e+00
  6.227381e+00    3.081261e+00
  6.243257e+00    3.029238e+00
  6.259132e+00    3.086442e+00
  6.275008e+00    3.071275e+00
  6.290884e+00    3.025420e+00
  6.306759e+00    3.089376e+00
  6.322635e+00    3.121851e+00
  6.338510e+00    3.052738e+00
  6.354386e+00    3.050661e+00
  6.370261e+00    3.060896e+00
  6.386137e+00    3.103620e+00
  6.402013e+00    3.125658e+00
  6.417888e+00    3.081150e+00
  6.433764e+00    3.092785e+00
  6.449639e+00    3.080346e+00
  6.465515e+00    3.102317e+00
  6.481390e+00    3.093177e+00
  6.497266e+00    3.075515e+00
  6.513142e+00    3.141022e+00
  6.529017e+00    3.024577e+00
  6.544893e+00    3.078021e+00
  6.560768e+00    3.117071e+00
  6.576644e+00    3.111030e+00
  6.592519e+00    3.112681e+00
  6.608395e+00    3.037408e+00
  6.624271e+00    3.041484e+00
  6.640146e+00    3.061353e+00
  6.656022e+00    3.107319e+00
  6.671897e+00    3.032122e+00
  6.687773e+00    3.032762e+00
  6.703648e+00    3.064451e+00
  6.719524e+00    3.087376e+00
  6.735400e+00    3.065719e+00
  6.751275e+00    3.021489e+00
  6.767151e+00    3.062273e+00
  6.783026e+00    3.080724e+00
  6.798902e+00    3.036610e+00
  6.814777e+00    3.028552e+00
  6.830653e+00    3.062080e+00
  6.846529e+00    3.121942e+00
  6.862404e+00    3.119787e+00
  6.878280e+00    3.067337e+00
  6.894155e+00    3.051353e+00
  6.910031e+00    3.065428e+00
  6.925907e+00    3.144364e+00
  6.941782e+00    3.152261e+00
  6.957658e+00    3.178597e+00
  6.973533e+00    3.031001e+00
  6.989409e+00    2.987194e+00
  7.005284e+00    3.057641e+00
  7.021160e+00    3.086900e+00
  7.037036e+00    3.005091e+00
  7.052911e+00    2.961674e+00
  7.068787e+00    3.032421e+00
  7.084662e+00    2.999868e+00
  7.100538e+00    3.068180e+00
  7.116413e+00    3.115829e+00
  7.132289e+00    3.068248e+00
  7.148165e+00    3.060854e+00
  7.164040e+00    3.009201e+00
  7.179916e+00    2.994877e+00
  7.195791e+00    3.043225e+00
  7.211667e+00    3.092550e+00
  7.227542e+00    3.011894e+00
  7.243418e+00    3.028931e+00
  7.259294e+00    3.019010e+00
  7.275169e+00    3.058093e+00
  7.291045e+00    3.107852e+00
  7.306920e+00    3.095433e+00
  7.322796e+00    3.054379e+00
  7.338671e+00    3.026837e+00
  7.354547e+00    2.985259e+00
  7.370423e+00    2.981584e+00
  7.386298e+00    2.987683e+00
  7.402174e+00    2.967291e+00
  7.418049e+00    3.053289e+00
  7.433925e+00    3.051441e+00
  7.449800e+00    2.978086e+00
  7.465676e+00    3.028926e+00
  7.481552e+00    3.015593e+00
  7.497427e+00    3.036159e+00
  7.513303e+00    3.053709e+00
  7.529178e+00    3.008925e+00
  7.545054e+00    2.956386e+00
  7.560929e+00    3.006145e+00
  7.576805e+00    2.983496e+00
  7.592681e+00    2.897595e+00
  7.608556e+00    2.936894e+00
  7.624432e+00    2.988333e+00
  7.640307e+00    2.991379e+00
  7.656183e+00    2.932679e+00
  7.672058e+00    2.928859e+00
  7.687934e+00    2.997632e+00
  7.703810e+00    2.973786e+00
  7.719685e+00    3.014124e+00
  7.735561e+00    2.976937e+00
  7.751436e+00    3.068440e+00
  7.767312e+00    3.044750e+00
  7.783187e+00    2.997262e+00
  7.799063e+00    3.000087e+00
  7.814939e+00    2.975881e+00
  7.830814e+00    2.897369e+00
  7.846690e+00    2.914062e+00
  7.862565e+00    2.982484e+00
  7.878441e+00    2.967352e+00
  7.894317e+00    2.933970e+00
  7.910192e+00    2.934148e+00
  7.926068e+00    2.964002e+00
  7.941943e+00    2.954071e+00
  7.957819e+00    2.952570e+00
  7.973694e+00    2.903037e+00
  7.989570e+00    2.967429e+00
  8.005446e+00    2.959601e+00
  8.021321e+00    2.920245e+00
  8.037197e+00    2.920169e+00
  8.053072e+00    2.953852e+00
  8.068948e+00    2.957856e+00
  8.084823e+00    2.980631e+00
  8.100699e+00    3.017716e+00
  8.116575e+00    3.000964e+00
  8.132450e+00    3.016250e+00
  8.148326e+00    3.035621e+00
  8.164201e+00    2.985038e+00
  8.180077e+00    2.971386e+00
  8.195952e+00    3.001017e+00
  8.211828e+00    2.965127e+00
  8.227704e+00    2.999800e+00
  8.243579e+00    3.000734e+00
  8.259455e+00    3.035532e+00
  8.275330e+00    2.979207e+00
  8.291206e+00    2.939031e+00
  8.307081e+00    2.943503e+00
  8.322957e+00    2.939016e+00
  8.338833e+00    3.005191e+00
  8.354708e+00    3.009223e+00
  8.370584e+00    2.959697e+00
  8.386459e+00    2.984206e+00
  8.402335e+00    2.990551e+00
  8.418210e+00    2.916509e+00
  8.434086e+00    2.864778e+00
  8.449962e+00    2.949594e+00
  8.465837e+00    2.957129e+00
  8.481713e+00    2.910554e+00
  8.497588e+00    2.918616e+00
  8.513464e+00    2.872509e+00
  8.529339e+00    2.814357e+00
  8.545215e+00    2.870216e+00
  8.561091e+00    2.929163e+00
  8.576966e+00    2.899105e+00
  8.592842e+00    2.923228e+00
  8.608717e+00    2.907068e+00
  8.624593e+00    2.900106e+00
  8.640468e+00    2.877473e+00
  8.656344e+00    2.929108e+00
  8.672220e+00    2.915200e+00
  8.688095e+00    2.915551e+00
  8.703971e+00    2.893898e+00
  8.719846e+00    2.880026e+00
  8.735722e+00    2.886398e+00
  8.751598e+00    2.902449e+00
  8.767473e+00    2.864193e+00
  8.783349e+00    2.893995e+00
  8.799224e+00    2.875553e+00
  8.815100e+00    2.951477e+00
  8.830975e+00    2.901864e+00
  8.846851e+00    2.870863e+00
  8.862727e+00    2.880180e+00
  8.878602e+00    2.873086e+00
  8.894478e+00    2.793856e+00
  8.910353e+00    2.805423e+00
  8.926229e+00    2.852790e+00
  8.942104e+00    2.815214e+00
  8.957980e+00    2.874775e+00
  8.973856e+00    2.888578e+00
  8.989731e+00    2.872212e+00
  9.005607e+00    2.910765e+00
  9.021482e+00    2.887158e+00
  9.037358e+00    2.868435e+00
  9.053233e+00    2.873128e+00
  9.069109e+00    2.834547e+00
  9.084985e+00    2.805161e+00
  9.100860e+00    2.834609e+00
  9.116736e+00    2.840111e+00
  9.132611e+00    2.836265e+00
  9.148487e+00    2.850427e+00
  9.164362e+00    2.837993e+00
  9.180238e+00    2.778099e+00
  9.196114e+00    2.777506e+00
  9.211989e+00    2.808059e+00
  9.227865e+00    2.808809e+00
  9.243740e+00    2.835258e+00
  9.259616e+00    2.842628e+00
  9.275491e+00    2.829016e+00
  9.291367e+00    2.813976e+00
  9.307243e+00    2.814761e+00
  9.323118e+00    2.844323e+00
  9.338994e+00    2.787933e+00
  9.354869e+00    2.737831e+00
  9.370745e+00    2.782861e+00
  9.386620e+00    2.817694e+00
  9.402496e+00    2.826401e+00
  9.418372e+00    2.850854e+00
  9.434247e+00    2.814914e+00
  9.450123e+00    2.838266e+00
  9.465998e+00    2.888836e+00
  9.481874e+00    2.816504e+00
  9.497749e+00    2.760485e+00
  9.513625e+00    2.766702e+00
  9.529501e+00    2.766551e+00
  9.545376e+00    2.735738e+00
  9.561252e+00    2.777985e+00
  9.577127e+00    2.809319e+00
  9.593003e+00    2.778984e+00
  9.608878e+00    2.762981e+00
  9.624754e+00    2.769150e+00
  9.640630e+00    2.852566e+00
  9.656505e+00    2.831388e+00
  9.672381e+00    2.820511e+00
  9.688256e+00    2.843608e+00
  9.704132e+00    2.793207e+00
  9.720008e+00    2.798856e+00
  9.735883e+00    2.785844e+00
  9.751759e+00    2.787218e+00
  9.767634e+00    2.777471e+00
  9.783510e+00    2.771101e+00
  9.799385e+00    2.762736e+00
  9.815261e+00    2.715596e+00
  9.831137e+00    2.759759e+00
  9.847012e+00    2.821237e+00
  9.862888e+00    2.778539e+00
  9.878763e+00    2.729877e+00
  9.894639e+00    2.738589e+00
  9.910514e+00    2.689455e+00
  9.926390e+00    2.683279e+00
  9.942266e+00    2.682204e+00
  9.958141e+00    2.648753e+00
  9.974017e+00    2.691107e+00
  9.989892e+00    2.716183e+00
  1.000577e+01    2.721610e+00
  1.002164e+01    2.741092e+00
  1.003752e+01    2.715895e+00
  1.005339e+01    2.722641e+00
  1.006927e+01    2.690754e+00
  1.008515e+01    2.656573e+00
  1.010102e+01    2.649035e+00
  1.011690e+01    2.679286e+00
  1.013277e+01    2.659855e+00
  1.014865e+01    2.654015e+00
  1.016452e+01    2.646571e+00
  1.018040e+01    2.662490e+00
  1.019627e+01    2.656463e+00
  1.021215e+01    2.651681e+00
  1.022803e+01    2.637111e+00
  1.024390e+01    2.652817e+00
  1.025978e+01    2.664227e+00
  1.027565e+01    2.676392e+00
  1.029153e+01    2.678843e+00
  1.030740e+01    2.625769e+00
  1.032328e+01    2.651688e+00
  1.033915e+01    2.670923e+00
  1.035503e+01    2.660727e+00
  1.037091e+01    2.645547e+00
  1.038678e+01    2.637963e+00
  1.040266e+01    2.656902e+00
  1.041853e+01    2.632013e+00
  1.043441e+01    2.613981e+00
  1.045028e+01    2.657588e+00
  1.046616e+01    2.691477e+00
  1.048204e+01    2.642632e+00
  1.049791e+01    2.580130e+00
  1.051379e+01    2.629640e+00
  1.052966e+01    2.629160e+00
  1.054554e+01    2.595505e+00
  1.056141e+01    2.576210e+00
  1.057729e+01    2.609144e+00
  1.059316e+01    2.605778e+00
  1.060904e+01    2.605937e+00
  1.062492e+01    2.629091e+00
  1.064079e+01    2.646796e+00
  1.065667e+01    2.648422e+00
  1.067254e+01    2.631579e+00
  1.068842e+01    2.598832e+00
  1.070429e+01    2.624067e+00
  1.072017e+01    2.573034e+00
  1.073604e+01    2.562429e+00
  1.075192e+01    2.616833e+00
  1.076780e+01    2.535599e+00
  1.078367e+01    2.531180e+00
  1.079955e+01    2.566685e+00
  1.081542e+01    2.560493e+00
  1.083130e+01    2.543931e+00
  1.084717e+01    2.550668e+00
  1.086305e+01    2.551685e+00
  1.087892e+01    2.569820e+00
  1.089480e+01    2.578943e+00
  1.091068e+01    2.570734e+00
  1.092655e+01    2.536992e+00
  1.094243e+01    2.541084e+00
  1.095830e+01    2.553241e+00
  1.097418e+01    2.519756e+00
  1.099005e+01    2.515329e+00
  1.100593e+01    2.587797e+00
  1.102180e+01    2.575369e+00
  1.103768e+01    2.515833e+00
  1.105356e+01    2.529105e+00
  1.106943e+01    2.542907e+00
  1.108531e+01    2.541387e+00
  1.110118e+01    2.443269e+00
  1.111706e+01    2.434256e+00
  1.113293e+01    2.506240e+00
  1.114881e+01    2.530473e+00
  1.116468e+01    2.548613e+00
  1.118056e+01    2.547422e+00
  1.119644e+01    2.489505e+00
  1.121231e+01    2.527528e+00
  1.122819e+01    2.527409e+00
  1.124406e+01    2.477283e+00
  1.125994e+01    2.462889e+00
  1.127581e+01    2.491576e+00
  1.129169e+01    2.511274e+00
  1.130756e+01    2.450541e+00
  1.132344e+01    2.440259e+00
  1.133932e+01    2.442392e+00
  1.135519e+01    2.429940e+00
  1.137107e+01    2.453052e+00
  1.138694e+01    2.416165e+00
  1.140282e+01    2.441125e+00
  1.141869e+01    2.486341e+00
  1.143457e+01    2.482444e+00
  1.145045e+01    2.464436e+00
  1.146632e+01    2.463190e+00
  1.148220e+01    2.442617e+00
  1.149807e+01    2.429171e+00
  1.151395e+01    2.432530e+00
  1.152982e+01    2.430964e+00
  1.154570e+01    2.384022e+00
  1.156157e+01    2.377557e+00
  1.157745e+01    2.419182e+00
  1.159333e+01    2.436386e+00
  1.160920e+01    2.441547e+00
  1.162508e+01    2.454345e+00
  1.164095e+01    2.392214e+00
  1.165683e+01    2.387633e+00
  1.167270e+01    2.464463e+00
  1.168858e+01    2.396439e+00
  1.170445e+01    2.406369e+00
  1.172033e+01    2.414253e+00
  1.173621e+01    2.443390e+00
  1.175208e+01    2.393520e+00
  1.176796e+01    2.338280e+00
  1.178383e+01    2.389605e+00
  1.179971e+01    2.419705e+00
  1.181558e+01    2.370040e+00
  1.183146e+01    2.391596e+00
  1.184733e+01    2.399795e+00
  1.186321e+01    2.448423e+00
  1.187909e+01    2.379970e+00
  1.189496e+01    2.390911e+00
  1.191084e+01    2.375555e+00
  1.192671e+01    2.350528e+00
  1.194259e+01    2.418306e+00
  1.195846e+01    2.350324e+00
  1.197434e+01    2.345401e+00
  1.199021e+01    2.357938e+00
  1.200609e+01    2.341110e+00
  1.202197e+01    2.342979e+00
  1.203784e+01    2.313996e+00
  1.205372e+01    2.364175e+00
  1.206959e+01    2.410813e+00
  1.208547e+01    2.382077e+00
  1.210134e+01    2.373393e+00
  1.211722e+01    2.392897e+00
  1.213309e+01    2.398798e+00
  1.214897e+01    2.372912e+00
  1.216485e+01    2.360086e+00
  1.218072e+01    2.321292e+00
  1.219660e+01    2.374646e+00
  1.221247e+01    2.400277e+00
  1.222835e+01    2.360715e+00
  1.224422e+01    2.406964e+00
  1.226010e+01    2.451949e+00
  1.227597e+01    2.430086e+00
  1.229185e+01    2.372695e+00
  1.230773e+01    2.374213e+00
  1.232360e+01    2.376420e+00
  1.233948e+01    2.359993e+00
  1.235535e+01    2.386724e+00
  1.237123e+01    2.408353e+00
  1.238710e+01    2.386693e+00
  1.240298e+01    2.412320e+00
  1.241886e+01    2.336169e+00
  1.243473e+01    2.352520e+00
  1.245061e+01    2.324126e+00
  1.246648e+01    2.350104e+00
  1.248236e+01    2.376564e+00
  1.249823e+01    2.389552e+00
  1.251411e+01    2.398870e+00
  1.252998e+01    2.413759e+00
  1.254586e+01    2.404959e+00
  1.256174e+01    2.413817e+00
  1.257761e+01    2.430329e+00
  1.259349e+01    2.424169e+00
  1.260936e+01    2.432913e+00
  1.262524e+01    2.455250e+00
  1.264111e+01    2.468033e+00
  1.265699e+01    2.466008e+00
  1.267286e+01    2.457059e+00
  1.268874e+01    2.488496e+00
  1.270462e+01    2.525761e+00
  1.272049e+01    2.569458e+00
  1.273637e+01    2.576774e+00
  1.275224e+01    2.620003e+00
  1.276812e+01    2.642376e+00
  1.278399e+01    2.662691e+00
  1.279987e+01    2.700918e+00
  1.281574e+01    2.787661e+00
  1.283162e+01    2.793655e+00
  1.284750e+01    2.828005e+00
  1.286337e+01    2.933076e+00
  1.287925e+01    3.023116e+00
  1.289512e+01    3.132774e+00
  1.291100e+01    3.338964e+00
  1.292687e+01    3.439972e+00
  1.294275e+01    3.664441e+00
  1.295862e+01    3.933144e+00
  1.297450e+01    4.264008e+00
  1.299038e+01    4.677533e+00
  1.300625e+01    5.183037e+00
  1.302213e+01    5.823850e+00
  1.303800e+01    6.623971e+00
  1.305388e+01    7.709773e+00
  1.306975e+01    8.922482e+00
  1.308563e+01    1.043314e+01
  1.310150e+01    1.201472e+01
  1.311738e+01    1.354354e+01
  1.313326e+01    1.500868e+01
  1.314913e+01    1.650850e+01
  1.316501e+01    1.801051e+01
  1.318088e+01    1.933216e+01
  1.319676e+01    2.014049e+01
  1.321263e+01    1.997467e+01
  1.322851e+01    1.877896e+01
  1.324438e+01    1.693965e+01
  1.326026e+01    1.466370e+01
  1.327614e+01    1.234967e+01
  1.329201e+01    1.033573e+01
  1.330789e+01    8.684036e+00
  1.332376e+01    7.445382e+00
  1.333964e+01    6.459611e+00
  1.335551e+01    5.658130e+00
  1.337139e+01    5.012990e+00
  1.338727e+01    4.566812e+00
  1.340314e+01    4.177159e+00
  1.341902e+01    3.893055e+00
  1.343489e+01    3.642019e+00
  1.345077e+01    3.432904e+00
  1.346664e+01    3.256595e+00
  1.348252e+01    3.118691e+00
  1.349839e+01    2.992789e+00
  1.351427e+01    2.922510e+00
  1.353015e+01    2.818450e+00
  1.354602e+01    2.756173e+00
  1.356190e+01    2.655012e+00
  1.357777e+01    2.606055e+00
  1.359365e+01    2.546496e+00
  1.360952e+01    2.495715e+00
  1.362540e+01    2.460242e+00
  1.364127e+01    2.457867e+00
  1.365715e+01    2.415389e+00
  1.367303e+01    2.413356e+00
  1.368890e+01    2.423208e+00
  1.370478e+01    2.352663e+00
  1.372065e+01    2.289432e+00
  1.373653e+01    2.268056e+00
  1.375240e+01    2.235362e+00
  1.376828e+01    2.269412e+00
  1.378415e+01    2.240920e+00
  1.380003e+01    2.206438e+00
  1.381591e+01    2.204525e+00
  1.383178e+01    2.237466e+00
  1.384766e+01    2.185751e+00
  1.386353e+01    2.209136e+00
  1.387941e+01    2.148678e+00
  1.389528e+01    2.123962e+00
  1.391116e+01    2.154436e+00
  1.392703e+01    2.140977e+00
  1.394291e+01    2.142828e+00
  1.395879e+01    2.127323e+00
  1.397466e+01    2.118066e+00
  1.399054e+01    2.102610e+00
  1.400641e+01    2.096711e+00
  1.402229e+01    2.094237e+00
  1.403816e+01    2.115447e+00
  1.405404e+01    2.087735e+00
  1.406991e+01    2.078194e+00
  1.408579e+01    2.068324e+00
  1.410167e+01    2.065574e+00
  1.411754e+01    2.070831e+00
  1.413342e+01    2.044236e+00
  1.414929e+01    2.067207e+00
  1.416517e+01    2.069774e+00
  1.418104e+01    2.010982e+00
  1.419692e+01    2.030601e+00
  1.421279e+01    2.066797e+00
  1.422867e+01    2.042079e+00
  1.424455e+01    2.034871e+00
  1.426042e+01    2.010322e+00
  1.427630e+01    1.978541e+00
  1.429217e+01    2.012582e+00
  1.430805e+01    1.963237e+00
  1.432392e+01    2.004723e+00
  1.433980e+01    2.053099e+00
  1.435568e+01    2.008989e+00
  1.437155e+01    1.977715e+00
  1.438743e+01    1.985692e+00
  1.440330e+01    1.965282e+00
  1.441918e+01    1.981268e+00
  1.443505e+01    1.968301e+00
  1.445093e+01    1.954505e+00
  1.446680e+01    1.954788e+00
  1.448268e+01    1.945366e+00
  1.449856e+01    1.943576e+00
  1.451443e+01    1.952481e+00
  1.453031e+01    1.929538e+00
  1.454618e+01    1.937740e+00
  1.456206e+01    1.958909e+00
  1.457793e+01    1.923856e+00
  1.459381e+01    1.958153e+00
  1.460968e+01    1.937152e+00
  1.462556e+01    1.931334e+00
  1.464144e+01    1.890022e+00
  1.465731e+01    1.926084e+00
  1.467319e+01    1.914256e+00
  1.468906e+01    1.897444e+00
  1.470494e+01    1.950964e+00
  1.472081e+01    1.957758e+00
  1.473669e+01    1.930570e+00
  1.475256e+01    1.970867e+00
  1.476844e+01    1.948359e+00
  1.478432e+01    1.947865e+00
  1.480019e+01    1.960883e+00
  1.481607e+01    1.915974e+00
  1.483194e+01    1.967818e+00
  1.484782e+01    2.000905e+00
  1.486369e+01    1.976099e+00
  1.487957e+01    1.928577e+00
  1.489544e+01    1.972635e+00
  1.491132e+01    2.010056e+00
  1.492720e+01    2.008642e+00
  1.494307e+01    2.020178e+00
  1.495895e+01    2.071377e+00
  1.497482e+01    2.065010e+00
  1.499070e+01    2.099792e+00
  1.500657e+01    2.182366e+00
  1.502245e+01    2.225426e+00
  1.503832e+01    2.267325e+00
  1.505420e+01    2.358212e+00
  1.507008e+01    2.449074e+00
  1.508595e+01    2.560227e+00
  1.510183e+01    2.723322e+00
  1.511770e+01    2.931578e+00
  1.513358e+01    3.190736e+00
  1.514945e+01    3.513482e+00
  1.516533e+01    3.907803e+00
  1.518120e+01    4.384090e+00
  1.519708e+01    4.851659e+00
  1.521296e+01    5.255365e+00
  1.522883e+01    5.691931e+00
  1.524471e+01    6.063147e+00
  1.526058e+01    6.313863e+00
  1.527646e+01    6.545049e+00
  1.529233e+01    6.723705e+00
  1.530821e+01    6.700936e+00
  1.532409e+01    6.362577e+00
  1.533996e+01    5.836995e+00
  1.535584e+01    5.205264e+00
  1.537171e+01    4.641742e+00
  1.538759e+01    4.060236e+00
  1.540346e+01    3.568222e+00
  1.541934e+01    3.259905e+00
  1.543521e+01    2.946247e+00
  1.545109e+01    2.795374e+00
  1.546697e+01    2.577357e+00
  1.548284e+01    2.402987e+00
  1.549872e+01    2.341157e+00
  1.551459e+01    2.250544e+00
  1.553047e+01    2.163391e+00
  1.554634e+01    2.089311e+00
  1.556222e+01    2.025174e+00
  1.557809e+01    1.996758e+00
  1.559397e+01    1.964479e+00
  1.560985e+01    1.935222e+00
  1.562572e+01    1.933164e+00
  1.564160e+01    1.902141e+00
  1.565747e+01    1.843429e+00
  1.567335e+01    1.812430e+00
  1.568922e+01    1.823928e+00
  1.570510e+01    1.785498e+00
  1.572097e+01    1.781296e+00
  1.573685e+01    1.773820e+00
  1.575273e+01    1.757702e+00
  1.576860e+01    1.731422e+00
  1.578448e+01    1.722020e+00
  1.580035e+01    1.753239e+00
  1.581623e+01    1.740103e+00
  1.583210e+01    1.740753e+00
  1.584798e+01    1.699077e+00
  1.586385e+01    1.688104e+00
  1.587973e+01    1.701047e+00
  1.589561e+01    1.678626e+00
  1.591148e+01    1.695164e+00
  1.592736e+01    1.689468e+00
  1.594323e+01    1.654722e+00
  1.595911e+01    1.683204e+00
  1.597498e+01    1.658852e+00
  1.599086e+01    1.683957e+00
  1.600673e+01    1.633486e+00
  1.602261e+01    1.608848e+00
  1.603849e+01    1.630173e+00
  1.605436e+01    1.608421e+00
  1.607024e+01    1.642150e+00
  1.608611e+01    1.650745e+00
  1.610199e+01    1.615014e+00
  1.611786e+01    1.631393e+00
  1.613374e+01    1.624436e+00
  1.614961e+01    1.594965e+00
  1.616549e+01    1.618588e+00
  1.618137e+01    1.588590e+00
  1.619724e+01    1.584138e+00
  1.621312e+01    1.608127e+00
  1.622899e+01    1.613514e+00
  1.624487e+01    1.584921e+00
  1.626074e+01    1.593870e+00
  1.627662e+01    1.584602e+00
  1.629250e+01    1.591733e+00
  1.630837e+01    1.572099e+00
  1.632425e+01    1.566399e+00
  1.634012e+01    1.551899e+00
  1.635600e+01    1.563100e+00
  1.637187e+01    1.564580e+00
  1.638775e+01    1.566642e+00
  1.640362e+01    1.547706e+00
  1.641950e+01    1.563067e+00
  1.643538e+01    1.553073e+00
  1.645125e+01    1.513735e+00
  1.646713e+01    1.505571e+00
  1.648300e+01    1.555737e+00
  1.649888e+01    1.555928e+00
  1.651475e+01    1.523973e+00
  1.653063e+01    1.516285e+00
  1.654650e+01    1.527074e+00
  1.656238e+01    1.518742e+00
  1.657826e+01    1.508326e+00
  1.659413e+01    1.529719e+00
  1.661001e+01    1.548856e+00
  1.662588e+01    1.558056e+00
  1.664176e+01    1.530165e+00
  1.665763e+01    1.528427e+00
  1.667351e+01    1.506462e+00
  1.668938e+01    1.538807e+00
  1.670526e+01    1.517280e+00
  1.672114e+01    1.507962e+00
  1.673701e+01    1.500456e+00
  1.675289e+01    1.506315e+00
  1.676876e+01    1.510858e+00
  1.678464e+01    1.473037e+00
  1.680051e+01    1.469474e+00
  1.681639e+01    1.467816e+00
  1.683226e+01    1.492125e+00
  1.684814e+01    1.511796e+00
  1.686402e+01    1.506296e+00
  1.687989e+01    1.490489e+00
  1.689577e+01    1.483374e+00
  1.691164e+01    1.508692e+00
  1.692752e+01    1.497153e+00
  1.694339e+01    1.480606e+00
  1.695927e+01    1.475232e+00
  1.697514e+01    1.487757e+00
  1.699102e+01    1.464081e+00
  1.700690e+01    1.449932e+00
  1.702277e+01    1.446847e+00
  1.703865e+01    1.481704e+00
  1.705452e+01    1.476701e+00
  1.707040e+01    1.434914e+00
  1.708627e+01    1.401934e+00
  1.710215e+01    1.418888e+00
  1.711802e+01    1.455443e+00
  1.713390e+01    1.456295e+00
  1.714978e+01    1.438654e+00
  1.716565e+01    1.442868e+00
  1.718153e+01    1.448200e+00
  1.719740e+01    1.447658e+00
  1.721328e+01    1.427888e+00
  1.722915e+01    1.464157e+00
  1.724503e+01    1.418837e+00
  1.726091e+01    1.427999e+00
  1.727678e+01    1.418784e+00
  1.729266e+01    1.410057e+00
  1.730853e+01    1.396826e+00
  1.732441e+01    1.413796e+00
  1.734028e+01    1.434159e+00
  1.735616e+01    1.444910e+00
  1.737203e+01    1.394318e+00
  1.738791e+01    1.400039e+00
  1.740379e+01    1.399041e+00
  1.741966e+01    1.401715e+00
  1.743554e+01    1.421001e+00
  1.745141e+01    1.401266e+00
  1.746729e+01    1.379837e+00
  1.748316e+01    1.383204e+00
  1.749904e+01    1.378680e+00
  1.751491e+01    1.381574e+00
  1.753079e+01    1.391335e+00
  1.754667e+01    1.394489e+00
  1.756254e+01    1.388418e+00
  1.757842e+01    1.419554e+00
  1.759429e+01    1.390524e+00
  1.761017e+01    1.372497e+00
  1.762604e+01    1.392575e+00
  1.764192e+01    1.369170e+00
  1.765779e+01    1.352595e+00
  1.767367e+01    1.360576e+00
  1.768955e+01    1.362345e+00
  1.770542e+01    1.382748e+00
  1.772130e+01    1.362865e+00
  1.773717e+01    1.356440e+00
  1.775305e+01    1.365292e+00
  1.776892e+01    1.338336e+00
  1.778480e+01    1.351825e+00
  1.780067e+01    1.365666e+00
  1.781655e+01    1.357981e+00
  1.783243e+01    1.352272e+00
  1.784830e+01    1.363316e+00
  1.786418e+01    1.365928e+00
  1.788005e+01    1.384321e+00
  1.789593e+01    1.365563e+00
  1.791180e+01    1.330632e+00
  1.792768e+01    1.343453e+00
  1.794355e+01    1.354805e+00
  1.795943e+01    1.351089e+00
  1.797531e+01    1.377393e+00
  1.799118e+01    1.345497e+00
  1.800706e+01    1.352043e+00
  1.802293e+01    1.322824e+00
  1.803881e+01    1.354678e+00
  1.805468e+01    1.312664e+00
  1.807056e+01    1.313410e+00
  1.808643e+01    1.313502e+00
  1.810231e+01    1.307180e+00
  1.811819e+01    1.292370e+00
  1.813406e+01    1.299622e+00
  1.814994e+01    1.299227e+00
  1.816581e+01    1.326388e+00
  1.818169e+01    1.312416e+00
  1.819756e+01    1.311185e+00
  1.821344e+01    1.296019e+00
  1.822932e+01    1.310462e+00
  1.824519e+01    1.295390e+00
  1.826107e+01    1.310609e+00
  1.827694e+01    1.306804e+00
  1.829282e+01    1.305791e+00
  1.830869e+01    1.305850e+00
  1.832457e+01    1.273986e+00
  1.834044e+01    1.278064e+00
  1.835632e+01    1.274170e+00
  1.837220e+01    1.269495e+00
  1.838807e+01    1.277081e+00
  1.840395e+01    1.308129e+00
  1.841982e+01    1.277233e+00
  1.843570e+01    1.265701e+00
  1.845157e+01    1.294099e+00
  1.846745e+01    1.292809e+00
  1.848332e+01    1.303764e+00
  1.849920e+01    1.262426e+00
  1.851508e+01    1.257198e+00
  1.853095e+01    1.267985e+00
  1.854683e+01    1.262302e+00
  1.856270e+01    1.264696e+00
  1.857858e+01    1.253858e+00
  1.859445e+01    1.263937e+00
  1.861033e+01    1.284981e+00
  1.862620e+01    1.273361e+00
  1.864208e+01    1.258332e+00
  1.865796e+01    1.279749e+00
  1.867383e+01    1.263400e+00
  1.868971e+01    1.263770e+00
  1.870558e+01    1.245454e+00
  1.872146e+01    1.246331e+00
  1.873733e+01    1.243430e+00
  1.875321e+01    1.235582e+00
  1.876908e+01    1.240551e+00
  1.878496e+01    1.266440e+00
  1.880084e+01    1.253010e+00
  1.881671e+01    1.233058e+00
  1.883259e+01    1.229963e+00
  1.884846e+01    1.244695e+00
  1.886434e+01    1.251510e+00
  1.888021e+01    1.246850e+00
  1.889609e+01    1.242488e+00
  1.891196e+01    1.216640e+00
  1.892784e+01    1.219203e+00
  1.894372e+01    1.205601e+00
  1.895959e+01    1.226683e+00
  1.897547e+01    1.236043e+00
  1.899134e+01    1.239541e+00
  1.900722e+01    1.222377e+00
  1.902309e+01    1.215008e+00
  1.903897e+01    1.208859e+00
  1.905484e+01    1.244056e+00
  1.907072e+01    1.230052e+00
  1.908660e+01    1.235267e+00
  1.910247e+01    1.221785e+00
  1.911835e+01    1.222877e+00
  1.913422e+01    1.215486e+00
  1.915010e+01    1.189122e+00
  1.916597e+01    1.195094e+00
  1.918185e+01    1.220158e+00
  1.919773e+01    1.213683e+00
  1.921360e+01    1.193056e+00
  1.922948e+01    1.208075e+00
  1.924535e+01    1.193545e+00
  1.926123e+01    1.193848e+00
  1.927710e+01    1.206922e+00
  1.929298e+01    1.218320e+00
  1.930885e+01    1.255918e+00
  1.932473e+01    1.231727e+00
  1.934061e+01    1.207725e+00
  1.935648e+01    1.210183e+00
  1.937236e+01    1.203762e+00
  1.938823e+01    1.196750e+00
  1.940411e+01    1.210802e+00
  1.941998e+01    1.207749e+00
  1.943586e+01    1.226306e+00
  1.945173e+01    1.209620e+00
  1.946761e+01    1.210955e+00
  1.948349e+01    1.184576e+00
  1.949936e+01    1.188114e+00
  1.951524e+01    1.176196e+00
  1.953111e+01    1.173253e+00
  1.954699e+01    1.180786e+00
  1.956286e+01    1.164038e+00
  1.957874e+01    1.169314e+00
  1.959461e+01    1.187600e+00
  1.961049e+01    1.163593e+00
  1.962637e+01    1.200467e+00
  1.964224e+01    1.201366e+00
  1.965812e+01    1.172541e+00
  1.967399e+01    1.155926e+00
  1.968987e+01    1.170082e+00
  1.970574e+01    1.177726e+00
  1.972162e+01    1.176419e+00
  1.973749e+01    1.148079e+00
  1.975337e+01    1.162123e+00
  1.976925e+01    1.171826e+00
  1.978512e+01    1.181911e+00
  1.980100e+01    1.161268e+00
  1.981687e+01    1.168596e+00
  1.983275e+01    1.144685e+00
  1.984862e+01    1.189519e+00
  1.986450e+01    1.168830e+00
  1.988037e+01    1.165371e+00
  1.989625e+01    1.147016e+00
  1.991213e+01    1.138932e+00
  1.992800e+01    1.167466e+00
  1.994388e+01    1.150742e+00
  1.995975e+01    1.162887e+00
  1.997563e+01    1.160613e+00
  1.999150e+01    1.164907e+00
  2.000738e+01    1.154615e+00
  2.002325e+01    1.131592e+00
  2.003913e+01    1.131908e+00
  2.005501e+01    1.128312e+00
  2.007088e+01    1.124749e+00
  2.008676e+01    1.119329e+00
  2.010263e+01    1.143085e+00
  2.011851e+01    1.150637e+00
  2.013438e+01    1.146003e+00
  2.015026e+01    1.137214e+00
  2.016614e+01    1.120798e+00
  2.018201e+01    1.129950e+00
  2.019789e+01    1.156068e+00
  2.021376e+01    1.162440e+00
  2.022964e+01    1.115974e+00
  2.024551e+01    1.130907e+00
  2.026139e+01    1.134431e+00
  2.027726e+01    1.134019e+00
  2.029314e+01    1.119198e+00
  2.030902e+01    1.126914e+00
  2.032489e+01    1.147278e+00
  2.034077e+01    1.125786e+00
  2.035664e+01    1.102691e+00
  2.037252e+01    1.108914e+00
  2.038839e+01    1.094434e+00
  2.040427e+01    1.099258e+00
  2.042014e+01    1.107924e+00
  2.043602e+01    1.101962e+00
  2.045190e+01    1.100443e+00
  2.046777e+01    1.121828e+00
  2.048365e+01    1.124433e+00
  2.049952e+01    1.150498e+00
  2.051540e+01    1.109509e+00
  2.053127e+01    1.113858e+00
  2.054715e+01    1.101878e+00
  2.056302e+01    1.104064e+00
  2.057890e+01    1.121442e+00
  2.059478e+01    1.117585e+00
  2.061065e+01    1.126201e+00
  2.062653e+01    1.119810e+00
  2.064240e+01    1.095507e+00
  2.065828e+01    1.123127e+00
  2.067415e+01    1.130529e+00
  2.069003e+01    1.113978e+00
  2.070590e+01    1.108569e+00
  2.072178e+01    1.097952e+00
  2.073766e+01    1.111991e+00
  2.075353e+01    1.087808e+00
  2.076941e+01    1.107385e+00
  2.078528e+01    1.124290e+00
  2.080116e+01    1.097821e+00
  2.081703e+01    1.087674e+00
  2.083291e+01    1.116940e+00
  2.084878e+01    1.131346e+00
  2.086466e+01    1.133780e+00
  2.088054e+01    1.117416e+00
  2.089641e+01    1.116412e+00
  2.091229e+01    1.107382e+00
  2.092816e+01    1.112092e+00
  2.094404e+01    1.113276e+00
  2.095991e+01    1.101458e+00
  2.097579e+01    1.088913e+00
  2.099166e+01    1.083627e+00
  2.100754e+01    1.077470e+00
  2.102342e+01    1.092099e+00
  2.103929e+01    1.108859e+00
  2.105517e+01    1.091134e+00
  2.107104e+01    1.097029e+00
  2.108692e+01    1.094450e+00
  2.110279e+01    1.124492e+00
  2.111867e+01    1.121039e+00
  2.113455e+01    1.122889e+00
  2.115042e+01    1.122044e+00
  2.116630e+01    1.121596e+00
  2.118217e+01    1.119165e+00
  2.119805e+01    1.100217e+00
  2.121392e+01    1.140583e+00
  2.122980e+01    1.122638e+00
  2.124567e+01    1.142715e+00
  2.126155e+01    1.139432e+00
  2.127743e+01    1.137028e+00
  2.129330e+01    1.177368e+00
  2.130918e+01    1.179538e+00
  2.132505e+01    1.158878e+00
  2.134093e+01    1.165173e+00
  2.135680e+01    1.142109e+00
  2.137268e+01    1.178004e+00
  2.138855e+01    1.185737e+00
  2.140443e+01    1.200868e+00
  2.142031e+01    1.211306e+00
  2.143618e+01    1.236759e+00
  2.145206e+01    1.235560e+00
  2.146793e+01    1.259830e+00
  2.148381e+01    1.282750e+00
  2.149968e+01    1.287009e+00
  2.151556e+01    1.324944e+00
  2.153143e+01    1.332206e+00
  2.154731e+01    1.362865e+00
  2.156319e+01    1.406398e+00
  2.157906e+01    1.452743e+00
  2.159494e+01    1.484179e+00
  2.161081e+01    1.563262e+00
  2.162669e+01    1.627382e+00
  2.164256e+01    1.743547e+00
  2.165844e+01    1.829526e+00
  2.167431e+01    1.951478e+00
  2.169019e+01    2.075487e+00
  2.170607e+01    2.263566e+00
  2.172194e+01    2.489020e+00
  2.173782e+01    2.784473e+00
  2.175369e+01    3.108816e+00
  2.176957e+01    3.512233e+00
  2.178544e+01    4.098848e+00
  2.180132e+01    4.709459e+00
  2.181719e+01    5.392475e+00
  2.183307e+01    6.157264e+00
  2.184895e+01    6.985779e+00
  2.186482e+01    7.925197e+00
  2.188070e+01    8.802625e+00
  2.189657e+01    9.759729e+00
  2.191245e+01    1.058493e+01
  2.192832e+01    1.108309e+01
  2.194420e+01    1.119868e+01
  2.196007e+01    1.089379e+01
  2.197595e+01    1.016905e+01
  2.199183e+01    9.057277e+00
  2.200770e+01    7.734889e+00
  2.202358e+01    6.563629e+00
  2.203945e+01    5.588087e+00
  2.205533e+01    4.726603e+00
  2.207120e+01    4.033130e+00
  2.208708e+01    3.493153e+00
  2.210296e+01    3.117821e+00
  2.211883e+01    2.781767e+00
  2.213471e+01    2.479265e+00
  2.215058e+01    2.263245e+00
  2.216646e+01    2.047086e+00
  2.218233e+01    1.882006e+00
  2.219821e+01    1.769738e+00
  2.221408e+01    1.688340e+00
  2.222996e+01    1.577827e+00
  2.224584e+01    1.529536e+00
  2.226171e+01    1.435226e+00
  2.227759e+01    1.409720e+00
  2.229346e+01    1.357120e+00
  2.230934e+01    1.326675e+00
  2.232521e+01    1.299989e+00
  2.234109e+01    1.268641e+00
  2.235696e+01    1.244465e+00
  2.237284e+01    1.220304e+00
  2.238872e+01    1.193221e+00
  2.240459e+01    1.173611e+00
  2.242047e+01    1.141352e+00
  2.243634e+01    1.143269e+00
  2.245222e+01    1.114497e+00
  2.246809e+01    1.107036e+00
  2.248397e+01    1.104903e+00
  2.249984e+01    1.094950e+00
  2.251572e+01    1.078873e+00
  2.253160e+01    1.054761e+00
  2.254747e+01    1.045516e+00
  2.256335e+01    1.056855e+00
  2.257922e+01    1.059432e+00
  2.259510e+01    1.052667e+00
  2.261097e+01    1.021223e+00
  2.262685e+01    1.017846e+00
  2.264272e+01    1.037171e+00
  2.265860e+01    1.010404e+00
  2.267448e+01    1.000296e+00
  2.269035e+01    9.856043e-01
  2.270623e+01    9.813941e-01
  2.272210e+01    1.000094e+00
  2.273798e+01    9.674605e-01
  2.275385e+01    9.789792e-01
  2.276973e+01    9.673039e-01
  2.278560e+01    9.732075e-01
  2.280148e+01    9.674986e-01
  2.281736e+01    9.491930e-01
  2.283323e+01    9.445814e-01
  2.284911e+01    9.357091e-01
  2.286498e+01    9.322784e-01
  2.288086e+01    9.462657e-01
  2.289673e+01    9.477342e-01
  2.291261e+01    9.473651e-01
  2.292848e+01    9.585879e-01
  2.294436e+01    9.472724e-01
  2.296024e+01    9.100690e-01
  2.297611e+01    9.242453e-01
  2.299199e+01    9.321559e-01
  2.300786e+01    9.321156e-01
  2.302374e+01    9.193688e-01
  2.303961e+01    8.962304e-01
  2.305549e+01    9.206482e-01
  2.307137e+01    9.476578e-01
  2.308724e+01    9.472472e-01
  2.310312e+01    9.248174e-01
  2.311899e+01    8.917713e-01
  2.313487e+01    8.963259e-01
  2.315074e+01    9.225268e-01
  2.316662e+01    9.031355e-01
  2.318249e+01    9.062964e-01
  2.319837e+01    8.935128e-01
  2.321425e+01    8.927500e-01
  2.323012e+01    8.950894e-01
  2.324600e+01    8.825008e-01
  2.326187e+01    9.090347e-01
  2.327775e+01    8.957635e-01
  2.329362e+01    8.833387e-01
  2.330950e+01    8.841205e-01
  2.332537e+01    8.977147e-01
  2.334125e+01    8.809959e-01
  2.335713e+01    9.058923e-01
  2.337300e+01    9.018962e-01
  2.338888e+01    8.804383e-01
  2.340475e+01    8.866372e-01
  2.342063e+01    9.050965e-01
  2.343650e+01    8.746291e-01
  2.345238e+01    8.613733e-01
  2.346825e+01    8.536891e-01
  2.348413e+01    8.597397e-01
  2.350001e+01    8.688086e-01
  2.351588e+01    8.680471e-01
  2.353176e+01    8.649034e-01
  2.354763e+01    8.700324e-01
  2.356351e+01    8.731742e-01
  2.357938e+01    8.687598e-01
  2.359526e+01    8.752033e-01
  2.361113e+01    8.731138e-01
  2.362701e+01    8.617551e-01
  2.364289e+01    8.842241e-01
  2.365876e+01    8.818076e-01
  2.367464e+01    8.543240e-01
  2.369051e+01    8.462132e-01
  2.370639e+01    8.584641e-01
  2.372226e+01    8.633611e-01
  2.373814e+01    8.408993e-01
  2.375401e+01    8.352212e-01
  2.376989e+01    8.254167e-01
  2.378577e+01    8.310710e-01
  2.380164e+01    8.321281e-01
  2.381752e+01    8.216214e-01
  2.383339e+01    8.118169e-01
  2.384927e+01    8.549308e-01
  2.386514e+01    8.436713e-01
  2.388102e+01    8.225307e-01
  2.389689e+01    8.210018e-01
  2.391277e+01    8.279307e-01
  2.392865e+01    8.415555e-01
  2.394452e+01    8.243068e-01
  2.396040e+01    8.028878e-01
  2.397627e+01    7.998425e-01
  2.399215e+01    7.818530e-01
  2.400802e+01    8.041688e-01
  2.402390e+01    8.060433e-01
  2.403978e+01    7.875009e-01
  2.405565e+01    7.987008e-01
  2.407153e+01    8.092798e-01
  2.408740e+01    7.882633e-01
  2.410328e+01    8.120226e-01
  2.411915e+01    7.955719e-01
  2.413503e+01    7.869492e-01
  2.415090e+01    8.024229e-01
  2.416678e+01    7.845138e-01
  2.418266e+01    7.744178e-01
  2.419853e+01    7.938353e-01
  2.421441e+01    7.928706e-01
  2.423028e+01    7.739866e-01
  2.424616e+01    7.949636e-01
  2.426203e+01    7.861176e-01
  2.427791e+01    7.971318e-01
  2.429378e+01    7.859922e-01
  2.430966e+01    7.977474e-01
  2.432554e+01    8.010107e-01
  2.434141e+01    8.066550e-01
  2.435729e+01    8.124717e-01
  2.437316e+01    8.179545e-01
  2.438904e+01    8.119273e-01
  2.440491e+01    8.105673e-01
  2.442079e+01    7.925311e-01
  2.443666e+01    8.035812e-01
  2.445254e+01    8.275017e-01
  2.446842e+01    8.000273e-01
  2.448429e+01    8.021816e-01
  2.450017e+01    8.041869e-01
  2.451604e+01    7.705240e-01
  2.453192e+01    8.002872e-01
  2.454779e+01    8.132650e-01
  2.456367e+01    8.325999e-01
  2.457954e+01    8.162135e-01
  2.459542e+01    8.046253e-01
  2.461130e+01    8.098681e-01
  2.462717e+01    8.162232e-01
  2.464305e+01    8.095356e-01
  2.465892e+01    8.184791e-01
  2.467480e+01    8.221260e-01
  2.469067e+01    8.231626e-01
  2.470655e+01    8.091535e-01
  2.472242e+01    8.186691e-01
  2.473830e+01    8.195732e-01
  2.475418e+01    8.353184e-01
  2.477005e+01    8.165272e-01
  2.478593e+01    8.087105e-01
  2.480180e+01    8.014823e-01
  2.481768e+01    8.051539e-01
  2.483355e+01    8.129072e-01
  2.484943e+01    8.234053e-01
  2.486530e+01    8.280186e-01
  2.488118e+01    8.285690e-01
  2.489706e+01    8.231407e-01
  2.491293e+01    8.290933e-01
  2.492881e+01    8.399674e-01
  2.494468e+01    8.077828e-01
  2.496056e+01    7.969215e-01
  2.497643e+01    8.154982e-01
  2.499231e+01    8.252697e-01
  2.500819e+01    8.310541e-01
  2.502406e+01    8.150966e-01
  2.503994e+01    8.107107e-01
  2.505581e+01    8.339543e-01
  2.507169e+01    8.377585e-01
  2.508756e+01    8.393447e-01
  2.510344e+01    8.502234e-01
  2.511931e+01    8.456957e-01
  2.513519e+01    8.322021e-01
  2.515107e+01    8.176357e-01
  2.516694e+01    8.270056e-01
  2.518282e+01    8.355168e-01
  2.519869e+01    8.381032e-01
  2.521457e+01    8.520415e-01
  2.523044e+01    8.625263e-01
  2.524632e+01    8.655146e-01
  2.526219e+01    8.785774e-01
  2.527807e+01    8.667289e-01
  2.529395e+01    8.914803e-01
  2.530982e+01    8.809848e-01
  2.532570e+01    8.849507e-01
  2.534157e+01    8.909611e-01
  2.535745e+01    8.961478e-01
  2.537332e+01    9.064418e-01
  2.538920e+01    9.160163e-01
  2.540507e+01    9.309686e-01
  2.542095e+01    9.448832e-01
  2.543683e+01    9.690539e-01
  2.545270e+01    9.734350e-01
  2.546858e+01    9.585247e-01
  2.548445e+01    9.628990e-01
  2.550033e+01    9.877558e-01
  2.551620e+01    9.886708e-01
  2.553208e+01    1.012882e+00
  2.554795e+01    1.028082e+00
  2.556383e+01    1.032986e+00
  2.557971e+01    1.063831e+00
  2.559558e+01    1.078691e+00
  2.561146e+01    1.115453e+00
  2.562733e+01    1.146086e+00
  2.564321e+01    1.187217e+00
  2.565908e+01    1.238538e+00
  2.567496e+01    1.270959e+00
  2.569083e+01    1.296026e+00
  2.570671e+01    1.394569e+00
  2.572259e+01    1.473927e+00
  2.573846e+01    1.569364e+00
  2.575434e+01    1.659773e+00
  2.577021e+01    1.781619e+00
  2.578609e+01    1.937990e+00
  2.580196e+01    2.151440e+00
  2.581784e+01    2.391915e+00
  2.583371e+01    2.693557e+00
  2.584959e+01    3.047587e+00
  2.586547e+01    3.513038e+00
  2.588134e+01    4.021359e+00
  2.589722e+01    4.655536e+00
  2.591309e+01    5.309802e+00
  2.592897e+01    6.141891e+00
  2.594484e+01    6.929888e+00
  2.596072e+01    7.756906e+00
  2.597660e+01    8.451838e+00
  2.599247e+01    9.034407e+00
  2.600835e+01    9.271168e+00
  2.602422e+01    9.317531e+00
  2.604010e+01    8.823425e+00
  2.605597e+01    8.055695e+00
  2.607185e+01    7.162216e+00
  2.608772e+01    6.188185e+00
  2.610360e+01    5.301804e+00
  2.611948e+01    4.507914e+00
  2.613535e+01    3.879707e+00
  2.615123e+01    3.367078e+00
  2.616710e+01    2.989989e+00
  2.618298e+01    2.602306e+00
  2.619885e+01    2.309662e+00
  2.621473e+01    2.098230e+00
  2.623060e+01    1.890734e+00
  2.624648e+01    1.754294e+00
  2.626236e+01    1.631997e+00
  2.627823e+01    1.538273e+00
  2.629411e+01    1.465061e+00
  2.630998e+01    1.394875e+00
  2.632586e+01    1.338136e+00
  2.634173e+01    1.271341e+00
  2.635761e+01    1.213295e+00
  2.637348e+01    1.175588e+00
  2.638936e+01    1.163747e+00
  2.640524e+01    1.115760e+00
  2.642111e+01    1.084410e+00
  2.643699e+01    1.080569e+00
  2.645286e+01    1.047633e+00
  2.646874e+01    1.030127e+00
  2.648461e+01    1.012995e+00
  2.650049e+01    1.011900e+00
  2.651636e+01    1.005838e+00
  2.653224e+01    9.964719e-01
  2.654812e+01    1.004082e+00
  2.656399e+01    9.887014e-01
  2.657987e+01    9.643344e-01
  2.659574e+01    9.639131e-01
  2.661162e+01    9.748798e-01
  2.662749e+01    9.795709e-01
  2.664337e+01    9.678239e-01
  2.665924e+01    9.752669e-01
  2.667512e+01    9.518488e-01
  2.669100e+01    9.426980e-01
  2.670687e+01    9.337475e-01
  2.672275e+01    9.462337e-01
  2.673862e+01    9.459646e-01
  2.675450e+01    9.351094e-01
  2.677037e+01    9.459301e-01
  2.678625e+01    9.240227e-01
  2.680212e+01    9.122326e-01
  2.681800e+01    9.279175e-01
  2.683388e+01    9.314758e-01
  2.684975e+01    9.279227e-01
  2.686563e+01    9.444065e-01
  2.688150e+01    9.541314e-01
  2.689738e+01    9.437070e-01
  2.691325e+01    9.363362e-01
  2.692913e+01    9.589109e-01
  2.694501e+01    9.697128e-01
  2.696088e+01    9.779271e-01
  2.697676e+01    9.765190e-01
  2.699263e+01    9.911615e-01
  2.700851e+01    1.016971e+00
  2.702438e+01    1.023306e+00
  2.704026e+01    1.066421e+00
  2.705613e+01    1.121399e+00
  2.707201e+01    1.129736e+00
  2.708789e+01    1.155871e+00
  2.710376e+01    1.251831e+00
  2.711964e+01    1.319279e+00
  2.713551e+01    1.405371e+00
  2.715139e+01    1.516651e+00
  2.716726e+01    1.683318e+00
  2.718314e+01    1.835218e+00
  2.719901e+01    2.008165e+00
  2.721489e+01    2.160140e+00
  2.723077e+01    2.360031e+00
  2.724664e+01    2.513140e+00
  2.726252e+01    2.647157e+00
  2.727839e+01    2.637804e+00
  2.729427e+01    2.624395e+00
  2.731014e+01    2.511213e+00
  2.732602e+01    2.316766e+00
  2.734189e+01    2.116073e+00
  2.735777e+01    1.900523e+00
  2.737365e+01    1.732054e+00
  2.738952e+01    1.572431e+00
  2.740540e+01    1.399125e+00
  2.742127e+01    1.314978e+00
  2.743715e+01    1.250344e+00
  2.745302e+01    1.183856e+00
  2.746890e+01    1.131802e+00
  2.748477e+01    1.114106e+00
  2.750065e+01    1.087985e+00
  2.751653e+01    1.050899e+00
  2.753240e+01    1.005718e+00
  2.754828e+01    1.000217e+00
  2.756415e+01    9.677334e-01
  2.758003e+01    9.406364e-01
  2.759590e+01    9.061138e-01
  2.761178e+01    8.934196e-01
  2.762765e+01    9.004916e-01
  2.764353e+01    8.969234e-01
  2.765941e+01    8.856816e-01
  2.767528e+01    8.841298e-01
  2.769116e+01    8.642819e-01
  2.770703e+01    8.525155e-01
  2.772291e+01    8.700747e-01
  2.773878e+01    8.650944e-01
  2.775466e+01    8.480086e-01
  2.777054e+01    8.328167e-01
  2.778641e+01    8.430245e-01
  2.780229e+01    8.514216e-01
  2.781816e+01    8.171800e-01
  2.783404e+01    8.274795e-01
  2.784991e+01    8.295767e-01
  2.786579e+01    8.201314e-01
  2.788166e+01    8.276414e-01
  2.789754e+01    8.425587e-01
  2.791342e+01    8.241543e-01
  2.792929e+01    8.420742e-01
  2.794517e+01    8.260642e-01
  2.796104e+01    8.026243e-01
  2.797692e+01    8.197863e-01
  2.799279e+01    8.190313e-01
  2.800867e+01    8.196642e-01
  2.802454e+01    8.143860e-01
  2.804042e+01    7.989823e-01
  2.805630e+01    8.133975e-01
  2.807217e+01    8.171312e-01
  2.808805e+01    8.006769e-01
  2.810392e+01    8.046476e-01
  2.811980e+01    7.999746e-01
  2.813567e+01    7.971902e-01
  2.815155e+01    7.928370e-01
  2.816742e+01    7.900493e-01
  2.818330e+01    7.930190e-01
  2.819918e+01    8.034815e-01
  2.821505e+01    8.224568e-01
  2.823093e+01    8.246679e-01
  2.824680e+01    8.213659e-01
  2.826268e+01    8.199384e-01
  2.827855e+01    8.007185e-01
  2.829443e+01    7.904474e-01
  2.831030e+01    7.985312e-01
  2.832618e+01    7.667844e-01
  2.834206e+01    7.846845e-01
  2.835793e+01    7.923439e-01
  2.837381e+01    7.830367e-01
  2.838968e+01    7.898364e-01
  2.840556e+01    7.934744e-01
  2.842143e+01    7.735296e-01
  2.843731e+01    7.616169e-01
  2.845318e+01    7.806495e-01
  2.846906e+01    7.845096e-01
  2.848494e+01    7.918828e-01
  2.850081e+01    7.929748e-01
  2.851669e+01    7.896447e-01
  2.853256e+01    7.701527e-01
  2.854844e+01    7.852654e-01
  2.856431e+01    7.666714e-01
  2.858019e+01    7.648324e-01
  2.859606e+01    7.816075e-01
  2.861194e+01    7.772833e-01
  2.862782e+01    7.849070e-01
  2.864369e+01    7.860219e-01
  2.865957e+01    7.780724e-01
  2.867544e+01    7.704125e-01
  2.869132e+01    7.859098e-01
  2.870719e+01    7.636235e-01
  2.872307e+01    7.684951e-01
  2.873895e+01    7.575406e-01
  2.875482e+01    7.705769e-01
  2.877070e+01    7.746748e-01
  2.878657e+01    7.789657e-01
  2.880245e+01    7.764827e-01
  2.881832e+01    7.675365e-01
  2.883420e+01    7.427579e-01
  2.885007e+01    7.566363e-01
  2.886595e+01    7.950392e-01
  2.888183e+01    7.706162e-01
  2.889770e+01    7.542914e-01
  2.891358e+01    7.747188e-01
  2.892945e+01    7.680123e-01
  2.894533e+01    7.661979e-01
  2.896120e+01    7.859266e-01
  2.897708e+01    7.655022e-01
  2.899295e+01    7.808980e-01
  2.900883e+01    7.572487e-01
  2.902471e+01    7.434239e-01
  2.904058e+01    7.545467e-01
  2.905646e+01    7.357633e-01
  2.907233e+01    7.498345e-01
  2.908821e+01    7.376266e-01
  2.910408e+01    7.376109e-01
  2.911996e+01    7.568824e-01
  2.913583e+01    7.474563e-01
  2.915171e+01    7.555729e-01
  2.916759e+01    7.603984e-01
  2.918346e+01    7.767617e-01
  2.919934e+01    7.648753e-01
  2.921521e+01    7.599338e-01
  2.923109e+01    7.742282e-01
  2.924696e+01    7.675262e-01
  2.926284e+01    7.634546e-01
  2.927871e+01    7.537591e-01
  2.929459e+01    7.619388e-01
  2.931047e+01    7.525663e-01
  2.932634e+01    7.612476e-01
  2.934222e+01    7.504503e-01
  2.935809e+01    7.579177e-01
  2.937397e+01    7.597508e-01
  2.938984e+01    7.700859e-01
  2.940572e+01    7.671774e-01
  2.942159e+01    7.517655e-01
  2.943747e+01    7.398273e-01
  2.945335e+01    7.552571e-01
  2.946922e+01    7.509023e-01
  2.948510e+01    7.569461e-01
  2.950097e+01    7.668415e-01
  2.951685e+01    7.273851e-01
  2.953272e+01    7.411039e-01
  2.954860e+01    7.582103e-01
  2.956447e+01    7.685835e-01
  2.958035e+01    7.443298e-01
  2.959623e+01    7.341361e-01
  2.961210e+01    7.477028e-01
  2.962798e+01    7.733026e-01
  2.964385e+01    7.612854e-01
  2.965973e+01    7.437516e-01
  2.967560e+01    7.159808e-01
  2.969148e+01    7.364662e-01
  2.970736e+01    7.377480e-01
  2.972323e+01    7.321650e-01
  2.973911e+01    7.542637e-01
  2.975498e+01    7.450837e-01
  2.977086e+01    7.430323e-01
  2.978673e+01    7.299876e-01
  2.980261e+01    7.603580e-01
  2.981848e+01    7.446461e-01
  2.983436e+01    7.314693e-01
  2.985024e+01    7.371105e-01
  2.986611e+01    7.323318e-01
  2.988199e+01    7.464927e-01
  2.989786e+01    7.386754e-01
  2.991374e+01    7.343253e-01
  2.992961e+01    7.371430e-01
  2.994549e+01    7.114899e-01
  2.996136e+01    7.279636e-01
  2.997724e+01    7.360414e-01
  2.999312e+01    7.285505e-01
  3.000899e+01    7.350929e-01
  3.002487e+01    7.270641e-01
  3.004074e+01    7.488046e-01
  3.005662e+01    7.599277e-01
  3.007249e+01    7.475368e-01
  3.008837e+01    7.671410e-01
  3.010424e+01    7.452883e-01
  3.012012e+01    7.394214e-01
  3.013600e+01    7.264429e-01
  3.015187e+01    7.305293e-01
  3.016775e+01    7.503312e-01
  3.018362e+01    7.408025e-01
  3.019950e+01    7.249876e-01
  3.021537e+01    7.270947e-01
  3.023125e+01    7.212130e-01
  3.024712e+01    7.306510e-01
  3.026300e+01    7.482417e-01
  3.027888e+01    7.481251e-01
  3.029475e+01    7.343992e-01
  3.031063e+01    7.590538e-01
  3.032650e+01    7.581211e-01
  3.034238e+01    7.483612e-01
  3.035825e+01    7.368408e-01
  3.037413e+01    7.334040e-01
  3.039000e+01    7.269474e-01
  3.040588e+01    7.315470e-01
  3.042176e+01    7.109287e-01
  3.043763e+01    7.244305e-01
  3.045351e+01    7.324659e-01
  3.046938e+01    7.369944e-01
  3.048526e+01    7.195895e-01
  3.050113e+01    7.133088e-01
  3.051701e+01    7.322742e-01
  3.053288e+01    7.011591e-01
  3.054876e+01    7.133074e-01
  3.056464e+01    7.263902e-01
  3.058051e+01    7.269692e-01
  3.059639e+01    6.931478e-01
  3.061226e+01    7.236142e-01
  3.062814e+01    7.413949e-01
  3.064401e+01    7.078133e-01
  3.065989e+01    7.294716e-01
  3.067577e+01    7.388591e-01
  3.069164e+01    7.313557e-01
  3.070752e+01    7.211437e-01
  3.072339e+01    7.245097e-01
  3.073927e+01    7.308787e-01
  3.075514e+01    7.478072e-01
  3.077102e+01    7.308514e-01
  3.078689e+01    7.374766e-01
  3.080277e+01    7.277700e-01
  3.081865e+01    7.241198e-01
  3.083452e+01    7.217093e-01
  3.085040e+01    7.115258e-01
  3.086627e+01    7.390439e-01
  3.088215e+01    7.341570e-01
  3.089802e+01    7.287791e-01
  3.091390e+01    7.187477e-01
  3.092977e+01    7.310706e-01
  3.094565e+01    7.459450e-01
  3.096153e+01    7.407738e-01
  3.097740e+01    7.322271e-01
  3.099328e+01    7.312893e-01
  3.100915e+01    7.343068e-01
  3.102503e+01    7.322912e-01
  3.104090e+01    7.538663e-01
  3.105678e+01    7.557262e-01
  3.107265e+01    7.352812e-01
  3.108853e+01    7.340019e-01
  3.110441e+01    7.183128e-01
  3.112028e+01    7.381716e-01
  3.113616e+01    7.426276e-01
  3.115203e+01    7.670435e-01
  3.116791e+01    7.496097e-01
  3.118378e+01    7.411260e-01
  3.119966e+01    7.356300e-01
  3.121553e+01    7.492393e-01
  3.123141e+01    7.548001e-01
  3.124729e+01    7.435337e-01
  3.126316e+01    7.428204e-01
  3.127904e+01    7.350176e-01
  3.129491e+01    7.277343e-01
  3.131079e+01    7.371664e-01
  3.132666e+01    7.380201e-01
  3.134254e+01    7.410309e-01
  3.135841e+01    7.399114e-01
  3.137429e+01    7.514217e-01
  3.139017e+01    7.461436e-01
  3.140604e+01    7.532067e-01
  3.142192e+01    7.841510e-01
  3.143779e+01    7.640670e-01
  3.145367e+01    7.748045e-01
  3.146954e+01    7.547030e-01
  3.148542e+01    7.647878e-01
  3.150129e+01    7.793885e-01
  3.151717e+01    7.881819e-01
  3.153305e+01    7.886258e-01
  3.154892e+01    7.971689e-01
  3.156480e+01    7.869340e-01
  3.158067e+01    7.940432e-01
  3.159655e+01    8.162243e-01
  3.161242e+01    8.174868e-01
  3.162830e+01    8.397501e-01
  3.164418e+01    8.642229e-01
  3.166005e+01    8.679596e-01
  3.167593e+01    8.752155e-01
  3.169180e+01    8.785209e-01
  3.170768e+01    9.345319e-01
  3.172355e+01    9.601275e-01
  3.173943e+01    9.814336e-01
  3.175530e+01    1.001477e+00
  3.177118e+01    1.052478e+00
  3.178706e+01    1.115775e+00
  3.180293e+01    1.171077e+00
  3.181881e+01    1.226409e+00
  3.183468e+01    1.317930e+00
  3.185056e+01    1.448915e+00
  3.186643e+01    1.590870e+00
  3.188231e+01    1.758448e+00
  3.189818e+01    1.978593e+00
  3.191406e+01    2.215363e+00
  3.192994e+01    2.406538e+00
  3.194581e+01    2.529586e+00
  3.196169e+01    2.613124e+00
  3.197756e+01    2.647514e+00
  3.199344e+01    2.570060e+00
  3.200931e+01    2.468793e+00
  3.202519e+01    2.299245e+00
  3.204106e+01    2.076732e+00
  3.205694e+01    1.866861e+00
  3.207282e+01    1.681436e+00
  3.208869e+01    1.483330e+00
  3.210457e+01    1.355623e+00
  3.212044e+01    1.269916e+00
  3.213632e+01    1.167809e+00
  3.215219e+01    1.121670e+00
  3.216807e+01    1.049847e+00
  3.218394e+01    1.003364e+00
  3.219982e+01    9.659512e-01
  3.221570e+01    9.251745e-01
  3.223157e+01    8.996077e-01
  3.224745e+01    8.910384e-01
  3.226332e+01    8.831960e-01
  3.227920e+01    8.671741e-01
  3.229507e+01    8.532579e-01
  3.231095e+01    8.260390e-01
  3.232682e+01    8.205845e-01
  3.234270e+01    8.022116e-01
  3.235858e+01    7.816870e-01
  3.237445e+01    7.967944e-01
  3.239033e+01    7.693837e-01
  3.240620e+01    7.745594e-01
  3.242208e+01    7.464887e-01
  3.243795e+01    7.594696e-01
  3.245383e+01    7.749015e-01
  3.246970e+01    7.509651e-01
  3.248558e+01    7.438977e-01
  3.250146e+01    7.607952e-01
  3.251733e+01    7.670932e-01
  3.253321e+01    7.599940e-01
  3.254908e+01    7.604467e-01
