# == pyFAI calibration ==
# Distance Sample to Detector: 0.3999999939076516 m
# PONI: 9.750e-02, 1.135e-01 m
# Rotations: -0.000175 0.000000 -0.000000 rad
# 
# == Fit2d calibration ==
# Distance Sample-beamCenter: 400.000 mm
# Center: x=1514.000, y=1300.000 pix
# Tilt: 0.010 deg  TiltPlanRot: 0.010 deg
# 
# Detector Detector	 Spline= None	 PixelSize= 7.500e-05, 7.500e-05 m
#    Detector has a mask: False 
#    Detector has a dark current: False 
#    detector has a flat field: False 
# 
# Wavelength: 6.888e-11 m
# Mask applied: user provided
# Dark current applied: False
# Flat field applied: False
# Polarization factor: 0.99
# Normalization factor: 1.0
# --> /home/myspot/data/2024_07_Rosario/Ru-CGO-ex/2024-07-27_002_Ru-CGO-ex_Activtation_ramp_000002_data_000042.dat
#       q_nm^-1             I 
  2.003187e-02    0.000000e+00
  3.590745e-02    3.429401e-02
  5.178302e-02    6.857615e-02
  6.765859e-02    6.607965e-03
  8.353417e-02    3.908882e-02
  9.940974e-02    7.378333e-02
  1.152853e-01    2.107581e-02
  1.311609e-01    6.728543e-02
  1.470365e-01    1.056270e-02
  1.629120e-01    7.039940e-02
  1.787876e-01    4.674629e-02
  1.946632e-01    1.009009e-02
  2.105388e-01    1.678853e-02
  2.264143e-01    7.893282e-02
  2.422899e-01    5.650008e-02
  2.581655e-01    3.322052e-02
  2.740411e-01    4.307024e-02
  2.899166e-01    6.398743e-02
  3.057922e-01    4.384867e-02
  3.216678e-01    3.995756e-02
  3.375433e-01    5.710485e-02
  3.534189e-01    4.676791e-03
  3.692945e-01    1.667299e-02
  3.851701e-01    5.526075e-02
  4.010456e-01    3.209322e-02
  4.169212e-01    2.072956e-02
  4.327968e-01    3.364473e-02
  4.486724e-01    4.162084e-02
  4.645479e-01    2.258256e-02
  4.804235e-01    2.919757e-02
  4.962991e-01    2.846787e-02
  5.121747e-01    4.794268e-02
  5.280502e-01    6.825136e-02
  5.439258e-01    6.419598e-02
  5.598014e-01    4.881264e-02
  5.756770e-01    4.631240e-02
  5.915525e-01    2.648757e-02
  6.074281e-01    1.699780e-02
  6.233037e-01    1.897157e-02
  6.391793e-01    2.329767e-02
  6.550548e-01    5.103679e-02
  6.709304e-01    3.055150e-02
  6.868060e-01    7.067320e-03
  7.026815e-01    1.831088e-02
  7.185571e-01    3.582151e-02
  7.344327e-01    1.679678e-02
  7.503083e-01    4.152765e-02
  7.661838e-01    6.335513e-02
  7.820594e-01    1.220923e-01
  7.979350e-01    1.872258e-01
  8.138106e-01    2.174992e-01
  8.296861e-01    2.853119e-01
  8.455617e-01    2.826315e-01
  8.614373e-01    3.155733e-01
  8.773129e-01    4.153718e-01
  8.931884e-01    5.016320e-01
  9.090640e-01    5.859202e-01
  9.249396e-01    6.724676e-01
  9.408152e-01    7.034707e-01
  9.566907e-01    7.088163e-01
  9.725663e-01    8.230063e-01
  9.884419e-01    9.607826e-01
  1.004317e+00    1.004500e+00
  1.020193e+00    1.034002e+00
  1.036069e+00    1.134221e+00
  1.051944e+00    1.203431e+00
  1.067820e+00    1.305794e+00
  1.083695e+00    1.374323e+00
  1.099571e+00    1.297641e+00
  1.115446e+00    1.267636e+00
  1.131322e+00    1.349529e+00
  1.147198e+00    1.463175e+00
  1.163073e+00    1.482847e+00
  1.178949e+00    1.565370e+00
  1.194824e+00    1.682353e+00
  1.210700e+00    1.806893e+00
  1.226575e+00    1.956317e+00
  1.242451e+00    2.233938e+00
  1.258327e+00    2.357945e+00
  1.274202e+00    2.505141e+00
  1.290078e+00    2.494046e+00
  1.305953e+00    2.628734e+00
  1.321829e+00    2.603640e+00
  1.337705e+00    2.534536e+00
  1.353580e+00    2.625830e+00
  1.369456e+00    2.591875e+00
  1.385331e+00    2.685171e+00
  1.401207e+00    2.750183e+00
  1.417082e+00    2.665856e+00
  1.432958e+00    2.620362e+00
  1.448834e+00    2.743317e+00
  1.464709e+00    2.855995e+00
  1.480585e+00    2.958698e+00
  1.496460e+00    3.034897e+00
  1.512336e+00    2.957681e+00
  1.528211e+00    3.066049e+00
  1.544087e+00    3.055088e+00
  1.559963e+00    3.184062e+00
  1.575838e+00    3.086290e+00
  1.591714e+00    2.991830e+00
  1.607589e+00    3.026633e+00
  1.623465e+00    2.942541e+00
  1.639340e+00    2.919636e+00
  1.655216e+00    2.954606e+00
  1.671092e+00    2.972480e+00
  1.686967e+00    2.949654e+00
  1.702843e+00    2.978530e+00
  1.718718e+00    2.952678e+00
  1.734594e+00    2.992477e+00
  1.750469e+00    2.909580e+00
  1.766345e+00    2.764433e+00
  1.782221e+00    2.731090e+00
  1.798096e+00    2.761384e+00
  1.813972e+00    2.730306e+00
  1.829847e+00    2.819342e+00
  1.845723e+00    2.953348e+00
  1.861598e+00    2.928957e+00
  1.877474e+00    2.789035e+00
  1.893350e+00    2.760396e+00
  1.909225e+00    2.845084e+00
  1.925101e+00    2.786710e+00
  1.940976e+00    2.782307e+00
  1.956852e+00    2.918721e+00
  1.972727e+00    2.789558e+00
  1.988603e+00    2.805047e+00
  2.004479e+00    2.767642e+00
  2.020354e+00    2.801170e+00
  2.036230e+00    2.827314e+00
  2.052105e+00    2.750715e+00
  2.067981e+00    2.734974e+00
  2.083856e+00    2.797679e+00
  2.099732e+00    2.754584e+00
  2.115608e+00    2.857912e+00
  2.131483e+00    2.835958e+00
  2.147359e+00    2.767833e+00
  2.163234e+00    2.722628e+00
  2.179110e+00    2.749283e+00
  2.194985e+00    2.740137e+00
  2.210861e+00    2.728591e+00
  2.226737e+00    2.633388e+00
  2.242612e+00    2.714528e+00
  2.258488e+00    2.817581e+00
  2.274363e+00    2.802337e+00
  2.290239e+00    2.691509e+00
  2.306115e+00    2.652217e+00
  2.321990e+00    2.760438e+00
  2.337866e+00    2.905077e+00
  2.353741e+00    2.813441e+00
  2.369617e+00    2.802152e+00
  2.385492e+00    2.832738e+00
  2.401368e+00    2.772927e+00
  2.417244e+00    2.852667e+00
  2.433119e+00    2.781108e+00
  2.448995e+00    2.714079e+00
  2.464870e+00    2.719866e+00
  2.480746e+00    2.793238e+00
  2.496621e+00    2.763918e+00
  2.512497e+00    2.863322e+00
  2.528373e+00    2.798583e+00
  2.544248e+00    2.760907e+00
  2.560124e+00    2.830824e+00
  2.575999e+00    2.793359e+00
  2.591875e+00    2.762601e+00
  2.607750e+00    2.813074e+00
  2.623626e+00    2.841813e+00
  2.639502e+00    2.857939e+00
  2.655377e+00    2.812091e+00
  2.671253e+00    2.827382e+00
  2.687128e+00    2.883855e+00
  2.703004e+00    2.863824e+00
  2.718879e+00    2.841089e+00
  2.734755e+00    2.901799e+00
  2.750631e+00    2.912323e+00
  2.766506e+00    2.832554e+00
  2.782382e+00    2.846979e+00
  2.798257e+00    2.820387e+00
  2.814133e+00    2.839981e+00
  2.830008e+00    2.915311e+00
  2.845884e+00    2.916280e+00
  2.861760e+00    2.898927e+00
  2.877635e+00    2.894554e+00
  2.893511e+00    2.886555e+00
  2.909386e+00    2.874867e+00
  2.925262e+00    2.895794e+00
  2.941137e+00    2.939940e+00
  2.957013e+00    2.867284e+00
  2.972889e+00    2.797750e+00
  2.988764e+00    2.836154e+00
  3.004640e+00    2.846456e+00
  3.020515e+00    2.906005e+00
  3.036391e+00    2.955413e+00
  3.052266e+00    2.915018e+00
  3.068142e+00    2.837801e+00
  3.084018e+00    2.913134e+00
  3.099893e+00    2.897915e+00
  3.115769e+00    2.946051e+00
  3.131644e+00    2.902023e+00
  3.147520e+00    2.837510e+00
  3.163395e+00    2.865305e+00
  3.179271e+00    2.811469e+00
  3.195147e+00    2.874130e+00
  3.211022e+00    2.960943e+00
  3.226898e+00    2.997240e+00
  3.242773e+00    2.953770e+00
  3.258649e+00    2.842812e+00
  3.274525e+00    2.966032e+00
  3.290400e+00    2.985973e+00
  3.306276e+00    2.944980e+00
  3.322151e+00    2.966365e+00
  3.338027e+00    3.024127e+00
  3.353902e+00    2.981158e+00
  3.369778e+00    2.908609e+00
  3.385654e+00    2.951488e+00
  3.401529e+00    3.011673e+00
  3.417405e+00    3.036118e+00
  3.433280e+00    2.956630e+00
  3.449156e+00    2.912889e+00
  3.465031e+00    2.931967e+00
  3.480907e+00    2.998510e+00
  3.496783e+00    3.027083e+00
  3.512658e+00    3.019572e+00
  3.528534e+00    2.961336e+00
  3.544409e+00    3.027644e+00
  3.560285e+00    2.989796e+00
  3.576160e+00    2.992161e+00
  3.592036e+00    3.000713e+00
  3.607912e+00    2.917273e+00
  3.623787e+00    2.911065e+00
  3.639663e+00    2.916063e+00
  3.655538e+00    2.961235e+00
  3.671414e+00    2.911669e+00
  3.687289e+00    2.947874e+00
  3.703165e+00    2.919849e+00
  3.719041e+00    2.996250e+00
  3.734916e+00    3.101325e+00
  3.750792e+00    3.065065e+00
  3.766667e+00    3.018785e+00
  3.782543e+00    3.049973e+00
  3.798418e+00    2.988491e+00
  3.814294e+00    2.977704e+00
  3.830170e+00    3.010856e+00
  3.846045e+00    3.092495e+00
  3.861921e+00    3.014895e+00
  3.877796e+00    2.892038e+00
  3.893672e+00    3.058224e+00
  3.909547e+00    3.035118e+00
  3.925423e+00    2.979603e+00
  3.941299e+00    3.007426e+00
  3.957174e+00    2.935256e+00
  3.973050e+00    3.072172e+00
  3.988925e+00    3.124899e+00
  4.004801e+00    3.048062e+00
  4.020676e+00    3.044359e+00
  4.036552e+00    3.029123e+00
  4.052428e+00    3.000768e+00
  4.068303e+00    2.925205e+00
  4.084179e+00    2.951144e+00
  4.100054e+00    3.066873e+00
  4.115930e+00    3.032920e+00
  4.131806e+00    3.076426e+00
  4.147681e+00    3.068347e+00
  4.163557e+00    3.036402e+00
  4.179432e+00    2.996477e+00
  4.195308e+00    3.013133e+00
  4.211183e+00    3.013854e+00
  4.227059e+00    3.093519e+00
  4.242935e+00    3.121795e+00
  4.258810e+00    3.097333e+00
  4.274686e+00    3.147325e+00
  4.290561e+00    3.051266e+00
  4.306437e+00    3.011879e+00
  4.322312e+00    3.055011e+00
  4.338188e+00    3.066715e+00
  4.354064e+00    3.102430e+00
  4.369939e+00    3.033282e+00
  4.385815e+00    3.162705e+00
  4.401690e+00    3.130327e+00
  4.417566e+00    3.052135e+00
  4.433441e+00    3.012446e+00
  4.449317e+00    3.039152e+00
  4.465193e+00    3.083339e+00
  4.481068e+00    3.081936e+00
  4.496944e+00    3.081280e+00
  4.512819e+00    3.048469e+00
  4.528695e+00    3.144366e+00
  4.544570e+00    3.169397e+00
  4.560446e+00    3.127726e+00
  4.576322e+00    3.101906e+00
  4.592197e+00    3.118280e+00
  4.608073e+00    3.117502e+00
  4.623948e+00    3.067004e+00
  4.639824e+00    3.046959e+00
  4.655699e+00    3.132790e+00
  4.671575e+00    3.136567e+00
  4.687451e+00    3.114929e+00
  4.703326e+00    3.120440e+00
  4.719202e+00    3.121771e+00
  4.735077e+00    3.159942e+00
  4.750953e+00    3.185077e+00
  4.766828e+00    3.143784e+00
  4.782704e+00    3.159756e+00
  4.798580e+00    3.162584e+00
  4.814455e+00    3.146595e+00
  4.830331e+00    3.018396e+00
  4.846206e+00    3.028268e+00
  4.862082e+00    3.026779e+00
  4.877957e+00    3.122091e+00
  4.893833e+00    3.084262e+00
  4.909709e+00    3.047473e+00
  4.925584e+00    3.087219e+00
  4.941460e+00    3.114169e+00
  4.957335e+00    3.127372e+00
  4.973211e+00    3.144956e+00
  4.989086e+00    3.107499e+00
  5.004962e+00    3.120878e+00
  5.020838e+00    3.095092e+00
  5.036713e+00    3.087357e+00
  5.052589e+00    3.196558e+00
  5.068464e+00    3.193051e+00
  5.084340e+00    3.037050e+00
  5.100216e+00    3.090559e+00
  5.116091e+00    3.117965e+00
  5.131967e+00    3.087604e+00
  5.147842e+00    3.151694e+00
  5.163718e+00    3.199852e+00
  5.179593e+00    3.085180e+00
  5.195469e+00    3.063248e+00
  5.211345e+00    3.130465e+00
  5.227220e+00    3.098938e+00
  5.243096e+00    3.045276e+00
  5.258971e+00    3.016509e+00
  5.274847e+00    3.063227e+00
  5.290722e+00    3.077070e+00
  5.306598e+00    3.136770e+00
  5.322474e+00    3.151699e+00
  5.338349e+00    3.118683e+00
  5.354225e+00    3.144491e+00
  5.370100e+00    3.141613e+00
  5.385976e+00    3.103868e+00
  5.401851e+00    3.142526e+00
  5.417727e+00    3.124419e+00
  5.433603e+00    3.104865e+00
  5.449478e+00    3.107062e+00
  5.465354e+00    3.095307e+00
  5.481229e+00    3.106827e+00
  5.497105e+00    3.068841e+00
  5.512980e+00    3.010037e+00
  5.528856e+00    3.090755e+00
  5.544732e+00    3.075706e+00
  5.560607e+00    3.042362e+00
  5.576483e+00    3.027849e+00
  5.592358e+00    3.035393e+00
  5.608234e+00    3.097111e+00
  5.624109e+00    3.118866e+00
  5.639985e+00    3.097237e+00
  5.655861e+00    3.133837e+00
  5.671736e+00    3.031758e+00
  5.687612e+00    3.018496e+00
  5.703487e+00    3.056654e+00
  5.719363e+00    3.056509e+00
  5.735238e+00    2.992142e+00
  5.751114e+00    3.010638e+00
  5.766990e+00    3.065904e+00
  5.782865e+00    3.083124e+00
  5.798741e+00    3.053339e+00
  5.814616e+00    2.992103e+00
  5.830492e+00    3.039764e+00
  5.846367e+00    2.960569e+00
  5.862243e+00    2.971241e+00
  5.878119e+00    3.028818e+00
  5.893994e+00    3.065141e+00
  5.909870e+00    3.108435e+00
  5.925745e+00    3.057689e+00
  5.941621e+00    3.037009e+00
  5.957497e+00    3.014560e+00
  5.973372e+00    3.086511e+00
  5.989248e+00    3.058668e+00
  6.005123e+00    3.000766e+00
  6.020999e+00    2.976917e+00
  6.036874e+00    3.051315e+00
  6.052750e+00    3.093091e+00
  6.068626e+00    3.108314e+00
  6.084501e+00    3.014907e+00
  6.100377e+00    3.067889e+00
  6.116252e+00    3.096201e+00
  6.132128e+00    3.113646e+00
  6.148003e+00    3.060014e+00
  6.163879e+00    3.063005e+00
  6.179755e+00    3.104268e+00
  6.195630e+00    3.037923e+00
  6.211506e+00    3.101903e+00
  6.227381e+00    3.085488e+00
  6.243257e+00    3.008975e+00
  6.259132e+00    3.042627e+00
  6.275008e+00    3.064689e+00
  6.290884e+00    2.957453e+00
  6.306759e+00    3.054802e+00
  6.322635e+00    3.005238e+00
  6.338510e+00    3.004559e+00
  6.354386e+00    3.027071e+00
  6.370261e+00    3.000534e+00
  6.386137e+00    3.005809e+00
  6.402013e+00    2.998948e+00
  6.417888e+00    3.088892e+00
  6.433764e+00    3.130922e+00
  6.449639e+00    3.078312e+00
  6.465515e+00    3.021429e+00
  6.481390e+00    3.033455e+00
  6.497266e+00    3.027463e+00
  6.513142e+00    3.034582e+00
  6.529017e+00    3.012546e+00
  6.544893e+00    3.063715e+00
  6.560768e+00    3.058477e+00
  6.576644e+00    3.059666e+00
  6.592519e+00    3.064394e+00
  6.608395e+00    3.028655e+00
  6.624271e+00    2.999795e+00
  6.640146e+00    2.978697e+00
  6.656022e+00    2.973001e+00
  6.671897e+00    3.038352e+00
  6.687773e+00    2.971114e+00
  6.703648e+00    2.997693e+00
  6.719524e+00    3.023021e+00
  6.735400e+00    3.031253e+00
  6.751275e+00    3.071459e+00
  6.767151e+00    3.046623e+00
  6.783026e+00    3.060593e+00
  6.798902e+00    3.054598e+00
  6.814777e+00    2.965488e+00
  6.830653e+00    2.927194e+00
  6.846529e+00    2.884094e+00
  6.862404e+00    2.981929e+00
  6.878280e+00    3.025182e+00
  6.894155e+00    3.019240e+00
  6.910031e+00    3.057882e+00
  6.925907e+00    3.025431e+00
  6.941782e+00    3.065953e+00
  6.957658e+00    3.045459e+00
  6.973533e+00    3.036930e+00
  6.989409e+00    3.083989e+00
  7.005284e+00    3.116931e+00
  7.021160e+00    3.071761e+00
  7.037036e+00    3.106517e+00
  7.052911e+00    3.073575e+00
  7.068787e+00    3.091807e+00
  7.084662e+00    3.063953e+00
  7.100538e+00    3.082920e+00
  7.116413e+00    2.994039e+00
  7.132289e+00    2.992957e+00
  7.148165e+00    3.032544e+00
  7.164040e+00    3.072826e+00
  7.179916e+00    3.014205e+00
  7.195791e+00    2.963220e+00
  7.211667e+00    2.964148e+00
  7.227542e+00    3.030411e+00
  7.243418e+00    2.926677e+00
  7.259294e+00    2.962318e+00
  7.275169e+00    3.037020e+00
  7.291045e+00    3.060900e+00
  7.306920e+00    3.047593e+00
  7.322796e+00    3.034026e+00
  7.338671e+00    3.002031e+00
  7.354547e+00    2.971675e+00
  7.370423e+00    3.032177e+00
  7.386298e+00    2.997623e+00
  7.402174e+00    2.980650e+00
  7.418049e+00    2.974972e+00
  7.433925e+00    2.974833e+00
  7.449800e+00    2.983243e+00
  7.465676e+00    2.979350e+00
  7.481552e+00    3.017141e+00
  7.497427e+00    3.008509e+00
  7.513303e+00    3.062282e+00
  7.529178e+00    3.043484e+00
  7.545054e+00    3.023963e+00
  7.560929e+00    2.945173e+00
  7.576805e+00    2.890972e+00
  7.592681e+00    2.988590e+00
  7.608556e+00    2.978753e+00
  7.624432e+00    2.948394e+00
  7.640307e+00    2.998970e+00
  7.656183e+00    2.916112e+00
  7.672058e+00    2.894114e+00
  7.687934e+00    2.888252e+00
  7.703810e+00    2.914876e+00
  7.719685e+00    2.937770e+00
  7.735561e+00    2.946149e+00
  7.751436e+00    2.953508e+00
  7.767312e+00    2.983227e+00
  7.783187e+00    2.992706e+00
  7.799063e+00    2.988308e+00
  7.814939e+00    2.921701e+00
  7.830814e+00    2.926953e+00
  7.846690e+00    2.980201e+00
  7.862565e+00    2.975045e+00
  7.878441e+00    2.951158e+00
  7.894317e+00    2.911146e+00
  7.910192e+00    2.906624e+00
  7.926068e+00    2.975687e+00
  7.941943e+00    2.981015e+00
  7.957819e+00    2.981852e+00
  7.973694e+00    2.907669e+00
  7.989570e+00    2.875927e+00
  8.005446e+00    2.937992e+00
  8.021321e+00    2.903283e+00
  8.037197e+00    2.979422e+00
  8.053072e+00    2.925519e+00
  8.068948e+00    2.926461e+00
  8.084823e+00    2.904983e+00
  8.100699e+00    2.924699e+00
  8.116575e+00    2.936022e+00
  8.132450e+00    2.958983e+00
  8.148326e+00    2.974611e+00
  8.164201e+00    2.958352e+00
  8.180077e+00    2.954034e+00
  8.195952e+00    2.981625e+00
  8.211828e+00    2.976978e+00
  8.227704e+00    2.932938e+00
  8.243579e+00    2.845572e+00
  8.259455e+00    2.899911e+00
  8.275330e+00    2.914209e+00
  8.291206e+00    2.901236e+00
  8.307081e+00    2.879691e+00
  8.322957e+00    2.900124e+00
  8.338833e+00    2.911857e+00
  8.354708e+00    2.940759e+00
  8.370584e+00    2.915867e+00
  8.386459e+00    2.919837e+00
  8.402335e+00    2.925557e+00
  8.418210e+00    2.943455e+00
  8.434086e+00    2.916221e+00
  8.449962e+00    2.883435e+00
  8.465837e+00    2.874987e+00
  8.481713e+00    2.860623e+00
  8.497588e+00    2.885398e+00
  8.513464e+00    2.868086e+00
  8.529339e+00    2.912602e+00
  8.545215e+00    2.947628e+00
  8.561091e+00    2.926318e+00
  8.576966e+00    2.924268e+00
  8.592842e+00    2.921391e+00
  8.608717e+00    2.873583e+00
  8.624593e+00    2.859205e+00
  8.640468e+00    2.899868e+00
  8.656344e+00    2.896502e+00
  8.672220e+00    2.886333e+00
  8.688095e+00    2.865074e+00
  8.703971e+00    2.822744e+00
  8.719846e+00    2.879627e+00
  8.735722e+00    2.860085e+00
  8.751598e+00    2.840963e+00
  8.767473e+00    2.857756e+00
  8.783349e+00    2.888047e+00
  8.799224e+00    2.933689e+00
  8.815100e+00    2.860540e+00
  8.830975e+00    2.838851e+00
  8.846851e+00    2.863843e+00
  8.862727e+00    2.898291e+00
  8.878602e+00    2.824332e+00
  8.894478e+00    2.815328e+00
  8.910353e+00    2.898987e+00
  8.926229e+00    2.886132e+00
  8.942104e+00    2.855695e+00
  8.957980e+00    2.850265e+00
  8.973856e+00    2.770406e+00
  8.989731e+00    2.805529e+00
  9.005607e+00    2.899766e+00
  9.021482e+00    2.877527e+00
  9.037358e+00    2.855213e+00
  9.053233e+00    2.829625e+00
  9.069109e+00    2.809287e+00
  9.084985e+00    2.844754e+00
  9.100860e+00    2.852196e+00
  9.116736e+00    2.852493e+00
  9.132611e+00    2.799516e+00
  9.148487e+00    2.796058e+00
  9.164362e+00    2.801646e+00
  9.180238e+00    2.862747e+00
  9.196114e+00    2.851583e+00
  9.211989e+00    2.755430e+00
  9.227865e+00    2.742274e+00
  9.243740e+00    2.782755e+00
  9.259616e+00    2.775351e+00
  9.275491e+00    2.752239e+00
  9.291367e+00    2.720275e+00
  9.307243e+00    2.727378e+00
  9.323118e+00    2.782716e+00
  9.338994e+00    2.792503e+00
  9.354869e+00    2.760674e+00
  9.370745e+00    2.764934e+00
  9.386620e+00    2.847781e+00
  9.402496e+00    2.797554e+00
  9.418372e+00    2.809640e+00
  9.434247e+00    2.769561e+00
  9.450123e+00    2.742408e+00
  9.465998e+00    2.731567e+00
  9.481874e+00    2.811010e+00
  9.497749e+00    2.800957e+00
  9.513625e+00    2.837002e+00
  9.529501e+00    2.797397e+00
  9.545376e+00    2.780297e+00
  9.561252e+00    2.738922e+00
  9.577127e+00    2.771221e+00
  9.593003e+00    2.844722e+00
  9.608878e+00    2.830774e+00
  9.624754e+00    2.762480e+00
  9.640630e+00    2.771029e+00
  9.656505e+00    2.723577e+00
  9.672381e+00    2.700381e+00
  9.688256e+00    2.737921e+00
  9.704132e+00    2.720557e+00
  9.720008e+00    2.720281e+00
  9.735883e+00    2.715148e+00
  9.751759e+00    2.802660e+00
  9.767634e+00    2.782558e+00
  9.783510e+00    2.728658e+00
  9.799385e+00    2.709478e+00
  9.815261e+00    2.697976e+00
  9.831137e+00    2.704459e+00
  9.847012e+00    2.670818e+00
  9.862888e+00    2.649099e+00
  9.878763e+00    2.702302e+00
  9.894639e+00    2.729722e+00
  9.910514e+00    2.720258e+00
  9.926390e+00    2.683829e+00
  9.942266e+00    2.739319e+00
  9.958141e+00    2.736498e+00
  9.974017e+00    2.674729e+00
  9.989892e+00    2.702702e+00
  1.000577e+01    2.678938e+00
  1.002164e+01    2.709746e+00
  1.003752e+01    2.662816e+00
  1.005339e+01    2.606735e+00
  1.006927e+01    2.617095e+00
  1.008515e+01    2.652311e+00
  1.010102e+01    2.686131e+00
  1.011690e+01    2.655687e+00
  1.013277e+01    2.651992e+00
  1.014865e+01    2.659307e+00
  1.016452e+01    2.644413e+00
  1.018040e+01    2.673108e+00
  1.019627e+01    2.629127e+00
  1.021215e+01    2.639281e+00
  1.022803e+01    2.681640e+00
  1.024390e+01    2.664869e+00
  1.025978e+01    2.654867e+00
  1.027565e+01    2.607480e+00
  1.029153e+01    2.609690e+00
  1.030740e+01    2.664627e+00
  1.032328e+01    2.654399e+00
  1.033915e+01    2.599137e+00
  1.035503e+01    2.616004e+00
  1.037091e+01    2.644295e+00
  1.038678e+01    2.605523e+00
  1.040266e+01    2.586529e+00
  1.041853e+01    2.634893e+00
  1.043441e+01    2.675774e+00
  1.045028e+01    2.592082e+00
  1.046616e+01    2.575427e+00
  1.048204e+01    2.552769e+00
  1.049791e+01    2.579224e+00
  1.051379e+01    2.598974e+00
  1.052966e+01    2.588333e+00
  1.054554e+01    2.607423e+00
  1.056141e+01    2.556939e+00
  1.057729e+01    2.588536e+00
  1.059316e+01    2.554871e+00
  1.060904e+01    2.574177e+00
  1.062492e+01    2.614029e+00
  1.064079e+01    2.568370e+00
  1.065667e+01    2.551481e+00
  1.067254e+01    2.619388e+00
  1.068842e+01    2.572499e+00
  1.070429e+01    2.564288e+00
  1.072017e+01    2.564899e+00
  1.073604e+01    2.571131e+00
  1.075192e+01    2.582837e+00
  1.076780e+01    2.566591e+00
  1.078367e+01    2.538073e+00
  1.079955e+01    2.598924e+00
  1.081542e+01    2.587128e+00
  1.083130e+01    2.540335e+00
  1.084717e+01    2.551598e+00
  1.086305e+01    2.552970e+00
  1.087892e+01    2.517021e+00
  1.089480e+01    2.554101e+00
  1.091068e+01    2.536623e+00
  1.092655e+01    2.511999e+00
  1.094243e+01    2.468948e+00
  1.095830e+01    2.503229e+00
  1.097418e+01    2.504447e+00
  1.099005e+01    2.454114e+00
  1.100593e+01    2.486041e+00
  1.102180e+01    2.498591e+00
  1.103768e+01    2.441567e+00
  1.105356e+01    2.456836e+00
  1.106943e+01    2.449912e+00
  1.108531e+01    2.473318e+00
  1.110118e+01    2.517279e+00
  1.111706e+01    2.494020e+00
  1.113293e+01    2.447061e+00
  1.114881e+01    2.458700e+00
  1.116468e+01    2.495758e+00
  1.118056e+01    2.470476e+00
  1.119644e+01    2.463301e+00
  1.121231e+01    2.477310e+00
  1.122819e+01    2.468897e+00
  1.124406e+01    2.510530e+00
  1.125994e+01    2.473833e+00
  1.127581e+01    2.454918e+00
  1.129169e+01    2.442876e+00
  1.130756e+01    2.446120e+00
  1.132344e+01    2.424762e+00
  1.133932e+01    2.415080e+00
  1.135519e+01    2.417630e+00
  1.137107e+01    2.444037e+00
  1.138694e+01    2.426698e+00
  1.140282e+01    2.395419e+00
  1.141869e+01    2.402030e+00
  1.143457e+01    2.379188e+00
  1.145045e+01    2.387952e+00
  1.146632e+01    2.374296e+00
  1.148220e+01    2.396832e+00
  1.149807e+01    2.419445e+00
  1.151395e+01    2.441279e+00
  1.152982e+01    2.394811e+00
  1.154570e+01    2.342521e+00
  1.156157e+01    2.393912e+00
  1.157745e+01    2.398579e+00
  1.159333e+01    2.392277e+00
  1.160920e+01    2.383793e+00
  1.162508e+01    2.383027e+00
  1.164095e+01    2.377553e+00
  1.165683e+01    2.342231e+00
  1.167270e+01    2.342182e+00
  1.168858e+01    2.362066e+00
  1.170445e+01    2.376325e+00
  1.172033e+01    2.409053e+00
  1.173621e+01    2.400718e+00
  1.175208e+01    2.375155e+00
  1.176796e+01    2.449604e+00
  1.178383e+01    2.414731e+00
  1.179971e+01    2.376297e+00
  1.181558e+01    2.380649e+00
  1.183146e+01    2.412132e+00
  1.184733e+01    2.406634e+00
  1.186321e+01    2.371922e+00
  1.187909e+01    2.357293e+00
  1.189496e+01    2.353967e+00
  1.191084e+01    2.385139e+00
  1.192671e+01    2.365159e+00
  1.194259e+01    2.365512e+00
  1.195846e+01    2.380648e+00
  1.197434e+01    2.362286e+00
  1.199021e+01    2.340466e+00
  1.200609e+01    2.352114e+00
  1.202197e+01    2.322188e+00
  1.203784e+01    2.324405e+00
  1.205372e+01    2.318973e+00
  1.206959e+01    2.307886e+00
  1.208547e+01    2.334177e+00
  1.210134e+01    2.361387e+00
  1.211722e+01    2.322942e+00
  1.213309e+01    2.370240e+00
  1.214897e+01    2.358063e+00
  1.216485e+01    2.281930e+00
  1.218072e+01    2.307671e+00
  1.219660e+01    2.343179e+00
  1.221247e+01    2.322223e+00
  1.222835e+01    2.342477e+00
  1.224422e+01    2.344554e+00
  1.226010e+01    2.347677e+00
  1.227597e+01    2.340271e+00
  1.229185e+01    2.311961e+00
  1.230773e+01    2.369196e+00
  1.232360e+01    2.348520e+00
  1.233948e+01    2.353942e+00
  1.235535e+01    2.350971e+00
  1.237123e+01    2.336781e+00
  1.238710e+01    2.306322e+00
  1.240298e+01    2.340663e+00
  1.241886e+01    2.344329e+00
  1.243473e+01    2.346055e+00
  1.245061e+01    2.341244e+00
  1.246648e+01    2.332210e+00
  1.248236e+01    2.343736e+00
  1.249823e+01    2.368096e+00
  1.251411e+01    2.388550e+00
  1.252998e+01    2.388510e+00
  1.254586e+01    2.273880e+00
  1.256174e+01    2.335629e+00
  1.257761e+01    2.399359e+00
  1.259349e+01    2.382989e+00
  1.260936e+01    2.418443e+00
  1.262524e+01    2.398765e+00
  1.264111e+01    2.407490e+00
  1.265699e+01    2.438613e+00
  1.267286e+01    2.486060e+00
  1.268874e+01    2.439639e+00
  1.270462e+01    2.444867e+00
  1.272049e+01    2.533257e+00
  1.273637e+01    2.562018e+00
  1.275224e+01    2.572364e+00
  1.276812e+01    2.656978e+00
  1.278399e+01    2.644992e+00
  1.279987e+01    2.677959e+00
  1.281574e+01    2.731194e+00
  1.283162e+01    2.767736e+00
  1.284750e+01    2.848452e+00
  1.286337e+01    2.960672e+00
  1.287925e+01    3.079063e+00
  1.289512e+01    3.209177e+00
  1.291100e+01    3.302445e+00
  1.292687e+01    3.477585e+00
  1.294275e+01    3.683786e+00
  1.295862e+01    3.985935e+00
  1.297450e+01    4.303814e+00
  1.299038e+01    4.692524e+00
  1.300625e+01    5.232211e+00
  1.302213e+01    5.933041e+00
  1.303800e+01    6.857218e+00
  1.305388e+01    7.855455e+00
  1.306975e+01    9.144177e+00
  1.308563e+01    1.065042e+01
  1.310150e+01    1.212146e+01
  1.311738e+01    1.361252e+01
  1.313326e+01    1.508559e+01
  1.314913e+01    1.650804e+01
  1.316501e+01    1.791256e+01
  1.318088e+01    1.900858e+01
  1.319676e+01    1.942487e+01
  1.321263e+01    1.899911e+01
  1.322851e+01    1.750248e+01
  1.324438e+01    1.550975e+01
  1.326026e+01    1.319224e+01
  1.327614e+01    1.102045e+01
  1.329201e+01    9.241834e+00
  1.330789e+01    7.847949e+00
  1.332376e+01    6.795676e+00
  1.333964e+01    5.904110e+00
  1.335551e+01    5.185513e+00
  1.337139e+01    4.689424e+00
  1.338727e+01    4.282431e+00
  1.340314e+01    4.004952e+00
  1.341902e+01    3.717176e+00
  1.343489e+01    3.473505e+00
  1.345077e+01    3.309517e+00
  1.346664e+01    3.180281e+00
  1.348252e+01    3.027540e+00
  1.349839e+01    2.906245e+00
  1.351427e+01    2.797159e+00
  1.353015e+01    2.723801e+00
  1.354602e+01    2.659177e+00
  1.356190e+01    2.617635e+00
  1.357777e+01    2.578770e+00
  1.359365e+01    2.510091e+00
  1.360952e+01    2.469088e+00
  1.362540e+01    2.462363e+00
  1.364127e+01    2.424963e+00
  1.365715e+01    2.388130e+00
  1.367303e+01    2.398143e+00
  1.368890e+01    2.321990e+00
  1.370478e+01    2.281167e+00
  1.372065e+01    2.260954e+00
  1.373653e+01    2.244280e+00
  1.375240e+01    2.285514e+00
  1.376828e+01    2.216395e+00
  1.378415e+01    2.170303e+00
  1.380003e+01    2.171286e+00
  1.381591e+01    2.176488e+00
  1.383178e+01    2.175972e+00
  1.384766e+01    2.160905e+00
  1.386353e+01    2.191107e+00
  1.387941e+01    2.163836e+00
  1.389528e+01    2.134209e+00
  1.391116e+01    2.121155e+00
  1.392703e+01    2.115943e+00
  1.394291e+01    2.076572e+00
  1.395879e+01    2.094678e+00
  1.397466e+01    2.089831e+00
  1.399054e+01    2.076176e+00
  1.400641e+01    2.059568e+00
  1.402229e+01    2.072782e+00
  1.403816e+01    2.059527e+00
  1.405404e+01    2.100558e+00
  1.406991e+01    2.102927e+00
  1.408579e+01    2.064115e+00
  1.410167e+01    2.013565e+00
  1.411754e+01    2.015375e+00
  1.413342e+01    2.014659e+00
  1.414929e+01    2.011313e+00
  1.416517e+01    2.035931e+00
  1.418104e+01    2.019338e+00
  1.419692e+01    2.005589e+00
  1.421279e+01    2.013333e+00
  1.422867e+01    2.046105e+00
  1.424455e+01    2.019705e+00
  1.426042e+01    1.997483e+00
  1.427630e+01    1.992719e+00
  1.429217e+01    1.992931e+00
  1.430805e+01    1.969915e+00
  1.432392e+01    1.978333e+00
  1.433980e+01    1.970919e+00
  1.435568e+01    1.987273e+00
  1.437155e+01    2.010920e+00
  1.438743e+01    1.981860e+00
  1.440330e+01    1.974333e+00
  1.441918e+01    1.992938e+00
  1.443505e+01    1.986264e+00
  1.445093e+01    1.955913e+00
  1.446680e+01    1.936764e+00
  1.448268e+01    1.960071e+00
  1.449856e+01    1.948720e+00
  1.451443e+01    1.915193e+00
  1.453031e+01    1.931503e+00
  1.454618e+01    1.938919e+00
  1.456206e+01    1.953788e+00
  1.457793e+01    1.917421e+00
  1.459381e+01    1.899172e+00
  1.460968e+01    1.918456e+00
  1.462556e+01    1.963540e+00
  1.464144e+01    1.932088e+00
  1.465731e+01    1.942301e+00
  1.467319e+01    1.928257e+00
  1.468906e+01    1.925423e+00
  1.470494e+01    1.892362e+00
  1.472081e+01    1.905461e+00
  1.473669e+01    1.916224e+00
  1.475256e+01    1.928586e+00
  1.476844e+01    1.906971e+00
  1.478432e+01    1.929670e+00
  1.480019e+01    1.952080e+00
  1.481607e+01    1.963260e+00
  1.483194e+01    1.961732e+00
  1.484782e+01    1.941547e+00
  1.486369e+01    1.910568e+00
  1.487957e+01    1.964470e+00
  1.489544e+01    1.990237e+00
  1.491132e+01    1.974212e+00
  1.492720e+01    2.006459e+00
  1.494307e+01    2.005003e+00
  1.495895e+01    2.006776e+00
  1.497482e+01    2.065686e+00
  1.499070e+01    2.091837e+00
  1.500657e+01    2.153189e+00
  1.502245e+01    2.190278e+00
  1.503832e+01    2.277738e+00
  1.505420e+01    2.388158e+00
  1.507008e+01    2.472282e+00
  1.508595e+01    2.625959e+00
  1.510183e+01    2.773499e+00
  1.511770e+01    3.058169e+00
  1.513358e+01    3.295452e+00
  1.514945e+01    3.568280e+00
  1.516533e+01    4.015967e+00
  1.518120e+01    4.486490e+00
  1.519708e+01    4.923002e+00
  1.521296e+01    5.275489e+00
  1.522883e+01    5.613818e+00
  1.524471e+01    5.988146e+00
  1.526058e+01    6.269993e+00
  1.527646e+01    6.454671e+00
  1.529233e+01    6.447114e+00
  1.530821e+01    6.404197e+00
  1.532409e+01    6.011908e+00
  1.533996e+01    5.338699e+00
  1.535584e+01    4.738666e+00
  1.537171e+01    4.175119e+00
  1.538759e+01    3.648514e+00
  1.540346e+01    3.271475e+00
  1.541934e+01    3.002398e+00
  1.543521e+01    2.765634e+00
  1.545109e+01    2.564465e+00
  1.546697e+01    2.408094e+00
  1.548284e+01    2.296576e+00
  1.549872e+01    2.233948e+00
  1.551459e+01    2.132286e+00
  1.553047e+01    2.069284e+00
  1.554634e+01    2.020119e+00
  1.556222e+01    2.008499e+00
  1.557809e+01    1.936926e+00
  1.559397e+01    1.907583e+00
  1.560985e+01    1.912945e+00
  1.562572e+01    1.888331e+00
  1.564160e+01    1.871199e+00
  1.565747e+01    1.827191e+00
  1.567335e+01    1.817276e+00
  1.568922e+01    1.805861e+00
  1.570510e+01    1.765242e+00
  1.572097e+01    1.755775e+00
  1.573685e+01    1.748794e+00
  1.575273e+01    1.754082e+00
  1.576860e+01    1.738648e+00
  1.578448e+01    1.716051e+00
  1.580035e+01    1.704367e+00
  1.581623e+01    1.679818e+00
  1.583210e+01    1.673076e+00
  1.584798e+01    1.676568e+00
  1.586385e+01    1.671078e+00
  1.587973e+01    1.626961e+00
  1.589561e+01    1.634390e+00
  1.591148e+01    1.627891e+00
  1.592736e+01    1.638244e+00
  1.594323e+01    1.648642e+00
  1.595911e+01    1.660357e+00
  1.597498e+01    1.668337e+00
  1.599086e+01    1.632481e+00
  1.600673e+01    1.600593e+00
  1.602261e+01    1.601151e+00
  1.603849e+01    1.602329e+00
  1.605436e+01    1.622546e+00
  1.607024e+01    1.623914e+00
  1.608611e+01    1.617026e+00
  1.610199e+01    1.617443e+00
  1.611786e+01    1.611625e+00
  1.613374e+01    1.600071e+00
  1.614961e+01    1.624337e+00
  1.616549e+01    1.590811e+00
  1.618137e+01    1.561673e+00
  1.619724e+01    1.585913e+00
  1.621312e+01    1.582829e+00
  1.622899e+01    1.550904e+00
  1.624487e+01    1.570273e+00
  1.626074e+01    1.575905e+00
  1.627662e+01    1.584137e+00
  1.629250e+01    1.553348e+00
  1.630837e+01    1.554717e+00
  1.632425e+01    1.546674e+00
  1.634012e+01    1.566895e+00
  1.635600e+01    1.555524e+00
  1.637187e+01    1.528828e+00
  1.638775e+01    1.554940e+00
  1.640362e+01    1.533401e+00
  1.641950e+01    1.533456e+00
  1.643538e+01    1.546232e+00
  1.645125e+01    1.555369e+00
  1.646713e+01    1.535363e+00
  1.648300e+01    1.516847e+00
  1.649888e+01    1.534165e+00
  1.651475e+01    1.513248e+00
  1.653063e+01    1.528538e+00
  1.654650e+01    1.531901e+00
  1.656238e+01    1.511949e+00
  1.657826e+01    1.514090e+00
  1.659413e+01    1.503082e+00
  1.661001e+01    1.508285e+00
  1.662588e+01    1.510839e+00
  1.664176e+01    1.472965e+00
  1.665763e+01    1.526417e+00
  1.667351e+01    1.530410e+00
  1.668938e+01    1.495729e+00
  1.670526e+01    1.503161e+00
  1.672114e+01    1.532720e+00
  1.673701e+01    1.529879e+00
  1.675289e+01    1.490251e+00
  1.676876e+01    1.458967e+00
  1.678464e+01    1.460651e+00
  1.680051e+01    1.494004e+00
  1.681639e+01    1.474036e+00
  1.683226e+01    1.457753e+00
  1.684814e+01    1.467417e+00
  1.686402e+01    1.469741e+00
  1.687989e+01    1.460564e+00
  1.689577e+01    1.473180e+00
  1.691164e+01    1.474571e+00
  1.692752e+01    1.433700e+00
  1.694339e+01    1.454187e+00
  1.695927e+01    1.459353e+00
  1.697514e+01    1.450335e+00
  1.699102e+01    1.468370e+00
  1.700690e+01    1.476168e+00
  1.702277e+01    1.464941e+00
  1.703865e+01    1.454742e+00
  1.705452e+01    1.427570e+00
  1.707040e+01    1.430512e+00
  1.708627e+01    1.436458e+00
  1.710215e+01    1.436856e+00
  1.711802e+01    1.402537e+00
  1.713390e+01    1.436187e+00
  1.714978e+01    1.435530e+00
  1.716565e+01    1.427526e+00
  1.718153e+01    1.417371e+00
  1.719740e+01    1.389759e+00
  1.721328e+01    1.400291e+00
  1.722915e+01    1.391229e+00
  1.724503e+01    1.415556e+00
  1.726091e+01    1.413704e+00
  1.727678e+01    1.429759e+00
  1.729266e+01    1.399279e+00
  1.730853e+01    1.395517e+00
  1.732441e+01    1.372464e+00
  1.734028e+01    1.353505e+00
  1.735616e+01    1.339556e+00
  1.737203e+01    1.363067e+00
  1.738791e+01    1.381499e+00
  1.740379e+01    1.344724e+00
  1.741966e+01    1.372642e+00
  1.743554e+01    1.365184e+00
  1.745141e+01    1.375847e+00
  1.746729e+01    1.386948e+00
  1.748316e+01    1.369109e+00
  1.749904e+01    1.334216e+00
  1.751491e+01    1.379383e+00
  1.753079e+01    1.353412e+00
  1.754667e+01    1.346192e+00
  1.756254e+01    1.367489e+00
  1.757842e+01    1.399703e+00
  1.759429e+01    1.356235e+00
  1.761017e+01    1.340532e+00
  1.762604e+01    1.350187e+00
  1.764192e+01    1.342613e+00
  1.765779e+01    1.355909e+00
  1.767367e+01    1.356019e+00
  1.768955e+01    1.335267e+00
  1.770542e+01    1.346232e+00
  1.772130e+01    1.352752e+00
  1.773717e+01    1.360588e+00
  1.775305e+01    1.340637e+00
  1.776892e+01    1.354975e+00
  1.778480e+01    1.359202e+00
  1.780067e+01    1.335115e+00
  1.781655e+01    1.343277e+00
  1.783243e+01    1.344021e+00
  1.784830e+01    1.338087e+00
  1.786418e+01    1.322301e+00
  1.788005e+01    1.301639e+00
  1.789593e+01    1.298304e+00
  1.791180e+01    1.332884e+00
  1.792768e+01    1.332893e+00
  1.794355e+01    1.342499e+00
  1.795943e+01    1.313468e+00
  1.797531e+01    1.298000e+00
  1.799118e+01    1.303238e+00
  1.800706e+01    1.292457e+00
  1.802293e+01    1.305502e+00
  1.803881e+01    1.327751e+00
  1.805468e+01    1.308736e+00
  1.807056e+01    1.308333e+00
  1.808643e+01    1.288506e+00
  1.810231e+01    1.285598e+00
  1.811819e+01    1.290747e+00
  1.813406e+01    1.296046e+00
  1.814994e+01    1.281077e+00
  1.816581e+01    1.303605e+00
  1.818169e+01    1.267858e+00
  1.819756e+01    1.283856e+00
  1.821344e+01    1.304919e+00
  1.822932e+01    1.326817e+00
  1.824519e+01    1.304525e+00
  1.826107e+01    1.268657e+00
  1.827694e+01    1.279997e+00
  1.829282e+01    1.270661e+00
  1.830869e+01    1.246814e+00
  1.832457e+01    1.257570e+00
  1.834044e+01    1.274817e+00
  1.835632e+01    1.289678e+00
  1.837220e+01    1.313768e+00
  1.838807e+01    1.298265e+00
  1.840395e+01    1.273286e+00
  1.841982e+01    1.254568e+00
  1.843570e+01    1.273778e+00
  1.845157e+01    1.293560e+00
  1.846745e+01    1.261941e+00
  1.848332e+01    1.266372e+00
  1.849920e+01    1.289680e+00
  1.851508e+01    1.268222e+00
  1.853095e+01    1.254426e+00
  1.854683e+01    1.255599e+00
  1.856270e+01    1.254118e+00
  1.857858e+01    1.262697e+00
  1.859445e+01    1.252834e+00
  1.861033e+01    1.275036e+00
  1.862620e+01    1.271194e+00
  1.864208e+01    1.230211e+00
  1.865796e+01    1.212649e+00
  1.867383e+01    1.236432e+00
  1.868971e+01    1.221397e+00
  1.870558e+01    1.236331e+00
  1.872146e+01    1.232766e+00
  1.873733e+01    1.228130e+00
  1.875321e+01    1.218867e+00
  1.876908e+01    1.226045e+00
  1.878496e+01    1.240865e+00
  1.880084e+01    1.241056e+00
  1.881671e+01    1.229195e+00
  1.883259e+01    1.198616e+00
  1.884846e+01    1.236355e+00
  1.886434e+01    1.206513e+00
  1.888021e+01    1.216231e+00
  1.889609e+01    1.221225e+00
  1.891196e+01    1.215362e+00
  1.892784e+01    1.213198e+00
  1.894372e+01    1.224338e+00
  1.895959e+01    1.197831e+00
  1.897547e+01    1.194727e+00
  1.899134e+01    1.204625e+00
  1.900722e+01    1.214820e+00
  1.902309e+01    1.221175e+00
  1.903897e+01    1.184251e+00
  1.905484e+01    1.201214e+00
  1.907072e+01    1.214196e+00
  1.908660e+01    1.196136e+00
  1.910247e+01    1.205461e+00
  1.911835e+01    1.218817e+00
  1.913422e+01    1.195893e+00
  1.915010e+01    1.211742e+00
  1.916597e+01    1.234236e+00
  1.918185e+01    1.181184e+00
  1.919773e+01    1.178389e+00
  1.921360e+01    1.166675e+00
  1.922948e+01    1.184728e+00
  1.924535e+01    1.203416e+00
  1.926123e+01    1.180199e+00
  1.927710e+01    1.168686e+00
  1.929298e+01    1.188608e+00
  1.930885e+01    1.197492e+00
  1.932473e+01    1.192527e+00
  1.934061e+01    1.171750e+00
  1.935648e+01    1.180316e+00
  1.937236e+01    1.201711e+00
  1.938823e+01    1.202074e+00
  1.940411e+01    1.208149e+00
  1.941998e+01    1.177000e+00
  1.943586e+01    1.156767e+00
  1.945173e+01    1.160794e+00
  1.946761e+01    1.173758e+00
  1.948349e+01    1.177488e+00
  1.949936e+01    1.150856e+00
  1.951524e+01    1.137847e+00
  1.953111e+01    1.167351e+00
  1.954699e+01    1.171755e+00
  1.956286e+01    1.165278e+00
  1.957874e+01    1.148953e+00
  1.959461e+01    1.133179e+00
  1.961049e+01    1.158362e+00
  1.962637e+01    1.166271e+00
  1.964224e+01    1.178519e+00
  1.965812e+01    1.175384e+00
  1.967399e+01    1.167817e+00
  1.968987e+01    1.158230e+00
  1.970574e+01    1.143886e+00
  1.972162e+01    1.140076e+00
  1.973749e+01    1.146654e+00
  1.975337e+01    1.154773e+00
  1.976925e+01    1.129035e+00
  1.978512e+01    1.141624e+00
  1.980100e+01    1.121649e+00
  1.981687e+01    1.127417e+00
  1.983275e+01    1.147568e+00
  1.984862e+01    1.156918e+00
  1.986450e+01    1.143525e+00
  1.988037e+01    1.131699e+00
  1.989625e+01    1.136909e+00
  1.991213e+01    1.133255e+00
  1.992800e+01    1.135323e+00
  1.994388e+01    1.142193e+00
  1.995975e+01    1.160038e+00
  1.997563e+01    1.146362e+00
  1.999150e+01    1.151956e+00
  2.000738e+01    1.125912e+00
  2.002325e+01    1.147076e+00
  2.003913e+01    1.143124e+00
  2.005501e+01    1.137105e+00
  2.007088e+01    1.131111e+00
  2.008676e+01    1.134507e+00
  2.010263e+01    1.145502e+00
  2.011851e+01    1.114879e+00
  2.013438e+01    1.113341e+00
  2.015026e+01    1.084532e+00
  2.016614e+01    1.112120e+00
  2.018201e+01    1.109714e+00
  2.019789e+01    1.136076e+00
  2.021376e+01    1.144197e+00
  2.022964e+01    1.119876e+00
  2.024551e+01    1.117419e+00
  2.026139e+01    1.106051e+00
  2.027726e+01    1.119456e+00
  2.029314e+01    1.132649e+00
  2.030902e+01    1.146471e+00
  2.032489e+01    1.120553e+00
  2.034077e+01    1.110810e+00
  2.035664e+01    1.121121e+00
  2.037252e+01    1.126660e+00
  2.038839e+01    1.116277e+00
  2.040427e+01    1.106028e+00
  2.042014e+01    1.099517e+00
  2.043602e+01    1.104042e+00
  2.045190e+01    1.107554e+00
  2.046777e+01    1.099363e+00
  2.048365e+01    1.103641e+00
  2.049952e+01    1.104490e+00
  2.051540e+01    1.087388e+00
  2.053127e+01    1.080058e+00
  2.054715e+01    1.090235e+00
  2.056302e+01    1.084251e+00
  2.057890e+01    1.108616e+00
  2.059478e+01    1.096150e+00
  2.061065e+01    1.094228e+00
  2.062653e+01    1.088805e+00
  2.064240e+01    1.066078e+00
  2.065828e+01    1.093982e+00
  2.067415e+01    1.121728e+00
  2.069003e+01    1.107432e+00
  2.070590e+01    1.084230e+00
  2.072178e+01    1.104551e+00
  2.073766e+01    1.119968e+00
  2.075353e+01    1.108064e+00
  2.076941e+01    1.093655e+00
  2.078528e+01    1.088376e+00
  2.080116e+01    1.083583e+00
  2.081703e+01    1.099425e+00
  2.083291e+01    1.093788e+00
  2.084878e+01    1.104938e+00
  2.086466e+01    1.101757e+00
  2.088054e+01    1.076474e+00
  2.089641e+01    1.091630e+00
  2.091229e+01    1.097117e+00
  2.092816e+01    1.088370e+00
  2.094404e+01    1.069738e+00
  2.095991e+01    1.076755e+00
  2.097579e+01    1.094948e+00
  2.099166e+01    1.089603e+00
  2.100754e+01    1.073731e+00
  2.102342e+01    1.100727e+00
  2.103929e+01    1.096997e+00
  2.105517e+01    1.097791e+00
  2.107104e+01    1.096916e+00
  2.108692e+01    1.107555e+00
  2.110279e+01    1.099610e+00
  2.111867e+01    1.072064e+00
  2.113455e+01    1.091869e+00
  2.115042e+01    1.093001e+00
  2.116630e+01    1.089215e+00
  2.118217e+01    1.113112e+00
  2.119805e+01    1.115379e+00
  2.121392e+01    1.100482e+00
  2.122980e+01    1.120802e+00
  2.124567e+01    1.122948e+00
  2.126155e+01    1.107942e+00
  2.127743e+01    1.123224e+00
  2.129330e+01    1.140392e+00
  2.130918e+01    1.137889e+00
  2.132505e+01    1.140454e+00
  2.134093e+01    1.156428e+00
  2.135680e+01    1.146761e+00
  2.137268e+01    1.170182e+00
  2.138855e+01    1.171262e+00
  2.140443e+01    1.180536e+00
  2.142031e+01    1.185318e+00
  2.143618e+01    1.202455e+00
  2.145206e+01    1.236660e+00
  2.146793e+01    1.244503e+00
  2.148381e+01    1.255315e+00
  2.149968e+01    1.281890e+00
  2.151556e+01    1.304144e+00
  2.153143e+01    1.329302e+00
  2.154731e+01    1.378582e+00
  2.156319e+01    1.405248e+00
  2.157906e+01    1.443502e+00
  2.159494e+01    1.493249e+00
  2.161081e+01    1.561322e+00
  2.162669e+01    1.634781e+00
  2.164256e+01    1.742718e+00
  2.165844e+01    1.840402e+00
  2.167431e+01    2.025044e+00
  2.169019e+01    2.164219e+00
  2.170607e+01    2.348187e+00
  2.172194e+01    2.579477e+00
  2.173782e+01    2.893375e+00
  2.175369e+01    3.314248e+00
  2.176957e+01    3.793992e+00
  2.178544e+01    4.347980e+00
  2.180132e+01    4.995306e+00
  2.181719e+01    5.760420e+00
  2.183307e+01    6.486430e+00
  2.184895e+01    7.298708e+00
  2.186482e+01    8.177154e+00
  2.188070e+01    9.064747e+00
  2.189657e+01    9.838596e+00
  2.191245e+01    1.047747e+01
  2.192832e+01    1.079074e+01
  2.194420e+01    1.055707e+01
  2.196007e+01    9.963452e+00
  2.197595e+01    9.012472e+00
  2.199183e+01    7.862226e+00
  2.200770e+01    6.725578e+00
  2.202358e+01    5.631514e+00
  2.203945e+01    4.713449e+00
  2.205533e+01    4.043823e+00
  2.207120e+01    3.530930e+00
  2.208708e+01    3.071975e+00
  2.210296e+01    2.691897e+00
  2.211883e+01    2.428542e+00
  2.213471e+01    2.222448e+00
  2.215058e+01    2.017381e+00
  2.216646e+01    1.879939e+00
  2.218233e+01    1.749496e+00
  2.219821e+01    1.675478e+00
  2.221408e+01    1.593744e+00
  2.222996e+01    1.523353e+00
  2.224584e+01    1.449924e+00
  2.226171e+01    1.401244e+00
  2.227759e+01    1.351168e+00
  2.229346e+01    1.308380e+00
  2.230934e+01    1.294668e+00
  2.232521e+01    1.261225e+00
  2.234109e+01    1.228389e+00
  2.235696e+01    1.212505e+00
  2.237284e+01    1.163444e+00
  2.238872e+01    1.138435e+00
  2.240459e+01    1.130753e+00
  2.242047e+01    1.113076e+00
  2.243634e+01    1.104807e+00
  2.245222e+01    1.079933e+00
  2.246809e+01    1.088111e+00
  2.248397e+01    1.085467e+00
  2.249984e+01    1.068413e+00
  2.251572e+01    1.072883e+00
  2.253160e+01    1.049990e+00
  2.254747e+01    1.036414e+00
  2.256335e+01    1.025911e+00
  2.257922e+01    1.029963e+00
  2.259510e+01    1.005491e+00
  2.261097e+01    1.010749e+00
  2.262685e+01    1.014551e+00
  2.264272e+01    9.810047e-01
  2.265860e+01    9.984500e-01
  2.267448e+01    1.002574e+00
  2.269035e+01    9.937145e-01
  2.270623e+01    9.826120e-01
  2.272210e+01    9.906411e-01
  2.273798e+01    9.839063e-01
  2.275385e+01    9.574355e-01
  2.276973e+01    9.368997e-01
  2.278560e+01    9.499920e-01
  2.280148e+01    9.598035e-01
  2.281736e+01    9.608349e-01
  2.283323e+01    9.539684e-01
  2.284911e+01    9.422616e-01
  2.286498e+01    9.330093e-01
  2.288086e+01    9.344636e-01
  2.289673e+01    9.157061e-01
  2.291261e+01    9.161882e-01
  2.292848e+01    9.284844e-01
  2.294436e+01    9.379988e-01
  2.296024e+01    9.261367e-01
  2.297611e+01    9.170880e-01
  2.299199e+01    9.067549e-01
  2.300786e+01    9.077767e-01
  2.302374e+01    9.064434e-01
  2.303961e+01    9.092337e-01
  2.305549e+01    8.996875e-01
  2.307137e+01    9.045724e-01
  2.308724e+01    9.085765e-01
  2.310312e+01    9.128586e-01
  2.311899e+01    9.236825e-01
  2.313487e+01    9.114013e-01
  2.315074e+01    9.134061e-01
  2.316662e+01    9.194507e-01
  2.318249e+01    9.039770e-01
  2.319837e+01    8.970225e-01
  2.321425e+01    8.668959e-01
  2.323012e+01    8.826059e-01
  2.324600e+01    8.819805e-01
  2.326187e+01    8.840877e-01
  2.327775e+01    8.866441e-01
  2.329362e+01    8.881955e-01
  2.330950e+01    8.705700e-01
  2.332537e+01    8.460686e-01
  2.334125e+01    8.803127e-01
  2.335713e+01    8.853720e-01
  2.337300e+01    8.854830e-01
  2.338888e+01    8.707979e-01
  2.340475e+01    8.647391e-01
  2.342063e+01    8.737069e-01
  2.343650e+01    8.506021e-01
  2.345238e+01    8.635476e-01
  2.346825e+01    8.614920e-01
  2.348413e+01    8.733163e-01
  2.350001e+01    8.691092e-01
  2.351588e+01    8.648292e-01
  2.353176e+01    8.535454e-01
  2.354763e+01    8.573974e-01
  2.356351e+01    8.424390e-01
  2.357938e+01    8.561073e-01
  2.359526e+01    8.687680e-01
  2.361113e+01    8.575507e-01
  2.362701e+01    8.555707e-01
  2.364289e+01    8.642216e-01
  2.365876e+01    8.593466e-01
  2.367464e+01    8.332855e-01
  2.369051e+01    8.320064e-01
  2.370639e+01    8.274407e-01
  2.372226e+01    8.346014e-01
  2.373814e+01    8.408078e-01
  2.375401e+01    8.519492e-01
  2.376989e+01    8.573294e-01
  2.378577e+01    8.480508e-01
  2.380164e+01    8.383899e-01
  2.381752e+01    8.301257e-01
  2.383339e+01    8.153496e-01
  2.384927e+01    8.047304e-01
  2.386514e+01    7.986921e-01
  2.388102e+01    7.965936e-01
  2.389689e+01    8.028725e-01
  2.391277e+01    8.056016e-01
  2.392865e+01    8.106432e-01
  2.394452e+01    8.002291e-01
  2.396040e+01    7.992741e-01
  2.397627e+01    8.232789e-01
  2.399215e+01    7.888392e-01
  2.400802e+01    7.862540e-01
  2.402390e+01    7.868282e-01
  2.403978e+01    7.917434e-01
  2.405565e+01    8.132208e-01
  2.407153e+01    8.140978e-01
  2.408740e+01    8.014328e-01
  2.410328e+01    8.072859e-01
  2.411915e+01    7.845412e-01
  2.413503e+01    7.821916e-01
  2.415090e+01    7.905349e-01
  2.416678e+01    8.004716e-01
  2.418266e+01    8.204466e-01
  2.419853e+01    7.918344e-01
  2.421441e+01    8.017176e-01
  2.423028e+01    8.054869e-01
  2.424616e+01    7.704911e-01
  2.426203e+01    7.964543e-01
  2.427791e+01    7.950451e-01
  2.429378e+01    7.995180e-01
  2.430966e+01    8.031247e-01
  2.432554e+01    7.926791e-01
  2.434141e+01    7.853828e-01
  2.435729e+01    7.964551e-01
  2.437316e+01    7.906831e-01
  2.438904e+01    8.002511e-01
  2.440491e+01    7.930783e-01
  2.442079e+01    7.860644e-01
  2.443666e+01    8.029010e-01
  2.445254e+01    8.169885e-01
  2.446842e+01    8.010020e-01
  2.448429e+01    8.025208e-01
  2.450017e+01    8.018090e-01
  2.451604e+01    8.091848e-01
  2.453192e+01    8.071942e-01
  2.454779e+01    7.814782e-01
  2.456367e+01    7.965161e-01
  2.457954e+01    7.798772e-01
  2.459542e+01    7.800702e-01
  2.461130e+01    7.794909e-01
  2.462717e+01    7.748516e-01
  2.464305e+01    8.117887e-01
  2.465892e+01    8.132056e-01
  2.467480e+01    7.996866e-01
  2.469067e+01    7.915173e-01
  2.470655e+01    7.980896e-01
  2.472242e+01    7.869294e-01
  2.473830e+01    7.838836e-01
  2.475418e+01    7.920478e-01
  2.477005e+01    7.928292e-01
  2.478593e+01    8.074562e-01
  2.480180e+01    8.005161e-01
  2.481768e+01    8.148082e-01
  2.483355e+01    8.211706e-01
  2.484943e+01    8.153997e-01
  2.486530e+01    8.095601e-01
  2.488118e+01    8.112872e-01
  2.489706e+01    7.962759e-01
  2.491293e+01    8.162135e-01
  2.492881e+01    8.134076e-01
  2.494468e+01    8.166812e-01
  2.496056e+01    8.165138e-01
  2.497643e+01    8.146511e-01
  2.499231e+01    7.936010e-01
  2.500819e+01    7.964493e-01
  2.502406e+01    7.867831e-01
  2.503994e+01    7.984989e-01
  2.505581e+01    8.094162e-01
  2.507169e+01    8.077093e-01
  2.508756e+01    8.188806e-01
  2.510344e+01    8.047661e-01
  2.511931e+01    8.202589e-01
  2.513519e+01    8.249422e-01
  2.515107e+01    8.183035e-01
  2.516694e+01    8.359005e-01
  2.518282e+01    8.557638e-01
  2.519869e+01    8.539897e-01
  2.521457e+01    8.439842e-01
  2.523044e+01    8.512422e-01
  2.524632e+01    8.604617e-01
  2.526219e+01    8.532953e-01
  2.527807e+01    8.723584e-01
  2.529395e+01    8.822132e-01
  2.530982e+01    8.621192e-01
  2.532570e+01    8.614024e-01
  2.534157e+01    8.912256e-01
  2.535745e+01    9.037000e-01
  2.537332e+01    9.134448e-01
  2.538920e+01    9.019791e-01
  2.540507e+01    9.185449e-01
  2.542095e+01    9.149169e-01
  2.543683e+01    9.374491e-01
  2.545270e+01    9.444980e-01
  2.546858e+01    9.514079e-01
  2.548445e+01    9.644730e-01
  2.550033e+01    9.689665e-01
  2.551620e+01    9.861513e-01
  2.553208e+01    1.027775e+00
  2.554795e+01    1.049649e+00
  2.556383e+01    1.049335e+00
  2.557971e+01    1.081847e+00
  2.559558e+01    1.093096e+00
  2.561146e+01    1.103367e+00
  2.562733e+01    1.147184e+00
  2.564321e+01    1.143060e+00
  2.565908e+01    1.190617e+00
  2.567496e+01    1.272572e+00
  2.569083e+01    1.351457e+00
  2.570671e+01    1.409566e+00
  2.572259e+01    1.494718e+00
  2.573846e+01    1.601384e+00
  2.575434e+01    1.704770e+00
  2.577021e+01    1.880183e+00
  2.578609e+01    2.053560e+00
  2.580196e+01    2.273575e+00
  2.581784e+01    2.585952e+00
  2.583371e+01    2.917021e+00
  2.584959e+01    3.362576e+00
  2.586547e+01    3.794448e+00
  2.588134e+01    4.383261e+00
  2.589722e+01    4.996016e+00
  2.591309e+01    5.711180e+00
  2.592897e+01    6.471148e+00
  2.594484e+01    7.277650e+00
  2.596072e+01    8.022331e+00
  2.597660e+01    8.591860e+00
  2.599247e+01    8.887403e+00
  2.600835e+01    8.840307e+00
  2.602422e+01    8.465962e+00
  2.604010e+01    7.836857e+00
  2.605597e+01    6.983335e+00
  2.607185e+01    6.111728e+00
  2.608772e+01    5.222086e+00
  2.610360e+01    4.425015e+00
  2.611948e+01    3.813606e+00
  2.613535e+01    3.290303e+00
  2.615123e+01    2.838308e+00
  2.616710e+01    2.533815e+00
  2.618298e+01    2.266285e+00
  2.619885e+01    2.060318e+00
  2.621473e+01    1.903541e+00
  2.623060e+01    1.719192e+00
  2.624648e+01    1.609405e+00
  2.626236e+01    1.514973e+00
  2.627823e+01    1.427651e+00
  2.629411e+01    1.341056e+00
  2.630998e+01    1.292388e+00
  2.632586e+01    1.235087e+00
  2.634173e+01    1.179798e+00
  2.635761e+01    1.160800e+00
  2.637348e+01    1.147955e+00
  2.638936e+01    1.127421e+00
  2.640524e+01    1.096237e+00
  2.642111e+01    1.067913e+00
  2.643699e+01    1.022438e+00
  2.645286e+01    1.008047e+00
  2.646874e+01    1.007795e+00
  2.648461e+01    1.001571e+00
  2.650049e+01    9.809983e-01
  2.651636e+01    9.847459e-01
  2.653224e+01    9.870773e-01
  2.654812e+01    9.963587e-01
  2.656399e+01    9.653076e-01
  2.657987e+01    9.541408e-01
  2.659574e+01    9.400605e-01
  2.661162e+01    9.429643e-01
  2.662749e+01    9.383640e-01
  2.664337e+01    9.076188e-01
  2.665924e+01    9.211076e-01
  2.667512e+01    9.231267e-01
  2.669100e+01    9.383630e-01
  2.670687e+01    9.313794e-01
  2.672275e+01    9.349357e-01
  2.673862e+01    9.420644e-01
  2.675450e+01    9.257393e-01
  2.677037e+01    9.165092e-01
  2.678625e+01    9.260076e-01
  2.680212e+01    9.209104e-01
  2.681800e+01    9.231709e-01
  2.683388e+01    9.204337e-01
  2.684975e+01    9.189686e-01
  2.686563e+01    9.279814e-01
  2.688150e+01    9.599965e-01
  2.689738e+01    9.528260e-01
  2.691325e+01    9.482969e-01
  2.692913e+01    9.405999e-01
  2.694501e+01    9.540262e-01
  2.696088e+01    9.395983e-01
  2.697676e+01    9.671776e-01
  2.699263e+01    9.951546e-01
  2.700851e+01    1.016379e+00
  2.702438e+01    1.038666e+00
  2.704026e+01    1.078736e+00
  2.705613e+01    1.111576e+00
  2.707201e+01    1.161208e+00
  2.708789e+01    1.229799e+00
  2.710376e+01    1.298238e+00
  2.711964e+01    1.361039e+00
  2.713551e+01    1.483151e+00
  2.715139e+01    1.598824e+00
  2.716726e+01    1.753091e+00
  2.718314e+01    1.933252e+00
  2.719901e+01    2.113632e+00
  2.721489e+01    2.290714e+00
  2.723077e+01    2.442406e+00
  2.724664e+01    2.551409e+00
  2.726252e+01    2.569898e+00
  2.727839e+01    2.520211e+00
  2.729427e+01    2.417175e+00
  2.731014e+01    2.261894e+00
  2.732602e+01    2.060937e+00
  2.734189e+01    1.877651e+00
  2.735777e+01    1.691316e+00
  2.737365e+01    1.526738e+00
  2.738952e+01    1.398511e+00
  2.740540e+01    1.305009e+00
  2.742127e+01    1.246228e+00
  2.743715e+01    1.166170e+00
  2.745302e+01    1.102452e+00
  2.746890e+01    1.061046e+00
  2.748477e+01    1.051364e+00
  2.750065e+01    1.017538e+00
  2.751653e+01    9.950515e-01
  2.753240e+01    9.659579e-01
  2.754828e+01    9.549550e-01
  2.756415e+01    9.458601e-01
  2.758003e+01    9.065013e-01
  2.759590e+01    8.811589e-01
  2.761178e+01    9.047409e-01
  2.762765e+01    8.922301e-01
  2.764353e+01    8.878348e-01
  2.765941e+01    8.639501e-01
  2.767528e+01    8.534923e-01
  2.769116e+01    8.532386e-01
  2.770703e+01    8.366960e-01
  2.772291e+01    8.590035e-01
  2.773878e+01    8.752106e-01
  2.775466e+01    8.334547e-01
  2.777054e+01    8.212391e-01
  2.778641e+01    8.301741e-01
  2.780229e+01    8.288054e-01
  2.781816e+01    8.409922e-01
  2.783404e+01    8.424190e-01
  2.784991e+01    8.348721e-01
  2.786579e+01    8.296794e-01
  2.788166e+01    8.272439e-01
  2.789754e+01    8.128670e-01
  2.791342e+01    8.190991e-01
  2.792929e+01    8.392770e-01
  2.794517e+01    8.072687e-01
  2.796104e+01    7.916765e-01
  2.797692e+01    8.058167e-01
  2.799279e+01    8.165746e-01
  2.800867e+01    8.137008e-01
  2.802454e+01    7.936087e-01
  2.804042e+01    8.072538e-01
  2.805630e+01    7.982600e-01
  2.807217e+01    8.081743e-01
  2.808805e+01    8.207175e-01
  2.810392e+01    7.813411e-01
  2.811980e+01    7.747726e-01
  2.813567e+01    7.768624e-01
  2.815155e+01    7.801574e-01
  2.816742e+01    7.836532e-01
  2.818330e+01    8.043171e-01
  2.819918e+01    7.847983e-01
  2.821505e+01    7.850713e-01
  2.823093e+01    7.851980e-01
  2.824680e+01    7.688102e-01
  2.826268e+01    7.790144e-01
  2.827855e+01    7.771828e-01
  2.829443e+01    7.696582e-01
  2.831030e+01    7.830641e-01
  2.832618e+01    7.875761e-01
  2.834206e+01    7.998229e-01
  2.835793e+01    7.926342e-01
  2.837381e+01    7.827104e-01
  2.838968e+01    7.853504e-01
  2.840556e+01    7.860508e-01
  2.842143e+01    7.863504e-01
  2.843731e+01    7.751418e-01
  2.845318e+01    7.606755e-01
  2.846906e+01    7.597333e-01
  2.848494e+01    7.390854e-01
  2.850081e+01    7.721992e-01
  2.851669e+01    7.787328e-01
  2.853256e+01    7.741384e-01
  2.854844e+01    7.694767e-01
  2.856431e+01    7.661071e-01
  2.858019e+01    7.668335e-01
  2.859606e+01    7.663227e-01
  2.861194e+01    7.728911e-01
  2.862782e+01    7.795655e-01
  2.864369e+01    7.677603e-01
  2.865957e+01    7.562045e-01
  2.867544e+01    7.807148e-01
  2.869132e+01    7.678229e-01
  2.870719e+01    7.388458e-01
  2.872307e+01    7.479681e-01
  2.873895e+01    7.547634e-01
  2.875482e+01    7.612838e-01
  2.877070e+01    7.722154e-01
  2.878657e+01    7.579128e-01
  2.880245e+01    7.609000e-01
  2.881832e+01    7.534916e-01
  2.883420e+01    7.515738e-01
  2.885007e+01    7.394145e-01
  2.886595e+01    7.303801e-01
  2.888183e+01    7.499223e-01
  2.889770e+01    7.611087e-01
  2.891358e+01    7.589800e-01
  2.892945e+01    7.467043e-01
  2.894533e+01    7.398814e-01
  2.896120e+01    7.467697e-01
  2.897708e+01    7.594576e-01
  2.899295e+01    7.396495e-01
  2.900883e+01    7.443591e-01
  2.902471e+01    7.243691e-01
  2.904058e+01    7.358108e-01
  2.905646e+01    7.323716e-01
  2.907233e+01    7.428017e-01
  2.908821e+01    7.405661e-01
  2.910408e+01    7.559894e-01
  2.911996e+01    7.359545e-01
  2.913583e+01    7.574599e-01
  2.915171e+01    7.617793e-01
  2.916759e+01    7.440764e-01
  2.918346e+01    7.320297e-01
  2.919934e+01    7.280405e-01
  2.921521e+01    7.404504e-01
  2.923109e+01    7.542059e-01
  2.924696e+01    7.285720e-01
  2.926284e+01    7.304093e-01
  2.927871e+01    7.554327e-01
  2.929459e+01    7.574348e-01
  2.931047e+01    7.426548e-01
  2.932634e+01    7.465200e-01
  2.934222e+01    7.345907e-01
  2.935809e+01    7.515900e-01
  2.937397e+01    7.461256e-01
  2.938984e+01    7.490314e-01
  2.940572e+01    7.555371e-01
  2.942159e+01    7.385123e-01
  2.943747e+01    7.470875e-01
  2.945335e+01    7.408428e-01
  2.946922e+01    7.307383e-01
  2.948510e+01    7.488708e-01
  2.950097e+01    7.371274e-01
  2.951685e+01    7.346023e-01
  2.953272e+01    7.441947e-01
  2.954860e+01    7.325897e-01
  2.956447e+01    7.342866e-01
  2.958035e+01    7.197933e-01
  2.959623e+01    7.272158e-01
  2.961210e+01    7.265425e-01
  2.962798e+01    7.174615e-01
  2.964385e+01    7.189906e-01
  2.965973e+01    7.245544e-01
  2.967560e+01    7.307958e-01
  2.969148e+01    7.369339e-01
  2.970736e+01    7.170042e-01
  2.972323e+01    7.210361e-01
  2.973911e+01    7.333149e-01
  2.975498e+01    7.469581e-01
  2.977086e+01    7.457880e-01
  2.978673e+01    7.158138e-01
  2.980261e+01    7.255284e-01
  2.981848e+01    7.404451e-01
  2.983436e+01    7.452322e-01
  2.985024e+01    7.271126e-01
  2.986611e+01    6.990632e-01
  2.988199e+01    7.064102e-01
  2.989786e+01    7.299137e-01
  2.991374e+01    7.461811e-01
  2.992961e+01    7.398232e-01
  2.994549e+01    7.415916e-01
  2.996136e+01    7.280427e-01
  2.997724e+01    7.569796e-01
  2.999312e+01    7.495313e-01
  3.000899e+01    7.422563e-01
  3.002487e+01    7.566457e-01
  3.004074e+01    7.373315e-01
  3.005662e+01    7.594305e-01
  3.007249e+01    7.603306e-01
  3.008837e+01    7.432241e-01
  3.010424e+01    7.340483e-01
  3.012012e+01    7.543973e-01
  3.013600e+01    7.467511e-01
  3.015187e+01    7.318988e-01
  3.016775e+01    7.192689e-01
  3.018362e+01    7.215558e-01
  3.019950e+01    7.157812e-01
  3.021537e+01    7.362920e-01
  3.023125e+01    7.245153e-01
  3.024712e+01    7.165028e-01
  3.026300e+01    7.192203e-01
  3.027888e+01    7.201953e-01
  3.029475e+01    7.071955e-01
  3.031063e+01    7.089437e-01
  3.032650e+01    7.053179e-01
  3.034238e+01    7.193657e-01
  3.035825e+01    7.138989e-01
  3.037413e+01    7.427945e-01
  3.039000e+01    7.350987e-01
  3.040588e+01    7.134100e-01
  3.042176e+01    7.230920e-01
  3.043763e+01    7.409948e-01
  3.045351e+01    7.130837e-01
  3.046938e+01    7.075680e-01
  3.048526e+01    7.125608e-01
  3.050113e+01    7.219312e-01
  3.051701e+01    7.278210e-01
  3.053288e+01    7.331517e-01
  3.054876e+01    7.551020e-01
  3.056464e+01    7.194175e-01
  3.058051e+01    7.250907e-01
  3.059639e+01    7.140275e-01
  3.061226e+01    7.184899e-01
  3.062814e+01    7.192472e-01
  3.064401e+01    7.299305e-01
  3.065989e+01    7.196183e-01
  3.067577e+01    7.253306e-01
  3.069164e+01    7.327758e-01
  3.070752e+01    7.291304e-01
  3.072339e+01    7.107233e-01
  3.073927e+01    7.144842e-01
  3.075514e+01    7.355478e-01
  3.077102e+01    7.431552e-01
  3.078689e+01    7.245838e-01
  3.080277e+01    7.089140e-01
  3.081865e+01    6.929424e-01
  3.083452e+01    7.219919e-01
  3.085040e+01    7.213060e-01
  3.086627e+01    7.037475e-01
  3.088215e+01    7.165998e-01
  3.089802e+01    7.196301e-01
  3.091390e+01    7.250602e-01
  3.092977e+01    7.148985e-01
  3.094565e+01    7.289313e-01
  3.096153e+01    7.329993e-01
  3.097740e+01    7.163081e-01
  3.099328e+01    7.271900e-01
  3.100915e+01    7.549546e-01
  3.102503e+01    7.260628e-01
  3.104090e+01    7.200451e-01
  3.105678e+01    7.408680e-01
  3.107265e+01    7.344167e-01
  3.108853e+01    7.115992e-01
  3.110441e+01    7.036744e-01
  3.112028e+01    7.273009e-01
  3.113616e+01    7.393565e-01
  3.115203e+01    7.219708e-01
  3.116791e+01    7.172602e-01
  3.118378e+01    7.230557e-01
  3.119966e+01    7.259927e-01
  3.121553e+01    7.338827e-01
  3.123141e+01    7.227900e-01
  3.124729e+01    7.407151e-01
  3.126316e+01    7.400691e-01
  3.127904e+01    7.557363e-01
  3.129491e+01    7.447190e-01
  3.131079e+01    7.341981e-01
  3.132666e+01    7.270945e-01
  3.134254e+01    7.435844e-01
  3.135841e+01    7.546298e-01
  3.137429e+01    7.450961e-01
  3.139017e+01    7.254612e-01
  3.140604e+01    7.382115e-01
  3.142192e+01    7.461699e-01
  3.143779e+01    7.559201e-01
  3.145367e+01    7.692666e-01
  3.146954e+01    7.453402e-01
  3.148542e+01    7.567973e-01
  3.150129e+01    7.757362e-01
  3.151717e+01    7.736511e-01
  3.153305e+01    8.093113e-01
  3.154892e+01    7.856068e-01
  3.156480e+01    7.737655e-01
  3.158067e+01    8.131089e-01
  3.159655e+01    8.136861e-01
  3.161242e+01    8.324174e-01
  3.162830e+01    8.500178e-01
  3.164418e+01    8.486760e-01
  3.166005e+01    8.634672e-01
  3.167593e+01    8.794743e-01
  3.169180e+01    8.800657e-01
  3.170768e+01    9.258569e-01
  3.172355e+01    9.502305e-01
  3.173943e+01    9.993047e-01
  3.175530e+01    1.026920e+00
  3.177118e+01    1.079888e+00
  3.178706e+01    1.126737e+00
  3.180293e+01    1.227972e+00
  3.181881e+01    1.320875e+00
  3.183468e+01    1.434438e+00
  3.185056e+01    1.559857e+00
  3.186643e+01    1.730012e+00
  3.188231e+01    1.936584e+00
  3.189818e+01    2.127922e+00
  3.191406e+01    2.301933e+00
  3.192994e+01    2.421662e+00
  3.194581e+01    2.489393e+00
  3.196169e+01    2.559782e+00
  3.197756e+01    2.466609e+00
  3.199344e+01    2.386459e+00
  3.200931e+01    2.183429e+00
  3.202519e+01    2.015548e+00
  3.204106e+01    1.809695e+00
  3.205694e+01    1.619823e+00
  3.207282e+01    1.434594e+00
  3.208869e+01    1.313300e+00
  3.210457e+01    1.229155e+00
  3.212044e+01    1.156634e+00
  3.213632e+01    1.052662e+00
  3.215219e+01    1.006273e+00
  3.216807e+01    9.790134e-01
  3.218394e+01    9.453411e-01
  3.219982e+01    8.920916e-01
  3.221570e+01    8.594515e-01
  3.223157e+01    8.589939e-01
  3.224745e+01    8.451988e-01
  3.226332e+01    8.075396e-01
  3.227920e+01    8.113554e-01
  3.229507e+01    8.084640e-01
  3.231095e+01    7.926586e-01
  3.232682e+01    7.969540e-01
  3.234270e+01    7.838627e-01
  3.235858e+01    7.816417e-01
  3.237445e+01    7.922972e-01
  3.239033e+01    7.871701e-01
  3.240620e+01    7.759600e-01
  3.242208e+01    7.622281e-01
  3.243795e+01    7.595762e-01
  3.245383e+01    7.819381e-01
  3.246970e+01    7.671195e-01
  3.248558e+01    7.525473e-01
  3.250146e+01    7.292562e-01
  3.251733e+01    7.284154e-01
  3.253321e+01    7.428243e-01
  3.254908e+01    7.293032e-01
