# == pyFAI calibration ==
# Distance Sample to Detector: 0.3999999939076516 m
# PONI: 9.750e-02, 1.135e-01 m
# Rotations: -0.000175 0.000000 -0.000000 rad
# 
# == Fit2d calibration ==
# Distance Sample-beamCenter: 400.000 mm
# Center: x=1514.000, y=1300.000 pix
# Tilt: 0.010 deg  TiltPlanRot: 0.010 deg
# 
# Detector Detector	 Spline= None	 PixelSize= 7.500e-05, 7.500e-05 m
#    Detector has a mask: False 
#    Detector has a dark current: False 
#    detector has a flat field: False 
# 
# Wavelength: 6.888e-11 m
# Mask applied: user provided
# Dark current applied: False
# Flat field applied: False
# Polarization factor: 0.99
# Normalization factor: 1.0
# --> /home/myspot/data/2024_07_Rosario/Ru-CGO-ex/2024-07-27_002_Ru-CGO-ex_Activtation_ramp_000002_data_000060.dat
#       q_nm^-1             I 
  2.003187e-02    0.000000e+00
  3.590745e-02    3.427850e-02
  5.178302e-02    9.528971e-02
  6.765859e-02    6.258533e-02
  8.353417e-02    6.227538e-02
  9.940974e-02    1.333797e-01
  1.152853e-01    6.295498e-02
  1.311609e-01    6.681012e-02
  1.470365e-01    5.729929e-02
  1.629120e-01    6.466335e-02
  1.787876e-01    7.706027e-02
  1.946632e-01    7.031033e-02
  2.105388e-01    6.537134e-02
  2.264143e-01    6.809563e-02
  2.422899e-01    5.853832e-02
  2.581655e-01    2.498633e-02
  2.740411e-01    4.252533e-02
  2.899166e-01    6.400569e-02
  3.057922e-01    1.959796e-02
  3.216678e-01    3.281805e-02
  3.375433e-01    3.161370e-02
  3.534189e-01    5.810384e-04
  3.692945e-01    3.611092e-03
  3.851701e-01    5.767957e-02
  4.010456e-01    4.518845e-02
  4.169212e-01    2.735468e-02
  4.327968e-01    3.321626e-02
  4.486724e-01    1.995626e-02
  4.645479e-01    2.921032e-02
  4.804235e-01    4.131947e-02
  4.962991e-01    3.025864e-02
  5.121747e-01    2.920328e-02
  5.280502e-01    3.663658e-02
  5.439258e-01    5.474560e-02
  5.598014e-01    2.323630e-02
  5.756770e-01    2.768277e-02
  5.915525e-01    6.671672e-02
  6.074281e-01    4.948567e-02
  6.233037e-01    5.290193e-02
  6.391793e-01    7.209272e-02
  6.550548e-01    5.495212e-02
  6.709304e-01    3.204941e-02
  6.868060e-01    2.527422e-02
  7.026815e-01    4.889940e-02
  7.185571e-01    5.169098e-02
  7.344327e-01    6.787959e-02
  7.503083e-01    5.269866e-02
  7.661838e-01    7.750789e-02
  7.820594e-01    6.456216e-02
  7.979350e-01    1.246276e-01
  8.138106e-01    1.792132e-01
  8.296861e-01    2.127857e-01
  8.455617e-01    2.743626e-01
  8.614373e-01    3.707486e-01
  8.773129e-01    4.537066e-01
  8.931884e-01    4.696077e-01
  9.090640e-01    4.743344e-01
  9.249396e-01    5.782487e-01
  9.408152e-01    6.559959e-01
  9.566907e-01    8.980692e-01
  9.725663e-01    9.083900e-01
  9.884419e-01    9.809896e-01
  1.004317e+00    1.062518e+00
  1.020193e+00    1.104947e+00
  1.036069e+00    1.172008e+00
  1.051944e+00    1.223422e+00
  1.067820e+00    1.309762e+00
  1.083695e+00    1.330879e+00
  1.099571e+00    1.433527e+00
  1.115446e+00    1.406155e+00
  1.131322e+00    1.460183e+00
  1.147198e+00    1.522726e+00
  1.163073e+00    1.492834e+00
  1.178949e+00    1.511422e+00
  1.194824e+00    1.629593e+00
  1.210700e+00    1.884008e+00
  1.226575e+00    2.038680e+00
  1.242451e+00    2.048378e+00
  1.258327e+00    2.290485e+00
  1.274202e+00    2.429145e+00
  1.290078e+00    2.453592e+00
  1.305953e+00    2.404769e+00
  1.321829e+00    2.585151e+00
  1.337705e+00    2.478730e+00
  1.353580e+00    2.496090e+00
  1.369456e+00    2.711188e+00
  1.385331e+00    2.775304e+00
  1.401207e+00    2.805203e+00
  1.417082e+00    2.843341e+00
  1.432958e+00    2.671405e+00
  1.448834e+00    2.745437e+00
  1.464709e+00    2.817575e+00
  1.480585e+00    2.808039e+00
  1.496460e+00    2.852159e+00
  1.512336e+00    2.914098e+00
  1.528211e+00    2.911794e+00
  1.544087e+00    2.873757e+00
  1.559963e+00    2.963479e+00
  1.575838e+00    2.992044e+00
  1.591714e+00    2.969489e+00
  1.607589e+00    3.022235e+00
  1.623465e+00    3.046177e+00
  1.639340e+00    3.002560e+00
  1.655216e+00    2.909675e+00
  1.671092e+00    2.777056e+00
  1.686967e+00    2.768941e+00
  1.702843e+00    2.939993e+00
  1.718718e+00    2.915959e+00
  1.734594e+00    2.803706e+00
  1.750469e+00    2.740624e+00
  1.766345e+00    2.879273e+00
  1.782221e+00    2.971497e+00
  1.798096e+00    2.869708e+00
  1.813972e+00    2.886153e+00
  1.829847e+00    2.757689e+00
  1.845723e+00    2.674995e+00
  1.861598e+00    2.751181e+00
  1.877474e+00    2.695655e+00
  1.893350e+00    2.800156e+00
  1.909225e+00    2.931621e+00
  1.925101e+00    2.849070e+00
  1.940976e+00    2.899746e+00
  1.956852e+00    2.808530e+00
  1.972727e+00    2.703660e+00
  1.988603e+00    2.803744e+00
  2.004479e+00    2.698515e+00
  2.020354e+00    2.631445e+00
  2.036230e+00    2.711526e+00
  2.052105e+00    2.746325e+00
  2.067981e+00    2.798728e+00
  2.083856e+00    2.860113e+00
  2.099732e+00    2.768579e+00
  2.115608e+00    2.667066e+00
  2.131483e+00    2.644677e+00
  2.147359e+00    2.757253e+00
  2.163234e+00    2.869546e+00
  2.179110e+00    2.808400e+00
  2.194985e+00    2.864877e+00
  2.210861e+00    2.872813e+00
  2.226737e+00    2.754933e+00
  2.242612e+00    2.792542e+00
  2.258488e+00    2.868359e+00
  2.274363e+00    2.720466e+00
  2.290239e+00    2.740684e+00
  2.306115e+00    2.720653e+00
  2.321990e+00    2.786379e+00
  2.337866e+00    2.875730e+00
  2.353741e+00    2.845850e+00
  2.369617e+00    2.830797e+00
  2.385492e+00    2.733917e+00
  2.401368e+00    2.808553e+00
  2.417244e+00    2.836409e+00
  2.433119e+00    2.779124e+00
  2.448995e+00    2.791761e+00
  2.464870e+00    2.822156e+00
  2.480746e+00    2.783051e+00
  2.496621e+00    2.784201e+00
  2.512497e+00    2.838560e+00
  2.528373e+00    2.801239e+00
  2.544248e+00    2.719744e+00
  2.560124e+00    2.804749e+00
  2.575999e+00    2.814886e+00
  2.591875e+00    2.826569e+00
  2.607750e+00    2.801436e+00
  2.623626e+00    2.888296e+00
  2.639502e+00    2.766371e+00
  2.655377e+00    2.712052e+00
  2.671253e+00    2.818484e+00
  2.687128e+00    2.860010e+00
  2.703004e+00    2.914057e+00
  2.718879e+00    2.837212e+00
  2.734755e+00    2.856743e+00
  2.750631e+00    2.798430e+00
  2.766506e+00    2.793251e+00
  2.782382e+00    2.888942e+00
  2.798257e+00    2.890811e+00
  2.814133e+00    2.781891e+00
  2.830008e+00    2.759574e+00
  2.845884e+00    2.822278e+00
  2.861760e+00    2.884543e+00
  2.877635e+00    2.837341e+00
  2.893511e+00    2.879315e+00
  2.909386e+00    2.902829e+00
  2.925262e+00    2.922844e+00
  2.941137e+00    2.931116e+00
  2.957013e+00    2.913198e+00
  2.972889e+00    2.908986e+00
  2.988764e+00    2.882524e+00
  3.004640e+00    2.882453e+00
  3.020515e+00    2.862221e+00
  3.036391e+00    2.847864e+00
  3.052266e+00    2.776863e+00
  3.068142e+00    2.837700e+00
  3.084018e+00    2.931632e+00
  3.099893e+00    3.004294e+00
  3.115769e+00    2.840296e+00
  3.131644e+00    2.746744e+00
  3.147520e+00    2.728624e+00
  3.163395e+00    2.880810e+00
  3.179271e+00    2.896021e+00
  3.195147e+00    2.956209e+00
  3.211022e+00    2.996222e+00
  3.226898e+00    2.966510e+00
  3.242773e+00    2.888023e+00
  3.258649e+00    2.846943e+00
  3.274525e+00    2.937144e+00
  3.290400e+00    2.965278e+00
  3.306276e+00    3.033890e+00
  3.322151e+00    3.044227e+00
  3.338027e+00    2.947355e+00
  3.353902e+00    2.979245e+00
  3.369778e+00    2.925553e+00
  3.385654e+00    2.926497e+00
  3.401529e+00    2.968591e+00
  3.417405e+00    2.943927e+00
  3.433280e+00    2.994109e+00
  3.449156e+00    2.984770e+00
  3.465031e+00    3.024124e+00
  3.480907e+00    2.977772e+00
  3.496783e+00    2.887850e+00
  3.512658e+00    2.965677e+00
  3.528534e+00    2.946850e+00
  3.544409e+00    2.997007e+00
  3.560285e+00    2.931495e+00
  3.576160e+00    2.933570e+00
  3.592036e+00    3.015638e+00
  3.607912e+00    3.051353e+00
  3.623787e+00    3.046669e+00
  3.639663e+00    3.041602e+00
  3.655538e+00    2.961773e+00
  3.671414e+00    2.985805e+00
  3.687289e+00    2.918641e+00
  3.703165e+00    2.939857e+00
  3.719041e+00    2.972831e+00
  3.734916e+00    2.969999e+00
  3.750792e+00    2.970688e+00
  3.766667e+00    3.021836e+00
  3.782543e+00    3.001804e+00
  3.798418e+00    3.037022e+00
  3.814294e+00    2.917684e+00
  3.830170e+00    2.961654e+00
  3.846045e+00    2.916291e+00
  3.861921e+00    2.947832e+00
  3.877796e+00    2.982190e+00
  3.893672e+00    3.024722e+00
  3.909547e+00    2.988213e+00
  3.925423e+00    3.049112e+00
  3.941299e+00    3.041536e+00
  3.957174e+00    2.962340e+00
  3.973050e+00    3.001702e+00
  3.988925e+00    3.009293e+00
  4.004801e+00    3.041995e+00
  4.020676e+00    3.043267e+00
  4.036552e+00    3.069137e+00
  4.052428e+00    3.115225e+00
  4.068303e+00    3.148888e+00
  4.084179e+00    3.081628e+00
  4.100054e+00    2.984804e+00
  4.115930e+00    2.939710e+00
  4.131806e+00    2.994074e+00
  4.147681e+00    3.150189e+00
  4.163557e+00    3.115863e+00
  4.179432e+00    2.996764e+00
  4.195308e+00    2.920509e+00
  4.211183e+00    2.987399e+00
  4.227059e+00    3.090275e+00
  4.242935e+00    3.073720e+00
  4.258810e+00    3.041326e+00
  4.274686e+00    3.061161e+00
  4.290561e+00    3.030741e+00
  4.306437e+00    3.072538e+00
  4.322312e+00    3.043292e+00
  4.338188e+00    3.109634e+00
  4.354064e+00    3.119747e+00
  4.369939e+00    3.118619e+00
  4.385815e+00    3.138839e+00
  4.401690e+00    3.092061e+00
  4.417566e+00    3.114611e+00
  4.433441e+00    3.046951e+00
  4.449317e+00    3.135689e+00
  4.465193e+00    3.157340e+00
  4.481068e+00    3.028756e+00
  4.496944e+00    2.992517e+00
  4.512819e+00    3.065275e+00
  4.528695e+00    3.050980e+00
  4.544570e+00    3.093651e+00
  4.560446e+00    3.116327e+00
  4.576322e+00    3.051090e+00
  4.592197e+00    3.083154e+00
  4.608073e+00    3.013821e+00
  4.623948e+00    2.995589e+00
  4.639824e+00    3.081739e+00
  4.655699e+00    3.089087e+00
  4.671575e+00    3.097169e+00
  4.687451e+00    3.117638e+00
  4.703326e+00    3.136178e+00
  4.719202e+00    3.120089e+00
  4.735077e+00    3.284845e+00
  4.750953e+00    3.165931e+00
  4.766828e+00    3.062697e+00
  4.782704e+00    3.031532e+00
  4.798580e+00    3.097219e+00
  4.814455e+00    3.139580e+00
  4.830331e+00    3.164011e+00
  4.846206e+00    3.155648e+00
  4.862082e+00    3.164849e+00
  4.877957e+00    3.143869e+00
  4.893833e+00    3.030108e+00
  4.909709e+00    3.096946e+00
  4.925584e+00    3.087508e+00
  4.941460e+00    3.048387e+00
  4.957335e+00    3.124130e+00
  4.973211e+00    3.215194e+00
  4.989086e+00    3.165343e+00
  5.004962e+00    3.154209e+00
  5.020838e+00    3.141278e+00
  5.036713e+00    3.167038e+00
  5.052589e+00    3.122659e+00
  5.068464e+00    3.111664e+00
  5.084340e+00    3.143908e+00
  5.100216e+00    3.111743e+00
  5.116091e+00    3.090999e+00
  5.131967e+00    3.154144e+00
  5.147842e+00    3.346973e+00
  5.163718e+00    3.313745e+00
  5.179593e+00    3.129940e+00
  5.195469e+00    3.121617e+00
  5.211345e+00    3.125426e+00
  5.227220e+00    3.118309e+00
  5.243096e+00    3.102248e+00
  5.258971e+00    3.181924e+00
  5.274847e+00    3.121350e+00
  5.290722e+00    3.099861e+00
  5.306598e+00    3.156465e+00
  5.322474e+00    3.113715e+00
  5.338349e+00    3.052906e+00
  5.354225e+00    3.070134e+00
  5.370100e+00    3.167145e+00
  5.385976e+00    3.123621e+00
  5.401851e+00    3.027251e+00
  5.417727e+00    3.091795e+00
  5.433603e+00    3.127657e+00
  5.449478e+00    3.164651e+00
  5.465354e+00    3.117324e+00
  5.481229e+00    3.043010e+00
  5.497105e+00    3.163309e+00
  5.512980e+00    3.162471e+00
  5.528856e+00    3.063323e+00
  5.544732e+00    3.084688e+00
  5.560607e+00    3.070837e+00
  5.576483e+00    3.055724e+00
  5.592358e+00    3.157508e+00
  5.608234e+00    3.177920e+00
  5.624109e+00    3.067447e+00
  5.639985e+00    3.016840e+00
  5.655861e+00    3.114738e+00
  5.671736e+00    3.069111e+00
  5.687612e+00    3.024956e+00
  5.703487e+00    3.152229e+00
  5.719363e+00    3.107021e+00
  5.735238e+00    3.019599e+00
  5.751114e+00    3.070856e+00
  5.766990e+00    3.119604e+00
  5.782865e+00    3.053795e+00
  5.798741e+00    3.114739e+00
  5.814616e+00    3.022838e+00
  5.830492e+00    3.000913e+00
  5.846367e+00    3.019271e+00
  5.862243e+00    3.010833e+00
  5.878119e+00    3.067703e+00
  5.893994e+00    3.118454e+00
  5.909870e+00    3.072643e+00
  5.925745e+00    3.083916e+00
  5.941621e+00    3.040934e+00
  5.957497e+00    2.989962e+00
  5.973372e+00    3.046066e+00
  5.989248e+00    2.982685e+00
  6.005123e+00    3.076320e+00
  6.020999e+00    3.134534e+00
  6.036874e+00    3.023263e+00
  6.052750e+00    2.942419e+00
  6.068626e+00    3.051955e+00
  6.084501e+00    3.021399e+00
  6.100377e+00    3.058982e+00
  6.116252e+00    3.103967e+00
  6.132128e+00    3.076692e+00
  6.148003e+00    3.054892e+00
  6.163879e+00    3.098467e+00
  6.179755e+00    3.006701e+00
  6.195630e+00    3.039495e+00
  6.211506e+00    3.119283e+00
  6.227381e+00    3.054917e+00
  6.243257e+00    3.023057e+00
  6.259132e+00    3.054187e+00
  6.275008e+00    3.061239e+00
  6.290884e+00    3.038542e+00
  6.306759e+00    3.016330e+00
  6.322635e+00    2.989899e+00
  6.338510e+00    3.088910e+00
  6.354386e+00    2.981323e+00
  6.370261e+00    3.007671e+00
  6.386137e+00    3.033180e+00
  6.402013e+00    3.094198e+00
  6.417888e+00    3.102542e+00
  6.433764e+00    3.056722e+00
  6.449639e+00    3.051461e+00
  6.465515e+00    3.049680e+00
  6.481390e+00    3.013775e+00
  6.497266e+00    2.995781e+00
  6.513142e+00    3.085118e+00
  6.529017e+00    3.083888e+00
  6.544893e+00    3.022911e+00
  6.560768e+00    3.057981e+00
  6.576644e+00    2.968825e+00
  6.592519e+00    3.020346e+00
  6.608395e+00    2.980180e+00
  6.624271e+00    3.035127e+00
  6.640146e+00    2.980285e+00
  6.656022e+00    2.984280e+00
  6.671897e+00    2.983809e+00
  6.687773e+00    3.005064e+00
  6.703648e+00    3.071870e+00
  6.719524e+00    3.079555e+00
  6.735400e+00    3.069803e+00
  6.751275e+00    2.995675e+00
  6.767151e+00    2.942516e+00
  6.783026e+00    2.988964e+00
  6.798902e+00    2.965878e+00
  6.814777e+00    2.974156e+00
  6.830653e+00    3.002094e+00
  6.846529e+00    2.972360e+00
  6.862404e+00    2.971331e+00
  6.878280e+00    3.021774e+00
  6.894155e+00    3.066752e+00
  6.910031e+00    3.066497e+00
  6.925907e+00    3.003742e+00
  6.941782e+00    2.993346e+00
  6.957658e+00    3.077521e+00
  6.973533e+00    3.099958e+00
  6.989409e+00    2.991828e+00
  7.005284e+00    2.982170e+00
  7.021160e+00    2.969162e+00
  7.037036e+00    2.978300e+00
  7.052911e+00    3.027518e+00
  7.068787e+00    3.007923e+00
  7.084662e+00    2.973199e+00
  7.100538e+00    3.008013e+00
  7.116413e+00    2.994189e+00
  7.132289e+00    2.972870e+00
  7.148165e+00    2.987129e+00
  7.164040e+00    2.943324e+00
  7.179916e+00    3.006255e+00
  7.195791e+00    3.041406e+00
  7.211667e+00    2.996756e+00
  7.227542e+00    3.027701e+00
  7.243418e+00    2.959410e+00
  7.259294e+00    3.000805e+00
  7.275169e+00    3.016325e+00
  7.291045e+00    2.995026e+00
  7.306920e+00    3.041259e+00
  7.322796e+00    3.010792e+00
  7.338671e+00    3.014636e+00
  7.354547e+00    2.977820e+00
  7.370423e+00    2.981477e+00
  7.386298e+00    3.015124e+00
  7.402174e+00    3.029170e+00
  7.418049e+00    3.083726e+00
  7.433925e+00    3.033525e+00
  7.449800e+00    2.946046e+00
  7.465676e+00    3.007327e+00
  7.481552e+00    3.004687e+00
  7.497427e+00    3.027029e+00
  7.513303e+00    3.008620e+00
  7.529178e+00    2.949289e+00
  7.545054e+00    2.933436e+00
  7.560929e+00    2.941496e+00
  7.576805e+00    2.933397e+00
  7.592681e+00    2.935557e+00
  7.608556e+00    2.931070e+00
  7.624432e+00    2.883662e+00
  7.640307e+00    2.960916e+00
  7.656183e+00    2.959598e+00
  7.672058e+00    2.994057e+00
  7.687934e+00    2.987094e+00
  7.703810e+00    2.933134e+00
  7.719685e+00    2.969356e+00
  7.735561e+00    2.955889e+00
  7.751436e+00    2.955176e+00
  7.767312e+00    2.983418e+00
  7.783187e+00    2.933614e+00
  7.799063e+00    2.902398e+00
  7.814939e+00    2.943779e+00
  7.830814e+00    2.978986e+00
  7.846690e+00    2.918294e+00
  7.862565e+00    2.970884e+00
  7.878441e+00    2.978560e+00
  7.894317e+00    2.915183e+00
  7.910192e+00    2.940130e+00
  7.926068e+00    2.969435e+00
  7.941943e+00    2.925938e+00
  7.957819e+00    2.916934e+00
  7.973694e+00    2.917103e+00
  7.989570e+00    2.988558e+00
  8.005446e+00    2.841166e+00
  8.021321e+00    2.854322e+00
  8.037197e+00    2.917568e+00
  8.053072e+00    2.930182e+00
  8.068948e+00    2.919893e+00
  8.084823e+00    2.944410e+00
  8.100699e+00    2.983607e+00
  8.116575e+00    2.930794e+00
  8.132450e+00    2.959422e+00
  8.148326e+00    2.962152e+00
  8.164201e+00    2.984988e+00
  8.180077e+00    2.931048e+00
  8.195952e+00    2.908497e+00
  8.211828e+00    2.954687e+00
  8.227704e+00    2.985485e+00
  8.243579e+00    2.958444e+00
  8.259455e+00    2.925664e+00
  8.275330e+00    2.946601e+00
  8.291206e+00    2.997332e+00
  8.307081e+00    2.860656e+00
  8.322957e+00    2.905239e+00
  8.338833e+00    2.922843e+00
  8.354708e+00    2.826310e+00
  8.370584e+00    2.919279e+00
  8.386459e+00    2.983752e+00
  8.402335e+00    2.923911e+00
  8.418210e+00    2.924707e+00
  8.434086e+00    2.883222e+00
  8.449962e+00    2.867988e+00
  8.465837e+00    2.881860e+00
  8.481713e+00    2.894606e+00
  8.497588e+00    2.885304e+00
  8.513464e+00    2.882951e+00
  8.529339e+00    2.899411e+00
  8.545215e+00    2.880791e+00
  8.561091e+00    2.918487e+00
  8.576966e+00    2.869159e+00
  8.592842e+00    2.875450e+00
  8.608717e+00    2.899736e+00
  8.624593e+00    2.811780e+00
  8.640468e+00    2.813409e+00
  8.656344e+00    2.845507e+00
  8.672220e+00    2.874847e+00
  8.688095e+00    2.875682e+00
  8.703971e+00    2.839388e+00
  8.719846e+00    2.809557e+00
  8.735722e+00    2.871475e+00
  8.751598e+00    2.882796e+00
  8.767473e+00    2.874912e+00
  8.783349e+00    2.864056e+00
  8.799224e+00    2.897116e+00
  8.815100e+00    2.880156e+00
  8.830975e+00    2.802993e+00
  8.846851e+00    2.763341e+00
  8.862727e+00    2.814154e+00
  8.878602e+00    2.839108e+00
  8.894478e+00    2.842702e+00
  8.910353e+00    2.800549e+00
  8.926229e+00    2.859328e+00
  8.942104e+00    2.831093e+00
  8.957980e+00    2.796763e+00
  8.973856e+00    2.804536e+00
  8.989731e+00    2.838768e+00
  9.005607e+00    2.836379e+00
  9.021482e+00    2.840210e+00
  9.037358e+00    2.806519e+00
  9.053233e+00    2.825520e+00
  9.069109e+00    2.852247e+00
  9.084985e+00    2.852531e+00
  9.100860e+00    2.802940e+00
  9.116736e+00    2.803910e+00
  9.132611e+00    2.768860e+00
  9.148487e+00    2.798397e+00
  9.164362e+00    2.847732e+00
  9.180238e+00    2.855062e+00
  9.196114e+00    2.786865e+00
  9.211989e+00    2.827069e+00
  9.227865e+00    2.792464e+00
  9.243740e+00    2.791010e+00
  9.259616e+00    2.825162e+00
  9.275491e+00    2.763466e+00
  9.291367e+00    2.778154e+00
  9.307243e+00    2.764930e+00
  9.323118e+00    2.779247e+00
  9.338994e+00    2.792681e+00
  9.354869e+00    2.753632e+00
  9.370745e+00    2.729785e+00
  9.386620e+00    2.783517e+00
  9.402496e+00    2.772827e+00
  9.418372e+00    2.756154e+00
  9.434247e+00    2.784392e+00
  9.450123e+00    2.815573e+00
  9.465998e+00    2.784388e+00
  9.481874e+00    2.775394e+00
  9.497749e+00    2.746789e+00
  9.513625e+00    2.741825e+00
  9.529501e+00    2.791440e+00
  9.545376e+00    2.770662e+00
  9.561252e+00    2.788349e+00
  9.577127e+00    2.823551e+00
  9.593003e+00    2.748440e+00
  9.608878e+00    2.714520e+00
  9.624754e+00    2.725598e+00
  9.640630e+00    2.695388e+00
  9.656505e+00    2.767586e+00
  9.672381e+00    2.756478e+00
  9.688256e+00    2.724491e+00
  9.704132e+00    2.770767e+00
  9.720008e+00    2.784603e+00
  9.735883e+00    2.784709e+00
  9.751759e+00    2.757215e+00
  9.767634e+00    2.701412e+00
  9.783510e+00    2.702714e+00
  9.799385e+00    2.748077e+00
  9.815261e+00    2.729587e+00
  9.831137e+00    2.664797e+00
  9.847012e+00    2.700818e+00
  9.862888e+00    2.740291e+00
  9.878763e+00    2.739279e+00
  9.894639e+00    2.697371e+00
  9.910514e+00    2.665408e+00
  9.926390e+00    2.654361e+00
  9.942266e+00    2.717957e+00
  9.958141e+00    2.636348e+00
  9.974017e+00    2.629389e+00
  9.989892e+00    2.665232e+00
  1.000577e+01    2.652064e+00
  1.002164e+01    2.658663e+00
  1.003752e+01    2.697023e+00
  1.005339e+01    2.701333e+00
  1.006927e+01    2.686963e+00
  1.008515e+01    2.651686e+00
  1.010102e+01    2.648144e+00
  1.011690e+01    2.675253e+00
  1.013277e+01    2.654858e+00
  1.014865e+01    2.661406e+00
  1.016452e+01    2.648227e+00
  1.018040e+01    2.633372e+00
  1.019627e+01    2.664241e+00
  1.021215e+01    2.605196e+00
  1.022803e+01    2.597097e+00
  1.024390e+01    2.658771e+00
  1.025978e+01    2.671670e+00
  1.027565e+01    2.638653e+00
  1.029153e+01    2.664611e+00
  1.030740e+01    2.682068e+00
  1.032328e+01    2.642350e+00
  1.033915e+01    2.641791e+00
  1.035503e+01    2.667129e+00
  1.037091e+01    2.640799e+00
  1.038678e+01    2.647809e+00
  1.040266e+01    2.656256e+00
  1.041853e+01    2.642259e+00
  1.043441e+01    2.610981e+00
  1.045028e+01    2.612625e+00
  1.046616e+01    2.599643e+00
  1.048204e+01    2.620633e+00
  1.049791e+01    2.639252e+00
  1.051379e+01    2.638346e+00
  1.052966e+01    2.586622e+00
  1.054554e+01    2.557999e+00
  1.056141e+01    2.603789e+00
  1.057729e+01    2.630946e+00
  1.059316e+01    2.625617e+00
  1.060904e+01    2.632117e+00
  1.062492e+01    2.617358e+00
  1.064079e+01    2.599852e+00
  1.065667e+01    2.533262e+00
  1.067254e+01    2.529220e+00
  1.068842e+01    2.546952e+00
  1.070429e+01    2.564320e+00
  1.072017e+01    2.571308e+00
  1.073604e+01    2.547748e+00
  1.075192e+01    2.507053e+00
  1.076780e+01    2.540864e+00
  1.078367e+01    2.576140e+00
  1.079955e+01    2.567986e+00
  1.081542e+01    2.524638e+00
  1.083130e+01    2.480154e+00
  1.084717e+01    2.519516e+00
  1.086305e+01    2.542575e+00
  1.087892e+01    2.504089e+00
  1.089480e+01    2.516105e+00
  1.091068e+01    2.516577e+00
  1.092655e+01    2.546046e+00
  1.094243e+01    2.515234e+00
  1.095830e+01    2.485032e+00
  1.097418e+01    2.466321e+00
  1.099005e+01    2.487610e+00
  1.100593e+01    2.532578e+00
  1.102180e+01    2.525661e+00
  1.103768e+01    2.506176e+00
  1.105356e+01    2.481832e+00
  1.106943e+01    2.502881e+00
  1.108531e+01    2.484223e+00
  1.110118e+01    2.470708e+00
  1.111706e+01    2.508443e+00
  1.113293e+01    2.497960e+00
  1.114881e+01    2.505536e+00
  1.116468e+01    2.470677e+00
  1.118056e+01    2.475332e+00
  1.119644e+01    2.457061e+00
  1.121231e+01    2.454760e+00
  1.122819e+01    2.506863e+00
  1.124406e+01    2.501990e+00
  1.125994e+01    2.428720e+00
  1.127581e+01    2.424194e+00
  1.129169e+01    2.418047e+00
  1.130756e+01    2.445877e+00
  1.132344e+01    2.476094e+00
  1.133932e+01    2.451335e+00
  1.135519e+01    2.433389e+00
  1.137107e+01    2.433728e+00
  1.138694e+01    2.413414e+00
  1.140282e+01    2.397764e+00
  1.141869e+01    2.371338e+00
  1.143457e+01    2.393833e+00
  1.145045e+01    2.426635e+00
  1.146632e+01    2.401056e+00
  1.148220e+01    2.403485e+00
  1.149807e+01    2.408694e+00
  1.151395e+01    2.425766e+00
  1.152982e+01    2.388756e+00
  1.154570e+01    2.355547e+00
  1.156157e+01    2.377326e+00
  1.157745e+01    2.423819e+00
  1.159333e+01    2.417055e+00
  1.160920e+01    2.385120e+00
  1.162508e+01    2.383393e+00
  1.164095e+01    2.405681e+00
  1.165683e+01    2.352062e+00
  1.167270e+01    2.368548e+00
  1.168858e+01    2.403012e+00
  1.170445e+01    2.464285e+00
  1.172033e+01    2.406827e+00
  1.173621e+01    2.358839e+00
  1.175208e+01    2.362586e+00
  1.176796e+01    2.362552e+00
  1.178383e+01    2.377932e+00
  1.179971e+01    2.372854e+00
  1.181558e+01    2.351214e+00
  1.183146e+01    2.340572e+00
  1.184733e+01    2.367161e+00
  1.186321e+01    2.406250e+00
  1.187909e+01    2.368344e+00
  1.189496e+01    2.321037e+00
  1.191084e+01    2.313293e+00
  1.192671e+01    2.365048e+00
  1.194259e+01    2.379339e+00
  1.195846e+01    2.361622e+00
  1.197434e+01    2.344916e+00
  1.199021e+01    2.332815e+00
  1.200609e+01    2.345585e+00
  1.202197e+01    2.351852e+00
  1.203784e+01    2.345980e+00
  1.205372e+01    2.357593e+00
  1.206959e+01    2.328922e+00
  1.208547e+01    2.321999e+00
  1.210134e+01    2.341960e+00
  1.211722e+01    2.316050e+00
  1.213309e+01    2.345486e+00
  1.214897e+01    2.340951e+00
  1.216485e+01    2.338194e+00
  1.218072e+01    2.321854e+00
  1.219660e+01    2.329589e+00
  1.221247e+01    2.309490e+00
  1.222835e+01    2.305719e+00
  1.224422e+01    2.336964e+00
  1.226010e+01    2.308877e+00
  1.227597e+01    2.301581e+00
  1.229185e+01    2.322150e+00
  1.230773e+01    2.371366e+00
  1.232360e+01    2.394831e+00
  1.233948e+01    2.334298e+00
  1.235535e+01    2.359275e+00
  1.237123e+01    2.338872e+00
  1.238710e+01    2.368789e+00
  1.240298e+01    2.333733e+00
  1.241886e+01    2.326550e+00
  1.243473e+01    2.370323e+00
  1.245061e+01    2.370914e+00
  1.246648e+01    2.363086e+00
  1.248236e+01    2.370930e+00
  1.249823e+01    2.375560e+00
  1.251411e+01    2.348640e+00
  1.252998e+01    2.331254e+00
  1.254586e+01    2.372291e+00
  1.256174e+01    2.378735e+00
  1.257761e+01    2.379130e+00
  1.259349e+01    2.421927e+00
  1.260936e+01    2.401327e+00
  1.262524e+01    2.400298e+00
  1.264111e+01    2.426712e+00
  1.265699e+01    2.428687e+00
  1.267286e+01    2.446020e+00
  1.268874e+01    2.466362e+00
  1.270462e+01    2.510513e+00
  1.272049e+01    2.494260e+00
  1.273637e+01    2.507633e+00
  1.275224e+01    2.576366e+00
  1.276812e+01    2.637465e+00
  1.278399e+01    2.669219e+00
  1.279987e+01    2.666079e+00
  1.281574e+01    2.729295e+00
  1.283162e+01    2.802838e+00
  1.284750e+01    2.854886e+00
  1.286337e+01    2.908952e+00
  1.287925e+01    3.040664e+00
  1.289512e+01    3.122750e+00
  1.291100e+01    3.318143e+00
  1.292687e+01    3.508851e+00
  1.294275e+01    3.709942e+00
  1.295862e+01    4.017261e+00
  1.297450e+01    4.295468e+00
  1.299038e+01    4.723090e+00
  1.300625e+01    5.288212e+00
  1.302213e+01    6.031626e+00
  1.303800e+01    6.896285e+00
  1.305388e+01    7.927953e+00
  1.306975e+01    9.265802e+00
  1.308563e+01    1.069305e+01
  1.310150e+01    1.225230e+01
  1.311738e+01    1.367472e+01
  1.313326e+01    1.503771e+01
  1.314913e+01    1.647862e+01
  1.316501e+01    1.765878e+01
  1.318088e+01    1.864525e+01
  1.319676e+01    1.899874e+01
  1.321263e+01    1.823422e+01
  1.322851e+01    1.652485e+01
  1.324438e+01    1.463039e+01
  1.326026e+01    1.243637e+01
  1.327614e+01    1.037461e+01
  1.329201e+01    8.721725e+00
  1.330789e+01    7.373824e+00
  1.332376e+01    6.365137e+00
  1.333964e+01    5.640846e+00
  1.335551e+01    5.049218e+00
  1.337139e+01    4.591591e+00
  1.338727e+01    4.192092e+00
  1.340314e+01    3.841912e+00
  1.341902e+01    3.646292e+00
  1.343489e+01    3.420260e+00
  1.345077e+01    3.211794e+00
  1.346664e+01    3.033806e+00
  1.348252e+01    2.951660e+00
  1.349839e+01    2.850266e+00
  1.351427e+01    2.771905e+00
  1.353015e+01    2.665421e+00
  1.354602e+01    2.623029e+00
  1.356190e+01    2.588033e+00
  1.357777e+01    2.507438e+00
  1.359365e+01    2.431708e+00
  1.360952e+01    2.416868e+00
  1.362540e+01    2.381816e+00
  1.364127e+01    2.361568e+00
  1.365715e+01    2.389731e+00
  1.367303e+01    2.346507e+00
  1.368890e+01    2.285969e+00
  1.370478e+01    2.237341e+00
  1.372065e+01    2.238319e+00
  1.373653e+01    2.260624e+00
  1.375240e+01    2.227377e+00
  1.376828e+01    2.193611e+00
  1.378415e+01    2.188645e+00
  1.380003e+01    2.201775e+00
  1.381591e+01    2.239311e+00
  1.383178e+01    2.202655e+00
  1.384766e+01    2.135519e+00
  1.386353e+01    2.127190e+00
  1.387941e+01    2.130258e+00
  1.389528e+01    2.143087e+00
  1.391116e+01    2.086773e+00
  1.392703e+01    2.105838e+00
  1.394291e+01    2.117644e+00
  1.395879e+01    2.070411e+00
  1.397466e+01    2.075528e+00
  1.399054e+01    2.076654e+00
  1.400641e+01    2.075211e+00
  1.402229e+01    2.090456e+00
  1.403816e+01    2.059243e+00
  1.405404e+01    2.005091e+00
  1.406991e+01    2.009913e+00
  1.408579e+01    2.031459e+00
  1.410167e+01    2.062814e+00
  1.411754e+01    2.064305e+00
  1.413342e+01    2.012352e+00
  1.414929e+01    2.028095e+00
  1.416517e+01    1.988847e+00
  1.418104e+01    1.993703e+00
  1.419692e+01    2.017815e+00
  1.421279e+01    2.027514e+00
  1.422867e+01    2.044159e+00
  1.424455e+01    2.021587e+00
  1.426042e+01    1.977581e+00
  1.427630e+01    1.961137e+00
  1.429217e+01    1.972816e+00
  1.430805e+01    1.975997e+00
  1.432392e+01    1.965006e+00
  1.433980e+01    1.952425e+00
  1.435568e+01    1.991373e+00
  1.437155e+01    1.979736e+00
  1.438743e+01    1.980191e+00
  1.440330e+01    1.954685e+00
  1.441918e+01    1.952182e+00
  1.443505e+01    1.938841e+00
  1.445093e+01    1.953462e+00
  1.446680e+01    1.967280e+00
  1.448268e+01    1.971532e+00
  1.449856e+01    1.929082e+00
  1.451443e+01    1.907514e+00
  1.453031e+01    1.967805e+00
  1.454618e+01    1.966887e+00
  1.456206e+01    1.934024e+00
  1.457793e+01    1.953293e+00
  1.459381e+01    1.949317e+00
  1.460968e+01    1.975473e+00
  1.462556e+01    1.904509e+00
  1.464144e+01    1.910507e+00
  1.465731e+01    1.916841e+00
  1.467319e+01    1.927677e+00
  1.468906e+01    1.927626e+00
  1.470494e+01    1.906045e+00
  1.472081e+01    1.907225e+00
  1.473669e+01    1.894278e+00
  1.475256e+01    1.912578e+00
  1.476844e+01    1.865769e+00
  1.478432e+01    1.877900e+00
  1.480019e+01    1.952778e+00
  1.481607e+01    1.943448e+00
  1.483194e+01    1.912895e+00
  1.484782e+01    1.955960e+00
  1.486369e+01    1.959353e+00
  1.487957e+01    1.998301e+00
  1.489544e+01    1.976020e+00
  1.491132e+01    1.962122e+00
  1.492720e+01    2.002870e+00
  1.494307e+01    2.014378e+00
  1.495895e+01    2.058844e+00
  1.497482e+01    2.084446e+00
  1.499070e+01    2.109292e+00
  1.500657e+01    2.146325e+00
  1.502245e+01    2.180887e+00
  1.503832e+01    2.240001e+00
  1.505420e+01    2.377180e+00
  1.507008e+01    2.499339e+00
  1.508595e+01    2.608265e+00
  1.510183e+01    2.790406e+00
  1.511770e+01    3.071404e+00
  1.513358e+01    3.322782e+00
  1.514945e+01    3.688345e+00
  1.516533e+01    4.138600e+00
  1.518120e+01    4.480989e+00
  1.519708e+01    4.913098e+00
  1.521296e+01    5.379991e+00
  1.522883e+01    5.667594e+00
  1.524471e+01    5.985436e+00
  1.526058e+01    6.186331e+00
  1.527646e+01    6.310242e+00
  1.529233e+01    6.383756e+00
  1.530821e+01    6.166670e+00
  1.532409e+01    5.748250e+00
  1.533996e+01    5.185283e+00
  1.535584e+01    4.621963e+00
  1.537171e+01    4.055711e+00
  1.538759e+01    3.555861e+00
  1.540346e+01    3.240969e+00
  1.541934e+01    2.952002e+00
  1.543521e+01    2.707567e+00
  1.545109e+01    2.499039e+00
  1.546697e+01    2.351216e+00
  1.548284e+01    2.276567e+00
  1.549872e+01    2.137515e+00
  1.551459e+01    2.093296e+00
  1.553047e+01    2.040453e+00
  1.554634e+01    1.966815e+00
  1.556222e+01    1.946907e+00
  1.557809e+01    1.944009e+00
  1.559397e+01    1.911417e+00
  1.560985e+01    1.854096e+00
  1.562572e+01    1.836977e+00
  1.564160e+01    1.813676e+00
  1.565747e+01    1.814394e+00
  1.567335e+01    1.792963e+00
  1.568922e+01    1.775558e+00
  1.570510e+01    1.736242e+00
  1.572097e+01    1.748671e+00
  1.573685e+01    1.719419e+00
  1.575273e+01    1.729690e+00
  1.576860e+01    1.727533e+00
  1.578448e+01    1.701155e+00
  1.580035e+01    1.686952e+00
  1.581623e+01    1.646698e+00
  1.583210e+01    1.661190e+00
  1.584798e+01    1.673108e+00
  1.586385e+01    1.677284e+00
  1.587973e+01    1.679694e+00
  1.589561e+01    1.670697e+00
  1.591148e+01    1.696923e+00
  1.592736e+01    1.670592e+00
  1.594323e+01    1.669019e+00
  1.595911e+01    1.654512e+00
  1.597498e+01    1.601166e+00
  1.599086e+01    1.613866e+00
  1.600673e+01    1.641172e+00
  1.602261e+01    1.651120e+00
  1.603849e+01    1.629856e+00
  1.605436e+01    1.627677e+00
  1.607024e+01    1.649779e+00
  1.608611e+01    1.631666e+00
  1.610199e+01    1.638734e+00
  1.611786e+01    1.625672e+00
  1.613374e+01    1.575658e+00
  1.614961e+01    1.581033e+00
  1.616549e+01    1.604148e+00
  1.618137e+01    1.576630e+00
  1.619724e+01    1.541753e+00
  1.621312e+01    1.563308e+00
  1.622899e+01    1.553534e+00
  1.624487e+01    1.549386e+00
  1.626074e+01    1.545692e+00
  1.627662e+01    1.569805e+00
  1.629250e+01    1.579329e+00
  1.630837e+01    1.579495e+00
  1.632425e+01    1.567573e+00
  1.634012e+01    1.550951e+00
  1.635600e+01    1.556112e+00
  1.637187e+01    1.559535e+00
  1.638775e+01    1.541962e+00
  1.640362e+01    1.541967e+00
  1.641950e+01    1.524997e+00
  1.643538e+01    1.505439e+00
  1.645125e+01    1.536022e+00
  1.646713e+01    1.524870e+00
  1.648300e+01    1.517795e+00
  1.649888e+01    1.504408e+00
  1.651475e+01    1.502546e+00
  1.653063e+01    1.461949e+00
  1.654650e+01    1.484596e+00
  1.656238e+01    1.499845e+00
  1.657826e+01    1.505715e+00
  1.659413e+01    1.516332e+00
  1.661001e+01    1.503678e+00
  1.662588e+01    1.502952e+00
  1.664176e+01    1.521877e+00
  1.665763e+01    1.476733e+00
  1.667351e+01    1.481135e+00
  1.668938e+01    1.500661e+00
  1.670526e+01    1.470929e+00
  1.672114e+01    1.469575e+00
  1.673701e+01    1.479984e+00
  1.675289e+01    1.471076e+00
  1.676876e+01    1.472453e+00
  1.678464e+01    1.488730e+00
  1.680051e+01    1.468989e+00
  1.681639e+01    1.464572e+00
  1.683226e+01    1.427189e+00
  1.684814e+01    1.440732e+00
  1.686402e+01    1.441543e+00
  1.687989e+01    1.449593e+00
  1.689577e+01    1.429996e+00
  1.691164e+01    1.434993e+00
  1.692752e+01    1.457781e+00
  1.694339e+01    1.444970e+00
  1.695927e+01    1.421526e+00
  1.697514e+01    1.430120e+00
  1.699102e+01    1.423321e+00
  1.700690e+01    1.417286e+00
  1.702277e+01    1.424438e+00
  1.703865e+01    1.410745e+00
  1.705452e+01    1.427126e+00
  1.707040e+01    1.420299e+00
  1.708627e+01    1.414387e+00
  1.710215e+01    1.424889e+00
  1.711802e+01    1.412093e+00
  1.713390e+01    1.422854e+00
  1.714978e+01    1.422167e+00
  1.716565e+01    1.380985e+00
  1.718153e+01    1.409919e+00
  1.719740e+01    1.405997e+00
  1.721328e+01    1.421242e+00
  1.722915e+01    1.420976e+00
  1.724503e+01    1.411492e+00
  1.726091e+01    1.387698e+00
  1.727678e+01    1.384465e+00
  1.729266e+01    1.406497e+00
  1.730853e+01    1.415010e+00
  1.732441e+01    1.396150e+00
  1.734028e+01    1.382330e+00
  1.735616e+01    1.406871e+00
  1.737203e+01    1.384947e+00
  1.738791e+01    1.376671e+00
  1.740379e+01    1.377835e+00
  1.741966e+01    1.367719e+00
  1.743554e+01    1.350651e+00
  1.745141e+01    1.341286e+00
  1.746729e+01    1.367811e+00
  1.748316e+01    1.381000e+00
  1.749904e+01    1.386213e+00
  1.751491e+01    1.382033e+00
  1.753079e+01    1.371807e+00
  1.754667e+01    1.377705e+00
  1.756254e+01    1.367085e+00
  1.757842e+01    1.343490e+00
  1.759429e+01    1.337877e+00
  1.761017e+01    1.344265e+00
  1.762604e+01    1.358473e+00
  1.764192e+01    1.353741e+00
  1.765779e+01    1.318909e+00
  1.767367e+01    1.322148e+00
  1.768955e+01    1.324629e+00
  1.770542e+01    1.335970e+00
  1.772130e+01    1.334986e+00
  1.773717e+01    1.320144e+00
  1.775305e+01    1.333282e+00
  1.776892e+01    1.373103e+00
  1.778480e+01    1.347237e+00
  1.780067e+01    1.321231e+00
  1.781655e+01    1.308539e+00
  1.783243e+01    1.315699e+00
  1.784830e+01    1.332719e+00
  1.786418e+01    1.338292e+00
  1.788005e+01    1.338624e+00
  1.789593e+01    1.354153e+00
  1.791180e+01    1.327427e+00
  1.792768e+01    1.320918e+00
  1.794355e+01    1.334343e+00
  1.795943e+01    1.339958e+00
  1.797531e+01    1.316343e+00
  1.799118e+01    1.319577e+00
  1.800706e+01    1.326192e+00
  1.802293e+01    1.308365e+00
  1.803881e+01    1.307529e+00
  1.805468e+01    1.295505e+00
  1.807056e+01    1.312394e+00
  1.808643e+01    1.299950e+00
  1.810231e+01    1.309225e+00
  1.811819e+01    1.296169e+00
  1.813406e+01    1.287781e+00
  1.814994e+01    1.305392e+00
  1.816581e+01    1.293013e+00
  1.818169e+01    1.252225e+00
  1.819756e+01    1.261604e+00
  1.821344e+01    1.295976e+00
  1.822932e+01    1.303405e+00
  1.824519e+01    1.298642e+00
  1.826107e+01    1.294211e+00
  1.827694e+01    1.280817e+00
  1.829282e+01    1.282549e+00
  1.830869e+01    1.273471e+00
  1.832457e+01    1.266030e+00
  1.834044e+01    1.261882e+00
  1.835632e+01    1.262076e+00
  1.837220e+01    1.283516e+00
  1.838807e+01    1.273311e+00
  1.840395e+01    1.270898e+00
  1.841982e+01    1.247725e+00
  1.843570e+01    1.289788e+00
  1.845157e+01    1.278628e+00
  1.846745e+01    1.263476e+00
  1.848332e+01    1.266636e+00
  1.849920e+01    1.261866e+00
  1.851508e+01    1.255675e+00
  1.853095e+01    1.248638e+00
  1.854683e+01    1.237736e+00
  1.856270e+01    1.225615e+00
  1.857858e+01    1.256368e+00
  1.859445e+01    1.255593e+00
  1.861033e+01    1.258888e+00
  1.862620e+01    1.241233e+00
  1.864208e+01    1.231688e+00
  1.865796e+01    1.242711e+00
  1.867383e+01    1.253234e+00
  1.868971e+01    1.259330e+00
  1.870558e+01    1.238141e+00
  1.872146e+01    1.223201e+00
  1.873733e+01    1.221096e+00
  1.875321e+01    1.237405e+00
  1.876908e+01    1.231647e+00
  1.878496e+01    1.227743e+00
  1.880084e+01    1.208092e+00
  1.881671e+01    1.200072e+00
  1.883259e+01    1.225639e+00
  1.884846e+01    1.234516e+00
  1.886434e+01    1.233222e+00
  1.888021e+01    1.218367e+00
  1.889609e+01    1.228487e+00
  1.891196e+01    1.232674e+00
  1.892784e+01    1.235587e+00
  1.894372e+01    1.230407e+00
  1.895959e+01    1.206113e+00
  1.897547e+01    1.202829e+00
  1.899134e+01    1.208861e+00
  1.900722e+01    1.219852e+00
  1.902309e+01    1.216707e+00
  1.903897e+01    1.196165e+00
  1.905484e+01    1.205953e+00
  1.907072e+01    1.183651e+00
  1.908660e+01    1.183948e+00
  1.910247e+01    1.195269e+00
  1.911835e+01    1.205018e+00
  1.913422e+01    1.197764e+00
  1.915010e+01    1.222210e+00
  1.916597e+01    1.209717e+00
  1.918185e+01    1.194843e+00
  1.919773e+01    1.168906e+00
  1.921360e+01    1.167131e+00
  1.922948e+01    1.183450e+00
  1.924535e+01    1.178370e+00
  1.926123e+01    1.199648e+00
  1.927710e+01    1.210125e+00
  1.929298e+01    1.196014e+00
  1.930885e+01    1.170253e+00
  1.932473e+01    1.177311e+00
  1.934061e+01    1.162661e+00
  1.935648e+01    1.178655e+00
  1.937236e+01    1.169865e+00
  1.938823e+01    1.161057e+00
  1.940411e+01    1.179519e+00
  1.941998e+01    1.189001e+00
  1.943586e+01    1.177298e+00
  1.945173e+01    1.179906e+00
  1.946761e+01    1.177225e+00
  1.948349e+01    1.164875e+00
  1.949936e+01    1.173193e+00
  1.951524e+01    1.170284e+00
  1.953111e+01    1.176337e+00
  1.954699e+01    1.158441e+00
  1.956286e+01    1.172347e+00
  1.957874e+01    1.175252e+00
  1.959461e+01    1.171207e+00
  1.961049e+01    1.165296e+00
  1.962637e+01    1.141908e+00
  1.964224e+01    1.143057e+00
  1.965812e+01    1.146659e+00
  1.967399e+01    1.130941e+00
  1.968987e+01    1.165096e+00
  1.970574e+01    1.162599e+00
  1.972162e+01    1.167961e+00
  1.973749e+01    1.127954e+00
  1.975337e+01    1.135572e+00
  1.976925e+01    1.169176e+00
  1.978512e+01    1.183463e+00
  1.980100e+01    1.165231e+00
  1.981687e+01    1.159079e+00
  1.983275e+01    1.126642e+00
  1.984862e+01    1.129335e+00
  1.986450e+01    1.140868e+00
  1.988037e+01    1.112660e+00
  1.989625e+01    1.116935e+00
  1.991213e+01    1.129295e+00
  1.992800e+01    1.144701e+00
  1.994388e+01    1.139006e+00
  1.995975e+01    1.139213e+00
  1.997563e+01    1.154088e+00
  1.999150e+01    1.136757e+00
  2.000738e+01    1.137112e+00
  2.002325e+01    1.124720e+00
  2.003913e+01    1.131935e+00
  2.005501e+01    1.132573e+00
  2.007088e+01    1.129261e+00
  2.008676e+01    1.110918e+00
  2.010263e+01    1.085728e+00
  2.011851e+01    1.112179e+00
  2.013438e+01    1.119462e+00
  2.015026e+01    1.121552e+00
  2.016614e+01    1.119543e+00
  2.018201e+01    1.103616e+00
  2.019789e+01    1.112388e+00
  2.021376e+01    1.096732e+00
  2.022964e+01    1.113209e+00
  2.024551e+01    1.134827e+00
  2.026139e+01    1.106631e+00
  2.027726e+01    1.108799e+00
  2.029314e+01    1.130527e+00
  2.030902e+01    1.114419e+00
  2.032489e+01    1.103740e+00
  2.034077e+01    1.102991e+00
  2.035664e+01    1.109879e+00
  2.037252e+01    1.087295e+00
  2.038839e+01    1.082041e+00
  2.040427e+01    1.083249e+00
  2.042014e+01    1.108572e+00
  2.043602e+01    1.112566e+00
  2.045190e+01    1.087481e+00
  2.046777e+01    1.106461e+00
  2.048365e+01    1.096118e+00
  2.049952e+01    1.075751e+00
  2.051540e+01    1.070439e+00
  2.053127e+01    1.090753e+00
  2.054715e+01    1.099096e+00
  2.056302e+01    1.115932e+00
  2.057890e+01    1.095198e+00
  2.059478e+01    1.075890e+00
  2.061065e+01    1.089839e+00
  2.062653e+01    1.100261e+00
  2.064240e+01    1.088020e+00
  2.065828e+01    1.086921e+00
  2.067415e+01    1.113668e+00
  2.069003e+01    1.113547e+00
  2.070590e+01    1.096346e+00
  2.072178e+01    1.102263e+00
  2.073766e+01    1.067885e+00
  2.075353e+01    1.065698e+00
  2.076941e+01    1.066123e+00
  2.078528e+01    1.066328e+00
  2.080116e+01    1.097677e+00
  2.081703e+01    1.080857e+00
  2.083291e+01    1.059937e+00
  2.084878e+01    1.086069e+00
  2.086466e+01    1.095165e+00
  2.088054e+01    1.075480e+00
  2.089641e+01    1.096817e+00
  2.091229e+01    1.091023e+00
  2.092816e+01    1.074463e+00
  2.094404e+01    1.086173e+00
  2.095991e+01    1.072121e+00
  2.097579e+01    1.088305e+00
  2.099166e+01    1.082320e+00
  2.100754e+01    1.093345e+00
  2.102342e+01    1.077844e+00
  2.103929e+01    1.075477e+00
  2.105517e+01    1.094347e+00
  2.107104e+01    1.098291e+00
  2.108692e+01    1.090084e+00
  2.110279e+01    1.090265e+00
  2.111867e+01    1.098862e+00
  2.113455e+01    1.092312e+00
  2.115042e+01    1.083584e+00
  2.116630e+01    1.092264e+00
  2.118217e+01    1.102968e+00
  2.119805e+01    1.088678e+00
  2.121392e+01    1.131814e+00
  2.122980e+01    1.125915e+00
  2.124567e+01    1.103323e+00
  2.126155e+01    1.116709e+00
  2.127743e+01    1.109123e+00
  2.129330e+01    1.125892e+00
  2.130918e+01    1.119848e+00
  2.132505e+01    1.134287e+00
  2.134093e+01    1.158504e+00
  2.135680e+01    1.138223e+00
  2.137268e+01    1.153967e+00
  2.138855e+01    1.185669e+00
  2.140443e+01    1.183987e+00
  2.142031e+01    1.204259e+00
  2.143618e+01    1.222854e+00
  2.145206e+01    1.225014e+00
  2.146793e+01    1.245447e+00
  2.148381e+01    1.253760e+00
  2.149968e+01    1.279832e+00
  2.151556e+01    1.311641e+00
  2.153143e+01    1.346394e+00
  2.154731e+01    1.374144e+00
  2.156319e+01    1.409593e+00
  2.157906e+01    1.446554e+00
  2.159494e+01    1.511562e+00
  2.161081e+01    1.560918e+00
  2.162669e+01    1.644700e+00
  2.164256e+01    1.731254e+00
  2.165844e+01    1.868653e+00
  2.167431e+01    2.028722e+00
  2.169019e+01    2.206876e+00
  2.170607e+01    2.413272e+00
  2.172194e+01    2.630574e+00
  2.173782e+01    2.974562e+00
  2.175369e+01    3.412121e+00
  2.176957e+01    3.913882e+00
  2.178544e+01    4.476420e+00
  2.180132e+01    5.117924e+00
  2.181719e+01    5.874605e+00
  2.183307e+01    6.625624e+00
  2.184895e+01    7.450016e+00
  2.186482e+01    8.239169e+00
  2.188070e+01    9.105883e+00
  2.189657e+01    9.809594e+00
  2.191245e+01    1.026016e+01
  2.192832e+01    1.040172e+01
  2.194420e+01    1.013565e+01
  2.196007e+01    9.376253e+00
  2.197595e+01    8.355943e+00
  2.199183e+01    7.283586e+00
  2.200770e+01    6.154594e+00
  2.202358e+01    5.187163e+00
  2.203945e+01    4.398715e+00
  2.205533e+01    3.739490e+00
  2.207120e+01    3.280045e+00
  2.208708e+01    2.909396e+00
  2.210296e+01    2.541919e+00
  2.211883e+01    2.327562e+00
  2.213471e+01    2.127686e+00
  2.215058e+01    1.983632e+00
  2.216646e+01    1.842384e+00
  2.218233e+01    1.745809e+00
  2.219821e+01    1.656538e+00
  2.221408e+01    1.560472e+00
  2.222996e+01    1.467366e+00
  2.224584e+01    1.424284e+00
  2.226171e+01    1.359502e+00
  2.227759e+01    1.299306e+00
  2.229346e+01    1.282197e+00
  2.230934e+01    1.269036e+00
  2.232521e+01    1.214692e+00
  2.234109e+01    1.196220e+00
  2.235696e+01    1.170470e+00
  2.237284e+01    1.154520e+00
  2.238872e+01    1.162901e+00
  2.240459e+01    1.115383e+00
  2.242047e+01    1.116763e+00
  2.243634e+01    1.110012e+00
  2.245222e+01    1.085068e+00
  2.246809e+01    1.076616e+00
  2.248397e+01    1.073826e+00
  2.249984e+01    1.088142e+00
  2.251572e+01    1.064323e+00
  2.253160e+01    1.021537e+00
  2.254747e+01    1.013145e+00
  2.256335e+01    1.015109e+00
  2.257922e+01    1.021300e+00
  2.259510e+01    1.021696e+00
  2.261097e+01    1.018030e+00
  2.262685e+01    1.004407e+00
  2.264272e+01    9.959403e-01
  2.265860e+01    9.799510e-01
  2.267448e+01    9.851707e-01
  2.269035e+01    9.832414e-01
  2.270623e+01    9.802960e-01
  2.272210e+01    9.833013e-01
  2.273798e+01    9.960908e-01
  2.275385e+01    9.856051e-01
  2.276973e+01    9.370394e-01
  2.278560e+01    9.648377e-01
  2.280148e+01    9.616128e-01
  2.281736e+01    9.255129e-01
  2.283323e+01    9.342456e-01
  2.284911e+01    9.546909e-01
  2.286498e+01    9.403268e-01
  2.288086e+01    9.375079e-01
  2.289673e+01    9.196662e-01
  2.291261e+01    9.087345e-01
  2.292848e+01    9.115190e-01
  2.294436e+01    9.500974e-01
  2.296024e+01    9.339800e-01
  2.297611e+01    9.078661e-01
  2.299199e+01    9.050437e-01
  2.300786e+01    9.003395e-01
  2.302374e+01    8.870574e-01
  2.303961e+01    9.058011e-01
  2.305549e+01    9.296430e-01
  2.307137e+01    9.032900e-01
  2.308724e+01    8.915645e-01
  2.310312e+01    9.097863e-01
  2.311899e+01    9.009832e-01
  2.313487e+01    8.841430e-01
  2.315074e+01    8.711796e-01
  2.316662e+01    8.521883e-01
  2.318249e+01    8.767347e-01
  2.319837e+01    8.718270e-01
  2.321425e+01    8.683878e-01
  2.323012e+01    8.633595e-01
  2.324600e+01    8.547317e-01
  2.326187e+01    8.642638e-01
  2.327775e+01    8.770489e-01
  2.329362e+01    8.547794e-01
  2.330950e+01    8.756835e-01
  2.332537e+01    8.817126e-01
  2.334125e+01    8.572249e-01
  2.335713e+01    8.806116e-01
  2.337300e+01    8.615409e-01
  2.338888e+01    8.653001e-01
  2.340475e+01    8.538564e-01
  2.342063e+01    8.654330e-01
  2.343650e+01    8.580303e-01
  2.345238e+01    8.715276e-01
  2.346825e+01    8.753051e-01
  2.348413e+01    8.497838e-01
  2.350001e+01    8.437545e-01
  2.351588e+01    8.435176e-01
  2.353176e+01    8.598841e-01
  2.354763e+01    8.394275e-01
  2.356351e+01    8.622273e-01
  2.357938e+01    8.450215e-01
  2.359526e+01    8.507960e-01
  2.361113e+01    8.568698e-01
  2.362701e+01    8.535212e-01
  2.364289e+01    8.540941e-01
  2.365876e+01    8.528356e-01
  2.367464e+01    8.363151e-01
  2.369051e+01    8.201047e-01
  2.370639e+01    8.432437e-01
  2.372226e+01    8.256276e-01
  2.373814e+01    8.187248e-01
  2.375401e+01    8.197613e-01
  2.376989e+01    8.303923e-01
  2.378577e+01    8.292757e-01
  2.380164e+01    8.338742e-01
  2.381752e+01    8.423941e-01
  2.383339e+01    8.179343e-01
  2.384927e+01    8.144189e-01
  2.386514e+01    8.356126e-01
  2.388102e+01    8.252080e-01
  2.389689e+01    8.337557e-01
  2.391277e+01    8.171213e-01
  2.392865e+01    8.032341e-01
  2.394452e+01    7.956678e-01
  2.396040e+01    8.019927e-01
  2.397627e+01    7.904073e-01
  2.399215e+01    7.944862e-01
  2.400802e+01    7.729755e-01
  2.402390e+01    7.779834e-01
  2.403978e+01    8.084263e-01
  2.405565e+01    7.917795e-01
  2.407153e+01    8.039289e-01
  2.408740e+01    8.026055e-01
  2.410328e+01    7.891535e-01
  2.411915e+01    7.808557e-01
  2.413503e+01    7.817704e-01
  2.415090e+01    7.871522e-01
  2.416678e+01    8.013643e-01
  2.418266e+01    7.936208e-01
  2.419853e+01    7.743255e-01
  2.421441e+01    7.780259e-01
  2.423028e+01    8.024890e-01
  2.424616e+01    7.872410e-01
  2.426203e+01    7.845801e-01
  2.427791e+01    7.840161e-01
  2.429378e+01    8.049479e-01
  2.430966e+01    7.988654e-01
  2.432554e+01    7.904187e-01
  2.434141e+01    8.013576e-01
  2.435729e+01    8.030374e-01
  2.437316e+01    7.930603e-01
  2.438904e+01    7.977953e-01
  2.440491e+01    8.167937e-01
  2.442079e+01    8.075095e-01
  2.443666e+01    8.099068e-01
  2.445254e+01    8.162683e-01
  2.446842e+01    8.135079e-01
  2.448429e+01    8.078855e-01
  2.450017e+01    8.190417e-01
  2.451604e+01    7.976784e-01
  2.453192e+01    7.772918e-01
  2.454779e+01    8.108970e-01
  2.456367e+01    7.875217e-01
  2.457954e+01    7.907467e-01
  2.459542e+01    8.100743e-01
  2.461130e+01    7.914752e-01
  2.462717e+01    7.790382e-01
  2.464305e+01    7.825190e-01
  2.465892e+01    7.908573e-01
  2.467480e+01    8.075133e-01
  2.469067e+01    7.889026e-01
  2.470655e+01    7.963898e-01
  2.472242e+01    7.952282e-01
  2.473830e+01    7.851572e-01
  2.475418e+01    7.858129e-01
  2.477005e+01    7.939353e-01
  2.478593e+01    8.185102e-01
  2.480180e+01    8.351569e-01
  2.481768e+01    8.105218e-01
  2.483355e+01    8.070390e-01
  2.484943e+01    7.989631e-01
  2.486530e+01    7.904164e-01
  2.488118e+01    7.990952e-01
  2.489706e+01    8.067046e-01
  2.491293e+01    8.171908e-01
  2.492881e+01    8.085942e-01
  2.494468e+01    8.082066e-01
  2.496056e+01    8.072568e-01
  2.497643e+01    8.199974e-01
  2.499231e+01    8.153913e-01
  2.500819e+01    7.882074e-01
  2.502406e+01    7.895079e-01
  2.503994e+01    8.098383e-01
  2.505581e+01    8.061700e-01
  2.507169e+01    8.182161e-01
  2.508756e+01    8.130732e-01
  2.510344e+01    8.343130e-01
  2.511931e+01    8.282824e-01
  2.513519e+01    8.295951e-01
  2.515107e+01    8.275176e-01
  2.516694e+01    8.137453e-01
  2.518282e+01    8.430303e-01
  2.519869e+01    8.393111e-01
  2.521457e+01    8.360566e-01
  2.523044e+01    8.416796e-01
  2.524632e+01    8.544976e-01
  2.526219e+01    8.484159e-01
  2.527807e+01    8.692234e-01
  2.529395e+01    8.768263e-01
  2.530982e+01    8.779397e-01
  2.532570e+01    8.671292e-01
  2.534157e+01    8.736960e-01
  2.535745e+01    8.824788e-01
  2.537332e+01    8.961029e-01
  2.538920e+01    9.040107e-01
  2.540507e+01    9.071617e-01
  2.542095e+01    9.484907e-01
  2.543683e+01    9.369519e-01
  2.545270e+01    9.551609e-01
  2.546858e+01    9.634762e-01
  2.548445e+01    9.580915e-01
  2.550033e+01    9.584790e-01
  2.551620e+01    9.873914e-01
  2.553208e+01    1.006316e+00
  2.554795e+01    1.020843e+00
  2.556383e+01    1.047544e+00
  2.557971e+01    1.076457e+00
  2.559558e+01    1.087757e+00
  2.561146e+01    1.129780e+00
  2.562733e+01    1.181932e+00
  2.564321e+01    1.206088e+00
  2.565908e+01    1.264377e+00
  2.567496e+01    1.322801e+00
  2.569083e+01    1.366119e+00
  2.570671e+01    1.434500e+00
  2.572259e+01    1.509174e+00
  2.573846e+01    1.618190e+00
  2.575434e+01    1.746954e+00
  2.577021e+01    1.882921e+00
  2.578609e+01    2.082872e+00
  2.580196e+01    2.368230e+00
  2.581784e+01    2.664183e+00
  2.583371e+01    2.998193e+00
  2.584959e+01    3.416643e+00
  2.586547e+01    3.889060e+00
  2.588134e+01    4.539751e+00
  2.589722e+01    5.183816e+00
  2.591309e+01    5.937630e+00
  2.592897e+01    6.645105e+00
  2.594484e+01    7.415885e+00
  2.596072e+01    8.047589e+00
  2.597660e+01    8.514040e+00
  2.599247e+01    8.694147e+00
  2.600835e+01    8.568532e+00
  2.602422e+01    8.084620e+00
  2.604010e+01    7.370791e+00
  2.605597e+01    6.439548e+00
  2.607185e+01    5.532797e+00
  2.608772e+01    4.726672e+00
  2.610360e+01    4.032717e+00
  2.611948e+01    3.467798e+00
  2.613535e+01    3.023055e+00
  2.615123e+01    2.651812e+00
  2.616710e+01    2.365535e+00
  2.618298e+01    2.145584e+00
  2.619885e+01    1.936759e+00
  2.621473e+01    1.801385e+00
  2.623060e+01    1.679366e+00
  2.624648e+01    1.575797e+00
  2.626236e+01    1.469668e+00
  2.627823e+01    1.356837e+00
  2.629411e+01    1.330537e+00
  2.630998e+01    1.263663e+00
  2.632586e+01    1.202408e+00
  2.634173e+01    1.159523e+00
  2.635761e+01    1.123221e+00
  2.637348e+01    1.106681e+00
  2.638936e+01    1.088430e+00
  2.640524e+01    1.060235e+00
  2.642111e+01    1.035849e+00
  2.643699e+01    1.004276e+00
  2.645286e+01    9.986957e-01
  2.646874e+01    1.015518e+00
  2.648461e+01    9.962307e-01
  2.650049e+01    9.734815e-01
  2.651636e+01    9.600678e-01
  2.653224e+01    9.643942e-01
  2.654812e+01    9.575749e-01
  2.656399e+01    9.418014e-01
  2.657987e+01    9.530752e-01
  2.659574e+01    9.270066e-01
  2.661162e+01    9.227248e-01
  2.662749e+01    9.321247e-01
  2.664337e+01    9.320635e-01
  2.665924e+01    9.280182e-01
  2.667512e+01    9.175952e-01
  2.669100e+01    9.171039e-01
  2.670687e+01    9.170454e-01
  2.672275e+01    9.067049e-01
  2.673862e+01    9.004043e-01
  2.675450e+01    9.121145e-01
  2.677037e+01    8.897794e-01
  2.678625e+01    9.117269e-01
  2.680212e+01    9.128286e-01
  2.681800e+01    9.149826e-01
  2.683388e+01    9.057197e-01
  2.684975e+01    9.166432e-01
  2.686563e+01    9.304311e-01
  2.688150e+01    9.185698e-01
  2.689738e+01    9.141063e-01
  2.691325e+01    9.361675e-01
  2.692913e+01    9.417332e-01
  2.694501e+01    9.645491e-01
  2.696088e+01    9.569211e-01
  2.697676e+01    9.713721e-01
  2.699263e+01    1.002324e+00
  2.700851e+01    1.026971e+00
  2.702438e+01    1.043846e+00
  2.704026e+01    1.054520e+00
  2.705613e+01    1.131402e+00
  2.707201e+01    1.150952e+00
  2.708789e+01    1.191633e+00
  2.710376e+01    1.295334e+00
  2.711964e+01    1.413274e+00
  2.713551e+01    1.525741e+00
  2.715139e+01    1.649466e+00
  2.716726e+01    1.794552e+00
  2.718314e+01    1.957230e+00
  2.719901e+01    2.159013e+00
  2.721489e+01    2.311580e+00
  2.723077e+01    2.451870e+00
  2.724664e+01    2.533431e+00
  2.726252e+01    2.498128e+00
  2.727839e+01    2.420429e+00
  2.729427e+01    2.296014e+00
  2.731014e+01    2.104659e+00
  2.732602e+01    1.922609e+00
  2.734189e+01    1.760496e+00
  2.735777e+01    1.601219e+00
  2.737365e+01    1.486532e+00
  2.738952e+01    1.383030e+00
  2.740540e+01    1.254953e+00
  2.742127e+01    1.159252e+00
  2.743715e+01    1.121268e+00
  2.745302e+01    1.091735e+00
  2.746890e+01    1.036034e+00
  2.748477e+01    1.010105e+00
  2.750065e+01    9.907853e-01
  2.751653e+01    9.807441e-01
  2.753240e+01    9.493826e-01
  2.754828e+01    9.327211e-01
  2.756415e+01    9.064252e-01
  2.758003e+01    8.843001e-01
  2.759590e+01    9.015533e-01
  2.761178e+01    8.820710e-01
  2.762765e+01    8.435927e-01
  2.764353e+01    8.310089e-01
  2.765941e+01    8.574339e-01
  2.767528e+01    8.523068e-01
  2.769116e+01    8.478800e-01
  2.770703e+01    8.818939e-01
  2.772291e+01    8.670585e-01
  2.773878e+01    8.471369e-01
  2.775466e+01    8.304581e-01
  2.777054e+01    8.228917e-01
  2.778641e+01    8.409566e-01
  2.780229e+01    8.463745e-01
  2.781816e+01    8.265928e-01
  2.783404e+01    8.098207e-01
  2.784991e+01    8.063385e-01
  2.786579e+01    8.116546e-01
  2.788166e+01    8.093883e-01
  2.789754e+01    8.236971e-01
  2.791342e+01    8.288805e-01
  2.792929e+01    7.986853e-01
  2.794517e+01    8.242844e-01
  2.796104e+01    8.422317e-01
  2.797692e+01    8.091454e-01
  2.799279e+01    8.054975e-01
  2.800867e+01    8.005870e-01
  2.802454e+01    7.689123e-01
  2.804042e+01    7.668194e-01
  2.805630e+01    7.799124e-01
  2.807217e+01    7.820714e-01
  2.808805e+01    8.019423e-01
  2.810392e+01    7.795077e-01
  2.811980e+01    7.824914e-01
  2.813567e+01    7.763526e-01
  2.815155e+01    7.825936e-01
  2.816742e+01    7.769450e-01
  2.818330e+01    7.869226e-01
  2.819918e+01    7.721718e-01
  2.821505e+01    7.645472e-01
  2.823093e+01    7.632214e-01
  2.824680e+01    7.866454e-01
  2.826268e+01    7.973551e-01
  2.827855e+01    7.893482e-01
  2.829443e+01    7.817996e-01
  2.831030e+01    7.683504e-01
  2.832618e+01    7.751229e-01
  2.834206e+01    7.683307e-01
  2.835793e+01    7.634528e-01
  2.837381e+01    7.667867e-01
  2.838968e+01    7.591184e-01
  2.840556e+01    7.889137e-01
  2.842143e+01    7.858640e-01
  2.843731e+01    7.861133e-01
  2.845318e+01    7.960853e-01
  2.846906e+01    7.922623e-01
  2.848494e+01    7.888548e-01
  2.850081e+01    7.810783e-01
  2.851669e+01    7.587321e-01
  2.853256e+01    7.774974e-01
  2.854844e+01    7.601851e-01
  2.856431e+01    7.567919e-01
  2.858019e+01    7.644635e-01
  2.859606e+01    7.595177e-01
  2.861194e+01    7.493290e-01
  2.862782e+01    7.735326e-01
  2.864369e+01    7.652770e-01
  2.865957e+01    7.810507e-01
  2.867544e+01    7.717937e-01
  2.869132e+01    7.640789e-01
  2.870719e+01    7.738109e-01
  2.872307e+01    7.566118e-01
  2.873895e+01    7.564946e-01
  2.875482e+01    7.580230e-01
  2.877070e+01    7.554632e-01
  2.878657e+01    7.627622e-01
  2.880245e+01    7.583509e-01
  2.881832e+01    7.644137e-01
  2.883420e+01    7.615642e-01
  2.885007e+01    7.576416e-01
  2.886595e+01    7.471440e-01
  2.888183e+01    7.381749e-01
  2.889770e+01    7.480121e-01
  2.891358e+01    7.784327e-01
  2.892945e+01    7.656195e-01
  2.894533e+01    7.528464e-01
  2.896120e+01    7.399699e-01
  2.897708e+01    7.363457e-01
  2.899295e+01    7.635320e-01
  2.900883e+01    7.551731e-01
  2.902471e+01    7.388361e-01
  2.904058e+01    7.448835e-01
  2.905646e+01    7.481049e-01
  2.907233e+01    7.339646e-01
  2.908821e+01    7.384184e-01
  2.910408e+01    7.351180e-01
  2.911996e+01    7.377360e-01
  2.913583e+01    7.471852e-01
  2.915171e+01    7.520039e-01
  2.916759e+01    7.262914e-01
  2.918346e+01    7.315464e-01
  2.919934e+01    7.373279e-01
  2.921521e+01    7.454332e-01
  2.923109e+01    7.331982e-01
  2.924696e+01    7.252140e-01
  2.926284e+01    7.273933e-01
  2.927871e+01    7.262699e-01
  2.929459e+01    7.202219e-01
  2.931047e+01    7.221204e-01
  2.932634e+01    7.334954e-01
  2.934222e+01    7.401516e-01
  2.935809e+01    7.471312e-01
  2.937397e+01    7.523060e-01
  2.938984e+01    7.475533e-01
  2.940572e+01    7.316737e-01
  2.942159e+01    7.275716e-01
  2.943747e+01    7.385910e-01
  2.945335e+01    7.575441e-01
  2.946922e+01    7.102236e-01
  2.948510e+01    7.150962e-01
  2.950097e+01    7.302995e-01
  2.951685e+01    7.198148e-01
  2.953272e+01    7.051786e-01
  2.954860e+01    7.097828e-01
  2.956447e+01    7.371721e-01
  2.958035e+01    7.264492e-01
  2.959623e+01    7.353942e-01
  2.961210e+01    7.442993e-01
  2.962798e+01    7.320434e-01
  2.964385e+01    7.201589e-01
  2.965973e+01    7.182033e-01
  2.967560e+01    7.417676e-01
  2.969148e+01    7.406096e-01
  2.970736e+01    7.383454e-01
  2.972323e+01    7.448049e-01
  2.973911e+01    7.412185e-01
  2.975498e+01    7.275047e-01
  2.977086e+01    7.210271e-01
  2.978673e+01    7.191116e-01
  2.980261e+01    7.226025e-01
  2.981848e+01    7.184061e-01
  2.983436e+01    7.376799e-01
  2.985024e+01    7.058964e-01
  2.986611e+01    7.106720e-01
  2.988199e+01    7.230008e-01
  2.989786e+01    7.201418e-01
  2.991374e+01    7.284546e-01
  2.992961e+01    7.236261e-01
  2.994549e+01    7.365238e-01
  2.996136e+01    7.352240e-01
  2.997724e+01    7.304515e-01
  2.999312e+01    6.973347e-01
  3.000899e+01    7.231001e-01
  3.002487e+01    7.308861e-01
  3.004074e+01    7.598842e-01
  3.005662e+01    7.621667e-01
  3.007249e+01    7.720913e-01
  3.008837e+01    7.480109e-01
  3.010424e+01    7.427897e-01
  3.012012e+01    7.376824e-01
  3.013600e+01    7.338077e-01
  3.015187e+01    7.245625e-01
  3.016775e+01    7.148347e-01
  3.018362e+01    7.374368e-01
  3.019950e+01    7.241263e-01
  3.021537e+01    7.064830e-01
  3.023125e+01    7.110612e-01
  3.024712e+01    7.073577e-01
  3.026300e+01    7.122803e-01
  3.027888e+01    7.130112e-01
  3.029475e+01    7.228558e-01
  3.031063e+01    7.126086e-01
  3.032650e+01    7.306083e-01
  3.034238e+01    7.180603e-01
  3.035825e+01    7.135433e-01
  3.037413e+01    7.212779e-01
  3.039000e+01    7.392964e-01
  3.040588e+01    7.189657e-01
  3.042176e+01    7.215487e-01
  3.043763e+01    7.280621e-01
  3.045351e+01    6.999434e-01
  3.046938e+01    6.919327e-01
  3.048526e+01    7.129391e-01
  3.050113e+01    7.253545e-01
  3.051701e+01    7.236382e-01
  3.053288e+01    7.032343e-01
  3.054876e+01    7.034554e-01
  3.056464e+01    7.253600e-01
  3.058051e+01    7.279621e-01
  3.059639e+01    7.320148e-01
  3.061226e+01    7.354634e-01
  3.062814e+01    7.190510e-01
  3.064401e+01    7.076842e-01
  3.065989e+01    7.229987e-01
  3.067577e+01    7.339907e-01
  3.069164e+01    7.251302e-01
  3.070752e+01    7.176833e-01
  3.072339e+01    6.987628e-01
  3.073927e+01    7.050419e-01
  3.075514e+01    7.105399e-01
  3.077102e+01    7.124100e-01
  3.078689e+01    7.274993e-01
  3.080277e+01    7.199172e-01
  3.081865e+01    7.156562e-01
  3.083452e+01    7.152802e-01
  3.085040e+01    7.329689e-01
  3.086627e+01    7.214547e-01
  3.088215e+01    7.219323e-01
  3.089802e+01    7.255061e-01
  3.091390e+01    7.164667e-01
  3.092977e+01    7.124525e-01
  3.094565e+01    7.090520e-01
  3.096153e+01    7.037172e-01
  3.097740e+01    7.070127e-01
  3.099328e+01    7.171303e-01
  3.100915e+01    7.308127e-01
  3.102503e+01    7.274124e-01
  3.104090e+01    7.225394e-01
  3.105678e+01    7.262090e-01
  3.107265e+01    7.135983e-01
  3.108853e+01    7.368864e-01
  3.110441e+01    7.278106e-01
  3.112028e+01    7.269281e-01
  3.113616e+01    7.311845e-01
  3.115203e+01    7.370354e-01
  3.116791e+01    7.252448e-01
  3.118378e+01    7.257726e-01
  3.119966e+01    7.448248e-01
  3.121553e+01    7.300887e-01
  3.123141e+01    7.273394e-01
  3.124729e+01    7.321661e-01
  3.126316e+01    7.392894e-01
  3.127904e+01    7.362431e-01
  3.129491e+01    7.338431e-01
  3.131079e+01    7.566017e-01
  3.132666e+01    7.509951e-01
  3.134254e+01    7.411581e-01
  3.135841e+01    7.522433e-01
  3.137429e+01    7.319548e-01
  3.139017e+01    7.497529e-01
  3.140604e+01    7.470622e-01
  3.142192e+01    7.449228e-01
  3.143779e+01    7.386379e-01
  3.145367e+01    7.784122e-01
  3.146954e+01    7.866262e-01
  3.148542e+01    7.865292e-01
  3.150129e+01    7.676877e-01
  3.151717e+01    7.971535e-01
  3.153305e+01    7.882236e-01
  3.154892e+01    7.834934e-01
  3.156480e+01    7.888861e-01
  3.158067e+01    8.126745e-01
  3.159655e+01    8.089871e-01
  3.161242e+01    8.172372e-01
  3.162830e+01    8.371040e-01
  3.164418e+01    8.376212e-01
  3.166005e+01    8.758339e-01
  3.167593e+01    8.934165e-01
  3.169180e+01    9.081473e-01
  3.170768e+01    9.229306e-01
  3.172355e+01    9.602326e-01
  3.173943e+01    1.016369e+00
  3.175530e+01    1.049876e+00
  3.177118e+01    1.101780e+00
  3.178706e+01    1.181291e+00
  3.180293e+01    1.260625e+00
  3.181881e+01    1.356022e+00
  3.183468e+01    1.513295e+00
  3.185056e+01    1.660701e+00
  3.186643e+01    1.804050e+00
  3.188231e+01    2.008099e+00
  3.189818e+01    2.181170e+00
  3.191406e+01    2.314828e+00
  3.192994e+01    2.427080e+00
  3.194581e+01    2.458692e+00
  3.196169e+01    2.462904e+00
  3.197756e+01    2.364684e+00
  3.199344e+01    2.239681e+00
  3.200931e+01    2.054581e+00
  3.202519e+01    1.838476e+00
  3.204106e+01    1.699738e+00
  3.205694e+01    1.529541e+00
  3.207282e+01    1.396417e+00
  3.208869e+01    1.236329e+00
  3.210457e+01    1.158508e+00
  3.212044e+01    1.108594e+00
  3.213632e+01    1.037989e+00
  3.215219e+01    9.813693e-01
  3.216807e+01    9.499675e-01
  3.218394e+01    9.174351e-01
  3.219982e+01    8.520761e-01
  3.221570e+01    8.506399e-01
  3.223157e+01    8.676710e-01
  3.224745e+01    8.398117e-01
  3.226332e+01    8.318201e-01
  3.227920e+01    8.014684e-01
  3.229507e+01    8.029405e-01
  3.231095e+01    7.973219e-01
  3.232682e+01    8.026883e-01
  3.234270e+01    7.696002e-01
  3.235858e+01    7.887504e-01
  3.237445e+01    7.746572e-01
  3.239033e+01    7.509905e-01
  3.240620e+01    7.346065e-01
  3.242208e+01    7.423766e-01
  3.243795e+01    7.517203e-01
  3.245383e+01    7.574986e-01
  3.246970e+01    7.093447e-01
  3.248558e+01    7.367530e-01
  3.250146e+01    7.389216e-01
  3.251733e+01    7.418029e-01
  3.253321e+01    7.192272e-01
  3.254908e+01    7.434160e-01
