# == pyFAI calibration ==
# Distance Sample to Detector: 0.3999999939076516 m
# PONI: 9.750e-02, 1.135e-01 m
# Rotations: -0.000175 0.000000 -0.000000 rad
# 
# == Fit2d calibration ==
# Distance Sample-beamCenter: 400.000 mm
# Center: x=1514.000, y=1300.000 pix
# Tilt: 0.010 deg  TiltPlanRot: 0.010 deg
# 
# Detector Detector	 Spline= None	 PixelSize= 7.500e-05, 7.500e-05 m
#    Detector has a mask: False 
#    Detector has a dark current: False 
#    detector has a flat field: False 
# 
# Wavelength: 6.888e-11 m
# Mask applied: user provided
# Dark current applied: False
# Flat field applied: False
# Polarization factor: 0.99
# Normalization factor: 1.0
# --> /home/myspot/data/2024_07_Rosario/Ru-CGO-ex/2024-07-27_002_Ru-CGO-ex_Activtation_ramp_000002_data_000123.dat
#       q_nm^-1             I 
  2.003187e-02    7.711996e-02
  3.590745e-02    6.421730e-02
  5.178302e-02    2.671360e-02
  6.765859e-02    1.028231e-01
  8.353417e-02    1.316382e-01
  9.940974e-02    1.286621e-01
  1.152853e-01    1.325690e-01
  1.311609e-01    4.215758e-02
  1.470365e-01    8.824394e-02
  1.629120e-01    6.820808e-02
  1.787876e-01    1.388577e-02
  1.946632e-01    4.632502e-02
  2.105388e-01    3.296755e-02
  2.264143e-01    5.836337e-02
  2.422899e-01    9.208584e-02
  2.581655e-01    7.195538e-02
  2.740411e-01    6.069512e-02
  2.899166e-01    7.267199e-02
  3.057922e-01    2.282052e-02
  3.216678e-01    1.411300e-02
  3.375433e-01    1.287861e-02
  3.534189e-01    2.551572e-02
  3.692945e-01    3.715181e-02
  3.851701e-01    4.550638e-02
  4.010456e-01    3.134261e-02
  4.169212e-01    1.867372e-02
  4.327968e-01    2.199502e-02
  4.486724e-01    2.762588e-02
  4.645479e-01    5.671686e-02
  4.804235e-01    4.453058e-02
  4.962991e-01    3.384145e-02
  5.121747e-01    2.395902e-02
  5.280502e-01    3.200776e-02
  5.439258e-01    4.540035e-02
  5.598014e-01    6.013948e-02
  5.756770e-01    5.998382e-02
  5.915525e-01    3.433553e-02
  6.074281e-01    2.451614e-02
  6.233037e-01    1.661146e-02
  6.391793e-01    3.994958e-02
  6.550548e-01    4.347605e-02
  6.709304e-01    4.806479e-02
  6.868060e-01    2.863989e-02
  7.026815e-01    3.498039e-02
  7.185571e-01    5.727370e-02
  7.344327e-01    3.439577e-02
  7.503083e-01    3.542236e-02
  7.661838e-01    4.408471e-02
  7.820594e-01    1.019335e-01
  7.979350e-01    1.729198e-01
  8.138106e-01    2.169099e-01
  8.296861e-01    2.091178e-01
  8.455617e-01    2.918188e-01
  8.614373e-01    3.739847e-01
  8.773129e-01    4.185750e-01
  8.931884e-01    5.400438e-01
  9.090640e-01    6.135598e-01
  9.249396e-01    6.356767e-01
  9.408152e-01    6.336299e-01
  9.566907e-01    7.653759e-01
  9.725663e-01    9.717467e-01
  9.884419e-01    9.776673e-01
  1.004317e+00    1.029750e+00
  1.020193e+00    1.014359e+00
  1.036069e+00    1.086530e+00
  1.051944e+00    1.181020e+00
  1.067820e+00    1.280820e+00
  1.083695e+00    1.216545e+00
  1.099571e+00    1.394019e+00
  1.115446e+00    1.397722e+00
  1.131322e+00    1.428671e+00
  1.147198e+00    1.469320e+00
  1.163073e+00    1.465614e+00
  1.178949e+00    1.365709e+00
  1.194824e+00    1.563050e+00
  1.210700e+00    1.968265e+00
  1.226575e+00    2.285838e+00
  1.242451e+00    2.327706e+00
  1.258327e+00    2.335909e+00
  1.274202e+00    2.368760e+00
  1.290078e+00    2.399774e+00
  1.305953e+00    2.461774e+00
  1.321829e+00    2.529351e+00
  1.337705e+00    2.541032e+00
  1.353580e+00    2.619391e+00
  1.369456e+00    2.675070e+00
  1.385331e+00    2.678904e+00
  1.401207e+00    2.639892e+00
  1.417082e+00    2.662343e+00
  1.432958e+00    2.634916e+00
  1.448834e+00    2.671099e+00
  1.464709e+00    2.729887e+00
  1.480585e+00    2.830942e+00
  1.496460e+00    2.893589e+00
  1.512336e+00    2.754106e+00
  1.528211e+00    2.960475e+00
  1.544087e+00    3.003641e+00
  1.559963e+00    2.985680e+00
  1.575838e+00    2.904312e+00
  1.591714e+00    2.930279e+00
  1.607589e+00    2.909630e+00
  1.623465e+00    2.772228e+00
  1.639340e+00    2.851678e+00
  1.655216e+00    2.843607e+00
  1.671092e+00    2.712389e+00
  1.686967e+00    2.855540e+00
  1.702843e+00    2.866562e+00
  1.718718e+00    2.928675e+00
  1.734594e+00    2.769883e+00
  1.750469e+00    2.734576e+00
  1.766345e+00    2.796768e+00
  1.782221e+00    2.773099e+00
  1.798096e+00    2.670805e+00
  1.813972e+00    2.627206e+00
  1.829847e+00    2.720295e+00
  1.845723e+00    2.725304e+00
  1.861598e+00    2.676902e+00
  1.877474e+00    2.629822e+00
  1.893350e+00    2.674103e+00
  1.909225e+00    2.721088e+00
  1.925101e+00    2.663748e+00
  1.940976e+00    2.628422e+00
  1.956852e+00    2.645316e+00
  1.972727e+00    2.620324e+00
  1.988603e+00    2.667567e+00
  2.004479e+00    2.790843e+00
  2.020354e+00    2.902625e+00
  2.036230e+00    2.950972e+00
  2.052105e+00    2.818401e+00
  2.067981e+00    2.775227e+00
  2.083856e+00    2.697136e+00
  2.099732e+00    2.656577e+00
  2.115608e+00    2.726178e+00
  2.131483e+00    2.622534e+00
  2.147359e+00    2.610447e+00
  2.163234e+00    2.791002e+00
  2.179110e+00    2.815991e+00
  2.194985e+00    2.730935e+00
  2.210861e+00    2.760174e+00
  2.226737e+00    2.736229e+00
  2.242612e+00    2.673511e+00
  2.258488e+00    2.755077e+00
  2.274363e+00    2.856264e+00
  2.290239e+00    2.607476e+00
  2.306115e+00    2.638776e+00
  2.321990e+00    2.731426e+00
  2.337866e+00    2.714636e+00
  2.353741e+00    2.688846e+00
  2.369617e+00    2.580574e+00
  2.385492e+00    2.634838e+00
  2.401368e+00    2.861530e+00
  2.417244e+00    2.848664e+00
  2.433119e+00    2.730685e+00
  2.448995e+00    2.740230e+00
  2.464870e+00    2.717029e+00
  2.480746e+00    2.836780e+00
  2.496621e+00    2.696854e+00
  2.512497e+00    2.747232e+00
  2.528373e+00    2.761834e+00
  2.544248e+00    2.725047e+00
  2.560124e+00    2.687621e+00
  2.575999e+00    2.795719e+00
  2.591875e+00    2.870891e+00
  2.607750e+00    2.823471e+00
  2.623626e+00    2.732558e+00
  2.639502e+00    2.700246e+00
  2.655377e+00    2.744650e+00
  2.671253e+00    2.759237e+00
  2.687128e+00    2.797620e+00
  2.703004e+00    2.860964e+00
  2.718879e+00    2.805212e+00
  2.734755e+00    2.760024e+00
  2.750631e+00    2.838927e+00
  2.766506e+00    2.809192e+00
  2.782382e+00    2.829093e+00
  2.798257e+00    2.804700e+00
  2.814133e+00    2.749399e+00
  2.830008e+00    2.731031e+00
  2.845884e+00    2.780025e+00
  2.861760e+00    2.771832e+00
  2.877635e+00    2.848026e+00
  2.893511e+00    2.946281e+00
  2.909386e+00    2.897325e+00
  2.925262e+00    2.809823e+00
  2.941137e+00    2.765840e+00
  2.957013e+00    2.847999e+00
  2.972889e+00    2.866522e+00
  2.988764e+00    2.926614e+00
  3.004640e+00    2.843098e+00
  3.020515e+00    2.895169e+00
  3.036391e+00    2.864212e+00
  3.052266e+00    2.751219e+00
  3.068142e+00    2.839979e+00
  3.084018e+00    2.824004e+00
  3.099893e+00    2.787106e+00
  3.115769e+00    2.873682e+00
  3.131644e+00    2.830729e+00
  3.147520e+00    2.798144e+00
  3.163395e+00    2.804338e+00
  3.179271e+00    2.839464e+00
  3.195147e+00    2.999001e+00
  3.211022e+00    2.948305e+00
  3.226898e+00    2.793728e+00
  3.242773e+00    2.840744e+00
  3.258649e+00    2.817718e+00
  3.274525e+00    2.864861e+00
  3.290400e+00    2.897976e+00
  3.306276e+00    2.929722e+00
  3.322151e+00    2.963970e+00
  3.338027e+00    3.004984e+00
  3.353902e+00    2.929697e+00
  3.369778e+00    2.926984e+00
  3.385654e+00    2.858453e+00
  3.401529e+00    2.912683e+00
  3.417405e+00    2.957865e+00
  3.433280e+00    2.937776e+00
  3.449156e+00    2.964887e+00
  3.465031e+00    2.870033e+00
  3.480907e+00    2.928442e+00
  3.496783e+00    2.881184e+00
  3.512658e+00    2.865295e+00
  3.528534e+00    2.918587e+00
  3.544409e+00    2.933096e+00
  3.560285e+00    2.891138e+00
  3.576160e+00    2.862512e+00
  3.592036e+00    2.883603e+00
  3.607912e+00    2.813128e+00
  3.623787e+00    2.835030e+00
  3.639663e+00    2.852391e+00
  3.655538e+00    2.892642e+00
  3.671414e+00    2.934711e+00
  3.687289e+00    2.908328e+00
  3.703165e+00    2.988049e+00
  3.719041e+00    2.991355e+00
  3.734916e+00    2.885719e+00
  3.750792e+00    2.983518e+00
  3.766667e+00    2.944199e+00
  3.782543e+00    2.943517e+00
  3.798418e+00    2.918386e+00
  3.814294e+00    2.976686e+00
  3.830170e+00    3.051721e+00
  3.846045e+00    2.998789e+00
  3.861921e+00    2.967176e+00
  3.877796e+00    2.914817e+00
  3.893672e+00    2.990773e+00
  3.909547e+00    2.999423e+00
  3.925423e+00    3.028603e+00
  3.941299e+00    3.037134e+00
  3.957174e+00    2.974370e+00
  3.973050e+00    3.010489e+00
  3.988925e+00    2.965566e+00
  4.004801e+00    2.951535e+00
  4.020676e+00    2.979456e+00
  4.036552e+00    3.017683e+00
  4.052428e+00    2.974200e+00
  4.068303e+00    3.033953e+00
  4.084179e+00    3.016556e+00
  4.100054e+00    2.986133e+00
  4.115930e+00    2.971221e+00
  4.131806e+00    2.984735e+00
  4.147681e+00    3.031702e+00
  4.163557e+00    2.974744e+00
  4.179432e+00    3.007593e+00
  4.195308e+00    2.914336e+00
  4.211183e+00    2.917478e+00
  4.227059e+00    3.031378e+00
  4.242935e+00    3.007144e+00
  4.258810e+00    3.032115e+00
  4.274686e+00    3.048264e+00
  4.290561e+00    3.003056e+00
  4.306437e+00    3.021507e+00
  4.322312e+00    3.002073e+00
  4.338188e+00    3.021857e+00
  4.354064e+00    3.063792e+00
  4.369939e+00    2.963970e+00
  4.385815e+00    2.933849e+00
  4.401690e+00    3.129516e+00
  4.417566e+00    3.098808e+00
  4.433441e+00    3.059110e+00
  4.449317e+00    3.075281e+00
  4.465193e+00    3.053314e+00
  4.481068e+00    2.986686e+00
  4.496944e+00    2.991755e+00
  4.512819e+00    2.999239e+00
  4.528695e+00    3.023928e+00
  4.544570e+00    3.031179e+00
  4.560446e+00    3.063524e+00
  4.576322e+00    2.981936e+00
  4.592197e+00    2.981051e+00
  4.608073e+00    2.997114e+00
  4.623948e+00    2.918043e+00
  4.639824e+00    2.955865e+00
  4.655699e+00    3.105466e+00
  4.671575e+00    3.105032e+00
  4.687451e+00    3.083511e+00
  4.703326e+00    3.002140e+00
  4.719202e+00    3.014963e+00
  4.735077e+00    3.281529e+00
  4.750953e+00    3.231764e+00
  4.766828e+00    3.094779e+00
  4.782704e+00    3.041151e+00
  4.798580e+00    3.055548e+00
  4.814455e+00    3.080434e+00
  4.830331e+00    3.079993e+00
  4.846206e+00    3.061038e+00
  4.862082e+00    3.045696e+00
  4.877957e+00    3.128799e+00
  4.893833e+00    3.111404e+00
  4.909709e+00    3.123698e+00
  4.925584e+00    3.100698e+00
  4.941460e+00    3.065337e+00
  4.957335e+00    3.083545e+00
  4.973211e+00    3.024994e+00
  4.989086e+00    3.082848e+00
  5.004962e+00    3.119016e+00
  5.020838e+00    3.091759e+00
  5.036713e+00    3.106242e+00
  5.052589e+00    3.136693e+00
  5.068464e+00    3.113387e+00
  5.084340e+00    3.112576e+00
  5.100216e+00    3.117954e+00
  5.116091e+00    3.087197e+00
  5.131967e+00    3.091838e+00
  5.147842e+00    3.020973e+00
  5.163718e+00    3.049920e+00
  5.179593e+00    3.077942e+00
  5.195469e+00    3.078826e+00
  5.211345e+00    3.093163e+00
  5.227220e+00    3.102529e+00
  5.243096e+00    3.077082e+00
  5.258971e+00    3.104738e+00
  5.274847e+00    3.124642e+00
  5.290722e+00    3.082625e+00
  5.306598e+00    3.142664e+00
  5.322474e+00    3.118937e+00
  5.338349e+00    3.037372e+00
  5.354225e+00    3.051717e+00
  5.370100e+00    3.152985e+00
  5.385976e+00    3.136715e+00
  5.401851e+00    3.106811e+00
  5.417727e+00    3.140779e+00
  5.433603e+00    3.090064e+00
  5.449478e+00    3.037046e+00
  5.465354e+00    3.015755e+00
  5.481229e+00    3.033949e+00
  5.497105e+00    3.002913e+00
  5.512980e+00    2.993270e+00
  5.528856e+00    3.033308e+00
  5.544732e+00    2.954802e+00
  5.560607e+00    2.954617e+00
  5.576483e+00    2.954910e+00
  5.592358e+00    2.979883e+00
  5.608234e+00    3.045844e+00
  5.624109e+00    3.100596e+00
  5.639985e+00    3.032358e+00
  5.655861e+00    2.995712e+00
  5.671736e+00    3.030818e+00
  5.687612e+00    3.053319e+00
  5.703487e+00    3.056813e+00
  5.719363e+00    3.091629e+00
  5.735238e+00    3.051637e+00
  5.751114e+00    3.015568e+00
  5.766990e+00    3.026284e+00
  5.782865e+00    3.014177e+00
  5.798741e+00    3.049826e+00
  5.814616e+00    3.062545e+00
  5.830492e+00    3.074365e+00
  5.846367e+00    2.981072e+00
  5.862243e+00    2.969650e+00
  5.878119e+00    2.986272e+00
  5.893994e+00    2.989132e+00
  5.909870e+00    2.997661e+00
  5.925745e+00    3.040025e+00
  5.941621e+00    3.019577e+00
  5.957497e+00    2.953308e+00
  5.973372e+00    2.927438e+00
  5.989248e+00    3.017796e+00
  6.005123e+00    3.055182e+00
  6.020999e+00    2.943133e+00
  6.036874e+00    2.909383e+00
  6.052750e+00    2.943504e+00
  6.068626e+00    3.006622e+00
  6.084501e+00    3.058156e+00
  6.100377e+00    3.060435e+00
  6.116252e+00    3.071558e+00
  6.132128e+00    3.085715e+00
  6.148003e+00    3.050691e+00
  6.163879e+00    3.065020e+00
  6.179755e+00    3.081838e+00
  6.195630e+00    3.050066e+00
  6.211506e+00    3.071198e+00
  6.227381e+00    2.987737e+00
  6.243257e+00    2.942832e+00
  6.259132e+00    3.070029e+00
  6.275008e+00    3.030422e+00
  6.290884e+00    2.971031e+00
  6.306759e+00    3.031562e+00
  6.322635e+00    3.069055e+00
  6.338510e+00    2.988673e+00
  6.354386e+00    2.981714e+00
  6.370261e+00    3.004389e+00
  6.386137e+00    2.989175e+00
  6.402013e+00    2.961666e+00
  6.417888e+00    2.991491e+00
  6.433764e+00    3.002258e+00
  6.449639e+00    3.011561e+00
  6.465515e+00    2.992263e+00
  6.481390e+00    2.961844e+00
  6.497266e+00    3.008059e+00
  6.513142e+00    3.052462e+00
  6.529017e+00    3.018035e+00
  6.544893e+00    3.018466e+00
  6.560768e+00    3.003113e+00
  6.576644e+00    3.018683e+00
  6.592519e+00    2.954197e+00
  6.608395e+00    2.953525e+00
  6.624271e+00    2.986964e+00
  6.640146e+00    2.961053e+00
  6.656022e+00    2.995610e+00
  6.671897e+00    3.082772e+00
  6.687773e+00    3.052679e+00
  6.703648e+00    3.020745e+00
  6.719524e+00    2.952794e+00
  6.735400e+00    2.936599e+00
  6.751275e+00    2.937618e+00
  6.767151e+00    2.987732e+00
  6.783026e+00    3.052193e+00
  6.798902e+00    2.998010e+00
  6.814777e+00    2.983683e+00
  6.830653e+00    2.992163e+00
  6.846529e+00    3.034626e+00
  6.862404e+00    2.950405e+00
  6.878280e+00    2.923626e+00
  6.894155e+00    2.949963e+00
  6.910031e+00    2.946215e+00
  6.925907e+00    2.924019e+00
  6.941782e+00    3.001532e+00
  6.957658e+00    2.974599e+00
  6.973533e+00    2.960853e+00
  6.989409e+00    3.011080e+00
  7.005284e+00    2.932384e+00
  7.021160e+00    2.949417e+00
  7.037036e+00    2.977711e+00
  7.052911e+00    2.992648e+00
  7.068787e+00    2.932827e+00
  7.084662e+00    3.009144e+00
  7.100538e+00    2.945387e+00
  7.116413e+00    2.954813e+00
  7.132289e+00    2.976130e+00
  7.148165e+00    3.047766e+00
  7.164040e+00    3.058342e+00
  7.179916e+00    3.051969e+00
  7.195791e+00    2.983865e+00
  7.211667e+00    3.008294e+00
  7.227542e+00    2.976806e+00
  7.243418e+00    2.876838e+00
  7.259294e+00    2.942967e+00
  7.275169e+00    3.004724e+00
  7.291045e+00    2.942611e+00
  7.306920e+00    2.890715e+00
  7.322796e+00    2.934829e+00
  7.338671e+00    2.983823e+00
  7.354547e+00    2.951769e+00
  7.370423e+00    2.960292e+00
  7.386298e+00    3.033254e+00
  7.402174e+00    2.972575e+00
  7.418049e+00    3.006296e+00
  7.433925e+00    3.037360e+00
  7.449800e+00    2.936672e+00
  7.465676e+00    2.930942e+00
  7.481552e+00    2.941338e+00
  7.497427e+00    2.892734e+00
  7.513303e+00    2.910885e+00
  7.529178e+00    2.943994e+00
  7.545054e+00    2.944048e+00
  7.560929e+00    2.895916e+00
  7.576805e+00    2.860642e+00
  7.592681e+00    2.897890e+00
  7.608556e+00    2.975631e+00
  7.624432e+00    2.927065e+00
  7.640307e+00    2.944756e+00
  7.656183e+00    2.959286e+00
  7.672058e+00    2.948582e+00
  7.687934e+00    2.919524e+00
  7.703810e+00    2.970958e+00
  7.719685e+00    2.978887e+00
  7.735561e+00    2.909068e+00
  7.751436e+00    2.925132e+00
  7.767312e+00    2.915525e+00
  7.783187e+00    2.903526e+00
  7.799063e+00    2.893324e+00
  7.814939e+00    2.944077e+00
  7.830814e+00    2.900843e+00
  7.846690e+00    2.929843e+00
  7.862565e+00    2.968847e+00
  7.878441e+00    2.907794e+00
  7.894317e+00    2.909095e+00
  7.910192e+00    2.874280e+00
  7.926068e+00    2.849823e+00
  7.941943e+00    2.901617e+00
  7.957819e+00    2.938026e+00
  7.973694e+00    2.919739e+00
  7.989570e+00    2.911887e+00
  8.005446e+00    2.906159e+00
  8.021321e+00    2.924757e+00
  8.037197e+00    2.865301e+00
  8.053072e+00    2.936360e+00
  8.068948e+00    2.884118e+00
  8.084823e+00    2.867438e+00
  8.100699e+00    2.927629e+00
  8.116575e+00    2.918244e+00
  8.132450e+00    2.879752e+00
  8.148326e+00    2.888441e+00
  8.164201e+00    2.916947e+00
  8.180077e+00    2.894450e+00
  8.195952e+00    2.908587e+00
  8.211828e+00    2.903558e+00
  8.227704e+00    2.911506e+00
  8.243579e+00    2.948703e+00
  8.259455e+00    2.925830e+00
  8.275330e+00    2.874467e+00
  8.291206e+00    2.863804e+00
  8.307081e+00    2.890914e+00
  8.322957e+00    2.917215e+00
  8.338833e+00    2.928103e+00
  8.354708e+00    2.893967e+00
  8.370584e+00    2.791492e+00
  8.386459e+00    2.823490e+00
  8.402335e+00    2.849366e+00
  8.418210e+00    2.859782e+00
  8.434086e+00    2.854407e+00
  8.449962e+00    2.814533e+00
  8.465837e+00    2.838159e+00
  8.481713e+00    2.798184e+00
  8.497588e+00    2.849687e+00
  8.513464e+00    2.860549e+00
  8.529339e+00    2.803026e+00
  8.545215e+00    2.786962e+00
  8.561091e+00    2.768267e+00
  8.576966e+00    2.813851e+00
  8.592842e+00    2.872770e+00
  8.608717e+00    2.868946e+00
  8.624593e+00    2.831550e+00
  8.640468e+00    2.852449e+00
  8.656344e+00    2.840991e+00
  8.672220e+00    2.794505e+00
  8.688095e+00    2.813088e+00
  8.703971e+00    2.833153e+00
  8.719846e+00    2.823686e+00
  8.735722e+00    2.844537e+00
  8.751598e+00    2.791090e+00
  8.767473e+00    2.782110e+00
  8.783349e+00    2.793855e+00
  8.799224e+00    2.806958e+00
  8.815100e+00    2.738292e+00
  8.830975e+00    2.771992e+00
  8.846851e+00    2.843730e+00
  8.862727e+00    2.831651e+00
  8.878602e+00    2.804298e+00
  8.894478e+00    2.786928e+00
  8.910353e+00    2.817194e+00
  8.926229e+00    2.789235e+00
  8.942104e+00    2.780195e+00
  8.957980e+00    2.777605e+00
  8.973856e+00    2.761081e+00
  8.989731e+00    2.753059e+00
  9.005607e+00    2.765289e+00
  9.021482e+00    2.789039e+00
  9.037358e+00    2.798240e+00
  9.053233e+00    2.760169e+00
  9.069109e+00    2.739500e+00
  9.084985e+00    2.739498e+00
  9.100860e+00    2.755736e+00
  9.116736e+00    2.777898e+00
  9.132611e+00    2.760830e+00
  9.148487e+00    2.765423e+00
  9.164362e+00    2.831456e+00
  9.180238e+00    2.767389e+00
  9.196114e+00    2.741521e+00
  9.211989e+00    2.718081e+00
  9.227865e+00    2.772462e+00
  9.243740e+00    2.761365e+00
  9.259616e+00    2.752730e+00
  9.275491e+00    2.790460e+00
  9.291367e+00    2.736718e+00
  9.307243e+00    2.693260e+00
  9.323118e+00    2.718349e+00
  9.338994e+00    2.705529e+00
  9.354869e+00    2.702310e+00
  9.370745e+00    2.664078e+00
  9.386620e+00    2.687787e+00
  9.402496e+00    2.754737e+00
  9.418372e+00    2.800190e+00
  9.434247e+00    2.789111e+00
  9.450123e+00    2.731122e+00
  9.465998e+00    2.738978e+00
  9.481874e+00    2.758432e+00
  9.497749e+00    2.759203e+00
  9.513625e+00    2.769578e+00
  9.529501e+00    2.768109e+00
  9.545376e+00    2.709972e+00
  9.561252e+00    2.717833e+00
  9.577127e+00    2.703152e+00
  9.593003e+00    2.713409e+00
  9.608878e+00    2.726179e+00
  9.624754e+00    2.697000e+00
  9.640630e+00    2.745107e+00
  9.656505e+00    2.752149e+00
  9.672381e+00    2.701827e+00
  9.688256e+00    2.690633e+00
  9.704132e+00    2.715002e+00
  9.720008e+00    2.722980e+00
  9.735883e+00    2.721950e+00
  9.751759e+00    2.690494e+00
  9.767634e+00    2.698928e+00
  9.783510e+00    2.720431e+00
  9.799385e+00    2.739666e+00
  9.815261e+00    2.688581e+00
  9.831137e+00    2.683936e+00
  9.847012e+00    2.732190e+00
  9.862888e+00    2.674911e+00
  9.878763e+00    2.669384e+00
  9.894639e+00    2.669947e+00
  9.910514e+00    2.665225e+00
  9.926390e+00    2.675000e+00
  9.942266e+00    2.677696e+00
  9.958141e+00    2.646638e+00
  9.974017e+00    2.669097e+00
  9.989892e+00    2.669067e+00
  1.000577e+01    2.583581e+00
  1.002164e+01    2.630622e+00
  1.003752e+01    2.655170e+00
  1.005339e+01    2.653402e+00
  1.006927e+01    2.632659e+00
  1.008515e+01    2.578713e+00
  1.010102e+01    2.602606e+00
  1.011690e+01    2.613615e+00
  1.013277e+01    2.620503e+00
  1.014865e+01    2.642617e+00
  1.016452e+01    2.615531e+00
  1.018040e+01    2.610874e+00
  1.019627e+01    2.602116e+00
  1.021215e+01    2.626860e+00
  1.022803e+01    2.607830e+00
  1.024390e+01    2.632290e+00
  1.025978e+01    2.594865e+00
  1.027565e+01    2.596872e+00
  1.029153e+01    2.597023e+00
  1.030740e+01    2.623700e+00
  1.032328e+01    2.581904e+00
  1.033915e+01    2.603660e+00
  1.035503e+01    2.651948e+00
  1.037091e+01    2.577117e+00
  1.038678e+01    2.596336e+00
  1.040266e+01    2.541325e+00
  1.041853e+01    2.607269e+00
  1.043441e+01    2.561745e+00
  1.045028e+01    2.558583e+00
  1.046616e+01    2.580419e+00
  1.048204e+01    2.550263e+00
  1.049791e+01    2.549228e+00
  1.051379e+01    2.594466e+00
  1.052966e+01    2.553719e+00
  1.054554e+01    2.562381e+00
  1.056141e+01    2.535784e+00
  1.057729e+01    2.514174e+00
  1.059316e+01    2.558952e+00
  1.060904e+01    2.498043e+00
  1.062492e+01    2.580527e+00
  1.064079e+01    2.535673e+00
  1.065667e+01    2.480788e+00
  1.067254e+01    2.542041e+00
  1.068842e+01    2.565482e+00
  1.070429e+01    2.510685e+00
  1.072017e+01    2.524720e+00
  1.073604e+01    2.561905e+00
  1.075192e+01    2.534040e+00
  1.076780e+01    2.503530e+00
  1.078367e+01    2.513247e+00
  1.079955e+01    2.539755e+00
  1.081542e+01    2.516421e+00
  1.083130e+01    2.498059e+00
  1.084717e+01    2.456127e+00
  1.086305e+01    2.511954e+00
  1.087892e+01    2.463994e+00
  1.089480e+01    2.458355e+00
  1.091068e+01    2.468228e+00
  1.092655e+01    2.495579e+00
  1.094243e+01    2.477771e+00
  1.095830e+01    2.494156e+00
  1.097418e+01    2.467965e+00
  1.099005e+01    2.477909e+00
  1.100593e+01    2.458799e+00
  1.102180e+01    2.435357e+00
  1.103768e+01    2.391639e+00
  1.105356e+01    2.452621e+00
  1.106943e+01    2.423693e+00
  1.108531e+01    2.385813e+00
  1.110118e+01    2.428828e+00
  1.111706e+01    2.467837e+00
  1.113293e+01    2.396443e+00
  1.114881e+01    2.444483e+00
  1.116468e+01    2.421867e+00
  1.118056e+01    2.414498e+00
  1.119644e+01    2.432230e+00
  1.121231e+01    2.420392e+00
  1.122819e+01    2.434268e+00
  1.124406e+01    2.456681e+00
  1.125994e+01    2.427560e+00
  1.127581e+01    2.441948e+00
  1.129169e+01    2.458064e+00
  1.130756e+01    2.447438e+00
  1.132344e+01    2.404060e+00
  1.133932e+01    2.436015e+00
  1.135519e+01    2.398150e+00
  1.137107e+01    2.378258e+00
  1.138694e+01    2.426265e+00
  1.140282e+01    2.424780e+00
  1.141869e+01    2.398229e+00
  1.143457e+01    2.385548e+00
  1.145045e+01    2.355839e+00
  1.146632e+01    2.388996e+00
  1.148220e+01    2.390642e+00
  1.149807e+01    2.330741e+00
  1.151395e+01    2.354111e+00
  1.152982e+01    2.373822e+00
  1.154570e+01    2.397780e+00
  1.156157e+01    2.343854e+00
  1.157745e+01    2.330755e+00
  1.159333e+01    2.429483e+00
  1.160920e+01    2.418885e+00
  1.162508e+01    2.365661e+00
  1.164095e+01    2.366031e+00
  1.165683e+01    2.310344e+00
  1.167270e+01    2.333204e+00
  1.168858e+01    2.349204e+00
  1.170445e+01    2.297476e+00
  1.172033e+01    2.273607e+00
  1.173621e+01    2.328715e+00
  1.175208e+01    2.347830e+00
  1.176796e+01    2.350944e+00
  1.178383e+01    2.412289e+00
  1.179971e+01    2.390577e+00
  1.181558e+01    2.397453e+00
  1.183146e+01    2.367163e+00
  1.184733e+01    2.289394e+00
  1.186321e+01    2.292410e+00
  1.187909e+01    2.267562e+00
  1.189496e+01    2.266109e+00
  1.191084e+01    2.267703e+00
  1.192671e+01    2.285060e+00
  1.194259e+01    2.286299e+00
  1.195846e+01    2.310044e+00
  1.197434e+01    2.277223e+00
  1.199021e+01    2.264426e+00
  1.200609e+01    2.282674e+00
  1.202197e+01    2.304781e+00
  1.203784e+01    2.283435e+00
  1.205372e+01    2.281172e+00
  1.206959e+01    2.296977e+00
  1.208547e+01    2.281619e+00
  1.210134e+01    2.280100e+00
  1.211722e+01    2.323714e+00
  1.213309e+01    2.280046e+00
  1.214897e+01    2.268950e+00
  1.216485e+01    2.278522e+00
  1.218072e+01    2.309241e+00
  1.219660e+01    2.269180e+00
  1.221247e+01    2.287171e+00
  1.222835e+01    2.265784e+00
  1.224422e+01    2.262840e+00
  1.226010e+01    2.286138e+00
  1.227597e+01    2.285476e+00
  1.229185e+01    2.301650e+00
  1.230773e+01    2.280956e+00
  1.232360e+01    2.239640e+00
  1.233948e+01    2.284565e+00
  1.235535e+01    2.331557e+00
  1.237123e+01    2.283721e+00
  1.238710e+01    2.272915e+00
  1.240298e+01    2.314369e+00
  1.241886e+01    2.316571e+00
  1.243473e+01    2.326920e+00
  1.245061e+01    2.293476e+00
  1.246648e+01    2.338665e+00
  1.248236e+01    2.327332e+00
  1.249823e+01    2.314102e+00
  1.251411e+01    2.329386e+00
  1.252998e+01    2.355617e+00
  1.254586e+01    2.350680e+00
  1.256174e+01    2.320099e+00
  1.257761e+01    2.361809e+00
  1.259349e+01    2.404690e+00
  1.260936e+01    2.387487e+00
  1.262524e+01    2.383857e+00
  1.264111e+01    2.402868e+00
  1.265699e+01    2.385080e+00
  1.267286e+01    2.371604e+00
  1.268874e+01    2.410642e+00
  1.270462e+01    2.429300e+00
  1.272049e+01    2.491567e+00
  1.273637e+01    2.463279e+00
  1.275224e+01    2.481877e+00
  1.276812e+01    2.552237e+00
  1.278399e+01    2.578398e+00
  1.279987e+01    2.621419e+00
  1.281574e+01    2.679788e+00
  1.283162e+01    2.721924e+00
  1.284750e+01    2.850104e+00
  1.286337e+01    2.881047e+00
  1.287925e+01    2.964873e+00
  1.289512e+01    3.119768e+00
  1.291100e+01    3.253239e+00
  1.292687e+01    3.436119e+00
  1.294275e+01    3.657269e+00
  1.295862e+01    3.930343e+00
  1.297450e+01    4.340187e+00
  1.299038e+01    4.768027e+00
  1.300625e+01    5.404145e+00
  1.302213e+01    6.204152e+00
  1.303800e+01    7.104181e+00
  1.305388e+01    8.187328e+00
  1.306975e+01    9.461870e+00
  1.308563e+01    1.079329e+01
  1.310150e+01    1.210187e+01
  1.311738e+01    1.339188e+01
  1.313326e+01    1.458315e+01
  1.314913e+01    1.576438e+01
  1.316501e+01    1.674218e+01
  1.318088e+01    1.712873e+01
  1.319676e+01    1.703322e+01
  1.321263e+01    1.596060e+01
  1.322851e+01    1.410510e+01
  1.324438e+01    1.211183e+01
  1.326026e+01    1.013088e+01
  1.327614e+01    8.511524e+00
  1.329201e+01    7.230248e+00
  1.330789e+01    6.249731e+00
  1.332376e+01    5.483777e+00
  1.333964e+01    4.875775e+00
  1.335551e+01    4.403711e+00
  1.337139e+01    4.064632e+00
  1.338727e+01    3.784712e+00
  1.340314e+01    3.537979e+00
  1.341902e+01    3.293477e+00
  1.343489e+01    3.096384e+00
  1.345077e+01    2.986653e+00
  1.346664e+01    2.874393e+00
  1.348252e+01    2.748857e+00
  1.349839e+01    2.726890e+00
  1.351427e+01    2.654075e+00
  1.353015e+01    2.548668e+00
  1.354602e+01    2.501113e+00
  1.356190e+01    2.457860e+00
  1.357777e+01    2.433382e+00
  1.359365e+01    2.399388e+00
  1.360952e+01    2.370939e+00
  1.362540e+01    2.332525e+00
  1.364127e+01    2.334147e+00
  1.365715e+01    2.329844e+00
  1.367303e+01    2.286072e+00
  1.368890e+01    2.263916e+00
  1.370478e+01    2.221922e+00
  1.372065e+01    2.201389e+00
  1.373653e+01    2.197218e+00
  1.375240e+01    2.175298e+00
  1.376828e+01    2.133956e+00
  1.378415e+01    2.183636e+00
  1.380003e+01    2.192238e+00
  1.381591e+01    2.132856e+00
  1.383178e+01    2.079113e+00
  1.384766e+01    2.084523e+00
  1.386353e+01    2.103261e+00
  1.387941e+01    2.098867e+00
  1.389528e+01    2.105478e+00
  1.391116e+01    2.099249e+00
  1.392703e+01    2.077709e+00
  1.394291e+01    2.079175e+00
  1.395879e+01    2.045848e+00
  1.397466e+01    2.083848e+00
  1.399054e+01    2.049065e+00
  1.400641e+01    2.048589e+00
  1.402229e+01    2.029218e+00
  1.403816e+01    2.052624e+00
  1.405404e+01    2.004349e+00
  1.406991e+01    2.015969e+00
  1.408579e+01    2.030478e+00
  1.410167e+01    1.984026e+00
  1.411754e+01    2.023439e+00
  1.413342e+01    2.013117e+00
  1.414929e+01    1.968312e+00
  1.416517e+01    1.971065e+00
  1.418104e+01    1.969327e+00
  1.419692e+01    1.936996e+00
  1.421279e+01    1.941233e+00
  1.422867e+01    1.975968e+00
  1.424455e+01    1.951658e+00
  1.426042e+01    1.975574e+00
  1.427630e+01    1.967231e+00
  1.429217e+01    1.956918e+00
  1.430805e+01    1.936219e+00
  1.432392e+01    1.926771e+00
  1.433980e+01    1.918844e+00
  1.435568e+01    1.922235e+00
  1.437155e+01    1.923428e+00
  1.438743e+01    1.917224e+00
  1.440330e+01    1.906901e+00
  1.441918e+01    1.957582e+00
  1.443505e+01    1.948112e+00
  1.445093e+01    1.911679e+00
  1.446680e+01    1.864878e+00
  1.448268e+01    1.857286e+00
  1.449856e+01    1.914997e+00
  1.451443e+01    1.870851e+00
  1.453031e+01    1.871428e+00
  1.454618e+01    1.876076e+00
  1.456206e+01    1.883318e+00
  1.457793e+01    1.889910e+00
  1.459381e+01    1.926835e+00
  1.460968e+01    1.931312e+00
  1.462556e+01    1.905267e+00
  1.464144e+01    1.899459e+00
  1.465731e+01    1.869576e+00
  1.467319e+01    1.891016e+00
  1.468906e+01    1.904954e+00
  1.470494e+01    1.897454e+00
  1.472081e+01    1.871776e+00
  1.473669e+01    1.893382e+00
  1.475256e+01    1.905030e+00
  1.476844e+01    1.865619e+00
  1.478432e+01    1.853484e+00
  1.480019e+01    1.884293e+00
  1.481607e+01    1.899728e+00
  1.483194e+01    1.934213e+00
  1.484782e+01    1.917172e+00
  1.486369e+01    1.903304e+00
  1.487957e+01    1.921103e+00
  1.489544e+01    1.927513e+00
  1.491132e+01    1.942982e+00
  1.492720e+01    1.953575e+00
  1.494307e+01    1.933880e+00
  1.495895e+01    1.982591e+00
  1.497482e+01    2.037369e+00
  1.499070e+01    2.087163e+00
  1.500657e+01    2.124164e+00
  1.502245e+01    2.220583e+00
  1.503832e+01    2.278498e+00
  1.505420e+01    2.358026e+00
  1.507008e+01    2.475846e+00
  1.508595e+01    2.617428e+00
  1.510183e+01    2.849219e+00
  1.511770e+01    3.081655e+00
  1.513358e+01    3.423938e+00
  1.514945e+01    3.779935e+00
  1.516533e+01    4.159628e+00
  1.518120e+01    4.479519e+00
  1.519708e+01    4.817681e+00
  1.521296e+01    5.173558e+00
  1.522883e+01    5.450651e+00
  1.524471e+01    5.637906e+00
  1.526058e+01    5.822682e+00
  1.527646e+01    5.874441e+00
  1.529233e+01    5.696635e+00
  1.530821e+01    5.450105e+00
  1.532409e+01    4.956338e+00
  1.533996e+01    4.395562e+00
  1.535584e+01    3.876036e+00
  1.537171e+01    3.440742e+00
  1.538759e+01    3.118186e+00
  1.540346e+01    2.858499e+00
  1.541934e+01    2.583025e+00
  1.543521e+01    2.472451e+00
  1.545109e+01    2.348755e+00
  1.546697e+01    2.239254e+00
  1.548284e+01    2.117979e+00
  1.549872e+01    2.048517e+00
  1.551459e+01    2.014942e+00
  1.553047e+01    1.939948e+00
  1.554634e+01    1.940710e+00
  1.556222e+01    1.891527e+00
  1.557809e+01    1.820810e+00
  1.559397e+01    1.803280e+00
  1.560985e+01    1.770755e+00
  1.562572e+01    1.766928e+00
  1.564160e+01    1.784465e+00
  1.565747e+01    1.779259e+00
  1.567335e+01    1.758754e+00
  1.568922e+01    1.740141e+00
  1.570510e+01    1.714524e+00
  1.572097e+01    1.722143e+00
  1.573685e+01    1.698268e+00
  1.575273e+01    1.714782e+00
  1.576860e+01    1.740917e+00
  1.578448e+01    1.694216e+00
  1.580035e+01    1.677860e+00
  1.581623e+01    1.711424e+00
  1.583210e+01    1.687954e+00
  1.584798e+01    1.661613e+00
  1.586385e+01    1.638546e+00
  1.587973e+01    1.642323e+00
  1.589561e+01    1.592269e+00
  1.591148e+01    1.577381e+00
  1.592736e+01    1.567502e+00
  1.594323e+01    1.609033e+00
  1.595911e+01    1.612817e+00
  1.597498e+01    1.595395e+00
  1.599086e+01    1.610102e+00
  1.600673e+01    1.607783e+00
  1.602261e+01    1.569051e+00
  1.603849e+01    1.592046e+00
  1.605436e+01    1.620949e+00
  1.607024e+01    1.585839e+00
  1.608611e+01    1.578254e+00
  1.610199e+01    1.612642e+00
  1.611786e+01    1.590807e+00
  1.613374e+01    1.547985e+00
  1.614961e+01    1.551815e+00
  1.616549e+01    1.538347e+00
  1.618137e+01    1.541093e+00
  1.619724e+01    1.549943e+00
  1.621312e+01    1.563170e+00
  1.622899e+01    1.591619e+00
  1.624487e+01    1.583171e+00
  1.626074e+01    1.563161e+00
  1.627662e+01    1.551300e+00
  1.629250e+01    1.527043e+00
  1.630837e+01    1.491869e+00
  1.632425e+01    1.512726e+00
  1.634012e+01    1.518930e+00
  1.635600e+01    1.525212e+00
  1.637187e+01    1.515444e+00
  1.638775e+01    1.478626e+00
  1.640362e+01    1.515827e+00
  1.641950e+01    1.512125e+00
  1.643538e+01    1.513362e+00
  1.645125e+01    1.516103e+00
  1.646713e+01    1.517030e+00
  1.648300e+01    1.513665e+00
  1.649888e+01    1.498544e+00
  1.651475e+01    1.514811e+00
  1.653063e+01    1.513472e+00
  1.654650e+01    1.475581e+00
  1.656238e+01    1.465055e+00
  1.657826e+01    1.458905e+00
  1.659413e+01    1.445561e+00
  1.661001e+01    1.474770e+00
  1.662588e+01    1.457209e+00
  1.664176e+01    1.474825e+00
  1.665763e+01    1.482063e+00
  1.667351e+01    1.462509e+00
  1.668938e+01    1.440200e+00
  1.670526e+01    1.413421e+00
  1.672114e+01    1.460044e+00
  1.673701e+01    1.505945e+00
  1.675289e+01    1.471961e+00
  1.676876e+01    1.460452e+00
  1.678464e+01    1.430311e+00
  1.680051e+01    1.432312e+00
  1.681639e+01    1.467127e+00
  1.683226e+01    1.454935e+00
  1.684814e+01    1.434278e+00
  1.686402e+01    1.442806e+00
  1.687989e+01    1.428790e+00
  1.689577e+01    1.451752e+00
  1.691164e+01    1.425607e+00
  1.692752e+01    1.455215e+00
  1.694339e+01    1.440423e+00
  1.695927e+01    1.428098e+00
  1.697514e+01    1.411026e+00
  1.699102e+01    1.433609e+00
  1.700690e+01    1.420605e+00
  1.702277e+01    1.447888e+00
  1.703865e+01    1.435600e+00
  1.705452e+01    1.431769e+00
  1.707040e+01    1.416149e+00
  1.708627e+01    1.421411e+00
  1.710215e+01    1.402908e+00
  1.711802e+01    1.394970e+00
  1.713390e+01    1.393182e+00
  1.714978e+01    1.398439e+00
  1.716565e+01    1.399198e+00
  1.718153e+01    1.394335e+00
  1.719740e+01    1.414999e+00
  1.721328e+01    1.417014e+00
  1.722915e+01    1.406077e+00
  1.724503e+01    1.376904e+00
  1.726091e+01    1.378149e+00
  1.727678e+01    1.395834e+00
  1.729266e+01    1.377882e+00
  1.730853e+01    1.369527e+00
  1.732441e+01    1.413422e+00
  1.734028e+01    1.380668e+00
  1.735616e+01    1.339609e+00
  1.737203e+01    1.383536e+00
  1.738791e+01    1.372706e+00
  1.740379e+01    1.367667e+00
  1.741966e+01    1.368080e+00
  1.743554e+01    1.366576e+00
  1.745141e+01    1.349084e+00
  1.746729e+01    1.388934e+00
  1.748316e+01    1.394886e+00
  1.749904e+01    1.347502e+00
  1.751491e+01    1.341699e+00
  1.753079e+01    1.336754e+00
  1.754667e+01    1.346497e+00
  1.756254e+01    1.332438e+00
  1.757842e+01    1.350913e+00
  1.759429e+01    1.334400e+00
  1.761017e+01    1.303393e+00
  1.762604e+01    1.341575e+00
  1.764192e+01    1.360542e+00
  1.765779e+01    1.328431e+00
  1.767367e+01    1.279945e+00
  1.768955e+01    1.322761e+00
  1.770542e+01    1.336143e+00
  1.772130e+01    1.298528e+00
  1.773717e+01    1.318354e+00
  1.775305e+01    1.342209e+00
  1.776892e+01    1.326413e+00
  1.778480e+01    1.304649e+00
  1.780067e+01    1.314135e+00
  1.781655e+01    1.303515e+00
  1.783243e+01    1.321459e+00
  1.784830e+01    1.350762e+00
  1.786418e+01    1.289661e+00
  1.788005e+01    1.279461e+00
  1.789593e+01    1.287402e+00
  1.791180e+01    1.306998e+00
  1.792768e+01    1.287978e+00
  1.794355e+01    1.304404e+00
  1.795943e+01    1.289809e+00
  1.797531e+01    1.284300e+00
  1.799118e+01    1.306502e+00
  1.800706e+01    1.308036e+00
  1.802293e+01    1.271874e+00
  1.803881e+01    1.271479e+00
  1.805468e+01    1.288689e+00
  1.807056e+01    1.264145e+00
  1.808643e+01    1.272507e+00
  1.810231e+01    1.270099e+00
  1.811819e+01    1.256371e+00
  1.813406e+01    1.277825e+00
  1.814994e+01    1.270151e+00
  1.816581e+01    1.286988e+00
  1.818169e+01    1.292135e+00
  1.819756e+01    1.262974e+00
  1.821344e+01    1.284409e+00
  1.822932e+01    1.251288e+00
  1.824519e+01    1.277741e+00
  1.826107e+01    1.253663e+00
  1.827694e+01    1.255192e+00
  1.829282e+01    1.279683e+00
  1.830869e+01    1.236279e+00
  1.832457e+01    1.245933e+00
  1.834044e+01    1.267616e+00
  1.835632e+01    1.265303e+00
  1.837220e+01    1.251238e+00
  1.838807e+01    1.250041e+00
  1.840395e+01    1.227720e+00
  1.841982e+01    1.261452e+00
  1.843570e+01    1.234393e+00
  1.845157e+01    1.218372e+00
  1.846745e+01    1.237105e+00
  1.848332e+01    1.249977e+00
  1.849920e+01    1.230277e+00
  1.851508e+01    1.231757e+00
  1.853095e+01    1.227385e+00
  1.854683e+01    1.229469e+00
  1.856270e+01    1.249706e+00
  1.857858e+01    1.216914e+00
  1.859445e+01    1.206559e+00
  1.861033e+01    1.211500e+00
  1.862620e+01    1.191554e+00
  1.864208e+01    1.224675e+00
  1.865796e+01    1.211939e+00
  1.867383e+01    1.206473e+00
  1.868971e+01    1.215120e+00
  1.870558e+01    1.225933e+00
  1.872146e+01    1.236015e+00
  1.873733e+01    1.209916e+00
  1.875321e+01    1.179492e+00
  1.876908e+01    1.213322e+00
  1.878496e+01    1.220177e+00
  1.880084e+01    1.224531e+00
  1.881671e+01    1.218826e+00
  1.883259e+01    1.192494e+00
  1.884846e+01    1.211060e+00
  1.886434e+01    1.188751e+00
  1.888021e+01    1.184322e+00
  1.889609e+01    1.207609e+00
  1.891196e+01    1.213552e+00
  1.892784e+01    1.187988e+00
  1.894372e+01    1.194415e+00
  1.895959e+01    1.196723e+00
  1.897547e+01    1.178967e+00
  1.899134e+01    1.195444e+00
  1.900722e+01    1.192108e+00
  1.902309e+01    1.201237e+00
  1.903897e+01    1.188885e+00
  1.905484e+01    1.188386e+00
  1.907072e+01    1.178437e+00
  1.908660e+01    1.184669e+00
  1.910247e+01    1.186322e+00
  1.911835e+01    1.159752e+00
  1.913422e+01    1.172681e+00
  1.915010e+01    1.181843e+00
  1.916597e+01    1.183022e+00
  1.918185e+01    1.204992e+00
  1.919773e+01    1.178442e+00
  1.921360e+01    1.186143e+00
  1.922948e+01    1.177543e+00
  1.924535e+01    1.164042e+00
  1.926123e+01    1.177620e+00
  1.927710e+01    1.162737e+00
  1.929298e+01    1.179024e+00
  1.930885e+01    1.146255e+00
  1.932473e+01    1.147193e+00
  1.934061e+01    1.204046e+00
  1.935648e+01    1.189363e+00
  1.937236e+01    1.171484e+00
  1.938823e+01    1.157057e+00
  1.940411e+01    1.160167e+00
  1.941998e+01    1.156235e+00
  1.943586e+01    1.138436e+00
  1.945173e+01    1.136431e+00
  1.946761e+01    1.133446e+00
  1.948349e+01    1.148468e+00
  1.949936e+01    1.158039e+00
  1.951524e+01    1.150008e+00
  1.953111e+01    1.155197e+00
  1.954699e+01    1.179914e+00
  1.956286e+01    1.178471e+00
  1.957874e+01    1.139317e+00
  1.959461e+01    1.121835e+00
  1.961049e+01    1.129594e+00
  1.962637e+01    1.112619e+00
  1.964224e+01    1.114404e+00
  1.965812e+01    1.126013e+00
  1.967399e+01    1.140269e+00
  1.968987e+01    1.128576e+00
  1.970574e+01    1.114856e+00
  1.972162e+01    1.126821e+00
  1.973749e+01    1.127433e+00
  1.975337e+01    1.127353e+00
  1.976925e+01    1.135063e+00
  1.978512e+01    1.146392e+00
  1.980100e+01    1.156214e+00
  1.981687e+01    1.138820e+00
  1.983275e+01    1.129369e+00
  1.984862e+01    1.111663e+00
  1.986450e+01    1.107790e+00
  1.988037e+01    1.086921e+00
  1.989625e+01    1.094292e+00
  1.991213e+01    1.109900e+00
  1.992800e+01    1.123214e+00
  1.994388e+01    1.113099e+00
  1.995975e+01    1.125767e+00
  1.997563e+01    1.092371e+00
  1.999150e+01    1.104815e+00
  2.000738e+01    1.107343e+00
  2.002325e+01    1.108314e+00
  2.003913e+01    1.098550e+00
  2.005501e+01    1.114975e+00
  2.007088e+01    1.110795e+00
  2.008676e+01    1.114570e+00
  2.010263e+01    1.080982e+00
  2.011851e+01    1.100547e+00
  2.013438e+01    1.078472e+00
  2.015026e+01    1.097729e+00
  2.016614e+01    1.090897e+00
  2.018201e+01    1.082646e+00
  2.019789e+01    1.089013e+00
  2.021376e+01    1.103901e+00
  2.022964e+01    1.108265e+00
  2.024551e+01    1.077104e+00
  2.026139e+01    1.092362e+00
  2.027726e+01    1.077375e+00
  2.029314e+01    1.097640e+00
  2.030902e+01    1.092075e+00
  2.032489e+01    1.086759e+00
  2.034077e+01    1.118405e+00
  2.035664e+01    1.088284e+00
  2.037252e+01    1.073468e+00
  2.038839e+01    1.115155e+00
  2.040427e+01    1.110286e+00
  2.042014e+01    1.075488e+00
  2.043602e+01    1.071777e+00
  2.045190e+01    1.081775e+00
  2.046777e+01    1.085685e+00
  2.048365e+01    1.096249e+00
  2.049952e+01    1.061185e+00
  2.051540e+01    1.056291e+00
  2.053127e+01    1.060077e+00
  2.054715e+01    1.063270e+00
  2.056302e+01    1.074369e+00
  2.057890e+01    1.064792e+00
  2.059478e+01    1.066884e+00
  2.061065e+01    1.097871e+00
  2.062653e+01    1.080371e+00
  2.064240e+01    1.075083e+00
  2.065828e+01    1.087585e+00
  2.067415e+01    1.079959e+00
  2.069003e+01    1.064019e+00
  2.070590e+01    1.071582e+00
  2.072178e+01    1.082744e+00
  2.073766e+01    1.071591e+00
  2.075353e+01    1.087435e+00
  2.076941e+01    1.087084e+00
  2.078528e+01    1.060917e+00
  2.080116e+01    1.064308e+00
  2.081703e+01    1.065644e+00
  2.083291e+01    1.073719e+00
  2.084878e+01    1.079247e+00
  2.086466e+01    1.063654e+00
  2.088054e+01    1.079955e+00
  2.089641e+01    1.075555e+00
  2.091229e+01    1.068937e+00
  2.092816e+01    1.068186e+00
  2.094404e+01    1.068330e+00
  2.095991e+01    1.065050e+00
  2.097579e+01    1.060886e+00
  2.099166e+01    1.059006e+00
  2.100754e+01    1.054213e+00
  2.102342e+01    1.062342e+00
  2.103929e+01    1.072286e+00
  2.105517e+01    1.078175e+00
  2.107104e+01    1.062575e+00
  2.108692e+01    1.068906e+00
  2.110279e+01    1.081285e+00
  2.111867e+01    1.094373e+00
  2.113455e+01    1.074214e+00
  2.115042e+01    1.070204e+00
  2.116630e+01    1.082968e+00
  2.118217e+01    1.067183e+00
  2.119805e+01    1.099706e+00
  2.121392e+01    1.100980e+00
  2.122980e+01    1.104623e+00
  2.124567e+01    1.101284e+00
  2.126155e+01    1.115360e+00
  2.127743e+01    1.103949e+00
  2.129330e+01    1.088747e+00
  2.130918e+01    1.113494e+00
  2.132505e+01    1.139683e+00
  2.134093e+01    1.137790e+00
  2.135680e+01    1.151735e+00
  2.137268e+01    1.150943e+00
  2.138855e+01    1.141136e+00
  2.140443e+01    1.137202e+00
  2.142031e+01    1.158832e+00
  2.143618e+01    1.186260e+00
  2.145206e+01    1.231983e+00
  2.146793e+01    1.244513e+00
  2.148381e+01    1.236009e+00
  2.149968e+01    1.281934e+00
  2.151556e+01    1.314650e+00
  2.153143e+01    1.309455e+00
  2.154731e+01    1.370015e+00
  2.156319e+01    1.425162e+00
  2.157906e+01    1.456532e+00
  2.159494e+01    1.566914e+00
  2.161081e+01    1.620408e+00
  2.162669e+01    1.688038e+00
  2.164256e+01    1.793031e+00
  2.165844e+01    1.935206e+00
  2.167431e+01    2.062491e+00
  2.169019e+01    2.262907e+00
  2.170607e+01    2.486291e+00
  2.172194e+01    2.785104e+00
  2.173782e+01    3.195006e+00
  2.175369e+01    3.694513e+00
  2.176957e+01    4.206764e+00
  2.178544e+01    4.843769e+00
  2.180132e+01    5.488821e+00
  2.181719e+01    6.119545e+00
  2.183307e+01    6.873863e+00
  2.184895e+01    7.709834e+00
  2.186482e+01    8.415807e+00
  2.188070e+01    8.996431e+00
  2.189657e+01    9.382004e+00
  2.191245e+01    9.457968e+00
  2.192832e+01    9.090632e+00
  2.194420e+01    8.449131e+00
  2.196007e+01    7.525923e+00
  2.197595e+01    6.493127e+00
  2.199183e+01    5.495371e+00
  2.200770e+01    4.646976e+00
  2.202358e+01    3.962538e+00
  2.203945e+01    3.411231e+00
  2.205533e+01    2.980783e+00
  2.207120e+01    2.667277e+00
  2.208708e+01    2.373791e+00
  2.210296e+01    2.142543e+00
  2.211883e+01    1.999521e+00
  2.213471e+01    1.842239e+00
  2.215058e+01    1.710561e+00
  2.216646e+01    1.601940e+00
  2.218233e+01    1.527547e+00
  2.219821e+01    1.475100e+00
  2.221408e+01    1.385411e+00
  2.222996e+01    1.321074e+00
  2.224584e+01    1.276983e+00
  2.226171e+01    1.280598e+00
  2.227759e+01    1.230560e+00
  2.229346e+01    1.186077e+00
  2.230934e+01    1.176739e+00
  2.232521e+01    1.154530e+00
  2.234109e+01    1.138494e+00
  2.235696e+01    1.143862e+00
  2.237284e+01    1.120657e+00
  2.238872e+01    1.051185e+00
  2.240459e+01    1.073356e+00
  2.242047e+01    1.074161e+00
  2.243634e+01    1.076183e+00
  2.245222e+01    1.045811e+00
  2.246809e+01    1.047361e+00
  2.248397e+01    1.021236e+00
  2.249984e+01    1.014522e+00
  2.251572e+01    1.012500e+00
  2.253160e+01    9.762549e-01
  2.254747e+01    9.872683e-01
  2.256335e+01    9.955583e-01
  2.257922e+01    9.751998e-01
  2.259510e+01    9.815519e-01
  2.261097e+01    9.738449e-01
  2.262685e+01    9.498762e-01
  2.264272e+01    9.709212e-01
  2.265860e+01    9.758411e-01
  2.267448e+01    9.406039e-01
  2.269035e+01    9.420661e-01
  2.270623e+01    9.528078e-01
  2.272210e+01    9.329646e-01
  2.273798e+01    9.152205e-01
  2.275385e+01    9.363318e-01
  2.276973e+01    9.487028e-01
  2.278560e+01    9.424349e-01
  2.280148e+01    9.233177e-01
  2.281736e+01    9.375677e-01
  2.283323e+01    9.175733e-01
  2.284911e+01    9.125112e-01
  2.286498e+01    9.102597e-01
  2.288086e+01    9.026482e-01
  2.289673e+01    9.074714e-01
  2.291261e+01    9.065698e-01
  2.292848e+01    8.989010e-01
  2.294436e+01    8.828831e-01
  2.296024e+01    8.938581e-01
  2.297611e+01    9.030173e-01
  2.299199e+01    8.714334e-01
  2.300786e+01    8.866458e-01
  2.302374e+01    9.024644e-01
  2.303961e+01    9.036183e-01
  2.305549e+01    8.868301e-01
  2.307137e+01    8.613923e-01
  2.308724e+01    8.690774e-01
  2.310312e+01    8.676944e-01
  2.311899e+01    8.962060e-01
  2.313487e+01    8.961619e-01
  2.315074e+01    8.936726e-01
  2.316662e+01    8.617916e-01
  2.318249e+01    8.657521e-01
  2.319837e+01    8.488927e-01
  2.321425e+01    8.588424e-01
  2.323012e+01    8.710108e-01
  2.324600e+01    8.587049e-01
  2.326187e+01    8.460053e-01
  2.327775e+01    8.538533e-01
  2.329362e+01    8.474005e-01
  2.330950e+01    8.550484e-01
  2.332537e+01    8.553227e-01
  2.334125e+01    8.574421e-01
  2.335713e+01    8.625374e-01
  2.337300e+01    8.533263e-01
  2.338888e+01    8.421826e-01
  2.340475e+01    8.521578e-01
  2.342063e+01    8.433869e-01
  2.343650e+01    8.433163e-01
  2.345238e+01    8.434816e-01
  2.346825e+01    8.329629e-01
  2.348413e+01    8.188893e-01
  2.350001e+01    8.354222e-01
  2.351588e+01    8.333914e-01
  2.353176e+01    8.385400e-01
  2.354763e+01    8.357287e-01
  2.356351e+01    8.403188e-01
  2.357938e+01    8.238599e-01
  2.359526e+01    8.368987e-01
  2.361113e+01    8.229414e-01
  2.362701e+01    8.059285e-01
  2.364289e+01    8.209308e-01
  2.365876e+01    8.390024e-01
  2.367464e+01    8.613995e-01
  2.369051e+01    8.310066e-01
  2.370639e+01    8.166086e-01
  2.372226e+01    8.232971e-01
  2.373814e+01    8.150851e-01
  2.375401e+01    8.167304e-01
  2.376989e+01    8.037071e-01
  2.378577e+01    8.087561e-01
  2.380164e+01    8.089604e-01
  2.381752e+01    8.088732e-01
  2.383339e+01    7.946304e-01
  2.384927e+01    7.985420e-01
  2.386514e+01    8.046978e-01
  2.388102e+01    7.894698e-01
  2.389689e+01    7.847522e-01
  2.391277e+01    7.863734e-01
  2.392865e+01    7.997612e-01
  2.394452e+01    7.948161e-01
  2.396040e+01    8.004324e-01
  2.397627e+01    7.951930e-01
  2.399215e+01    7.881973e-01
  2.400802e+01    7.977680e-01
  2.402390e+01    7.834907e-01
  2.403978e+01    7.925348e-01
  2.405565e+01    7.839004e-01
  2.407153e+01    7.713914e-01
  2.408740e+01    7.610915e-01
  2.410328e+01    7.836177e-01
  2.411915e+01    7.794643e-01
  2.413503e+01    7.661051e-01
  2.415090e+01    7.677383e-01
  2.416678e+01    7.679375e-01
  2.418266e+01    7.675003e-01
  2.419853e+01    7.501070e-01
  2.421441e+01    7.573478e-01
  2.423028e+01    7.761251e-01
  2.424616e+01    7.538249e-01
  2.426203e+01    7.796832e-01
  2.427791e+01    7.781169e-01
  2.429378e+01    7.697726e-01
  2.430966e+01    7.997357e-01
  2.432554e+01    8.007002e-01
  2.434141e+01    8.071309e-01
  2.435729e+01    7.864432e-01
  2.437316e+01    7.879558e-01
  2.438904e+01    7.891738e-01
  2.440491e+01    7.803755e-01
  2.442079e+01    7.940242e-01
  2.443666e+01    7.759231e-01
  2.445254e+01    7.854187e-01
  2.446842e+01    7.878020e-01
  2.448429e+01    7.764773e-01
  2.450017e+01    7.625308e-01
  2.451604e+01    7.837671e-01
  2.453192e+01    7.877929e-01
  2.454779e+01    7.803487e-01
  2.456367e+01    7.874749e-01
  2.457954e+01    8.018132e-01
  2.459542e+01    7.938452e-01
  2.461130e+01    8.087901e-01
  2.462717e+01    7.867116e-01
  2.464305e+01    7.795277e-01
  2.465892e+01    7.867573e-01
  2.467480e+01    7.872866e-01
  2.469067e+01    7.897152e-01
  2.470655e+01    7.900437e-01
  2.472242e+01    8.028822e-01
  2.473830e+01    7.975084e-01
  2.475418e+01    7.794485e-01
  2.477005e+01    7.871634e-01
  2.478593e+01    8.006529e-01
  2.480180e+01    8.017164e-01
  2.481768e+01    8.035451e-01
  2.483355e+01    8.012654e-01
  2.484943e+01    7.996880e-01
  2.486530e+01    7.724265e-01
  2.488118e+01    7.797258e-01
  2.489706e+01    7.867038e-01
  2.491293e+01    7.898464e-01
  2.492881e+01    7.941421e-01
  2.494468e+01    7.948409e-01
  2.496056e+01    7.916576e-01
  2.497643e+01    7.936589e-01
  2.499231e+01    8.053552e-01
  2.500819e+01    8.069487e-01
  2.502406e+01    8.005666e-01
  2.503994e+01    8.104773e-01
  2.505581e+01    8.032185e-01
  2.507169e+01    8.115258e-01
  2.508756e+01    8.074792e-01
  2.510344e+01    8.116927e-01
  2.511931e+01    8.116151e-01
  2.513519e+01    8.089628e-01
  2.515107e+01    8.270070e-01
  2.516694e+01    8.083506e-01
  2.518282e+01    8.223227e-01
  2.519869e+01    8.297014e-01
  2.521457e+01    8.162010e-01
  2.523044e+01    8.294755e-01
  2.524632e+01    8.371537e-01
  2.526219e+01    8.474227e-01
  2.527807e+01    8.408182e-01
  2.529395e+01    8.686493e-01
  2.530982e+01    8.674904e-01
  2.532570e+01    8.629172e-01
  2.534157e+01    8.653193e-01
  2.535745e+01    8.812990e-01
  2.537332e+01    9.045490e-01
  2.538920e+01    8.971697e-01
  2.540507e+01    8.986726e-01
  2.542095e+01    9.103463e-01
  2.543683e+01    8.974771e-01
  2.545270e+01    9.008579e-01
  2.546858e+01    9.398271e-01
  2.548445e+01    9.539901e-01
  2.550033e+01    9.657787e-01
  2.551620e+01    9.783655e-01
  2.553208e+01    9.744322e-01
  2.554795e+01    1.011822e+00
  2.556383e+01    1.047219e+00
  2.557971e+01    1.073751e+00
  2.559558e+01    1.091145e+00
  2.561146e+01    1.123225e+00
  2.562733e+01    1.166421e+00
  2.564321e+01    1.218035e+00
  2.565908e+01    1.271369e+00
  2.567496e+01    1.314127e+00
  2.569083e+01    1.368441e+00
  2.570671e+01    1.486750e+00
  2.572259e+01    1.601297e+00
  2.573846e+01    1.731890e+00
  2.575434e+01    1.855556e+00
  2.577021e+01    2.011753e+00
  2.578609e+01    2.283705e+00
  2.580196e+01    2.594049e+00
  2.581784e+01    2.947997e+00
  2.583371e+01    3.350751e+00
  2.584959e+01    3.788024e+00
  2.586547e+01    4.333528e+00
  2.588134e+01    4.987703e+00
  2.589722e+01    5.647600e+00
  2.591309e+01    6.294085e+00
  2.592897e+01    6.909485e+00
  2.594484e+01    7.456413e+00
  2.596072e+01    7.737208e+00
  2.597660e+01    7.725598e+00
  2.599247e+01    7.511945e+00
  2.600835e+01    7.011405e+00
  2.602422e+01    6.329210e+00
  2.604010e+01    5.563043e+00
  2.605597e+01    4.733918e+00
  2.607185e+01    4.010727e+00
  2.608772e+01    3.477422e+00
  2.610360e+01    3.021633e+00
  2.611948e+01    2.615201e+00
  2.613535e+01    2.348145e+00
  2.615123e+01    2.096062e+00
  2.616710e+01    1.898005e+00
  2.618298e+01    1.747018e+00
  2.619885e+01    1.644713e+00
  2.621473e+01    1.529097e+00
  2.623060e+01    1.396177e+00
  2.624648e+01    1.338104e+00
  2.626236e+01    1.282653e+00
  2.627823e+01    1.214517e+00
  2.629411e+01    1.182481e+00
  2.630998e+01    1.122401e+00
  2.632586e+01    1.089313e+00
  2.634173e+01    1.066369e+00
  2.635761e+01    1.037391e+00
  2.637348e+01    1.001712e+00
  2.638936e+01    9.980966e-01
  2.640524e+01    9.800090e-01
  2.642111e+01    9.803926e-01
  2.643699e+01    9.711575e-01
  2.645286e+01    9.702749e-01
  2.646874e+01    9.606727e-01
  2.648461e+01    9.423370e-01
  2.650049e+01    9.363980e-01
  2.651636e+01    9.323274e-01
  2.653224e+01    9.227589e-01
  2.654812e+01    9.006203e-01
  2.656399e+01    9.056326e-01
  2.657987e+01    9.037200e-01
  2.659574e+01    9.138437e-01
  2.661162e+01    8.930804e-01
  2.662749e+01    8.750767e-01
  2.664337e+01    8.790847e-01
  2.665924e+01    8.995035e-01
  2.667512e+01    9.211167e-01
  2.669100e+01    9.133189e-01
  2.670687e+01    8.874164e-01
  2.672275e+01    8.785354e-01
  2.673862e+01    8.949468e-01
  2.675450e+01    9.033232e-01
  2.677037e+01    8.862504e-01
  2.678625e+01    8.806062e-01
  2.680212e+01    8.749143e-01
  2.681800e+01    8.899310e-01
  2.683388e+01    8.813141e-01
  2.684975e+01    9.100738e-01
  2.686563e+01    9.055828e-01
  2.688150e+01    9.001704e-01
  2.689738e+01    8.890718e-01
  2.691325e+01    9.031586e-01
  2.692913e+01    9.374031e-01
  2.694501e+01    9.321363e-01
  2.696088e+01    9.605492e-01
  2.697676e+01    9.622629e-01
  2.699263e+01    9.846898e-01
  2.700851e+01    1.025411e+00
  2.702438e+01    1.025290e+00
  2.704026e+01    1.092796e+00
  2.705613e+01    1.155275e+00
  2.707201e+01    1.217909e+00
  2.708789e+01    1.298861e+00
  2.710376e+01    1.390153e+00
  2.711964e+01    1.480644e+00
  2.713551e+01    1.594925e+00
  2.715139e+01    1.756665e+00
  2.716726e+01    1.881094e+00
  2.718314e+01    2.047012e+00
  2.719901e+01    2.178123e+00
  2.721489e+01    2.258840e+00
  2.723077e+01    2.276091e+00
  2.724664e+01    2.277869e+00
  2.726252e+01    2.203340e+00
  2.727839e+01    2.045467e+00
  2.729427e+01    1.877255e+00
  2.731014e+01    1.686559e+00
  2.732602e+01    1.541588e+00
  2.734189e+01    1.433184e+00
  2.735777e+01    1.302540e+00
  2.737365e+01    1.217349e+00
  2.738952e+01    1.158487e+00
  2.740540e+01    1.094811e+00
  2.742127e+01    1.044408e+00
  2.743715e+01    1.020733e+00
  2.745302e+01    9.900584e-01
  2.746890e+01    9.576255e-01
  2.748477e+01    9.154658e-01
  2.750065e+01    9.186819e-01
  2.751653e+01    9.314533e-01
  2.753240e+01    9.169835e-01
  2.754828e+01    8.837649e-01
  2.756415e+01    8.678084e-01
  2.758003e+01    8.582488e-01
  2.759590e+01    8.633891e-01
  2.761178e+01    8.591112e-01
  2.762765e+01    8.422146e-01
  2.764353e+01    8.380861e-01
  2.765941e+01    8.380512e-01
  2.767528e+01    8.329043e-01
  2.769116e+01    8.307109e-01
  2.770703e+01    8.490366e-01
  2.772291e+01    8.043685e-01
  2.773878e+01    8.032786e-01
  2.775466e+01    8.073937e-01
  2.777054e+01    7.892699e-01
  2.778641e+01    8.143296e-01
  2.780229e+01    8.130955e-01
  2.781816e+01    8.038363e-01
  2.783404e+01    7.922170e-01
  2.784991e+01    8.154321e-01
  2.786579e+01    8.211033e-01
  2.788166e+01    8.014858e-01
  2.789754e+01    7.996007e-01
  2.791342e+01    7.834816e-01
  2.792929e+01    7.786654e-01
  2.794517e+01    7.999585e-01
  2.796104e+01    7.977008e-01
  2.797692e+01    7.903122e-01
  2.799279e+01    8.011153e-01
  2.800867e+01    7.930690e-01
  2.802454e+01    7.968078e-01
  2.804042e+01    7.851114e-01
  2.805630e+01    7.681769e-01
  2.807217e+01    7.728162e-01
  2.808805e+01    7.652279e-01
  2.810392e+01    7.844262e-01
  2.811980e+01    7.783905e-01
  2.813567e+01    7.883669e-01
  2.815155e+01    7.692325e-01
  2.816742e+01    7.490535e-01
  2.818330e+01    7.425136e-01
  2.819918e+01    7.590298e-01
  2.821505e+01    7.632738e-01
  2.823093e+01    7.774753e-01
  2.824680e+01    7.822565e-01
  2.826268e+01    7.822499e-01
  2.827855e+01    7.563927e-01
  2.829443e+01    7.549194e-01
  2.831030e+01    7.644700e-01
  2.832618e+01    7.761323e-01
  2.834206e+01    7.559076e-01
  2.835793e+01    7.576590e-01
  2.837381e+01    7.622723e-01
  2.838968e+01    7.679820e-01
  2.840556e+01    7.552977e-01
  2.842143e+01    7.509927e-01
  2.843731e+01    7.577585e-01
  2.845318e+01    7.640570e-01
  2.846906e+01    7.503688e-01
  2.848494e+01    7.530661e-01
  2.850081e+01    7.769173e-01
  2.851669e+01    7.635053e-01
  2.853256e+01    7.823465e-01
  2.854844e+01    7.592793e-01
  2.856431e+01    7.349578e-01
  2.858019e+01    7.397975e-01
  2.859606e+01    7.541469e-01
  2.861194e+01    7.538300e-01
  2.862782e+01    7.699158e-01
  2.864369e+01    7.504451e-01
  2.865957e+01    7.673660e-01
  2.867544e+01    7.616039e-01
  2.869132e+01    7.392639e-01
  2.870719e+01    7.309646e-01
  2.872307e+01    7.539468e-01
  2.873895e+01    7.438719e-01
  2.875482e+01    7.154521e-01
  2.877070e+01    7.318876e-01
  2.878657e+01    7.296520e-01
  2.880245e+01    7.460543e-01
  2.881832e+01    7.391248e-01
  2.883420e+01    7.352537e-01
  2.885007e+01    7.284274e-01
  2.886595e+01    7.373517e-01
  2.888183e+01    7.513333e-01
  2.889770e+01    7.292495e-01
  2.891358e+01    7.143372e-01
  2.892945e+01    7.268642e-01
  2.894533e+01    7.298056e-01
  2.896120e+01    7.293745e-01
  2.897708e+01    7.280563e-01
  2.899295e+01    7.531059e-01
  2.900883e+01    7.578387e-01
  2.902471e+01    7.373945e-01
  2.904058e+01    7.104201e-01
  2.905646e+01    7.177463e-01
  2.907233e+01    7.347798e-01
  2.908821e+01    7.577867e-01
  2.910408e+01    7.377315e-01
  2.911996e+01    7.328981e-01
  2.913583e+01    7.351040e-01
  2.915171e+01    7.371786e-01
  2.916759e+01    7.350350e-01
  2.918346e+01    7.195123e-01
  2.919934e+01    7.361319e-01
  2.921521e+01    7.292562e-01
  2.923109e+01    7.433022e-01
  2.924696e+01    7.214266e-01
  2.926284e+01    7.198573e-01
  2.927871e+01    7.313647e-01
  2.929459e+01    7.141764e-01
  2.931047e+01    7.371564e-01
  2.932634e+01    7.239372e-01
  2.934222e+01    7.171513e-01
  2.935809e+01    7.249550e-01
  2.937397e+01    7.217917e-01
  2.938984e+01    7.113652e-01
  2.940572e+01    7.236035e-01
  2.942159e+01    7.118601e-01
  2.943747e+01    7.126487e-01
  2.945335e+01    7.306371e-01
  2.946922e+01    7.228044e-01
  2.948510e+01    7.267502e-01
  2.950097e+01    7.233174e-01
  2.951685e+01    7.135646e-01
  2.953272e+01    7.193573e-01
  2.954860e+01    7.348844e-01
  2.956447e+01    7.330884e-01
  2.958035e+01    7.382004e-01
  2.959623e+01    7.196034e-01
  2.961210e+01    7.239323e-01
  2.962798e+01    7.146869e-01
  2.964385e+01    7.123512e-01
  2.965973e+01    7.144834e-01
  2.967560e+01    7.041638e-01
  2.969148e+01    7.089233e-01
  2.970736e+01    7.241910e-01
  2.972323e+01    7.057477e-01
  2.973911e+01    7.233166e-01
  2.975498e+01    7.116614e-01
  2.977086e+01    7.104236e-01
  2.978673e+01    7.186397e-01
  2.980261e+01    7.064617e-01
  2.981848e+01    7.019823e-01
  2.983436e+01    7.045482e-01
  2.985024e+01    7.109278e-01
  2.986611e+01    7.120147e-01
  2.988199e+01    7.151777e-01
  2.989786e+01    7.307433e-01
  2.991374e+01    7.324059e-01
  2.992961e+01    7.333788e-01
  2.994549e+01    7.226782e-01
  2.996136e+01    7.306209e-01
  2.997724e+01    7.113239e-01
  2.999312e+01    7.240325e-01
  3.000899e+01    7.228095e-01
  3.002487e+01    7.231595e-01
  3.004074e+01    7.135313e-01
  3.005662e+01    7.224995e-01
  3.007249e+01    7.325721e-01
  3.008837e+01    7.346078e-01
  3.010424e+01    7.330320e-01
  3.012012e+01    7.407941e-01
  3.013600e+01    7.228042e-01
  3.015187e+01    7.236547e-01
  3.016775e+01    7.177796e-01
  3.018362e+01    6.830015e-01
  3.019950e+01    7.116529e-01
  3.021537e+01    7.031955e-01
  3.023125e+01    7.018735e-01
  3.024712e+01    6.821602e-01
  3.026300e+01    6.940114e-01
  3.027888e+01    7.023015e-01
  3.029475e+01    7.076913e-01
  3.031063e+01    7.046468e-01
  3.032650e+01    7.048541e-01
  3.034238e+01    6.987348e-01
  3.035825e+01    6.915497e-01
  3.037413e+01    7.099308e-01
  3.039000e+01    7.010761e-01
  3.040588e+01    7.066859e-01
  3.042176e+01    7.151111e-01
  3.043763e+01    7.079610e-01
  3.045351e+01    7.051260e-01
  3.046938e+01    7.067155e-01
  3.048526e+01    7.113122e-01
  3.050113e+01    7.042651e-01
  3.051701e+01    7.083697e-01
  3.053288e+01    7.068570e-01
  3.054876e+01    7.105147e-01
  3.056464e+01    7.118723e-01
  3.058051e+01    6.880289e-01
  3.059639e+01    7.008668e-01
  3.061226e+01    7.100368e-01
  3.062814e+01    6.979394e-01
  3.064401e+01    6.912451e-01
  3.065989e+01    7.037931e-01
  3.067577e+01    7.113197e-01
  3.069164e+01    7.127286e-01
  3.070752e+01    7.188361e-01
  3.072339e+01    7.082727e-01
  3.073927e+01    7.069212e-01
  3.075514e+01    7.082350e-01
  3.077102e+01    7.179763e-01
  3.078689e+01    7.090887e-01
  3.080277e+01    7.122321e-01
  3.081865e+01    7.141891e-01
  3.083452e+01    7.109785e-01
  3.085040e+01    7.199129e-01
  3.086627e+01    7.380211e-01
  3.088215e+01    7.325082e-01
  3.089802e+01    7.146798e-01
  3.091390e+01    6.962276e-01
  3.092977e+01    6.785563e-01
  3.094565e+01    7.118049e-01
  3.096153e+01    7.048844e-01
  3.097740e+01    7.154197e-01
  3.099328e+01    7.230667e-01
  3.100915e+01    6.954386e-01
  3.102503e+01    6.801534e-01
  3.104090e+01    6.819997e-01
  3.105678e+01    7.097132e-01
  3.107265e+01    7.333727e-01
  3.108853e+01    7.164953e-01
  3.110441e+01    6.907501e-01
  3.112028e+01    6.721489e-01
  3.113616e+01    7.117020e-01
  3.115203e+01    7.376919e-01
  3.116791e+01    7.095806e-01
  3.118378e+01    7.149394e-01
  3.119966e+01    7.236491e-01
  3.121553e+01    7.240304e-01
  3.123141e+01    7.123803e-01
  3.124729e+01    7.027581e-01
  3.126316e+01    7.152258e-01
  3.127904e+01    7.298247e-01
  3.129491e+01    7.207060e-01
  3.131079e+01    7.293809e-01
  3.132666e+01    7.357090e-01
  3.134254e+01    7.389591e-01
  3.135841e+01    7.400567e-01
  3.137429e+01    7.395048e-01
  3.139017e+01    7.113374e-01
  3.140604e+01    7.152061e-01
  3.142192e+01    7.549616e-01
  3.143779e+01    7.275852e-01
  3.145367e+01    7.308519e-01
  3.146954e+01    7.387463e-01
  3.148542e+01    7.516688e-01
  3.150129e+01    7.642340e-01
  3.151717e+01    7.656866e-01
  3.153305e+01    7.646353e-01
  3.154892e+01    7.909462e-01
  3.156480e+01    7.926911e-01
  3.158067e+01    7.927451e-01
  3.159655e+01    7.978275e-01
  3.161242e+01    8.040668e-01
  3.162830e+01    8.256010e-01
  3.164418e+01    8.357152e-01
  3.166005e+01    8.873602e-01
  3.167593e+01    8.977769e-01
  3.169180e+01    9.231538e-01
  3.170768e+01    9.712594e-01
  3.172355e+01    9.890602e-01
  3.173943e+01    1.038741e+00
  3.175530e+01    1.098469e+00
  3.177118e+01    1.155024e+00
  3.178706e+01    1.270670e+00
  3.180293e+01    1.375944e+00
  3.181881e+01    1.474588e+00
  3.183468e+01    1.610657e+00
  3.185056e+01    1.748729e+00
  3.186643e+01    1.901029e+00
  3.188231e+01    2.030408e+00
  3.189818e+01    2.173837e+00
  3.191406e+01    2.262496e+00
  3.192994e+01    2.247889e+00
  3.194581e+01    2.174307e+00
  3.196169e+01    2.096136e+00
  3.197756e+01    1.933845e+00
  3.199344e+01    1.765756e+00
  3.200931e+01    1.616602e+00
  3.202519e+01    1.456453e+00
  3.204106e+01    1.333099e+00
  3.205694e+01    1.222186e+00
  3.207282e+01    1.119079e+00
  3.208869e+01    1.046914e+00
  3.210457e+01    1.027173e+00
  3.212044e+01    9.942066e-01
  3.213632e+01    9.292328e-01
  3.215219e+01    8.971424e-01
  3.216807e+01    8.786348e-01
  3.218394e+01    8.458883e-01
  3.219982e+01    8.133739e-01
  3.221570e+01    8.278663e-01
  3.223157e+01    8.002266e-01
  3.224745e+01    7.677257e-01
  3.226332e+01    7.688166e-01
  3.227920e+01    7.747400e-01
  3.229507e+01    7.729222e-01
  3.231095e+01    7.656178e-01
  3.232682e+01    7.550243e-01
  3.234270e+01    7.254961e-01
  3.235858e+01    7.416727e-01
  3.237445e+01    7.470046e-01
  3.239033e+01    7.224830e-01
  3.240620e+01    7.325308e-01
  3.242208e+01    7.450708e-01
  3.243795e+01    7.501439e-01
  3.245383e+01    7.258219e-01
  3.246970e+01    7.019147e-01
  3.248558e+01    7.207754e-01
  3.250146e+01    7.272789e-01
  3.251733e+01    7.356920e-01
  3.253321e+01    7.146295e-01
  3.254908e+01    7.208050e-01
