# == pyFAI calibration ==
# Distance Sample to Detector: 0.3999999939076516 m
# PONI: 9.750e-02, 1.135e-01 m
# Rotations: -0.000175 0.000000 -0.000000 rad
# 
# == Fit2d calibration ==
# Distance Sample-beamCenter: 400.000 mm
# Center: x=1514.000, y=1300.000 pix
# Tilt: 0.010 deg  TiltPlanRot: 0.010 deg
# 
# Detector Detector	 Spline= None	 PixelSize= 7.500e-05, 7.500e-05 m
#    Detector has a mask: False 
#    Detector has a dark current: False 
#    detector has a flat field: False 
# 
# Wavelength: 6.888e-11 m
# Mask applied: user provided
# Dark current applied: False
# Flat field applied: False
# Polarization factor: 0.99
# Normalization factor: 1.0
# --> /home/myspot/data/2024_07_Rosario/Ru-CGO-ex/2024-07-27_002_Ru-CGO-ex_Activtation_ramp_000002_data_000034.dat
#       q_nm^-1             I 
  2.003187e-02    1.424646e-01
  3.590745e-02    0.000000e+00
  5.178302e-02    2.222835e-01
  6.765859e-02    2.965495e-01
  8.353417e-02    1.202153e-01
  9.940974e-02    2.465445e-01
  1.152853e-01    9.180851e-02
  1.311609e-01    4.102718e-04
  1.470365e-01    1.268477e-02
  1.629120e-01    2.749589e-02
  1.787876e-01    4.991186e-02
  1.946632e-01    9.252565e-03
  2.105388e-01    3.990973e-02
  2.264143e-01    9.071879e-02
  2.422899e-01    3.021103e-02
  2.581655e-01    5.041545e-02
  2.740411e-01    4.553648e-02
  2.899166e-01    7.035563e-02
  3.057922e-01    5.354830e-02
  3.216678e-01    3.536161e-02
  3.375433e-01    6.141696e-02
  3.534189e-01    4.276874e-02
  3.692945e-01    3.157951e-02
  3.851701e-01    4.046381e-02
  4.010456e-01    3.882203e-02
  4.169212e-01    4.365455e-02
  4.327968e-01    1.493438e-02
  4.486724e-01    2.565184e-02
  4.645479e-01    6.324509e-02
  4.804235e-01    4.050547e-02
  4.962991e-01    2.253469e-02
  5.121747e-01    1.887470e-02
  5.280502e-01    2.989888e-02
  5.439258e-01    3.380744e-02
  5.598014e-01    5.795682e-03
  5.756770e-01    1.916904e-02
  5.915525e-01    2.593772e-02
  6.074281e-01    4.693514e-02
  6.233037e-01    6.428420e-02
  6.391793e-01    3.689304e-02
  6.550548e-01    4.333734e-02
  6.709304e-01    4.333679e-02
  6.868060e-01    3.976770e-02
  7.026815e-01    2.968827e-02
  7.185571e-01    3.188901e-02
  7.344327e-01    4.253729e-02
  7.503083e-01    3.967225e-02
  7.661838e-01    7.136172e-02
  7.820594e-01    9.473370e-02
  7.979350e-01    1.471612e-01
  8.138106e-01    1.980569e-01
  8.296861e-01    2.945505e-01
  8.455617e-01    3.843947e-01
  8.614373e-01    4.782476e-01
  8.773129e-01    4.458250e-01
  8.931884e-01    4.734542e-01
  9.090640e-01    5.987049e-01
  9.249396e-01    6.023164e-01
  9.408152e-01    6.293194e-01
  9.566907e-01    7.985907e-01
  9.725663e-01    9.170955e-01
  9.884419e-01    1.079594e+00
  1.004317e+00    1.070042e+00
  1.020193e+00    1.102311e+00
  1.036069e+00    1.147389e+00
  1.051944e+00    1.261110e+00
  1.067820e+00    1.284809e+00
  1.083695e+00    1.309982e+00
  1.099571e+00    1.334625e+00
  1.115446e+00    1.371525e+00
  1.131322e+00    1.474188e+00
  1.147198e+00    1.554856e+00
  1.163073e+00    1.406524e+00
  1.178949e+00    1.402442e+00
  1.194824e+00    1.562091e+00
  1.210700e+00    1.879070e+00
  1.226575e+00    2.230051e+00
  1.242451e+00    2.344154e+00
  1.258327e+00    2.376824e+00
  1.274202e+00    2.424738e+00
  1.290078e+00    2.548411e+00
  1.305953e+00    2.649224e+00
  1.321829e+00    2.619177e+00
  1.337705e+00    2.633391e+00
  1.353580e+00    2.746179e+00
  1.369456e+00    2.637686e+00
  1.385331e+00    2.571508e+00
  1.401207e+00    2.743109e+00
  1.417082e+00    2.759981e+00
  1.432958e+00    2.825858e+00
  1.448834e+00    2.767313e+00
  1.464709e+00    2.838144e+00
  1.480585e+00    2.887485e+00
  1.496460e+00    2.881858e+00
  1.512336e+00    2.928283e+00
  1.528211e+00    2.995878e+00
  1.544087e+00    2.975858e+00
  1.559963e+00    2.933697e+00
  1.575838e+00    3.000155e+00
  1.591714e+00    2.960567e+00
  1.607589e+00    2.965261e+00
  1.623465e+00    3.001648e+00
  1.639340e+00    3.108628e+00
  1.655216e+00    3.068138e+00
  1.671092e+00    2.951121e+00
  1.686967e+00    2.888964e+00
  1.702843e+00    2.901865e+00
  1.718718e+00    3.015824e+00
  1.734594e+00    2.936791e+00
  1.750469e+00    2.843206e+00
  1.766345e+00    2.958408e+00
  1.782221e+00    2.755122e+00
  1.798096e+00    2.938329e+00
  1.813972e+00    2.901795e+00
  1.829847e+00    2.799941e+00
  1.845723e+00    2.776561e+00
  1.861598e+00    2.794339e+00
  1.877474e+00    2.772373e+00
  1.893350e+00    2.844456e+00
  1.909225e+00    2.877852e+00
  1.925101e+00    2.831584e+00
  1.940976e+00    2.881603e+00
  1.956852e+00    2.866068e+00
  1.972727e+00    2.785299e+00
  1.988603e+00    2.815651e+00
  2.004479e+00    2.869694e+00
  2.020354e+00    2.902839e+00
  2.036230e+00    2.773470e+00
  2.052105e+00    2.824193e+00
  2.067981e+00    2.706915e+00
  2.083856e+00    2.795591e+00
  2.099732e+00    2.927367e+00
  2.115608e+00    2.723148e+00
  2.131483e+00    2.807703e+00
  2.147359e+00    2.757291e+00
  2.163234e+00    2.793880e+00
  2.179110e+00    2.788328e+00
  2.194985e+00    2.702718e+00
  2.210861e+00    2.661281e+00
  2.226737e+00    2.750394e+00
  2.242612e+00    2.812742e+00
  2.258488e+00    2.798133e+00
  2.274363e+00    2.853591e+00
  2.290239e+00    2.874503e+00
  2.306115e+00    2.861556e+00
  2.321990e+00    2.880213e+00
  2.337866e+00    2.867490e+00
  2.353741e+00    2.853968e+00
  2.369617e+00    2.815109e+00
  2.385492e+00    2.796910e+00
  2.401368e+00    2.812224e+00
  2.417244e+00    2.770755e+00
  2.433119e+00    2.845398e+00
  2.448995e+00    2.782285e+00
  2.464870e+00    2.815093e+00
  2.480746e+00    2.932719e+00
  2.496621e+00    2.822145e+00
  2.512497e+00    2.857611e+00
  2.528373e+00    2.752635e+00
  2.544248e+00    2.852866e+00
  2.560124e+00    2.871803e+00
  2.575999e+00    2.783793e+00
  2.591875e+00    2.809303e+00
  2.607750e+00    2.860970e+00
  2.623626e+00    2.829942e+00
  2.639502e+00    2.821185e+00
  2.655377e+00    2.794340e+00
  2.671253e+00    2.807576e+00
  2.687128e+00    2.800150e+00
  2.703004e+00    2.839746e+00
  2.718879e+00    2.852679e+00
  2.734755e+00    2.826391e+00
  2.750631e+00    2.842596e+00
  2.766506e+00    2.877985e+00
  2.782382e+00    2.832405e+00
  2.798257e+00    2.778896e+00
  2.814133e+00    2.894013e+00
  2.830008e+00    2.807028e+00
  2.845884e+00    2.953886e+00
  2.861760e+00    2.939146e+00
  2.877635e+00    2.898779e+00
  2.893511e+00    2.861873e+00
  2.909386e+00    2.923160e+00
  2.925262e+00    2.917021e+00
  2.941137e+00    2.823265e+00
  2.957013e+00    2.874872e+00
  2.972889e+00    2.905641e+00
  2.988764e+00    2.813420e+00
  3.004640e+00    2.826954e+00
  3.020515e+00    2.831704e+00
  3.036391e+00    2.981375e+00
  3.052266e+00    2.992612e+00
  3.068142e+00    2.933742e+00
  3.084018e+00    2.952531e+00
  3.099893e+00    2.947464e+00
  3.115769e+00    2.873748e+00
  3.131644e+00    2.963444e+00
  3.147520e+00    2.952196e+00
  3.163395e+00    2.908833e+00
  3.179271e+00    2.833300e+00
  3.195147e+00    2.883114e+00
  3.211022e+00    2.991299e+00
  3.226898e+00    3.004847e+00
  3.242773e+00    2.958818e+00
  3.258649e+00    3.006829e+00
  3.274525e+00    2.887855e+00
  3.290400e+00    2.935206e+00
  3.306276e+00    2.965632e+00
  3.322151e+00    2.948291e+00
  3.338027e+00    2.921782e+00
  3.353902e+00    2.905429e+00
  3.369778e+00    3.027012e+00
  3.385654e+00    3.063772e+00
  3.401529e+00    2.982463e+00
  3.417405e+00    2.931173e+00
  3.433280e+00    2.887118e+00
  3.449156e+00    2.951776e+00
  3.465031e+00    2.965626e+00
  3.480907e+00    2.955143e+00
  3.496783e+00    2.992491e+00
  3.512658e+00    2.952599e+00
  3.528534e+00    2.899863e+00
  3.544409e+00    2.904389e+00
  3.560285e+00    2.943455e+00
  3.576160e+00    2.959936e+00
  3.592036e+00    2.968348e+00
  3.607912e+00    2.994012e+00
  3.623787e+00    2.939118e+00
  3.639663e+00    2.916367e+00
  3.655538e+00    3.018447e+00
  3.671414e+00    3.120776e+00
  3.687289e+00    3.076605e+00
  3.703165e+00    3.040011e+00
  3.719041e+00    2.962834e+00
  3.734916e+00    3.008137e+00
  3.750792e+00    3.049884e+00
  3.766667e+00    3.043344e+00
  3.782543e+00    3.046845e+00
  3.798418e+00    3.103835e+00
  3.814294e+00    3.071938e+00
  3.830170e+00    3.024991e+00
  3.846045e+00    3.035848e+00
  3.861921e+00    3.042377e+00
  3.877796e+00    3.013885e+00
  3.893672e+00    3.035107e+00
  3.909547e+00    3.038115e+00
  3.925423e+00    3.118106e+00
  3.941299e+00    3.129484e+00
  3.957174e+00    3.174124e+00
  3.973050e+00    2.992311e+00
  3.988925e+00    2.973269e+00
  4.004801e+00    3.068016e+00
  4.020676e+00    2.981032e+00
  4.036552e+00    3.071728e+00
  4.052428e+00    3.146911e+00
  4.068303e+00    3.031549e+00
  4.084179e+00    3.001381e+00
  4.100054e+00    2.957379e+00
  4.115930e+00    3.001565e+00
  4.131806e+00    2.980993e+00
  4.147681e+00    3.058708e+00
  4.163557e+00    3.022239e+00
  4.179432e+00    3.053112e+00
  4.195308e+00    3.048959e+00
  4.211183e+00    3.075849e+00
  4.227059e+00    3.003014e+00
  4.242935e+00    3.032799e+00
  4.258810e+00    3.065674e+00
  4.274686e+00    3.076006e+00
  4.290561e+00    3.077434e+00
  4.306437e+00    3.068419e+00
  4.322312e+00    3.094736e+00
  4.338188e+00    3.078772e+00
  4.354064e+00    3.091113e+00
  4.369939e+00    3.017091e+00
  4.385815e+00    3.014302e+00
  4.401690e+00    3.095252e+00
  4.417566e+00    3.065384e+00
  4.433441e+00    3.144296e+00
  4.449317e+00    3.042420e+00
  4.465193e+00    3.078183e+00
  4.481068e+00    3.058136e+00
  4.496944e+00    3.022006e+00
  4.512819e+00    3.027168e+00
  4.528695e+00    3.063844e+00
  4.544570e+00    3.072190e+00
  4.560446e+00    3.011233e+00
  4.576322e+00    2.975504e+00
  4.592197e+00    3.036565e+00
  4.608073e+00    3.087287e+00
  4.623948e+00    3.105372e+00
  4.639824e+00    3.136959e+00
  4.655699e+00    3.141910e+00
  4.671575e+00    3.137403e+00
  4.687451e+00    3.133003e+00
  4.703326e+00    3.087875e+00
  4.719202e+00    3.036467e+00
  4.735077e+00    3.258492e+00
  4.750953e+00    3.260268e+00
  4.766828e+00    3.102756e+00
  4.782704e+00    3.054696e+00
  4.798580e+00    3.079104e+00
  4.814455e+00    3.089740e+00
  4.830331e+00    3.053619e+00
  4.846206e+00    3.064957e+00
  4.862082e+00    3.186908e+00
  4.877957e+00    3.208267e+00
  4.893833e+00    3.211368e+00
  4.909709e+00    3.186299e+00
  4.925584e+00    3.155845e+00
  4.941460e+00    3.162055e+00
  4.957335e+00    3.072125e+00
  4.973211e+00    3.086247e+00
  4.989086e+00    3.134486e+00
  5.004962e+00    3.168506e+00
  5.020838e+00    3.207276e+00
  5.036713e+00    3.195294e+00
  5.052589e+00    3.139790e+00
  5.068464e+00    3.207454e+00
  5.084340e+00    3.228780e+00
  5.100216e+00    3.229504e+00
  5.116091e+00    3.173454e+00
  5.131967e+00    3.202986e+00
  5.147842e+00    3.150328e+00
  5.163718e+00    3.108666e+00
  5.179593e+00    3.149454e+00
  5.195469e+00    3.171817e+00
  5.211345e+00    3.182210e+00
  5.227220e+00    3.106810e+00
  5.243096e+00    3.118270e+00
  5.258971e+00    3.097905e+00
  5.274847e+00    3.151894e+00
  5.290722e+00    3.149818e+00
  5.306598e+00    3.200919e+00
  5.322474e+00    3.189021e+00
  5.338349e+00    3.153355e+00
  5.354225e+00    3.184224e+00
  5.370100e+00    3.137591e+00
  5.385976e+00    3.119659e+00
  5.401851e+00    3.157027e+00
  5.417727e+00    3.157021e+00
  5.433603e+00    3.071452e+00
  5.449478e+00    3.114509e+00
  5.465354e+00    3.125269e+00
  5.481229e+00    3.063562e+00
  5.497105e+00    3.090530e+00
  5.512980e+00    3.127681e+00
  5.528856e+00    3.119127e+00
  5.544732e+00    3.090953e+00
  5.560607e+00    3.068430e+00
  5.576483e+00    3.006854e+00
  5.592358e+00    3.023573e+00
  5.608234e+00    3.052224e+00
  5.624109e+00    3.001353e+00
  5.639985e+00    3.090526e+00
  5.655861e+00    3.121810e+00
  5.671736e+00    3.056279e+00
  5.687612e+00    3.069599e+00
  5.703487e+00    3.068313e+00
  5.719363e+00    3.054585e+00
  5.735238e+00    3.076196e+00
  5.751114e+00    3.084883e+00
  5.766990e+00    3.138611e+00
  5.782865e+00    3.095502e+00
  5.798741e+00    2.990431e+00
  5.814616e+00    3.098485e+00
  5.830492e+00    3.127089e+00
  5.846367e+00    3.081992e+00
  5.862243e+00    3.057767e+00
  5.878119e+00    3.126804e+00
  5.893994e+00    3.148205e+00
  5.909870e+00    3.050803e+00
  5.925745e+00    3.068536e+00
  5.941621e+00    2.942812e+00
  5.957497e+00    2.984778e+00
  5.973372e+00    2.957191e+00
  5.989248e+00    2.993366e+00
  6.005123e+00    2.998610e+00
  6.020999e+00    2.967562e+00
  6.036874e+00    3.053338e+00
  6.052750e+00    3.032632e+00
  6.068626e+00    3.049223e+00
  6.084501e+00    3.041320e+00
  6.100377e+00    3.004568e+00
  6.116252e+00    2.988511e+00
  6.132128e+00    3.107980e+00
  6.148003e+00    3.127315e+00
  6.163879e+00    3.121748e+00
  6.179755e+00    3.065446e+00
  6.195630e+00    2.986914e+00
  6.211506e+00    3.036376e+00
  6.227381e+00    3.065142e+00
  6.243257e+00    3.015075e+00
  6.259132e+00    3.118054e+00
  6.275008e+00    3.163871e+00
  6.290884e+00    3.014245e+00
  6.306759e+00    2.999693e+00
  6.322635e+00    3.074947e+00
  6.338510e+00    3.040755e+00
  6.354386e+00    3.076729e+00
  6.370261e+00    3.037941e+00
  6.386137e+00    2.993658e+00
  6.402013e+00    2.945232e+00
  6.417888e+00    3.035138e+00
  6.433764e+00    3.017562e+00
  6.449639e+00    3.005304e+00
  6.465515e+00    3.046267e+00
  6.481390e+00    3.065588e+00
  6.497266e+00    3.030851e+00
  6.513142e+00    3.013047e+00
  6.529017e+00    3.076035e+00
  6.544893e+00    3.011629e+00
  6.560768e+00    3.073253e+00
  6.576644e+00    3.054030e+00
  6.592519e+00    3.020039e+00
  6.608395e+00    3.026472e+00
  6.624271e+00    3.079026e+00
  6.640146e+00    3.066178e+00
  6.656022e+00    3.069300e+00
  6.671897e+00    3.022682e+00
  6.687773e+00    3.029974e+00
  6.703648e+00    3.009198e+00
  6.719524e+00    3.007501e+00
  6.735400e+00    3.052922e+00
  6.751275e+00    3.064256e+00
  6.767151e+00    3.035172e+00
  6.783026e+00    2.993867e+00
  6.798902e+00    3.031019e+00
  6.814777e+00    3.028194e+00
  6.830653e+00    3.049026e+00
  6.846529e+00    2.956253e+00
  6.862404e+00    3.048896e+00
  6.878280e+00    3.039864e+00
  6.894155e+00    3.015029e+00
  6.910031e+00    3.039742e+00
  6.925907e+00    3.055864e+00
  6.941782e+00    3.041390e+00
  6.957658e+00    3.097113e+00
  6.973533e+00    3.067976e+00
  6.989409e+00    3.084034e+00
  7.005284e+00    3.024508e+00
  7.021160e+00    3.039749e+00
  7.037036e+00    3.067848e+00
  7.052911e+00    3.088841e+00
  7.068787e+00    3.101730e+00
  7.084662e+00    3.024194e+00
  7.100538e+00    3.028782e+00
  7.116413e+00    3.043151e+00
  7.132289e+00    2.998865e+00
  7.148165e+00    2.991788e+00
  7.164040e+00    3.029737e+00
  7.179916e+00    3.070600e+00
  7.195791e+00    3.028457e+00
  7.211667e+00    3.026952e+00
  7.227542e+00    3.012566e+00
  7.243418e+00    3.022579e+00
  7.259294e+00    3.046052e+00
  7.275169e+00    2.992796e+00
  7.291045e+00    3.035323e+00
  7.306920e+00    3.036790e+00
  7.322796e+00    3.039256e+00
  7.338671e+00    3.004131e+00
  7.354547e+00    2.972270e+00
  7.370423e+00    2.982824e+00
  7.386298e+00    3.053292e+00
  7.402174e+00    3.006147e+00
  7.418049e+00    2.930520e+00
  7.433925e+00    2.976548e+00
  7.449800e+00    3.007789e+00
  7.465676e+00    2.989938e+00
  7.481552e+00    3.001542e+00
  7.497427e+00    2.910670e+00
  7.513303e+00    2.866832e+00
  7.529178e+00    2.975476e+00
  7.545054e+00    3.008322e+00
  7.560929e+00    2.947403e+00
  7.576805e+00    2.972245e+00
  7.592681e+00    2.953894e+00
  7.608556e+00    2.923762e+00
  7.624432e+00    2.988979e+00
  7.640307e+00    3.017832e+00
  7.656183e+00    3.012801e+00
  7.672058e+00    2.991548e+00
  7.687934e+00    2.924754e+00
  7.703810e+00    2.952993e+00
  7.719685e+00    2.935082e+00
  7.735561e+00    2.918492e+00
  7.751436e+00    2.956139e+00
  7.767312e+00    2.968888e+00
  7.783187e+00    2.931294e+00
  7.799063e+00    2.890118e+00
  7.814939e+00    2.963080e+00
  7.830814e+00    3.049375e+00
  7.846690e+00    2.995018e+00
  7.862565e+00    2.907151e+00
  7.878441e+00    2.902534e+00
  7.894317e+00    2.944242e+00
  7.910192e+00    2.953847e+00
  7.926068e+00    2.969566e+00
  7.941943e+00    2.928020e+00
  7.957819e+00    2.950729e+00
  7.973694e+00    2.902372e+00
  7.989570e+00    2.875601e+00
  8.005446e+00    2.911260e+00
  8.021321e+00    2.913273e+00
  8.037197e+00    2.956250e+00
  8.053072e+00    2.901088e+00
  8.068948e+00    2.876854e+00
  8.084823e+00    2.935609e+00
  8.100699e+00    2.978264e+00
  8.116575e+00    3.070379e+00
  8.132450e+00    3.034436e+00
  8.148326e+00    2.942513e+00
  8.164201e+00    2.999866e+00
  8.180077e+00    2.970172e+00
  8.195952e+00    2.996664e+00
  8.211828e+00    3.011097e+00
  8.227704e+00    2.958105e+00
  8.243579e+00    2.895639e+00
  8.259455e+00    2.980653e+00
  8.275330e+00    2.958191e+00
  8.291206e+00    2.980871e+00
  8.307081e+00    2.933826e+00
  8.322957e+00    2.871965e+00
  8.338833e+00    2.936769e+00
  8.354708e+00    2.906764e+00
  8.370584e+00    2.911431e+00
  8.386459e+00    2.914714e+00
  8.402335e+00    2.961967e+00
  8.418210e+00    2.936191e+00
  8.434086e+00    2.910840e+00
  8.449962e+00    2.912143e+00
  8.465837e+00    2.887370e+00
  8.481713e+00    2.863648e+00
  8.497588e+00    2.820006e+00
  8.513464e+00    2.843968e+00
  8.529339e+00    2.878865e+00
  8.545215e+00    2.883672e+00
  8.561091e+00    2.926706e+00
  8.576966e+00    2.950042e+00
  8.592842e+00    2.902292e+00
  8.608717e+00    2.859618e+00
  8.624593e+00    2.864272e+00
  8.640468e+00    2.863253e+00
  8.656344e+00    2.871185e+00
  8.672220e+00    2.869473e+00
  8.688095e+00    2.843753e+00
  8.703971e+00    2.892404e+00
  8.719846e+00    2.833872e+00
  8.735722e+00    2.833569e+00
  8.751598e+00    2.893866e+00
  8.767473e+00    2.906574e+00
  8.783349e+00    2.842061e+00
  8.799224e+00    2.800391e+00
  8.815100e+00    2.798782e+00
  8.830975e+00    2.779876e+00
  8.846851e+00    2.890701e+00
  8.862727e+00    2.876629e+00
  8.878602e+00    2.854203e+00
  8.894478e+00    2.832435e+00
  8.910353e+00    2.902480e+00
  8.926229e+00    2.871979e+00
  8.942104e+00    2.777555e+00
  8.957980e+00    2.823995e+00
  8.973856e+00    2.819890e+00
  8.989731e+00    2.819889e+00
  9.005607e+00    2.852872e+00
  9.021482e+00    2.838670e+00
  9.037358e+00    2.822023e+00
  9.053233e+00    2.796942e+00
  9.069109e+00    2.820393e+00
  9.084985e+00    2.814653e+00
  9.100860e+00    2.807817e+00
  9.116736e+00    2.797046e+00
  9.132611e+00    2.783217e+00
  9.148487e+00    2.770281e+00
  9.164362e+00    2.757361e+00
  9.180238e+00    2.840653e+00
  9.196114e+00    2.801154e+00
  9.211989e+00    2.791675e+00
  9.227865e+00    2.805120e+00
  9.243740e+00    2.809378e+00
  9.259616e+00    2.795354e+00
  9.275491e+00    2.765437e+00
  9.291367e+00    2.733900e+00
  9.307243e+00    2.766133e+00
  9.323118e+00    2.758518e+00
  9.338994e+00    2.809859e+00
  9.354869e+00    2.809063e+00
  9.370745e+00    2.731931e+00
  9.386620e+00    2.805730e+00
  9.402496e+00    2.823383e+00
  9.418372e+00    2.792002e+00
  9.434247e+00    2.815706e+00
  9.450123e+00    2.774422e+00
  9.465998e+00    2.790141e+00
  9.481874e+00    2.769647e+00
  9.497749e+00    2.795100e+00
  9.513625e+00    2.828332e+00
  9.529501e+00    2.792738e+00
  9.545376e+00    2.777943e+00
  9.561252e+00    2.792909e+00
  9.577127e+00    2.776493e+00
  9.593003e+00    2.766940e+00
  9.608878e+00    2.741525e+00
  9.624754e+00    2.782365e+00
  9.640630e+00    2.774386e+00
  9.656505e+00    2.737252e+00
  9.672381e+00    2.739023e+00
  9.688256e+00    2.791909e+00
  9.704132e+00    2.757247e+00
  9.720008e+00    2.775537e+00
  9.735883e+00    2.786860e+00
  9.751759e+00    2.754904e+00
  9.767634e+00    2.737387e+00
  9.783510e+00    2.725317e+00
  9.799385e+00    2.724317e+00
  9.815261e+00    2.718167e+00
  9.831137e+00    2.686525e+00
  9.847012e+00    2.673932e+00
  9.862888e+00    2.737589e+00
  9.878763e+00    2.672773e+00
  9.894639e+00    2.671976e+00
  9.910514e+00    2.691043e+00
  9.926390e+00    2.753190e+00
  9.942266e+00    2.675092e+00
  9.958141e+00    2.703231e+00
  9.974017e+00    2.717464e+00
  9.989892e+00    2.714023e+00
  1.000577e+01    2.698500e+00
  1.002164e+01    2.720391e+00
  1.003752e+01    2.666414e+00
  1.005339e+01    2.655922e+00
  1.006927e+01    2.646390e+00
  1.008515e+01    2.686395e+00
  1.010102e+01    2.743178e+00
  1.011690e+01    2.680825e+00
  1.013277e+01    2.666910e+00
  1.014865e+01    2.707169e+00
  1.016452e+01    2.690812e+00
  1.018040e+01    2.649767e+00
  1.019627e+01    2.673976e+00
  1.021215e+01    2.641531e+00
  1.022803e+01    2.631758e+00
  1.024390e+01    2.640840e+00
  1.025978e+01    2.643710e+00
  1.027565e+01    2.676071e+00
  1.029153e+01    2.643942e+00
  1.030740e+01    2.652470e+00
  1.032328e+01    2.652559e+00
  1.033915e+01    2.700091e+00
  1.035503e+01    2.654524e+00
  1.037091e+01    2.651536e+00
  1.038678e+01    2.629944e+00
  1.040266e+01    2.624124e+00
  1.041853e+01    2.618464e+00
  1.043441e+01    2.640967e+00
  1.045028e+01    2.670687e+00
  1.046616e+01    2.612595e+00
  1.048204e+01    2.588732e+00
  1.049791e+01    2.611023e+00
  1.051379e+01    2.574711e+00
  1.052966e+01    2.565004e+00
  1.054554e+01    2.616218e+00
  1.056141e+01    2.585296e+00
  1.057729e+01    2.598805e+00
  1.059316e+01    2.623437e+00
  1.060904e+01    2.564051e+00
  1.062492e+01    2.557748e+00
  1.064079e+01    2.591775e+00
  1.065667e+01    2.573763e+00
  1.067254e+01    2.590036e+00
  1.068842e+01    2.558133e+00
  1.070429e+01    2.589623e+00
  1.072017e+01    2.568910e+00
  1.073604e+01    2.567446e+00
  1.075192e+01    2.566046e+00
  1.076780e+01    2.587793e+00
  1.078367e+01    2.550218e+00
  1.079955e+01    2.487660e+00
  1.081542e+01    2.541696e+00
  1.083130e+01    2.545971e+00
  1.084717e+01    2.548449e+00
  1.086305e+01    2.561789e+00
  1.087892e+01    2.557859e+00
  1.089480e+01    2.571987e+00
  1.091068e+01    2.521991e+00
  1.092655e+01    2.503198e+00
  1.094243e+01    2.527283e+00
  1.095830e+01    2.523487e+00
  1.097418e+01    2.512058e+00
  1.099005e+01    2.504006e+00
  1.100593e+01    2.496141e+00
  1.102180e+01    2.476001e+00
  1.103768e+01    2.469551e+00
  1.105356e+01    2.505032e+00
  1.106943e+01    2.474075e+00
  1.108531e+01    2.484217e+00
  1.110118e+01    2.514482e+00
  1.111706e+01    2.505025e+00
  1.113293e+01    2.469740e+00
  1.114881e+01    2.479805e+00
  1.116468e+01    2.489496e+00
  1.118056e+01    2.470505e+00
  1.119644e+01    2.466438e+00
  1.121231e+01    2.449822e+00
  1.122819e+01    2.451606e+00
  1.124406e+01    2.440142e+00
  1.125994e+01    2.476254e+00
  1.127581e+01    2.480152e+00
  1.129169e+01    2.458408e+00
  1.130756e+01    2.459325e+00
  1.132344e+01    2.453218e+00
  1.133932e+01    2.463419e+00
  1.135519e+01    2.435670e+00
  1.137107e+01    2.429517e+00
  1.138694e+01    2.453398e+00
  1.140282e+01    2.411819e+00
  1.141869e+01    2.400165e+00
  1.143457e+01    2.426252e+00
  1.145045e+01    2.454264e+00
  1.146632e+01    2.378390e+00
  1.148220e+01    2.372162e+00
  1.149807e+01    2.380921e+00
  1.151395e+01    2.393050e+00
  1.152982e+01    2.427653e+00
  1.154570e+01    2.404668e+00
  1.156157e+01    2.375616e+00
  1.157745e+01    2.384694e+00
  1.159333e+01    2.385170e+00
  1.160920e+01    2.408357e+00
  1.162508e+01    2.381853e+00
  1.164095e+01    2.388807e+00
  1.165683e+01    2.386272e+00
  1.167270e+01    2.411318e+00
  1.168858e+01    2.421124e+00
  1.170445e+01    2.360273e+00
  1.172033e+01    2.382588e+00
  1.173621e+01    2.394077e+00
  1.175208e+01    2.398447e+00
  1.176796e+01    2.381589e+00
  1.178383e+01    2.358451e+00
  1.179971e+01    2.322388e+00
  1.181558e+01    2.318022e+00
  1.183146e+01    2.343453e+00
  1.184733e+01    2.353338e+00
  1.186321e+01    2.385127e+00
  1.187909e+01    2.359321e+00
  1.189496e+01    2.346889e+00
  1.191084e+01    2.374905e+00
  1.192671e+01    2.396556e+00
  1.194259e+01    2.377460e+00
  1.195846e+01    2.330650e+00
  1.197434e+01    2.338848e+00
  1.199021e+01    2.347469e+00
  1.200609e+01    2.364797e+00
  1.202197e+01    2.384387e+00
  1.203784e+01    2.357237e+00
  1.205372e+01    2.389476e+00
  1.206959e+01    2.371595e+00
  1.208547e+01    2.351807e+00
  1.210134e+01    2.294795e+00
  1.211722e+01    2.326203e+00
  1.213309e+01    2.333973e+00
  1.214897e+01    2.266540e+00
  1.216485e+01    2.304990e+00
  1.218072e+01    2.325158e+00
  1.219660e+01    2.352400e+00
  1.221247e+01    2.347416e+00
  1.222835e+01    2.302975e+00
  1.224422e+01    2.350224e+00
  1.226010e+01    2.341964e+00
  1.227597e+01    2.303517e+00
  1.229185e+01    2.309549e+00
  1.230773e+01    2.341712e+00
  1.232360e+01    2.356803e+00
  1.233948e+01    2.372040e+00
  1.235535e+01    2.334580e+00
  1.237123e+01    2.318145e+00
  1.238710e+01    2.339397e+00
  1.240298e+01    2.368417e+00
  1.241886e+01    2.400271e+00
  1.243473e+01    2.365008e+00
  1.245061e+01    2.384191e+00
  1.246648e+01    2.362732e+00
  1.248236e+01    2.353509e+00
  1.249823e+01    2.335409e+00
  1.251411e+01    2.377094e+00
  1.252998e+01    2.383109e+00
  1.254586e+01    2.365126e+00
  1.256174e+01    2.378798e+00
  1.257761e+01    2.433296e+00
  1.259349e+01    2.443502e+00
  1.260936e+01    2.438720e+00
  1.262524e+01    2.426092e+00
  1.264111e+01    2.440329e+00
  1.265699e+01    2.470703e+00
  1.267286e+01    2.518385e+00
  1.268874e+01    2.528126e+00
  1.270462e+01    2.528270e+00
  1.272049e+01    2.540087e+00
  1.273637e+01    2.538031e+00
  1.275224e+01    2.564629e+00
  1.276812e+01    2.583610e+00
  1.278399e+01    2.666809e+00
  1.279987e+01    2.683488e+00
  1.281574e+01    2.694175e+00
  1.283162e+01    2.803235e+00
  1.284750e+01    2.872458e+00
  1.286337e+01    2.918625e+00
  1.287925e+01    2.963248e+00
  1.289512e+01    3.157762e+00
  1.291100e+01    3.280287e+00
  1.292687e+01    3.422283e+00
  1.294275e+01    3.674325e+00
  1.295862e+01    4.007440e+00
  1.297450e+01    4.308912e+00
  1.299038e+01    4.678315e+00
  1.300625e+01    5.231196e+00
  1.302213e+01    5.892703e+00
  1.303800e+01    6.727686e+00
  1.305388e+01    7.856063e+00
  1.306975e+01    9.224697e+00
  1.308563e+01    1.060292e+01
  1.310150e+01    1.218950e+01
  1.311738e+01    1.373951e+01
  1.313326e+01    1.519284e+01
  1.314913e+01    1.643900e+01
  1.316501e+01    1.784426e+01
  1.318088e+01    1.902467e+01
  1.319676e+01    1.966524e+01
  1.321263e+01    1.935271e+01
  1.322851e+01    1.795019e+01
  1.324438e+01    1.580374e+01
  1.326026e+01    1.349511e+01
  1.327614e+01    1.133877e+01
  1.329201e+01    9.440577e+00
  1.330789e+01    8.096915e+00
  1.332376e+01    6.856817e+00
  1.333964e+01    5.932712e+00
  1.335551e+01    5.316000e+00
  1.337139e+01    4.789347e+00
  1.338727e+01    4.316861e+00
  1.340314e+01    4.031888e+00
  1.341902e+01    3.748103e+00
  1.343489e+01    3.488862e+00
  1.345077e+01    3.319176e+00
  1.346664e+01    3.144636e+00
  1.348252e+01    3.015113e+00
  1.349839e+01    2.949624e+00
  1.351427e+01    2.843580e+00
  1.353015e+01    2.755572e+00
  1.354602e+01    2.691779e+00
  1.356190e+01    2.651619e+00
  1.357777e+01    2.596754e+00
  1.359365e+01    2.582034e+00
  1.360952e+01    2.506098e+00
  1.362540e+01    2.421109e+00
  1.364127e+01    2.397517e+00
  1.365715e+01    2.381986e+00
  1.367303e+01    2.407431e+00
  1.368890e+01    2.367505e+00
  1.370478e+01    2.339379e+00
  1.372065e+01    2.303312e+00
  1.373653e+01    2.293290e+00
  1.375240e+01    2.238504e+00
  1.376828e+01    2.223972e+00
  1.378415e+01    2.226285e+00
  1.380003e+01    2.225924e+00
  1.381591e+01    2.221595e+00
  1.383178e+01    2.174834e+00
  1.384766e+01    2.199445e+00
  1.386353e+01    2.169391e+00
  1.387941e+01    2.190012e+00
  1.389528e+01    2.146928e+00
  1.391116e+01    2.107016e+00
  1.392703e+01    2.122993e+00
  1.394291e+01    2.177873e+00
  1.395879e+01    2.141771e+00
  1.397466e+01    2.110060e+00
  1.399054e+01    2.085728e+00
  1.400641e+01    2.110673e+00
  1.402229e+01    2.100945e+00
  1.403816e+01    2.079300e+00
  1.405404e+01    2.061146e+00
  1.406991e+01    2.077743e+00
  1.408579e+01    2.063303e+00
  1.410167e+01    2.043130e+00
  1.411754e+01    2.040213e+00
  1.413342e+01    2.052057e+00
  1.414929e+01    2.031645e+00
  1.416517e+01    2.001417e+00
  1.418104e+01    2.026854e+00
  1.419692e+01    2.034366e+00
  1.421279e+01    2.034090e+00
  1.422867e+01    2.036663e+00
  1.424455e+01    1.997692e+00
  1.426042e+01    2.005192e+00
  1.427630e+01    2.026794e+00
  1.429217e+01    1.970080e+00
  1.430805e+01    1.983192e+00
  1.432392e+01    2.026543e+00
  1.433980e+01    1.989392e+00
  1.435568e+01    1.964529e+00
  1.437155e+01    1.947674e+00
  1.438743e+01    1.955996e+00
  1.440330e+01    1.930135e+00
  1.441918e+01    1.964823e+00
  1.443505e+01    1.977265e+00
  1.445093e+01    1.954860e+00
  1.446680e+01    1.937472e+00
  1.448268e+01    1.940506e+00
  1.449856e+01    1.901537e+00
  1.451443e+01    1.896961e+00
  1.453031e+01    1.919046e+00
  1.454618e+01    1.909306e+00
  1.456206e+01    1.900332e+00
  1.457793e+01    1.914894e+00
  1.459381e+01    1.946285e+00
  1.460968e+01    1.913727e+00
  1.462556e+01    1.952907e+00
  1.464144e+01    1.930076e+00
  1.465731e+01    1.891804e+00
  1.467319e+01    1.942414e+00
  1.468906e+01    1.943033e+00
  1.470494e+01    1.922847e+00
  1.472081e+01    1.910885e+00
  1.473669e+01    1.930772e+00
  1.475256e+01    1.937292e+00
  1.476844e+01    1.932464e+00
  1.478432e+01    1.947214e+00
  1.480019e+01    1.930537e+00
  1.481607e+01    1.908719e+00
  1.483194e+01    1.938247e+00
  1.484782e+01    1.993254e+00
  1.486369e+01    1.968665e+00
  1.487957e+01    1.946608e+00
  1.489544e+01    1.934012e+00
  1.491132e+01    1.997187e+00
  1.492720e+01    2.035367e+00
  1.494307e+01    1.997638e+00
  1.495895e+01    2.010882e+00
  1.497482e+01    2.108989e+00
  1.499070e+01    2.145995e+00
  1.500657e+01    2.187661e+00
  1.502245e+01    2.215155e+00
  1.503832e+01    2.271974e+00
  1.505420e+01    2.334748e+00
  1.507008e+01    2.441809e+00
  1.508595e+01    2.571234e+00
  1.510183e+01    2.736551e+00
  1.511770e+01    2.952974e+00
  1.513358e+01    3.271079e+00
  1.514945e+01    3.622761e+00
  1.516533e+01    4.002736e+00
  1.518120e+01    4.472721e+00
  1.519708e+01    4.916696e+00
  1.521296e+01    5.280429e+00
  1.522883e+01    5.688535e+00
  1.524471e+01    6.078251e+00
  1.526058e+01    6.311046e+00
  1.527646e+01    6.473656e+00
  1.529233e+01    6.537668e+00
  1.530821e+01    6.401027e+00
  1.532409e+01    6.131988e+00
  1.533996e+01    5.557102e+00
  1.535584e+01    4.865064e+00
  1.537171e+01    4.235804e+00
  1.538759e+01    3.782001e+00
  1.540346e+01    3.339295e+00
  1.541934e+01    3.094557e+00
  1.543521e+01    2.862990e+00
  1.545109e+01    2.675390e+00
  1.546697e+01    2.501484e+00
  1.548284e+01    2.350767e+00
  1.549872e+01    2.206779e+00
  1.551459e+01    2.138130e+00
  1.553047e+01    2.077529e+00
  1.554634e+01    2.018196e+00
  1.556222e+01    2.027961e+00
  1.557809e+01    1.982873e+00
  1.559397e+01    1.925316e+00
  1.560985e+01    1.878336e+00
  1.562572e+01    1.857003e+00
  1.564160e+01    1.857289e+00
  1.565747e+01    1.812152e+00
  1.567335e+01    1.808877e+00
  1.568922e+01    1.789593e+00
  1.570510e+01    1.783915e+00
  1.572097e+01    1.753085e+00
  1.573685e+01    1.735461e+00
  1.575273e+01    1.713888e+00
  1.576860e+01    1.696998e+00
  1.578448e+01    1.716218e+00
  1.580035e+01    1.681228e+00
  1.581623e+01    1.697864e+00
  1.583210e+01    1.730851e+00
  1.584798e+01    1.688135e+00
  1.586385e+01    1.703777e+00
  1.587973e+01    1.700658e+00
  1.589561e+01    1.665344e+00
  1.591148e+01    1.667270e+00
  1.592736e+01    1.667272e+00
  1.594323e+01    1.651461e+00
  1.595911e+01    1.642149e+00
  1.597498e+01    1.670379e+00
  1.599086e+01    1.684533e+00
  1.600673e+01    1.634977e+00
  1.602261e+01    1.633264e+00
  1.603849e+01    1.630744e+00
  1.605436e+01    1.643730e+00
  1.607024e+01    1.608122e+00
  1.608611e+01    1.575446e+00
  1.610199e+01    1.606714e+00
  1.611786e+01    1.620844e+00
  1.613374e+01    1.586160e+00
  1.614961e+01    1.576200e+00
  1.616549e+01    1.581030e+00
  1.618137e+01    1.604848e+00
  1.619724e+01    1.599088e+00
  1.621312e+01    1.583907e+00
  1.622899e+01    1.567494e+00
  1.624487e+01    1.563698e+00
  1.626074e+01    1.575517e+00
  1.627662e+01    1.557152e+00
  1.629250e+01    1.544656e+00
  1.630837e+01    1.534410e+00
  1.632425e+01    1.548074e+00
  1.634012e+01    1.583471e+00
  1.635600e+01    1.573101e+00
  1.637187e+01    1.553970e+00
  1.638775e+01    1.567236e+00
  1.640362e+01    1.550934e+00
  1.641950e+01    1.543659e+00
  1.643538e+01    1.508859e+00
  1.645125e+01    1.507477e+00
  1.646713e+01    1.523983e+00
  1.648300e+01    1.532911e+00
  1.649888e+01    1.498475e+00
  1.651475e+01    1.527791e+00
  1.653063e+01    1.510975e+00
  1.654650e+01    1.530209e+00
  1.656238e+01    1.562072e+00
  1.657826e+01    1.536650e+00
  1.659413e+01    1.519122e+00
  1.661001e+01    1.525094e+00
  1.662588e+01    1.504143e+00
  1.664176e+01    1.504292e+00
  1.665763e+01    1.535859e+00
  1.667351e+01    1.490093e+00
  1.668938e+01    1.503348e+00
  1.670526e+01    1.512266e+00
  1.672114e+01    1.487559e+00
  1.673701e+01    1.446833e+00
  1.675289e+01    1.490165e+00
  1.676876e+01    1.484635e+00
  1.678464e+01    1.498013e+00
  1.680051e+01    1.514963e+00
  1.681639e+01    1.515235e+00
  1.683226e+01    1.455035e+00
  1.684814e+01    1.482375e+00
  1.686402e+01    1.452954e+00
  1.687989e+01    1.447150e+00
  1.689577e+01    1.459647e+00
  1.691164e+01    1.474001e+00
  1.692752e+01    1.451539e+00
  1.694339e+01    1.471465e+00
  1.695927e+01    1.472413e+00
  1.697514e+01    1.458834e+00
  1.699102e+01    1.470384e+00
  1.700690e+01    1.434633e+00
  1.702277e+01    1.420163e+00
  1.703865e+01    1.431785e+00
  1.705452e+01    1.462157e+00
  1.707040e+01    1.441241e+00
  1.708627e+01    1.426553e+00
  1.710215e+01    1.453119e+00
  1.711802e+01    1.455239e+00
  1.713390e+01    1.453859e+00
  1.714978e+01    1.432378e+00
  1.716565e+01    1.432138e+00
  1.718153e+01    1.406569e+00
  1.719740e+01    1.401790e+00
  1.721328e+01    1.408057e+00
  1.722915e+01    1.388098e+00
  1.724503e+01    1.407951e+00
  1.726091e+01    1.419970e+00
  1.727678e+01    1.390313e+00
  1.729266e+01    1.383920e+00
  1.730853e+01    1.397280e+00
  1.732441e+01    1.429477e+00
  1.734028e+01    1.397585e+00
  1.735616e+01    1.382204e+00
  1.737203e+01    1.385557e+00
  1.738791e+01    1.382030e+00
  1.740379e+01    1.397354e+00
  1.741966e+01    1.402629e+00
  1.743554e+01    1.375915e+00
  1.745141e+01    1.385378e+00
  1.746729e+01    1.402193e+00
  1.748316e+01    1.374708e+00
  1.749904e+01    1.374803e+00
  1.751491e+01    1.388941e+00
  1.753079e+01    1.366791e+00
  1.754667e+01    1.398940e+00
  1.756254e+01    1.353425e+00
  1.757842e+01    1.371010e+00
  1.759429e+01    1.376899e+00
  1.761017e+01    1.384112e+00
  1.762604e+01    1.370608e+00
  1.764192e+01    1.356680e+00
  1.765779e+01    1.324225e+00
  1.767367e+01    1.325055e+00
  1.768955e+01    1.350234e+00
  1.770542e+01    1.350893e+00
  1.772130e+01    1.360933e+00
  1.773717e+01    1.365874e+00
  1.775305e+01    1.325937e+00
  1.776892e+01    1.355460e+00
  1.778480e+01    1.393044e+00
  1.780067e+01    1.373009e+00
  1.781655e+01    1.334007e+00
  1.783243e+01    1.348175e+00
  1.784830e+01    1.376950e+00
  1.786418e+01    1.350385e+00
  1.788005e+01    1.347954e+00
  1.789593e+01    1.329347e+00
  1.791180e+01    1.301539e+00
  1.792768e+01    1.320933e+00
  1.794355e+01    1.317529e+00
  1.795943e+01    1.295605e+00
  1.797531e+01    1.284456e+00
  1.799118e+01    1.291238e+00
  1.800706e+01    1.309553e+00
  1.802293e+01    1.332193e+00
  1.803881e+01    1.322809e+00
  1.805468e+01    1.316783e+00
  1.807056e+01    1.311805e+00
  1.808643e+01    1.288569e+00
  1.810231e+01    1.324082e+00
  1.811819e+01    1.329721e+00
  1.813406e+01    1.315938e+00
  1.814994e+01    1.312235e+00
  1.816581e+01    1.289284e+00
  1.818169e+01    1.270678e+00
  1.819756e+01    1.316662e+00
  1.821344e+01    1.295323e+00
  1.822932e+01    1.276905e+00
  1.824519e+01    1.265468e+00
  1.826107e+01    1.258709e+00
  1.827694e+01    1.298783e+00
  1.829282e+01    1.288660e+00
  1.830869e+01    1.273101e+00
  1.832457e+01    1.266156e+00
  1.834044e+01    1.274641e+00
  1.835632e+01    1.280638e+00
  1.837220e+01    1.288784e+00
  1.838807e+01    1.275584e+00
  1.840395e+01    1.272999e+00
  1.841982e+01    1.297191e+00
  1.843570e+01    1.272356e+00
  1.845157e+01    1.254153e+00
  1.846745e+01    1.283828e+00
  1.848332e+01    1.326305e+00
  1.849920e+01    1.276792e+00
  1.851508e+01    1.256235e+00
  1.853095e+01    1.256064e+00
  1.854683e+01    1.244132e+00
  1.856270e+01    1.264803e+00
  1.857858e+01    1.260222e+00
  1.859445e+01    1.267428e+00
  1.861033e+01    1.257129e+00
  1.862620e+01    1.259063e+00
  1.864208e+01    1.247791e+00
  1.865796e+01    1.237561e+00
  1.867383e+01    1.230939e+00
  1.868971e+01    1.238564e+00
  1.870558e+01    1.241840e+00
  1.872146e+01    1.260034e+00
  1.873733e+01    1.240401e+00
  1.875321e+01    1.214582e+00
  1.876908e+01    1.209478e+00
  1.878496e+01    1.227904e+00
  1.880084e+01    1.249329e+00
  1.881671e+01    1.235748e+00
  1.883259e+01    1.228845e+00
  1.884846e+01    1.221026e+00
  1.886434e+01    1.220419e+00
  1.888021e+01    1.208384e+00
  1.889609e+01    1.222436e+00
  1.891196e+01    1.229878e+00
  1.892784e+01    1.231328e+00
  1.894372e+01    1.226259e+00
  1.895959e+01    1.219879e+00
  1.897547e+01    1.207033e+00
  1.899134e+01    1.205974e+00
  1.900722e+01    1.225352e+00
  1.902309e+01    1.226420e+00
  1.903897e+01    1.195993e+00
  1.905484e+01    1.198663e+00
  1.907072e+01    1.216333e+00
  1.908660e+01    1.192309e+00
  1.910247e+01    1.206927e+00
  1.911835e+01    1.210630e+00
  1.913422e+01    1.208710e+00
  1.915010e+01    1.207486e+00
  1.916597e+01    1.224970e+00
  1.918185e+01    1.237277e+00
  1.919773e+01    1.213905e+00
  1.921360e+01    1.219264e+00
  1.922948e+01    1.195844e+00
  1.924535e+01    1.190961e+00
  1.926123e+01    1.200033e+00
  1.927710e+01    1.190391e+00
  1.929298e+01    1.194246e+00
  1.930885e+01    1.184086e+00
  1.932473e+01    1.183299e+00
  1.934061e+01    1.197179e+00
  1.935648e+01    1.155460e+00
  1.937236e+01    1.195444e+00
  1.938823e+01    1.182821e+00
  1.940411e+01    1.162381e+00
  1.941998e+01    1.161062e+00
  1.943586e+01    1.173098e+00
  1.945173e+01    1.207892e+00
  1.946761e+01    1.192545e+00
  1.948349e+01    1.189325e+00
  1.949936e+01    1.201412e+00
  1.951524e+01    1.185638e+00
  1.953111e+01    1.184047e+00
  1.954699e+01    1.175541e+00
  1.956286e+01    1.147544e+00
  1.957874e+01    1.126218e+00
  1.959461e+01    1.153392e+00
  1.961049e+01    1.146405e+00
  1.962637e+01    1.181374e+00
  1.964224e+01    1.175778e+00
  1.965812e+01    1.158978e+00
  1.967399e+01    1.166901e+00
  1.968987e+01    1.155612e+00
  1.970574e+01    1.158911e+00
  1.972162e+01    1.177459e+00
  1.973749e+01    1.158593e+00
  1.975337e+01    1.138621e+00
  1.976925e+01    1.125650e+00
  1.978512e+01    1.132385e+00
  1.980100e+01    1.152103e+00
  1.981687e+01    1.165993e+00
  1.983275e+01    1.161061e+00
  1.984862e+01    1.140182e+00
  1.986450e+01    1.154872e+00
  1.988037e+01    1.149349e+00
  1.989625e+01    1.155038e+00
  1.991213e+01    1.134776e+00
  1.992800e+01    1.122905e+00
  1.994388e+01    1.119944e+00
  1.995975e+01    1.133715e+00
  1.997563e+01    1.134769e+00
  1.999150e+01    1.134370e+00
  2.000738e+01    1.148428e+00
  2.002325e+01    1.143223e+00
  2.003913e+01    1.123778e+00
  2.005501e+01    1.121834e+00
  2.007088e+01    1.125564e+00
  2.008676e+01    1.130888e+00
  2.010263e+01    1.114202e+00
  2.011851e+01    1.135480e+00
  2.013438e+01    1.122495e+00
  2.015026e+01    1.131558e+00
  2.016614e+01    1.135723e+00
  2.018201e+01    1.119943e+00
  2.019789e+01    1.126660e+00
  2.021376e+01    1.105716e+00
  2.022964e+01    1.114438e+00
  2.024551e+01    1.110643e+00
  2.026139e+01    1.113287e+00
  2.027726e+01    1.093236e+00
  2.029314e+01    1.093494e+00
  2.030902e+01    1.118402e+00
  2.032489e+01    1.125673e+00
  2.034077e+01    1.126309e+00
  2.035664e+01    1.137669e+00
  2.037252e+01    1.125464e+00
  2.038839e+01    1.119156e+00
  2.040427e+01    1.109363e+00
  2.042014e+01    1.092414e+00
  2.043602e+01    1.139582e+00
  2.045190e+01    1.121153e+00
  2.046777e+01    1.115034e+00
  2.048365e+01    1.107977e+00
  2.049952e+01    1.087742e+00
  2.051540e+01    1.085003e+00
  2.053127e+01    1.098620e+00
  2.054715e+01    1.096192e+00
  2.056302e+01    1.083704e+00
  2.057890e+01    1.084066e+00
  2.059478e+01    1.086149e+00
  2.061065e+01    1.108543e+00
  2.062653e+01    1.118911e+00
  2.064240e+01    1.113450e+00
  2.065828e+01    1.096479e+00
  2.067415e+01    1.116528e+00
  2.069003e+01    1.107823e+00
  2.070590e+01    1.083818e+00
  2.072178e+01    1.084028e+00
  2.073766e+01    1.099771e+00
  2.075353e+01    1.081453e+00
  2.076941e+01    1.109333e+00
  2.078528e+01    1.098792e+00
  2.080116e+01    1.077437e+00
  2.081703e+01    1.091380e+00
  2.083291e+01    1.108325e+00
  2.084878e+01    1.095156e+00
  2.086466e+01    1.083229e+00
  2.088054e+01    1.093678e+00
  2.089641e+01    1.093728e+00
  2.091229e+01    1.115042e+00
  2.092816e+01    1.113977e+00
  2.094404e+01    1.086272e+00
  2.095991e+01    1.091698e+00
  2.097579e+01    1.072688e+00
  2.099166e+01    1.076640e+00
  2.100754e+01    1.102923e+00
  2.102342e+01    1.099619e+00
  2.103929e+01    1.110490e+00
  2.105517e+01    1.105182e+00
  2.107104e+01    1.084602e+00
  2.108692e+01    1.091472e+00
  2.110279e+01    1.085067e+00
  2.111867e+01    1.105664e+00
  2.113455e+01    1.110746e+00
  2.115042e+01    1.088140e+00
  2.116630e+01    1.089683e+00
  2.118217e+01    1.117242e+00
  2.119805e+01    1.093447e+00
  2.121392e+01    1.100711e+00
  2.122980e+01    1.134035e+00
  2.124567e+01    1.128183e+00
  2.126155e+01    1.122511e+00
  2.127743e+01    1.123778e+00
  2.129330e+01    1.137854e+00
  2.130918e+01    1.125177e+00
  2.132505e+01    1.133992e+00
  2.134093e+01    1.166108e+00
  2.135680e+01    1.207077e+00
  2.137268e+01    1.186013e+00
  2.138855e+01    1.182049e+00
  2.140443e+01    1.185890e+00
  2.142031e+01    1.190558e+00
  2.143618e+01    1.185476e+00
  2.145206e+01    1.203659e+00
  2.146793e+01    1.227234e+00
  2.148381e+01    1.272635e+00
  2.149968e+01    1.289569e+00
  2.151556e+01    1.313431e+00
  2.153143e+01    1.359216e+00
  2.154731e+01    1.375771e+00
  2.156319e+01    1.406662e+00
  2.157906e+01    1.453807e+00
  2.159494e+01    1.500515e+00
  2.161081e+01    1.549790e+00
  2.162669e+01    1.648852e+00
  2.164256e+01    1.757707e+00
  2.165844e+01    1.835501e+00
  2.167431e+01    1.962107e+00
  2.169019e+01    2.112345e+00
  2.170607e+01    2.317445e+00
  2.172194e+01    2.600423e+00
  2.173782e+01    2.848888e+00
  2.175369e+01    3.261544e+00
  2.176957e+01    3.724788e+00
  2.178544e+01    4.332399e+00
  2.180132e+01    4.968094e+00
  2.181719e+01    5.701495e+00
  2.183307e+01    6.425806e+00
  2.184895e+01    7.290659e+00
  2.186482e+01    8.126668e+00
  2.188070e+01    8.986508e+00
  2.189657e+01    9.875463e+00
  2.191245e+01    1.054772e+01
  2.192832e+01    1.084281e+01
  2.194420e+01    1.077772e+01
  2.196007e+01    1.013306e+01
  2.197595e+01    9.183757e+00
  2.199183e+01    8.054390e+00
  2.200770e+01    6.819511e+00
  2.202358e+01    5.749921e+00
  2.203945e+01    4.956414e+00
  2.205533e+01    4.203308e+00
  2.207120e+01    3.608384e+00
  2.208708e+01    3.189013e+00
  2.210296e+01    2.823488e+00
  2.211883e+01    2.468516e+00
  2.213471e+01    2.228289e+00
  2.215058e+01    2.063622e+00
  2.216646e+01    1.938622e+00
  2.218233e+01    1.799415e+00
  2.219821e+01    1.696361e+00
  2.221408e+01    1.615942e+00
  2.222996e+01    1.526426e+00
  2.224584e+01    1.474646e+00
  2.226171e+01    1.406010e+00
  2.227759e+01    1.368720e+00
  2.229346e+01    1.320573e+00
  2.230934e+01    1.268317e+00
  2.232521e+01    1.270779e+00
  2.234109e+01    1.238842e+00
  2.235696e+01    1.228423e+00
  2.237284e+01    1.202187e+00
  2.238872e+01    1.151090e+00
  2.240459e+01    1.158963e+00
  2.242047e+01    1.150852e+00
  2.243634e+01    1.131159e+00
  2.245222e+01    1.081437e+00
  2.246809e+01    1.089512e+00
  2.248397e+01    1.074862e+00
  2.249984e+01    1.066497e+00
  2.251572e+01    1.038246e+00
  2.253160e+01    1.062555e+00
  2.254747e+01    1.053107e+00
  2.256335e+01    1.037712e+00
  2.257922e+01    1.021580e+00
  2.259510e+01    1.012242e+00
  2.261097e+01    1.022050e+00
  2.262685e+01    1.023225e+00
  2.264272e+01    9.841991e-01
  2.265860e+01    9.816626e-01
  2.267448e+01    9.683199e-01
  2.269035e+01    9.882752e-01
  2.270623e+01    9.739893e-01
  2.272210e+01    9.511642e-01
  2.273798e+01    9.774301e-01
  2.275385e+01    9.818034e-01
  2.276973e+01    9.711600e-01
  2.278560e+01    9.492424e-01
  2.280148e+01    9.516869e-01
  2.281736e+01    9.545454e-01
  2.283323e+01    9.567825e-01
  2.284911e+01    9.482921e-01
  2.286498e+01    9.478066e-01
  2.288086e+01    9.328150e-01
  2.289673e+01    9.480826e-01
  2.291261e+01    9.333372e-01
  2.292848e+01    9.221363e-01
  2.294436e+01    9.345300e-01
  2.296024e+01    9.020089e-01
  2.297611e+01    9.156169e-01
  2.299199e+01    9.053563e-01
  2.300786e+01    9.105547e-01
  2.302374e+01    8.935290e-01
  2.303961e+01    9.155455e-01
  2.305549e+01    9.200725e-01
  2.307137e+01    9.049835e-01
  2.308724e+01    9.077852e-01
  2.310312e+01    8.976697e-01
  2.311899e+01    8.922755e-01
  2.313487e+01    8.853331e-01
  2.315074e+01    8.920732e-01
  2.316662e+01    9.057400e-01
  2.318249e+01    8.985720e-01
  2.319837e+01    8.956429e-01
  2.321425e+01    8.775892e-01
  2.323012e+01    8.668072e-01
  2.324600e+01    8.855415e-01
  2.326187e+01    8.920279e-01
  2.327775e+01    8.913659e-01
  2.329362e+01    8.740616e-01
  2.330950e+01    8.777881e-01
  2.332537e+01    8.957319e-01
  2.334125e+01    8.749064e-01
  2.335713e+01    8.795091e-01
  2.337300e+01    8.837880e-01
  2.338888e+01    8.938104e-01
  2.340475e+01    9.004295e-01
  2.342063e+01    8.693443e-01
  2.343650e+01    8.765718e-01
  2.345238e+01    8.528619e-01
  2.346825e+01    8.526255e-01
  2.348413e+01    8.861074e-01
  2.350001e+01    8.750688e-01
  2.351588e+01    8.454043e-01
  2.353176e+01    8.526972e-01
  2.354763e+01    8.551003e-01
  2.356351e+01    8.502309e-01
  2.357938e+01    8.549517e-01
  2.359526e+01    8.519869e-01
  2.361113e+01    8.536828e-01
  2.362701e+01    8.526057e-01
  2.364289e+01    8.450325e-01
  2.365876e+01    8.493446e-01
  2.367464e+01    8.463502e-01
  2.369051e+01    8.680475e-01
  2.370639e+01    8.723161e-01
  2.372226e+01    8.465497e-01
  2.373814e+01    8.278867e-01
  2.375401e+01    8.352767e-01
  2.376989e+01    8.428421e-01
  2.378577e+01    8.341454e-01
  2.380164e+01    8.268612e-01
  2.381752e+01    8.157208e-01
  2.383339e+01    8.063080e-01
  2.384927e+01    8.150022e-01
  2.386514e+01    8.232753e-01
  2.388102e+01    8.281506e-01
  2.389689e+01    8.138706e-01
  2.391277e+01    7.996348e-01
  2.392865e+01    8.051066e-01
  2.394452e+01    7.946501e-01
  2.396040e+01    7.904549e-01
  2.397627e+01    8.047740e-01
  2.399215e+01    8.183358e-01
  2.400802e+01    8.293898e-01
  2.402390e+01    8.216716e-01
  2.403978e+01    8.068339e-01
  2.405565e+01    8.040108e-01
  2.407153e+01    8.003073e-01
  2.408740e+01    7.838196e-01
  2.410328e+01    7.891145e-01
  2.411915e+01    8.058727e-01
  2.413503e+01    7.957558e-01
  2.415090e+01    7.915520e-01
  2.416678e+01    8.011525e-01
  2.418266e+01    8.000112e-01
  2.419853e+01    7.815489e-01
  2.421441e+01    7.769822e-01
  2.423028e+01    7.991077e-01
  2.424616e+01    7.960765e-01
  2.426203e+01    7.947174e-01
  2.427791e+01    8.036025e-01
  2.429378e+01    8.028823e-01
  2.430966e+01    7.987108e-01
  2.432554e+01    7.667904e-01
  2.434141e+01    7.752572e-01
  2.435729e+01    7.943938e-01
  2.437316e+01    8.089416e-01
  2.438904e+01    8.118203e-01
  2.440491e+01    8.046967e-01
  2.442079e+01    8.077459e-01
  2.443666e+01    8.147572e-01
  2.445254e+01    8.051506e-01
  2.446842e+01    7.987975e-01
  2.448429e+01    7.941794e-01
  2.450017e+01    8.012175e-01
  2.451604e+01    8.171867e-01
  2.453192e+01    8.203405e-01
  2.454779e+01    7.968265e-01
  2.456367e+01    8.161365e-01
  2.457954e+01    8.228717e-01
  2.459542e+01    7.994242e-01
  2.461130e+01    8.012187e-01
  2.462717e+01    8.018031e-01
  2.464305e+01    7.880673e-01
  2.465892e+01    8.174040e-01
  2.467480e+01    8.212657e-01
  2.469067e+01    8.149908e-01
  2.470655e+01    7.988801e-01
  2.472242e+01    8.171809e-01
  2.473830e+01    7.815482e-01
  2.475418e+01    7.889444e-01
  2.477005e+01    8.070173e-01
  2.478593e+01    8.175462e-01
  2.480180e+01    8.210924e-01
  2.481768e+01    8.041986e-01
  2.483355e+01    8.033410e-01
  2.484943e+01    7.911630e-01
  2.486530e+01    7.882445e-01
  2.488118e+01    7.996979e-01
  2.489706e+01    7.947946e-01
  2.491293e+01    8.022200e-01
  2.492881e+01    8.038475e-01
  2.494468e+01    8.172475e-01
  2.496056e+01    7.921441e-01
  2.497643e+01    8.038932e-01
  2.499231e+01    8.124189e-01
  2.500819e+01    8.120267e-01
  2.502406e+01    8.278992e-01
  2.503994e+01    8.235105e-01
  2.505581e+01    8.072797e-01
  2.507169e+01    7.995442e-01
  2.508756e+01    8.149971e-01
  2.510344e+01    8.133540e-01
  2.511931e+01    8.200146e-01
  2.513519e+01    8.223308e-01
  2.515107e+01    8.236922e-01
  2.516694e+01    8.368525e-01
  2.518282e+01    8.136431e-01
  2.519869e+01    8.268307e-01
  2.521457e+01    8.220171e-01
  2.523044e+01    8.476021e-01
  2.524632e+01    8.625737e-01
  2.526219e+01    8.689953e-01
  2.527807e+01    8.760079e-01
  2.529395e+01    8.943716e-01
  2.530982e+01    8.737680e-01
  2.532570e+01    8.747180e-01
  2.534157e+01    8.908738e-01
  2.535745e+01    9.088728e-01
  2.537332e+01    9.242894e-01
  2.538920e+01    8.989499e-01
  2.540507e+01    9.254341e-01
  2.542095e+01    9.208353e-01
  2.543683e+01    9.295490e-01
  2.545270e+01    9.347008e-01
  2.546858e+01    9.570213e-01
  2.548445e+01    9.762717e-01
  2.550033e+01    9.692699e-01
  2.551620e+01    9.848107e-01
  2.553208e+01    9.983242e-01
  2.554795e+01    9.958298e-01
  2.556383e+01    1.033331e+00
  2.557971e+01    1.086528e+00
  2.559558e+01    1.082682e+00
  2.561146e+01    1.119395e+00
  2.562733e+01    1.157946e+00
  2.564321e+01    1.180881e+00
  2.565908e+01    1.226003e+00
  2.567496e+01    1.279478e+00
  2.569083e+01    1.347297e+00
  2.570671e+01    1.421249e+00
  2.572259e+01    1.502050e+00
  2.573846e+01    1.602045e+00
  2.575434e+01    1.728209e+00
  2.577021e+01    1.863096e+00
  2.578609e+01    2.022735e+00
  2.580196e+01    2.226777e+00
  2.581784e+01    2.549195e+00
  2.583371e+01    2.869710e+00
  2.584959e+01    3.261887e+00
  2.586547e+01    3.764852e+00
  2.588134e+01    4.289303e+00
  2.589722e+01    4.939747e+00
  2.591309e+01    5.714915e+00
  2.592897e+01    6.442430e+00
  2.594484e+01    7.216562e+00
  2.596072e+01    7.973407e+00
  2.597660e+01    8.593602e+00
  2.599247e+01    8.978778e+00
  2.600835e+01    9.086263e+00
  2.602422e+01    8.673277e+00
  2.604010e+01    8.082355e+00
  2.605597e+01    7.194444e+00
  2.607185e+01    6.319826e+00
  2.608772e+01    5.376387e+00
  2.610360e+01    4.586696e+00
  2.611948e+01    3.939021e+00
  2.613535e+01    3.406864e+00
  2.615123e+01    2.948045e+00
  2.616710e+01    2.652826e+00
  2.618298e+01    2.354919e+00
  2.619885e+01    2.113649e+00
  2.621473e+01    1.923007e+00
  2.623060e+01    1.786563e+00
  2.624648e+01    1.625560e+00
  2.626236e+01    1.525035e+00
  2.627823e+01    1.463964e+00
  2.629411e+01    1.375160e+00
  2.630998e+01    1.298328e+00
  2.632586e+01    1.219442e+00
  2.634173e+01    1.187032e+00
  2.635761e+01    1.183048e+00
  2.637348e+01    1.136071e+00
  2.638936e+01    1.090258e+00
  2.640524e+01    1.079842e+00
  2.642111e+01    1.056620e+00
  2.643699e+01    1.048911e+00
  2.645286e+01    1.052838e+00
  2.646874e+01    1.045478e+00
  2.648461e+01    1.001915e+00
  2.650049e+01    1.005542e+00
  2.651636e+01    1.001692e+00
  2.653224e+01    9.795829e-01
  2.654812e+01    9.732371e-01
  2.656399e+01    9.612902e-01
  2.657987e+01    9.708656e-01
  2.659574e+01    9.655796e-01
  2.661162e+01    9.450297e-01
  2.662749e+01    9.498601e-01
  2.664337e+01    9.495788e-01
  2.665924e+01    9.349501e-01
  2.667512e+01    9.050987e-01
  2.669100e+01    8.995382e-01
  2.670687e+01    9.294851e-01
  2.672275e+01    9.326718e-01
  2.673862e+01    9.110693e-01
  2.675450e+01    9.209856e-01
  2.677037e+01    9.243930e-01
  2.678625e+01    9.157432e-01
  2.680212e+01    9.181613e-01
  2.681800e+01    9.241675e-01
  2.683388e+01    9.163704e-01
  2.684975e+01    9.525466e-01
  2.686563e+01    9.242291e-01
  2.688150e+01    9.343504e-01
  2.689738e+01    9.917867e-01
  2.691325e+01    9.601055e-01
  2.692913e+01    9.594299e-01
  2.694501e+01    9.644387e-01
  2.696088e+01    9.601439e-01
  2.697676e+01    9.857680e-01
  2.699263e+01    1.003960e+00
  2.700851e+01    1.006193e+00
  2.702438e+01    1.050975e+00
  2.704026e+01    1.064365e+00
  2.705613e+01    1.109916e+00
  2.707201e+01    1.129891e+00
  2.708789e+01    1.206759e+00
  2.710376e+01    1.311042e+00
  2.711964e+01    1.374525e+00
  2.713551e+01    1.489455e+00
  2.715139e+01    1.592865e+00
  2.716726e+01    1.730737e+00
  2.718314e+01    1.927725e+00
  2.719901e+01    2.063662e+00
  2.721489e+01    2.264958e+00
  2.723077e+01    2.467186e+00
  2.724664e+01    2.574841e+00
  2.726252e+01    2.596335e+00
  2.727839e+01    2.567275e+00
  2.729427e+01    2.453995e+00
  2.731014e+01    2.286101e+00
  2.732602e+01    2.115160e+00
  2.734189e+01    1.927081e+00
  2.735777e+01    1.747718e+00
  2.737365e+01    1.591120e+00
  2.738952e+01    1.458881e+00
  2.740540e+01    1.341541e+00
  2.742127e+01    1.267518e+00
  2.743715e+01    1.180157e+00
  2.745302e+01    1.118685e+00
  2.746890e+01    1.084702e+00
  2.748477e+01    1.051337e+00
  2.750065e+01    1.041842e+00
  2.751653e+01    1.010077e+00
  2.753240e+01    9.576551e-01
  2.754828e+01    9.466629e-01
  2.756415e+01    9.326780e-01
  2.758003e+01    9.223657e-01
  2.759590e+01    9.093498e-01
  2.761178e+01    9.013883e-01
  2.762765e+01    8.956707e-01
  2.764353e+01    8.751355e-01
  2.765941e+01    8.628212e-01
  2.767528e+01    8.735864e-01
  2.769116e+01    8.825912e-01
  2.770703e+01    8.693508e-01
  2.772291e+01    8.354789e-01
  2.773878e+01    8.364480e-01
  2.775466e+01    8.410405e-01
  2.777054e+01    8.395364e-01
  2.778641e+01    8.268355e-01
  2.780229e+01    8.428580e-01
  2.781816e+01    8.562320e-01
  2.783404e+01    8.446841e-01
  2.784991e+01    8.326587e-01
  2.786579e+01    8.148021e-01
  2.788166e+01    8.291629e-01
  2.789754e+01    8.393790e-01
  2.791342e+01    8.125162e-01
  2.792929e+01    8.137730e-01
  2.794517e+01    8.081116e-01
  2.796104e+01    8.188905e-01
  2.797692e+01    8.130917e-01
  2.799279e+01    8.295432e-01
  2.800867e+01    8.036410e-01
  2.802454e+01    8.059648e-01
  2.804042e+01    8.058307e-01
  2.805630e+01    8.118503e-01
  2.807217e+01    8.122704e-01
  2.808805e+01    7.846645e-01
  2.810392e+01    7.889780e-01
  2.811980e+01    7.949665e-01
  2.813567e+01    7.861589e-01
  2.815155e+01    7.901170e-01
  2.816742e+01    7.924718e-01
  2.818330e+01    8.070033e-01
  2.819918e+01    8.188163e-01
  2.821505e+01    8.212073e-01
  2.823093e+01    7.904308e-01
  2.824680e+01    7.945059e-01
  2.826268e+01    7.908343e-01
  2.827855e+01    7.782539e-01
  2.829443e+01    7.797834e-01
  2.831030e+01    7.888175e-01
  2.832618e+01    7.930495e-01
  2.834206e+01    7.971324e-01
  2.835793e+01    7.887518e-01
  2.837381e+01    7.813534e-01
  2.838968e+01    7.822806e-01
  2.840556e+01    7.961928e-01
  2.842143e+01    7.995684e-01
  2.843731e+01    7.898741e-01
  2.845318e+01    7.855592e-01
  2.846906e+01    7.709113e-01
  2.848494e+01    7.789096e-01
  2.850081e+01    7.839466e-01
  2.851669e+01    7.813209e-01
  2.853256e+01    7.611423e-01
  2.854844e+01    7.796264e-01
  2.856431e+01    7.803372e-01
  2.858019e+01    7.867067e-01
  2.859606e+01    7.732111e-01
  2.861194e+01    7.455621e-01
  2.862782e+01    7.642655e-01
  2.864369e+01    7.752569e-01
  2.865957e+01    7.692986e-01
  2.867544e+01    7.586063e-01
  2.869132e+01    7.617812e-01
  2.870719e+01    7.630339e-01
  2.872307e+01    7.717088e-01
  2.873895e+01    7.615346e-01
  2.875482e+01    7.835893e-01
  2.877070e+01    7.601097e-01
  2.878657e+01    7.628632e-01
  2.880245e+01    7.527251e-01
  2.881832e+01    7.792491e-01
  2.883420e+01    7.799003e-01
  2.885007e+01    7.540230e-01
  2.886595e+01    7.501938e-01
  2.888183e+01    7.642029e-01
  2.889770e+01    7.747670e-01
  2.891358e+01    7.642184e-01
  2.892945e+01    7.652417e-01
  2.894533e+01    7.711176e-01
  2.896120e+01    7.656920e-01
  2.897708e+01    7.516909e-01
  2.899295e+01    7.574090e-01
  2.900883e+01    7.779360e-01
  2.902471e+01    7.394285e-01
  2.904058e+01    7.237890e-01
  2.905646e+01    7.402611e-01
  2.907233e+01    7.435737e-01
  2.908821e+01    7.302212e-01
  2.910408e+01    7.539058e-01
  2.911996e+01    7.599570e-01
  2.913583e+01    7.427112e-01
  2.915171e+01    7.520202e-01
  2.916759e+01    7.434922e-01
  2.918346e+01    7.310193e-01
  2.919934e+01    7.575097e-01
  2.921521e+01    7.500252e-01
  2.923109e+01    7.589557e-01
  2.924696e+01    7.708994e-01
  2.926284e+01    7.527257e-01
  2.927871e+01    7.401349e-01
  2.929459e+01    7.321706e-01
  2.931047e+01    7.228683e-01
  2.932634e+01    7.277548e-01
  2.934222e+01    7.253761e-01
  2.935809e+01    7.331958e-01
  2.937397e+01    7.326356e-01
  2.938984e+01    7.574437e-01
  2.940572e+01    7.516430e-01
  2.942159e+01    7.350863e-01
  2.943747e+01    7.324576e-01
  2.945335e+01    7.330709e-01
  2.946922e+01    7.319926e-01
  2.948510e+01    7.205338e-01
  2.950097e+01    7.170657e-01
  2.951685e+01    7.285019e-01
  2.953272e+01    7.443814e-01
  2.954860e+01    7.481827e-01
  2.956447e+01    7.357386e-01
  2.958035e+01    7.419626e-01
  2.959623e+01    7.342545e-01
  2.961210e+01    7.270780e-01
  2.962798e+01    7.273066e-01
  2.964385e+01    7.207469e-01
  2.965973e+01    7.422164e-01
  2.967560e+01    7.702357e-01
  2.969148e+01    7.522176e-01
  2.970736e+01    7.326146e-01
  2.972323e+01    7.323599e-01
  2.973911e+01    7.369810e-01
  2.975498e+01    7.326080e-01
  2.977086e+01    7.376916e-01
  2.978673e+01    7.381964e-01
  2.980261e+01    7.493413e-01
  2.981848e+01    7.335101e-01
  2.983436e+01    7.351468e-01
  2.985024e+01    7.397350e-01
  2.986611e+01    7.307201e-01
  2.988199e+01    7.159761e-01
  2.989786e+01    7.194177e-01
  2.991374e+01    7.242872e-01
  2.992961e+01    7.353160e-01
  2.994549e+01    7.197292e-01
  2.996136e+01    7.397271e-01
  2.997724e+01    7.174053e-01
  2.999312e+01    7.289478e-01
  3.000899e+01    7.388964e-01
  3.002487e+01    7.366084e-01
  3.004074e+01    7.487483e-01
  3.005662e+01    7.561396e-01
  3.007249e+01    7.464476e-01
  3.008837e+01    7.360962e-01
  3.010424e+01    7.291703e-01
  3.012012e+01    7.185449e-01
  3.013600e+01    7.229747e-01
  3.015187e+01    7.189800e-01
  3.016775e+01    7.178538e-01
  3.018362e+01    7.012705e-01
  3.019950e+01    7.367492e-01
  3.021537e+01    7.296212e-01
  3.023125e+01    7.310259e-01
  3.024712e+01    7.218061e-01
  3.026300e+01    7.168284e-01
  3.027888e+01    7.044852e-01
  3.029475e+01    7.270563e-01
  3.031063e+01    7.314998e-01
  3.032650e+01    7.295646e-01
  3.034238e+01    7.123257e-01
  3.035825e+01    7.261967e-01
  3.037413e+01    7.251195e-01
  3.039000e+01    7.401304e-01
  3.040588e+01    7.148871e-01
  3.042176e+01    7.341892e-01
  3.043763e+01    7.306698e-01
  3.045351e+01    7.123732e-01
  3.046938e+01    7.212370e-01
  3.048526e+01    7.150823e-01
  3.050113e+01    7.274677e-01
  3.051701e+01    7.351620e-01
  3.053288e+01    7.222599e-01
  3.054876e+01    7.124166e-01
  3.056464e+01    7.186480e-01
  3.058051e+01    7.271768e-01
  3.059639e+01    7.206471e-01
  3.061226e+01    7.277609e-01
  3.062814e+01    7.194210e-01
  3.064401e+01    7.252252e-01
  3.065989e+01    7.393281e-01
  3.067577e+01    7.345607e-01
  3.069164e+01    7.179322e-01
  3.070752e+01    7.388053e-01
  3.072339e+01    7.493887e-01
  3.073927e+01    7.088012e-01
  3.075514e+01    7.127659e-01
  3.077102e+01    7.248169e-01
  3.078689e+01    7.134767e-01
  3.080277e+01    7.373816e-01
  3.081865e+01    7.306491e-01
  3.083452e+01    7.200439e-01
  3.085040e+01    6.976915e-01
  3.086627e+01    7.064808e-01
  3.088215e+01    7.307205e-01
  3.089802e+01    7.310652e-01
  3.091390e+01    7.177830e-01
  3.092977e+01    7.153636e-01
  3.094565e+01    7.358541e-01
  3.096153e+01    7.215903e-01
  3.097740e+01    7.250895e-01
  3.099328e+01    7.250119e-01
  3.100915e+01    7.246805e-01
  3.102503e+01    7.082701e-01
  3.104090e+01    7.168255e-01
  3.105678e+01    7.287623e-01
  3.107265e+01    7.318230e-01
  3.108853e+01    7.485190e-01
  3.110441e+01    7.276782e-01
  3.112028e+01    7.404135e-01
  3.113616e+01    7.452543e-01
  3.115203e+01    7.465926e-01
  3.116791e+01    7.356158e-01
  3.118378e+01    7.376282e-01
  3.119966e+01    7.477852e-01
  3.121553e+01    7.239263e-01
  3.123141e+01    7.526295e-01
  3.124729e+01    7.494587e-01
  3.126316e+01    7.329574e-01
  3.127904e+01    7.333874e-01
  3.129491e+01    7.535577e-01
  3.131079e+01    7.526470e-01
  3.132666e+01    7.568336e-01
  3.134254e+01    7.728223e-01
  3.135841e+01    7.477389e-01
  3.137429e+01    7.608929e-01
  3.139017e+01    7.767238e-01
  3.140604e+01    7.673028e-01
  3.142192e+01    7.714740e-01
  3.143779e+01    7.840970e-01
  3.145367e+01    7.809791e-01
  3.146954e+01    7.671039e-01
  3.148542e+01    7.672501e-01
  3.150129e+01    7.820559e-01
  3.151717e+01    7.836289e-01
  3.153305e+01    7.989723e-01
  3.154892e+01    7.896376e-01
  3.156480e+01    7.718328e-01
  3.158067e+01    7.894121e-01
  3.159655e+01    8.161161e-01
  3.161242e+01    8.220682e-01
  3.162830e+01    8.511593e-01
  3.164418e+01    8.496183e-01
  3.166005e+01    8.346766e-01
  3.167593e+01    8.729965e-01
  3.169180e+01    8.965564e-01
  3.170768e+01    9.154955e-01
  3.172355e+01    9.532176e-01
  3.173943e+01    1.002067e+00
  3.175530e+01    1.031547e+00
  3.177118e+01    1.085159e+00
  3.178706e+01    1.157755e+00
  3.180293e+01    1.217172e+00
  3.181881e+01    1.312155e+00
  3.183468e+01    1.406846e+00
  3.185056e+01    1.563293e+00
  3.186643e+01    1.736682e+00
  3.188231e+01    1.878754e+00
  3.189818e+01    2.071306e+00
  3.191406e+01    2.242043e+00
  3.192994e+01    2.419060e+00
  3.194581e+01    2.540518e+00
  3.196169e+01    2.595699e+00
  3.197756e+01    2.540920e+00
  3.199344e+01    2.436442e+00
  3.200931e+01    2.265701e+00
  3.202519e+01    2.075376e+00
  3.204106e+01    1.827039e+00
  3.205694e+01    1.663090e+00
  3.207282e+01    1.507460e+00
  3.208869e+01    1.372876e+00
  3.210457e+01    1.249219e+00
  3.212044e+01    1.157012e+00
  3.213632e+01    1.086519e+00
  3.215219e+01    1.026678e+00
  3.216807e+01    9.947590e-01
  3.218394e+01    9.587431e-01
  3.219982e+01    9.422845e-01
  3.221570e+01    9.351486e-01
  3.223157e+01    8.877919e-01
  3.224745e+01    8.517206e-01
  3.226332e+01    8.389185e-01
  3.227920e+01    8.175714e-01
  3.229507e+01    8.146250e-01
  3.231095e+01    8.177690e-01
  3.232682e+01    7.933738e-01
  3.234270e+01    7.803486e-01
  3.235858e+01    7.786971e-01
  3.237445e+01    7.804538e-01
  3.239033e+01    7.896064e-01
  3.240620e+01    7.822753e-01
  3.242208e+01    7.581429e-01
  3.243795e+01    7.593964e-01
  3.245383e+01    7.504231e-01
  3.246970e+01    7.696271e-01
  3.248558e+01    7.436391e-01
  3.250146e+01    7.432055e-01
  3.251733e+01    7.680405e-01
  3.253321e+01    7.337400e-01
  3.254908e+01    7.463437e-01
