# == pyFAI calibration ==
# Distance Sample to Detector: 0.3999999939076516 m
# PONI: 9.750e-02, 1.135e-01 m
# Rotations: -0.000175 0.000000 -0.000000 rad
# 
# == Fit2d calibration ==
# Distance Sample-beamCenter: 400.000 mm
# Center: x=1514.000, y=1300.000 pix
# Tilt: 0.010 deg  TiltPlanRot: 0.010 deg
# 
# Detector Detector	 Spline= None	 PixelSize= 7.500e-05, 7.500e-05 m
#    Detector has a mask: False 
#    Detector has a dark current: False 
#    detector has a flat field: False 
# 
# Wavelength: 6.888e-11 m
# Mask applied: user provided
# Dark current applied: False
# Flat field applied: False
# Polarization factor: 0.99
# Normalization factor: 1.0
# --> /home/myspot/data/2024_07_Rosario/Ru-CGO-ex/2024-07-27_002_Ru-CGO-ex_Activtation_ramp_000002_data_000146.dat
#       q_nm^-1             I 
  2.003187e-02    0.000000e+00
  3.590745e-02    0.000000e+00
  5.178302e-02    2.671064e-02
  6.765859e-02    1.028258e-01
  8.353417e-02    7.259813e-02
  9.940974e-02    3.549307e-02
  1.152853e-01    5.930258e-02
  1.311609e-01    1.066808e-01
  1.470365e-01    3.956344e-02
  1.629120e-01    4.755850e-02
  1.787876e-01    8.666954e-02
  1.946632e-01    2.271368e-02
  2.105388e-01    6.530764e-03
  2.264143e-01    1.822066e-02
  2.422899e-01    2.053316e-02
  2.581655e-01    8.036809e-02
  2.740411e-01    8.919606e-02
  2.899166e-01    7.607878e-02
  3.057922e-01    5.545685e-02
  3.216678e-01    2.054347e-02
  3.375433e-01    2.699662e-02
  3.534189e-01    3.555739e-02
  3.692945e-01    3.390704e-02
  3.851701e-01    5.448487e-02
  4.010456e-01    3.304136e-02
  4.169212e-01    3.704616e-02
  4.327968e-01    2.411041e-02
  4.486724e-01    8.673310e-03
  4.645479e-01    3.551297e-02
  4.804235e-01    6.693761e-02
  4.962991e-01    7.995681e-02
  5.121747e-01    5.855814e-02
  5.280502e-01    4.028298e-02
  5.439258e-01    5.085927e-02
  5.598014e-01    5.944214e-02
  5.756770e-01    5.097367e-02
  5.915525e-01    5.221647e-02
  6.074281e-01    4.211854e-02
  6.233037e-01    4.654562e-02
  6.391793e-01    5.325449e-02
  6.550548e-01    5.055873e-02
  6.709304e-01    4.347489e-02
  6.868060e-01    5.166695e-02
  7.026815e-01    5.698195e-02
  7.185571e-01    4.649205e-02
  7.344327e-01    4.322348e-02
  7.503083e-01    3.329341e-02
  7.661838e-01    7.474969e-02
  7.820594e-01    1.005517e-01
  7.979350e-01    1.489572e-01
  8.138106e-01    2.121991e-01
  8.296861e-01    2.377700e-01
  8.455617e-01    2.934409e-01
  8.614373e-01    3.332747e-01
  8.773129e-01    3.671031e-01
  8.931884e-01    5.091742e-01
  9.090640e-01    6.104754e-01
  9.249396e-01    6.345855e-01
  9.408152e-01    7.368550e-01
  9.566907e-01    8.402529e-01
  9.725663e-01    9.529858e-01
  9.884419e-01    9.348082e-01
  1.004317e+00    9.691281e-01
  1.020193e+00    1.086412e+00
  1.036069e+00    1.092164e+00
  1.051944e+00    1.179919e+00
  1.067820e+00    1.280202e+00
  1.083695e+00    1.404559e+00
  1.099571e+00    1.477039e+00
  1.115446e+00    1.446968e+00
  1.131322e+00    1.395185e+00
  1.147198e+00    1.437702e+00
  1.163073e+00    1.408515e+00
  1.178949e+00    1.606976e+00
  1.194824e+00    1.629903e+00
  1.210700e+00    1.703270e+00
  1.226575e+00    1.812407e+00
  1.242451e+00    1.948715e+00
  1.258327e+00    2.266576e+00
  1.274202e+00    2.379625e+00
  1.290078e+00    2.430818e+00
  1.305953e+00    2.533350e+00
  1.321829e+00    2.540378e+00
  1.337705e+00    2.523814e+00
  1.353580e+00    2.594486e+00
  1.369456e+00    2.618802e+00
  1.385331e+00    2.646176e+00
  1.401207e+00    2.647338e+00
  1.417082e+00    2.689379e+00
  1.432958e+00    2.575810e+00
  1.448834e+00    2.671624e+00
  1.464709e+00    2.728696e+00
  1.480585e+00    2.889678e+00
  1.496460e+00    2.656602e+00
  1.512336e+00    2.643065e+00
  1.528211e+00    2.710834e+00
  1.544087e+00    2.756736e+00
  1.559963e+00    2.808056e+00
  1.575838e+00    2.874365e+00
  1.591714e+00    2.940891e+00
  1.607589e+00    2.884688e+00
  1.623465e+00    2.871965e+00
  1.639340e+00    2.949617e+00
  1.655216e+00    2.800416e+00
  1.671092e+00    2.883796e+00
  1.686967e+00    2.809468e+00
  1.702843e+00    2.786756e+00
  1.718718e+00    2.735497e+00
  1.734594e+00    2.685635e+00
  1.750469e+00    2.684055e+00
  1.766345e+00    2.673425e+00
  1.782221e+00    2.678053e+00
  1.798096e+00    2.721161e+00
  1.813972e+00    2.836141e+00
  1.829847e+00    2.692864e+00
  1.845723e+00    2.718431e+00
  1.861598e+00    2.703256e+00
  1.877474e+00    2.783215e+00
  1.893350e+00    2.738097e+00
  1.909225e+00    2.749470e+00
  1.925101e+00    2.734860e+00
  1.940976e+00    2.551971e+00
  1.956852e+00    2.610817e+00
  1.972727e+00    2.635649e+00
  1.988603e+00    2.697408e+00
  2.004479e+00    2.849413e+00
  2.020354e+00    2.604304e+00
  2.036230e+00    2.627116e+00
  2.052105e+00    2.766330e+00
  2.067981e+00    2.686597e+00
  2.083856e+00    2.553737e+00
  2.099732e+00    2.670112e+00
  2.115608e+00    2.678051e+00
  2.131483e+00    2.780787e+00
  2.147359e+00    2.777827e+00
  2.163234e+00    2.710742e+00
  2.179110e+00    2.665300e+00
  2.194985e+00    2.786292e+00
  2.210861e+00    2.769387e+00
  2.226737e+00    2.690202e+00
  2.242612e+00    2.763949e+00
  2.258488e+00    2.776849e+00
  2.274363e+00    2.730918e+00
  2.290239e+00    2.655051e+00
  2.306115e+00    2.802382e+00
  2.321990e+00    2.846816e+00
  2.337866e+00    2.790933e+00
  2.353741e+00    2.605288e+00
  2.369617e+00    2.691584e+00
  2.385492e+00    2.741707e+00
  2.401368e+00    2.751470e+00
  2.417244e+00    2.701863e+00
  2.433119e+00    2.659904e+00
  2.448995e+00    2.695890e+00
  2.464870e+00    2.750860e+00
  2.480746e+00    2.649916e+00
  2.496621e+00    2.702911e+00
  2.512497e+00    2.656769e+00
  2.528373e+00    2.845920e+00
  2.544248e+00    2.818755e+00
  2.560124e+00    2.710172e+00
  2.575999e+00    2.730822e+00
  2.591875e+00    2.755911e+00
  2.607750e+00    2.912590e+00
  2.623626e+00    2.877417e+00
  2.639502e+00    2.813219e+00
  2.655377e+00    2.858059e+00
  2.671253e+00    2.823623e+00
  2.687128e+00    2.790534e+00
  2.703004e+00    2.771369e+00
  2.718879e+00    2.654952e+00
  2.734755e+00    2.761698e+00
  2.750631e+00    2.757791e+00
  2.766506e+00    2.736478e+00
  2.782382e+00    2.781976e+00
  2.798257e+00    2.804847e+00
  2.814133e+00    2.767921e+00
  2.830008e+00    2.785034e+00
  2.845884e+00    2.830629e+00
  2.861760e+00    2.865727e+00
  2.877635e+00    2.839296e+00
  2.893511e+00    2.836817e+00
  2.909386e+00    2.847596e+00
  2.925262e+00    2.729345e+00
  2.941137e+00    2.811400e+00
  2.957013e+00    2.888506e+00
  2.972889e+00    2.889873e+00
  2.988764e+00    2.898405e+00
  3.004640e+00    2.939229e+00
  3.020515e+00    2.912573e+00
  3.036391e+00    2.871500e+00
  3.052266e+00    2.805238e+00
  3.068142e+00    2.921958e+00
  3.084018e+00    2.848114e+00
  3.099893e+00    2.889338e+00
  3.115769e+00    2.853086e+00
  3.131644e+00    2.921949e+00
  3.147520e+00    2.915775e+00
  3.163395e+00    2.926312e+00
  3.179271e+00    2.827529e+00
  3.195147e+00    2.917852e+00
  3.211022e+00    2.997887e+00
  3.226898e+00    2.897810e+00
  3.242773e+00    2.937932e+00
  3.258649e+00    2.899346e+00
  3.274525e+00    2.900579e+00
  3.290400e+00    2.903954e+00
  3.306276e+00    3.007066e+00
  3.322151e+00    2.919878e+00
  3.338027e+00    2.947883e+00
  3.353902e+00    2.893292e+00
  3.369778e+00    2.813938e+00
  3.385654e+00    2.897077e+00
  3.401529e+00    2.922990e+00
  3.417405e+00    2.908415e+00
  3.433280e+00    2.902942e+00
  3.449156e+00    2.901523e+00
  3.465031e+00    2.931602e+00
  3.480907e+00    2.940756e+00
  3.496783e+00    2.996083e+00
  3.512658e+00    2.958109e+00
  3.528534e+00    3.071317e+00
  3.544409e+00    2.999176e+00
  3.560285e+00    2.927771e+00
  3.576160e+00    2.930412e+00
  3.592036e+00    3.038464e+00
  3.607912e+00    3.049654e+00
  3.623787e+00    2.995016e+00
  3.639663e+00    2.967783e+00
  3.655538e+00    2.986073e+00
  3.671414e+00    2.929446e+00
  3.687289e+00    2.905463e+00
  3.703165e+00    2.962229e+00
  3.719041e+00    2.979639e+00
  3.734916e+00    3.095913e+00
  3.750792e+00    3.031864e+00
  3.766667e+00    2.985159e+00
  3.782543e+00    2.952650e+00
  3.798418e+00    2.930789e+00
  3.814294e+00    3.011103e+00
  3.830170e+00    2.999340e+00
  3.846045e+00    2.992570e+00
  3.861921e+00    3.000858e+00
  3.877796e+00    3.097614e+00
  3.893672e+00    3.115789e+00
  3.909547e+00    3.063802e+00
  3.925423e+00    2.992379e+00
  3.941299e+00    2.952641e+00
  3.957174e+00    3.003886e+00
  3.973050e+00    2.935893e+00
  3.988925e+00    3.049777e+00
  4.004801e+00    3.034155e+00
  4.020676e+00    3.004524e+00
  4.036552e+00    3.097687e+00
  4.052428e+00    3.009959e+00
  4.068303e+00    2.958621e+00
  4.084179e+00    3.004037e+00
  4.100054e+00    3.109269e+00
  4.115930e+00    3.068478e+00
  4.131806e+00    2.952056e+00
  4.147681e+00    2.986341e+00
  4.163557e+00    3.010634e+00
  4.179432e+00    3.027675e+00
  4.195308e+00    3.030951e+00
  4.211183e+00    3.096430e+00
  4.227059e+00    3.006377e+00
  4.242935e+00    2.934726e+00
  4.258810e+00    3.006290e+00
  4.274686e+00    3.018252e+00
  4.290561e+00    3.018122e+00
  4.306437e+00    3.040486e+00
  4.322312e+00    3.060024e+00
  4.338188e+00    3.061240e+00
  4.354064e+00    3.031274e+00
  4.369939e+00    3.007902e+00
  4.385815e+00    3.054430e+00
  4.401690e+00    3.025822e+00
  4.417566e+00    3.034877e+00
  4.433441e+00    3.071879e+00
  4.449317e+00    2.997367e+00
  4.465193e+00    2.958122e+00
  4.481068e+00    3.017786e+00
  4.496944e+00    3.111113e+00
  4.512819e+00    3.097187e+00
  4.528695e+00    3.130764e+00
  4.544570e+00    3.136922e+00
  4.560446e+00    3.041435e+00
  4.576322e+00    3.032886e+00
  4.592197e+00    3.111654e+00
  4.608073e+00    3.088888e+00
  4.623948e+00    2.977109e+00
  4.639824e+00    3.072106e+00
  4.655699e+00    3.130609e+00
  4.671575e+00    3.116380e+00
  4.687451e+00    3.100075e+00
  4.703326e+00    3.054605e+00
  4.719202e+00    3.113436e+00
  4.735077e+00    3.061583e+00
  4.750953e+00    3.109354e+00
  4.766828e+00    3.086456e+00
  4.782704e+00    3.130708e+00
  4.798580e+00    3.121410e+00
  4.814455e+00    3.109513e+00
  4.830331e+00    3.139406e+00
  4.846206e+00    3.053137e+00
  4.862082e+00    2.989793e+00
  4.877957e+00    3.081547e+00
  4.893833e+00    3.133139e+00
  4.909709e+00    3.230380e+00
  4.925584e+00    3.174584e+00
  4.941460e+00    3.120457e+00
  4.957335e+00    3.141006e+00
  4.973211e+00    3.099450e+00
  4.989086e+00    3.136811e+00
  5.004962e+00    3.116776e+00
  5.020838e+00    3.061634e+00
  5.036713e+00    3.112470e+00
  5.052589e+00    3.068292e+00
  5.068464e+00    3.065166e+00
  5.084340e+00    3.118444e+00
  5.100216e+00    3.143540e+00
  5.116091e+00    3.117611e+00
  5.131967e+00    3.108506e+00
  5.147842e+00    3.096992e+00
  5.163718e+00    3.179912e+00
  5.179593e+00    3.149043e+00
  5.195469e+00    3.098065e+00
  5.211345e+00    3.076082e+00
  5.227220e+00    3.156856e+00
  5.243096e+00    3.141810e+00
  5.258971e+00    3.172961e+00
  5.274847e+00    3.159098e+00
  5.290722e+00    3.108003e+00
  5.306598e+00    3.080838e+00
  5.322474e+00    3.116916e+00
  5.338349e+00    3.158299e+00
  5.354225e+00    3.104375e+00
  5.370100e+00    3.100306e+00
  5.385976e+00    3.177695e+00
  5.401851e+00    3.154670e+00
  5.417727e+00    3.151115e+00
  5.433603e+00    3.058797e+00
  5.449478e+00    3.043508e+00
  5.465354e+00    3.070726e+00
  5.481229e+00    3.043268e+00
  5.497105e+00    3.031244e+00
  5.512980e+00    3.129515e+00
  5.528856e+00    3.037701e+00
  5.544732e+00    3.073285e+00
  5.560607e+00    3.143088e+00
  5.576483e+00    3.078577e+00
  5.592358e+00    3.054324e+00
  5.608234e+00    3.118233e+00
  5.624109e+00    3.067259e+00
  5.639985e+00    3.030391e+00
  5.655861e+00    3.071737e+00
  5.671736e+00    3.077783e+00
  5.687612e+00    3.100871e+00
  5.703487e+00    3.028730e+00
  5.719363e+00    3.035616e+00
  5.735238e+00    3.054621e+00
  5.751114e+00    3.085024e+00
  5.766990e+00    3.066565e+00
  5.782865e+00    3.126616e+00
  5.798741e+00    3.101304e+00
  5.814616e+00    3.033137e+00
  5.830492e+00    3.055958e+00
  5.846367e+00    3.022019e+00
  5.862243e+00    3.054794e+00
  5.878119e+00    3.000283e+00
  5.893994e+00    3.051680e+00
  5.909870e+00    2.982985e+00
  5.925745e+00    2.944380e+00
  5.941621e+00    2.973367e+00
  5.957497e+00    3.008479e+00
  5.973372e+00    2.978375e+00
  5.989248e+00    2.989948e+00
  6.005123e+00    3.010486e+00
  6.020999e+00    3.006483e+00
  6.036874e+00    3.045993e+00
  6.052750e+00    3.091635e+00
  6.068626e+00    3.085031e+00
  6.084501e+00    2.966414e+00
  6.100377e+00    3.085040e+00
  6.116252e+00    3.172313e+00
  6.132128e+00    3.182134e+00
  6.148003e+00    3.152034e+00
  6.163879e+00    3.139595e+00
  6.179755e+00    3.121639e+00
  6.195630e+00    3.055162e+00
  6.211506e+00    3.055346e+00
  6.227381e+00    3.038059e+00
  6.243257e+00    3.046010e+00
  6.259132e+00    3.069700e+00
  6.275008e+00    3.092379e+00
  6.290884e+00    3.046137e+00
  6.306759e+00    3.011363e+00
  6.322635e+00    3.058375e+00
  6.338510e+00    3.016521e+00
  6.354386e+00    3.000391e+00
  6.370261e+00    3.028549e+00
  6.386137e+00    3.097387e+00
  6.402013e+00    3.076203e+00
  6.417888e+00    3.091373e+00
  6.433764e+00    3.060845e+00
  6.449639e+00    3.010129e+00
  6.465515e+00    3.050269e+00
  6.481390e+00    3.034294e+00
  6.497266e+00    2.978317e+00
  6.513142e+00    3.091412e+00
  6.529017e+00    3.071192e+00
  6.544893e+00    3.103935e+00
  6.560768e+00    3.045975e+00
  6.576644e+00    2.994136e+00
  6.592519e+00    3.046533e+00
  6.608395e+00    3.121695e+00
  6.624271e+00    3.065744e+00
  6.640146e+00    3.053657e+00
  6.656022e+00    3.047318e+00
  6.671897e+00    3.076714e+00
  6.687773e+00    3.061874e+00
  6.703648e+00    2.990005e+00
  6.719524e+00    3.066821e+00
  6.735400e+00    3.059901e+00
  6.751275e+00    3.020751e+00
  6.767151e+00    2.942775e+00
  6.783026e+00    3.046447e+00
  6.798902e+00    3.095879e+00
  6.814777e+00    3.024264e+00
  6.830653e+00    3.010424e+00
  6.846529e+00    3.009659e+00
  6.862404e+00    3.068960e+00
  6.878280e+00    3.081757e+00
  6.894155e+00    3.028337e+00
  6.910031e+00    2.998958e+00
  6.925907e+00    3.034632e+00
  6.941782e+00    3.010377e+00
  6.957658e+00    3.011961e+00
  6.973533e+00    3.026402e+00
  6.989409e+00    3.010572e+00
  7.005284e+00    2.992036e+00
  7.021160e+00    3.036122e+00
  7.037036e+00    3.041636e+00
  7.052911e+00    3.092286e+00
  7.068787e+00    2.976887e+00
  7.084662e+00    2.998264e+00
  7.100538e+00    2.979828e+00
  7.116413e+00    3.007009e+00
  7.132289e+00    2.988641e+00
  7.148165e+00    3.057144e+00
  7.164040e+00    2.987299e+00
  7.179916e+00    2.937255e+00
  7.195791e+00    2.987876e+00
  7.211667e+00    2.986671e+00
  7.227542e+00    2.942096e+00
  7.243418e+00    2.943072e+00
  7.259294e+00    2.989552e+00
  7.275169e+00    2.967159e+00
  7.291045e+00    2.969132e+00
  7.306920e+00    2.978307e+00
  7.322796e+00    3.008752e+00
  7.338671e+00    2.982040e+00
  7.354547e+00    2.995137e+00
  7.370423e+00    3.022002e+00
  7.386298e+00    3.056117e+00
  7.402174e+00    3.054802e+00
  7.418049e+00    2.954334e+00
  7.433925e+00    2.975733e+00
  7.449800e+00    2.961298e+00
  7.465676e+00    2.957268e+00
  7.481552e+00    2.964653e+00
  7.497427e+00    3.005247e+00
  7.513303e+00    3.007102e+00
  7.529178e+00    2.979493e+00
  7.545054e+00    2.948699e+00
  7.560929e+00    3.030292e+00
  7.576805e+00    2.988271e+00
  7.592681e+00    2.927131e+00
  7.608556e+00    2.938827e+00
  7.624432e+00    2.959140e+00
  7.640307e+00    2.982845e+00
  7.656183e+00    2.963876e+00
  7.672058e+00    2.992633e+00
  7.687934e+00    2.995714e+00
  7.703810e+00    2.943063e+00
  7.719685e+00    2.958439e+00
  7.735561e+00    2.882547e+00
  7.751436e+00    2.946945e+00
  7.767312e+00    2.918974e+00
  7.783187e+00    2.931386e+00
  7.799063e+00    2.978237e+00
  7.814939e+00    2.937542e+00
  7.830814e+00    2.914319e+00
  7.846690e+00    2.883336e+00
  7.862565e+00    2.916313e+00
  7.878441e+00    2.929295e+00
  7.894317e+00    2.975134e+00
  7.910192e+00    2.975077e+00
  7.926068e+00    3.002596e+00
  7.941943e+00    2.897534e+00
  7.957819e+00    2.862029e+00
  7.973694e+00    2.875869e+00
  7.989570e+00    2.900192e+00
  8.005446e+00    2.949667e+00
  8.021321e+00    2.961585e+00
  8.037197e+00    2.946603e+00
  8.053072e+00    2.882130e+00
  8.068948e+00    2.924688e+00
  8.084823e+00    2.947317e+00
  8.100699e+00    2.951467e+00
  8.116575e+00    2.969244e+00
  8.132450e+00    2.940760e+00
  8.148326e+00    3.031203e+00
  8.164201e+00    2.994407e+00
  8.180077e+00    3.004745e+00
  8.195952e+00    2.982968e+00
  8.211828e+00    3.014406e+00
  8.227704e+00    3.036994e+00
  8.243579e+00    2.978698e+00
  8.259455e+00    2.964070e+00
  8.275330e+00    2.944937e+00
  8.291206e+00    2.887074e+00
  8.307081e+00    2.906123e+00
  8.322957e+00    2.902032e+00
  8.338833e+00    2.893612e+00
  8.354708e+00    2.850998e+00
  8.370584e+00    2.869407e+00
  8.386459e+00    2.898729e+00
  8.402335e+00    2.912179e+00
  8.418210e+00    2.888485e+00
  8.434086e+00    2.838248e+00
  8.449962e+00    2.861995e+00
  8.465837e+00    2.898413e+00
  8.481713e+00    2.910195e+00
  8.497588e+00    2.860874e+00
  8.513464e+00    2.873315e+00
  8.529339e+00    2.856528e+00
  8.545215e+00    2.815450e+00
  8.561091e+00    2.877854e+00
  8.576966e+00    2.886567e+00
  8.592842e+00    2.877180e+00
  8.608717e+00    2.868298e+00
  8.624593e+00    2.858106e+00
  8.640468e+00    2.830244e+00
  8.656344e+00    2.841130e+00
  8.672220e+00    2.803358e+00
  8.688095e+00    2.866162e+00
  8.703971e+00    2.861468e+00
  8.719846e+00    2.885462e+00
  8.735722e+00    2.886378e+00
  8.751598e+00    2.945167e+00
  8.767473e+00    2.917284e+00
  8.783349e+00    2.846158e+00
  8.799224e+00    2.803000e+00
  8.815100e+00    2.855844e+00
  8.830975e+00    2.844180e+00
  8.846851e+00    2.839682e+00
  8.862727e+00    2.843951e+00
  8.878602e+00    2.834690e+00
  8.894478e+00    2.824542e+00
  8.910353e+00    2.816490e+00
  8.926229e+00    2.766402e+00
  8.942104e+00    2.789737e+00
  8.957980e+00    2.798870e+00
  8.973856e+00    2.763120e+00
  8.989731e+00    2.741903e+00
  9.005607e+00    2.810965e+00
  9.021482e+00    2.811889e+00
  9.037358e+00    2.804676e+00
  9.053233e+00    2.755117e+00
  9.069109e+00    2.773939e+00
  9.084985e+00    2.793168e+00
  9.100860e+00    2.830946e+00
  9.116736e+00    2.805286e+00
  9.132611e+00    2.799009e+00
  9.148487e+00    2.854307e+00
  9.164362e+00    2.859186e+00
  9.180238e+00    2.812181e+00
  9.196114e+00    2.815162e+00
  9.211989e+00    2.781921e+00
  9.227865e+00    2.811385e+00
  9.243740e+00    2.846357e+00
  9.259616e+00    2.851780e+00
  9.275491e+00    2.831994e+00
  9.291367e+00    2.781850e+00
  9.307243e+00    2.788102e+00
  9.323118e+00    2.782840e+00
  9.338994e+00    2.690350e+00
  9.354869e+00    2.706081e+00
  9.370745e+00    2.746074e+00
  9.386620e+00    2.778436e+00
  9.402496e+00    2.823126e+00
  9.418372e+00    2.795152e+00
  9.434247e+00    2.745632e+00
  9.450123e+00    2.730960e+00
  9.465998e+00    2.756442e+00
  9.481874e+00    2.739758e+00
  9.497749e+00    2.756823e+00
  9.513625e+00    2.765495e+00
  9.529501e+00    2.793216e+00
  9.545376e+00    2.797719e+00
  9.561252e+00    2.785317e+00
  9.577127e+00    2.755359e+00
  9.593003e+00    2.732862e+00
  9.608878e+00    2.702759e+00
  9.624754e+00    2.696893e+00
  9.640630e+00    2.740830e+00
  9.656505e+00    2.768942e+00
  9.672381e+00    2.772491e+00
  9.688256e+00    2.740490e+00
  9.704132e+00    2.737010e+00
  9.720008e+00    2.758050e+00
  9.735883e+00    2.765692e+00
  9.751759e+00    2.743970e+00
  9.767634e+00    2.691012e+00
  9.783510e+00    2.673416e+00
  9.799385e+00    2.669146e+00
  9.815261e+00    2.706127e+00
  9.831137e+00    2.752759e+00
  9.847012e+00    2.770971e+00
  9.862888e+00    2.664818e+00
  9.878763e+00    2.658427e+00
  9.894639e+00    2.640988e+00
  9.910514e+00    2.701434e+00
  9.926390e+00    2.657146e+00
  9.942266e+00    2.695626e+00
  9.958141e+00    2.685622e+00
  9.974017e+00    2.679541e+00
  9.989892e+00    2.593689e+00
  1.000577e+01    2.592394e+00
  1.002164e+01    2.605016e+00
  1.003752e+01    2.654267e+00
  1.005339e+01    2.623746e+00
  1.006927e+01    2.667878e+00
  1.008515e+01    2.661524e+00
  1.010102e+01    2.663853e+00
  1.011690e+01    2.675673e+00
  1.013277e+01    2.660416e+00
  1.014865e+01    2.658422e+00
  1.016452e+01    2.642565e+00
  1.018040e+01    2.677490e+00
  1.019627e+01    2.665169e+00
  1.021215e+01    2.671587e+00
  1.022803e+01    2.656277e+00
  1.024390e+01    2.615858e+00
  1.025978e+01    2.600306e+00
  1.027565e+01    2.615637e+00
  1.029153e+01    2.619831e+00
  1.030740e+01    2.644914e+00
  1.032328e+01    2.659656e+00
  1.033915e+01    2.654061e+00
  1.035503e+01    2.635778e+00
  1.037091e+01    2.606338e+00
  1.038678e+01    2.575779e+00
  1.040266e+01    2.580539e+00
  1.041853e+01    2.634063e+00
  1.043441e+01    2.624271e+00
  1.045028e+01    2.570620e+00
  1.046616e+01    2.595084e+00
  1.048204e+01    2.575926e+00
  1.049791e+01    2.543905e+00
  1.051379e+01    2.557432e+00
  1.052966e+01    2.585576e+00
  1.054554e+01    2.591360e+00
  1.056141e+01    2.593001e+00
  1.057729e+01    2.570819e+00
  1.059316e+01    2.548466e+00
  1.060904e+01    2.553819e+00
  1.062492e+01    2.549394e+00
  1.064079e+01    2.521564e+00
  1.065667e+01    2.567447e+00
  1.067254e+01    2.601866e+00
  1.068842e+01    2.549573e+00
  1.070429e+01    2.563818e+00
  1.072017e+01    2.548163e+00
  1.073604e+01    2.543385e+00
  1.075192e+01    2.573373e+00
  1.076780e+01    2.524034e+00
  1.078367e+01    2.530049e+00
  1.079955e+01    2.542235e+00
  1.081542e+01    2.497966e+00
  1.083130e+01    2.490440e+00
  1.084717e+01    2.474123e+00
  1.086305e+01    2.516351e+00
  1.087892e+01    2.517449e+00
  1.089480e+01    2.512422e+00
  1.091068e+01    2.472459e+00
  1.092655e+01    2.487328e+00
  1.094243e+01    2.494978e+00
  1.095830e+01    2.553649e+00
  1.097418e+01    2.499430e+00
  1.099005e+01    2.466321e+00
  1.100593e+01    2.496879e+00
  1.102180e+01    2.494917e+00
  1.103768e+01    2.536887e+00
  1.105356e+01    2.511885e+00
  1.106943e+01    2.492365e+00
  1.108531e+01    2.523498e+00
  1.110118e+01    2.467205e+00
  1.111706e+01    2.482603e+00
  1.113293e+01    2.486212e+00
  1.114881e+01    2.466350e+00
  1.116468e+01    2.448158e+00
  1.118056e+01    2.462406e+00
  1.119644e+01    2.506838e+00
  1.121231e+01    2.495905e+00
  1.122819e+01    2.477725e+00
  1.124406e+01    2.488487e+00
  1.125994e+01    2.447945e+00
  1.127581e+01    2.483172e+00
  1.129169e+01    2.489569e+00
  1.130756e+01    2.429143e+00
  1.132344e+01    2.461328e+00
  1.133932e+01    2.471687e+00
  1.135519e+01    2.438591e+00
  1.137107e+01    2.421647e+00
  1.138694e+01    2.417965e+00
  1.140282e+01    2.480224e+00
  1.141869e+01    2.432672e+00
  1.143457e+01    2.386176e+00
  1.145045e+01    2.389055e+00
  1.146632e+01    2.374916e+00
  1.148220e+01    2.417948e+00
  1.149807e+01    2.401675e+00
  1.151395e+01    2.424469e+00
  1.152982e+01    2.408663e+00
  1.154570e+01    2.402939e+00
  1.156157e+01    2.437867e+00
  1.157745e+01    2.363052e+00
  1.159333e+01    2.402066e+00
  1.160920e+01    2.390656e+00
  1.162508e+01    2.373275e+00
  1.164095e+01    2.355426e+00
  1.165683e+01    2.374941e+00
  1.167270e+01    2.367158e+00
  1.168858e+01    2.403957e+00
  1.170445e+01    2.390833e+00
  1.172033e+01    2.387649e+00
  1.173621e+01    2.356536e+00
  1.175208e+01    2.378041e+00
  1.176796e+01    2.361971e+00
  1.178383e+01    2.361898e+00
  1.179971e+01    2.371258e+00
  1.181558e+01    2.367598e+00
  1.183146e+01    2.366170e+00
  1.184733e+01    2.366001e+00
  1.186321e+01    2.391992e+00
  1.187909e+01    2.395653e+00
  1.189496e+01    2.331720e+00
  1.191084e+01    2.347980e+00
  1.192671e+01    2.324037e+00
  1.194259e+01    2.341488e+00
  1.195846e+01    2.313769e+00
  1.197434e+01    2.326269e+00
  1.199021e+01    2.313029e+00
  1.200609e+01    2.318542e+00
  1.202197e+01    2.294473e+00
  1.203784e+01    2.354149e+00
  1.205372e+01    2.364335e+00
  1.206959e+01    2.348347e+00
  1.208547e+01    2.315627e+00
  1.210134e+01    2.311356e+00
  1.211722e+01    2.300788e+00
  1.213309e+01    2.306775e+00
  1.214897e+01    2.324088e+00
  1.216485e+01    2.342387e+00
  1.218072e+01    2.320743e+00
  1.219660e+01    2.331549e+00
  1.221247e+01    2.326407e+00
  1.222835e+01    2.302590e+00
  1.224422e+01    2.319082e+00
  1.226010e+01    2.311495e+00
  1.227597e+01    2.326569e+00
  1.229185e+01    2.294452e+00
  1.230773e+01    2.277400e+00
  1.232360e+01    2.299056e+00
  1.233948e+01    2.316625e+00
  1.235535e+01    2.327765e+00
  1.237123e+01    2.305187e+00
  1.238710e+01    2.288585e+00
  1.240298e+01    2.317693e+00
  1.241886e+01    2.338930e+00
  1.243473e+01    2.348582e+00
  1.245061e+01    2.357607e+00
  1.246648e+01    2.323833e+00
  1.248236e+01    2.291342e+00
  1.249823e+01    2.332795e+00
  1.251411e+01    2.353169e+00
  1.252998e+01    2.359080e+00
  1.254586e+01    2.381033e+00
  1.256174e+01    2.389832e+00
  1.257761e+01    2.420506e+00
  1.259349e+01    2.422837e+00
  1.260936e+01    2.421607e+00
  1.262524e+01    2.385358e+00
  1.264111e+01    2.404207e+00
  1.265699e+01    2.414184e+00
  1.267286e+01    2.406808e+00
  1.268874e+01    2.463824e+00
  1.270462e+01    2.479121e+00
  1.272049e+01    2.472524e+00
  1.273637e+01    2.520301e+00
  1.275224e+01    2.548273e+00
  1.276812e+01    2.595373e+00
  1.278399e+01    2.613317e+00
  1.279987e+01    2.648970e+00
  1.281574e+01    2.740309e+00
  1.283162e+01    2.765308e+00
  1.284750e+01    2.789201e+00
  1.286337e+01    2.933393e+00
  1.287925e+01    3.048234e+00
  1.289512e+01    3.129247e+00
  1.291100e+01    3.296012e+00
  1.292687e+01    3.456849e+00
  1.294275e+01    3.720965e+00
  1.295862e+01    4.010874e+00
  1.297450e+01    4.381299e+00
  1.299038e+01    4.728090e+00
  1.300625e+01    5.311541e+00
  1.302213e+01    6.128280e+00
  1.303800e+01    7.106542e+00
  1.305388e+01    8.283710e+00
  1.306975e+01    9.538607e+00
  1.308563e+01    1.082168e+01
  1.310150e+01    1.212590e+01
  1.311738e+01    1.335395e+01
  1.313326e+01    1.441122e+01
  1.314913e+01    1.542954e+01
  1.316501e+01    1.637369e+01
  1.318088e+01    1.670572e+01
  1.319676e+01    1.641250e+01
  1.321263e+01    1.516227e+01
  1.322851e+01    1.336373e+01
  1.324438e+01    1.143815e+01
  1.326026e+01    9.626251e+00
  1.327614e+01    8.124875e+00
  1.329201e+01    6.891352e+00
  1.330789e+01    5.950381e+00
  1.332376e+01    5.299469e+00
  1.333964e+01    4.703222e+00
  1.335551e+01    4.254593e+00
  1.337139e+01    3.850501e+00
  1.338727e+01    3.619890e+00
  1.340314e+01    3.404938e+00
  1.341902e+01    3.256929e+00
  1.343489e+01    3.089250e+00
  1.345077e+01    2.932422e+00
  1.346664e+01    2.857144e+00
  1.348252e+01    2.768855e+00
  1.349839e+01    2.690887e+00
  1.351427e+01    2.628672e+00
  1.353015e+01    2.570594e+00
  1.354602e+01    2.503708e+00
  1.356190e+01    2.405185e+00
  1.357777e+01    2.399980e+00
  1.359365e+01    2.398289e+00
  1.360952e+01    2.363073e+00
  1.362540e+01    2.351002e+00
  1.364127e+01    2.287623e+00
  1.365715e+01    2.317020e+00
  1.367303e+01    2.247508e+00
  1.368890e+01    2.199632e+00
  1.370478e+01    2.243679e+00
  1.372065e+01    2.213803e+00
  1.373653e+01    2.234599e+00
  1.375240e+01    2.205493e+00
  1.376828e+01    2.145395e+00
  1.378415e+01    2.152164e+00
  1.380003e+01    2.154984e+00
  1.381591e+01    2.156033e+00
  1.383178e+01    2.155841e+00
  1.384766e+01    2.114610e+00
  1.386353e+01    2.103781e+00
  1.387941e+01    2.106248e+00
  1.389528e+01    2.102719e+00
  1.391116e+01    2.136335e+00
  1.392703e+01    2.090511e+00
  1.394291e+01    2.090537e+00
  1.395879e+01    2.143278e+00
  1.397466e+01    2.084279e+00
  1.399054e+01    2.055840e+00
  1.400641e+01    2.071604e+00
  1.402229e+01    2.081023e+00
  1.403816e+01    2.032462e+00
  1.405404e+01    2.006541e+00
  1.406991e+01    2.037404e+00
  1.408579e+01    2.051162e+00
  1.410167e+01    2.043130e+00
  1.411754e+01    1.995685e+00
  1.413342e+01    1.998984e+00
  1.414929e+01    1.969533e+00
  1.416517e+01    1.993383e+00
  1.418104e+01    2.007749e+00
  1.419692e+01    2.018708e+00
  1.421279e+01    1.985862e+00
  1.422867e+01    1.957120e+00
  1.424455e+01    2.007990e+00
  1.426042e+01    1.980324e+00
  1.427630e+01    1.984220e+00
  1.429217e+01    1.978561e+00
  1.430805e+01    1.965248e+00
  1.432392e+01    1.939196e+00
  1.433980e+01    1.942656e+00
  1.435568e+01    1.943393e+00
  1.437155e+01    1.931828e+00
  1.438743e+01    1.925179e+00
  1.440330e+01    1.931041e+00
  1.441918e+01    1.927098e+00
  1.443505e+01    1.940730e+00
  1.445093e+01    1.947226e+00
  1.446680e+01    1.948958e+00
  1.448268e+01    1.915787e+00
  1.449856e+01    1.884071e+00
  1.451443e+01    1.918127e+00
  1.453031e+01    1.951367e+00
  1.454618e+01    1.927529e+00
  1.456206e+01    1.921692e+00
  1.457793e+01    1.893070e+00
  1.459381e+01    1.883540e+00
  1.460968e+01    1.930248e+00
  1.462556e+01    1.957336e+00
  1.464144e+01    1.974594e+00
  1.465731e+01    1.986097e+00
  1.467319e+01    1.933964e+00
  1.468906e+01    1.929712e+00
  1.470494e+01    1.919678e+00
  1.472081e+01    1.900250e+00
  1.473669e+01    1.913563e+00
  1.475256e+01    1.871297e+00
  1.476844e+01    1.871911e+00
  1.478432e+01    1.875451e+00
  1.480019e+01    1.887003e+00
  1.481607e+01    1.898511e+00
  1.483194e+01    1.897680e+00
  1.484782e+01    1.888921e+00
  1.486369e+01    1.926087e+00
  1.487957e+01    1.916197e+00
  1.489544e+01    1.947212e+00
  1.491132e+01    1.996814e+00
  1.492720e+01    1.999103e+00
  1.494307e+01    1.947485e+00
  1.495895e+01    2.029150e+00
  1.497482e+01    2.074177e+00
  1.499070e+01    2.102749e+00
  1.500657e+01    2.145117e+00
  1.502245e+01    2.247672e+00
  1.503832e+01    2.312616e+00
  1.505420e+01    2.396412e+00
  1.507008e+01    2.544761e+00
  1.508595e+01    2.667376e+00
  1.510183e+01    2.853992e+00
  1.511770e+01    3.145606e+00
  1.513358e+01    3.455377e+00
  1.514945e+01    3.795689e+00
  1.516533e+01    4.159917e+00
  1.518120e+01    4.510615e+00
  1.519708e+01    4.836744e+00
  1.521296e+01    5.113946e+00
  1.522883e+01    5.401456e+00
  1.524471e+01    5.559994e+00
  1.526058e+01    5.777154e+00
  1.527646e+01    5.743708e+00
  1.529233e+01    5.498862e+00
  1.530821e+01    5.171585e+00
  1.532409e+01    4.759380e+00
  1.533996e+01    4.260460e+00
  1.535584e+01    3.725185e+00
  1.537171e+01    3.334950e+00
  1.538759e+01    3.017246e+00
  1.540346e+01    2.793437e+00
  1.541934e+01    2.598170e+00
  1.543521e+01    2.411331e+00
  1.545109e+01    2.271547e+00
  1.546697e+01    2.207299e+00
  1.548284e+01    2.115270e+00
  1.549872e+01    2.023298e+00
  1.551459e+01    2.015492e+00
  1.553047e+01    1.990689e+00
  1.554634e+01    1.943462e+00
  1.556222e+01    1.880151e+00
  1.557809e+01    1.870731e+00
  1.559397e+01    1.834822e+00
  1.560985e+01    1.803562e+00
  1.562572e+01    1.808080e+00
  1.564160e+01    1.818995e+00
  1.565747e+01    1.769540e+00
  1.567335e+01    1.746081e+00
  1.568922e+01    1.705966e+00
  1.570510e+01    1.706764e+00
  1.572097e+01    1.736306e+00
  1.573685e+01    1.746494e+00
  1.575273e+01    1.738645e+00
  1.576860e+01    1.706773e+00
  1.578448e+01    1.661999e+00
  1.580035e+01    1.674146e+00
  1.581623e+01    1.677552e+00
  1.583210e+01    1.676830e+00
  1.584798e+01    1.670545e+00
  1.586385e+01    1.646457e+00
  1.587973e+01    1.642852e+00
  1.589561e+01    1.675534e+00
  1.591148e+01    1.636735e+00
  1.592736e+01    1.654403e+00
  1.594323e+01    1.654025e+00
  1.595911e+01    1.651509e+00
  1.597498e+01    1.624922e+00
  1.599086e+01    1.643740e+00
  1.600673e+01    1.606677e+00
  1.602261e+01    1.574242e+00
  1.603849e+01    1.600443e+00
  1.605436e+01    1.596292e+00
  1.607024e+01    1.596310e+00
  1.608611e+01    1.605713e+00
  1.610199e+01    1.618961e+00
  1.611786e+01    1.582069e+00
  1.613374e+01    1.566309e+00
  1.614961e+01    1.586747e+00
  1.616549e+01    1.590115e+00
  1.618137e+01    1.582651e+00
  1.619724e+01    1.567456e+00
  1.621312e+01    1.562309e+00
  1.622899e+01    1.551976e+00
  1.624487e+01    1.521721e+00
  1.626074e+01    1.536838e+00
  1.627662e+01    1.512341e+00
  1.629250e+01    1.556917e+00
  1.630837e+01    1.587289e+00
  1.632425e+01    1.561680e+00
  1.634012e+01    1.550756e+00
  1.635600e+01    1.529875e+00
  1.637187e+01    1.530899e+00
  1.638775e+01    1.553118e+00
  1.640362e+01    1.550428e+00
  1.641950e+01    1.480372e+00
  1.643538e+01    1.462636e+00
  1.645125e+01    1.492124e+00
  1.646713e+01    1.522538e+00
  1.648300e+01    1.521327e+00
  1.649888e+01    1.513669e+00
  1.651475e+01    1.521946e+00
  1.653063e+01    1.537926e+00
  1.654650e+01    1.512538e+00
  1.656238e+01    1.499125e+00
  1.657826e+01    1.486164e+00
  1.659413e+01    1.496644e+00
  1.661001e+01    1.508335e+00
  1.662588e+01    1.512935e+00
  1.664176e+01    1.505930e+00
  1.665763e+01    1.491287e+00
  1.667351e+01    1.491013e+00
  1.668938e+01    1.490955e+00
  1.670526e+01    1.498900e+00
  1.672114e+01    1.486087e+00
  1.673701e+01    1.468422e+00
  1.675289e+01    1.467710e+00
  1.676876e+01    1.452531e+00
  1.678464e+01    1.427270e+00
  1.680051e+01    1.461060e+00
  1.681639e+01    1.464634e+00
  1.683226e+01    1.457945e+00
  1.684814e+01    1.452456e+00
  1.686402e+01    1.460427e+00
  1.687989e+01    1.443082e+00
  1.689577e+01    1.448442e+00
  1.691164e+01    1.430958e+00
  1.692752e+01    1.431561e+00
  1.694339e+01    1.394090e+00
  1.695927e+01    1.414639e+00
  1.697514e+01    1.407228e+00
  1.699102e+01    1.432268e+00
  1.700690e+01    1.458724e+00
  1.702277e+01    1.469298e+00
  1.703865e+01    1.470931e+00
  1.705452e+01    1.440048e+00
  1.707040e+01    1.430620e+00
  1.708627e+01    1.448124e+00
  1.710215e+01    1.440468e+00
  1.711802e+01    1.422805e+00
  1.713390e+01    1.392441e+00
  1.714978e+01    1.392566e+00
  1.716565e+01    1.428528e+00
  1.718153e+01    1.419307e+00
  1.719740e+01    1.417419e+00
  1.721328e+01    1.400046e+00
  1.722915e+01    1.391609e+00
  1.724503e+01    1.412641e+00
  1.726091e+01    1.401685e+00
  1.727678e+01    1.384274e+00
  1.729266e+01    1.385067e+00
  1.730853e+01    1.391169e+00
  1.732441e+01    1.396864e+00
  1.734028e+01    1.394644e+00
  1.735616e+01    1.398353e+00
  1.737203e+01    1.380856e+00
  1.738791e+01    1.385404e+00
  1.740379e+01    1.390393e+00
  1.741966e+01    1.394426e+00
  1.743554e+01    1.371459e+00
  1.745141e+01    1.353853e+00
  1.746729e+01    1.335522e+00
  1.748316e+01    1.386971e+00
  1.749904e+01    1.353017e+00
  1.751491e+01    1.340994e+00
  1.753079e+01    1.362944e+00
  1.754667e+01    1.347595e+00
  1.756254e+01    1.348028e+00
  1.757842e+01    1.336227e+00
  1.759429e+01    1.353267e+00
  1.761017e+01    1.329775e+00
  1.762604e+01    1.315719e+00
  1.764192e+01    1.347894e+00
  1.765779e+01    1.335086e+00
  1.767367e+01    1.323073e+00
  1.768955e+01    1.336053e+00
  1.770542e+01    1.343547e+00
  1.772130e+01    1.319891e+00
  1.773717e+01    1.327434e+00
  1.775305e+01    1.350976e+00
  1.776892e+01    1.327337e+00
  1.778480e+01    1.316360e+00
  1.780067e+01    1.326682e+00
  1.781655e+01    1.338160e+00
  1.783243e+01    1.311746e+00
  1.784830e+01    1.314472e+00
  1.786418e+01    1.309817e+00
  1.788005e+01    1.301711e+00
  1.789593e+01    1.293446e+00
  1.791180e+01    1.305409e+00
  1.792768e+01    1.315282e+00
  1.794355e+01    1.327498e+00
  1.795943e+01    1.325782e+00
  1.797531e+01    1.317242e+00
  1.799118e+01    1.333511e+00
  1.800706e+01    1.317426e+00
  1.802293e+01    1.312426e+00
  1.803881e+01    1.295277e+00
  1.805468e+01    1.311850e+00
  1.807056e+01    1.270270e+00
  1.808643e+01    1.292535e+00
  1.810231e+01    1.306408e+00
  1.811819e+01    1.292128e+00
  1.813406e+01    1.284097e+00
  1.814994e+01    1.270522e+00
  1.816581e+01    1.278728e+00
  1.818169e+01    1.287309e+00
  1.819756e+01    1.288847e+00
  1.821344e+01    1.287696e+00
  1.822932e+01    1.325031e+00
  1.824519e+01    1.295960e+00
  1.826107e+01    1.282280e+00
  1.827694e+01    1.297474e+00
  1.829282e+01    1.285147e+00
  1.830869e+01    1.263711e+00
  1.832457e+01    1.235551e+00
  1.834044e+01    1.252192e+00
  1.835632e+01    1.257773e+00
  1.837220e+01    1.255437e+00
  1.838807e+01    1.246895e+00
  1.840395e+01    1.258231e+00
  1.841982e+01    1.250577e+00
  1.843570e+01    1.248035e+00
  1.845157e+01    1.228313e+00
  1.846745e+01    1.241537e+00
  1.848332e+01    1.263557e+00
  1.849920e+01    1.273071e+00
  1.851508e+01    1.254408e+00
  1.853095e+01    1.252288e+00
  1.854683e+01    1.272398e+00
  1.856270e+01    1.258060e+00
  1.857858e+01    1.236433e+00
  1.859445e+01    1.240911e+00
  1.861033e+01    1.224895e+00
  1.862620e+01    1.210264e+00
  1.864208e+01    1.206503e+00
  1.865796e+01    1.223944e+00
  1.867383e+01    1.228086e+00
  1.868971e+01    1.226388e+00
  1.870558e+01    1.209949e+00
  1.872146e+01    1.222383e+00
  1.873733e+01    1.206868e+00
  1.875321e+01    1.216163e+00
  1.876908e+01    1.233296e+00
  1.878496e+01    1.231105e+00
  1.880084e+01    1.211647e+00
  1.881671e+01    1.235640e+00
  1.883259e+01    1.220100e+00
  1.884846e+01    1.200987e+00
  1.886434e+01    1.203966e+00
  1.888021e+01    1.209539e+00
  1.889609e+01    1.228567e+00
  1.891196e+01    1.237113e+00
  1.892784e+01    1.202119e+00
  1.894372e+01    1.221573e+00
  1.895959e+01    1.203418e+00
  1.897547e+01    1.181664e+00
  1.899134e+01    1.199998e+00
  1.900722e+01    1.231627e+00
  1.902309e+01    1.215134e+00
  1.903897e+01    1.195970e+00
  1.905484e+01    1.223372e+00
  1.907072e+01    1.178467e+00
  1.908660e+01    1.174068e+00
  1.910247e+01    1.201608e+00
  1.911835e+01    1.181293e+00
  1.913422e+01    1.170115e+00
  1.915010e+01    1.184372e+00
  1.916597e+01    1.206893e+00
  1.918185e+01    1.187605e+00
  1.919773e+01    1.192930e+00
  1.921360e+01    1.192510e+00
  1.922948e+01    1.174951e+00
  1.924535e+01    1.193384e+00
  1.926123e+01    1.201047e+00
  1.927710e+01    1.186796e+00
  1.929298e+01    1.173065e+00
  1.930885e+01    1.163856e+00
  1.932473e+01    1.180234e+00
  1.934061e+01    1.187972e+00
  1.935648e+01    1.176581e+00
  1.937236e+01    1.170578e+00
  1.938823e+01    1.167232e+00
  1.940411e+01    1.176616e+00
  1.941998e+01    1.177427e+00
  1.943586e+01    1.161887e+00
  1.945173e+01    1.163711e+00
  1.946761e+01    1.161249e+00
  1.948349e+01    1.149546e+00
  1.949936e+01    1.155232e+00
  1.951524e+01    1.194311e+00
  1.953111e+01    1.163989e+00
  1.954699e+01    1.132703e+00
  1.956286e+01    1.136395e+00
  1.957874e+01    1.135475e+00
  1.959461e+01    1.141181e+00
  1.961049e+01    1.161459e+00
  1.962637e+01    1.153086e+00
  1.964224e+01    1.138137e+00
  1.965812e+01    1.134742e+00
  1.967399e+01    1.157293e+00
  1.968987e+01    1.126136e+00
  1.970574e+01    1.101350e+00
  1.972162e+01    1.151229e+00
  1.973749e+01    1.150897e+00
  1.975337e+01    1.163812e+00
  1.976925e+01    1.160417e+00
  1.978512e+01    1.150982e+00
  1.980100e+01    1.118227e+00
  1.981687e+01    1.140141e+00
  1.983275e+01    1.106754e+00
  1.984862e+01    1.124033e+00
  1.986450e+01    1.105319e+00
  1.988037e+01    1.105253e+00
  1.989625e+01    1.128171e+00
  1.991213e+01    1.156053e+00
  1.992800e+01    1.141787e+00
  1.994388e+01    1.121731e+00
  1.995975e+01    1.095936e+00
  1.997563e+01    1.109173e+00
  1.999150e+01    1.111757e+00
  2.000738e+01    1.098445e+00
  2.002325e+01    1.092814e+00
  2.003913e+01    1.125049e+00
  2.005501e+01    1.137410e+00
  2.007088e+01    1.127829e+00
  2.008676e+01    1.120304e+00
  2.010263e+01    1.112860e+00
  2.011851e+01    1.120960e+00
  2.013438e+01    1.115410e+00
  2.015026e+01    1.104272e+00
  2.016614e+01    1.088332e+00
  2.018201e+01    1.108001e+00
  2.019789e+01    1.089243e+00
  2.021376e+01    1.109359e+00
  2.022964e+01    1.098879e+00
  2.024551e+01    1.082674e+00
  2.026139e+01    1.104424e+00
  2.027726e+01    1.099793e+00
  2.029314e+01    1.109118e+00
  2.030902e+01    1.093139e+00
  2.032489e+01    1.083294e+00
  2.034077e+01    1.086116e+00
  2.035664e+01    1.088656e+00
  2.037252e+01    1.092097e+00
  2.038839e+01    1.093230e+00
  2.040427e+01    1.099879e+00
  2.042014e+01    1.103279e+00
  2.043602e+01    1.102836e+00
  2.045190e+01    1.085263e+00
  2.046777e+01    1.088530e+00
  2.048365e+01    1.085958e+00
  2.049952e+01    1.085131e+00
  2.051540e+01    1.079565e+00
  2.053127e+01    1.072180e+00
  2.054715e+01    1.102619e+00
  2.056302e+01    1.099719e+00
  2.057890e+01    1.066164e+00
  2.059478e+01    1.078573e+00
  2.061065e+01    1.077719e+00
  2.062653e+01    1.082945e+00
  2.064240e+01    1.092949e+00
  2.065828e+01    1.096573e+00
  2.067415e+01    1.066898e+00
  2.069003e+01    1.073977e+00
  2.070590e+01    1.086563e+00
  2.072178e+01    1.100170e+00
  2.073766e+01    1.080944e+00
  2.075353e+01    1.100710e+00
  2.076941e+01    1.081937e+00
  2.078528e+01    1.074184e+00
  2.080116e+01    1.071997e+00
  2.081703e+01    1.100802e+00
  2.083291e+01    1.081569e+00
  2.084878e+01    1.064391e+00
  2.086466e+01    1.080889e+00
  2.088054e+01    1.072811e+00
  2.089641e+01    1.079919e+00
  2.091229e+01    1.073366e+00
  2.092816e+01    1.072388e+00
  2.094404e+01    1.075142e+00
  2.095991e+01    1.069074e+00
  2.097579e+01    1.084429e+00
  2.099166e+01    1.078968e+00
  2.100754e+01    1.061683e+00
  2.102342e+01    1.072080e+00
  2.103929e+01    1.080703e+00
  2.105517e+01    1.087929e+00
  2.107104e+01    1.078181e+00
  2.108692e+01    1.092834e+00
  2.110279e+01    1.095382e+00
  2.111867e+01    1.088096e+00
  2.113455e+01    1.077841e+00
  2.115042e+01    1.087547e+00
  2.116630e+01    1.101124e+00
  2.118217e+01    1.100485e+00
  2.119805e+01    1.107912e+00
  2.121392e+01    1.110785e+00
  2.122980e+01    1.113880e+00
  2.124567e+01    1.119765e+00
  2.126155e+01    1.087084e+00
  2.127743e+01    1.089807e+00
  2.129330e+01    1.119387e+00
  2.130918e+01    1.124898e+00
  2.132505e+01    1.124298e+00
  2.134093e+01    1.142350e+00
  2.135680e+01    1.129428e+00
  2.137268e+01    1.129801e+00
  2.138855e+01    1.163356e+00
  2.140443e+01    1.214827e+00
  2.142031e+01    1.237529e+00
  2.143618e+01    1.202563e+00
  2.145206e+01    1.225535e+00
  2.146793e+01    1.224940e+00
  2.148381e+01    1.243074e+00
  2.149968e+01    1.289741e+00
  2.151556e+01    1.300822e+00
  2.153143e+01    1.354737e+00
  2.154731e+01    1.369311e+00
  2.156319e+01    1.404710e+00
  2.157906e+01    1.457742e+00
  2.159494e+01    1.528883e+00
  2.161081e+01    1.599698e+00
  2.162669e+01    1.684987e+00
  2.164256e+01    1.811827e+00
  2.165844e+01    1.953742e+00
  2.167431e+01    2.110804e+00
  2.169019e+01    2.315760e+00
  2.170607e+01    2.537771e+00
  2.172194e+01    2.870606e+00
  2.173782e+01    3.266023e+00
  2.175369e+01    3.694758e+00
  2.176957e+01    4.259769e+00
  2.178544e+01    4.862143e+00
  2.180132e+01    5.471615e+00
  2.181719e+01    6.178903e+00
  2.183307e+01    6.923637e+00
  2.184895e+01    7.597219e+00
  2.186482e+01    8.380639e+00
  2.188070e+01    8.874590e+00
  2.189657e+01    9.180368e+00
  2.191245e+01    9.160316e+00
  2.192832e+01    8.816579e+00
  2.194420e+01    8.124070e+00
  2.196007e+01    7.080682e+00
  2.197595e+01    6.088777e+00
  2.199183e+01    5.224515e+00
  2.200770e+01    4.444383e+00
  2.202358e+01    3.736598e+00
  2.203945e+01    3.260806e+00
  2.205533e+01    2.878494e+00
  2.207120e+01    2.565477e+00
  2.208708e+01    2.336776e+00
  2.210296e+01    2.094380e+00
  2.211883e+01    1.931771e+00
  2.213471e+01    1.778118e+00
  2.215058e+01    1.717189e+00
  2.216646e+01    1.598185e+00
  2.218233e+01    1.515026e+00
  2.219821e+01    1.487251e+00
  2.221408e+01    1.405450e+00
  2.222996e+01    1.347976e+00
  2.224584e+01    1.285883e+00
  2.226171e+01    1.258422e+00
  2.227759e+01    1.224344e+00
  2.229346e+01    1.183447e+00
  2.230934e+01    1.205424e+00
  2.232521e+01    1.163850e+00
  2.234109e+01    1.136595e+00
  2.235696e+01    1.119764e+00
  2.237284e+01    1.098907e+00
  2.238872e+01    1.075043e+00
  2.240459e+01    1.080418e+00
  2.242047e+01    1.073187e+00
  2.243634e+01    1.066401e+00
  2.245222e+01    1.053896e+00
  2.246809e+01    1.025900e+00
  2.248397e+01    1.029156e+00
  2.249984e+01    1.018618e+00
  2.251572e+01    1.009248e+00
  2.253160e+01    1.013900e+00
  2.254747e+01    1.006400e+00
  2.256335e+01    9.831191e-01
  2.257922e+01    9.832807e-01
  2.259510e+01    9.878563e-01
  2.261097e+01    9.477261e-01
  2.262685e+01    9.533458e-01
  2.264272e+01    9.559326e-01
  2.265860e+01    9.590545e-01
  2.267448e+01    9.807582e-01
  2.269035e+01    9.679104e-01
  2.270623e+01    9.766955e-01
  2.272210e+01    9.643004e-01
  2.273798e+01    9.487262e-01
  2.275385e+01    9.411022e-01
  2.276973e+01    9.537321e-01
  2.278560e+01    9.462039e-01
  2.280148e+01    9.529132e-01
  2.281736e+01    9.298657e-01
  2.283323e+01    9.564262e-01
  2.284911e+01    9.432363e-01
  2.286498e+01    9.075778e-01
  2.288086e+01    9.028758e-01
  2.289673e+01    8.987826e-01
  2.291261e+01    9.178962e-01
  2.292848e+01    8.998152e-01
  2.294436e+01    8.852609e-01
  2.296024e+01    8.788441e-01
  2.297611e+01    8.801288e-01
  2.299199e+01    8.856814e-01
  2.300786e+01    8.962328e-01
  2.302374e+01    8.976310e-01
  2.303961e+01    9.009039e-01
  2.305549e+01    8.913198e-01
  2.307137e+01    8.957167e-01
  2.308724e+01    8.862706e-01
  2.310312e+01    8.935086e-01
  2.311899e+01    8.906489e-01
  2.313487e+01    8.900020e-01
  2.315074e+01    8.837121e-01
  2.316662e+01    8.816313e-01
  2.318249e+01    8.644386e-01
  2.319837e+01    8.872073e-01
  2.321425e+01    8.786932e-01
  2.323012e+01    8.794096e-01
  2.324600e+01    8.777586e-01
  2.326187e+01    8.671963e-01
  2.327775e+01    8.664153e-01
  2.329362e+01    8.731638e-01
  2.330950e+01    8.825818e-01
  2.332537e+01    8.803113e-01
  2.334125e+01    8.679852e-01
  2.335713e+01    8.566328e-01
  2.337300e+01    8.433471e-01
  2.338888e+01    8.425466e-01
  2.340475e+01    8.422082e-01
  2.342063e+01    8.305328e-01
  2.343650e+01    8.324862e-01
  2.345238e+01    8.463145e-01
  2.346825e+01    8.457400e-01
  2.348413e+01    8.378680e-01
  2.350001e+01    8.554183e-01
  2.351588e+01    8.641041e-01
  2.353176e+01    8.413120e-01
  2.354763e+01    8.136756e-01
  2.356351e+01    8.396794e-01
  2.357938e+01    8.440518e-01
  2.359526e+01    8.333212e-01
  2.361113e+01    8.539782e-01
  2.362701e+01    8.485154e-01
  2.364289e+01    8.470785e-01
  2.365876e+01    8.360995e-01
  2.367464e+01    8.413711e-01
  2.369051e+01    8.528686e-01
  2.370639e+01    8.436466e-01
  2.372226e+01    8.245323e-01
  2.373814e+01    8.221415e-01
  2.375401e+01    8.160847e-01
  2.376989e+01    8.216402e-01
  2.378577e+01    8.252189e-01
  2.380164e+01    8.187539e-01
  2.381752e+01    7.985614e-01
  2.383339e+01    7.984752e-01
  2.384927e+01    8.036987e-01
  2.386514e+01    8.058522e-01
  2.388102e+01    8.024774e-01
  2.389689e+01    8.025085e-01
  2.391277e+01    7.867336e-01
  2.392865e+01    8.073274e-01
  2.394452e+01    7.981209e-01
  2.396040e+01    8.031748e-01
  2.397627e+01    7.939231e-01
  2.399215e+01    7.889383e-01
  2.400802e+01    7.855823e-01
  2.402390e+01    7.884909e-01
  2.403978e+01    7.712200e-01
  2.405565e+01    7.718043e-01
  2.407153e+01    7.973650e-01
  2.408740e+01    7.826365e-01
  2.410328e+01    7.911536e-01
  2.411915e+01    7.797980e-01
  2.413503e+01    7.880661e-01
  2.415090e+01    7.800882e-01
  2.416678e+01    7.614214e-01
  2.418266e+01    7.808708e-01
  2.419853e+01    7.629753e-01
  2.421441e+01    7.625495e-01
  2.423028e+01    7.658478e-01
  2.424616e+01    7.743962e-01
  2.426203e+01    7.782008e-01
  2.427791e+01    7.774513e-01
  2.429378e+01    7.756351e-01
  2.430966e+01    7.933410e-01
  2.432554e+01    7.811750e-01
  2.434141e+01    7.866234e-01
  2.435729e+01    7.971129e-01
  2.437316e+01    7.897878e-01
  2.438904e+01    8.040644e-01
  2.440491e+01    8.039095e-01
  2.442079e+01    7.909248e-01
  2.443666e+01    7.841389e-01
  2.445254e+01    7.908618e-01
  2.446842e+01    8.072096e-01
  2.448429e+01    7.976068e-01
  2.450017e+01    8.025374e-01
  2.451604e+01    8.039351e-01
  2.453192e+01    7.951843e-01
  2.454779e+01    7.976125e-01
  2.456367e+01    7.980319e-01
  2.457954e+01    7.832382e-01
  2.459542e+01    7.794982e-01
  2.461130e+01    7.789488e-01
  2.462717e+01    7.858750e-01
  2.464305e+01    7.865519e-01
  2.465892e+01    7.918817e-01
  2.467480e+01    8.022318e-01
  2.469067e+01    7.873019e-01
  2.470655e+01    7.887380e-01
  2.472242e+01    7.670591e-01
  2.473830e+01    7.786087e-01
  2.475418e+01    7.847098e-01
  2.477005e+01    7.726121e-01
  2.478593e+01    7.946573e-01
  2.480180e+01    8.021662e-01
  2.481768e+01    7.892339e-01
  2.483355e+01    7.754887e-01
  2.484943e+01    7.733659e-01
  2.486530e+01    7.920013e-01
  2.488118e+01    7.949970e-01
  2.489706e+01    8.188999e-01
  2.491293e+01    8.190050e-01
  2.492881e+01    7.887036e-01
  2.494468e+01    8.028155e-01
  2.496056e+01    7.931982e-01
  2.497643e+01    7.819993e-01
  2.499231e+01    7.838334e-01
  2.500819e+01    7.815619e-01
  2.502406e+01    8.044730e-01
  2.503994e+01    8.086649e-01
  2.505581e+01    8.128147e-01
  2.507169e+01    8.141227e-01
  2.508756e+01    8.011351e-01
  2.510344e+01    8.069958e-01
  2.511931e+01    7.932004e-01
  2.513519e+01    8.116691e-01
  2.515107e+01    8.061318e-01
  2.516694e+01    8.092306e-01
  2.518282e+01    8.314384e-01
  2.519869e+01    8.315455e-01
  2.521457e+01    8.305068e-01
  2.523044e+01    8.515444e-01
  2.524632e+01    8.552610e-01
  2.526219e+01    8.311501e-01
  2.527807e+01    8.528525e-01
  2.529395e+01    8.621796e-01
  2.530982e+01    8.566805e-01
  2.532570e+01    8.600374e-01
  2.534157e+01    8.850429e-01
  2.535745e+01    8.922086e-01
  2.537332e+01    9.064021e-01
  2.538920e+01    9.063140e-01
  2.540507e+01    9.041190e-01
  2.542095e+01    9.110317e-01
  2.543683e+01    9.067281e-01
  2.545270e+01    9.563747e-01
  2.546858e+01    9.582062e-01
  2.548445e+01    9.724131e-01
  2.550033e+01    9.704496e-01
  2.551620e+01    9.781528e-01
  2.553208e+01    1.004022e+00
  2.554795e+01    9.970326e-01
  2.556383e+01    1.051559e+00
  2.557971e+01    1.072104e+00
  2.559558e+01    1.102699e+00
  2.561146e+01    1.131045e+00
  2.562733e+01    1.145527e+00
  2.564321e+01    1.218468e+00
  2.565908e+01    1.255029e+00
  2.567496e+01    1.313462e+00
  2.569083e+01    1.401276e+00
  2.570671e+01    1.492403e+00
  2.572259e+01    1.614856e+00
  2.573846e+01    1.714106e+00
  2.575434e+01    1.902089e+00
  2.577021e+01    2.106354e+00
  2.578609e+01    2.339872e+00
  2.580196e+01    2.640833e+00
  2.581784e+01    2.983765e+00
  2.583371e+01    3.385981e+00
  2.584959e+01    3.873285e+00
  2.586547e+01    4.466270e+00
  2.588134e+01    5.022033e+00
  2.589722e+01    5.652186e+00
  2.591309e+01    6.260088e+00
  2.592897e+01    6.844757e+00
  2.594484e+01    7.241648e+00
  2.596072e+01    7.511383e+00
  2.597660e+01    7.498719e+00
  2.599247e+01    7.194765e+00
  2.600835e+01    6.640278e+00
  2.602422e+01    5.947891e+00
  2.604010e+01    5.149359e+00
  2.605597e+01    4.443671e+00
  2.607185e+01    3.793260e+00
  2.608772e+01    3.247785e+00
  2.610360e+01    2.836115e+00
  2.611948e+01    2.484737e+00
  2.613535e+01    2.217545e+00
  2.615123e+01    1.966698e+00
  2.616710e+01    1.793427e+00
  2.618298e+01    1.651983e+00
  2.619885e+01    1.536899e+00
  2.621473e+01    1.450621e+00
  2.623060e+01    1.352602e+00
  2.624648e+01    1.288506e+00
  2.626236e+01    1.248110e+00
  2.627823e+01    1.213603e+00
  2.629411e+01    1.176362e+00
  2.630998e+01    1.137947e+00
  2.632586e+01    1.088603e+00
  2.634173e+01    1.053055e+00
  2.635761e+01    1.025389e+00
  2.637348e+01    1.010734e+00
  2.638936e+01    9.960777e-01
  2.640524e+01    9.696349e-01
  2.642111e+01    9.450392e-01
  2.643699e+01    9.532614e-01
  2.645286e+01    9.379373e-01
  2.646874e+01    9.247442e-01
  2.648461e+01    9.277737e-01
  2.650049e+01    9.340820e-01
  2.651636e+01    9.498171e-01
  2.653224e+01    9.394828e-01
  2.654812e+01    9.188659e-01
  2.656399e+01    9.120330e-01
  2.657987e+01    8.851896e-01
  2.659574e+01    8.896362e-01
  2.661162e+01    9.099784e-01
  2.662749e+01    9.047793e-01
  2.664337e+01    9.182267e-01
  2.665924e+01    8.868724e-01
  2.667512e+01    8.946822e-01
  2.669100e+01    8.958922e-01
  2.670687e+01    9.009207e-01
  2.672275e+01    8.803612e-01
  2.673862e+01    8.899617e-01
  2.675450e+01    8.913498e-01
  2.677037e+01    8.795994e-01
  2.678625e+01    8.629765e-01
  2.680212e+01    8.794991e-01
  2.681800e+01    8.777513e-01
  2.683388e+01    8.804812e-01
  2.684975e+01    9.042196e-01
  2.686563e+01    8.869530e-01
  2.688150e+01    8.994611e-01
  2.689738e+01    9.055656e-01
  2.691325e+01    9.217146e-01
  2.692913e+01    9.388580e-01
  2.694501e+01    9.348422e-01
  2.696088e+01    9.290875e-01
  2.697676e+01    9.831800e-01
  2.699263e+01    1.001355e+00
  2.700851e+01    1.010641e+00
  2.702438e+01    1.069852e+00
  2.704026e+01    1.114043e+00
  2.705613e+01    1.169826e+00
  2.707201e+01    1.246441e+00
  2.708789e+01    1.273317e+00
  2.710376e+01    1.381919e+00
  2.711964e+01    1.485006e+00
  2.713551e+01    1.605931e+00
  2.715139e+01    1.748425e+00
  2.716726e+01    1.918923e+00
  2.718314e+01    2.060855e+00
  2.719901e+01    2.135659e+00
  2.721489e+01    2.196922e+00
  2.723077e+01    2.216971e+00
  2.724664e+01    2.205858e+00
  2.726252e+01    2.080516e+00
  2.727839e+01    1.940084e+00
  2.729427e+01    1.787191e+00
  2.731014e+01    1.627489e+00
  2.732602e+01    1.458163e+00
  2.734189e+01    1.344965e+00
  2.735777e+01    1.273570e+00
  2.737365e+01    1.202447e+00
  2.738952e+01    1.112720e+00
  2.740540e+01    1.054050e+00
  2.742127e+01    1.027974e+00
  2.743715e+01    1.017600e+00
  2.745302e+01    9.767833e-01
  2.746890e+01    9.524671e-01
  2.748477e+01    9.311165e-01
  2.750065e+01    9.099263e-01
  2.751653e+01    9.263384e-01
  2.753240e+01    9.199363e-01
  2.754828e+01    8.865819e-01
  2.756415e+01    8.658673e-01
  2.758003e+01    8.671488e-01
  2.759590e+01    8.634164e-01
  2.761178e+01    8.697269e-01
  2.762765e+01    8.446700e-01
  2.764353e+01    8.147350e-01
  2.765941e+01    8.351893e-01
  2.767528e+01    8.297934e-01
  2.769116e+01    8.231708e-01
  2.770703e+01    8.120342e-01
  2.772291e+01    8.179808e-01
  2.773878e+01    8.111506e-01
  2.775466e+01    8.087665e-01
  2.777054e+01    7.995019e-01
  2.778641e+01    8.021582e-01
  2.780229e+01    8.128851e-01
  2.781816e+01    8.028594e-01
  2.783404e+01    8.068603e-01
  2.784991e+01    7.988346e-01
  2.786579e+01    7.955830e-01
  2.788166e+01    7.819866e-01
  2.789754e+01    7.922524e-01
  2.791342e+01    7.945009e-01
  2.792929e+01    8.112153e-01
  2.794517e+01    7.891909e-01
  2.796104e+01    8.077343e-01
  2.797692e+01    7.909595e-01
  2.799279e+01    7.971919e-01
  2.800867e+01    7.814355e-01
  2.802454e+01    7.711060e-01
  2.804042e+01    8.081209e-01
  2.805630e+01    7.921585e-01
  2.807217e+01    7.685633e-01
  2.808805e+01    7.745932e-01
  2.810392e+01    7.871184e-01
  2.811980e+01    7.748507e-01
  2.813567e+01    8.061733e-01
  2.815155e+01    7.960207e-01
  2.816742e+01    7.900178e-01
  2.818330e+01    7.650763e-01
  2.819918e+01    7.643381e-01
  2.821505e+01    7.656067e-01
  2.823093e+01    7.631425e-01
  2.824680e+01    7.634441e-01
  2.826268e+01    7.723616e-01
  2.827855e+01    7.693617e-01
  2.829443e+01    7.779223e-01
  2.831030e+01    7.649618e-01
  2.832618e+01    7.794469e-01
  2.834206e+01    7.746282e-01
  2.835793e+01    7.424133e-01
  2.837381e+01    7.619358e-01
  2.838968e+01    7.707592e-01
  2.840556e+01    7.534727e-01
  2.842143e+01    7.593123e-01
  2.843731e+01    7.478658e-01
  2.845318e+01    7.414863e-01
  2.846906e+01    7.419933e-01
  2.848494e+01    7.338293e-01
  2.850081e+01    7.299743e-01
  2.851669e+01    7.461206e-01
  2.853256e+01    7.426590e-01
  2.854844e+01    7.454609e-01
  2.856431e+01    7.531704e-01
  2.858019e+01    7.506047e-01
  2.859606e+01    7.589573e-01
  2.861194e+01    7.614030e-01
  2.862782e+01    7.546429e-01
  2.864369e+01    7.570108e-01
  2.865957e+01    7.589142e-01
  2.867544e+01    7.416278e-01
  2.869132e+01    7.388202e-01
  2.870719e+01    7.542064e-01
  2.872307e+01    7.453048e-01
  2.873895e+01    7.353753e-01
  2.875482e+01    7.468519e-01
  2.877070e+01    7.664269e-01
  2.878657e+01    7.455643e-01
  2.880245e+01    7.382923e-01
  2.881832e+01    7.483636e-01
  2.883420e+01    7.452499e-01
  2.885007e+01    7.369505e-01
  2.886595e+01    7.487063e-01
  2.888183e+01    7.381985e-01
  2.889770e+01    7.343441e-01
  2.891358e+01    7.315047e-01
  2.892945e+01    7.364005e-01
  2.894533e+01    7.237862e-01
  2.896120e+01    7.239404e-01
  2.897708e+01    7.379975e-01
  2.899295e+01    7.206881e-01
  2.900883e+01    7.262923e-01
  2.902471e+01    7.216494e-01
  2.904058e+01    7.366000e-01
  2.905646e+01    7.301105e-01
  2.907233e+01    7.531114e-01
  2.908821e+01    7.536729e-01
  2.910408e+01    7.337995e-01
  2.911996e+01    7.404016e-01
  2.913583e+01    7.405221e-01
  2.915171e+01    7.493553e-01
  2.916759e+01    7.538406e-01
  2.918346e+01    7.392866e-01
  2.919934e+01    7.279058e-01
  2.921521e+01    7.383807e-01
  2.923109e+01    7.065319e-01
  2.924696e+01    7.021261e-01
  2.926284e+01    7.105843e-01
  2.927871e+01    7.161608e-01
  2.929459e+01    7.290292e-01
  2.931047e+01    7.071168e-01
  2.932634e+01    7.416645e-01
  2.934222e+01    7.078165e-01
  2.935809e+01    7.213511e-01
  2.937397e+01    7.468312e-01
  2.938984e+01    7.225877e-01
  2.940572e+01    7.167944e-01
  2.942159e+01    7.153205e-01
  2.943747e+01    7.082372e-01
  2.945335e+01    7.182834e-01
  2.946922e+01    7.332149e-01
  2.948510e+01    7.127025e-01
  2.950097e+01    7.138355e-01
  2.951685e+01    7.238631e-01
  2.953272e+01    7.215793e-01
  2.954860e+01    7.031417e-01
  2.956447e+01    7.088349e-01
  2.958035e+01    7.270029e-01
  2.959623e+01    7.182655e-01
  2.961210e+01    7.211758e-01
  2.962798e+01    7.382702e-01
  2.964385e+01    7.086606e-01
  2.965973e+01    7.214844e-01
  2.967560e+01    7.229269e-01
  2.969148e+01    7.153352e-01
  2.970736e+01    7.220289e-01
  2.972323e+01    7.280954e-01
  2.973911e+01    7.397791e-01
  2.975498e+01    7.234586e-01
  2.977086e+01    7.190995e-01
  2.978673e+01    7.204450e-01
  2.980261e+01    7.133420e-01
  2.981848e+01    7.122416e-01
  2.983436e+01    7.236956e-01
  2.985024e+01    7.135239e-01
  2.986611e+01    7.057986e-01
  2.988199e+01    6.973114e-01
  2.989786e+01    7.249518e-01
  2.991374e+01    7.068120e-01
  2.992961e+01    7.013384e-01
  2.994549e+01    7.131947e-01
  2.996136e+01    7.292355e-01
  2.997724e+01    7.142320e-01
  2.999312e+01    7.187522e-01
  3.000899e+01    7.129303e-01
  3.002487e+01    7.210433e-01
  3.004074e+01    7.269812e-01
  3.005662e+01    7.354355e-01
  3.007249e+01    7.211598e-01
  3.008837e+01    7.281516e-01
  3.010424e+01    7.331159e-01
  3.012012e+01    7.116933e-01
  3.013600e+01    7.044255e-01
  3.015187e+01    6.994272e-01
  3.016775e+01    7.141998e-01
  3.018362e+01    7.429457e-01
  3.019950e+01    7.235134e-01
  3.021537e+01    7.057127e-01
  3.023125e+01    7.130682e-01
  3.024712e+01    7.026491e-01
  3.026300e+01    7.008771e-01
  3.027888e+01    7.067446e-01
  3.029475e+01    7.328174e-01
  3.031063e+01    7.034785e-01
  3.032650e+01    6.990690e-01
  3.034238e+01    7.320523e-01
  3.035825e+01    7.135959e-01
  3.037413e+01    7.013487e-01
  3.039000e+01    7.026280e-01
  3.040588e+01    7.081516e-01
  3.042176e+01    6.987562e-01
  3.043763e+01    7.190175e-01
  3.045351e+01    6.992028e-01
  3.046938e+01    7.051706e-01
  3.048526e+01    6.970962e-01
  3.050113e+01    7.094867e-01
  3.051701e+01    7.222239e-01
  3.053288e+01    7.154669e-01
  3.054876e+01    6.957345e-01
  3.056464e+01    7.077711e-01
  3.058051e+01    7.232213e-01
  3.059639e+01    7.040626e-01
  3.061226e+01    7.066633e-01
  3.062814e+01    7.171336e-01
  3.064401e+01    7.169924e-01
  3.065989e+01    7.254878e-01
  3.067577e+01    7.203007e-01
  3.069164e+01    7.240420e-01
  3.070752e+01    7.391922e-01
  3.072339e+01    7.123544e-01
  3.073927e+01    7.146477e-01
  3.075514e+01    7.169691e-01
  3.077102e+01    7.257669e-01
  3.078689e+01    7.048534e-01
  3.080277e+01    7.186308e-01
  3.081865e+01    7.286162e-01
  3.083452e+01    7.115928e-01
  3.085040e+01    6.926514e-01
  3.086627e+01    7.072325e-01
  3.088215e+01    7.181718e-01
  3.089802e+01    7.115811e-01
  3.091390e+01    7.181473e-01
  3.092977e+01    7.147134e-01
  3.094565e+01    7.140572e-01
  3.096153e+01    7.261844e-01
  3.097740e+01    7.086407e-01
  3.099328e+01    7.172322e-01
  3.100915e+01    7.249638e-01
  3.102503e+01    7.111269e-01
  3.104090e+01    7.162567e-01
  3.105678e+01    7.224851e-01
  3.107265e+01    7.340388e-01
  3.108853e+01    7.266341e-01
  3.110441e+01    7.302450e-01
  3.112028e+01    7.214549e-01
  3.113616e+01    7.226363e-01
  3.115203e+01    7.029922e-01
  3.116791e+01    7.164435e-01
  3.118378e+01    7.327442e-01
  3.119966e+01    7.357668e-01
  3.121553e+01    7.289664e-01
  3.123141e+01    7.166654e-01
  3.124729e+01    7.351411e-01
  3.126316e+01    7.175820e-01
  3.127904e+01    7.372093e-01
  3.129491e+01    7.399765e-01
  3.131079e+01    7.265896e-01
  3.132666e+01    7.472232e-01
  3.134254e+01    7.287125e-01
  3.135841e+01    7.150454e-01
  3.137429e+01    7.401323e-01
  3.139017e+01    7.524051e-01
  3.140604e+01    7.425916e-01
  3.142192e+01    7.521034e-01
  3.143779e+01    7.580200e-01
  3.145367e+01    7.551695e-01
  3.146954e+01    7.560104e-01
  3.148542e+01    7.674050e-01
  3.150129e+01    7.708668e-01
  3.151717e+01    7.681248e-01
  3.153305e+01    7.642838e-01
  3.154892e+01    7.724456e-01
  3.156480e+01    7.840741e-01
  3.158067e+01    7.825603e-01
  3.159655e+01    8.130339e-01
  3.161242e+01    8.201238e-01
  3.162830e+01    8.485610e-01
  3.164418e+01    8.473578e-01
  3.166005e+01    8.579729e-01
  3.167593e+01    9.082050e-01
  3.169180e+01    9.423184e-01
  3.170768e+01    9.646489e-01
  3.172355e+01    9.832069e-01
  3.173943e+01    1.052845e+00
  3.175530e+01    1.109678e+00
  3.177118e+01    1.151436e+00
  3.178706e+01    1.273318e+00
  3.180293e+01    1.387072e+00
  3.181881e+01    1.490116e+00
  3.183468e+01    1.652717e+00
  3.185056e+01    1.838186e+00
  3.186643e+01    1.921116e+00
  3.188231e+01    2.056240e+00
  3.189818e+01    2.133228e+00
  3.191406e+01    2.193153e+00
  3.192994e+01    2.171271e+00
  3.194581e+01    2.127529e+00
  3.196169e+01    2.005715e+00
  3.197756e+01    1.828513e+00
  3.199344e+01    1.669172e+00
  3.200931e+01    1.483230e+00
  3.202519e+01    1.392573e+00
  3.204106e+01    1.293865e+00
  3.205694e+01    1.169138e+00
  3.207282e+01    1.064831e+00
  3.208869e+01    1.028040e+00
  3.210457e+01    9.845170e-01
  3.212044e+01    9.309083e-01
  3.213632e+01    8.640022e-01
  3.215219e+01    8.733814e-01
  3.216807e+01    8.247047e-01
  3.218394e+01    8.204240e-01
  3.219982e+01    8.311778e-01
  3.221570e+01    8.168432e-01
  3.223157e+01    7.795885e-01
  3.224745e+01    7.623150e-01
  3.226332e+01    7.675589e-01
  3.227920e+01    7.667160e-01
  3.229507e+01    7.723361e-01
  3.231095e+01    7.338706e-01
  3.232682e+01    7.238723e-01
  3.234270e+01    7.497174e-01
  3.235858e+01    7.619348e-01
  3.237445e+01    7.671899e-01
  3.239033e+01    7.422948e-01
  3.240620e+01    7.204276e-01
  3.242208e+01    7.476256e-01
  3.243795e+01    7.148659e-01
  3.245383e+01    7.193853e-01
  3.246970e+01    7.219437e-01
  3.248558e+01    7.030208e-01
  3.250146e+01    7.114984e-01
  3.251733e+01    7.224546e-01
  3.253321e+01    6.950808e-01
  3.254908e+01    7.086017e-01
