# == pyFAI calibration ==
# Distance Sample to Detector: 0.3999999939076516 m
# PONI: 9.750e-02, 1.135e-01 m
# Rotations: -0.000175 0.000000 -0.000000 rad
# 
# == Fit2d calibration ==
# Distance Sample-beamCenter: 400.000 mm
# Center: x=1514.000, y=1300.000 pix
# Tilt: 0.010 deg  TiltPlanRot: 0.010 deg
# 
# Detector Detector	 Spline= None	 PixelSize= 7.500e-05, 7.500e-05 m
#    Detector has a mask: False 
#    Detector has a dark current: False 
#    detector has a flat field: False 
# 
# Wavelength: 6.888e-11 m
# Mask applied: user provided
# Dark current applied: False
# Flat field applied: False
# Polarization factor: 0.99
# Normalization factor: 1.0
# --> /home/myspot/data/2024_07_Rosario/Ru-CGO-ex/2024-07-27_002_Ru-CGO-ex_Activtation_ramp_000002_data_000145.dat
#       q_nm^-1             I 
  2.003187e-02    0.000000e+00
  3.590745e-02    3.427850e-02
  5.178302e-02    6.858626e-02
  6.765859e-02    9.339942e-02
  8.353417e-02    2.370593e-01
  9.940974e-02    1.833811e-01
  1.152853e-01    9.675020e-02
  1.311609e-01    1.252967e-02
  1.470365e-01    5.394838e-02
  1.629120e-01    5.010538e-02
  1.787876e-01    2.616778e-02
  1.946632e-01    5.020377e-02
  2.105388e-01    3.804375e-02
  2.264143e-01    2.134120e-03
  2.422899e-01    4.280229e-02
  2.581655e-01    3.748017e-02
  2.740411e-01    3.407299e-02
  2.899166e-01    5.296930e-02
  3.057922e-01    5.026530e-02
  3.216678e-01    2.653169e-02
  3.375433e-01    4.264852e-02
  3.534189e-01    5.557901e-02
  3.692945e-01    5.371254e-02
  3.851701e-01    4.105521e-02
  4.010456e-01    5.668724e-02
  4.169212e-01    1.398711e-02
  4.327968e-01    2.583658e-02
  4.486724e-01    5.083659e-02
  4.645479e-01    2.789045e-02
  4.804235e-01    3.899396e-02
  4.962991e-01    4.111330e-02
  5.121747e-01    2.584233e-02
  5.280502e-01    2.421867e-02
  5.439258e-01    2.458249e-02
  5.598014e-01    1.836484e-02
  5.756770e-01    3.350477e-02
  5.915525e-01    2.458166e-02
  6.074281e-01    5.082008e-02
  6.233037e-01    5.330486e-02
  6.391793e-01    4.168676e-02
  6.550548e-01    1.718619e-02
  6.709304e-01    1.239398e-02
  6.868060e-01    1.428793e-02
  7.026815e-01    2.434459e-02
  7.185571e-01    2.846751e-02
  7.344327e-01    4.795126e-02
  7.503083e-01    5.522383e-02
  7.661838e-01    6.854697e-02
  7.820594e-01    1.302311e-01
  7.979350e-01    1.843486e-01
  8.138106e-01    1.638962e-01
  8.296861e-01    2.088938e-01
  8.455617e-01    3.370217e-01
  8.614373e-01    3.554141e-01
  8.773129e-01    4.284513e-01
  8.931884e-01    4.752024e-01
  9.090640e-01    6.090485e-01
  9.249396e-01    6.952364e-01
  9.408152e-01    7.478272e-01
  9.566907e-01    8.093976e-01
  9.725663e-01    8.660740e-01
  9.884419e-01    8.823467e-01
  1.004317e+00    9.289008e-01
  1.020193e+00    1.044930e+00
  1.036069e+00    1.186062e+00
  1.051944e+00    1.359537e+00
  1.067820e+00    1.359249e+00
  1.083695e+00    1.401505e+00
  1.099571e+00    1.409426e+00
  1.115446e+00    1.387616e+00
  1.131322e+00    1.351878e+00
  1.147198e+00    1.474495e+00
  1.163073e+00    1.575858e+00
  1.178949e+00    1.566855e+00
  1.194824e+00    1.578375e+00
  1.210700e+00    1.785005e+00
  1.226575e+00    2.016479e+00
  1.242451e+00    2.211514e+00
  1.258327e+00    2.354405e+00
  1.274202e+00    2.284756e+00
  1.290078e+00    2.305651e+00
  1.305953e+00    2.432904e+00
  1.321829e+00    2.475992e+00
  1.337705e+00    2.504978e+00
  1.353580e+00    2.407344e+00
  1.369456e+00    2.375157e+00
  1.385331e+00    2.516674e+00
  1.401207e+00    2.722278e+00
  1.417082e+00    2.728277e+00
  1.432958e+00    2.654219e+00
  1.448834e+00    2.662470e+00
  1.464709e+00    2.735106e+00
  1.480585e+00    2.682400e+00
  1.496460e+00    2.719614e+00
  1.512336e+00    2.671646e+00
  1.528211e+00    2.868660e+00
  1.544087e+00    2.971707e+00
  1.559963e+00    2.875435e+00
  1.575838e+00    2.999082e+00
  1.591714e+00    2.995220e+00
  1.607589e+00    2.935615e+00
  1.623465e+00    3.041181e+00
  1.639340e+00    2.936671e+00
  1.655216e+00    2.834629e+00
  1.671092e+00    2.802913e+00
  1.686967e+00    2.694483e+00
  1.702843e+00    2.774228e+00
  1.718718e+00    2.975441e+00
  1.734594e+00    2.921757e+00
  1.750469e+00    2.894674e+00
  1.766345e+00    2.816644e+00
  1.782221e+00    2.677035e+00
  1.798096e+00    2.677654e+00
  1.813972e+00    2.725180e+00
  1.829847e+00    2.729042e+00
  1.845723e+00    2.674419e+00
  1.861598e+00    2.695383e+00
  1.877474e+00    2.679504e+00
  1.893350e+00    2.615794e+00
  1.909225e+00    2.748122e+00
  1.925101e+00    2.713552e+00
  1.940976e+00    2.716138e+00
  1.956852e+00    2.707186e+00
  1.972727e+00    2.829390e+00
  1.988603e+00    2.751990e+00
  2.004479e+00    2.734780e+00
  2.020354e+00    2.700220e+00
  2.036230e+00    2.640283e+00
  2.052105e+00    2.659404e+00
  2.067981e+00    2.741838e+00
  2.083856e+00    2.728685e+00
  2.099732e+00    2.663748e+00
  2.115608e+00    2.764782e+00
  2.131483e+00    2.755521e+00
  2.147359e+00    2.658141e+00
  2.163234e+00    2.715563e+00
  2.179110e+00    2.762553e+00
  2.194985e+00    2.632150e+00
  2.210861e+00    2.681204e+00
  2.226737e+00    2.696702e+00
  2.242612e+00    2.741236e+00
  2.258488e+00    2.803999e+00
  2.274363e+00    2.779294e+00
  2.290239e+00    2.763115e+00
  2.306115e+00    2.726243e+00
  2.321990e+00    2.706800e+00
  2.337866e+00    2.660339e+00
  2.353741e+00    2.729431e+00
  2.369617e+00    2.722264e+00
  2.385492e+00    2.764900e+00
  2.401368e+00    2.686882e+00
  2.417244e+00    2.780405e+00
  2.433119e+00    2.823955e+00
  2.448995e+00    2.779512e+00
  2.464870e+00    2.723455e+00
  2.480746e+00    2.623415e+00
  2.496621e+00    2.752238e+00
  2.512497e+00    2.836735e+00
  2.528373e+00    2.705926e+00
  2.544248e+00    2.735644e+00
  2.560124e+00    2.740726e+00
  2.575999e+00    2.817403e+00
  2.591875e+00    2.728747e+00
  2.607750e+00    2.790024e+00
  2.623626e+00    2.848636e+00
  2.639502e+00    2.765861e+00
  2.655377e+00    2.753620e+00
  2.671253e+00    2.752881e+00
  2.687128e+00    2.783303e+00
  2.703004e+00    2.808530e+00
  2.718879e+00    2.800480e+00
  2.734755e+00    2.764250e+00
  2.750631e+00    2.798839e+00
  2.766506e+00    2.764587e+00
  2.782382e+00    2.806901e+00
  2.798257e+00    2.807179e+00
  2.814133e+00    2.808570e+00
  2.830008e+00    2.771122e+00
  2.845884e+00    2.787464e+00
  2.861760e+00    2.813093e+00
  2.877635e+00    2.749438e+00
  2.893511e+00    2.893111e+00
  2.909386e+00    2.909034e+00
  2.925262e+00    2.871179e+00
  2.941137e+00    2.809463e+00
  2.957013e+00    2.888969e+00
  2.972889e+00    2.876688e+00
  2.988764e+00    2.956775e+00
  3.004640e+00    2.881918e+00
  3.020515e+00    2.765876e+00
  3.036391e+00    2.828554e+00
  3.052266e+00    2.875517e+00
  3.068142e+00    2.863759e+00
  3.084018e+00    2.864200e+00
  3.099893e+00    2.888244e+00
  3.115769e+00    2.810418e+00
  3.131644e+00    2.847565e+00
  3.147520e+00    2.865508e+00
  3.163395e+00    2.840667e+00
  3.179271e+00    2.889007e+00
  3.195147e+00    2.861185e+00
  3.211022e+00    2.845914e+00
  3.226898e+00    2.912807e+00
  3.242773e+00    2.931203e+00
  3.258649e+00    2.911490e+00
  3.274525e+00    2.926208e+00
  3.290400e+00    2.902118e+00
  3.306276e+00    2.887957e+00
  3.322151e+00    2.958121e+00
  3.338027e+00    3.020888e+00
  3.353902e+00    2.950720e+00
  3.369778e+00    2.909823e+00
  3.385654e+00    2.908610e+00
  3.401529e+00    2.818239e+00
  3.417405e+00    2.946147e+00
  3.433280e+00    3.001002e+00
  3.449156e+00    2.903939e+00
  3.465031e+00    2.866897e+00
  3.480907e+00    2.891170e+00
  3.496783e+00    2.978244e+00
  3.512658e+00    2.999368e+00
  3.528534e+00    2.964892e+00
  3.544409e+00    2.927685e+00
  3.560285e+00    2.874736e+00
  3.576160e+00    2.923676e+00
  3.592036e+00    2.996979e+00
  3.607912e+00    2.956623e+00
  3.623787e+00    2.931191e+00
  3.639663e+00    2.895836e+00
  3.655538e+00    2.997336e+00
  3.671414e+00    3.006585e+00
  3.687289e+00    2.990239e+00
  3.703165e+00    2.966155e+00
  3.719041e+00    2.972546e+00
  3.734916e+00    3.026445e+00
  3.750792e+00    3.010718e+00
  3.766667e+00    2.883967e+00
  3.782543e+00    2.926979e+00
  3.798418e+00    2.948641e+00
  3.814294e+00    2.971404e+00
  3.830170e+00    3.046475e+00
  3.846045e+00    3.033019e+00
  3.861921e+00    3.008200e+00
  3.877796e+00    3.016440e+00
  3.893672e+00    2.897180e+00
  3.909547e+00    2.906816e+00
  3.925423e+00    3.075965e+00
  3.941299e+00    3.071032e+00
  3.957174e+00    3.042636e+00
  3.973050e+00    3.076879e+00
  3.988925e+00    3.027887e+00
  4.004801e+00    2.849999e+00
  4.020676e+00    2.967013e+00
  4.036552e+00    3.048963e+00
  4.052428e+00    3.059053e+00
  4.068303e+00    3.039441e+00
  4.084179e+00    2.996311e+00
  4.100054e+00    2.994012e+00
  4.115930e+00    3.041023e+00
  4.131806e+00    3.062152e+00
  4.147681e+00    3.066183e+00
  4.163557e+00    3.017671e+00
  4.179432e+00    3.034670e+00
  4.195308e+00    3.052298e+00
  4.211183e+00    3.091600e+00
  4.227059e+00    3.061646e+00
  4.242935e+00    3.083458e+00
  4.258810e+00    3.045862e+00
  4.274686e+00    3.089240e+00
  4.290561e+00    3.044949e+00
  4.306437e+00    2.997168e+00
  4.322312e+00    3.002155e+00
  4.338188e+00    3.093812e+00
  4.354064e+00    3.144454e+00
  4.369939e+00    3.028007e+00
  4.385815e+00    3.031202e+00
  4.401690e+00    3.056181e+00
  4.417566e+00    3.040653e+00
  4.433441e+00    3.056615e+00
  4.449317e+00    3.024413e+00
  4.465193e+00    3.082782e+00
  4.481068e+00    3.069422e+00
  4.496944e+00    3.063459e+00
  4.512819e+00    3.100160e+00
  4.528695e+00    3.079173e+00
  4.544570e+00    3.044748e+00
  4.560446e+00    3.013607e+00
  4.576322e+00    3.041411e+00
  4.592197e+00    3.043624e+00
  4.608073e+00    3.037331e+00
  4.623948e+00    3.045676e+00
  4.639824e+00    3.042750e+00
  4.655699e+00    3.072450e+00
  4.671575e+00    3.099126e+00
  4.687451e+00    3.084712e+00
  4.703326e+00    3.046107e+00
  4.719202e+00    3.051796e+00
  4.735077e+00    3.121368e+00
  4.750953e+00    3.164321e+00
  4.766828e+00    3.092425e+00
  4.782704e+00    3.100295e+00
  4.798580e+00    3.077011e+00
  4.814455e+00    3.116137e+00
  4.830331e+00    3.105784e+00
  4.846206e+00    3.096469e+00
  4.862082e+00    3.029858e+00
  4.877957e+00    3.033333e+00
  4.893833e+00    3.051101e+00
  4.909709e+00    3.095956e+00
  4.925584e+00    3.042270e+00
  4.941460e+00    3.142467e+00
  4.957335e+00    3.030989e+00
  4.973211e+00    3.003222e+00
  4.989086e+00    3.085973e+00
  5.004962e+00    3.079765e+00
  5.020838e+00    3.086761e+00
  5.036713e+00    3.113569e+00
  5.052589e+00    3.103886e+00
  5.068464e+00    3.143191e+00
  5.084340e+00    3.141523e+00
  5.100216e+00    3.167219e+00
  5.116091e+00    3.143229e+00
  5.131967e+00    3.103204e+00
  5.147842e+00    3.141766e+00
  5.163718e+00    3.149420e+00
  5.179593e+00    3.126012e+00
  5.195469e+00    3.141856e+00
  5.211345e+00    3.119166e+00
  5.227220e+00    3.172102e+00
  5.243096e+00    3.177407e+00
  5.258971e+00    3.191638e+00
  5.274847e+00    3.141358e+00
  5.290722e+00    3.060287e+00
  5.306598e+00    3.086601e+00
  5.322474e+00    3.103590e+00
  5.338349e+00    3.066189e+00
  5.354225e+00    3.107980e+00
  5.370100e+00    3.099243e+00
  5.385976e+00    3.103929e+00
  5.401851e+00    3.140773e+00
  5.417727e+00    3.205271e+00
  5.433603e+00    3.108325e+00
  5.449478e+00    3.128097e+00
  5.465354e+00    3.128556e+00
  5.481229e+00    3.076787e+00
  5.497105e+00    3.059301e+00
  5.512980e+00    3.053185e+00
  5.528856e+00    2.995703e+00
  5.544732e+00    3.028626e+00
  5.560607e+00    3.127916e+00
  5.576483e+00    3.192871e+00
  5.592358e+00    3.064983e+00
  5.608234e+00    3.159817e+00
  5.624109e+00    3.182650e+00
  5.639985e+00    3.139591e+00
  5.655861e+00    3.116755e+00
  5.671736e+00    3.095343e+00
  5.687612e+00    3.100810e+00
  5.703487e+00    3.062596e+00
  5.719363e+00    3.048304e+00
  5.735238e+00    3.057696e+00
  5.751114e+00    3.012909e+00
  5.766990e+00    3.030591e+00
  5.782865e+00    2.976960e+00
  5.798741e+00    2.967956e+00
  5.814616e+00    3.065407e+00
  5.830492e+00    3.057104e+00
  5.846367e+00    3.056947e+00
  5.862243e+00    2.974572e+00
  5.878119e+00    2.964963e+00
  5.893994e+00    3.090376e+00
  5.909870e+00    3.055928e+00
  5.925745e+00    2.970202e+00
  5.941621e+00    2.958971e+00
  5.957497e+00    2.996268e+00
  5.973372e+00    2.996186e+00
  5.989248e+00    2.980231e+00
  6.005123e+00    3.017072e+00
  6.020999e+00    3.010455e+00
  6.036874e+00    3.073587e+00
  6.052750e+00    3.135321e+00
  6.068626e+00    3.060382e+00
  6.084501e+00    3.023242e+00
  6.100377e+00    3.059220e+00
  6.116252e+00    3.051108e+00
  6.132128e+00    3.034384e+00
  6.148003e+00    3.020818e+00
  6.163879e+00    3.062081e+00
  6.179755e+00    3.057691e+00
  6.195630e+00    3.098205e+00
  6.211506e+00    3.127240e+00
  6.227381e+00    3.103897e+00
  6.243257e+00    3.008776e+00
  6.259132e+00    3.035806e+00
  6.275008e+00    2.994179e+00
  6.290884e+00    3.074071e+00
  6.306759e+00    3.140462e+00
  6.322635e+00    3.061866e+00
  6.338510e+00    3.051715e+00
  6.354386e+00    3.040616e+00
  6.370261e+00    3.036083e+00
  6.386137e+00    3.062495e+00
  6.402013e+00    3.118712e+00
  6.417888e+00    3.069998e+00
  6.433764e+00    3.064397e+00
  6.449639e+00    3.002056e+00
  6.465515e+00    3.036662e+00
  6.481390e+00    3.046704e+00
  6.497266e+00    3.022260e+00
  6.513142e+00    3.046141e+00
  6.529017e+00    3.069511e+00
  6.544893e+00    2.999863e+00
  6.560768e+00    2.970195e+00
  6.576644e+00    2.996255e+00
  6.592519e+00    3.001289e+00
  6.608395e+00    3.051024e+00
  6.624271e+00    3.027179e+00
  6.640146e+00    2.986572e+00
  6.656022e+00    3.021694e+00
  6.671897e+00    3.083599e+00
  6.687773e+00    3.040505e+00
  6.703648e+00    3.007056e+00
  6.719524e+00    2.956528e+00
  6.735400e+00    2.959023e+00
  6.751275e+00    3.034629e+00
  6.767151e+00    3.032347e+00
  6.783026e+00    3.005005e+00
  6.798902e+00    3.008938e+00
  6.814777e+00    3.051206e+00
  6.830653e+00    3.006605e+00
  6.846529e+00    3.028762e+00
  6.862404e+00    3.030719e+00
  6.878280e+00    3.059157e+00
  6.894155e+00    3.066127e+00
  6.910031e+00    3.067626e+00
  6.925907e+00    3.009153e+00
  6.941782e+00    2.988670e+00
  6.957658e+00    3.021640e+00
  6.973533e+00    3.013398e+00
  6.989409e+00    2.995152e+00
  7.005284e+00    2.969366e+00
  7.021160e+00    3.040795e+00
  7.037036e+00    3.045539e+00
  7.052911e+00    3.008906e+00
  7.068787e+00    3.026169e+00
  7.084662e+00    3.030041e+00
  7.100538e+00    2.963195e+00
  7.116413e+00    2.979969e+00
  7.132289e+00    3.015481e+00
  7.148165e+00    3.001139e+00
  7.164040e+00    3.049665e+00
  7.179916e+00    3.029867e+00
  7.195791e+00    2.984985e+00
  7.211667e+00    2.991337e+00
  7.227542e+00    3.018317e+00
  7.243418e+00    2.983970e+00
  7.259294e+00    2.986393e+00
  7.275169e+00    3.029464e+00
  7.291045e+00    2.999990e+00
  7.306920e+00    2.990000e+00
  7.322796e+00    2.918941e+00
  7.338671e+00    2.926552e+00
  7.354547e+00    2.969724e+00
  7.370423e+00    2.939108e+00
  7.386298e+00    2.952973e+00
  7.402174e+00    2.989056e+00
  7.418049e+00    3.011634e+00
  7.433925e+00    2.939787e+00
  7.449800e+00    2.987172e+00
  7.465676e+00    2.983332e+00
  7.481552e+00    2.980674e+00
  7.497427e+00    2.973940e+00
  7.513303e+00    3.023125e+00
  7.529178e+00    2.971972e+00
  7.545054e+00    2.978929e+00
  7.560929e+00    2.955855e+00
  7.576805e+00    2.989652e+00
  7.592681e+00    2.977205e+00
  7.608556e+00    2.924266e+00
  7.624432e+00    2.983217e+00
  7.640307e+00    2.948161e+00
  7.656183e+00    2.949505e+00
  7.672058e+00    2.908767e+00
  7.687934e+00    2.916529e+00
  7.703810e+00    2.988852e+00
  7.719685e+00    2.966910e+00
  7.735561e+00    2.921156e+00
  7.751436e+00    2.969424e+00
  7.767312e+00    2.873394e+00
  7.783187e+00    2.875534e+00
  7.799063e+00    2.876427e+00
  7.814939e+00    2.864835e+00
  7.830814e+00    2.918052e+00
  7.846690e+00    2.906809e+00
  7.862565e+00    2.956806e+00
  7.878441e+00    2.966609e+00
  7.894317e+00    3.022885e+00
  7.910192e+00    3.014776e+00
  7.926068e+00    2.934292e+00
  7.941943e+00    2.936803e+00
  7.957819e+00    2.950052e+00
  7.973694e+00    2.867369e+00
  7.989570e+00    2.946741e+00
  8.005446e+00    3.013587e+00
  8.021321e+00    2.957403e+00
  8.037197e+00    2.888425e+00
  8.053072e+00    2.937329e+00
  8.068948e+00    2.946969e+00
  8.084823e+00    2.925125e+00
  8.100699e+00    2.900434e+00
  8.116575e+00    2.952005e+00
  8.132450e+00    2.955705e+00
  8.148326e+00    2.964437e+00
  8.164201e+00    2.976044e+00
  8.180077e+00    2.948216e+00
  8.195952e+00    2.942674e+00
  8.211828e+00    2.961724e+00
  8.227704e+00    2.972111e+00
  8.243579e+00    2.962679e+00
  8.259455e+00    2.953540e+00
  8.275330e+00    2.907532e+00
  8.291206e+00    2.929336e+00
  8.307081e+00    2.918934e+00
  8.322957e+00    2.852463e+00
  8.338833e+00    2.829286e+00
  8.354708e+00    2.869403e+00
  8.370584e+00    2.866896e+00
  8.386459e+00    2.897719e+00
  8.402335e+00    2.908285e+00
  8.418210e+00    2.884056e+00
  8.434086e+00    2.886889e+00
  8.449962e+00    2.874725e+00
  8.465837e+00    2.841558e+00
  8.481713e+00    2.852541e+00
  8.497588e+00    2.871006e+00
  8.513464e+00    2.868040e+00
  8.529339e+00    2.784656e+00
  8.545215e+00    2.778115e+00
  8.561091e+00    2.864672e+00
  8.576966e+00    2.852823e+00
  8.592842e+00    2.856920e+00
  8.608717e+00    2.855749e+00
  8.624593e+00    2.902391e+00
  8.640468e+00    2.856671e+00
  8.656344e+00    2.887335e+00
  8.672220e+00    2.890522e+00
  8.688095e+00    2.873599e+00
  8.703971e+00    2.886326e+00
  8.719846e+00    2.869094e+00
  8.735722e+00    2.915758e+00
  8.751598e+00    2.835248e+00
  8.767473e+00    2.850212e+00
  8.783349e+00    2.871364e+00
  8.799224e+00    2.840394e+00
  8.815100e+00    2.836133e+00
  8.830975e+00    2.843393e+00
  8.846851e+00    2.846738e+00
  8.862727e+00    2.793934e+00
  8.878602e+00    2.792310e+00
  8.894478e+00    2.798609e+00
  8.910353e+00    2.779493e+00
  8.926229e+00    2.787609e+00
  8.942104e+00    2.801510e+00
  8.957980e+00    2.857179e+00
  8.973856e+00    2.860189e+00
  8.989731e+00    2.836605e+00
  9.005607e+00    2.832839e+00
  9.021482e+00    2.855179e+00
  9.037358e+00    2.833031e+00
  9.053233e+00    2.845035e+00
  9.069109e+00    2.855061e+00
  9.084985e+00    2.790810e+00
  9.100860e+00    2.759656e+00
  9.116736e+00    2.721876e+00
  9.132611e+00    2.757617e+00
  9.148487e+00    2.788037e+00
  9.164362e+00    2.810068e+00
  9.180238e+00    2.796615e+00
  9.196114e+00    2.772579e+00
  9.211989e+00    2.767546e+00
  9.227865e+00    2.804529e+00
  9.243740e+00    2.776556e+00
  9.259616e+00    2.812722e+00
  9.275491e+00    2.804502e+00
  9.291367e+00    2.724161e+00
  9.307243e+00    2.790705e+00
  9.323118e+00    2.751960e+00
  9.338994e+00    2.753088e+00
  9.354869e+00    2.775580e+00
  9.370745e+00    2.729896e+00
  9.386620e+00    2.765949e+00
  9.402496e+00    2.778139e+00
  9.418372e+00    2.799519e+00
  9.434247e+00    2.828168e+00
  9.450123e+00    2.805482e+00
  9.465998e+00    2.759417e+00
  9.481874e+00    2.787103e+00
  9.497749e+00    2.722014e+00
  9.513625e+00    2.728219e+00
  9.529501e+00    2.746572e+00
  9.545376e+00    2.737017e+00
  9.561252e+00    2.736454e+00
  9.577127e+00    2.731099e+00
  9.593003e+00    2.733022e+00
  9.608878e+00    2.764492e+00
  9.624754e+00    2.693839e+00
  9.640630e+00    2.718966e+00
  9.656505e+00    2.765374e+00
  9.672381e+00    2.752622e+00
  9.688256e+00    2.753393e+00
  9.704132e+00    2.721827e+00
  9.720008e+00    2.727659e+00
  9.735883e+00    2.729254e+00
  9.751759e+00    2.748322e+00
  9.767634e+00    2.716778e+00
  9.783510e+00    2.699803e+00
  9.799385e+00    2.700981e+00
  9.815261e+00    2.696227e+00
  9.831137e+00    2.743154e+00
  9.847012e+00    2.725816e+00
  9.862888e+00    2.740899e+00
  9.878763e+00    2.695343e+00
  9.894639e+00    2.646701e+00
  9.910514e+00    2.652832e+00
  9.926390e+00    2.666435e+00
  9.942266e+00    2.682144e+00
  9.958141e+00    2.675493e+00
  9.974017e+00    2.650287e+00
  9.989892e+00    2.668993e+00
  1.000577e+01    2.618801e+00
  1.002164e+01    2.673796e+00
  1.003752e+01    2.683850e+00
  1.005339e+01    2.671045e+00
  1.006927e+01    2.675661e+00
  1.008515e+01    2.672910e+00
  1.010102e+01    2.684633e+00
  1.011690e+01    2.661231e+00
  1.013277e+01    2.683756e+00
  1.014865e+01    2.615642e+00
  1.016452e+01    2.625628e+00
  1.018040e+01    2.628583e+00
  1.019627e+01    2.600762e+00
  1.021215e+01    2.625136e+00
  1.022803e+01    2.593404e+00
  1.024390e+01    2.584719e+00
  1.025978e+01    2.591741e+00
  1.027565e+01    2.623626e+00
  1.029153e+01    2.623451e+00
  1.030740e+01    2.631913e+00
  1.032328e+01    2.637473e+00
  1.033915e+01    2.635701e+00
  1.035503e+01    2.584503e+00
  1.037091e+01    2.565765e+00
  1.038678e+01    2.616122e+00
  1.040266e+01    2.631577e+00
  1.041853e+01    2.607121e+00
  1.043441e+01    2.597996e+00
  1.045028e+01    2.600145e+00
  1.046616e+01    2.609110e+00
  1.048204e+01    2.614718e+00
  1.049791e+01    2.578746e+00
  1.051379e+01    2.606117e+00
  1.052966e+01    2.610769e+00
  1.054554e+01    2.571582e+00
  1.056141e+01    2.573342e+00
  1.057729e+01    2.599035e+00
  1.059316e+01    2.574719e+00
  1.060904e+01    2.550521e+00
  1.062492e+01    2.541816e+00
  1.064079e+01    2.557887e+00
  1.065667e+01    2.589442e+00
  1.067254e+01    2.563841e+00
  1.068842e+01    2.551614e+00
  1.070429e+01    2.512592e+00
  1.072017e+01    2.517155e+00
  1.073604e+01    2.520819e+00
  1.075192e+01    2.559942e+00
  1.076780e+01    2.509866e+00
  1.078367e+01    2.492004e+00
  1.079955e+01    2.530285e+00
  1.081542e+01    2.559352e+00
  1.083130e+01    2.549733e+00
  1.084717e+01    2.501878e+00
  1.086305e+01    2.539504e+00
  1.087892e+01    2.577884e+00
  1.089480e+01    2.560230e+00
  1.091068e+01    2.538249e+00
  1.092655e+01    2.478301e+00
  1.094243e+01    2.505325e+00
  1.095830e+01    2.483478e+00
  1.097418e+01    2.459416e+00
  1.099005e+01    2.495194e+00
  1.100593e+01    2.455812e+00
  1.102180e+01    2.482191e+00
  1.103768e+01    2.468503e+00
  1.105356e+01    2.455595e+00
  1.106943e+01    2.429371e+00
  1.108531e+01    2.489729e+00
  1.110118e+01    2.496464e+00
  1.111706e+01    2.459763e+00
  1.113293e+01    2.429721e+00
  1.114881e+01    2.419333e+00
  1.116468e+01    2.479600e+00
  1.118056e+01    2.470576e+00
  1.119644e+01    2.442607e+00
  1.121231e+01    2.439573e+00
  1.122819e+01    2.498172e+00
  1.124406e+01    2.498230e+00
  1.125994e+01    2.447043e+00
  1.127581e+01    2.483624e+00
  1.129169e+01    2.466468e+00
  1.130756e+01    2.448008e+00
  1.132344e+01    2.452615e+00
  1.133932e+01    2.451250e+00
  1.135519e+01    2.453735e+00
  1.137107e+01    2.462995e+00
  1.138694e+01    2.426899e+00
  1.140282e+01    2.405024e+00
  1.141869e+01    2.402691e+00
  1.143457e+01    2.452056e+00
  1.145045e+01    2.430211e+00
  1.146632e+01    2.437421e+00
  1.148220e+01    2.415628e+00
  1.149807e+01    2.383344e+00
  1.151395e+01    2.436566e+00
  1.152982e+01    2.408569e+00
  1.154570e+01    2.377608e+00
  1.156157e+01    2.343040e+00
  1.157745e+01    2.378370e+00
  1.159333e+01    2.369951e+00
  1.160920e+01    2.343338e+00
  1.162508e+01    2.396424e+00
  1.164095e+01    2.381192e+00
  1.165683e+01    2.423124e+00
  1.167270e+01    2.424528e+00
  1.168858e+01    2.395958e+00
  1.170445e+01    2.360481e+00
  1.172033e+01    2.369658e+00
  1.173621e+01    2.347772e+00
  1.175208e+01    2.355648e+00
  1.176796e+01    2.354830e+00
  1.178383e+01    2.362880e+00
  1.179971e+01    2.350822e+00
  1.181558e+01    2.319989e+00
  1.183146e+01    2.346865e+00
  1.184733e+01    2.295638e+00
  1.186321e+01    2.321043e+00
  1.187909e+01    2.372328e+00
  1.189496e+01    2.377143e+00
  1.191084e+01    2.366015e+00
  1.192671e+01    2.377893e+00
  1.194259e+01    2.352130e+00
  1.195846e+01    2.333402e+00
  1.197434e+01    2.314573e+00
  1.199021e+01    2.334799e+00
  1.200609e+01    2.333134e+00
  1.202197e+01    2.335193e+00
  1.203784e+01    2.366447e+00
  1.205372e+01    2.335703e+00
  1.206959e+01    2.318105e+00
  1.208547e+01    2.319377e+00
  1.210134e+01    2.350047e+00
  1.211722e+01    2.349100e+00
  1.213309e+01    2.303943e+00
  1.214897e+01    2.305816e+00
  1.216485e+01    2.337176e+00
  1.218072e+01    2.326145e+00
  1.219660e+01    2.282255e+00
  1.221247e+01    2.280274e+00
  1.222835e+01    2.265954e+00
  1.224422e+01    2.335265e+00
  1.226010e+01    2.346414e+00
  1.227597e+01    2.333261e+00
  1.229185e+01    2.349288e+00
  1.230773e+01    2.291341e+00
  1.232360e+01    2.291834e+00
  1.233948e+01    2.349911e+00
  1.235535e+01    2.333283e+00
  1.237123e+01    2.341872e+00
  1.238710e+01    2.346798e+00
  1.240298e+01    2.341183e+00
  1.241886e+01    2.293700e+00
  1.243473e+01    2.279625e+00
  1.245061e+01    2.279682e+00
  1.246648e+01    2.312345e+00
  1.248236e+01    2.340148e+00
  1.249823e+01    2.330696e+00
  1.251411e+01    2.344703e+00
  1.252998e+01    2.334542e+00
  1.254586e+01    2.326150e+00
  1.256174e+01    2.330386e+00
  1.257761e+01    2.364168e+00
  1.259349e+01    2.395276e+00
  1.260936e+01    2.381007e+00
  1.262524e+01    2.404280e+00
  1.264111e+01    2.408102e+00
  1.265699e+01    2.450978e+00
  1.267286e+01    2.485284e+00
  1.268874e+01    2.467945e+00
  1.270462e+01    2.509829e+00
  1.272049e+01    2.527238e+00
  1.273637e+01    2.486492e+00
  1.275224e+01    2.547420e+00
  1.276812e+01    2.557712e+00
  1.278399e+01    2.559685e+00
  1.279987e+01    2.637362e+00
  1.281574e+01    2.691115e+00
  1.283162e+01    2.735122e+00
  1.284750e+01    2.816323e+00
  1.286337e+01    2.933371e+00
  1.287925e+01    3.053066e+00
  1.289512e+01    3.138597e+00
  1.291100e+01    3.293911e+00
  1.292687e+01    3.495501e+00
  1.294275e+01    3.718586e+00
  1.295862e+01    3.968858e+00
  1.297450e+01    4.369729e+00
  1.299038e+01    4.870762e+00
  1.300625e+01    5.458383e+00
  1.302213e+01    6.207527e+00
  1.303800e+01    7.182247e+00
  1.305388e+01    8.234373e+00
  1.306975e+01    9.476314e+00
  1.308563e+01    1.081226e+01
  1.310150e+01    1.204968e+01
  1.311738e+01    1.331306e+01
  1.313326e+01    1.448487e+01
  1.314913e+01    1.557748e+01
  1.316501e+01    1.652335e+01
  1.318088e+01    1.677802e+01
  1.319676e+01    1.647195e+01
  1.321263e+01    1.527287e+01
  1.322851e+01    1.342262e+01
  1.324438e+01    1.145452e+01
  1.326026e+01    9.640117e+00
  1.327614e+01    8.093656e+00
  1.329201e+01    6.938953e+00
  1.330789e+01    5.993694e+00
  1.332376e+01    5.227310e+00
  1.333964e+01    4.654209e+00
  1.335551e+01    4.264519e+00
  1.337139e+01    3.920863e+00
  1.338727e+01    3.631303e+00
  1.340314e+01    3.407343e+00
  1.341902e+01    3.207679e+00
  1.343489e+01    3.077832e+00
  1.345077e+01    2.950866e+00
  1.346664e+01    2.828806e+00
  1.348252e+01    2.728607e+00
  1.349839e+01    2.664322e+00
  1.351427e+01    2.574158e+00
  1.353015e+01    2.530237e+00
  1.354602e+01    2.488864e+00
  1.356190e+01    2.418991e+00
  1.357777e+01    2.427768e+00
  1.359365e+01    2.419975e+00
  1.360952e+01    2.385448e+00
  1.362540e+01    2.325008e+00
  1.364127e+01    2.301394e+00
  1.365715e+01    2.278314e+00
  1.367303e+01    2.251212e+00
  1.368890e+01    2.228800e+00
  1.370478e+01    2.253806e+00
  1.372065e+01    2.236806e+00
  1.373653e+01    2.202689e+00
  1.375240e+01    2.208473e+00
  1.376828e+01    2.175720e+00
  1.378415e+01    2.139869e+00
  1.380003e+01    2.120287e+00
  1.381591e+01    2.164330e+00
  1.383178e+01    2.143959e+00
  1.384766e+01    2.143819e+00
  1.386353e+01    2.116026e+00
  1.387941e+01    2.098390e+00
  1.389528e+01    2.107773e+00
  1.391116e+01    2.063672e+00
  1.392703e+01    2.050627e+00
  1.394291e+01    2.051309e+00
  1.395879e+01    2.056257e+00
  1.397466e+01    2.049178e+00
  1.399054e+01    2.095659e+00
  1.400641e+01    2.105717e+00
  1.402229e+01    2.021155e+00
  1.403816e+01    1.982134e+00
  1.405404e+01    1.994394e+00
  1.406991e+01    1.965845e+00
  1.408579e+01    2.030340e+00
  1.410167e+01    2.007340e+00
  1.411754e+01    2.001848e+00
  1.413342e+01    2.000803e+00
  1.414929e+01    2.024210e+00
  1.416517e+01    2.006102e+00
  1.418104e+01    1.979903e+00
  1.419692e+01    2.011897e+00
  1.421279e+01    1.999195e+00
  1.422867e+01    1.987940e+00
  1.424455e+01    1.947794e+00
  1.426042e+01    1.939485e+00
  1.427630e+01    1.981587e+00
  1.429217e+01    1.991704e+00
  1.430805e+01    1.960516e+00
  1.432392e+01    1.953788e+00
  1.433980e+01    1.955451e+00
  1.435568e+01    1.956407e+00
  1.437155e+01    1.949889e+00
  1.438743e+01    1.938289e+00
  1.440330e+01    1.945661e+00
  1.441918e+01    1.932278e+00
  1.443505e+01    1.946714e+00
  1.445093e+01    1.939740e+00
  1.446680e+01    1.910283e+00
  1.448268e+01    1.923446e+00
  1.449856e+01    1.910234e+00
  1.451443e+01    1.885597e+00
  1.453031e+01    1.899991e+00
  1.454618e+01    1.892001e+00
  1.456206e+01    1.900230e+00
  1.457793e+01    1.911841e+00
  1.459381e+01    1.892106e+00
  1.460968e+01    1.887215e+00
  1.462556e+01    1.889515e+00
  1.464144e+01    1.875791e+00
  1.465731e+01    1.890459e+00
  1.467319e+01    1.879850e+00
  1.468906e+01    1.894616e+00
  1.470494e+01    1.892823e+00
  1.472081e+01    1.892076e+00
  1.473669e+01    1.903095e+00
  1.475256e+01    1.903702e+00
  1.476844e+01    1.908236e+00
  1.478432e+01    1.900134e+00
  1.480019e+01    1.904175e+00
  1.481607e+01    1.936343e+00
  1.483194e+01    1.905881e+00
  1.484782e+01    1.933581e+00
  1.486369e+01    1.921754e+00
  1.487957e+01    1.897504e+00
  1.489544e+01    1.988626e+00
  1.491132e+01    2.000134e+00
  1.492720e+01    1.965256e+00
  1.494307e+01    2.029074e+00
  1.495895e+01    2.030726e+00
  1.497482e+01    2.038751e+00
  1.499070e+01    2.084989e+00
  1.500657e+01    2.134247e+00
  1.502245e+01    2.188573e+00
  1.503832e+01    2.253047e+00
  1.505420e+01    2.378619e+00
  1.507008e+01    2.550834e+00
  1.508595e+01    2.703936e+00
  1.510183e+01    2.857099e+00
  1.511770e+01    3.104030e+00
  1.513358e+01    3.448071e+00
  1.514945e+01    3.798327e+00
  1.516533e+01    4.219300e+00
  1.518120e+01    4.528649e+00
  1.519708e+01    4.825912e+00
  1.521296e+01    5.177735e+00
  1.522883e+01    5.426946e+00
  1.524471e+01    5.556691e+00
  1.526058e+01    5.682336e+00
  1.527646e+01    5.741970e+00
  1.529233e+01    5.562301e+00
  1.530821e+01    5.208482e+00
  1.532409e+01    4.716539e+00
  1.533996e+01    4.243237e+00
  1.535584e+01    3.808084e+00
  1.537171e+01    3.353896e+00
  1.538759e+01    3.022304e+00
  1.540346e+01    2.762111e+00
  1.541934e+01    2.578062e+00
  1.543521e+01    2.423356e+00
  1.545109e+01    2.318925e+00
  1.546697e+01    2.247165e+00
  1.548284e+01    2.134743e+00
  1.549872e+01    2.048361e+00
  1.551459e+01    2.030333e+00
  1.553047e+01    1.965552e+00
  1.554634e+01    1.922329e+00
  1.556222e+01    1.906615e+00
  1.557809e+01    1.891890e+00
  1.559397e+01    1.823673e+00
  1.560985e+01    1.800469e+00
  1.562572e+01    1.790266e+00
  1.564160e+01    1.785997e+00
  1.565747e+01    1.743289e+00
  1.567335e+01    1.767645e+00
  1.568922e+01    1.792979e+00
  1.570510e+01    1.766548e+00
  1.572097e+01    1.722517e+00
  1.573685e+01    1.727204e+00
  1.575273e+01    1.693797e+00
  1.576860e+01    1.665090e+00
  1.578448e+01    1.686099e+00
  1.580035e+01    1.676401e+00
  1.581623e+01    1.691276e+00
  1.583210e+01    1.671770e+00
  1.584798e+01    1.655603e+00
  1.586385e+01    1.708056e+00
  1.587973e+01    1.668523e+00
  1.589561e+01    1.630186e+00
  1.591148e+01    1.658713e+00
  1.592736e+01    1.655043e+00
  1.594323e+01    1.615400e+00
  1.595911e+01    1.625542e+00
  1.597498e+01    1.648832e+00
  1.599086e+01    1.638625e+00
  1.600673e+01    1.592405e+00
  1.602261e+01    1.583463e+00
  1.603849e+01    1.587456e+00
  1.605436e+01    1.588815e+00
  1.607024e+01    1.592423e+00
  1.608611e+01    1.621831e+00
  1.610199e+01    1.600383e+00
  1.611786e+01    1.585980e+00
  1.613374e+01    1.568081e+00
  1.614961e+01    1.561917e+00
  1.616549e+01    1.574318e+00
  1.618137e+01    1.591549e+00
  1.619724e+01    1.590914e+00
  1.621312e+01    1.540404e+00
  1.622899e+01    1.563661e+00
  1.624487e+01    1.590294e+00
  1.626074e+01    1.541516e+00
  1.627662e+01    1.512506e+00
  1.629250e+01    1.508160e+00
  1.630837e+01    1.544227e+00
  1.632425e+01    1.549280e+00
  1.634012e+01    1.513604e+00
  1.635600e+01    1.507696e+00
  1.637187e+01    1.559568e+00
  1.638775e+01    1.545537e+00
  1.640362e+01    1.506319e+00
  1.641950e+01    1.508745e+00
  1.643538e+01    1.531548e+00
  1.645125e+01    1.526604e+00
  1.646713e+01    1.526103e+00
  1.648300e+01    1.505797e+00
  1.649888e+01    1.493875e+00
  1.651475e+01    1.540293e+00
  1.653063e+01    1.518093e+00
  1.654650e+01    1.493846e+00
  1.656238e+01    1.514034e+00
  1.657826e+01    1.521377e+00
  1.659413e+01    1.494375e+00
  1.661001e+01    1.465488e+00
  1.662588e+01    1.476811e+00
  1.664176e+01    1.505662e+00
  1.665763e+01    1.501825e+00
  1.667351e+01    1.481313e+00
  1.668938e+01    1.480044e+00
  1.670526e+01    1.485228e+00
  1.672114e+01    1.468219e+00
  1.673701e+01    1.468595e+00
  1.675289e+01    1.446884e+00
  1.676876e+01    1.451338e+00
  1.678464e+01    1.461754e+00
  1.680051e+01    1.433522e+00
  1.681639e+01    1.468729e+00
  1.683226e+01    1.441188e+00
  1.684814e+01    1.430577e+00
  1.686402e+01    1.452070e+00
  1.687989e+01    1.425954e+00
  1.689577e+01    1.438705e+00
  1.691164e+01    1.452776e+00
  1.692752e+01    1.431571e+00
  1.694339e+01    1.449805e+00
  1.695927e+01    1.456825e+00
  1.697514e+01    1.437359e+00
  1.699102e+01    1.428465e+00
  1.700690e+01    1.406706e+00
  1.702277e+01    1.429633e+00
  1.703865e+01    1.438494e+00
  1.705452e+01    1.421262e+00
  1.707040e+01    1.415386e+00
  1.708627e+01    1.404372e+00
  1.710215e+01    1.427233e+00
  1.711802e+01    1.439646e+00
  1.713390e+01    1.441637e+00
  1.714978e+01    1.412994e+00
  1.716565e+01    1.408149e+00
  1.718153e+01    1.404421e+00
  1.719740e+01    1.407028e+00
  1.721328e+01    1.421341e+00
  1.722915e+01    1.418857e+00
  1.724503e+01    1.373053e+00
  1.726091e+01    1.379022e+00
  1.727678e+01    1.399690e+00
  1.729266e+01    1.399197e+00
  1.730853e+01    1.387481e+00
  1.732441e+01    1.404462e+00
  1.734028e+01    1.400708e+00
  1.735616e+01    1.385043e+00
  1.737203e+01    1.384182e+00
  1.738791e+01    1.358723e+00
  1.740379e+01    1.363681e+00
  1.741966e+01    1.361502e+00
  1.743554e+01    1.397221e+00
  1.745141e+01    1.372906e+00
  1.746729e+01    1.376508e+00
  1.748316e+01    1.390983e+00
  1.749904e+01    1.369412e+00
  1.751491e+01    1.369603e+00
  1.753079e+01    1.374929e+00
  1.754667e+01    1.381841e+00
  1.756254e+01    1.352114e+00
  1.757842e+01    1.360338e+00
  1.759429e+01    1.366683e+00
  1.761017e+01    1.349219e+00
  1.762604e+01    1.360178e+00
  1.764192e+01    1.358486e+00
  1.765779e+01    1.355767e+00
  1.767367e+01    1.339528e+00
  1.768955e+01    1.347623e+00
  1.770542e+01    1.362480e+00
  1.772130e+01    1.339537e+00
  1.773717e+01    1.331001e+00
  1.775305e+01    1.334446e+00
  1.776892e+01    1.353593e+00
  1.778480e+01    1.348653e+00
  1.780067e+01    1.321926e+00
  1.781655e+01    1.317083e+00
  1.783243e+01    1.295764e+00
  1.784830e+01    1.311866e+00
  1.786418e+01    1.338363e+00
  1.788005e+01    1.273377e+00
  1.789593e+01    1.297371e+00
  1.791180e+01    1.284490e+00
  1.792768e+01    1.278256e+00
  1.794355e+01    1.266543e+00
  1.795943e+01    1.276345e+00
  1.797531e+01    1.305943e+00
  1.799118e+01    1.313290e+00
  1.800706e+01    1.298961e+00
  1.802293e+01    1.279470e+00
  1.803881e+01    1.273188e+00
  1.805468e+01    1.294992e+00
  1.807056e+01    1.322532e+00
  1.808643e+01    1.278811e+00
  1.810231e+01    1.286137e+00
  1.811819e+01    1.263567e+00
  1.813406e+01    1.291758e+00
  1.814994e+01    1.273773e+00
  1.816581e+01    1.272610e+00
  1.818169e+01    1.269034e+00
  1.819756e+01    1.275802e+00
  1.821344e+01    1.270726e+00
  1.822932e+01    1.277767e+00
  1.824519e+01    1.286265e+00
  1.826107e+01    1.279917e+00
  1.827694e+01    1.261892e+00
  1.829282e+01    1.245864e+00
  1.830869e+01    1.252472e+00
  1.832457e+01    1.263368e+00
  1.834044e+01    1.254017e+00
  1.835632e+01    1.263315e+00
  1.837220e+01    1.246619e+00
  1.838807e+01    1.261301e+00
  1.840395e+01    1.243753e+00
  1.841982e+01    1.270837e+00
  1.843570e+01    1.284721e+00
  1.845157e+01    1.280667e+00
  1.846745e+01    1.268417e+00
  1.848332e+01    1.244048e+00
  1.849920e+01    1.259749e+00
  1.851508e+01    1.254740e+00
  1.853095e+01    1.223291e+00
  1.854683e+01    1.228801e+00
  1.856270e+01    1.232999e+00
  1.857858e+01    1.254223e+00
  1.859445e+01    1.246062e+00
  1.861033e+01    1.243786e+00
  1.862620e+01    1.251314e+00
  1.864208e+01    1.220986e+00
  1.865796e+01    1.250983e+00
  1.867383e+01    1.239569e+00
  1.868971e+01    1.234481e+00
  1.870558e+01    1.220670e+00
  1.872146e+01    1.219291e+00
  1.873733e+01    1.219003e+00
  1.875321e+01    1.228429e+00
  1.876908e+01    1.205685e+00
  1.878496e+01    1.218790e+00
  1.880084e+01    1.236037e+00
  1.881671e+01    1.196959e+00
  1.883259e+01    1.192897e+00
  1.884846e+01    1.180662e+00
  1.886434e+01    1.204422e+00
  1.888021e+01    1.211099e+00
  1.889609e+01    1.193372e+00
  1.891196e+01    1.206131e+00
  1.892784e+01    1.192081e+00
  1.894372e+01    1.188700e+00
  1.895959e+01    1.204460e+00
  1.897547e+01    1.169718e+00
  1.899134e+01    1.196528e+00
  1.900722e+01    1.180689e+00
  1.902309e+01    1.182162e+00
  1.903897e+01    1.185370e+00
  1.905484e+01    1.204983e+00
  1.907072e+01    1.199322e+00
  1.908660e+01    1.193618e+00
  1.910247e+01    1.206879e+00
  1.911835e+01    1.183134e+00
  1.913422e+01    1.173691e+00
  1.915010e+01    1.166037e+00
  1.916597e+01    1.158281e+00
  1.918185e+01    1.167882e+00
  1.919773e+01    1.184418e+00
  1.921360e+01    1.181483e+00
  1.922948e+01    1.206821e+00
  1.924535e+01    1.200414e+00
  1.926123e+01    1.179138e+00
  1.927710e+01    1.158805e+00
  1.929298e+01    1.184812e+00
  1.930885e+01    1.183316e+00
  1.932473e+01    1.183356e+00
  1.934061e+01    1.170323e+00
  1.935648e+01    1.173140e+00
  1.937236e+01    1.194747e+00
  1.938823e+01    1.186580e+00
  1.940411e+01    1.155596e+00
  1.941998e+01    1.164069e+00
  1.943586e+01    1.159713e+00
  1.945173e+01    1.173796e+00
  1.946761e+01    1.165979e+00
  1.948349e+01    1.166580e+00
  1.949936e+01    1.176415e+00
  1.951524e+01    1.184165e+00
  1.953111e+01    1.170122e+00
  1.954699e+01    1.164597e+00
  1.956286e+01    1.152073e+00
  1.957874e+01    1.142678e+00
  1.959461e+01    1.134470e+00
  1.961049e+01    1.131814e+00
  1.962637e+01    1.131207e+00
  1.964224e+01    1.132632e+00
  1.965812e+01    1.131745e+00
  1.967399e+01    1.146270e+00
  1.968987e+01    1.147637e+00
  1.970574e+01    1.139438e+00
  1.972162e+01    1.145022e+00
  1.973749e+01    1.141778e+00
  1.975337e+01    1.118315e+00
  1.976925e+01    1.157704e+00
  1.978512e+01    1.170871e+00
  1.980100e+01    1.145478e+00
  1.981687e+01    1.131252e+00
  1.983275e+01    1.139231e+00
  1.984862e+01    1.147387e+00
  1.986450e+01    1.137243e+00
  1.988037e+01    1.115317e+00
  1.989625e+01    1.124294e+00
  1.991213e+01    1.126667e+00
  1.992800e+01    1.119169e+00
  1.994388e+01    1.110126e+00
  1.995975e+01    1.123677e+00
  1.997563e+01    1.096767e+00
  1.999150e+01    1.103281e+00
  2.000738e+01    1.123044e+00
  2.002325e+01    1.139196e+00
  2.003913e+01    1.105828e+00
  2.005501e+01    1.097782e+00
  2.007088e+01    1.103923e+00
  2.008676e+01    1.123265e+00
  2.010263e+01    1.122771e+00
  2.011851e+01    1.095679e+00
  2.013438e+01    1.093545e+00
  2.015026e+01    1.077603e+00
  2.016614e+01    1.086141e+00
  2.018201e+01    1.119021e+00
  2.019789e+01    1.125910e+00
  2.021376e+01    1.124592e+00
  2.022964e+01    1.098179e+00
  2.024551e+01    1.081133e+00
  2.026139e+01    1.094986e+00
  2.027726e+01    1.117151e+00
  2.029314e+01    1.094674e+00
  2.030902e+01    1.077490e+00
  2.032489e+01    1.098960e+00
  2.034077e+01    1.104212e+00
  2.035664e+01    1.080034e+00
  2.037252e+01    1.096673e+00
  2.038839e+01    1.098445e+00
  2.040427e+01    1.081909e+00
  2.042014e+01    1.079862e+00
  2.043602e+01    1.080015e+00
  2.045190e+01    1.076487e+00
  2.046777e+01    1.080290e+00
  2.048365e+01    1.058732e+00
  2.049952e+01    1.055860e+00
  2.051540e+01    1.059235e+00
  2.053127e+01    1.075913e+00
  2.054715e+01    1.064874e+00
  2.056302e+01    1.110795e+00
  2.057890e+01    1.098325e+00
  2.059478e+01    1.063644e+00
  2.061065e+01    1.049225e+00
  2.062653e+01    1.067567e+00
  2.064240e+01    1.056961e+00
  2.065828e+01    1.062504e+00
  2.067415e+01    1.099921e+00
  2.069003e+01    1.073452e+00
  2.070590e+01    1.078920e+00
  2.072178e+01    1.074022e+00
  2.073766e+01    1.056663e+00
  2.075353e+01    1.059727e+00
  2.076941e+01    1.052889e+00
  2.078528e+01    1.057393e+00
  2.080116e+01    1.086421e+00
  2.081703e+01    1.113206e+00
  2.083291e+01    1.108952e+00
  2.084878e+01    1.108161e+00
  2.086466e+01    1.079159e+00
  2.088054e+01    1.087052e+00
  2.089641e+01    1.063460e+00
  2.091229e+01    1.074896e+00
  2.092816e+01    1.091039e+00
  2.094404e+01    1.099651e+00
  2.095991e+01    1.083875e+00
  2.097579e+01    1.077953e+00
  2.099166e+01    1.089418e+00
  2.100754e+01    1.058546e+00
  2.102342e+01    1.058130e+00
  2.103929e+01    1.068920e+00
  2.105517e+01    1.087909e+00
  2.107104e+01    1.086654e+00
  2.108692e+01    1.082486e+00
  2.110279e+01    1.062848e+00
  2.111867e+01    1.074358e+00
  2.113455e+01    1.075313e+00
  2.115042e+01    1.075354e+00
  2.116630e+01    1.101877e+00
  2.118217e+01    1.111137e+00
  2.119805e+01    1.108735e+00
  2.121392e+01    1.087970e+00
  2.122980e+01    1.090110e+00
  2.124567e+01    1.115373e+00
  2.126155e+01    1.118236e+00
  2.127743e+01    1.087645e+00
  2.129330e+01    1.082582e+00
  2.130918e+01    1.108644e+00
  2.132505e+01    1.140113e+00
  2.134093e+01    1.147566e+00
  2.135680e+01    1.140796e+00
  2.137268e+01    1.125955e+00
  2.138855e+01    1.147009e+00
  2.140443e+01    1.126581e+00
  2.142031e+01    1.147773e+00
  2.143618e+01    1.188298e+00
  2.145206e+01    1.211727e+00
  2.146793e+01    1.210778e+00
  2.148381e+01    1.246853e+00
  2.149968e+01    1.280444e+00
  2.151556e+01    1.298548e+00
  2.153143e+01    1.328536e+00
  2.154731e+01    1.368668e+00
  2.156319e+01    1.413414e+00
  2.157906e+01    1.457486e+00
  2.159494e+01    1.541228e+00
  2.161081e+01    1.572095e+00
  2.162669e+01    1.671920e+00
  2.164256e+01    1.831364e+00
  2.165844e+01    1.944373e+00
  2.167431e+01    2.080034e+00
  2.169019e+01    2.276331e+00
  2.170607e+01    2.570918e+00
  2.172194e+01    2.859750e+00
  2.173782e+01    3.252925e+00
  2.175369e+01    3.703320e+00
  2.176957e+01    4.303411e+00
  2.178544e+01    4.918777e+00
  2.180132e+01    5.524171e+00
  2.181719e+01    6.207928e+00
  2.183307e+01    6.931982e+00
  2.184895e+01    7.565082e+00
  2.186482e+01    8.284470e+00
  2.188070e+01    8.875713e+00
  2.189657e+01    9.185437e+00
  2.191245e+01    9.209541e+00
  2.192832e+01    8.748070e+00
  2.194420e+01    7.988921e+00
  2.196007e+01    7.079439e+00
  2.197595e+01    6.071301e+00
  2.199183e+01    5.209006e+00
  2.200770e+01    4.394282e+00
  2.202358e+01    3.777464e+00
  2.203945e+01    3.270066e+00
  2.205533e+01    2.866906e+00
  2.207120e+01    2.549768e+00
  2.208708e+01    2.311303e+00
  2.210296e+01    2.091949e+00
  2.211883e+01    1.922227e+00
  2.213471e+01    1.767871e+00
  2.215058e+01    1.656806e+00
  2.216646e+01    1.577751e+00
  2.218233e+01    1.484771e+00
  2.219821e+01    1.436184e+00
  2.221408e+01    1.377970e+00
  2.222996e+01    1.336076e+00
  2.224584e+01    1.305763e+00
  2.226171e+01    1.261967e+00
  2.227759e+01    1.239002e+00
  2.229346e+01    1.207137e+00
  2.230934e+01    1.166139e+00
  2.232521e+01    1.155081e+00
  2.234109e+01    1.141909e+00
  2.235696e+01    1.094035e+00
  2.237284e+01    1.101282e+00
  2.238872e+01    1.078829e+00
  2.240459e+01    1.085028e+00
  2.242047e+01    1.060164e+00
  2.243634e+01    1.040094e+00
  2.245222e+01    1.026501e+00
  2.246809e+01    1.016799e+00
  2.248397e+01    1.000170e+00
  2.249984e+01    1.017381e+00
  2.251572e+01    1.014903e+00
  2.253160e+01    1.018549e+00
  2.254747e+01    1.015916e+00
  2.256335e+01    1.010054e+00
  2.257922e+01    9.809136e-01
  2.259510e+01    9.949337e-01
  2.261097e+01    9.747437e-01
  2.262685e+01    9.658017e-01
  2.264272e+01    9.839394e-01
  2.265860e+01    9.712899e-01
  2.267448e+01    9.673986e-01
  2.269035e+01    9.442866e-01
  2.270623e+01    9.509172e-01
  2.272210e+01    9.524351e-01
  2.273798e+01    9.313818e-01
  2.275385e+01    9.229159e-01
  2.276973e+01    9.327788e-01
  2.278560e+01    9.496984e-01
  2.280148e+01    9.292756e-01
  2.281736e+01    9.230502e-01
  2.283323e+01    9.263334e-01
  2.284911e+01    9.357873e-01
  2.286498e+01    9.108495e-01
  2.288086e+01    8.901848e-01
  2.289673e+01    9.001197e-01
  2.291261e+01    9.092516e-01
  2.292848e+01    8.967226e-01
  2.294436e+01    9.020680e-01
  2.296024e+01    9.123201e-01
  2.297611e+01    9.100408e-01
  2.299199e+01    9.082745e-01
  2.300786e+01    9.139504e-01
  2.302374e+01    8.963498e-01
  2.303961e+01    8.872181e-01
  2.305549e+01    9.029487e-01
  2.307137e+01    8.904989e-01
  2.308724e+01    8.745084e-01
  2.310312e+01    8.895893e-01
  2.311899e+01    9.023420e-01
  2.313487e+01    8.941907e-01
  2.315074e+01    8.701501e-01
  2.316662e+01    8.605289e-01
  2.318249e+01    8.622224e-01
  2.319837e+01    8.788854e-01
  2.321425e+01    8.950800e-01
  2.323012e+01    8.887282e-01
  2.324600e+01    8.638433e-01
  2.326187e+01    8.582739e-01
  2.327775e+01    8.585823e-01
  2.329362e+01    8.776326e-01
  2.330950e+01    8.790286e-01
  2.332537e+01    8.787543e-01
  2.334125e+01    8.732730e-01
  2.335713e+01    8.640981e-01
  2.337300e+01    8.593121e-01
  2.338888e+01    8.453085e-01
  2.340475e+01    8.344195e-01
  2.342063e+01    8.335887e-01
  2.343650e+01    8.393602e-01
  2.345238e+01    8.451588e-01
  2.346825e+01    8.353118e-01
  2.348413e+01    8.359808e-01
  2.350001e+01    8.636674e-01
  2.351588e+01    8.411717e-01
  2.353176e+01    8.289717e-01
  2.354763e+01    8.221624e-01
  2.356351e+01    8.480455e-01
  2.357938e+01    8.328130e-01
  2.359526e+01    8.324440e-01
  2.361113e+01    8.384324e-01
  2.362701e+01    8.306646e-01
  2.364289e+01    8.260931e-01
  2.365876e+01    8.319726e-01
  2.367464e+01    8.193944e-01
  2.369051e+01    8.090441e-01
  2.370639e+01    8.177031e-01
  2.372226e+01    8.148442e-01
  2.373814e+01    8.135055e-01
  2.375401e+01    7.942487e-01
  2.376989e+01    8.151206e-01
  2.378577e+01    8.093457e-01
  2.380164e+01    8.081120e-01
  2.381752e+01    8.116487e-01
  2.383339e+01    8.240988e-01
  2.384927e+01    8.169401e-01
  2.386514e+01    8.004188e-01
  2.388102e+01    7.978430e-01
  2.389689e+01    8.011587e-01
  2.391277e+01    7.911837e-01
  2.392865e+01    7.807935e-01
  2.394452e+01    8.072435e-01
  2.396040e+01    7.982441e-01
  2.397627e+01    7.828675e-01
  2.399215e+01    7.966422e-01
  2.400802e+01    8.070722e-01
  2.402390e+01    7.803447e-01
  2.403978e+01    7.658675e-01
  2.405565e+01    7.917327e-01
  2.407153e+01    7.740684e-01
  2.408740e+01    7.601376e-01
  2.410328e+01    7.869496e-01
  2.411915e+01    8.000860e-01
  2.413503e+01    7.964578e-01
  2.415090e+01    7.864288e-01
  2.416678e+01    7.964583e-01
  2.418266e+01    7.798562e-01
  2.419853e+01    7.810727e-01
  2.421441e+01    7.771132e-01
  2.423028e+01    7.575567e-01
  2.424616e+01    7.762725e-01
  2.426203e+01    7.970834e-01
  2.427791e+01    8.078927e-01
  2.429378e+01    8.008761e-01
  2.430966e+01    8.040090e-01
  2.432554e+01    7.850168e-01
  2.434141e+01    7.686886e-01
  2.435729e+01    7.830352e-01
  2.437316e+01    7.896973e-01
  2.438904e+01    8.019372e-01
  2.440491e+01    7.864223e-01
  2.442079e+01    7.798013e-01
  2.443666e+01    7.962544e-01
  2.445254e+01    7.949303e-01
  2.446842e+01    7.897753e-01
  2.448429e+01    7.921730e-01
  2.450017e+01    8.002653e-01
  2.451604e+01    8.107911e-01
  2.453192e+01    7.914334e-01
  2.454779e+01    7.960164e-01
  2.456367e+01    7.944804e-01
  2.457954e+01    7.847700e-01
  2.459542e+01    7.991070e-01
  2.461130e+01    8.141872e-01
  2.462717e+01    7.958502e-01
  2.464305e+01    7.875997e-01
  2.465892e+01    8.037658e-01
  2.467480e+01    7.986281e-01
  2.469067e+01    7.944230e-01
  2.470655e+01    7.985814e-01
  2.472242e+01    7.851379e-01
  2.473830e+01    7.839612e-01
  2.475418e+01    7.578463e-01
  2.477005e+01    7.849728e-01
  2.478593e+01    7.852692e-01
  2.480180e+01    7.940755e-01
  2.481768e+01    7.817150e-01
  2.483355e+01    8.012794e-01
  2.484943e+01    7.829584e-01
  2.486530e+01    7.803134e-01
  2.488118e+01    7.931707e-01
  2.489706e+01    7.953050e-01
  2.491293e+01    7.888855e-01
  2.492881e+01    7.892455e-01
  2.494468e+01    7.968659e-01
  2.496056e+01    8.033670e-01
  2.497643e+01    8.020011e-01
  2.499231e+01    7.923113e-01
  2.500819e+01    7.797107e-01
  2.502406e+01    7.987466e-01
  2.503994e+01    8.052619e-01
  2.505581e+01    8.171625e-01
  2.507169e+01    8.102701e-01
  2.508756e+01    8.029580e-01
  2.510344e+01    8.053852e-01
  2.511931e+01    8.153341e-01
  2.513519e+01    8.085204e-01
  2.515107e+01    7.979761e-01
  2.516694e+01    8.221173e-01
  2.518282e+01    8.318945e-01
  2.519869e+01    8.250641e-01
  2.521457e+01    7.962648e-01
  2.523044e+01    8.369796e-01
  2.524632e+01    8.383758e-01
  2.526219e+01    8.423539e-01
  2.527807e+01    8.461842e-01
  2.529395e+01    8.437662e-01
  2.530982e+01    8.572885e-01
  2.532570e+01    8.808256e-01
  2.534157e+01    8.773170e-01
  2.535745e+01    8.663757e-01
  2.537332e+01    8.760965e-01
  2.538920e+01    8.893502e-01
  2.540507e+01    8.955119e-01
  2.542095e+01    9.002842e-01
  2.543683e+01    9.241972e-01
  2.545270e+01    9.446965e-01
  2.546858e+01    9.579499e-01
  2.548445e+01    9.534093e-01
  2.550033e+01    9.645861e-01
  2.551620e+01    9.942209e-01
  2.553208e+01    1.025056e+00
  2.554795e+01    1.021342e+00
  2.556383e+01    1.037647e+00
  2.557971e+01    1.069852e+00
  2.559558e+01    1.089739e+00
  2.561146e+01    1.127670e+00
  2.562733e+01    1.174620e+00
  2.564321e+01    1.197624e+00
  2.565908e+01    1.267995e+00
  2.567496e+01    1.327255e+00
  2.569083e+01    1.413133e+00
  2.570671e+01    1.499595e+00
  2.572259e+01    1.607598e+00
  2.573846e+01    1.708864e+00
  2.575434e+01    1.870762e+00
  2.577021e+01    2.087124e+00
  2.578609e+01    2.319737e+00
  2.580196e+01    2.658768e+00
  2.581784e+01    2.946999e+00
  2.583371e+01    3.356239e+00
  2.584959e+01    3.792985e+00
  2.586547e+01    4.389503e+00
  2.588134e+01    4.977493e+00
  2.589722e+01    5.610662e+00
  2.591309e+01    6.259818e+00
  2.592897e+01    6.830121e+00
  2.594484e+01    7.280051e+00
  2.596072e+01    7.526268e+00
  2.597660e+01    7.519436e+00
  2.599247e+01    7.183559e+00
  2.600835e+01    6.617200e+00
  2.602422e+01    5.976512e+00
  2.604010e+01    5.154643e+00
  2.605597e+01    4.445927e+00
  2.607185e+01    3.789625e+00
  2.608772e+01    3.259349e+00
  2.610360e+01    2.819521e+00
  2.611948e+01    2.468756e+00
  2.613535e+01    2.205012e+00
  2.615123e+01    2.030973e+00
  2.616710e+01    1.807773e+00
  2.618298e+01    1.650655e+00
  2.619885e+01    1.553698e+00
  2.621473e+01    1.426154e+00
  2.623060e+01    1.363768e+00
  2.624648e+01    1.313295e+00
  2.626236e+01    1.233344e+00
  2.627823e+01    1.204621e+00
  2.629411e+01    1.153376e+00
  2.630998e+01    1.132543e+00
  2.632586e+01    1.083442e+00
  2.634173e+01    1.051570e+00
  2.635761e+01    1.013310e+00
  2.637348e+01    9.910553e-01
  2.638936e+01    9.863082e-01
  2.640524e+01    9.835222e-01
  2.642111e+01    9.475813e-01
  2.643699e+01    9.716206e-01
  2.645286e+01    9.586566e-01
  2.646874e+01    9.518992e-01
  2.648461e+01    9.540011e-01
  2.650049e+01    9.289089e-01
  2.651636e+01    9.401597e-01
  2.653224e+01    9.365950e-01
  2.654812e+01    9.211495e-01
  2.656399e+01    9.014124e-01
  2.657987e+01    8.980009e-01
  2.659574e+01    8.960962e-01
  2.661162e+01    8.939101e-01
  2.662749e+01    8.761474e-01
  2.664337e+01    8.690772e-01
  2.665924e+01    8.755886e-01
  2.667512e+01    8.887631e-01
  2.669100e+01    8.844519e-01
  2.670687e+01    8.773893e-01
  2.672275e+01    8.732764e-01
  2.673862e+01    9.001851e-01
  2.675450e+01    9.031504e-01
  2.677037e+01    8.627272e-01
  2.678625e+01    8.781779e-01
  2.680212e+01    8.713040e-01
  2.681800e+01    8.697494e-01
  2.683388e+01    9.020886e-01
  2.684975e+01    9.150167e-01
  2.686563e+01    8.891540e-01
  2.688150e+01    9.037799e-01
  2.689738e+01    9.276203e-01
  2.691325e+01    9.247109e-01
  2.692913e+01    9.519910e-01
  2.694501e+01    9.436574e-01
  2.696088e+01    9.506506e-01
  2.697676e+01    9.754917e-01
  2.699263e+01    9.732891e-01
  2.700851e+01    9.946555e-01
  2.702438e+01    1.042789e+00
  2.704026e+01    1.092281e+00
  2.705613e+01    1.149012e+00
  2.707201e+01    1.200307e+00
  2.708789e+01    1.288471e+00
  2.710376e+01    1.401690e+00
  2.711964e+01    1.483977e+00
  2.713551e+01    1.588874e+00
  2.715139e+01    1.747395e+00
  2.716726e+01    1.886950e+00
  2.718314e+01    2.039055e+00
  2.719901e+01    2.164328e+00
  2.721489e+01    2.231330e+00
  2.723077e+01    2.232289e+00
  2.724664e+01    2.181023e+00
  2.726252e+01    2.079018e+00
  2.727839e+01    1.933718e+00
  2.729427e+01    1.784980e+00
  2.731014e+01    1.633002e+00
  2.732602e+01    1.466389e+00
  2.734189e+01    1.347885e+00
  2.735777e+01    1.262843e+00
  2.737365e+01    1.176117e+00
  2.738952e+01    1.142229e+00
  2.740540e+01    1.075952e+00
  2.742127e+01    1.030662e+00
  2.743715e+01    1.026000e+00
  2.745302e+01    9.700545e-01
  2.746890e+01    9.348978e-01
  2.748477e+01    9.183366e-01
  2.750065e+01    8.816448e-01
  2.751653e+01    9.095422e-01
  2.753240e+01    8.852056e-01
  2.754828e+01    8.698460e-01
  2.756415e+01    8.686012e-01
  2.758003e+01    8.683195e-01
  2.759590e+01    8.708459e-01
  2.761178e+01    8.488269e-01
  2.762765e+01    8.430247e-01
  2.764353e+01    8.283229e-01
  2.765941e+01    8.269269e-01
  2.767528e+01    8.290941e-01
  2.769116e+01    8.205819e-01
  2.770703e+01    8.094093e-01
  2.772291e+01    8.203689e-01
  2.773878e+01    7.960321e-01
  2.775466e+01    7.895000e-01
  2.777054e+01    8.044097e-01
  2.778641e+01    7.907615e-01
  2.780229e+01    8.182918e-01
  2.781816e+01    8.155548e-01
  2.783404e+01    8.052289e-01
  2.784991e+01    7.891621e-01
  2.786579e+01    8.092184e-01
  2.788166e+01    8.087990e-01
  2.789754e+01    7.885813e-01
  2.791342e+01    7.866410e-01
  2.792929e+01    7.897847e-01
  2.794517e+01    7.953652e-01
  2.796104e+01    8.049012e-01
  2.797692e+01    8.097417e-01
  2.799279e+01    8.056776e-01
  2.800867e+01    8.035659e-01
  2.802454e+01    8.012301e-01
  2.804042e+01    7.902286e-01
  2.805630e+01    7.828978e-01
  2.807217e+01    7.753415e-01
  2.808805e+01    7.821556e-01
  2.810392e+01    7.688346e-01
  2.811980e+01    7.764679e-01
  2.813567e+01    7.712885e-01
  2.815155e+01    7.767168e-01
  2.816742e+01    7.760292e-01
  2.818330e+01    7.636048e-01
  2.819918e+01    7.504351e-01
  2.821505e+01    7.788024e-01
  2.823093e+01    7.651868e-01
  2.824680e+01    7.653252e-01
  2.826268e+01    7.612427e-01
  2.827855e+01    7.603570e-01
  2.829443e+01    7.757508e-01
  2.831030e+01    7.734361e-01
  2.832618e+01    7.629271e-01
  2.834206e+01    7.706357e-01
  2.835793e+01    7.727183e-01
  2.837381e+01    7.394796e-01
  2.838968e+01    7.464111e-01
  2.840556e+01    7.576227e-01
  2.842143e+01    7.648916e-01
  2.843731e+01    7.709354e-01
  2.845318e+01    7.465328e-01
  2.846906e+01    7.456195e-01
  2.848494e+01    7.454805e-01
  2.850081e+01    7.569869e-01
  2.851669e+01    7.739692e-01
  2.853256e+01    7.552845e-01
  2.854844e+01    7.579095e-01
  2.856431e+01    7.476151e-01
  2.858019e+01    7.422636e-01
  2.859606e+01    7.309409e-01
  2.861194e+01    7.352598e-01
  2.862782e+01    7.442321e-01
  2.864369e+01    7.544438e-01
  2.865957e+01    7.491537e-01
  2.867544e+01    7.681419e-01
  2.869132e+01    7.738605e-01
  2.870719e+01    7.574646e-01
  2.872307e+01    7.463759e-01
  2.873895e+01    7.355494e-01
  2.875482e+01    7.383066e-01
  2.877070e+01    7.464759e-01
  2.878657e+01    7.383201e-01
  2.880245e+01    7.598608e-01
  2.881832e+01    7.556720e-01
  2.883420e+01    7.525001e-01
  2.885007e+01    7.240989e-01
  2.886595e+01    7.391068e-01
  2.888183e+01    7.346190e-01
  2.889770e+01    7.187761e-01
  2.891358e+01    7.122440e-01
  2.892945e+01    7.293354e-01
  2.894533e+01    7.480565e-01
  2.896120e+01    7.288086e-01
  2.897708e+01    7.137605e-01
  2.899295e+01    7.430599e-01
  2.900883e+01    7.424505e-01
  2.902471e+01    7.634103e-01
  2.904058e+01    7.338653e-01
  2.905646e+01    7.567870e-01
  2.907233e+01    7.366809e-01
  2.908821e+01    7.534585e-01
  2.910408e+01    7.448614e-01
  2.911996e+01    7.432930e-01
  2.913583e+01    7.302092e-01
  2.915171e+01    7.290033e-01
  2.916759e+01    7.383070e-01
  2.918346e+01    7.325502e-01
  2.919934e+01    7.287039e-01
  2.921521e+01    7.302114e-01
  2.923109e+01    7.394177e-01
  2.924696e+01    7.487357e-01
  2.926284e+01    7.311824e-01
  2.927871e+01    7.266154e-01
  2.929459e+01    7.229295e-01
  2.931047e+01    7.406130e-01
  2.932634e+01    7.409641e-01
  2.934222e+01    7.543098e-01
  2.935809e+01    7.303422e-01
  2.937397e+01    7.072173e-01
  2.938984e+01    7.147232e-01
  2.940572e+01    7.137969e-01
  2.942159e+01    7.027817e-01
  2.943747e+01    7.157444e-01
  2.945335e+01    7.352666e-01
  2.946922e+01    7.417344e-01
  2.948510e+01    7.340743e-01
  2.950097e+01    7.320557e-01
  2.951685e+01    7.407933e-01
  2.953272e+01    7.058037e-01
  2.954860e+01    7.203920e-01
  2.956447e+01    7.378870e-01
  2.958035e+01    7.179419e-01
  2.959623e+01    7.276307e-01
  2.961210e+01    7.092717e-01
  2.962798e+01    7.075585e-01
  2.964385e+01    7.076411e-01
  2.965973e+01    7.248465e-01
  2.967560e+01    7.266858e-01
  2.969148e+01    7.265850e-01
  2.970736e+01    7.167633e-01
  2.972323e+01    7.123418e-01
  2.973911e+01    7.002241e-01
  2.975498e+01    6.939413e-01
  2.977086e+01    7.036045e-01
  2.978673e+01    7.148622e-01
  2.980261e+01    7.046804e-01
  2.981848e+01    7.093575e-01
  2.983436e+01    7.169263e-01
  2.985024e+01    7.225881e-01
  2.986611e+01    7.336977e-01
  2.988199e+01    7.055880e-01
  2.989786e+01    7.154528e-01
  2.991374e+01    7.200240e-01
  2.992961e+01    7.242830e-01
  2.994549e+01    7.217549e-01
  2.996136e+01    7.365704e-01
  2.997724e+01    7.422629e-01
  2.999312e+01    7.355493e-01
  3.000899e+01    7.180970e-01
  3.002487e+01    7.330019e-01
  3.004074e+01    7.251722e-01
  3.005662e+01    7.387117e-01
  3.007249e+01    7.256395e-01
  3.008837e+01    7.538027e-01
  3.010424e+01    7.196298e-01
  3.012012e+01    7.112474e-01
  3.013600e+01    7.230943e-01
  3.015187e+01    7.193605e-01
  3.016775e+01    7.243493e-01
  3.018362e+01    7.126197e-01
  3.019950e+01    6.987320e-01
  3.021537e+01    7.248659e-01
  3.023125e+01    7.038083e-01
  3.024712e+01    7.023064e-01
  3.026300e+01    7.126169e-01
  3.027888e+01    6.955318e-01
  3.029475e+01    7.100491e-01
  3.031063e+01    6.968214e-01
  3.032650e+01    7.153781e-01
  3.034238e+01    7.202678e-01
  3.035825e+01    7.111857e-01
  3.037413e+01    7.071995e-01
  3.039000e+01    7.096819e-01
  3.040588e+01    7.072037e-01
  3.042176e+01    7.164837e-01
  3.043763e+01    6.962814e-01
  3.045351e+01    6.997999e-01
  3.046938e+01    7.071723e-01
  3.048526e+01    7.150490e-01
  3.050113e+01    7.276082e-01
  3.051701e+01    7.063498e-01
  3.053288e+01    7.044488e-01
  3.054876e+01    7.142870e-01
  3.056464e+01    7.070512e-01
  3.058051e+01    7.284790e-01
  3.059639e+01    7.108936e-01
  3.061226e+01    6.900324e-01
  3.062814e+01    7.076881e-01
  3.064401e+01    7.151747e-01
  3.065989e+01    7.259822e-01
  3.067577e+01    7.139439e-01
  3.069164e+01    7.032043e-01
  3.070752e+01    6.976409e-01
  3.072339e+01    6.811680e-01
  3.073927e+01    6.962329e-01
  3.075514e+01    7.021881e-01
  3.077102e+01    7.136988e-01
  3.078689e+01    7.144707e-01
  3.080277e+01    6.991232e-01
  3.081865e+01    7.126362e-01
  3.083452e+01    7.165341e-01
  3.085040e+01    7.042900e-01
  3.086627e+01    6.990578e-01
  3.088215e+01    7.124232e-01
  3.089802e+01    6.917847e-01
  3.091390e+01    6.880547e-01
  3.092977e+01    7.202703e-01
  3.094565e+01    7.166026e-01
  3.096153e+01    7.165707e-01
  3.097740e+01    7.059600e-01
  3.099328e+01    7.046993e-01
  3.100915e+01    7.044877e-01
  3.102503e+01    7.133196e-01
  3.104090e+01    7.365690e-01
  3.105678e+01    7.319211e-01
  3.107265e+01    7.112947e-01
  3.108853e+01    6.944728e-01
  3.110441e+01    6.966592e-01
  3.112028e+01    7.032042e-01
  3.113616e+01    7.308512e-01
  3.115203e+01    7.079440e-01
  3.116791e+01    7.071654e-01
  3.118378e+01    7.224690e-01
  3.119966e+01    7.168669e-01
  3.121553e+01    7.205045e-01
  3.123141e+01    7.300402e-01
  3.124729e+01    7.212870e-01
  3.126316e+01    7.088798e-01
  3.127904e+01    7.202018e-01
  3.129491e+01    7.248220e-01
  3.131079e+01    7.342123e-01
  3.132666e+01    7.279721e-01
  3.134254e+01    7.046447e-01
  3.135841e+01    7.088995e-01
  3.137429e+01    7.307944e-01
  3.139017e+01    7.443299e-01
  3.140604e+01    7.655163e-01
  3.142192e+01    7.554021e-01
  3.143779e+01    7.336258e-01
  3.145367e+01    7.501580e-01
  3.146954e+01    7.305532e-01
  3.148542e+01    7.403699e-01
  3.150129e+01    7.572480e-01
  3.151717e+01    7.800901e-01
  3.153305e+01    7.668414e-01
  3.154892e+01    7.751154e-01
  3.156480e+01    7.846292e-01
  3.158067e+01    7.776328e-01
  3.159655e+01    7.899783e-01
  3.161242e+01    8.191966e-01
  3.162830e+01    8.132285e-01
  3.164418e+01    8.504696e-01
  3.166005e+01    8.625038e-01
  3.167593e+01    8.776993e-01
  3.169180e+01    9.236871e-01
  3.170768e+01    9.588133e-01
  3.172355e+01    9.894611e-01
  3.173943e+01    1.036204e+00
  3.175530e+01    1.115747e+00
  3.177118e+01    1.188002e+00
  3.178706e+01    1.265707e+00
  3.180293e+01    1.361923e+00
  3.181881e+01    1.505512e+00
  3.183468e+01    1.628270e+00
  3.185056e+01    1.814615e+00
  3.186643e+01    1.931073e+00
  3.188231e+01    2.063574e+00
  3.189818e+01    2.150680e+00
  3.191406e+01    2.214158e+00
  3.192994e+01    2.196062e+00
  3.194581e+01    2.121097e+00
  3.196169e+01    1.977934e+00
  3.197756e+01    1.865379e+00
  3.199344e+01    1.688984e+00
  3.200931e+01    1.511500e+00
  3.202519e+01    1.404317e+00
  3.204106e+01    1.284212e+00
  3.205694e+01    1.166650e+00
  3.207282e+01    1.105402e+00
  3.208869e+01    1.027182e+00
  3.210457e+01    9.751511e-01
  3.212044e+01    9.249058e-01
  3.213632e+01    8.838113e-01
  3.215219e+01    8.857310e-01
  3.216807e+01    8.629245e-01
  3.218394e+01    8.290900e-01
  3.219982e+01    8.284130e-01
  3.221570e+01    8.152733e-01
  3.223157e+01    7.957009e-01
  3.224745e+01    7.713916e-01
  3.226332e+01    7.804229e-01
  3.227920e+01    7.871180e-01
  3.229507e+01    7.432826e-01
  3.231095e+01    7.685412e-01
  3.232682e+01    7.533806e-01
  3.234270e+01    7.575400e-01
  3.235858e+01    7.560801e-01
  3.237445e+01    7.573111e-01
  3.239033e+01    7.285442e-01
  3.240620e+01    7.194100e-01
  3.242208e+01    7.224706e-01
  3.243795e+01    7.264435e-01
  3.245383e+01    7.299691e-01
  3.246970e+01    7.056405e-01
  3.248558e+01    7.228415e-01
  3.250146e+01    7.310696e-01
  3.251733e+01    7.353034e-01
  3.253321e+01    7.199033e-01
  3.254908e+01    7.189133e-01
