# == pyFAI calibration ==
# Distance Sample to Detector: 0.3999999939076516 m
# PONI: 9.750e-02, 1.135e-01 m
# Rotations: -0.000175 0.000000 -0.000000 rad
# 
# == Fit2d calibration ==
# Distance Sample-beamCenter: 400.000 mm
# Center: x=1514.000, y=1300.000 pix
# Tilt: 0.010 deg  TiltPlanRot: 0.010 deg
# 
# Detector Detector	 Spline= None	 PixelSize= 7.500e-05, 7.500e-05 m
#    Detector has a mask: False 
#    Detector has a dark current: False 
#    detector has a flat field: False 
# 
# Wavelength: 6.888e-11 m
# Mask applied: user provided
# Dark current applied: False
# Flat field applied: False
# Polarization factor: 0.99
# Normalization factor: 1.0
# --> /home/myspot/data/2024_07_Rosario/Ru-CGO-ex/2024-07-27_002_Ru-CGO-ex_Activtation_ramp_000002_data_000147.dat
#       q_nm^-1             I 
  2.003187e-02    0.000000e+00
  3.590745e-02    0.000000e+00
  5.178302e-02    0.000000e+00
  6.765859e-02    3.248854e-02
  8.353417e-02    5.351276e-02
  9.940974e-02    4.169654e-02
  1.152853e-01    1.884089e-03
  1.311609e-01    0.000000e+00
  1.470365e-01    2.852514e-02
  1.629120e-01    4.232420e-02
  1.787876e-01    2.257780e-02
  1.946632e-01    1.009009e-02
  2.105388e-01    1.591395e-02
  2.264143e-01    3.213347e-02
  2.422899e-01    3.298889e-03
  2.581655e-01    0.000000e+00
  2.740411e-01    1.017507e-02
  2.899166e-01    1.565974e-02
  3.057922e-01    2.274128e-02
  3.216678e-01    3.524004e-02
  3.375433e-01    1.050016e-02
  3.534189e-01    4.674930e-02
  3.692945e-01    4.625613e-02
  3.851701e-01    5.063657e-02
  4.010456e-01    6.748268e-02
  4.169212e-01    3.505671e-02
  4.327968e-01    1.742432e-02
  4.486724e-01    2.222453e-02
  4.645479e-01    5.612884e-02
  4.804235e-01    3.620012e-02
  4.962991e-01    3.020740e-02
  5.121747e-01    4.630157e-02
  5.280502e-01    4.910516e-02
  5.439258e-01    4.067919e-02
  5.598014e-01    3.453701e-02
  5.756770e-01    4.215885e-02
  5.915525e-01    2.306151e-02
  6.074281e-01    3.233906e-02
  6.233037e-01    3.433442e-02
  6.391793e-01    2.465300e-02
  6.550548e-01    4.953568e-02
  6.709304e-01    5.193873e-02
  6.868060e-01    4.493190e-02
  7.026815e-01    4.183314e-02
  7.185571e-01    3.598906e-02
  7.344327e-01    3.994888e-02
  7.503083e-01    5.300893e-02
  7.661838e-01    5.668524e-02
  7.820594e-01    8.529315e-02
  7.979350e-01    1.612469e-01
  8.138106e-01    2.152601e-01
  8.296861e-01    2.318424e-01
  8.455617e-01    3.130337e-01
  8.614373e-01    3.658267e-01
  8.773129e-01    4.184891e-01
  8.931884e-01    5.162283e-01
  9.090640e-01    5.592307e-01
  9.249396e-01    5.448903e-01
  9.408152e-01    6.883693e-01
  9.566907e-01    7.624208e-01
  9.725663e-01    8.464286e-01
  9.884419e-01    1.034957e+00
  1.004317e+00    1.118875e+00
  1.020193e+00    1.088638e+00
  1.036069e+00    1.235886e+00
  1.051944e+00    1.262331e+00
  1.067820e+00    1.431251e+00
  1.083695e+00    1.359194e+00
  1.099571e+00    1.368132e+00
  1.115446e+00    1.518417e+00
  1.131322e+00    1.502618e+00
  1.147198e+00    1.420897e+00
  1.163073e+00    1.428554e+00
  1.178949e+00    1.570322e+00
  1.194824e+00    1.763148e+00
  1.210700e+00    1.925637e+00
  1.226575e+00    2.130768e+00
  1.242451e+00    2.240017e+00
  1.258327e+00    2.245435e+00
  1.274202e+00    2.249325e+00
  1.290078e+00    2.304608e+00
  1.305953e+00    2.399070e+00
  1.321829e+00    2.483132e+00
  1.337705e+00    2.491143e+00
  1.353580e+00    2.587463e+00
  1.369456e+00    2.565075e+00
  1.385331e+00    2.659091e+00
  1.401207e+00    2.691750e+00
  1.417082e+00    2.649767e+00
  1.432958e+00    2.532018e+00
  1.448834e+00    2.767133e+00
  1.464709e+00    2.706530e+00
  1.480585e+00    2.633606e+00
  1.496460e+00    2.753775e+00
  1.512336e+00    2.810602e+00
  1.528211e+00    2.801494e+00
  1.544087e+00    2.913586e+00
  1.559963e+00    2.880883e+00
  1.575838e+00    3.085966e+00
  1.591714e+00    2.966741e+00
  1.607589e+00    2.818563e+00
  1.623465e+00    2.830945e+00
  1.639340e+00    2.825193e+00
  1.655216e+00    2.860519e+00
  1.671092e+00    2.849122e+00
  1.686967e+00    2.773591e+00
  1.702843e+00    2.890460e+00
  1.718718e+00    2.771227e+00
  1.734594e+00    2.783729e+00
  1.750469e+00    2.771006e+00
  1.766345e+00    2.732213e+00
  1.782221e+00    2.724681e+00
  1.798096e+00    2.792480e+00
  1.813972e+00    2.721773e+00
  1.829847e+00    2.693045e+00
  1.845723e+00    2.744724e+00
  1.861598e+00    2.779287e+00
  1.877474e+00    2.642409e+00
  1.893350e+00    2.847983e+00
  1.909225e+00    2.866282e+00
  1.925101e+00    2.819044e+00
  1.940976e+00    2.827646e+00
  1.956852e+00    2.718705e+00
  1.972727e+00    2.659125e+00
  1.988603e+00    2.765405e+00
  2.004479e+00    2.790542e+00
  2.020354e+00    2.695151e+00
  2.036230e+00    2.700701e+00
  2.052105e+00    2.693606e+00
  2.067981e+00    2.739322e+00
  2.083856e+00    2.618978e+00
  2.099732e+00    2.605954e+00
  2.115608e+00    2.659502e+00
  2.131483e+00    2.620461e+00
  2.147359e+00    2.608108e+00
  2.163234e+00    2.746865e+00
  2.179110e+00    2.681624e+00
  2.194985e+00    2.787377e+00
  2.210861e+00    2.765995e+00
  2.226737e+00    2.739215e+00
  2.242612e+00    2.723708e+00
  2.258488e+00    2.687974e+00
  2.274363e+00    2.577655e+00
  2.290239e+00    2.730540e+00
  2.306115e+00    2.699674e+00
  2.321990e+00    2.792791e+00
  2.337866e+00    2.858321e+00
  2.353741e+00    2.765627e+00
  2.369617e+00    2.680537e+00
  2.385492e+00    2.699007e+00
  2.401368e+00    2.765388e+00
  2.417244e+00    2.771039e+00
  2.433119e+00    2.775849e+00
  2.448995e+00    2.712855e+00
  2.464870e+00    2.747226e+00
  2.480746e+00    2.744598e+00
  2.496621e+00    2.841624e+00
  2.512497e+00    2.780688e+00
  2.528373e+00    2.706266e+00
  2.544248e+00    2.772902e+00
  2.560124e+00    2.818044e+00
  2.575999e+00    2.817266e+00
  2.591875e+00    2.850687e+00
  2.607750e+00    2.751455e+00
  2.623626e+00    2.788868e+00
  2.639502e+00    2.738389e+00
  2.655377e+00    2.816312e+00
  2.671253e+00    2.739910e+00
  2.687128e+00    2.760015e+00
  2.703004e+00    2.920270e+00
  2.718879e+00    2.955486e+00
  2.734755e+00    2.838985e+00
  2.750631e+00    2.820321e+00
  2.766506e+00    2.822168e+00
  2.782382e+00    2.871239e+00
  2.798257e+00    2.839816e+00
  2.814133e+00    2.810390e+00
  2.830008e+00    2.869225e+00
  2.845884e+00    2.857349e+00
  2.861760e+00    2.926991e+00
  2.877635e+00    2.865744e+00
  2.893511e+00    2.830662e+00
  2.909386e+00    2.869409e+00
  2.925262e+00    2.885658e+00
  2.941137e+00    2.848150e+00
  2.957013e+00    2.869972e+00
  2.972889e+00    2.815461e+00
  2.988764e+00    2.842965e+00
  3.004640e+00    2.801605e+00
  3.020515e+00    2.803840e+00
  3.036391e+00    2.855140e+00
  3.052266e+00    2.872478e+00
  3.068142e+00    2.894781e+00
  3.084018e+00    2.896286e+00
  3.099893e+00    2.945166e+00
  3.115769e+00    2.911122e+00
  3.131644e+00    2.899535e+00
  3.147520e+00    2.931600e+00
  3.163395e+00    2.851759e+00
  3.179271e+00    2.895753e+00
  3.195147e+00    2.876051e+00
  3.211022e+00    3.005401e+00
  3.226898e+00    2.960179e+00
  3.242773e+00    2.930684e+00
  3.258649e+00    2.967465e+00
  3.274525e+00    2.975128e+00
  3.290400e+00    2.932672e+00
  3.306276e+00    2.885354e+00
  3.322151e+00    2.921422e+00
  3.338027e+00    2.920534e+00
  3.353902e+00    2.940688e+00
  3.369778e+00    2.893864e+00
  3.385654e+00    2.960945e+00
  3.401529e+00    2.992816e+00
  3.417405e+00    2.971707e+00
  3.433280e+00    3.001723e+00
  3.449156e+00    3.064300e+00
  3.465031e+00    2.993069e+00
  3.480907e+00    3.070149e+00
  3.496783e+00    3.005652e+00
  3.512658e+00    2.913116e+00
  3.528534e+00    2.908187e+00
  3.544409e+00    2.851017e+00
  3.560285e+00    2.952236e+00
  3.576160e+00    2.964464e+00
  3.592036e+00    2.961535e+00
  3.607912e+00    2.993002e+00
  3.623787e+00    2.960457e+00
  3.639663e+00    2.911146e+00
  3.655538e+00    2.934300e+00
  3.671414e+00    2.983027e+00
  3.687289e+00    2.960728e+00
  3.703165e+00    2.991914e+00
  3.719041e+00    3.015986e+00
  3.734916e+00    3.007291e+00
  3.750792e+00    2.918707e+00
  3.766667e+00    2.967958e+00
  3.782543e+00    2.945627e+00
  3.798418e+00    2.972458e+00
  3.814294e+00    3.003389e+00
  3.830170e+00    2.978188e+00
  3.846045e+00    3.081248e+00
  3.861921e+00    3.047589e+00
  3.877796e+00    3.024228e+00
  3.893672e+00    2.940834e+00
  3.909547e+00    2.962422e+00
  3.925423e+00    2.987907e+00
  3.941299e+00    2.946774e+00
  3.957174e+00    2.902454e+00
  3.973050e+00    2.992482e+00
  3.988925e+00    3.054541e+00
  4.004801e+00    3.062315e+00
  4.020676e+00    3.004483e+00
  4.036552e+00    3.048100e+00
  4.052428e+00    3.057920e+00
  4.068303e+00    2.992928e+00
  4.084179e+00    3.017228e+00
  4.100054e+00    3.050813e+00
  4.115930e+00    3.042574e+00
  4.131806e+00    3.089291e+00
  4.147681e+00    3.120187e+00
  4.163557e+00    3.012962e+00
  4.179432e+00    3.004305e+00
  4.195308e+00    3.013321e+00
  4.211183e+00    3.083097e+00
  4.227059e+00    3.018267e+00
  4.242935e+00    3.065847e+00
  4.258810e+00    3.141110e+00
  4.274686e+00    3.034047e+00
  4.290561e+00    3.002729e+00
  4.306437e+00    3.053929e+00
  4.322312e+00    3.037202e+00
  4.338188e+00    3.003674e+00
  4.354064e+00    3.053877e+00
  4.369939e+00    3.037441e+00
  4.385815e+00    3.002590e+00
  4.401690e+00    3.023508e+00
  4.417566e+00    3.050629e+00
  4.433441e+00    3.046473e+00
  4.449317e+00    3.035052e+00
  4.465193e+00    3.105657e+00
  4.481068e+00    3.073510e+00
  4.496944e+00    2.977435e+00
  4.512819e+00    3.023576e+00
  4.528695e+00    2.989102e+00
  4.544570e+00    3.034108e+00
  4.560446e+00    3.000948e+00
  4.576322e+00    2.958370e+00
  4.592197e+00    3.058335e+00
  4.608073e+00    3.071596e+00
  4.623948e+00    3.038011e+00
  4.639824e+00    3.051007e+00
  4.655699e+00    3.004160e+00
  4.671575e+00    3.029469e+00
  4.687451e+00    3.073314e+00
  4.703326e+00    3.101866e+00
  4.719202e+00    3.078923e+00
  4.735077e+00    3.257433e+00
  4.750953e+00    3.211778e+00
  4.766828e+00    3.134454e+00
  4.782704e+00    3.057158e+00
  4.798580e+00    3.043834e+00
  4.814455e+00    3.111581e+00
  4.830331e+00    3.091746e+00
  4.846206e+00    3.086091e+00
  4.862082e+00    3.042467e+00
  4.877957e+00    3.100497e+00
  4.893833e+00    3.133795e+00
  4.909709e+00    3.206005e+00
  4.925584e+00    3.116678e+00
  4.941460e+00    3.110521e+00
  4.957335e+00    3.154056e+00
  4.973211e+00    3.183358e+00
  4.989086e+00    3.127830e+00
  5.004962e+00    3.139402e+00
  5.020838e+00    3.117554e+00
  5.036713e+00    3.109887e+00
  5.052589e+00    3.052918e+00
  5.068464e+00    3.047998e+00
  5.084340e+00    3.100325e+00
  5.100216e+00    3.143471e+00
  5.116091e+00    3.060344e+00
  5.131967e+00    3.124306e+00
  5.147842e+00    3.127763e+00
  5.163718e+00    3.077963e+00
  5.179593e+00    3.103477e+00
  5.195469e+00    3.040186e+00
  5.211345e+00    3.080217e+00
  5.227220e+00    3.122491e+00
  5.243096e+00    3.176241e+00
  5.258971e+00    3.123206e+00
  5.274847e+00    3.044809e+00
  5.290722e+00    3.096745e+00
  5.306598e+00    3.073490e+00
  5.322474e+00    3.058057e+00
  5.338349e+00    3.134748e+00
  5.354225e+00    3.186568e+00
  5.370100e+00    3.220797e+00
  5.385976e+00    3.225488e+00
  5.401851e+00    3.141906e+00
  5.417727e+00    3.093956e+00
  5.433603e+00    3.110331e+00
  5.449478e+00    3.089498e+00
  5.465354e+00    3.064095e+00
  5.481229e+00    2.998562e+00
  5.497105e+00    3.063149e+00
  5.512980e+00    3.138072e+00
  5.528856e+00    3.036102e+00
  5.544732e+00    2.999757e+00
  5.560607e+00    2.954666e+00
  5.576483e+00    3.050180e+00
  5.592358e+00    3.090633e+00
  5.608234e+00    3.095829e+00
  5.624109e+00    3.083524e+00
  5.639985e+00    3.099298e+00
  5.655861e+00    3.173551e+00
  5.671736e+00    3.177499e+00
  5.687612e+00    3.083663e+00
  5.703487e+00    3.062054e+00
  5.719363e+00    3.055102e+00
  5.735238e+00    2.988372e+00
  5.751114e+00    3.066834e+00
  5.766990e+00    2.997386e+00
  5.782865e+00    2.977711e+00
  5.798741e+00    3.018023e+00
  5.814616e+00    3.073046e+00
  5.830492e+00    2.998522e+00
  5.846367e+00    3.070040e+00
  5.862243e+00    3.125926e+00
  5.878119e+00    3.057344e+00
  5.893994e+00    3.039421e+00
  5.909870e+00    2.969123e+00
  5.925745e+00    2.961667e+00
  5.941621e+00    2.992899e+00
  5.957497e+00    3.039916e+00
  5.973372e+00    3.046982e+00
  5.989248e+00    2.994305e+00
  6.005123e+00    2.927852e+00
  6.020999e+00    2.994517e+00
  6.036874e+00    2.977852e+00
  6.052750e+00    3.007912e+00
  6.068626e+00    2.997320e+00
  6.084501e+00    3.043400e+00
  6.100377e+00    3.091295e+00
  6.116252e+00    3.050880e+00
  6.132128e+00    3.007682e+00
  6.148003e+00    3.005418e+00
  6.163879e+00    3.099052e+00
  6.179755e+00    3.110112e+00
  6.195630e+00    2.996063e+00
  6.211506e+00    3.093330e+00
  6.227381e+00    3.123503e+00
  6.243257e+00    3.047037e+00
  6.259132e+00    3.091228e+00
  6.275008e+00    3.036449e+00
  6.290884e+00    3.039237e+00
  6.306759e+00    2.943654e+00
  6.322635e+00    3.008012e+00
  6.338510e+00    2.997234e+00
  6.354386e+00    3.005130e+00
  6.370261e+00    3.053463e+00
  6.386137e+00    3.053252e+00
  6.402013e+00    3.021866e+00
  6.417888e+00    3.027114e+00
  6.433764e+00    3.020819e+00
  6.449639e+00    2.971421e+00
  6.465515e+00    3.028244e+00
  6.481390e+00    3.083130e+00
  6.497266e+00    3.085926e+00
  6.513142e+00    3.022207e+00
  6.529017e+00    3.009293e+00
  6.544893e+00    2.963009e+00
  6.560768e+00    2.981130e+00
  6.576644e+00    3.043222e+00
  6.592519e+00    3.031347e+00
  6.608395e+00    3.046604e+00
  6.624271e+00    3.096310e+00
  6.640146e+00    3.035400e+00
  6.656022e+00    3.017066e+00
  6.671897e+00    3.083350e+00
  6.687773e+00    3.099314e+00
  6.703648e+00    3.063760e+00
  6.719524e+00    3.094233e+00
  6.735400e+00    3.046138e+00
  6.751275e+00    3.048635e+00
  6.767151e+00    3.062529e+00
  6.783026e+00    3.089996e+00
  6.798902e+00    3.083451e+00
  6.814777e+00    3.017956e+00
  6.830653e+00    2.980221e+00
  6.846529e+00    2.960367e+00
  6.862404e+00    3.028653e+00
  6.878280e+00    3.036537e+00
  6.894155e+00    3.154818e+00
  6.910031e+00    3.098740e+00
  6.925907e+00    2.998454e+00
  6.941782e+00    2.982006e+00
  6.957658e+00    3.040807e+00
  6.973533e+00    3.048125e+00
  6.989409e+00    3.032638e+00
  7.005284e+00    2.986530e+00
  7.021160e+00    2.974672e+00
  7.037036e+00    3.051700e+00
  7.052911e+00    3.048202e+00
  7.068787e+00    2.977387e+00
  7.084662e+00    3.030304e+00
  7.100538e+00    3.031510e+00
  7.116413e+00    2.968298e+00
  7.132289e+00    3.027630e+00
  7.148165e+00    3.037467e+00
  7.164040e+00    2.977303e+00
  7.179916e+00    2.990782e+00
  7.195791e+00    3.025846e+00
  7.211667e+00    3.088508e+00
  7.227542e+00    3.047495e+00
  7.243418e+00    2.976217e+00
  7.259294e+00    2.960397e+00
  7.275169e+00    2.941717e+00
  7.291045e+00    2.970997e+00
  7.306920e+00    3.076216e+00
  7.322796e+00    3.056664e+00
  7.338671e+00    3.018528e+00
  7.354547e+00    3.008378e+00
  7.370423e+00    2.978981e+00
  7.386298e+00    2.915880e+00
  7.402174e+00    2.999886e+00
  7.418049e+00    3.022780e+00
  7.433925e+00    3.002348e+00
  7.449800e+00    3.038590e+00
  7.465676e+00    3.055116e+00
  7.481552e+00    2.989853e+00
  7.497427e+00    2.930343e+00
  7.513303e+00    3.027417e+00
  7.529178e+00    2.981489e+00
  7.545054e+00    2.919765e+00
  7.560929e+00    2.948591e+00
  7.576805e+00    3.047271e+00
  7.592681e+00    2.958429e+00
  7.608556e+00    2.936978e+00
  7.624432e+00    2.935979e+00
  7.640307e+00    3.004013e+00
  7.656183e+00    2.981276e+00
  7.672058e+00    2.970559e+00
  7.687934e+00    2.987290e+00
  7.703810e+00    2.917336e+00
  7.719685e+00    2.976305e+00
  7.735561e+00    2.967536e+00
  7.751436e+00    2.899150e+00
  7.767312e+00    2.880592e+00
  7.783187e+00    2.930373e+00
  7.799063e+00    2.926523e+00
  7.814939e+00    2.926602e+00
  7.830814e+00    2.953720e+00
  7.846690e+00    2.908059e+00
  7.862565e+00    2.937772e+00
  7.878441e+00    2.931122e+00
  7.894317e+00    2.921441e+00
  7.910192e+00    2.962455e+00
  7.926068e+00    2.973518e+00
  7.941943e+00    2.987727e+00
  7.957819e+00    2.988366e+00
  7.973694e+00    2.919442e+00
  7.989570e+00    2.953698e+00
  8.005446e+00    2.941755e+00
  8.021321e+00    2.940049e+00
  8.037197e+00    2.925642e+00
  8.053072e+00    2.952965e+00
  8.068948e+00    2.914915e+00
  8.084823e+00    2.885974e+00
  8.100699e+00    2.952145e+00
  8.116575e+00    3.011608e+00
  8.132450e+00    2.974293e+00
  8.148326e+00    2.976232e+00
  8.164201e+00    3.016227e+00
  8.180077e+00    3.002799e+00
  8.195952e+00    2.936471e+00
  8.211828e+00    2.901895e+00
  8.227704e+00    2.936347e+00
  8.243579e+00    3.015440e+00
  8.259455e+00    2.918840e+00
  8.275330e+00    2.895266e+00
  8.291206e+00    2.923837e+00
  8.307081e+00    2.894931e+00
  8.322957e+00    2.884167e+00
  8.338833e+00    2.918293e+00
  8.354708e+00    2.867087e+00
  8.370584e+00    2.903250e+00
  8.386459e+00    2.927987e+00
  8.402335e+00    2.925934e+00
  8.418210e+00    2.900842e+00
  8.434086e+00    2.894674e+00
  8.449962e+00    2.907353e+00
  8.465837e+00    2.916480e+00
  8.481713e+00    2.879224e+00
  8.497588e+00    2.891870e+00
  8.513464e+00    2.909799e+00
  8.529339e+00    2.911433e+00
  8.545215e+00    2.846092e+00
  8.561091e+00    2.821193e+00
  8.576966e+00    2.824498e+00
  8.592842e+00    2.849687e+00
  8.608717e+00    2.850755e+00
  8.624593e+00    2.870413e+00
  8.640468e+00    2.849242e+00
  8.656344e+00    2.900724e+00
  8.672220e+00    2.910220e+00
  8.688095e+00    2.850449e+00
  8.703971e+00    2.817281e+00
  8.719846e+00    2.843408e+00
  8.735722e+00    2.806294e+00
  8.751598e+00    2.823679e+00
  8.767473e+00    2.838458e+00
  8.783349e+00    2.845511e+00
  8.799224e+00    2.867804e+00
  8.815100e+00    2.873385e+00
  8.830975e+00    2.858347e+00
  8.846851e+00    2.885919e+00
  8.862727e+00    2.859903e+00
  8.878602e+00    2.856286e+00
  8.894478e+00    2.862750e+00
  8.910353e+00    2.840587e+00
  8.926229e+00    2.785737e+00
  8.942104e+00    2.792801e+00
  8.957980e+00    2.789271e+00
  8.973856e+00    2.848015e+00
  8.989731e+00    2.840868e+00
  9.005607e+00    2.801141e+00
  9.021482e+00    2.783079e+00
  9.037358e+00    2.803568e+00
  9.053233e+00    2.776589e+00
  9.069109e+00    2.795718e+00
  9.084985e+00    2.832601e+00
  9.100860e+00    2.842340e+00
  9.116736e+00    2.839808e+00
  9.132611e+00    2.784429e+00
  9.148487e+00    2.847231e+00
  9.164362e+00    2.852771e+00
  9.180238e+00    2.808587e+00
  9.196114e+00    2.770803e+00
  9.211989e+00    2.786199e+00
  9.227865e+00    2.836145e+00
  9.243740e+00    2.772370e+00
  9.259616e+00    2.748347e+00
  9.275491e+00    2.751083e+00
  9.291367e+00    2.769889e+00
  9.307243e+00    2.748775e+00
  9.323118e+00    2.767365e+00
  9.338994e+00    2.754606e+00
  9.354869e+00    2.781634e+00
  9.370745e+00    2.747312e+00
  9.386620e+00    2.722098e+00
  9.402496e+00    2.704703e+00
  9.418372e+00    2.766365e+00
  9.434247e+00    2.790829e+00
  9.450123e+00    2.794929e+00
  9.465998e+00    2.719387e+00
  9.481874e+00    2.742587e+00
  9.497749e+00    2.726702e+00
  9.513625e+00    2.699631e+00
  9.529501e+00    2.749817e+00
  9.545376e+00    2.801322e+00
  9.561252e+00    2.800269e+00
  9.577127e+00    2.769408e+00
  9.593003e+00    2.750472e+00
  9.608878e+00    2.780971e+00
  9.624754e+00    2.771410e+00
  9.640630e+00    2.752950e+00
  9.656505e+00    2.762203e+00
  9.672381e+00    2.699016e+00
  9.688256e+00    2.696769e+00
  9.704132e+00    2.740273e+00
  9.720008e+00    2.766152e+00
  9.735883e+00    2.673341e+00
  9.751759e+00    2.707725e+00
  9.767634e+00    2.692995e+00
  9.783510e+00    2.733480e+00
  9.799385e+00    2.755593e+00
  9.815261e+00    2.669495e+00
  9.831137e+00    2.628461e+00
  9.847012e+00    2.700556e+00
  9.862888e+00    2.697799e+00
  9.878763e+00    2.673645e+00
  9.894639e+00    2.678641e+00
  9.910514e+00    2.687453e+00
  9.926390e+00    2.682367e+00
  9.942266e+00    2.692745e+00
  9.958141e+00    2.692523e+00
  9.974017e+00    2.662533e+00
  9.989892e+00    2.647658e+00
  1.000577e+01    2.660899e+00
  1.002164e+01    2.660040e+00
  1.003752e+01    2.688293e+00
  1.005339e+01    2.725301e+00
  1.006927e+01    2.706928e+00
  1.008515e+01    2.672168e+00
  1.010102e+01    2.678290e+00
  1.011690e+01    2.620979e+00
  1.013277e+01    2.655860e+00
  1.014865e+01    2.679300e+00
  1.016452e+01    2.700516e+00
  1.018040e+01    2.666666e+00
  1.019627e+01    2.619939e+00
  1.021215e+01    2.622814e+00
  1.022803e+01    2.650124e+00
  1.024390e+01    2.587251e+00
  1.025978e+01    2.641641e+00
  1.027565e+01    2.672329e+00
  1.029153e+01    2.614755e+00
  1.030740e+01    2.579317e+00
  1.032328e+01    2.611992e+00
  1.033915e+01    2.637581e+00
  1.035503e+01    2.667428e+00
  1.037091e+01    2.600595e+00
  1.038678e+01    2.632555e+00
  1.040266e+01    2.665328e+00
  1.041853e+01    2.591582e+00
  1.043441e+01    2.577446e+00
  1.045028e+01    2.619269e+00
  1.046616e+01    2.567268e+00
  1.048204e+01    2.580441e+00
  1.049791e+01    2.614128e+00
  1.051379e+01    2.565359e+00
  1.052966e+01    2.546620e+00
  1.054554e+01    2.555854e+00
  1.056141e+01    2.581430e+00
  1.057729e+01    2.602647e+00
  1.059316e+01    2.549892e+00
  1.060904e+01    2.555315e+00
  1.062492e+01    2.597163e+00
  1.064079e+01    2.554652e+00
  1.065667e+01    2.532990e+00
  1.067254e+01    2.550868e+00
  1.068842e+01    2.599598e+00
  1.070429e+01    2.620862e+00
  1.072017e+01    2.579990e+00
  1.073604e+01    2.556802e+00
  1.075192e+01    2.556646e+00
  1.076780e+01    2.550164e+00
  1.078367e+01    2.549824e+00
  1.079955e+01    2.520495e+00
  1.081542e+01    2.546579e+00
  1.083130e+01    2.564916e+00
  1.084717e+01    2.538763e+00
  1.086305e+01    2.500659e+00
  1.087892e+01    2.507011e+00
  1.089480e+01    2.514927e+00
  1.091068e+01    2.542874e+00
  1.092655e+01    2.529695e+00
  1.094243e+01    2.506607e+00
  1.095830e+01    2.525278e+00
  1.097418e+01    2.529642e+00
  1.099005e+01    2.504613e+00
  1.100593e+01    2.506886e+00
  1.102180e+01    2.511831e+00
  1.103768e+01    2.450141e+00
  1.105356e+01    2.457937e+00
  1.106943e+01    2.482052e+00
  1.108531e+01    2.469466e+00
  1.110118e+01    2.479552e+00
  1.111706e+01    2.457859e+00
  1.113293e+01    2.464324e+00
  1.114881e+01    2.455616e+00
  1.116468e+01    2.462193e+00
  1.118056e+01    2.445186e+00
  1.119644e+01    2.420343e+00
  1.121231e+01    2.458066e+00
  1.122819e+01    2.469088e+00
  1.124406e+01    2.418355e+00
  1.125994e+01    2.433609e+00
  1.127581e+01    2.444610e+00
  1.129169e+01    2.458760e+00
  1.130756e+01    2.451094e+00
  1.132344e+01    2.390433e+00
  1.133932e+01    2.443257e+00
  1.135519e+01    2.439744e+00
  1.137107e+01    2.434744e+00
  1.138694e+01    2.422770e+00
  1.140282e+01    2.396388e+00
  1.141869e+01    2.400234e+00
  1.143457e+01    2.390843e+00
  1.145045e+01    2.441919e+00
  1.146632e+01    2.418731e+00
  1.148220e+01    2.436727e+00
  1.149807e+01    2.450459e+00
  1.151395e+01    2.421429e+00
  1.152982e+01    2.408877e+00
  1.154570e+01    2.393011e+00
  1.156157e+01    2.407051e+00
  1.157745e+01    2.460128e+00
  1.159333e+01    2.433374e+00
  1.160920e+01    2.431906e+00
  1.162508e+01    2.416861e+00
  1.164095e+01    2.364552e+00
  1.165683e+01    2.343418e+00
  1.167270e+01    2.352430e+00
  1.168858e+01    2.376004e+00
  1.170445e+01    2.357766e+00
  1.172033e+01    2.369754e+00
  1.173621e+01    2.377612e+00
  1.175208e+01    2.386737e+00
  1.176796e+01    2.348346e+00
  1.178383e+01    2.322272e+00
  1.179971e+01    2.366514e+00
  1.181558e+01    2.366257e+00
  1.183146e+01    2.367368e+00
  1.184733e+01    2.322689e+00
  1.186321e+01    2.326469e+00
  1.187909e+01    2.362688e+00
  1.189496e+01    2.329511e+00
  1.191084e+01    2.318339e+00
  1.192671e+01    2.351469e+00
  1.194259e+01    2.357127e+00
  1.195846e+01    2.380709e+00
  1.197434e+01    2.369986e+00
  1.199021e+01    2.351812e+00
  1.200609e+01    2.295978e+00
  1.202197e+01    2.326705e+00
  1.203784e+01    2.347357e+00
  1.205372e+01    2.332523e+00
  1.206959e+01    2.363627e+00
  1.208547e+01    2.348958e+00
  1.210134e+01    2.391710e+00
  1.211722e+01    2.333352e+00
  1.213309e+01    2.313478e+00
  1.214897e+01    2.332344e+00
  1.216485e+01    2.373999e+00
  1.218072e+01    2.346524e+00
  1.219660e+01    2.331111e+00
  1.221247e+01    2.317197e+00
  1.222835e+01    2.323869e+00
  1.224422e+01    2.313032e+00
  1.226010e+01    2.303455e+00
  1.227597e+01    2.309828e+00
  1.229185e+01    2.296346e+00
  1.230773e+01    2.339128e+00
  1.232360e+01    2.348146e+00
  1.233948e+01    2.335386e+00
  1.235535e+01    2.304185e+00
  1.237123e+01    2.273030e+00
  1.238710e+01    2.316282e+00
  1.240298e+01    2.292757e+00
  1.241886e+01    2.356611e+00
  1.243473e+01    2.373577e+00
  1.245061e+01    2.321212e+00
  1.246648e+01    2.325309e+00
  1.248236e+01    2.301646e+00
  1.249823e+01    2.248189e+00
  1.251411e+01    2.333541e+00
  1.252998e+01    2.354348e+00
  1.254586e+01    2.340777e+00
  1.256174e+01    2.377240e+00
  1.257761e+01    2.352437e+00
  1.259349e+01    2.389792e+00
  1.260936e+01    2.400048e+00
  1.262524e+01    2.369955e+00
  1.264111e+01    2.409898e+00
  1.265699e+01    2.387810e+00
  1.267286e+01    2.404564e+00
  1.268874e+01    2.460389e+00
  1.270462e+01    2.479869e+00
  1.272049e+01    2.517066e+00
  1.273637e+01    2.534336e+00
  1.275224e+01    2.526541e+00
  1.276812e+01    2.598614e+00
  1.278399e+01    2.639258e+00
  1.279987e+01    2.654723e+00
  1.281574e+01    2.695595e+00
  1.283162e+01    2.824455e+00
  1.284750e+01    2.859807e+00
  1.286337e+01    2.900232e+00
  1.287925e+01    3.021950e+00
  1.289512e+01    3.189681e+00
  1.291100e+01    3.391241e+00
  1.292687e+01    3.532381e+00
  1.294275e+01    3.700549e+00
  1.295862e+01    3.967909e+00
  1.297450e+01    4.391783e+00
  1.299038e+01    4.886041e+00
  1.300625e+01    5.475541e+00
  1.302213e+01    6.171446e+00
  1.303800e+01    7.135666e+00
  1.305388e+01    8.289125e+00
  1.306975e+01    9.589574e+00
  1.308563e+01    1.098178e+01
  1.310150e+01    1.223389e+01
  1.311738e+01    1.333938e+01
  1.313326e+01    1.450197e+01
  1.314913e+01    1.553932e+01
  1.316501e+01    1.638610e+01
  1.318088e+01    1.685361e+01
  1.319676e+01    1.642498e+01
  1.321263e+01    1.523908e+01
  1.322851e+01    1.338577e+01
  1.324438e+01    1.140682e+01
  1.326026e+01    9.586446e+00
  1.327614e+01    8.077458e+00
  1.329201e+01    6.946748e+00
  1.330789e+01    6.014281e+00
  1.332376e+01    5.257538e+00
  1.333964e+01    4.692966e+00
  1.335551e+01    4.246029e+00
  1.337139e+01    3.910538e+00
  1.338727e+01    3.654172e+00
  1.340314e+01    3.446677e+00
  1.341902e+01    3.232399e+00
  1.343489e+01    3.052118e+00
  1.345077e+01    2.952027e+00
  1.346664e+01    2.793246e+00
  1.348252e+01    2.736325e+00
  1.349839e+01    2.685064e+00
  1.351427e+01    2.598005e+00
  1.353015e+01    2.558284e+00
  1.354602e+01    2.557312e+00
  1.356190e+01    2.469026e+00
  1.357777e+01    2.413755e+00
  1.359365e+01    2.404820e+00
  1.360952e+01    2.378410e+00
  1.362540e+01    2.351678e+00
  1.364127e+01    2.339276e+00
  1.365715e+01    2.268458e+00
  1.367303e+01    2.237389e+00
  1.368890e+01    2.225005e+00
  1.370478e+01    2.275918e+00
  1.372065e+01    2.252261e+00
  1.373653e+01    2.205633e+00
  1.375240e+01    2.230775e+00
  1.376828e+01    2.193736e+00
  1.378415e+01    2.128749e+00
  1.380003e+01    2.120313e+00
  1.381591e+01    2.154402e+00
  1.383178e+01    2.145954e+00
  1.384766e+01    2.078997e+00
  1.386353e+01    2.099389e+00
  1.387941e+01    2.101757e+00
  1.389528e+01    2.115255e+00
  1.391116e+01    2.089810e+00
  1.392703e+01    2.082576e+00
  1.394291e+01    2.078589e+00
  1.395879e+01    2.085111e+00
  1.397466e+01    2.059171e+00
  1.399054e+01    2.042446e+00
  1.400641e+01    2.055792e+00
  1.402229e+01    2.086568e+00
  1.403816e+01    2.052226e+00
  1.405404e+01    2.037296e+00
  1.406991e+01    2.020333e+00
  1.408579e+01    2.030929e+00
  1.410167e+01    2.044436e+00
  1.411754e+01    2.016056e+00
  1.413342e+01    1.990968e+00
  1.414929e+01    2.024786e+00
  1.416517e+01    1.997453e+00
  1.418104e+01    1.975445e+00
  1.419692e+01    2.031106e+00
  1.421279e+01    1.996974e+00
  1.422867e+01    1.990858e+00
  1.424455e+01    1.968208e+00
  1.426042e+01    1.953219e+00
  1.427630e+01    1.995840e+00
  1.429217e+01    2.011506e+00
  1.430805e+01    1.990095e+00
  1.432392e+01    1.956654e+00
  1.433980e+01    1.951552e+00
  1.435568e+01    1.926274e+00
  1.437155e+01    1.934837e+00
  1.438743e+01    1.974514e+00
  1.440330e+01    1.927317e+00
  1.441918e+01    1.910052e+00
  1.443505e+01    1.922172e+00
  1.445093e+01    1.910467e+00
  1.446680e+01    1.935604e+00
  1.448268e+01    1.922068e+00
  1.449856e+01    1.879142e+00
  1.451443e+01    1.895007e+00
  1.453031e+01    1.895060e+00
  1.454618e+01    1.943844e+00
  1.456206e+01    1.936758e+00
  1.457793e+01    1.938187e+00
  1.459381e+01    1.937620e+00
  1.460968e+01    1.900467e+00
  1.462556e+01    1.904178e+00
  1.464144e+01    1.952424e+00
  1.465731e+01    1.911803e+00
  1.467319e+01    1.891672e+00
  1.468906e+01    1.874462e+00
  1.470494e+01    1.903957e+00
  1.472081e+01    1.915715e+00
  1.473669e+01    1.903099e+00
  1.475256e+01    1.899481e+00
  1.476844e+01    1.930947e+00
  1.478432e+01    1.942174e+00
  1.480019e+01    1.899686e+00
  1.481607e+01    1.886886e+00
  1.483194e+01    1.909729e+00
  1.484782e+01    1.929523e+00
  1.486369e+01    1.920382e+00
  1.487957e+01    1.961970e+00
  1.489544e+01    1.991066e+00
  1.491132e+01    1.991004e+00
  1.492720e+01    1.974428e+00
  1.494307e+01    1.994063e+00
  1.495895e+01    2.065726e+00
  1.497482e+01    2.079211e+00
  1.499070e+01    2.118773e+00
  1.500657e+01    2.182074e+00
  1.502245e+01    2.218065e+00
  1.503832e+01    2.329387e+00
  1.505420e+01    2.429363e+00
  1.507008e+01    2.515035e+00
  1.508595e+01    2.669795e+00
  1.510183e+01    2.884094e+00
  1.511770e+01    3.143701e+00
  1.513358e+01    3.407806e+00
  1.514945e+01    3.707423e+00
  1.516533e+01    4.156796e+00
  1.518120e+01    4.525714e+00
  1.519708e+01    4.823235e+00
  1.521296e+01    5.119164e+00
  1.522883e+01    5.415900e+00
  1.524471e+01    5.630682e+00
  1.526058e+01    5.712159e+00
  1.527646e+01    5.736958e+00
  1.529233e+01    5.514621e+00
  1.530821e+01    5.163351e+00
  1.532409e+01    4.730476e+00
  1.533996e+01    4.227002e+00
  1.535584e+01    3.740814e+00
  1.537171e+01    3.306348e+00
  1.538759e+01    2.975327e+00
  1.540346e+01    2.757505e+00
  1.541934e+01    2.591852e+00
  1.543521e+01    2.407344e+00
  1.545109e+01    2.312119e+00
  1.546697e+01    2.207930e+00
  1.548284e+01    2.103965e+00
  1.549872e+01    2.075413e+00
  1.551459e+01    1.984895e+00
  1.553047e+01    1.961941e+00
  1.554634e+01    1.892051e+00
  1.556222e+01    1.855682e+00
  1.557809e+01    1.870960e+00
  1.559397e+01    1.844538e+00
  1.560985e+01    1.855553e+00
  1.562572e+01    1.838375e+00
  1.564160e+01    1.786470e+00
  1.565747e+01    1.760497e+00
  1.567335e+01    1.765394e+00
  1.568922e+01    1.778797e+00
  1.570510e+01    1.731910e+00
  1.572097e+01    1.729881e+00
  1.573685e+01    1.713083e+00
  1.575273e+01    1.702145e+00
  1.576860e+01    1.693836e+00
  1.578448e+01    1.724283e+00
  1.580035e+01    1.688145e+00
  1.581623e+01    1.667348e+00
  1.583210e+01    1.672919e+00
  1.584798e+01    1.684304e+00
  1.586385e+01    1.665080e+00
  1.587973e+01    1.656896e+00
  1.589561e+01    1.666879e+00
  1.591148e+01    1.652680e+00
  1.592736e+01    1.642579e+00
  1.594323e+01    1.632469e+00
  1.595911e+01    1.606174e+00
  1.597498e+01    1.605539e+00
  1.599086e+01    1.603956e+00
  1.600673e+01    1.604373e+00
  1.602261e+01    1.594007e+00
  1.603849e+01    1.605294e+00
  1.605436e+01    1.602100e+00
  1.607024e+01    1.609648e+00
  1.608611e+01    1.609142e+00
  1.610199e+01    1.570455e+00
  1.611786e+01    1.592049e+00
  1.613374e+01    1.563749e+00
  1.614961e+01    1.573827e+00
  1.616549e+01    1.588964e+00
  1.618137e+01    1.581964e+00
  1.619724e+01    1.575715e+00
  1.621312e+01    1.553461e+00
  1.622899e+01    1.540551e+00
  1.624487e+01    1.580864e+00
  1.626074e+01    1.575847e+00
  1.627662e+01    1.557497e+00
  1.629250e+01    1.535615e+00
  1.630837e+01    1.536764e+00
  1.632425e+01    1.557214e+00
  1.634012e+01    1.546716e+00
  1.635600e+01    1.544992e+00
  1.637187e+01    1.545206e+00
  1.638775e+01    1.550956e+00
  1.640362e+01    1.547417e+00
  1.641950e+01    1.546838e+00
  1.643538e+01    1.536434e+00
  1.645125e+01    1.535123e+00
  1.646713e+01    1.534541e+00
  1.648300e+01    1.523120e+00
  1.649888e+01    1.507747e+00
  1.651475e+01    1.508223e+00
  1.653063e+01    1.510286e+00
  1.654650e+01    1.532674e+00
  1.656238e+01    1.510718e+00
  1.657826e+01    1.529022e+00
  1.659413e+01    1.500893e+00
  1.661001e+01    1.509402e+00
  1.662588e+01    1.473029e+00
  1.664176e+01    1.473543e+00
  1.665763e+01    1.495169e+00
  1.667351e+01    1.500533e+00
  1.668938e+01    1.495402e+00
  1.670526e+01    1.466105e+00
  1.672114e+01    1.483869e+00
  1.673701e+01    1.485663e+00
  1.675289e+01    1.504402e+00
  1.676876e+01    1.506662e+00
  1.678464e+01    1.477111e+00
  1.680051e+01    1.460885e+00
  1.681639e+01    1.445697e+00
  1.683226e+01    1.469396e+00
  1.684814e+01    1.452777e+00
  1.686402e+01    1.486080e+00
  1.687989e+01    1.486575e+00
  1.689577e+01    1.430654e+00
  1.691164e+01    1.435819e+00
  1.692752e+01    1.439544e+00
  1.694339e+01    1.442742e+00
  1.695927e+01    1.461859e+00
  1.697514e+01    1.428924e+00
  1.699102e+01    1.402482e+00
  1.700690e+01    1.392417e+00
  1.702277e+01    1.432657e+00
  1.703865e+01    1.445239e+00
  1.705452e+01    1.404232e+00
  1.707040e+01    1.418844e+00
  1.708627e+01    1.415610e+00
  1.710215e+01    1.421174e+00
  1.711802e+01    1.413376e+00
  1.713390e+01    1.428037e+00
  1.714978e+01    1.435243e+00
  1.716565e+01    1.441204e+00
  1.718153e+01    1.428046e+00
  1.719740e+01    1.412249e+00
  1.721328e+01    1.415313e+00
  1.722915e+01    1.381770e+00
  1.724503e+01    1.395552e+00
  1.726091e+01    1.403332e+00
  1.727678e+01    1.383675e+00
  1.729266e+01    1.381680e+00
  1.730853e+01    1.366941e+00
  1.732441e+01    1.350990e+00
  1.734028e+01    1.386478e+00
  1.735616e+01    1.373031e+00
  1.737203e+01    1.373316e+00
  1.738791e+01    1.384868e+00
  1.740379e+01    1.396565e+00
  1.741966e+01    1.398854e+00
  1.743554e+01    1.407764e+00
  1.745141e+01    1.373475e+00
  1.746729e+01    1.348660e+00
  1.748316e+01    1.345010e+00
  1.749904e+01    1.355895e+00
  1.751491e+01    1.348383e+00
  1.753079e+01    1.357181e+00
  1.754667e+01    1.374410e+00
  1.756254e+01    1.342022e+00
  1.757842e+01    1.341550e+00
  1.759429e+01    1.383062e+00
  1.761017e+01    1.406959e+00
  1.762604e+01    1.365294e+00
  1.764192e+01    1.349123e+00
  1.765779e+01    1.337036e+00
  1.767367e+01    1.324849e+00
  1.768955e+01    1.341057e+00
  1.770542e+01    1.368366e+00
  1.772130e+01    1.353252e+00
  1.773717e+01    1.338393e+00
  1.775305e+01    1.344321e+00
  1.776892e+01    1.322675e+00
  1.778480e+01    1.324369e+00
  1.780067e+01    1.321950e+00
  1.781655e+01    1.314891e+00
  1.783243e+01    1.330762e+00
  1.784830e+01    1.316997e+00
  1.786418e+01    1.308292e+00
  1.788005e+01    1.298504e+00
  1.789593e+01    1.299286e+00
  1.791180e+01    1.328672e+00
  1.792768e+01    1.322233e+00
  1.794355e+01    1.318809e+00
  1.795943e+01    1.301654e+00
  1.797531e+01    1.305547e+00
  1.799118e+01    1.313607e+00
  1.800706e+01    1.318058e+00
  1.802293e+01    1.275186e+00
  1.803881e+01    1.309857e+00
  1.805468e+01    1.303524e+00
  1.807056e+01    1.303458e+00
  1.808643e+01    1.294349e+00
  1.810231e+01    1.310459e+00
  1.811819e+01    1.317561e+00
  1.813406e+01    1.265585e+00
  1.814994e+01    1.269308e+00
  1.816581e+01    1.279849e+00
  1.818169e+01    1.293235e+00
  1.819756e+01    1.293986e+00
  1.821344e+01    1.257458e+00
  1.822932e+01    1.253352e+00
  1.824519e+01    1.283514e+00
  1.826107e+01    1.265454e+00
  1.827694e+01    1.271045e+00
  1.829282e+01    1.298242e+00
  1.830869e+01    1.294316e+00
  1.832457e+01    1.260309e+00
  1.834044e+01    1.293150e+00
  1.835632e+01    1.266190e+00
  1.837220e+01    1.245481e+00
  1.838807e+01    1.263119e+00
  1.840395e+01    1.258487e+00
  1.841982e+01    1.255966e+00
  1.843570e+01    1.299863e+00
  1.845157e+01    1.270085e+00
  1.846745e+01    1.241149e+00
  1.848332e+01    1.255109e+00
  1.849920e+01    1.238217e+00
  1.851508e+01    1.248029e+00
  1.853095e+01    1.255887e+00
  1.854683e+01    1.240984e+00
  1.856270e+01    1.246526e+00
  1.857858e+01    1.262153e+00
  1.859445e+01    1.251170e+00
  1.861033e+01    1.263115e+00
  1.862620e+01    1.259310e+00
  1.864208e+01    1.243629e+00
  1.865796e+01    1.250508e+00
  1.867383e+01    1.247442e+00
  1.868971e+01    1.236676e+00
  1.870558e+01    1.218368e+00
  1.872146e+01    1.183686e+00
  1.873733e+01    1.216358e+00
  1.875321e+01    1.224831e+00
  1.876908e+01    1.225202e+00
  1.878496e+01    1.225977e+00
  1.880084e+01    1.240841e+00
  1.881671e+01    1.222785e+00
  1.883259e+01    1.215256e+00
  1.884846e+01    1.241015e+00
  1.886434e+01    1.199566e+00
  1.888021e+01    1.200124e+00
  1.889609e+01    1.215884e+00
  1.891196e+01    1.228135e+00
  1.892784e+01    1.200946e+00
  1.894372e+01    1.192875e+00
  1.895959e+01    1.185814e+00
  1.897547e+01    1.226416e+00
  1.899134e+01    1.225492e+00
  1.900722e+01    1.224052e+00
  1.902309e+01    1.197748e+00
  1.903897e+01    1.195837e+00
  1.905484e+01    1.167900e+00
  1.907072e+01    1.184065e+00
  1.908660e+01    1.201422e+00
  1.910247e+01    1.215797e+00
  1.911835e+01    1.185421e+00
  1.913422e+01    1.182006e+00
  1.915010e+01    1.173502e+00
  1.916597e+01    1.163658e+00
  1.918185e+01    1.187073e+00
  1.919773e+01    1.174938e+00
  1.921360e+01    1.189574e+00
  1.922948e+01    1.183118e+00
  1.924535e+01    1.211143e+00
  1.926123e+01    1.184294e+00
  1.927710e+01    1.144205e+00
  1.929298e+01    1.143357e+00
  1.930885e+01    1.160486e+00
  1.932473e+01    1.175311e+00
  1.934061e+01    1.181168e+00
  1.935648e+01    1.165497e+00
  1.937236e+01    1.170173e+00
  1.938823e+01    1.186821e+00
  1.940411e+01    1.180602e+00
  1.941998e+01    1.154742e+00
  1.943586e+01    1.140745e+00
  1.945173e+01    1.159558e+00
  1.946761e+01    1.150519e+00
  1.948349e+01    1.146757e+00
  1.949936e+01    1.168002e+00
  1.951524e+01    1.170962e+00
  1.953111e+01    1.162578e+00
  1.954699e+01    1.159217e+00
  1.956286e+01    1.156320e+00
  1.957874e+01    1.153569e+00
  1.959461e+01    1.129337e+00
  1.961049e+01    1.137233e+00
  1.962637e+01    1.146503e+00
  1.964224e+01    1.133506e+00
  1.965812e+01    1.133946e+00
  1.967399e+01    1.129711e+00
  1.968987e+01    1.133327e+00
  1.970574e+01    1.157894e+00
  1.972162e+01    1.140068e+00
  1.973749e+01    1.126750e+00
  1.975337e+01    1.143803e+00
  1.976925e+01    1.131118e+00
  1.978512e+01    1.143299e+00
  1.980100e+01    1.126051e+00
  1.981687e+01    1.122573e+00
  1.983275e+01    1.115368e+00
  1.984862e+01    1.113219e+00
  1.986450e+01    1.155127e+00
  1.988037e+01    1.123360e+00
  1.989625e+01    1.104536e+00
  1.991213e+01    1.103148e+00
  1.992800e+01    1.137132e+00
  1.994388e+01    1.154116e+00
  1.995975e+01    1.113776e+00
  1.997563e+01    1.120222e+00
  1.999150e+01    1.125449e+00
  2.000738e+01    1.114110e+00
  2.002325e+01    1.132951e+00
  2.003913e+01    1.129602e+00
  2.005501e+01    1.099429e+00
  2.007088e+01    1.098941e+00
  2.008676e+01    1.112699e+00
  2.010263e+01    1.125650e+00
  2.011851e+01    1.120442e+00
  2.013438e+01    1.113259e+00
  2.015026e+01    1.074190e+00
  2.016614e+01    1.095035e+00
  2.018201e+01    1.108276e+00
  2.019789e+01    1.110894e+00
  2.021376e+01    1.112359e+00
  2.022964e+01    1.112923e+00
  2.024551e+01    1.093119e+00
  2.026139e+01    1.083542e+00
  2.027726e+01    1.098582e+00
  2.029314e+01    1.091543e+00
  2.030902e+01    1.086983e+00
  2.032489e+01    1.088476e+00
  2.034077e+01    1.113134e+00
  2.035664e+01    1.100721e+00
  2.037252e+01    1.074044e+00
  2.038839e+01    1.081988e+00
  2.040427e+01    1.092926e+00
  2.042014e+01    1.095737e+00
  2.043602e+01    1.061024e+00
  2.045190e+01    1.052428e+00
  2.046777e+01    1.099779e+00
  2.048365e+01    1.097653e+00
  2.049952e+01    1.092696e+00
  2.051540e+01    1.091278e+00
  2.053127e+01    1.069386e+00
  2.054715e+01    1.078514e+00
  2.056302e+01    1.091537e+00
  2.057890e+01    1.072004e+00
  2.059478e+01    1.093141e+00
  2.061065e+01    1.092493e+00
  2.062653e+01    1.081201e+00
  2.064240e+01    1.095754e+00
  2.065828e+01    1.094669e+00
  2.067415e+01    1.088386e+00
  2.069003e+01    1.074005e+00
  2.070590e+01    1.049431e+00
  2.072178e+01    1.070632e+00
  2.073766e+01    1.076336e+00
  2.075353e+01    1.095030e+00
  2.076941e+01    1.089185e+00
  2.078528e+01    1.075918e+00
  2.080116e+01    1.072600e+00
  2.081703e+01    1.034860e+00
  2.083291e+01    1.085628e+00
  2.084878e+01    1.085044e+00
  2.086466e+01    1.081661e+00
  2.088054e+01    1.079654e+00
  2.089641e+01    1.076277e+00
  2.091229e+01    1.063900e+00
  2.092816e+01    1.091652e+00
  2.094404e+01    1.092866e+00
  2.095991e+01    1.057608e+00
  2.097579e+01    1.079246e+00
  2.099166e+01    1.097513e+00
  2.100754e+01    1.076424e+00
  2.102342e+01    1.087383e+00
  2.103929e+01    1.079158e+00
  2.105517e+01    1.065040e+00
  2.107104e+01    1.082498e+00
  2.108692e+01    1.089812e+00
  2.110279e+01    1.082119e+00
  2.111867e+01    1.083036e+00
  2.113455e+01    1.087361e+00
  2.115042e+01    1.074994e+00
  2.116630e+01    1.073665e+00
  2.118217e+01    1.098634e+00
  2.119805e+01    1.104105e+00
  2.121392e+01    1.097630e+00
  2.122980e+01    1.099675e+00
  2.124567e+01    1.115335e+00
  2.126155e+01    1.099457e+00
  2.127743e+01    1.112720e+00
  2.129330e+01    1.115130e+00
  2.130918e+01    1.133994e+00
  2.132505e+01    1.128980e+00
  2.134093e+01    1.129535e+00
  2.135680e+01    1.140651e+00
  2.137268e+01    1.149915e+00
  2.138855e+01    1.166225e+00
  2.140443e+01    1.168260e+00
  2.142031e+01    1.175449e+00
  2.143618e+01    1.194581e+00
  2.145206e+01    1.195677e+00
  2.146793e+01    1.247978e+00
  2.148381e+01    1.284816e+00
  2.149968e+01    1.287753e+00
  2.151556e+01    1.299636e+00
  2.153143e+01    1.328356e+00
  2.154731e+01    1.364359e+00
  2.156319e+01    1.423393e+00
  2.157906e+01    1.482402e+00
  2.159494e+01    1.530641e+00
  2.161081e+01    1.637077e+00
  2.162669e+01    1.712752e+00
  2.164256e+01    1.813290e+00
  2.165844e+01    1.953688e+00
  2.167431e+01    2.103769e+00
  2.169019e+01    2.342347e+00
  2.170607e+01    2.604922e+00
  2.172194e+01    2.912383e+00
  2.173782e+01    3.282567e+00
  2.175369e+01    3.743246e+00
  2.176957e+01    4.318689e+00
  2.178544e+01    4.901410e+00
  2.180132e+01    5.555284e+00
  2.181719e+01    6.223361e+00
  2.183307e+01    6.912829e+00
  2.184895e+01    7.625865e+00
  2.186482e+01    8.250844e+00
  2.188070e+01    8.765812e+00
  2.189657e+01    9.179746e+00
  2.191245e+01    9.155021e+00
  2.192832e+01    8.775836e+00
  2.194420e+01    8.041924e+00
  2.196007e+01    7.059629e+00
  2.197595e+01    6.079538e+00
  2.199183e+01    5.145840e+00
  2.200770e+01    4.348425e+00
  2.202358e+01    3.711083e+00
  2.203945e+01    3.247452e+00
  2.205533e+01    2.887225e+00
  2.207120e+01    2.547543e+00
  2.208708e+01    2.252665e+00
  2.210296e+01    2.071645e+00
  2.211883e+01    1.920512e+00
  2.213471e+01    1.781085e+00
  2.215058e+01    1.651814e+00
  2.216646e+01    1.574226e+00
  2.218233e+01    1.485465e+00
  2.219821e+01    1.425123e+00
  2.221408e+01    1.384323e+00
  2.222996e+01    1.331517e+00
  2.224584e+01    1.295289e+00
  2.226171e+01    1.274910e+00
  2.227759e+01    1.247789e+00
  2.229346e+01    1.190433e+00
  2.230934e+01    1.169723e+00
  2.232521e+01    1.140867e+00
  2.234109e+01    1.127654e+00
  2.235696e+01    1.102396e+00
  2.237284e+01    1.085446e+00
  2.238872e+01    1.075639e+00
  2.240459e+01    1.065098e+00
  2.242047e+01    1.047391e+00
  2.243634e+01    1.049464e+00
  2.245222e+01    1.058676e+00
  2.246809e+01    1.035801e+00
  2.248397e+01    1.038931e+00
  2.249984e+01    1.021930e+00
  2.251572e+01    1.002958e+00
  2.253160e+01    9.799379e-01
  2.254747e+01    9.916044e-01
  2.256335e+01    9.893117e-01
  2.257922e+01    1.017699e+00
  2.259510e+01    9.966180e-01
  2.261097e+01    9.751116e-01
  2.262685e+01    9.741324e-01
  2.264272e+01    9.560727e-01
  2.265860e+01    9.744313e-01
  2.267448e+01    9.675043e-01
  2.269035e+01    9.568047e-01
  2.270623e+01    9.696248e-01
  2.272210e+01    9.572598e-01
  2.273798e+01    9.424220e-01
  2.275385e+01    9.614207e-01
  2.276973e+01    9.525841e-01
  2.278560e+01    9.673972e-01
  2.280148e+01    9.461853e-01
  2.281736e+01    9.312631e-01
  2.283323e+01    9.299437e-01
  2.284911e+01    9.509095e-01
  2.286498e+01    9.413558e-01
  2.288086e+01    9.367117e-01
  2.289673e+01    9.211453e-01
  2.291261e+01    8.953155e-01
  2.292848e+01    9.120301e-01
  2.294436e+01    9.083014e-01
  2.296024e+01    9.007945e-01
  2.297611e+01    9.083411e-01
  2.299199e+01    9.046127e-01
  2.300786e+01    8.995218e-01
  2.302374e+01    8.973381e-01
  2.303961e+01    8.991830e-01
  2.305549e+01    8.726926e-01
  2.307137e+01    8.932292e-01
  2.308724e+01    8.990102e-01
  2.310312e+01    8.810553e-01
  2.311899e+01    9.025790e-01
  2.313487e+01    8.835372e-01
  2.315074e+01    8.651721e-01
  2.316662e+01    8.798085e-01
  2.318249e+01    8.740007e-01
  2.319837e+01    8.745239e-01
  2.321425e+01    8.717062e-01
  2.323012e+01    8.545131e-01
  2.324600e+01    8.463993e-01
  2.326187e+01    8.656145e-01
  2.327775e+01    8.640157e-01
  2.329362e+01    8.673969e-01
  2.330950e+01    8.616880e-01
  2.332537e+01    8.548980e-01
  2.334125e+01    8.512884e-01
  2.335713e+01    8.518887e-01
  2.337300e+01    8.683933e-01
  2.338888e+01    8.659191e-01
  2.340475e+01    8.745722e-01
  2.342063e+01    8.580999e-01
  2.343650e+01    8.379821e-01
  2.345238e+01    8.397897e-01
  2.346825e+01    8.591042e-01
  2.348413e+01    8.487503e-01
  2.350001e+01    8.463555e-01
  2.351588e+01    8.466623e-01
  2.353176e+01    8.434083e-01
  2.354763e+01    8.313035e-01
  2.356351e+01    8.181630e-01
  2.357938e+01    8.262749e-01
  2.359526e+01    8.355951e-01
  2.361113e+01    8.580381e-01
  2.362701e+01    8.626647e-01
  2.364289e+01    8.282750e-01
  2.365876e+01    8.221611e-01
  2.367464e+01    8.161411e-01
  2.369051e+01    8.196534e-01
  2.370639e+01    8.449223e-01
  2.372226e+01    8.286831e-01
  2.373814e+01    8.163006e-01
  2.375401e+01    8.071320e-01
  2.376989e+01    8.119336e-01
  2.378577e+01    8.244678e-01
  2.380164e+01    8.072580e-01
  2.381752e+01    8.211842e-01
  2.383339e+01    8.105508e-01
  2.384927e+01    8.003470e-01
  2.386514e+01    7.919007e-01
  2.388102e+01    7.982475e-01
  2.389689e+01    8.050680e-01
  2.391277e+01    8.020406e-01
  2.392865e+01    7.955155e-01
  2.394452e+01    8.019233e-01
  2.396040e+01    7.973322e-01
  2.397627e+01    8.139113e-01
  2.399215e+01    8.013622e-01
  2.400802e+01    7.941464e-01
  2.402390e+01    7.926490e-01
  2.403978e+01    8.028749e-01
  2.405565e+01    7.976308e-01
  2.407153e+01    7.822176e-01
  2.408740e+01    7.947462e-01
  2.410328e+01    7.911809e-01
  2.411915e+01    8.014128e-01
  2.413503e+01    7.716826e-01
  2.415090e+01    7.720019e-01
  2.416678e+01    7.790692e-01
  2.418266e+01    7.816146e-01
  2.419853e+01    7.825936e-01
  2.421441e+01    7.704651e-01
  2.423028e+01    7.681024e-01
  2.424616e+01    7.831080e-01
  2.426203e+01    7.928724e-01
  2.427791e+01    7.747184e-01
  2.429378e+01    7.789633e-01
  2.430966e+01    7.860041e-01
  2.432554e+01    7.862405e-01
  2.434141e+01    7.913191e-01
  2.435729e+01    7.939255e-01
  2.437316e+01    7.747477e-01
  2.438904e+01    8.074369e-01
  2.440491e+01    7.969413e-01
  2.442079e+01    7.799049e-01
  2.443666e+01    7.922028e-01
  2.445254e+01    7.883271e-01
  2.446842e+01    7.808470e-01
  2.448429e+01    7.722875e-01
  2.450017e+01    7.705879e-01
  2.451604e+01    7.983234e-01
  2.453192e+01    7.928848e-01
  2.454779e+01    7.753457e-01
  2.456367e+01    7.969106e-01
  2.457954e+01    7.916495e-01
  2.459542e+01    7.940679e-01
  2.461130e+01    8.110509e-01
  2.462717e+01    8.048705e-01
  2.464305e+01    8.021315e-01
  2.465892e+01    7.842159e-01
  2.467480e+01    7.829319e-01
  2.469067e+01    7.876567e-01
  2.470655e+01    7.994896e-01
  2.472242e+01    7.889622e-01
  2.473830e+01    7.774801e-01
  2.475418e+01    7.801380e-01
  2.477005e+01    7.829981e-01
  2.478593e+01    7.958616e-01
  2.480180e+01    7.892646e-01
  2.481768e+01    7.940270e-01
  2.483355e+01    7.930505e-01
  2.484943e+01    7.709673e-01
  2.486530e+01    7.869818e-01
  2.488118e+01    7.968234e-01
  2.489706e+01    7.723302e-01
  2.491293e+01    7.758794e-01
  2.492881e+01    7.744495e-01
  2.494468e+01    7.931394e-01
  2.496056e+01    8.045768e-01
  2.497643e+01    7.827412e-01
  2.499231e+01    7.835206e-01
  2.500819e+01    7.827194e-01
  2.502406e+01    7.797654e-01
  2.503994e+01    7.980108e-01
  2.505581e+01    7.937939e-01
  2.507169e+01    7.888991e-01
  2.508756e+01    8.142832e-01
  2.510344e+01    7.927568e-01
  2.511931e+01    7.888165e-01
  2.513519e+01    8.197538e-01
  2.515107e+01    8.124697e-01
  2.516694e+01    8.119757e-01
  2.518282e+01    8.290650e-01
  2.519869e+01    8.256045e-01
  2.521457e+01    8.130447e-01
  2.523044e+01    8.451687e-01
  2.524632e+01    8.344160e-01
  2.526219e+01    8.550246e-01
  2.527807e+01    8.539209e-01
  2.529395e+01    8.368393e-01
  2.530982e+01    8.531767e-01
  2.532570e+01    8.641208e-01
  2.534157e+01    8.879644e-01
  2.535745e+01    8.873523e-01
  2.537332e+01    8.785778e-01
  2.538920e+01    8.961368e-01
  2.540507e+01    9.234465e-01
  2.542095e+01    9.102501e-01
  2.543683e+01    8.977914e-01
  2.545270e+01    9.244403e-01
  2.546858e+01    9.689168e-01
  2.548445e+01    9.705892e-01
  2.550033e+01    9.724854e-01
  2.551620e+01    9.863316e-01
  2.553208e+01    1.006631e+00
  2.554795e+01    1.001424e+00
  2.556383e+01    1.030971e+00
  2.557971e+01    1.056090e+00
  2.559558e+01    1.095014e+00
  2.561146e+01    1.144102e+00
  2.562733e+01    1.179887e+00
  2.564321e+01    1.196102e+00
  2.565908e+01    1.263030e+00
  2.567496e+01    1.312159e+00
  2.569083e+01    1.395192e+00
  2.570671e+01    1.481831e+00
  2.572259e+01    1.604219e+00
  2.573846e+01    1.727300e+00
  2.575434e+01    1.919393e+00
  2.577021e+01    2.094913e+00
  2.578609e+01    2.339918e+00
  2.580196e+01    2.644503e+00
  2.581784e+01    2.980751e+00
  2.583371e+01    3.414198e+00
  2.584959e+01    3.897166e+00
  2.586547e+01    4.454814e+00
  2.588134e+01    5.045450e+00
  2.589722e+01    5.684114e+00
  2.591309e+01    6.274065e+00
  2.592897e+01    6.789475e+00
  2.594484e+01    7.247238e+00
  2.596072e+01    7.488233e+00
  2.597660e+01    7.447341e+00
  2.599247e+01    7.204704e+00
  2.600835e+01    6.641829e+00
  2.602422e+01    5.902583e+00
  2.604010e+01    5.095862e+00
  2.605597e+01    4.380326e+00
  2.607185e+01    3.725532e+00
  2.608772e+01    3.216930e+00
  2.610360e+01    2.774230e+00
  2.611948e+01    2.463340e+00
  2.613535e+01    2.217116e+00
  2.615123e+01    2.009858e+00
  2.616710e+01    1.830950e+00
  2.618298e+01    1.665002e+00
  2.619885e+01    1.550068e+00
  2.621473e+01    1.446894e+00
  2.623060e+01    1.385331e+00
  2.624648e+01    1.316768e+00
  2.626236e+01    1.256071e+00
  2.627823e+01    1.204071e+00
  2.629411e+01    1.142578e+00
  2.630998e+01    1.106360e+00
  2.632586e+01    1.095032e+00
  2.634173e+01    1.080727e+00
  2.635761e+01    1.038590e+00
  2.637348e+01    1.012861e+00
  2.638936e+01    9.923955e-01
  2.640524e+01    9.676734e-01
  2.642111e+01    9.548902e-01
  2.643699e+01    9.436280e-01
  2.645286e+01    9.609563e-01
  2.646874e+01    9.544131e-01
  2.648461e+01    9.212596e-01
  2.650049e+01    9.295857e-01
  2.651636e+01    9.209540e-01
  2.653224e+01    9.154249e-01
  2.654812e+01    8.997086e-01
  2.656399e+01    9.095203e-01
  2.657987e+01    9.075719e-01
  2.659574e+01    9.189369e-01
  2.661162e+01    8.984538e-01
  2.662749e+01    8.892858e-01
  2.664337e+01    8.826067e-01
  2.665924e+01    8.981024e-01
  2.667512e+01    8.998881e-01
  2.669100e+01    8.879050e-01
  2.670687e+01    8.729683e-01
  2.672275e+01    8.731548e-01
  2.673862e+01    8.845284e-01
  2.675450e+01    8.669561e-01
  2.677037e+01    8.939991e-01
  2.678625e+01    9.138295e-01
  2.680212e+01    8.849524e-01
  2.681800e+01    8.822210e-01
  2.683388e+01    8.993554e-01
  2.684975e+01    8.933913e-01
  2.686563e+01    9.138333e-01
  2.688150e+01    9.079100e-01
  2.689738e+01    9.041486e-01
  2.691325e+01    9.263649e-01
  2.692913e+01    9.403742e-01
  2.694501e+01    9.591102e-01
  2.696088e+01    9.656732e-01
  2.697676e+01    9.899941e-01
  2.699263e+01    1.000700e+00
  2.700851e+01    1.023187e+00
  2.702438e+01    1.061993e+00
  2.704026e+01    1.092320e+00
  2.705613e+01    1.161748e+00
  2.707201e+01    1.219512e+00
  2.708789e+01    1.308525e+00
  2.710376e+01    1.406835e+00
  2.711964e+01    1.514443e+00
  2.713551e+01    1.618731e+00
  2.715139e+01    1.732935e+00
  2.716726e+01    1.884167e+00
  2.718314e+01    2.033673e+00
  2.719901e+01    2.132141e+00
  2.721489e+01    2.204547e+00
  2.723077e+01    2.223752e+00
  2.724664e+01    2.178448e+00
  2.726252e+01    2.086466e+00
  2.727839e+01    1.925794e+00
  2.729427e+01    1.764138e+00
  2.731014e+01    1.626259e+00
  2.732602e+01    1.472573e+00
  2.734189e+01    1.377464e+00
  2.735777e+01    1.260464e+00
  2.737365e+01    1.183716e+00
  2.738952e+01    1.140823e+00
  2.740540e+01    1.058808e+00
  2.742127e+01    1.029102e+00
  2.743715e+01    9.950526e-01
  2.745302e+01    9.790664e-01
  2.746890e+01    9.496567e-01
  2.748477e+01    9.469121e-01
  2.750065e+01    9.244911e-01
  2.751653e+01    9.010639e-01
  2.753240e+01    8.735676e-01
  2.754828e+01    8.822448e-01
  2.756415e+01    8.833128e-01
  2.758003e+01    8.918378e-01
  2.759590e+01    8.711753e-01
  2.761178e+01    8.287979e-01
  2.762765e+01    8.360913e-01
  2.764353e+01    8.435994e-01
  2.765941e+01    8.398882e-01
  2.767528e+01    8.074778e-01
  2.769116e+01    8.087830e-01
  2.770703e+01    8.221450e-01
  2.772291e+01    8.005734e-01
  2.773878e+01    7.969322e-01
  2.775466e+01    8.099939e-01
  2.777054e+01    8.146318e-01
  2.778641e+01    8.160325e-01
  2.780229e+01    7.920788e-01
  2.781816e+01    8.161019e-01
  2.783404e+01    8.052242e-01
  2.784991e+01    8.017082e-01
  2.786579e+01    8.053885e-01
  2.788166e+01    7.682328e-01
  2.789754e+01    7.839614e-01
  2.791342e+01    7.930298e-01
  2.792929e+01    8.042014e-01
  2.794517e+01    7.869727e-01
  2.796104e+01    7.729694e-01
  2.797692e+01    7.836843e-01
  2.799279e+01    7.860748e-01
  2.800867e+01    7.756466e-01
  2.802454e+01    7.722238e-01
  2.804042e+01    7.965594e-01
  2.805630e+01    7.992525e-01
  2.807217e+01    7.928528e-01
  2.808805e+01    7.711456e-01
  2.810392e+01    7.715080e-01
  2.811980e+01    7.617036e-01
  2.813567e+01    7.884573e-01
  2.815155e+01    7.801456e-01
  2.816742e+01    7.590736e-01
  2.818330e+01    7.536183e-01
  2.819918e+01    7.610923e-01
  2.821505e+01    7.602330e-01
  2.823093e+01    7.761287e-01
  2.824680e+01    7.657944e-01
  2.826268e+01    7.678288e-01
  2.827855e+01    7.693175e-01
  2.829443e+01    7.609621e-01
  2.831030e+01    7.639491e-01
  2.832618e+01    7.749104e-01
  2.834206e+01    7.691712e-01
  2.835793e+01    7.602915e-01
  2.837381e+01    7.612506e-01
  2.838968e+01    7.617745e-01
  2.840556e+01    7.538490e-01
  2.842143e+01    7.704601e-01
  2.843731e+01    7.912475e-01
  2.845318e+01    7.646375e-01
  2.846906e+01    7.589352e-01
  2.848494e+01    7.778672e-01
  2.850081e+01    7.795613e-01
  2.851669e+01    7.425423e-01
  2.853256e+01    7.398486e-01
  2.854844e+01    7.429581e-01
  2.856431e+01    7.367044e-01
  2.858019e+01    7.725355e-01
  2.859606e+01    7.506742e-01
  2.861194e+01    7.505369e-01
  2.862782e+01    7.617159e-01
  2.864369e+01    7.553108e-01
  2.865957e+01    7.533267e-01
  2.867544e+01    7.602293e-01
  2.869132e+01    7.316332e-01
  2.870719e+01    7.070107e-01
  2.872307e+01    7.140919e-01
  2.873895e+01    7.381811e-01
  2.875482e+01    7.365434e-01
  2.877070e+01    7.402668e-01
  2.878657e+01    7.428962e-01
  2.880245e+01    7.245641e-01
  2.881832e+01    7.622148e-01
  2.883420e+01    7.561836e-01
  2.885007e+01    7.277892e-01
  2.886595e+01    7.389705e-01
  2.888183e+01    7.552754e-01
  2.889770e+01    7.549079e-01
  2.891358e+01    7.363623e-01
  2.892945e+01    7.404424e-01
  2.894533e+01    7.419310e-01
  2.896120e+01    7.381297e-01
  2.897708e+01    7.516152e-01
  2.899295e+01    7.308230e-01
  2.900883e+01    7.270296e-01
  2.902471e+01    7.427773e-01
  2.904058e+01    7.368498e-01
  2.905646e+01    7.375867e-01
  2.907233e+01    7.270081e-01
  2.908821e+01    7.301525e-01
  2.910408e+01    7.493613e-01
  2.911996e+01    7.598908e-01
  2.913583e+01    7.339686e-01
  2.915171e+01    7.201470e-01
  2.916759e+01    7.288222e-01
  2.918346e+01    7.405076e-01
  2.919934e+01    7.420636e-01
  2.921521e+01    7.199911e-01
  2.923109e+01    7.366310e-01
  2.924696e+01    7.191561e-01
  2.926284e+01    7.197835e-01
  2.927871e+01    7.307463e-01
  2.929459e+01    7.422441e-01
  2.931047e+01    7.382236e-01
  2.932634e+01    7.351931e-01
  2.934222e+01    7.273646e-01
  2.935809e+01    7.086797e-01
  2.937397e+01    7.186249e-01
  2.938984e+01    7.451824e-01
  2.940572e+01    7.203144e-01
  2.942159e+01    7.087826e-01
  2.943747e+01    7.114332e-01
  2.945335e+01    7.105445e-01
  2.946922e+01    7.182664e-01
  2.948510e+01    7.123324e-01
  2.950097e+01    7.250177e-01
  2.951685e+01    7.281591e-01
  2.953272e+01    7.190695e-01
  2.954860e+01    7.034617e-01
  2.956447e+01    7.204931e-01
  2.958035e+01    7.300615e-01
  2.959623e+01    7.319498e-01
  2.961210e+01    7.195477e-01
  2.962798e+01    7.266966e-01
  2.964385e+01    7.104309e-01
  2.965973e+01    7.192166e-01
  2.967560e+01    7.276710e-01
  2.969148e+01    7.123158e-01
  2.970736e+01    7.159457e-01
  2.972323e+01    7.386260e-01
  2.973911e+01    7.270883e-01
  2.975498e+01    7.167088e-01
  2.977086e+01    7.082021e-01
  2.978673e+01    6.944976e-01
  2.980261e+01    7.179038e-01
  2.981848e+01    7.184324e-01
  2.983436e+01    7.042250e-01
  2.985024e+01    7.160939e-01
  2.986611e+01    7.147327e-01
  2.988199e+01    7.090809e-01
  2.989786e+01    7.255058e-01
  2.991374e+01    7.294543e-01
  2.992961e+01    7.232866e-01
  2.994549e+01    7.074426e-01
  2.996136e+01    7.314982e-01
  2.997724e+01    7.262343e-01
  2.999312e+01    7.252100e-01
  3.000899e+01    7.279052e-01
  3.002487e+01    7.263580e-01
  3.004074e+01    7.356927e-01
  3.005662e+01    7.479755e-01
  3.007249e+01    7.404650e-01
  3.008837e+01    7.287674e-01
  3.010424e+01    7.328114e-01
  3.012012e+01    7.213964e-01
  3.013600e+01    7.138242e-01
  3.015187e+01    7.135167e-01
  3.016775e+01    7.219068e-01
  3.018362e+01    7.087370e-01
  3.019950e+01    6.956696e-01
  3.021537e+01    7.015300e-01
  3.023125e+01    7.162271e-01
  3.024712e+01    6.919426e-01
  3.026300e+01    7.050236e-01
  3.027888e+01    7.041597e-01
  3.029475e+01    7.216242e-01
  3.031063e+01    6.957757e-01
  3.032650e+01    7.192950e-01
  3.034238e+01    7.298698e-01
  3.035825e+01    7.030017e-01
  3.037413e+01    7.113318e-01
  3.039000e+01    6.970943e-01
  3.040588e+01    6.958615e-01
  3.042176e+01    7.092262e-01
  3.043763e+01    7.107092e-01
  3.045351e+01    7.124126e-01
  3.046938e+01    6.995990e-01
  3.048526e+01    7.000341e-01
  3.050113e+01    7.035564e-01
  3.051701e+01    7.010177e-01
  3.053288e+01    7.023483e-01
  3.054876e+01    7.037413e-01
  3.056464e+01    7.169933e-01
  3.058051e+01    7.211668e-01
  3.059639e+01    7.063846e-01
  3.061226e+01    7.182803e-01
  3.062814e+01    7.172497e-01
  3.064401e+01    7.205934e-01
  3.065989e+01    7.270889e-01
  3.067577e+01    7.424513e-01
  3.069164e+01    7.305041e-01
  3.070752e+01    7.091512e-01
  3.072339e+01    7.032430e-01
  3.073927e+01    7.192976e-01
  3.075514e+01    7.254020e-01
  3.077102e+01    7.013980e-01
  3.078689e+01    7.169297e-01
  3.080277e+01    7.068921e-01
  3.081865e+01    7.134987e-01
  3.083452e+01    7.302186e-01
  3.085040e+01    7.160382e-01
  3.086627e+01    7.112949e-01
  3.088215e+01    6.998745e-01
  3.089802e+01    7.083222e-01
  3.091390e+01    7.186000e-01
  3.092977e+01    7.113901e-01
  3.094565e+01    6.942889e-01
  3.096153e+01    7.180268e-01
  3.097740e+01    7.066272e-01
  3.099328e+01    7.073881e-01
  3.100915e+01    7.057717e-01
  3.102503e+01    6.890934e-01
  3.104090e+01    6.996619e-01
  3.105678e+01    7.130333e-01
  3.107265e+01    7.113203e-01
  3.108853e+01    7.045019e-01
  3.110441e+01    7.168378e-01
  3.112028e+01    7.087542e-01
  3.113616e+01    7.126214e-01
  3.115203e+01    7.340665e-01
  3.116791e+01    7.391410e-01
  3.118378e+01    7.332499e-01
  3.119966e+01    7.192472e-01
  3.121553e+01    7.352937e-01
  3.123141e+01    7.199968e-01
  3.124729e+01    7.520790e-01
  3.126316e+01    7.536585e-01
  3.127904e+01    7.239833e-01
  3.129491e+01    7.298219e-01
  3.131079e+01    7.479982e-01
  3.132666e+01    7.347651e-01
  3.134254e+01    7.234583e-01
  3.135841e+01    7.308894e-01
  3.137429e+01    7.227623e-01
  3.139017e+01    7.355471e-01
  3.140604e+01    7.386739e-01
  3.142192e+01    7.645586e-01
  3.143779e+01    7.536113e-01
  3.145367e+01    7.545581e-01
  3.146954e+01    7.594590e-01
  3.148542e+01    7.421954e-01
  3.150129e+01    7.308875e-01
  3.151717e+01    7.515414e-01
  3.153305e+01    7.707613e-01
  3.154892e+01    7.959841e-01
  3.156480e+01    7.879062e-01
  3.158067e+01    7.759337e-01
  3.159655e+01    7.996076e-01
  3.161242e+01    8.147545e-01
  3.162830e+01    8.090782e-01
  3.164418e+01    8.607091e-01
  3.166005e+01    8.444397e-01
  3.167593e+01    8.739119e-01
  3.169180e+01    9.225137e-01
  3.170768e+01    9.505107e-01
  3.172355e+01    9.948927e-01
  3.173943e+01    1.040112e+00
  3.175530e+01    1.111603e+00
  3.177118e+01    1.182407e+00
  3.178706e+01    1.274399e+00
  3.180293e+01    1.391881e+00
  3.181881e+01    1.517248e+00
  3.183468e+01    1.643473e+00
  3.185056e+01    1.795169e+00
  3.186643e+01    1.954092e+00
  3.188231e+01    2.115116e+00
  3.189818e+01    2.190400e+00
  3.191406e+01    2.226032e+00
  3.192994e+01    2.211643e+00
  3.194581e+01    2.133694e+00
  3.196169e+01    1.988335e+00
  3.197756e+01    1.807233e+00
  3.199344e+01    1.670015e+00
  3.200931e+01    1.511275e+00
  3.202519e+01    1.381309e+00
  3.204106e+01    1.275254e+00
  3.205694e+01    1.153897e+00
  3.207282e+01    1.060235e+00
  3.208869e+01    9.942618e-01
  3.210457e+01    9.837564e-01
  3.212044e+01    9.489273e-01
  3.213632e+01    9.053410e-01
  3.215219e+01    8.760427e-01
  3.216807e+01    8.663719e-01
  3.218394e+01    8.385163e-01
  3.219982e+01    8.015093e-01
  3.221570e+01    7.988800e-01
  3.223157e+01    8.015751e-01
  3.224745e+01    7.894477e-01
  3.226332e+01    7.728138e-01
  3.227920e+01    7.642926e-01
  3.229507e+01    7.707324e-01
  3.231095e+01    7.664869e-01
  3.232682e+01    7.598013e-01
  3.234270e+01    7.374424e-01
  3.235858e+01    7.401116e-01
  3.237445e+01    7.702408e-01
  3.239033e+01    7.416900e-01
  3.240620e+01    7.402969e-01
  3.242208e+01    7.247957e-01
  3.243795e+01    7.404273e-01
  3.245383e+01    7.446882e-01
  3.246970e+01    7.309716e-01
  3.248558e+01    7.403244e-01
  3.250146e+01    7.175278e-01
  3.251733e+01    7.424080e-01
  3.253321e+01    7.238738e-01
  3.254908e+01    7.081121e-01
