# == pyFAI calibration ==
# Distance Sample to Detector: 0.3999999939076516 m
# PONI: 9.750e-02, 1.135e-01 m
# Rotations: -0.000175 0.000000 -0.000000 rad
# 
# == Fit2d calibration ==
# Distance Sample-beamCenter: 400.000 mm
# Center: x=1514.000, y=1300.000 pix
# Tilt: 0.010 deg  TiltPlanRot: 0.010 deg
# 
# Detector Detector	 Spline= None	 PixelSize= 7.500e-05, 7.500e-05 m
#    Detector has a mask: False 
#    Detector has a dark current: False 
#    detector has a flat field: False 
# 
# Wavelength: 6.888e-11 m
# Mask applied: user provided
# Dark current applied: False
# Flat field applied: False
# Polarization factor: 0.99
# Normalization factor: 1.0
# --> /home/myspot/data/2024_07_Rosario/Ru-CGO-ex/2024-07-27_002_Ru-CGO-ex_Activtation_ramp_000002_data_000028.dat
#       q_nm^-1             I 
  2.003187e-02    7.712624e-02
  3.590745e-02    1.700909e-01
  5.178302e-02    1.655917e-01
  6.765859e-02    1.344853e-01
  8.353417e-02    1.588857e-01
  9.940974e-02    8.554957e-02
  1.152853e-01    4.589840e-02
  1.311609e-01    4.107289e-02
  1.470365e-01    7.935643e-02
  1.629120e-01    8.419143e-02
  1.787876e-01    5.259149e-02
  1.946632e-01    9.234424e-03
  2.105388e-01    1.789436e-02
  2.264143e-01    5.842746e-04
  2.422899e-01    2.013729e-02
  2.581655e-01    5.837903e-02
  2.740411e-01    6.856096e-02
  2.899166e-01    3.507477e-02
  3.057922e-01    3.892915e-02
  3.216678e-01    3.693891e-02
  3.375433e-01    4.052189e-02
  3.534189e-01    3.309729e-02
  3.692945e-01    4.155929e-02
  3.851701e-01    2.348877e-02
  4.010456e-01    3.047105e-02
  4.169212e-01    1.707099e-02
  4.327968e-01    3.455271e-02
  4.486724e-01    6.715566e-02
  4.645479e-01    3.901177e-02
  4.804235e-01    4.315963e-02
  4.962991e-01    4.114846e-02
  5.121747e-01    7.104113e-02
  5.280502e-01    3.770371e-02
  5.439258e-01    1.974514e-02
  5.598014e-01    1.952285e-02
  5.756770e-01    1.310054e-02
  5.915525e-01    1.291919e-02
  6.074281e-01    2.604439e-02
  6.233037e-01    2.913841e-02
  6.391793e-01    4.784967e-02
  6.550548e-01    7.375233e-02
  6.709304e-01    6.227795e-02
  6.868060e-01    4.927269e-02
  7.026815e-01    4.725593e-02
  7.185571e-01    2.002038e-02
  7.344327e-01    1.688489e-02
  7.503083e-01    3.132864e-02
  7.661838e-01    5.104477e-02
  7.820594e-01    9.338849e-02
  7.979350e-01    1.670839e-01
  8.138106e-01    2.190495e-01
  8.296861e-01    2.502210e-01
  8.455617e-01    3.377369e-01
  8.614373e-01    4.542003e-01
  8.773129e-01    5.240747e-01
  8.931884e-01    5.144491e-01
  9.090640e-01    5.797788e-01
  9.249396e-01    6.311377e-01
  9.408152e-01    7.400246e-01
  9.566907e-01    7.643511e-01
  9.725663e-01    9.056305e-01
  9.884419e-01    1.012640e+00
  1.004317e+00    9.950843e-01
  1.020193e+00    1.082349e+00
  1.036069e+00    1.224618e+00
  1.051944e+00    1.232004e+00
  1.067820e+00    1.321354e+00
  1.083695e+00    1.317771e+00
  1.099571e+00    1.295629e+00
  1.115446e+00    1.516366e+00
  1.131322e+00    1.520564e+00
  1.147198e+00    1.573738e+00
  1.163073e+00    1.515418e+00
  1.178949e+00    1.514742e+00
  1.194824e+00    1.659764e+00
  1.210700e+00    2.006873e+00
  1.226575e+00    2.131644e+00
  1.242451e+00    2.252911e+00
  1.258327e+00    2.359070e+00
  1.274202e+00    2.433478e+00
  1.290078e+00    2.519739e+00
  1.305953e+00    2.499396e+00
  1.321829e+00    2.555499e+00
  1.337705e+00    2.655382e+00
  1.353580e+00    2.670545e+00
  1.369456e+00    2.737106e+00
  1.385331e+00    2.744804e+00
  1.401207e+00    2.840680e+00
  1.417082e+00    2.772923e+00
  1.432958e+00    2.699763e+00
  1.448834e+00    2.752195e+00
  1.464709e+00    2.923477e+00
  1.480585e+00    3.000130e+00
  1.496460e+00    2.920919e+00
  1.512336e+00    2.825860e+00
  1.528211e+00    2.995537e+00
  1.544087e+00    3.133837e+00
  1.559963e+00    3.050196e+00
  1.575838e+00    2.937535e+00
  1.591714e+00    2.997918e+00
  1.607589e+00    3.091819e+00
  1.623465e+00    3.042665e+00
  1.639340e+00    3.011657e+00
  1.655216e+00    2.863501e+00
  1.671092e+00    2.899090e+00
  1.686967e+00    2.924200e+00
  1.702843e+00    3.025698e+00
  1.718718e+00    3.008933e+00
  1.734594e+00    2.958210e+00
  1.750469e+00    2.907517e+00
  1.766345e+00    2.817916e+00
  1.782221e+00    2.836403e+00
  1.798096e+00    2.924240e+00
  1.813972e+00    2.841535e+00
  1.829847e+00    2.883829e+00
  1.845723e+00    2.831214e+00
  1.861598e+00    2.836845e+00
  1.877474e+00    2.701983e+00
  1.893350e+00    2.731555e+00
  1.909225e+00    2.773508e+00
  1.925101e+00    2.667078e+00
  1.940976e+00    2.723965e+00
  1.956852e+00    2.817092e+00
  1.972727e+00    2.720395e+00
  1.988603e+00    2.835951e+00
  2.004479e+00    2.838330e+00
  2.020354e+00    2.829524e+00
  2.036230e+00    2.843359e+00
  2.052105e+00    2.846239e+00
  2.067981e+00    2.840524e+00
  2.083856e+00    2.810910e+00
  2.099732e+00    2.691867e+00
  2.115608e+00    2.729017e+00
  2.131483e+00    2.644700e+00
  2.147359e+00    2.683961e+00
  2.163234e+00    2.741632e+00
  2.179110e+00    2.751575e+00
  2.194985e+00    2.668244e+00
  2.210861e+00    2.714765e+00
  2.226737e+00    2.839363e+00
  2.242612e+00    2.785713e+00
  2.258488e+00    2.789186e+00
  2.274363e+00    2.817598e+00
  2.290239e+00    2.876849e+00
  2.306115e+00    2.806578e+00
  2.321990e+00    2.764087e+00
  2.337866e+00    2.726177e+00
  2.353741e+00    2.745467e+00
  2.369617e+00    2.776625e+00
  2.385492e+00    2.788348e+00
  2.401368e+00    2.783488e+00
  2.417244e+00    2.731029e+00
  2.433119e+00    2.612664e+00
  2.448995e+00    2.737549e+00
  2.464870e+00    2.776354e+00
  2.480746e+00    2.731672e+00
  2.496621e+00    2.744953e+00
  2.512497e+00    2.851146e+00
  2.528373e+00    2.860257e+00
  2.544248e+00    2.835224e+00
  2.560124e+00    2.833086e+00
  2.575999e+00    2.873049e+00
  2.591875e+00    2.934647e+00
  2.607750e+00    2.899540e+00
  2.623626e+00    2.834762e+00
  2.639502e+00    2.829858e+00
  2.655377e+00    2.930245e+00
  2.671253e+00    2.956171e+00
  2.687128e+00    2.852265e+00
  2.703004e+00    2.841759e+00
  2.718879e+00    2.820933e+00
  2.734755e+00    2.829751e+00
  2.750631e+00    2.911012e+00
  2.766506e+00    2.827144e+00
  2.782382e+00    2.733576e+00
  2.798257e+00    2.783944e+00
  2.814133e+00    2.810059e+00
  2.830008e+00    2.883181e+00
  2.845884e+00    2.962480e+00
  2.861760e+00    2.837633e+00
  2.877635e+00    2.920450e+00
  2.893511e+00    2.981925e+00
  2.909386e+00    2.835376e+00
  2.925262e+00    2.817227e+00
  2.941137e+00    2.895445e+00
  2.957013e+00    2.869421e+00
  2.972889e+00    2.857995e+00
  2.988764e+00    2.889456e+00
  3.004640e+00    2.939477e+00
  3.020515e+00    2.960898e+00
  3.036391e+00    2.956748e+00
  3.052266e+00    2.951336e+00
  3.068142e+00    2.926332e+00
  3.084018e+00    2.887200e+00
  3.099893e+00    2.902601e+00
  3.115769e+00    2.922071e+00
  3.131644e+00    2.855033e+00
  3.147520e+00    2.891798e+00
  3.163395e+00    2.923023e+00
  3.179271e+00    2.974461e+00
  3.195147e+00    2.966596e+00
  3.211022e+00    2.929459e+00
  3.226898e+00    2.983457e+00
  3.242773e+00    2.953451e+00
  3.258649e+00    2.838596e+00
  3.274525e+00    2.886828e+00
  3.290400e+00    2.926503e+00
  3.306276e+00    3.010594e+00
  3.322151e+00    3.041366e+00
  3.338027e+00    3.066124e+00
  3.353902e+00    3.007983e+00
  3.369778e+00    2.939166e+00
  3.385654e+00    2.982041e+00
  3.401529e+00    2.952974e+00
  3.417405e+00    2.969719e+00
  3.433280e+00    2.982023e+00
  3.449156e+00    3.026447e+00
  3.465031e+00    2.988825e+00
  3.480907e+00    2.944510e+00
  3.496783e+00    2.949277e+00
  3.512658e+00    2.948642e+00
  3.528534e+00    2.901677e+00
  3.544409e+00    2.938027e+00
  3.560285e+00    2.989578e+00
  3.576160e+00    3.075414e+00
  3.592036e+00    2.984167e+00
  3.607912e+00    2.900252e+00
  3.623787e+00    3.029352e+00
  3.639663e+00    2.975880e+00
  3.655538e+00    2.978378e+00
  3.671414e+00    3.057891e+00
  3.687289e+00    3.025255e+00
  3.703165e+00    2.980237e+00
  3.719041e+00    2.958283e+00
  3.734916e+00    2.943872e+00
  3.750792e+00    3.067302e+00
  3.766667e+00    3.113314e+00
  3.782543e+00    2.979803e+00
  3.798418e+00    3.006684e+00
  3.814294e+00    3.026000e+00
  3.830170e+00    3.027647e+00
  3.846045e+00    3.088357e+00
  3.861921e+00    3.018191e+00
  3.877796e+00    3.025757e+00
  3.893672e+00    3.071761e+00
  3.909547e+00    3.090443e+00
  3.925423e+00    3.025718e+00
  3.941299e+00    2.995061e+00
  3.957174e+00    3.065354e+00
  3.973050e+00    3.023030e+00
  3.988925e+00    2.961217e+00
  4.004801e+00    3.003312e+00
  4.020676e+00    3.026502e+00
  4.036552e+00    2.973076e+00
  4.052428e+00    2.964947e+00
  4.068303e+00    3.047624e+00
  4.084179e+00    3.014316e+00
  4.100054e+00    2.998417e+00
  4.115930e+00    2.943409e+00
  4.131806e+00    2.947381e+00
  4.147681e+00    3.011080e+00
  4.163557e+00    3.068196e+00
  4.179432e+00    3.048469e+00
  4.195308e+00    3.082367e+00
  4.211183e+00    3.001882e+00
  4.227059e+00    3.075352e+00
  4.242935e+00    3.074858e+00
  4.258810e+00    2.986301e+00
  4.274686e+00    3.062188e+00
  4.290561e+00    3.154315e+00
  4.306437e+00    3.072355e+00
  4.322312e+00    3.093969e+00
  4.338188e+00    3.067111e+00
  4.354064e+00    3.052354e+00
  4.369939e+00    3.023714e+00
  4.385815e+00    3.091300e+00
  4.401690e+00    3.167546e+00
  4.417566e+00    3.134094e+00
  4.433441e+00    3.102957e+00
  4.449317e+00    3.057361e+00
  4.465193e+00    3.004915e+00
  4.481068e+00    3.020539e+00
  4.496944e+00    3.056002e+00
  4.512819e+00    3.070600e+00
  4.528695e+00    3.101218e+00
  4.544570e+00    3.150846e+00
  4.560446e+00    3.157278e+00
  4.576322e+00    3.133930e+00
  4.592197e+00    3.194750e+00
  4.608073e+00    3.151141e+00
  4.623948e+00    3.206778e+00
  4.639824e+00    3.146385e+00
  4.655699e+00    3.022727e+00
  4.671575e+00    3.028661e+00
  4.687451e+00    3.128004e+00
  4.703326e+00    3.162256e+00
  4.719202e+00    3.107347e+00
  4.735077e+00    3.400777e+00
  4.750953e+00    3.291690e+00
  4.766828e+00    3.099924e+00
  4.782704e+00    3.060943e+00
  4.798580e+00    3.137129e+00
  4.814455e+00    3.152694e+00
  4.830331e+00    3.177718e+00
  4.846206e+00    3.073936e+00
  4.862082e+00    3.112139e+00
  4.877957e+00    3.179741e+00
  4.893833e+00    3.057627e+00
  4.909709e+00    3.080352e+00
  4.925584e+00    3.068509e+00
  4.941460e+00    3.086455e+00
  4.957335e+00    3.147241e+00
  4.973211e+00    3.121387e+00
  4.989086e+00    3.176009e+00
  5.004962e+00    3.107894e+00
  5.020838e+00    3.070985e+00
  5.036713e+00    3.143655e+00
  5.052589e+00    3.126391e+00
  5.068464e+00    3.166501e+00
  5.084340e+00    3.177873e+00
  5.100216e+00    3.119089e+00
  5.116091e+00    3.156136e+00
  5.131967e+00    3.203365e+00
  5.147842e+00    3.218359e+00
  5.163718e+00    3.126440e+00
  5.179593e+00    3.124447e+00
  5.195469e+00    3.125052e+00
  5.211345e+00    3.083025e+00
  5.227220e+00    3.142728e+00
  5.243096e+00    3.160920e+00
  5.258971e+00    3.153924e+00
  5.274847e+00    3.142652e+00
  5.290722e+00    3.233345e+00
  5.306598e+00    3.138140e+00
  5.322474e+00    3.124789e+00
  5.338349e+00    3.171085e+00
  5.354225e+00    3.170424e+00
  5.370100e+00    3.121279e+00
  5.385976e+00    3.165567e+00
  5.401851e+00    3.145157e+00
  5.417727e+00    3.052743e+00
  5.433603e+00    3.016309e+00
  5.449478e+00    3.087137e+00
  5.465354e+00    3.043385e+00
  5.481229e+00    3.013375e+00
  5.497105e+00    3.099361e+00
  5.512980e+00    3.093360e+00
  5.528856e+00    3.086320e+00
  5.544732e+00    3.079317e+00
  5.560607e+00    3.102223e+00
  5.576483e+00    3.097629e+00
  5.592358e+00    3.059823e+00
  5.608234e+00    3.075215e+00
  5.624109e+00    3.097245e+00
  5.639985e+00    3.054786e+00
  5.655861e+00    3.083274e+00
  5.671736e+00    3.033020e+00
  5.687612e+00    2.996794e+00
  5.703487e+00    3.010494e+00
  5.719363e+00    3.010331e+00
  5.735238e+00    3.069151e+00
  5.751114e+00    3.107298e+00
  5.766990e+00    3.125593e+00
  5.782865e+00    3.106469e+00
  5.798741e+00    3.095823e+00
  5.814616e+00    3.089172e+00
  5.830492e+00    2.987379e+00
  5.846367e+00    3.045524e+00
  5.862243e+00    3.109166e+00
  5.878119e+00    3.024600e+00
  5.893994e+00    3.032995e+00
  5.909870e+00    3.062973e+00
  5.925745e+00    3.065251e+00
  5.941621e+00    3.015465e+00
  5.957497e+00    2.977702e+00
  5.973372e+00    3.031206e+00
  5.989248e+00    3.128597e+00
  6.005123e+00    3.011709e+00
  6.020999e+00    2.969287e+00
  6.036874e+00    3.149383e+00
  6.052750e+00    3.097250e+00
  6.068626e+00    3.093838e+00
  6.084501e+00    3.112068e+00
  6.100377e+00    3.063029e+00
  6.116252e+00    3.038119e+00
  6.132128e+00    3.031436e+00
  6.148003e+00    3.066690e+00
  6.163879e+00    3.058373e+00
  6.179755e+00    3.080703e+00
  6.195630e+00    3.163714e+00
  6.211506e+00    3.029214e+00
  6.227381e+00    3.073153e+00
  6.243257e+00    3.042155e+00
  6.259132e+00    2.999594e+00
  6.275008e+00    2.992227e+00
  6.290884e+00    3.022501e+00
  6.306759e+00    3.066485e+00
  6.322635e+00    3.012119e+00
  6.338510e+00    3.043925e+00
  6.354386e+00    3.069596e+00
  6.370261e+00    3.034300e+00
  6.386137e+00    3.034375e+00
  6.402013e+00    3.030465e+00
  6.417888e+00    3.021149e+00
  6.433764e+00    3.026958e+00
  6.449639e+00    3.107908e+00
  6.465515e+00    3.101832e+00
  6.481390e+00    3.106697e+00
  6.497266e+00    3.094369e+00
  6.513142e+00    3.043822e+00
  6.529017e+00    2.969167e+00
  6.544893e+00    2.951997e+00
  6.560768e+00    2.997752e+00
  6.576644e+00    3.025923e+00
  6.592519e+00    3.039314e+00
  6.608395e+00    3.030402e+00
  6.624271e+00    3.010191e+00
  6.640146e+00    3.060097e+00
  6.656022e+00    3.062721e+00
  6.671897e+00    3.117097e+00
  6.687773e+00    3.064085e+00
  6.703648e+00    3.037172e+00
  6.719524e+00    3.059748e+00
  6.735400e+00    3.043938e+00
  6.751275e+00    3.095759e+00
  6.767151e+00    3.026874e+00
  6.783026e+00    2.995826e+00
  6.798902e+00    3.065544e+00
  6.814777e+00    3.063185e+00
  6.830653e+00    3.040001e+00
  6.846529e+00    2.978333e+00
  6.862404e+00    2.959421e+00
  6.878280e+00    3.028569e+00
  6.894155e+00    3.043619e+00
  6.910031e+00    3.059013e+00
  6.925907e+00    3.111818e+00
  6.941782e+00    3.084144e+00
  6.957658e+00    3.048126e+00
  6.973533e+00    3.116200e+00
  6.989409e+00    3.005574e+00
  7.005284e+00    2.986651e+00
  7.021160e+00    3.053124e+00
  7.037036e+00    3.022999e+00
  7.052911e+00    3.060564e+00
  7.068787e+00    3.059878e+00
  7.084662e+00    3.029907e+00
  7.100538e+00    3.034253e+00
  7.116413e+00    3.026209e+00
  7.132289e+00    2.999736e+00
  7.148165e+00    2.997363e+00
  7.164040e+00    2.984327e+00
  7.179916e+00    2.994098e+00
  7.195791e+00    2.992059e+00
  7.211667e+00    3.093727e+00
  7.227542e+00    3.041286e+00
  7.243418e+00    3.030509e+00
  7.259294e+00    2.947585e+00
  7.275169e+00    3.000624e+00
  7.291045e+00    3.020797e+00
  7.306920e+00    2.993877e+00
  7.322796e+00    2.977167e+00
  7.338671e+00    2.989319e+00
  7.354547e+00    3.078329e+00
  7.370423e+00    3.036605e+00
  7.386298e+00    3.021320e+00
  7.402174e+00    2.975011e+00
  7.418049e+00    2.986507e+00
  7.433925e+00    3.026787e+00
  7.449800e+00    3.031716e+00
  7.465676e+00    3.021834e+00
  7.481552e+00    2.962203e+00
  7.497427e+00    2.876091e+00
  7.513303e+00    2.943936e+00
  7.529178e+00    2.967389e+00
  7.545054e+00    2.998394e+00
  7.560929e+00    2.937771e+00
  7.576805e+00    2.897186e+00
  7.592681e+00    3.020857e+00
  7.608556e+00    3.027782e+00
  7.624432e+00    2.968336e+00
  7.640307e+00    2.922599e+00
  7.656183e+00    3.009711e+00
  7.672058e+00    3.001275e+00
  7.687934e+00    3.003763e+00
  7.703810e+00    2.963959e+00
  7.719685e+00    2.862111e+00
  7.735561e+00    2.929441e+00
  7.751436e+00    2.949811e+00
  7.767312e+00    2.964987e+00
  7.783187e+00    2.957207e+00
  7.799063e+00    2.877563e+00
  7.814939e+00    2.928054e+00
  7.830814e+00    3.005822e+00
  7.846690e+00    2.940267e+00
  7.862565e+00    2.879886e+00
  7.878441e+00    2.894444e+00
  7.894317e+00    2.950070e+00
  7.910192e+00    2.985310e+00
  7.926068e+00    2.952337e+00
  7.941943e+00    3.010707e+00
  7.957819e+00    2.978740e+00
  7.973694e+00    2.984736e+00
  7.989570e+00    2.967013e+00
  8.005446e+00    2.960367e+00
  8.021321e+00    2.915349e+00
  8.037197e+00    2.932743e+00
  8.053072e+00    2.901777e+00
  8.068948e+00    2.985327e+00
  8.084823e+00    2.954393e+00
  8.100699e+00    2.937819e+00
  8.116575e+00    2.930169e+00
  8.132450e+00    2.989928e+00
  8.148326e+00    3.010326e+00
  8.164201e+00    2.970729e+00
  8.180077e+00    2.963106e+00
  8.195952e+00    2.945136e+00
  8.211828e+00    2.980794e+00
  8.227704e+00    3.053861e+00
  8.243579e+00    2.983786e+00
  8.259455e+00    2.907520e+00
  8.275330e+00    2.838401e+00
  8.291206e+00    2.882417e+00
  8.307081e+00    2.889473e+00
  8.322957e+00    2.930206e+00
  8.338833e+00    2.913419e+00
  8.354708e+00    2.915289e+00
  8.370584e+00    2.907780e+00
  8.386459e+00    2.914292e+00
  8.402335e+00    2.885734e+00
  8.418210e+00    2.871099e+00
  8.434086e+00    2.926075e+00
  8.449962e+00    2.946783e+00
  8.465837e+00    2.881661e+00
  8.481713e+00    2.835517e+00
  8.497588e+00    2.864133e+00
  8.513464e+00    2.843745e+00
  8.529339e+00    2.855364e+00
  8.545215e+00    2.860874e+00
  8.561091e+00    2.868948e+00
  8.576966e+00    2.828765e+00
  8.592842e+00    2.845295e+00
  8.608717e+00    2.928789e+00
  8.624593e+00    2.885022e+00
  8.640468e+00    2.907062e+00
  8.656344e+00    2.914138e+00
  8.672220e+00    2.883639e+00
  8.688095e+00    2.821684e+00
  8.703971e+00    2.800641e+00
  8.719846e+00    2.851124e+00
  8.735722e+00    2.870610e+00
  8.751598e+00    2.909721e+00
  8.767473e+00    2.858058e+00
  8.783349e+00    2.858963e+00
  8.799224e+00    2.865412e+00
  8.815100e+00    2.874171e+00
  8.830975e+00    2.833934e+00
  8.846851e+00    2.890545e+00
  8.862727e+00    2.865754e+00
  8.878602e+00    2.795503e+00
  8.894478e+00    2.737381e+00
  8.910353e+00    2.814031e+00
  8.926229e+00    2.905139e+00
  8.942104e+00    2.861536e+00
  8.957980e+00    2.860551e+00
  8.973856e+00    2.838784e+00
  8.989731e+00    2.817195e+00
  9.005607e+00    2.848362e+00
  9.021482e+00    2.854157e+00
  9.037358e+00    2.835118e+00
  9.053233e+00    2.824495e+00
  9.069109e+00    2.816614e+00
  9.084985e+00    2.818981e+00
  9.100860e+00    2.822139e+00
  9.116736e+00    2.830163e+00
  9.132611e+00    2.852107e+00
  9.148487e+00    2.782949e+00
  9.164362e+00    2.825145e+00
  9.180238e+00    2.883526e+00
  9.196114e+00    2.839092e+00
  9.211989e+00    2.801451e+00
  9.227865e+00    2.851471e+00
  9.243740e+00    2.822771e+00
  9.259616e+00    2.877830e+00
  9.275491e+00    2.847759e+00
  9.291367e+00    2.818009e+00
  9.307243e+00    2.848540e+00
  9.323118e+00    2.779897e+00
  9.338994e+00    2.764147e+00
  9.354869e+00    2.810409e+00
  9.370745e+00    2.782012e+00
  9.386620e+00    2.792234e+00
  9.402496e+00    2.797823e+00
  9.418372e+00    2.827700e+00
  9.434247e+00    2.759019e+00
  9.450123e+00    2.759869e+00
  9.465998e+00    2.766462e+00
  9.481874e+00    2.797988e+00
  9.497749e+00    2.799639e+00
  9.513625e+00    2.773148e+00
  9.529501e+00    2.783399e+00
  9.545376e+00    2.850300e+00
  9.561252e+00    2.820419e+00
  9.577127e+00    2.801519e+00
  9.593003e+00    2.812218e+00
  9.608878e+00    2.800179e+00
  9.624754e+00    2.752829e+00
  9.640630e+00    2.797238e+00
  9.656505e+00    2.764040e+00
  9.672381e+00    2.722178e+00
  9.688256e+00    2.723948e+00
  9.704132e+00    2.745348e+00
  9.720008e+00    2.709935e+00
  9.735883e+00    2.691689e+00
  9.751759e+00    2.701575e+00
  9.767634e+00    2.745938e+00
  9.783510e+00    2.756353e+00
  9.799385e+00    2.703618e+00
  9.815261e+00    2.713319e+00
  9.831137e+00    2.752216e+00
  9.847012e+00    2.688665e+00
  9.862888e+00    2.707275e+00
  9.878763e+00    2.737164e+00
  9.894639e+00    2.685530e+00
  9.910514e+00    2.675309e+00
  9.926390e+00    2.709212e+00
  9.942266e+00    2.690720e+00
  9.958141e+00    2.701348e+00
  9.974017e+00    2.666373e+00
  9.989892e+00    2.701823e+00
  1.000577e+01    2.732301e+00
  1.002164e+01    2.706949e+00
  1.003752e+01    2.669531e+00
  1.005339e+01    2.686273e+00
  1.006927e+01    2.686960e+00
  1.008515e+01    2.643561e+00
  1.010102e+01    2.641949e+00
  1.011690e+01    2.674965e+00
  1.013277e+01    2.626647e+00
  1.014865e+01    2.655917e+00
  1.016452e+01    2.703208e+00
  1.018040e+01    2.681837e+00
  1.019627e+01    2.643923e+00
  1.021215e+01    2.689880e+00
  1.022803e+01    2.683795e+00
  1.024390e+01    2.691249e+00
  1.025978e+01    2.711420e+00
  1.027565e+01    2.712941e+00
  1.029153e+01    2.691931e+00
  1.030740e+01    2.636403e+00
  1.032328e+01    2.629621e+00
  1.033915e+01    2.629136e+00
  1.035503e+01    2.634993e+00
  1.037091e+01    2.662942e+00
  1.038678e+01    2.653286e+00
  1.040266e+01    2.669735e+00
  1.041853e+01    2.635792e+00
  1.043441e+01    2.587576e+00
  1.045028e+01    2.587642e+00
  1.046616e+01    2.605206e+00
  1.048204e+01    2.599610e+00
  1.049791e+01    2.589146e+00
  1.051379e+01    2.617444e+00
  1.052966e+01    2.623784e+00
  1.054554e+01    2.645359e+00
  1.056141e+01    2.611768e+00
  1.057729e+01    2.600219e+00
  1.059316e+01    2.589992e+00
  1.060904e+01    2.614760e+00
  1.062492e+01    2.578283e+00
  1.064079e+01    2.565450e+00
  1.065667e+01    2.549419e+00
  1.067254e+01    2.584570e+00
  1.068842e+01    2.582320e+00
  1.070429e+01    2.574415e+00
  1.072017e+01    2.543943e+00
  1.073604e+01    2.552572e+00
  1.075192e+01    2.543786e+00
  1.076780e+01    2.528067e+00
  1.078367e+01    2.568794e+00
  1.079955e+01    2.532133e+00
  1.081542e+01    2.548739e+00
  1.083130e+01    2.543253e+00
  1.084717e+01    2.570446e+00
  1.086305e+01    2.571584e+00
  1.087892e+01    2.527762e+00
  1.089480e+01    2.542328e+00
  1.091068e+01    2.501079e+00
  1.092655e+01    2.583673e+00
  1.094243e+01    2.535467e+00
  1.095830e+01    2.500842e+00
  1.097418e+01    2.480696e+00
  1.099005e+01    2.495841e+00
  1.100593e+01    2.486057e+00
  1.102180e+01    2.504684e+00
  1.103768e+01    2.504519e+00
  1.105356e+01    2.498893e+00
  1.106943e+01    2.537246e+00
  1.108531e+01    2.526073e+00
  1.110118e+01    2.487722e+00
  1.111706e+01    2.496641e+00
  1.113293e+01    2.494642e+00
  1.114881e+01    2.499204e+00
  1.116468e+01    2.488121e+00
  1.118056e+01    2.478544e+00
  1.119644e+01    2.488605e+00
  1.121231e+01    2.463280e+00
  1.122819e+01    2.464087e+00
  1.124406e+01    2.522328e+00
  1.125994e+01    2.502326e+00
  1.127581e+01    2.427943e+00
  1.129169e+01    2.415440e+00
  1.130756e+01    2.411897e+00
  1.132344e+01    2.472439e+00
  1.133932e+01    2.441694e+00
  1.135519e+01    2.435426e+00
  1.137107e+01    2.473128e+00
  1.138694e+01    2.462310e+00
  1.140282e+01    2.419914e+00
  1.141869e+01    2.446741e+00
  1.143457e+01    2.489282e+00
  1.145045e+01    2.441382e+00
  1.146632e+01    2.430219e+00
  1.148220e+01    2.406947e+00
  1.149807e+01    2.405859e+00
  1.151395e+01    2.392561e+00
  1.152982e+01    2.390634e+00
  1.154570e+01    2.413491e+00
  1.156157e+01    2.424070e+00
  1.157745e+01    2.391999e+00
  1.159333e+01    2.428916e+00
  1.160920e+01    2.431993e+00
  1.162508e+01    2.426273e+00
  1.164095e+01    2.420606e+00
  1.165683e+01    2.458058e+00
  1.167270e+01    2.395131e+00
  1.168858e+01    2.352155e+00
  1.170445e+01    2.354582e+00
  1.172033e+01    2.354971e+00
  1.173621e+01    2.362756e+00
  1.175208e+01    2.355638e+00
  1.176796e+01    2.346027e+00
  1.178383e+01    2.363147e+00
  1.179971e+01    2.400042e+00
  1.181558e+01    2.408911e+00
  1.183146e+01    2.421475e+00
  1.184733e+01    2.378868e+00
  1.186321e+01    2.393841e+00
  1.187909e+01    2.377437e+00
  1.189496e+01    2.407526e+00
  1.191084e+01    2.396236e+00
  1.192671e+01    2.367398e+00
  1.194259e+01    2.389342e+00
  1.195846e+01    2.322308e+00
  1.197434e+01    2.369587e+00
  1.199021e+01    2.382799e+00
  1.200609e+01    2.360651e+00
  1.202197e+01    2.301230e+00
  1.203784e+01    2.340544e+00
  1.205372e+01    2.353755e+00
  1.206959e+01    2.327284e+00
  1.208547e+01    2.320493e+00
  1.210134e+01    2.345441e+00
  1.211722e+01    2.320482e+00
  1.213309e+01    2.320671e+00
  1.214897e+01    2.334062e+00
  1.216485e+01    2.317712e+00
  1.218072e+01    2.290536e+00
  1.219660e+01    2.342242e+00
  1.221247e+01    2.343132e+00
  1.222835e+01    2.331992e+00
  1.224422e+01    2.318628e+00
  1.226010e+01    2.354091e+00
  1.227597e+01    2.323708e+00
  1.229185e+01    2.342575e+00
  1.230773e+01    2.369848e+00
  1.232360e+01    2.326135e+00
  1.233948e+01    2.330933e+00
  1.235535e+01    2.315918e+00
  1.237123e+01    2.347765e+00
  1.238710e+01    2.340858e+00
  1.240298e+01    2.372009e+00
  1.241886e+01    2.345626e+00
  1.243473e+01    2.349824e+00
  1.245061e+01    2.325001e+00
  1.246648e+01    2.373483e+00
  1.248236e+01    2.353343e+00
  1.249823e+01    2.392351e+00
  1.251411e+01    2.380305e+00
  1.252998e+01    2.376685e+00
  1.254586e+01    2.413299e+00
  1.256174e+01    2.386822e+00
  1.257761e+01    2.412234e+00
  1.259349e+01    2.427181e+00
  1.260936e+01    2.464252e+00
  1.262524e+01    2.499132e+00
  1.264111e+01    2.462081e+00
  1.265699e+01    2.467294e+00
  1.267286e+01    2.428219e+00
  1.268874e+01    2.435427e+00
  1.270462e+01    2.495473e+00
  1.272049e+01    2.570010e+00
  1.273637e+01    2.585482e+00
  1.275224e+01    2.562002e+00
  1.276812e+01    2.611575e+00
  1.278399e+01    2.652829e+00
  1.279987e+01    2.719338e+00
  1.281574e+01    2.826292e+00
  1.283162e+01    2.752070e+00
  1.284750e+01    2.864069e+00
  1.286337e+01    2.977937e+00
  1.287925e+01    3.077613e+00
  1.289512e+01    3.194734e+00
  1.291100e+01    3.305382e+00
  1.292687e+01    3.443746e+00
  1.294275e+01    3.716969e+00
  1.295862e+01    3.912735e+00
  1.297450e+01    4.219687e+00
  1.299038e+01    4.696531e+00
  1.300625e+01    5.207858e+00
  1.302213e+01    5.849004e+00
  1.303800e+01    6.696349e+00
  1.305388e+01    7.721630e+00
  1.306975e+01    9.050161e+00
  1.308563e+01    1.058698e+01
  1.310150e+01    1.210012e+01
  1.311738e+01    1.359076e+01
  1.313326e+01    1.500435e+01
  1.314913e+01    1.651192e+01
  1.316501e+01    1.789529e+01
  1.318088e+01    1.917371e+01
  1.319676e+01    1.981611e+01
  1.321263e+01    1.942642e+01
  1.322851e+01    1.812033e+01
  1.324438e+01    1.605976e+01
  1.326026e+01    1.379430e+01
  1.327614e+01    1.153752e+01
  1.329201e+01    9.657301e+00
  1.330789e+01    8.197271e+00
  1.332376e+01    7.048831e+00
  1.333964e+01    6.155743e+00
  1.335551e+01    5.405695e+00
  1.337139e+01    4.890589e+00
  1.338727e+01    4.449902e+00
  1.340314e+01    4.089084e+00
  1.341902e+01    3.771025e+00
  1.343489e+01    3.534773e+00
  1.345077e+01    3.320640e+00
  1.346664e+01    3.192941e+00
  1.348252e+01    3.059028e+00
  1.349839e+01    2.882856e+00
  1.351427e+01    2.803113e+00
  1.353015e+01    2.739565e+00
  1.354602e+01    2.706824e+00
  1.356190e+01    2.624610e+00
  1.357777e+01    2.533910e+00
  1.359365e+01    2.471213e+00
  1.360952e+01    2.484618e+00
  1.362540e+01    2.440926e+00
  1.364127e+01    2.395212e+00
  1.365715e+01    2.375819e+00
  1.367303e+01    2.355317e+00
  1.368890e+01    2.310581e+00
  1.370478e+01    2.307076e+00
  1.372065e+01    2.308741e+00
  1.373653e+01    2.296461e+00
  1.375240e+01    2.283217e+00
  1.376828e+01    2.267956e+00
  1.378415e+01    2.211399e+00
  1.380003e+01    2.261588e+00
  1.381591e+01    2.277604e+00
  1.383178e+01    2.200730e+00
  1.384766e+01    2.152832e+00
  1.386353e+01    2.151690e+00
  1.387941e+01    2.131937e+00
  1.389528e+01    2.149086e+00
  1.391116e+01    2.131908e+00
  1.392703e+01    2.145573e+00
  1.394291e+01    2.156038e+00
  1.395879e+01    2.117920e+00
  1.397466e+01    2.079354e+00
  1.399054e+01    2.077365e+00
  1.400641e+01    2.110684e+00
  1.402229e+01    2.111087e+00
  1.403816e+01    2.122179e+00
  1.405404e+01    2.037166e+00
  1.406991e+01    2.050426e+00
  1.408579e+01    2.055254e+00
  1.410167e+01    2.019069e+00
  1.411754e+01    2.046604e+00
  1.413342e+01    2.030928e+00
  1.414929e+01    2.008443e+00
  1.416517e+01    2.053856e+00
  1.418104e+01    2.011385e+00
  1.419692e+01    2.004559e+00
  1.421279e+01    2.005193e+00
  1.422867e+01    2.009258e+00
  1.424455e+01    2.030128e+00
  1.426042e+01    2.014404e+00
  1.427630e+01    2.004926e+00
  1.429217e+01    2.037711e+00
  1.430805e+01    2.025762e+00
  1.432392e+01    1.995783e+00
  1.433980e+01    1.980661e+00
  1.435568e+01    1.971961e+00
  1.437155e+01    1.956894e+00
  1.438743e+01    1.933787e+00
  1.440330e+01    1.933295e+00
  1.441918e+01    1.989249e+00
  1.443505e+01    1.950881e+00
  1.445093e+01    1.954074e+00
  1.446680e+01    1.950845e+00
  1.448268e+01    1.921282e+00
  1.449856e+01    1.929559e+00
  1.451443e+01    1.977563e+00
  1.453031e+01    1.951058e+00
  1.454618e+01    1.955387e+00
  1.456206e+01    1.975657e+00
  1.457793e+01    1.964930e+00
  1.459381e+01    1.959277e+00
  1.460968e+01    1.956908e+00
  1.462556e+01    1.932809e+00
  1.464144e+01    1.944815e+00
  1.465731e+01    1.947866e+00
  1.467319e+01    1.924705e+00
  1.468906e+01    1.925554e+00
  1.470494e+01    1.932713e+00
  1.472081e+01    1.927511e+00
  1.473669e+01    1.933496e+00
  1.475256e+01    1.937020e+00
  1.476844e+01    1.906716e+00
  1.478432e+01    1.883485e+00
  1.480019e+01    1.906675e+00
  1.481607e+01    1.947431e+00
  1.483194e+01    1.979658e+00
  1.484782e+01    1.948975e+00
  1.486369e+01    1.949921e+00
  1.487957e+01    1.982680e+00
  1.489544e+01    1.963084e+00
  1.491132e+01    1.981354e+00
  1.492720e+01    2.009926e+00
  1.494307e+01    2.022749e+00
  1.495895e+01    2.056895e+00
  1.497482e+01    2.054799e+00
  1.499070e+01    2.093685e+00
  1.500657e+01    2.151389e+00
  1.502245e+01    2.200479e+00
  1.503832e+01    2.254429e+00
  1.505420e+01    2.388603e+00
  1.507008e+01    2.461991e+00
  1.508595e+01    2.620132e+00
  1.510183e+01    2.815815e+00
  1.511770e+01    2.993004e+00
  1.513358e+01    3.222954e+00
  1.514945e+01    3.510833e+00
  1.516533e+01    3.998064e+00
  1.518120e+01    4.474633e+00
  1.519708e+01    4.875054e+00
  1.521296e+01    5.347584e+00
  1.522883e+01    5.675655e+00
  1.524471e+01    5.977827e+00
  1.526058e+01    6.275483e+00
  1.527646e+01    6.463675e+00
  1.529233e+01    6.590958e+00
  1.530821e+01    6.525374e+00
  1.532409e+01    6.185249e+00
  1.533996e+01    5.614986e+00
  1.535584e+01    4.929648e+00
  1.537171e+01    4.330225e+00
  1.538759e+01    3.858946e+00
  1.540346e+01    3.387039e+00
  1.541934e+01    3.096549e+00
  1.543521e+01    2.874354e+00
  1.545109e+01    2.641260e+00
  1.546697e+01    2.501843e+00
  1.548284e+01    2.370525e+00
  1.549872e+01    2.250171e+00
  1.551459e+01    2.170400e+00
  1.553047e+01    2.109555e+00
  1.554634e+01    2.067452e+00
  1.556222e+01    2.024144e+00
  1.557809e+01    1.942387e+00
  1.559397e+01    1.936529e+00
  1.560985e+01    1.926300e+00
  1.562572e+01    1.875475e+00
  1.564160e+01    1.855622e+00
  1.565747e+01    1.823704e+00
  1.567335e+01    1.823810e+00
  1.568922e+01    1.816451e+00
  1.570510e+01    1.770092e+00
  1.572097e+01    1.786848e+00
  1.573685e+01    1.795807e+00
  1.575273e+01    1.734634e+00
  1.576860e+01    1.748705e+00
  1.578448e+01    1.727342e+00
  1.580035e+01    1.726680e+00
  1.581623e+01    1.701866e+00
  1.583210e+01    1.676261e+00
  1.584798e+01    1.676352e+00
  1.586385e+01    1.650423e+00
  1.587973e+01    1.690362e+00
  1.589561e+01    1.686879e+00
  1.591148e+01    1.672374e+00
  1.592736e+01    1.660238e+00
  1.594323e+01    1.628888e+00
  1.595911e+01    1.606819e+00
  1.597498e+01    1.626932e+00
  1.599086e+01    1.621373e+00
  1.600673e+01    1.634227e+00
  1.602261e+01    1.653498e+00
  1.603849e+01    1.647088e+00
  1.605436e+01    1.616105e+00
  1.607024e+01    1.596597e+00
  1.608611e+01    1.611285e+00
  1.610199e+01    1.569963e+00
  1.611786e+01    1.619856e+00
  1.613374e+01    1.633378e+00
  1.614961e+01    1.606780e+00
  1.616549e+01    1.580164e+00
  1.618137e+01    1.600511e+00
  1.619724e+01    1.581711e+00
  1.621312e+01    1.594454e+00
  1.622899e+01    1.565046e+00
  1.624487e+01    1.559076e+00
  1.626074e+01    1.558017e+00
  1.627662e+01    1.559037e+00
  1.629250e+01    1.552208e+00
  1.630837e+01    1.565323e+00
  1.632425e+01    1.581519e+00
  1.634012e+01    1.590864e+00
  1.635600e+01    1.547366e+00
  1.637187e+01    1.576558e+00
  1.638775e+01    1.566832e+00
  1.640362e+01    1.566249e+00
  1.641950e+01    1.568111e+00
  1.643538e+01    1.533620e+00
  1.645125e+01    1.512771e+00
  1.646713e+01    1.524021e+00
  1.648300e+01    1.506328e+00
  1.649888e+01    1.511698e+00
  1.651475e+01    1.516328e+00
  1.653063e+01    1.503711e+00
  1.654650e+01    1.508606e+00
  1.656238e+01    1.479584e+00
  1.657826e+01    1.514301e+00
  1.659413e+01    1.533732e+00
  1.661001e+01    1.516245e+00
  1.662588e+01    1.516695e+00
  1.664176e+01    1.481232e+00
  1.665763e+01    1.513200e+00
  1.667351e+01    1.488553e+00
  1.668938e+01    1.466828e+00
  1.670526e+01    1.499972e+00
  1.672114e+01    1.515759e+00
  1.673701e+01    1.510221e+00
  1.675289e+01    1.515894e+00
  1.676876e+01    1.475173e+00
  1.678464e+01    1.470493e+00
  1.680051e+01    1.472860e+00
  1.681639e+01    1.489643e+00
  1.683226e+01    1.498084e+00
  1.684814e+01    1.461424e+00
  1.686402e+01    1.459475e+00
  1.687989e+01    1.441145e+00
  1.689577e+01    1.466814e+00
  1.691164e+01    1.447817e+00
  1.692752e+01    1.463462e+00
  1.694339e+01    1.436617e+00
  1.695927e+01    1.432729e+00
  1.697514e+01    1.446184e+00
  1.699102e+01    1.469928e+00
  1.700690e+01    1.472526e+00
  1.702277e+01    1.450487e+00
  1.703865e+01    1.443914e+00
  1.705452e+01    1.461568e+00
  1.707040e+01    1.435099e+00
  1.708627e+01    1.433257e+00
  1.710215e+01    1.416900e+00
  1.711802e+01    1.446317e+00
  1.713390e+01    1.445770e+00
  1.714978e+01    1.428215e+00
  1.716565e+01    1.431350e+00
  1.718153e+01    1.440169e+00
  1.719740e+01    1.426302e+00
  1.721328e+01    1.456979e+00
  1.722915e+01    1.421825e+00
  1.724503e+01    1.412336e+00
  1.726091e+01    1.432048e+00
  1.727678e+01    1.396828e+00
  1.729266e+01    1.401348e+00
  1.730853e+01    1.410321e+00
  1.732441e+01    1.389086e+00
  1.734028e+01    1.410022e+00
  1.735616e+01    1.408956e+00
  1.737203e+01    1.369474e+00
  1.738791e+01    1.412452e+00
  1.740379e+01    1.430731e+00
  1.741966e+01    1.382217e+00
  1.743554e+01    1.345108e+00
  1.745141e+01    1.355008e+00
  1.746729e+01    1.409719e+00
  1.748316e+01    1.414998e+00
  1.749904e+01    1.401752e+00
  1.751491e+01    1.377842e+00
  1.753079e+01    1.387742e+00
  1.754667e+01    1.360805e+00
  1.756254e+01    1.350732e+00
  1.757842e+01    1.363349e+00
  1.759429e+01    1.391072e+00
  1.761017e+01    1.411800e+00
  1.762604e+01    1.388140e+00
  1.764192e+01    1.369678e+00
  1.765779e+01    1.338358e+00
  1.767367e+01    1.349572e+00
  1.768955e+01    1.373592e+00
  1.770542e+01    1.351578e+00
  1.772130e+01    1.358360e+00
  1.773717e+01    1.362962e+00
  1.775305e+01    1.331244e+00
  1.776892e+01    1.343947e+00
  1.778480e+01    1.371533e+00
  1.780067e+01    1.363491e+00
  1.781655e+01    1.331192e+00
  1.783243e+01    1.346738e+00
  1.784830e+01    1.349357e+00
  1.786418e+01    1.314534e+00
  1.788005e+01    1.342121e+00
  1.789593e+01    1.334867e+00
  1.791180e+01    1.330544e+00
  1.792768e+01    1.342854e+00
  1.794355e+01    1.349260e+00
  1.795943e+01    1.343473e+00
  1.797531e+01    1.336643e+00
  1.799118e+01    1.338674e+00
  1.800706e+01    1.309380e+00
  1.802293e+01    1.307501e+00
  1.803881e+01    1.290442e+00
  1.805468e+01    1.300694e+00
  1.807056e+01    1.313030e+00
  1.808643e+01    1.314930e+00
  1.810231e+01    1.343776e+00
  1.811819e+01    1.336510e+00
  1.813406e+01    1.333674e+00
  1.814994e+01    1.330810e+00
  1.816581e+01    1.312157e+00
  1.818169e+01    1.297080e+00
  1.819756e+01    1.278875e+00
  1.821344e+01    1.291572e+00
  1.822932e+01    1.276487e+00
  1.824519e+01    1.284594e+00
  1.826107e+01    1.314152e+00
  1.827694e+01    1.299135e+00
  1.829282e+01    1.282402e+00
  1.830869e+01    1.289735e+00
  1.832457e+01    1.273387e+00
  1.834044e+01    1.300265e+00
  1.835632e+01    1.298193e+00
  1.837220e+01    1.294938e+00
  1.838807e+01    1.291332e+00
  1.840395e+01    1.281445e+00
  1.841982e+01    1.306281e+00
  1.843570e+01    1.265195e+00
  1.845157e+01    1.262596e+00
  1.846745e+01    1.257149e+00
  1.848332e+01    1.271042e+00
  1.849920e+01    1.268924e+00
  1.851508e+01    1.286088e+00
  1.853095e+01    1.265988e+00
  1.854683e+01    1.238636e+00
  1.856270e+01    1.245994e+00
  1.857858e+01    1.257951e+00
  1.859445e+01    1.249426e+00
  1.861033e+01    1.281947e+00
  1.862620e+01    1.263046e+00
  1.864208e+01    1.244426e+00
  1.865796e+01    1.259198e+00
  1.867383e+01    1.272808e+00
  1.868971e+01    1.240147e+00
  1.870558e+01    1.240581e+00
  1.872146e+01    1.251089e+00
  1.873733e+01    1.265082e+00
  1.875321e+01    1.240696e+00
  1.876908e+01    1.257836e+00
  1.878496e+01    1.257793e+00
  1.880084e+01    1.261232e+00
  1.881671e+01    1.245359e+00
  1.883259e+01    1.244554e+00
  1.884846e+01    1.229773e+00
  1.886434e+01    1.221640e+00
  1.888021e+01    1.259928e+00
  1.889609e+01    1.254084e+00
  1.891196e+01    1.223337e+00
  1.892784e+01    1.252448e+00
  1.894372e+01    1.239986e+00
  1.895959e+01    1.239494e+00
  1.897547e+01    1.234247e+00
  1.899134e+01    1.207808e+00
  1.900722e+01    1.211363e+00
  1.902309e+01    1.215427e+00
  1.903897e+01    1.221568e+00
  1.905484e+01    1.210674e+00
  1.907072e+01    1.218498e+00
  1.908660e+01    1.195158e+00
  1.910247e+01    1.191014e+00
  1.911835e+01    1.216479e+00
  1.913422e+01    1.209027e+00
  1.915010e+01    1.210073e+00
  1.916597e+01    1.222416e+00
  1.918185e+01    1.219810e+00
  1.919773e+01    1.226626e+00
  1.921360e+01    1.196630e+00
  1.922948e+01    1.205851e+00
  1.924535e+01    1.208081e+00
  1.926123e+01    1.208566e+00
  1.927710e+01    1.192019e+00
  1.929298e+01    1.182430e+00
  1.930885e+01    1.197522e+00
  1.932473e+01    1.171903e+00
  1.934061e+01    1.184559e+00
  1.935648e+01    1.163759e+00
  1.937236e+01    1.187470e+00
  1.938823e+01    1.183507e+00
  1.940411e+01    1.191022e+00
  1.941998e+01    1.178455e+00
  1.943586e+01    1.187769e+00
  1.945173e+01    1.205877e+00
  1.946761e+01    1.209736e+00
  1.948349e+01    1.191292e+00
  1.949936e+01    1.174825e+00
  1.951524e+01    1.167144e+00
  1.953111e+01    1.166688e+00
  1.954699e+01    1.147229e+00
  1.956286e+01    1.172119e+00
  1.957874e+01    1.201507e+00
  1.959461e+01    1.191102e+00
  1.961049e+01    1.176916e+00
  1.962637e+01    1.196054e+00
  1.964224e+01    1.182383e+00
  1.965812e+01    1.146435e+00
  1.967399e+01    1.155335e+00
  1.968987e+01    1.146549e+00
  1.970574e+01    1.138870e+00
  1.972162e+01    1.149229e+00
  1.973749e+01    1.193451e+00
  1.975337e+01    1.162732e+00
  1.976925e+01    1.173907e+00
  1.978512e+01    1.153315e+00
  1.980100e+01    1.147437e+00
  1.981687e+01    1.146507e+00
  1.983275e+01    1.142512e+00
  1.984862e+01    1.156089e+00
  1.986450e+01    1.142860e+00
  1.988037e+01    1.160817e+00
  1.989625e+01    1.147547e+00
  1.991213e+01    1.130773e+00
  1.992800e+01    1.141051e+00
  1.994388e+01    1.176463e+00
  1.995975e+01    1.150688e+00
  1.997563e+01    1.142668e+00
  1.999150e+01    1.129667e+00
  2.000738e+01    1.135232e+00
  2.002325e+01    1.137669e+00
  2.003913e+01    1.135499e+00
  2.005501e+01    1.137681e+00
  2.007088e+01    1.150409e+00
  2.008676e+01    1.152033e+00
  2.010263e+01    1.132538e+00
  2.011851e+01    1.110886e+00
  2.013438e+01    1.095711e+00
  2.015026e+01    1.135591e+00
  2.016614e+01    1.142152e+00
  2.018201e+01    1.116791e+00
  2.019789e+01    1.121488e+00
  2.021376e+01    1.139343e+00
  2.022964e+01    1.129217e+00
  2.024551e+01    1.128050e+00
  2.026139e+01    1.119528e+00
  2.027726e+01    1.119013e+00
  2.029314e+01    1.119774e+00
  2.030902e+01    1.113961e+00
  2.032489e+01    1.105681e+00
  2.034077e+01    1.089413e+00
  2.035664e+01    1.091306e+00
  2.037252e+01    1.111714e+00
  2.038839e+01    1.120687e+00
  2.040427e+01    1.106445e+00
  2.042014e+01    1.103288e+00
  2.043602e+01    1.123401e+00
  2.045190e+01    1.098145e+00
  2.046777e+01    1.102739e+00
  2.048365e+01    1.115955e+00
  2.049952e+01    1.117578e+00
  2.051540e+01    1.110130e+00
  2.053127e+01    1.109830e+00
  2.054715e+01    1.091729e+00
  2.056302e+01    1.098091e+00
  2.057890e+01    1.115004e+00
  2.059478e+01    1.079774e+00
  2.061065e+01    1.096045e+00
  2.062653e+01    1.102203e+00
  2.064240e+01    1.075030e+00
  2.065828e+01    1.057820e+00
  2.067415e+01    1.074311e+00
  2.069003e+01    1.095553e+00
  2.070590e+01    1.091775e+00
  2.072178e+01    1.098914e+00
  2.073766e+01    1.104777e+00
  2.075353e+01    1.107268e+00
  2.076941e+01    1.104521e+00
  2.078528e+01    1.099475e+00
  2.080116e+01    1.111587e+00
  2.081703e+01    1.101349e+00
  2.083291e+01    1.118880e+00
  2.084878e+01    1.107352e+00
  2.086466e+01    1.102520e+00
  2.088054e+01    1.115620e+00
  2.089641e+01    1.109257e+00
  2.091229e+01    1.110267e+00
  2.092816e+01    1.112787e+00
  2.094404e+01    1.090435e+00
  2.095991e+01    1.114218e+00
  2.097579e+01    1.106757e+00
  2.099166e+01    1.097801e+00
  2.100754e+01    1.084024e+00
  2.102342e+01    1.091113e+00
  2.103929e+01    1.109079e+00
  2.105517e+01    1.080941e+00
  2.107104e+01    1.097569e+00
  2.108692e+01    1.096814e+00
  2.110279e+01    1.125905e+00
  2.111867e+01    1.127921e+00
  2.113455e+01    1.132273e+00
  2.115042e+01    1.117467e+00
  2.116630e+01    1.097295e+00
  2.118217e+01    1.111692e+00
  2.119805e+01    1.105221e+00
  2.121392e+01    1.105242e+00
  2.122980e+01    1.133360e+00
  2.124567e+01    1.137886e+00
  2.126155e+01    1.130976e+00
  2.127743e+01    1.138821e+00
  2.129330e+01    1.163744e+00
  2.130918e+01    1.143012e+00
  2.132505e+01    1.155052e+00
  2.134093e+01    1.151541e+00
  2.135680e+01    1.160860e+00
  2.137268e+01    1.179378e+00
  2.138855e+01    1.176838e+00
  2.140443e+01    1.181057e+00
  2.142031e+01    1.209556e+00
  2.143618e+01    1.230465e+00
  2.145206e+01    1.240659e+00
  2.146793e+01    1.261676e+00
  2.148381e+01    1.245372e+00
  2.149968e+01    1.276700e+00
  2.151556e+01    1.298682e+00
  2.153143e+01    1.337472e+00
  2.154731e+01    1.384878e+00
  2.156319e+01    1.386358e+00
  2.157906e+01    1.445040e+00
  2.159494e+01    1.503066e+00
  2.161081e+01    1.578403e+00
  2.162669e+01    1.646609e+00
  2.164256e+01    1.737009e+00
  2.165844e+01    1.867805e+00
  2.167431e+01    1.966074e+00
  2.169019e+01    2.122436e+00
  2.170607e+01    2.332344e+00
  2.172194e+01    2.555809e+00
  2.173782e+01    2.827175e+00
  2.175369e+01    3.185330e+00
  2.176957e+01    3.662641e+00
  2.178544e+01    4.255143e+00
  2.180132e+01    4.896222e+00
  2.181719e+01    5.602523e+00
  2.183307e+01    6.345330e+00
  2.184895e+01    7.206732e+00
  2.186482e+01    8.071585e+00
  2.188070e+01    8.998152e+00
  2.189657e+01    9.788519e+00
  2.191245e+01    1.050902e+01
  2.192832e+01    1.088368e+01
  2.194420e+01    1.084548e+01
  2.196007e+01    1.033381e+01
  2.197595e+01    9.479814e+00
  2.199183e+01    8.349902e+00
  2.200770e+01    7.102671e+00
  2.202358e+01    5.952634e+00
  2.203945e+01    5.026962e+00
  2.205533e+01    4.310503e+00
  2.207120e+01    3.699779e+00
  2.208708e+01    3.244868e+00
  2.210296e+01    2.888668e+00
  2.211883e+01    2.567728e+00
  2.213471e+01    2.342151e+00
  2.215058e+01    2.145259e+00
  2.216646e+01    1.966950e+00
  2.218233e+01    1.870214e+00
  2.219821e+01    1.716293e+00
  2.221408e+01    1.621513e+00
  2.222996e+01    1.542680e+00
  2.224584e+01    1.476231e+00
  2.226171e+01    1.392763e+00
  2.227759e+01    1.368167e+00
  2.229346e+01    1.331845e+00
  2.230934e+01    1.289101e+00
  2.232521e+01    1.262724e+00
  2.234109e+01    1.264398e+00
  2.235696e+01    1.227501e+00
  2.237284e+01    1.212637e+00
  2.238872e+01    1.159732e+00
  2.240459e+01    1.128173e+00
  2.242047e+01    1.149737e+00
  2.243634e+01    1.124547e+00
  2.245222e+01    1.088681e+00
  2.246809e+01    1.087170e+00
  2.248397e+01    1.078869e+00
  2.249984e+01    1.065133e+00
  2.251572e+01    1.054789e+00
  2.253160e+01    1.060941e+00
  2.254747e+01    1.033381e+00
  2.256335e+01    1.035257e+00
  2.257922e+01    1.025562e+00
  2.259510e+01    1.016229e+00
  2.261097e+01    9.930202e-01
  2.262685e+01    9.956646e-01
  2.264272e+01    1.003555e+00
  2.265860e+01    9.958668e-01
  2.267448e+01    9.845519e-01
  2.269035e+01    9.836073e-01
  2.270623e+01    9.898427e-01
  2.272210e+01    9.750875e-01
  2.273798e+01    9.720829e-01
  2.275385e+01    9.768212e-01
  2.276973e+01    9.647109e-01
  2.278560e+01    9.707162e-01
  2.280148e+01    9.746146e-01
  2.281736e+01    9.730415e-01
  2.283323e+01    9.606640e-01
  2.284911e+01    9.675615e-01
  2.286498e+01    9.710242e-01
  2.288086e+01    9.285669e-01
  2.289673e+01    9.368424e-01
  2.291261e+01    9.393278e-01
  2.292848e+01    9.367132e-01
  2.294436e+01    9.217308e-01
  2.296024e+01    9.297352e-01
  2.297611e+01    9.211841e-01
  2.299199e+01    9.201909e-01
  2.300786e+01    9.101986e-01
  2.302374e+01    9.166881e-01
  2.303961e+01    8.968201e-01
  2.305549e+01    9.050969e-01
  2.307137e+01    9.335774e-01
  2.308724e+01    9.276724e-01
  2.310312e+01    8.972308e-01
  2.311899e+01    9.087825e-01
  2.313487e+01    9.044378e-01
  2.315074e+01    8.983886e-01
  2.316662e+01    8.991767e-01
  2.318249e+01    8.859645e-01
  2.319837e+01    8.748670e-01
  2.321425e+01    8.811165e-01
  2.323012e+01    9.021134e-01
  2.324600e+01    8.905405e-01
  2.326187e+01    8.931773e-01
  2.327775e+01    8.933149e-01
  2.329362e+01    8.926168e-01
  2.330950e+01    8.743526e-01
  2.332537e+01    8.872718e-01
  2.334125e+01    8.847014e-01
  2.335713e+01    8.807998e-01
  2.337300e+01    8.714612e-01
  2.338888e+01    8.789247e-01
  2.340475e+01    8.602206e-01
  2.342063e+01    8.418184e-01
  2.343650e+01    8.458454e-01
  2.345238e+01    8.744429e-01
  2.346825e+01    8.682829e-01
  2.348413e+01    8.692810e-01
  2.350001e+01    8.740537e-01
  2.351588e+01    8.570780e-01
  2.353176e+01    8.721310e-01
  2.354763e+01    8.622409e-01
  2.356351e+01    8.548641e-01
  2.357938e+01    8.663560e-01
  2.359526e+01    8.628311e-01
  2.361113e+01    8.550831e-01
  2.362701e+01    8.638359e-01
  2.364289e+01    8.648354e-01
  2.365876e+01    8.510540e-01
  2.367464e+01    8.479102e-01
  2.369051e+01    8.274723e-01
  2.370639e+01    8.320764e-01
  2.372226e+01    8.453516e-01
  2.373814e+01    8.523267e-01
  2.375401e+01    8.397883e-01
  2.376989e+01    8.421364e-01
  2.378577e+01    8.382526e-01
  2.380164e+01    8.374172e-01
  2.381752e+01    8.252459e-01
  2.383339e+01    8.366516e-01
  2.384927e+01    8.203555e-01
  2.386514e+01    8.052173e-01
  2.388102e+01    8.211097e-01
  2.389689e+01    8.171626e-01
  2.391277e+01    8.114874e-01
  2.392865e+01    8.025125e-01
  2.394452e+01    8.021451e-01
  2.396040e+01    8.212104e-01
  2.397627e+01    8.309935e-01
  2.399215e+01    8.097304e-01
  2.400802e+01    8.170642e-01
  2.402390e+01    8.227057e-01
  2.403978e+01    8.202204e-01
  2.405565e+01    7.850618e-01
  2.407153e+01    7.696736e-01
  2.408740e+01    7.896669e-01
  2.410328e+01    8.169079e-01
  2.411915e+01    8.152096e-01
  2.413503e+01    7.870216e-01
  2.415090e+01    7.938013e-01
  2.416678e+01    8.120217e-01
  2.418266e+01    7.903109e-01
  2.419853e+01    7.909778e-01
  2.421441e+01    7.897798e-01
  2.423028e+01    7.885450e-01
  2.424616e+01    7.923021e-01
  2.426203e+01    7.884420e-01
  2.427791e+01    7.904953e-01
  2.429378e+01    8.049169e-01
  2.430966e+01    8.066403e-01
  2.432554e+01    8.162853e-01
  2.434141e+01    8.156126e-01
  2.435729e+01    8.104095e-01
  2.437316e+01    8.057638e-01
  2.438904e+01    7.995041e-01
  2.440491e+01    8.008196e-01
  2.442079e+01    8.059036e-01
  2.443666e+01    8.016882e-01
  2.445254e+01    8.251666e-01
  2.446842e+01    8.117930e-01
  2.448429e+01    8.082414e-01
  2.450017e+01    8.009778e-01
  2.451604e+01    8.126342e-01
  2.453192e+01    8.038571e-01
  2.454779e+01    7.797622e-01
  2.456367e+01    7.971346e-01
  2.457954e+01    8.119233e-01
  2.459542e+01    8.062691e-01
  2.461130e+01    7.969415e-01
  2.462717e+01    8.009012e-01
  2.464305e+01    7.992466e-01
  2.465892e+01    7.939435e-01
  2.467480e+01    7.989878e-01
  2.469067e+01    7.760490e-01
  2.470655e+01    7.781531e-01
  2.472242e+01    7.957354e-01
  2.473830e+01    8.098999e-01
  2.475418e+01    8.069591e-01
  2.477005e+01    8.114582e-01
  2.478593e+01    8.244072e-01
  2.480180e+01    8.272690e-01
  2.481768e+01    7.917103e-01
  2.483355e+01    7.876552e-01
  2.484943e+01    8.190454e-01
  2.486530e+01    8.155749e-01
  2.488118e+01    7.869321e-01
  2.489706e+01    8.031238e-01
  2.491293e+01    8.102348e-01
  2.492881e+01    7.810864e-01
  2.494468e+01    7.865484e-01
  2.496056e+01    7.890500e-01
  2.497643e+01    8.274794e-01
  2.499231e+01    8.085980e-01
  2.500819e+01    8.061003e-01
  2.502406e+01    8.182381e-01
  2.503994e+01    8.363935e-01
  2.505581e+01    8.213118e-01
  2.507169e+01    8.352896e-01
  2.508756e+01    8.337003e-01
  2.510344e+01    8.280272e-01
  2.511931e+01    8.256422e-01
  2.513519e+01    8.236632e-01
  2.515107e+01    8.290130e-01
  2.516694e+01    8.308883e-01
  2.518282e+01    8.360338e-01
  2.519869e+01    8.628488e-01
  2.521457e+01    8.565320e-01
  2.523044e+01    8.507884e-01
  2.524632e+01    8.581097e-01
  2.526219e+01    8.475015e-01
  2.527807e+01    8.526060e-01
  2.529395e+01    8.497630e-01
  2.530982e+01    8.830678e-01
  2.532570e+01    8.927817e-01
  2.534157e+01    8.987036e-01
  2.535745e+01    8.749133e-01
  2.537332e+01    8.827299e-01
  2.538920e+01    9.193489e-01
  2.540507e+01    9.195297e-01
  2.542095e+01    9.242177e-01
  2.543683e+01    9.440737e-01
  2.545270e+01    9.577003e-01
  2.546858e+01    9.618399e-01
  2.548445e+01    9.669279e-01
  2.550033e+01    9.834257e-01
  2.551620e+01    9.964989e-01
  2.553208e+01    1.017311e+00
  2.554795e+01    1.033320e+00
  2.556383e+01    1.051412e+00
  2.557971e+01    1.069533e+00
  2.559558e+01    1.091961e+00
  2.561146e+01    1.128274e+00
  2.562733e+01    1.155566e+00
  2.564321e+01    1.188965e+00
  2.565908e+01    1.219336e+00
  2.567496e+01    1.277926e+00
  2.569083e+01    1.324391e+00
  2.570671e+01    1.377061e+00
  2.572259e+01    1.479247e+00
  2.573846e+01    1.571298e+00
  2.575434e+01    1.723795e+00
  2.577021e+01    1.862480e+00
  2.578609e+01    2.008155e+00
  2.580196e+01    2.211286e+00
  2.581784e+01    2.465090e+00
  2.583371e+01    2.796815e+00
  2.584959e+01    3.231129e+00
  2.586547e+01    3.691659e+00
  2.588134e+01    4.234585e+00
  2.589722e+01    4.894324e+00
  2.591309e+01    5.594141e+00
  2.592897e+01    6.333753e+00
  2.594484e+01    7.101888e+00
  2.596072e+01    7.875000e+00
  2.597660e+01    8.582705e+00
  2.599247e+01    9.001566e+00
  2.600835e+01    9.015720e+00
  2.602422e+01    8.855139e+00
  2.604010e+01    8.282280e+00
  2.605597e+01    7.460774e+00
  2.607185e+01    6.537444e+00
  2.608772e+01    5.536337e+00
  2.610360e+01    4.724322e+00
  2.611948e+01    4.063808e+00
  2.613535e+01    3.546824e+00
  2.615123e+01    3.075512e+00
  2.616710e+01    2.673451e+00
  2.618298e+01    2.438348e+00
  2.619885e+01    2.208471e+00
  2.621473e+01    1.947664e+00
  2.623060e+01    1.816111e+00
  2.624648e+01    1.666434e+00
  2.626236e+01    1.584352e+00
  2.627823e+01    1.478708e+00
  2.629411e+01    1.391307e+00
  2.630998e+01    1.334633e+00
  2.632586e+01    1.274465e+00
  2.634173e+01    1.218894e+00
  2.635761e+01    1.190466e+00
  2.637348e+01    1.144909e+00
  2.638936e+01    1.105992e+00
  2.640524e+01    1.081662e+00
  2.642111e+01    1.081203e+00
  2.643699e+01    1.050728e+00
  2.645286e+01    1.057847e+00
  2.646874e+01    1.055359e+00
  2.648461e+01    1.016835e+00
  2.650049e+01    1.000197e+00
  2.651636e+01    1.006224e+00
  2.653224e+01    1.003143e+00
  2.654812e+01    9.740383e-01
  2.656399e+01    9.554929e-01
  2.657987e+01    9.345832e-01
  2.659574e+01    9.384831e-01
  2.661162e+01    9.551109e-01
  2.662749e+01    9.530762e-01
  2.664337e+01    9.502125e-01
  2.665924e+01    9.427202e-01
  2.667512e+01    9.354308e-01
  2.669100e+01    9.348118e-01
  2.670687e+01    9.343187e-01
  2.672275e+01    9.097344e-01
  2.673862e+01    9.038522e-01
  2.675450e+01    9.367278e-01
  2.677037e+01    9.164026e-01
  2.678625e+01    9.192524e-01
  2.680212e+01    9.272787e-01
  2.681800e+01    9.208151e-01
  2.683388e+01    9.231074e-01
  2.684975e+01    9.195168e-01
  2.686563e+01    9.236322e-01
  2.688150e+01    9.289478e-01
  2.689738e+01    9.371293e-01
  2.691325e+01    9.450312e-01
  2.692913e+01    9.321315e-01
  2.694501e+01    9.658605e-01
  2.696088e+01    9.777662e-01
  2.697676e+01    9.577751e-01
  2.699263e+01    9.655879e-01
  2.700851e+01    1.016126e+00
  2.702438e+01    1.024839e+00
  2.704026e+01    1.056926e+00
  2.705613e+01    1.100722e+00
  2.707201e+01    1.113202e+00
  2.708789e+01    1.180597e+00
  2.710376e+01    1.264865e+00
  2.711964e+01    1.340138e+00
  2.713551e+01    1.443973e+00
  2.715139e+01    1.593612e+00
  2.716726e+01    1.718297e+00
  2.718314e+01    1.870270e+00
  2.719901e+01    2.058152e+00
  2.721489e+01    2.242453e+00
  2.723077e+01    2.389821e+00
  2.724664e+01    2.533137e+00
  2.726252e+01    2.599416e+00
  2.727839e+01    2.598863e+00
  2.729427e+01    2.471976e+00
  2.731014e+01    2.333549e+00
  2.732602e+01    2.144247e+00
  2.734189e+01    1.962718e+00
  2.735777e+01    1.808295e+00
  2.737365e+01    1.599940e+00
  2.738952e+01    1.468801e+00
  2.740540e+01    1.357459e+00
  2.742127e+01    1.275570e+00
  2.743715e+01    1.180301e+00
  2.745302e+01    1.148694e+00
  2.746890e+01    1.122261e+00
  2.748477e+01    1.078920e+00
  2.750065e+01    1.028170e+00
  2.751653e+01    1.004927e+00
  2.753240e+01    9.504721e-01
  2.754828e+01    9.584386e-01
  2.756415e+01    9.515607e-01
  2.758003e+01    9.376474e-01
  2.759590e+01    9.163777e-01
  2.761178e+01    9.008656e-01
  2.762765e+01    8.920075e-01
  2.764353e+01    8.857716e-01
  2.765941e+01    8.983639e-01
  2.767528e+01    8.814548e-01
  2.769116e+01    8.665656e-01
  2.770703e+01    8.632199e-01
  2.772291e+01    8.485931e-01
  2.773878e+01    8.367855e-01
  2.775466e+01    8.591760e-01
  2.777054e+01    8.666993e-01
  2.778641e+01    8.730928e-01
  2.780229e+01    8.375097e-01
  2.781816e+01    8.319210e-01
  2.783404e+01    8.207990e-01
  2.784991e+01    8.116277e-01
  2.786579e+01    8.348809e-01
  2.788166e+01    8.399016e-01
  2.789754e+01    8.377743e-01
  2.791342e+01    8.377562e-01
  2.792929e+01    8.323127e-01
  2.794517e+01    8.430997e-01
  2.796104e+01    8.076203e-01
  2.797692e+01    7.989762e-01
  2.799279e+01    8.282335e-01
  2.800867e+01    8.451112e-01
  2.802454e+01    8.485764e-01
  2.804042e+01    8.126982e-01
  2.805630e+01    8.065807e-01
  2.807217e+01    7.714992e-01
  2.808805e+01    7.832903e-01
  2.810392e+01    7.896066e-01
  2.811980e+01    8.009517e-01
  2.813567e+01    7.994389e-01
  2.815155e+01    8.120193e-01
  2.816742e+01    7.797101e-01
  2.818330e+01    7.761431e-01
  2.819918e+01    7.932152e-01
  2.821505e+01    7.821516e-01
  2.823093e+01    7.840859e-01
  2.824680e+01    7.910035e-01
  2.826268e+01    7.945293e-01
  2.827855e+01    7.783784e-01
  2.829443e+01    7.867501e-01
  2.831030e+01    7.956416e-01
  2.832618e+01    8.077676e-01
  2.834206e+01    7.820757e-01
  2.835793e+01    7.816447e-01
  2.837381e+01    7.773511e-01
  2.838968e+01    7.744535e-01
  2.840556e+01    7.698337e-01
  2.842143e+01    7.771711e-01
  2.843731e+01    7.906811e-01
  2.845318e+01    7.889400e-01
  2.846906e+01    7.817979e-01
  2.848494e+01    7.736166e-01
  2.850081e+01    7.601511e-01
  2.851669e+01    7.816014e-01
  2.853256e+01    7.808836e-01
  2.854844e+01    7.739927e-01
  2.856431e+01    7.782497e-01
  2.858019e+01    7.612817e-01
  2.859606e+01    7.885666e-01
  2.861194e+01    7.759111e-01
  2.862782e+01    7.608429e-01
  2.864369e+01    7.638850e-01
  2.865957e+01    7.584430e-01
  2.867544e+01    7.656614e-01
  2.869132e+01    7.992105e-01
  2.870719e+01    7.942602e-01
  2.872307e+01    7.539144e-01
  2.873895e+01    7.604575e-01
  2.875482e+01    7.642678e-01
  2.877070e+01    7.490037e-01
  2.878657e+01    7.377511e-01
  2.880245e+01    7.394350e-01
  2.881832e+01    7.555790e-01
  2.883420e+01    7.713635e-01
  2.885007e+01    7.779240e-01
  2.886595e+01    7.585330e-01
  2.888183e+01    7.468991e-01
  2.889770e+01    7.504748e-01
  2.891358e+01    7.572092e-01
  2.892945e+01    7.610266e-01
  2.894533e+01    7.502314e-01
  2.896120e+01    7.686926e-01
  2.897708e+01    7.627892e-01
  2.899295e+01    7.485126e-01
  2.900883e+01    7.583715e-01
  2.902471e+01    7.597451e-01
  2.904058e+01    7.616036e-01
  2.905646e+01    7.506745e-01
  2.907233e+01    7.412826e-01
  2.908821e+01    7.613660e-01
  2.910408e+01    7.525693e-01
  2.911996e+01    7.730047e-01
  2.913583e+01    7.535394e-01
  2.915171e+01    7.283670e-01
  2.916759e+01    7.486010e-01
  2.918346e+01    7.593991e-01
  2.919934e+01    7.526790e-01
  2.921521e+01    7.419301e-01
  2.923109e+01    7.482534e-01
  2.924696e+01    7.375225e-01
  2.926284e+01    7.426974e-01
  2.927871e+01    7.486566e-01
  2.929459e+01    7.414125e-01
  2.931047e+01    7.210143e-01
  2.932634e+01    7.360731e-01
  2.934222e+01    7.479022e-01
  2.935809e+01    7.340989e-01
  2.937397e+01    7.385281e-01
  2.938984e+01    7.372275e-01
  2.940572e+01    7.406107e-01
  2.942159e+01    7.471479e-01
  2.943747e+01    7.398174e-01
  2.945335e+01    7.418340e-01
  2.946922e+01    7.352802e-01
  2.948510e+01    7.463866e-01
  2.950097e+01    7.518408e-01
  2.951685e+01    7.465227e-01
  2.953272e+01    7.419474e-01
  2.954860e+01    7.372457e-01
  2.956447e+01    7.392816e-01
  2.958035e+01    7.381621e-01
  2.959623e+01    7.223381e-01
  2.961210e+01    7.270118e-01
  2.962798e+01    7.474696e-01
  2.964385e+01    7.419506e-01
  2.965973e+01    7.272738e-01
  2.967560e+01    7.393937e-01
  2.969148e+01    7.386354e-01
  2.970736e+01    7.517819e-01
  2.972323e+01    7.227472e-01
  2.973911e+01    7.456359e-01
  2.975498e+01    7.171950e-01
  2.977086e+01    7.331935e-01
  2.978673e+01    7.304951e-01
  2.980261e+01    7.224386e-01
  2.981848e+01    7.447946e-01
  2.983436e+01    7.479656e-01
  2.985024e+01    7.548854e-01
  2.986611e+01    7.537934e-01
  2.988199e+01    7.547559e-01
  2.989786e+01    7.180762e-01
  2.991374e+01    7.059858e-01
  2.992961e+01    7.120964e-01
  2.994549e+01    7.232103e-01
  2.996136e+01    7.501513e-01
  2.997724e+01    7.446984e-01
  2.999312e+01    7.349142e-01
  3.000899e+01    7.507727e-01
  3.002487e+01    7.520026e-01
  3.004074e+01    7.328933e-01
  3.005662e+01    7.375710e-01
  3.007249e+01    7.192820e-01
  3.008837e+01    7.374911e-01
  3.010424e+01    7.490712e-01
  3.012012e+01    7.364153e-01
  3.013600e+01    7.250430e-01
  3.015187e+01    7.463119e-01
  3.016775e+01    7.482286e-01
  3.018362e+01    7.132542e-01
  3.019950e+01    7.176979e-01
  3.021537e+01    7.211256e-01
  3.023125e+01    7.333991e-01
  3.024712e+01    7.438906e-01
  3.026300e+01    7.273316e-01
  3.027888e+01    7.370915e-01
  3.029475e+01    7.195577e-01
  3.031063e+01    7.280377e-01
  3.032650e+01    7.097170e-01
  3.034238e+01    7.395100e-01
  3.035825e+01    7.658083e-01
  3.037413e+01    7.471624e-01
  3.039000e+01    7.238467e-01
  3.040588e+01    7.379330e-01
  3.042176e+01    7.483366e-01
  3.043763e+01    7.255931e-01
  3.045351e+01    7.159303e-01
  3.046938e+01    7.297426e-01
  3.048526e+01    7.210555e-01
  3.050113e+01    7.161619e-01
  3.051701e+01    7.189581e-01
  3.053288e+01    7.090435e-01
  3.054876e+01    7.410386e-01
  3.056464e+01    7.137872e-01
  3.058051e+01    7.024275e-01
  3.059639e+01    7.202409e-01
  3.061226e+01    7.160646e-01
  3.062814e+01    7.256257e-01
  3.064401e+01    7.076423e-01
  3.065989e+01    7.223418e-01
  3.067577e+01    7.290761e-01
  3.069164e+01    7.242122e-01
  3.070752e+01    7.280132e-01
  3.072339e+01    7.292722e-01
  3.073927e+01    7.382159e-01
  3.075514e+01    7.226282e-01
  3.077102e+01    7.154475e-01
  3.078689e+01    7.196427e-01
  3.080277e+01    7.301446e-01
  3.081865e+01    7.312264e-01
  3.083452e+01    7.113472e-01
  3.085040e+01    7.163592e-01
  3.086627e+01    7.235702e-01
  3.088215e+01    7.384229e-01
  3.089802e+01    7.235033e-01
  3.091390e+01    7.219559e-01
  3.092977e+01    7.167189e-01
  3.094565e+01    7.156960e-01
  3.096153e+01    7.164900e-01
  3.097740e+01    7.328643e-01
  3.099328e+01    7.447580e-01
  3.100915e+01    7.327149e-01
  3.102503e+01    7.361589e-01
  3.104090e+01    7.419598e-01
  3.105678e+01    7.335269e-01
  3.107265e+01    7.160004e-01
  3.108853e+01    7.216953e-01
  3.110441e+01    7.235750e-01
  3.112028e+01    7.248595e-01
  3.113616e+01    7.387675e-01
  3.115203e+01    7.440734e-01
  3.116791e+01    7.428833e-01
  3.118378e+01    7.242108e-01
  3.119966e+01    7.319385e-01
  3.121553e+01    7.344832e-01
  3.123141e+01    7.135754e-01
  3.124729e+01    7.365252e-01
  3.126316e+01    7.443120e-01
  3.127904e+01    7.444019e-01
  3.129491e+01    7.318063e-01
  3.131079e+01    7.457591e-01
  3.132666e+01    7.237712e-01
  3.134254e+01    7.439039e-01
  3.135841e+01    7.630425e-01
  3.137429e+01    7.655221e-01
  3.139017e+01    7.555730e-01
  3.140604e+01    7.444811e-01
  3.142192e+01    7.467649e-01
  3.143779e+01    7.596908e-01
  3.145367e+01    7.730947e-01
  3.146954e+01    7.577103e-01
  3.148542e+01    7.557138e-01
  3.150129e+01    7.515624e-01
  3.151717e+01    7.746649e-01
  3.153305e+01    7.897737e-01
  3.154892e+01    8.010177e-01
  3.156480e+01    7.986957e-01
  3.158067e+01    7.888197e-01
  3.159655e+01    8.034903e-01
  3.161242e+01    8.297300e-01
  3.162830e+01    8.501622e-01
  3.164418e+01    8.459243e-01
  3.166005e+01    8.682917e-01
  3.167593e+01    8.761083e-01
  3.169180e+01    8.932083e-01
  3.170768e+01    8.982406e-01
  3.172355e+01    9.384018e-01
  3.173943e+01    9.746583e-01
  3.175530e+01    1.028719e+00
  3.177118e+01    1.068779e+00
  3.178706e+01    1.128150e+00
  3.180293e+01    1.195137e+00
  3.181881e+01    1.274873e+00
  3.183468e+01    1.405565e+00
  3.185056e+01    1.519965e+00
  3.186643e+01    1.671171e+00
  3.188231e+01    1.862843e+00
  3.189818e+01    2.069715e+00
  3.191406e+01    2.232875e+00
  3.192994e+01    2.387140e+00
  3.194581e+01    2.551911e+00
  3.196169e+01    2.589049e+00
  3.197756e+01    2.570046e+00
  3.199344e+01    2.442005e+00
  3.200931e+01    2.318792e+00
  3.202519e+01    2.138939e+00
  3.204106e+01    1.914188e+00
  3.205694e+01    1.725738e+00
  3.207282e+01    1.526640e+00
  3.208869e+01    1.375924e+00
  3.210457e+01    1.266364e+00
  3.212044e+01    1.191307e+00
  3.213632e+01    1.116394e+00
  3.215219e+01    1.042983e+00
  3.216807e+01    1.011152e+00
  3.218394e+01    9.532418e-01
  3.219982e+01    9.149579e-01
  3.221570e+01    8.575655e-01
  3.223157e+01    8.591191e-01
  3.224745e+01    8.612783e-01
  3.226332e+01    8.762946e-01
  3.227920e+01    8.576977e-01
  3.229507e+01    8.195734e-01
  3.231095e+01    8.108668e-01
  3.232682e+01    8.125992e-01
  3.234270e+01    7.871077e-01
  3.235858e+01    7.964522e-01
  3.237445e+01    7.905632e-01
  3.239033e+01    7.602922e-01
  3.240620e+01    7.465569e-01
  3.242208e+01    7.606324e-01
  3.243795e+01    7.676591e-01
  3.245383e+01    7.885495e-01
  3.246970e+01    7.791960e-01
  3.248558e+01    7.535878e-01
  3.250146e+01    7.458969e-01
  3.251733e+01    7.371444e-01
  3.253321e+01    7.498534e-01
  3.254908e+01    7.338275e-01
