# == pyFAI calibration ==
# Distance Sample to Detector: 0.3999999939076516 m
# PONI: 9.750e-02, 1.135e-01 m
# Rotations: -0.000175 0.000000 -0.000000 rad
# 
# == Fit2d calibration ==
# Distance Sample-beamCenter: 400.000 mm
# Center: x=1514.000, y=1300.000 pix
# Tilt: 0.010 deg  TiltPlanRot: 0.010 deg
# 
# Detector Detector	 Spline= None	 PixelSize= 7.500e-05, 7.500e-05 m
#    Detector has a mask: False 
#    Detector has a dark current: False 
#    detector has a flat field: False 
# 
# Wavelength: 6.888e-11 m
# Mask applied: user provided
# Dark current applied: False
# Flat field applied: False
# Polarization factor: 0.99
# Normalization factor: 1.0
# --> /home/myspot/data/2024_07_Rosario/Ru-CGO-ex/2024-07-27_002_Ru-CGO-ex_Activtation_ramp_000002_data_000103.dat
#       q_nm^-1             I 
  2.003187e-02    7.711996e-02
  3.590745e-02    6.421730e-02
  5.178302e-02    0.000000e+00
  6.765859e-02    3.249404e-02
  8.353417e-02    9.822943e-02
  9.940974e-02    8.137240e-02
  1.152853e-01    5.600501e-02
  1.311609e-01    6.060617e-02
  1.470365e-01    3.666051e-03
  1.629120e-01    0.000000e+00
  1.787876e-01    2.447038e-02
  1.946632e-01    2.113326e-02
  2.105388e-01    1.369661e-02
  2.264143e-01    1.211847e-02
  2.422899e-01    1.787312e-02
  2.581655e-01    2.739573e-02
  2.740411e-01    2.008677e-02
  2.899166e-01    3.101636e-02
  3.057922e-01    4.584074e-02
  3.216678e-01    3.853462e-02
  3.375433e-01    2.628167e-02
  3.534189e-01    6.002995e-02
  3.692945e-01    6.355145e-02
  3.851701e-01    2.489680e-02
  4.010456e-01    2.234235e-02
  4.169212e-01    6.241138e-02
  4.327968e-01    6.055773e-02
  4.486724e-01    3.290698e-02
  4.645479e-01    3.811662e-02
  4.804235e-01    2.625083e-02
  4.962991e-01    2.327959e-02
  5.121747e-01    3.710448e-02
  5.280502e-01    6.766332e-02
  5.439258e-01    4.677984e-02
  5.598014e-01    2.308799e-02
  5.756770e-01    1.143136e-02
  5.915525e-01    1.600017e-02
  6.074281e-01    4.878651e-02
  6.233037e-01    4.897350e-02
  6.391793e-01    4.535189e-02
  6.550548e-01    2.919735e-02
  6.709304e-01    2.675745e-02
  6.868060e-01    7.634580e-03
  7.026815e-01    1.424134e-02
  7.185571e-01    2.072619e-02
  7.344327e-01    2.737914e-02
  7.503083e-01    4.364979e-02
  7.661838e-01    5.328716e-02
  7.820594e-01    7.570694e-02
  7.979350e-01    1.326588e-01
  8.138106e-01    2.152324e-01
  8.296861e-01    2.853011e-01
  8.455617e-01    3.333879e-01
  8.614373e-01    3.956612e-01
  8.773129e-01    4.506890e-01
  8.931884e-01    5.211124e-01
  9.090640e-01    5.382248e-01
  9.249396e-01    6.826072e-01
  9.408152e-01    8.307726e-01
  9.566907e-01    8.172265e-01
  9.725663e-01    9.003597e-01
  9.884419e-01    9.042715e-01
  1.004317e+00    8.794666e-01
  1.020193e+00    1.084674e+00
  1.036069e+00    1.186266e+00
  1.051944e+00    1.193674e+00
  1.067820e+00    1.243878e+00
  1.083695e+00    1.307725e+00
  1.099571e+00    1.255134e+00
  1.115446e+00    1.366970e+00
  1.131322e+00    1.379293e+00
  1.147198e+00    1.453604e+00
  1.163073e+00    1.468387e+00
  1.178949e+00    1.482224e+00
  1.194824e+00    1.657461e+00
  1.210700e+00    1.978700e+00
  1.226575e+00    2.084584e+00
  1.242451e+00    2.186615e+00
  1.258327e+00    2.199238e+00
  1.274202e+00    2.408401e+00
  1.290078e+00    2.576307e+00
  1.305953e+00    2.631606e+00
  1.321829e+00    2.544824e+00
  1.337705e+00    2.578951e+00
  1.353580e+00    2.548005e+00
  1.369456e+00    2.555256e+00
  1.385331e+00    2.690019e+00
  1.401207e+00    2.637522e+00
  1.417082e+00    2.644649e+00
  1.432958e+00    2.773157e+00
  1.448834e+00    2.596205e+00
  1.464709e+00    2.548385e+00
  1.480585e+00    2.714530e+00
  1.496460e+00    2.997538e+00
  1.512336e+00    2.865932e+00
  1.528211e+00    2.834871e+00
  1.544087e+00    2.884056e+00
  1.559963e+00    2.971839e+00
  1.575838e+00    2.838645e+00
  1.591714e+00    2.818817e+00
  1.607589e+00    2.902979e+00
  1.623465e+00    2.893342e+00
  1.639340e+00    2.846543e+00
  1.655216e+00    2.769474e+00
  1.671092e+00    2.771781e+00
  1.686967e+00    2.810010e+00
  1.702843e+00    2.859351e+00
  1.718718e+00    2.842526e+00
  1.734594e+00    2.801852e+00
  1.750469e+00    2.720588e+00
  1.766345e+00    2.693638e+00
  1.782221e+00    2.736948e+00
  1.798096e+00    2.721855e+00
  1.813972e+00    2.669775e+00
  1.829847e+00    2.656563e+00
  1.845723e+00    2.641600e+00
  1.861598e+00    2.618403e+00
  1.877474e+00    2.606932e+00
  1.893350e+00    2.613157e+00
  1.909225e+00    2.690913e+00
  1.925101e+00    2.714904e+00
  1.940976e+00    2.625614e+00
  1.956852e+00    2.579047e+00
  1.972727e+00    2.668490e+00
  1.988603e+00    2.630611e+00
  2.004479e+00    2.652915e+00
  2.020354e+00    2.709335e+00
  2.036230e+00    2.747642e+00
  2.052105e+00    2.647998e+00
  2.067981e+00    2.700820e+00
  2.083856e+00    2.754744e+00
  2.099732e+00    2.699010e+00
  2.115608e+00    2.734032e+00
  2.131483e+00    2.666861e+00
  2.147359e+00    2.745365e+00
  2.163234e+00    2.789216e+00
  2.179110e+00    2.711432e+00
  2.194985e+00    2.676916e+00
  2.210861e+00    2.647737e+00
  2.226737e+00    2.642521e+00
  2.242612e+00    2.701157e+00
  2.258488e+00    2.759760e+00
  2.274363e+00    2.790803e+00
  2.290239e+00    2.841416e+00
  2.306115e+00    2.814016e+00
  2.321990e+00    2.670095e+00
  2.337866e+00    2.787106e+00
  2.353741e+00    2.710966e+00
  2.369617e+00    2.599039e+00
  2.385492e+00    2.684296e+00
  2.401368e+00    2.592384e+00
  2.417244e+00    2.706656e+00
  2.433119e+00    2.717536e+00
  2.448995e+00    2.693095e+00
  2.464870e+00    2.622990e+00
  2.480746e+00    2.756367e+00
  2.496621e+00    2.736391e+00
  2.512497e+00    2.741555e+00
  2.528373e+00    2.889585e+00
  2.544248e+00    2.923848e+00
  2.560124e+00    2.810317e+00
  2.575999e+00    2.848099e+00
  2.591875e+00    2.630013e+00
  2.607750e+00    2.667372e+00
  2.623626e+00    2.704432e+00
  2.639502e+00    2.743737e+00
  2.655377e+00    2.734897e+00
  2.671253e+00    2.723544e+00
  2.687128e+00    2.727080e+00
  2.703004e+00    2.801689e+00
  2.718879e+00    2.823580e+00
  2.734755e+00    2.807141e+00
  2.750631e+00    2.826372e+00
  2.766506e+00    2.870198e+00
  2.782382e+00    2.806840e+00
  2.798257e+00    2.806809e+00
  2.814133e+00    2.777430e+00
  2.830008e+00    2.960264e+00
  2.845884e+00    2.911351e+00
  2.861760e+00    2.867735e+00
  2.877635e+00    2.930741e+00
  2.893511e+00    2.912700e+00
  2.909386e+00    2.838669e+00
  2.925262e+00    2.871500e+00
  2.941137e+00    2.932390e+00
  2.957013e+00    2.856227e+00
  2.972889e+00    2.796027e+00
  2.988764e+00    2.762870e+00
  3.004640e+00    2.795449e+00
  3.020515e+00    2.801432e+00
  3.036391e+00    2.813758e+00
  3.052266e+00    2.816252e+00
  3.068142e+00    2.859677e+00
  3.084018e+00    2.934627e+00
  3.099893e+00    2.856238e+00
  3.115769e+00    2.880230e+00
  3.131644e+00    2.954135e+00
  3.147520e+00    2.802974e+00
  3.163395e+00    2.778453e+00
  3.179271e+00    2.869820e+00
  3.195147e+00    2.903407e+00
  3.211022e+00    2.909793e+00
  3.226898e+00    2.860133e+00
  3.242773e+00    2.870626e+00
  3.258649e+00    2.880787e+00
  3.274525e+00    2.835424e+00
  3.290400e+00    2.903186e+00
  3.306276e+00    2.892167e+00
  3.322151e+00    2.812847e+00
  3.338027e+00    2.901989e+00
  3.353902e+00    2.897945e+00
  3.369778e+00    2.942092e+00
  3.385654e+00    2.917054e+00
  3.401529e+00    2.867862e+00
  3.417405e+00    2.899681e+00
  3.433280e+00    2.925590e+00
  3.449156e+00    2.897266e+00
  3.465031e+00    2.856539e+00
  3.480907e+00    2.873040e+00
  3.496783e+00    2.890610e+00
  3.512658e+00    2.929120e+00
  3.528534e+00    3.023914e+00
  3.544409e+00    3.016146e+00
  3.560285e+00    3.007579e+00
  3.576160e+00    3.003012e+00
  3.592036e+00    2.954632e+00
  3.607912e+00    2.931428e+00
  3.623787e+00    2.940588e+00
  3.639663e+00    2.816144e+00
  3.655538e+00    2.944335e+00
  3.671414e+00    2.979509e+00
  3.687289e+00    2.956429e+00
  3.703165e+00    2.873441e+00
  3.719041e+00    2.845553e+00
  3.734916e+00    2.938068e+00
  3.750792e+00    2.930919e+00
  3.766667e+00    2.882295e+00
  3.782543e+00    2.975140e+00
  3.798418e+00    2.972876e+00
  3.814294e+00    3.027543e+00
  3.830170e+00    3.034425e+00
  3.846045e+00    3.055743e+00
  3.861921e+00    2.974100e+00
  3.877796e+00    2.968398e+00
  3.893672e+00    2.964818e+00
  3.909547e+00    2.943952e+00
  3.925423e+00    2.941797e+00
  3.941299e+00    2.904277e+00
  3.957174e+00    2.930629e+00
  3.973050e+00    2.987538e+00
  3.988925e+00    2.948064e+00
  4.004801e+00    2.961697e+00
  4.020676e+00    3.026858e+00
  4.036552e+00    2.992182e+00
  4.052428e+00    3.050162e+00
  4.068303e+00    3.051458e+00
  4.084179e+00    2.936476e+00
  4.100054e+00    2.875830e+00
  4.115930e+00    2.964690e+00
  4.131806e+00    2.966808e+00
  4.147681e+00    2.925658e+00
  4.163557e+00    2.975992e+00
  4.179432e+00    2.944791e+00
  4.195308e+00    2.967036e+00
  4.211183e+00    2.999775e+00
  4.227059e+00    2.940611e+00
  4.242935e+00    2.937145e+00
  4.258810e+00    3.014348e+00
  4.274686e+00    3.012728e+00
  4.290561e+00    3.057437e+00
  4.306437e+00    3.064158e+00
  4.322312e+00    2.912907e+00
  4.338188e+00    2.996473e+00
  4.354064e+00    3.076444e+00
  4.369939e+00    3.089664e+00
  4.385815e+00    3.080219e+00
  4.401690e+00    3.042883e+00
  4.417566e+00    3.088665e+00
  4.433441e+00    3.017834e+00
  4.449317e+00    2.989928e+00
  4.465193e+00    3.043921e+00
  4.481068e+00    2.979993e+00
  4.496944e+00    2.975462e+00
  4.512819e+00    3.018210e+00
  4.528695e+00    2.966543e+00
  4.544570e+00    2.985243e+00
  4.560446e+00    3.049783e+00
  4.576322e+00    2.987968e+00
  4.592197e+00    2.963104e+00
  4.608073e+00    2.982145e+00
  4.623948e+00    3.007831e+00
  4.639824e+00    2.934741e+00
  4.655699e+00    2.978578e+00
  4.671575e+00    2.962506e+00
  4.687451e+00    2.966789e+00
  4.703326e+00    3.017208e+00
  4.719202e+00    3.072724e+00
  4.735077e+00    3.234291e+00
  4.750953e+00    3.159703e+00
  4.766828e+00    3.024453e+00
  4.782704e+00    2.986392e+00
  4.798580e+00    2.993372e+00
  4.814455e+00    3.004057e+00
  4.830331e+00    3.022098e+00
  4.846206e+00    3.108784e+00
  4.862082e+00    3.039239e+00
  4.877957e+00    3.013561e+00
  4.893833e+00    3.043034e+00
  4.909709e+00    3.094387e+00
  4.925584e+00    3.066170e+00
  4.941460e+00    3.094242e+00
  4.957335e+00    3.101237e+00
  4.973211e+00    3.073094e+00
  4.989086e+00    3.028039e+00
  5.004962e+00    3.100116e+00
  5.020838e+00    3.103723e+00
  5.036713e+00    3.109967e+00
  5.052589e+00    3.131718e+00
  5.068464e+00    3.057047e+00
  5.084340e+00    3.092993e+00
  5.100216e+00    3.051381e+00
  5.116091e+00    3.064988e+00
  5.131967e+00    3.086464e+00
  5.147842e+00    3.228901e+00
  5.163718e+00    3.278136e+00
  5.179593e+00    3.035102e+00
  5.195469e+00    3.046347e+00
  5.211345e+00    3.076619e+00
  5.227220e+00    3.031128e+00
  5.243096e+00    3.086006e+00
  5.258971e+00    2.980663e+00
  5.274847e+00    3.024980e+00
  5.290722e+00    3.086565e+00
  5.306598e+00    3.043620e+00
  5.322474e+00    3.093639e+00
  5.338349e+00    3.093547e+00
  5.354225e+00    3.082269e+00
  5.370100e+00    3.090826e+00
  5.385976e+00    3.095716e+00
  5.401851e+00    3.009230e+00
  5.417727e+00    3.042441e+00
  5.433603e+00    3.037272e+00
  5.449478e+00    3.010442e+00
  5.465354e+00    3.018389e+00
  5.481229e+00    3.053536e+00
  5.497105e+00    3.051085e+00
  5.512980e+00    2.998539e+00
  5.528856e+00    2.967121e+00
  5.544732e+00    3.117610e+00
  5.560607e+00    3.113784e+00
  5.576483e+00    3.050953e+00
  5.592358e+00    3.083803e+00
  5.608234e+00    3.061607e+00
  5.624109e+00    3.025771e+00
  5.639985e+00    3.111729e+00
  5.655861e+00    3.111693e+00
  5.671736e+00    2.990601e+00
  5.687612e+00    2.926955e+00
  5.703487e+00    2.968131e+00
  5.719363e+00    3.039631e+00
  5.735238e+00    3.060388e+00
  5.751114e+00    2.948707e+00
  5.766990e+00    2.951746e+00
  5.782865e+00    2.988642e+00
  5.798741e+00    2.980025e+00
  5.814616e+00    3.022741e+00
  5.830492e+00    3.044081e+00
  5.846367e+00    2.979429e+00
  5.862243e+00    2.987928e+00
  5.878119e+00    3.069503e+00
  5.893994e+00    3.041194e+00
  5.909870e+00    3.045010e+00
  5.925745e+00    3.021968e+00
  5.941621e+00    2.977268e+00
  5.957497e+00    2.958826e+00
  5.973372e+00    2.963808e+00
  5.989248e+00    2.932446e+00
  6.005123e+00    3.000349e+00
  6.020999e+00    2.894091e+00
  6.036874e+00    2.904972e+00
  6.052750e+00    3.013570e+00
  6.068626e+00    2.988065e+00
  6.084501e+00    3.091813e+00
  6.100377e+00    3.023963e+00
  6.116252e+00    3.045231e+00
  6.132128e+00    2.988557e+00
  6.148003e+00    3.006706e+00
  6.163879e+00    3.049452e+00
  6.179755e+00    3.047019e+00
  6.195630e+00    3.069709e+00
  6.211506e+00    3.012946e+00
  6.227381e+00    3.033088e+00
  6.243257e+00    3.004238e+00
  6.259132e+00    3.058713e+00
  6.275008e+00    3.024109e+00
  6.290884e+00    3.027648e+00
  6.306759e+00    3.034007e+00
  6.322635e+00    2.900108e+00
  6.338510e+00    2.975580e+00
  6.354386e+00    3.032062e+00
  6.370261e+00    2.990483e+00
  6.386137e+00    3.048763e+00
  6.402013e+00    2.999305e+00
  6.417888e+00    3.037998e+00
  6.433764e+00    3.083192e+00
  6.449639e+00    3.020449e+00
  6.465515e+00    3.005206e+00
  6.481390e+00    2.985522e+00
  6.497266e+00    3.009972e+00
  6.513142e+00    3.036283e+00
  6.529017e+00    3.043333e+00
  6.544893e+00    3.028037e+00
  6.560768e+00    3.006529e+00
  6.576644e+00    2.981128e+00
  6.592519e+00    2.924431e+00
  6.608395e+00    2.989273e+00
  6.624271e+00    3.025950e+00
  6.640146e+00    3.043126e+00
  6.656022e+00    2.993429e+00
  6.671897e+00    2.999531e+00
  6.687773e+00    2.935338e+00
  6.703648e+00    2.910223e+00
  6.719524e+00    2.903727e+00
  6.735400e+00    2.908198e+00
  6.751275e+00    3.020841e+00
  6.767151e+00    2.977486e+00
  6.783026e+00    2.976974e+00
  6.798902e+00    3.015346e+00
  6.814777e+00    2.981489e+00
  6.830653e+00    2.916380e+00
  6.846529e+00    3.006406e+00
  6.862404e+00    3.039573e+00
  6.878280e+00    2.921737e+00
  6.894155e+00    2.946574e+00
  6.910031e+00    2.999392e+00
  6.925907e+00    3.010087e+00
  6.941782e+00    2.963043e+00
  6.957658e+00    3.007624e+00
  6.973533e+00    2.966427e+00
  6.989409e+00    2.937807e+00
  7.005284e+00    3.014817e+00
  7.021160e+00    3.026610e+00
  7.037036e+00    2.949146e+00
  7.052911e+00    2.873861e+00
  7.068787e+00    2.883322e+00
  7.084662e+00    2.976392e+00
  7.100538e+00    2.976074e+00
  7.116413e+00    2.964786e+00
  7.132289e+00    2.954290e+00
  7.148165e+00    2.958275e+00
  7.164040e+00    2.960708e+00
  7.179916e+00    2.909761e+00
  7.195791e+00    2.958822e+00
  7.211667e+00    2.940299e+00
  7.227542e+00    2.940576e+00
  7.243418e+00    2.869633e+00
  7.259294e+00    2.852981e+00
  7.275169e+00    2.953197e+00
  7.291045e+00    2.941797e+00
  7.306920e+00    2.926872e+00
  7.322796e+00    2.976032e+00
  7.338671e+00    2.948770e+00
  7.354547e+00    2.954715e+00
  7.370423e+00    2.945108e+00
  7.386298e+00    2.923015e+00
  7.402174e+00    2.928307e+00
  7.418049e+00    2.932312e+00
  7.433925e+00    2.951249e+00
  7.449800e+00    2.942709e+00
  7.465676e+00    2.910505e+00
  7.481552e+00    2.986357e+00
  7.497427e+00    3.004400e+00
  7.513303e+00    2.939173e+00
  7.529178e+00    2.898095e+00
  7.545054e+00    2.952811e+00
  7.560929e+00    2.938878e+00
  7.576805e+00    2.913439e+00
  7.592681e+00    2.938530e+00
  7.608556e+00    2.916716e+00
  7.624432e+00    2.882175e+00
  7.640307e+00    2.922538e+00
  7.656183e+00    2.856113e+00
  7.672058e+00    2.902063e+00
  7.687934e+00    2.924722e+00
  7.703810e+00    2.940786e+00
  7.719685e+00    2.931472e+00
  7.735561e+00    2.889268e+00
  7.751436e+00    2.873004e+00
  7.767312e+00    2.945739e+00
  7.783187e+00    2.939996e+00
  7.799063e+00    2.897207e+00
  7.814939e+00    2.876494e+00
  7.830814e+00    2.841370e+00
  7.846690e+00    2.898837e+00
  7.862565e+00    2.913392e+00
  7.878441e+00    2.915413e+00
  7.894317e+00    2.890272e+00
  7.910192e+00    2.852674e+00
  7.926068e+00    2.829909e+00
  7.941943e+00    2.915295e+00
  7.957819e+00    2.857578e+00
  7.973694e+00    2.795976e+00
  7.989570e+00    2.839719e+00
  8.005446e+00    2.868118e+00
  8.021321e+00    2.934063e+00
  8.037197e+00    2.929346e+00
  8.053072e+00    2.865431e+00
  8.068948e+00    2.864314e+00
  8.084823e+00    2.922988e+00
  8.100699e+00    2.917130e+00
  8.116575e+00    2.952493e+00
  8.132450e+00    2.912723e+00
  8.148326e+00    2.858686e+00
  8.164201e+00    2.934964e+00
  8.180077e+00    2.941754e+00
  8.195952e+00    2.923043e+00
  8.211828e+00    2.865948e+00
  8.227704e+00    2.915612e+00
  8.243579e+00    2.955218e+00
  8.259455e+00    2.890353e+00
  8.275330e+00    2.879239e+00
  8.291206e+00    2.911139e+00
  8.307081e+00    2.892593e+00
  8.322957e+00    2.828365e+00
  8.338833e+00    2.845183e+00
  8.354708e+00    2.842245e+00
  8.370584e+00    2.850548e+00
  8.386459e+00    2.854740e+00
  8.402335e+00    2.837196e+00
  8.418210e+00    2.805179e+00
  8.434086e+00    2.779201e+00
  8.449962e+00    2.807911e+00
  8.465837e+00    2.841346e+00
  8.481713e+00    2.799921e+00
  8.497588e+00    2.799942e+00
  8.513464e+00    2.790139e+00
  8.529339e+00    2.817423e+00
  8.545215e+00    2.817722e+00
  8.561091e+00    2.855443e+00
  8.576966e+00    2.835337e+00
  8.592842e+00    2.841312e+00
  8.608717e+00    2.818796e+00
  8.624593e+00    2.776546e+00
  8.640468e+00    2.872798e+00
  8.656344e+00    2.833516e+00
  8.672220e+00    2.811854e+00
  8.688095e+00    2.827960e+00
  8.703971e+00    2.776711e+00
  8.719846e+00    2.789093e+00
  8.735722e+00    2.807664e+00
  8.751598e+00    2.805869e+00
  8.767473e+00    2.780272e+00
  8.783349e+00    2.823046e+00
  8.799224e+00    2.894962e+00
  8.815100e+00    2.822737e+00
  8.830975e+00    2.788357e+00
  8.846851e+00    2.815264e+00
  8.862727e+00    2.820704e+00
  8.878602e+00    2.806175e+00
  8.894478e+00    2.764435e+00
  8.910353e+00    2.763514e+00
  8.926229e+00    2.764536e+00
  8.942104e+00    2.732140e+00
  8.957980e+00    2.792212e+00
  8.973856e+00    2.819089e+00
  8.989731e+00    2.800620e+00
  9.005607e+00    2.777062e+00
  9.021482e+00    2.781672e+00
  9.037358e+00    2.798760e+00
  9.053233e+00    2.798608e+00
  9.069109e+00    2.769475e+00
  9.084985e+00    2.757143e+00
  9.100860e+00    2.755850e+00
  9.116736e+00    2.776584e+00
  9.132611e+00    2.764954e+00
  9.148487e+00    2.729538e+00
  9.164362e+00    2.743992e+00
  9.180238e+00    2.769536e+00
  9.196114e+00    2.775768e+00
  9.211989e+00    2.815805e+00
  9.227865e+00    2.788509e+00
  9.243740e+00    2.791915e+00
  9.259616e+00    2.749011e+00
  9.275491e+00    2.734717e+00
  9.291367e+00    2.712824e+00
  9.307243e+00    2.699258e+00
  9.323118e+00    2.739540e+00
  9.338994e+00    2.733366e+00
  9.354869e+00    2.756787e+00
  9.370745e+00    2.740707e+00
  9.386620e+00    2.715557e+00
  9.402496e+00    2.722447e+00
  9.418372e+00    2.741362e+00
  9.434247e+00    2.691849e+00
  9.450123e+00    2.682429e+00
  9.465998e+00    2.654713e+00
  9.481874e+00    2.674947e+00
  9.497749e+00    2.689954e+00
  9.513625e+00    2.683989e+00
  9.529501e+00    2.702414e+00
  9.545376e+00    2.670583e+00
  9.561252e+00    2.678494e+00
  9.577127e+00    2.725744e+00
  9.593003e+00    2.715626e+00
  9.608878e+00    2.733842e+00
  9.624754e+00    2.702182e+00
  9.640630e+00    2.720296e+00
  9.656505e+00    2.756134e+00
  9.672381e+00    2.688491e+00
  9.688256e+00    2.642118e+00
  9.704132e+00    2.681382e+00
  9.720008e+00    2.685499e+00
  9.735883e+00    2.711278e+00
  9.751759e+00    2.718516e+00
  9.767634e+00    2.689726e+00
  9.783510e+00    2.722893e+00
  9.799385e+00    2.683246e+00
  9.815261e+00    2.663416e+00
  9.831137e+00    2.659392e+00
  9.847012e+00    2.681690e+00
  9.862888e+00    2.660510e+00
  9.878763e+00    2.688752e+00
  9.894639e+00    2.670870e+00
  9.910514e+00    2.645127e+00
  9.926390e+00    2.608701e+00
  9.942266e+00    2.630149e+00
  9.958141e+00    2.656592e+00
  9.974017e+00    2.650461e+00
  9.989892e+00    2.644503e+00
  1.000577e+01    2.644506e+00
  1.002164e+01    2.687959e+00
  1.003752e+01    2.631984e+00
  1.005339e+01    2.643140e+00
  1.006927e+01    2.648142e+00
  1.008515e+01    2.639253e+00
  1.010102e+01    2.556454e+00
  1.011690e+01    2.589974e+00
  1.013277e+01    2.605963e+00
  1.014865e+01    2.561569e+00
  1.016452e+01    2.628097e+00
  1.018040e+01    2.618785e+00
  1.019627e+01    2.594086e+00
  1.021215e+01    2.552596e+00
  1.022803e+01    2.597103e+00
  1.024390e+01    2.662200e+00
  1.025978e+01    2.613761e+00
  1.027565e+01    2.595472e+00
  1.029153e+01    2.592176e+00
  1.030740e+01    2.637468e+00
  1.032328e+01    2.661978e+00
  1.033915e+01    2.596304e+00
  1.035503e+01    2.561405e+00
  1.037091e+01    2.593272e+00
  1.038678e+01    2.563433e+00
  1.040266e+01    2.616603e+00
  1.041853e+01    2.614578e+00
  1.043441e+01    2.587051e+00
  1.045028e+01    2.559006e+00
  1.046616e+01    2.574075e+00
  1.048204e+01    2.552360e+00
  1.049791e+01    2.544568e+00
  1.051379e+01    2.533592e+00
  1.052966e+01    2.508074e+00
  1.054554e+01    2.538411e+00
  1.056141e+01    2.566498e+00
  1.057729e+01    2.538127e+00
  1.059316e+01    2.484570e+00
  1.060904e+01    2.527148e+00
  1.062492e+01    2.526853e+00
  1.064079e+01    2.468300e+00
  1.065667e+01    2.490192e+00
  1.067254e+01    2.533038e+00
  1.068842e+01    2.519855e+00
  1.070429e+01    2.535401e+00
  1.072017e+01    2.496489e+00
  1.073604e+01    2.490669e+00
  1.075192e+01    2.532064e+00
  1.076780e+01    2.531511e+00
  1.078367e+01    2.521999e+00
  1.079955e+01    2.506203e+00
  1.081542e+01    2.495866e+00
  1.083130e+01    2.479021e+00
  1.084717e+01    2.454336e+00
  1.086305e+01    2.477817e+00
  1.087892e+01    2.507573e+00
  1.089480e+01    2.547522e+00
  1.091068e+01    2.490636e+00
  1.092655e+01    2.441430e+00
  1.094243e+01    2.474378e+00
  1.095830e+01    2.517526e+00
  1.097418e+01    2.470388e+00
  1.099005e+01    2.440879e+00
  1.100593e+01    2.428416e+00
  1.102180e+01    2.462753e+00
  1.103768e+01    2.444571e+00
  1.105356e+01    2.408104e+00
  1.106943e+01    2.415326e+00
  1.108531e+01    2.465122e+00
  1.110118e+01    2.491940e+00
  1.111706e+01    2.437081e+00
  1.113293e+01    2.411299e+00
  1.114881e+01    2.408213e+00
  1.116468e+01    2.434934e+00
  1.118056e+01    2.493471e+00
  1.119644e+01    2.429705e+00
  1.121231e+01    2.410155e+00
  1.122819e+01    2.430515e+00
  1.124406e+01    2.404438e+00
  1.125994e+01    2.444591e+00
  1.127581e+01    2.434078e+00
  1.129169e+01    2.383346e+00
  1.130756e+01    2.426811e+00
  1.132344e+01    2.429130e+00
  1.133932e+01    2.431823e+00
  1.135519e+01    2.410469e+00
  1.137107e+01    2.405043e+00
  1.138694e+01    2.386785e+00
  1.140282e+01    2.451360e+00
  1.141869e+01    2.446931e+00
  1.143457e+01    2.375994e+00
  1.145045e+01    2.392931e+00
  1.146632e+01    2.425215e+00
  1.148220e+01    2.402441e+00
  1.149807e+01    2.388709e+00
  1.151395e+01    2.370604e+00
  1.152982e+01    2.336498e+00
  1.154570e+01    2.357031e+00
  1.156157e+01    2.382202e+00
  1.157745e+01    2.343041e+00
  1.159333e+01    2.340015e+00
  1.160920e+01    2.378839e+00
  1.162508e+01    2.332252e+00
  1.164095e+01    2.386447e+00
  1.165683e+01    2.402349e+00
  1.167270e+01    2.356560e+00
  1.168858e+01    2.355063e+00
  1.170445e+01    2.308046e+00
  1.172033e+01    2.331543e+00
  1.173621e+01    2.315128e+00
  1.175208e+01    2.374873e+00
  1.176796e+01    2.324142e+00
  1.178383e+01    2.322711e+00
  1.179971e+01    2.311108e+00
  1.181558e+01    2.301816e+00
  1.183146e+01    2.318999e+00
  1.184733e+01    2.330203e+00
  1.186321e+01    2.300208e+00
  1.187909e+01    2.373101e+00
  1.189496e+01    2.303764e+00
  1.191084e+01    2.283596e+00
  1.192671e+01    2.328839e+00
  1.194259e+01    2.335007e+00
  1.195846e+01    2.291365e+00
  1.197434e+01    2.296826e+00
  1.199021e+01    2.300898e+00
  1.200609e+01    2.266244e+00
  1.202197e+01    2.290802e+00
  1.203784e+01    2.321680e+00
  1.205372e+01    2.311858e+00
  1.206959e+01    2.313370e+00
  1.208547e+01    2.294524e+00
  1.210134e+01    2.335265e+00
  1.211722e+01    2.289066e+00
  1.213309e+01    2.276919e+00
  1.214897e+01    2.259600e+00
  1.216485e+01    2.271758e+00
  1.218072e+01    2.286157e+00
  1.219660e+01    2.284813e+00
  1.221247e+01    2.255708e+00
  1.222835e+01    2.272739e+00
  1.224422e+01    2.270288e+00
  1.226010e+01    2.287961e+00
  1.227597e+01    2.305816e+00
  1.229185e+01    2.232733e+00
  1.230773e+01    2.271539e+00
  1.232360e+01    2.347021e+00
  1.233948e+01    2.331139e+00
  1.235535e+01    2.297468e+00
  1.237123e+01    2.261891e+00
  1.238710e+01    2.286454e+00
  1.240298e+01    2.277999e+00
  1.241886e+01    2.323017e+00
  1.243473e+01    2.349059e+00
  1.245061e+01    2.355323e+00
  1.246648e+01    2.288174e+00
  1.248236e+01    2.295708e+00
  1.249823e+01    2.349398e+00
  1.251411e+01    2.371047e+00
  1.252998e+01    2.339646e+00
  1.254586e+01    2.339988e+00
  1.256174e+01    2.380213e+00
  1.257761e+01    2.391686e+00
  1.259349e+01    2.400803e+00
  1.260936e+01    2.416474e+00
  1.262524e+01    2.372834e+00
  1.264111e+01    2.433910e+00
  1.265699e+01    2.424089e+00
  1.267286e+01    2.374775e+00
  1.268874e+01    2.427866e+00
  1.270462e+01    2.486792e+00
  1.272049e+01    2.479479e+00
  1.273637e+01    2.502417e+00
  1.275224e+01    2.548701e+00
  1.276812e+01    2.571978e+00
  1.278399e+01    2.619157e+00
  1.279987e+01    2.611653e+00
  1.281574e+01    2.644324e+00
  1.283162e+01    2.743409e+00
  1.284750e+01    2.800790e+00
  1.286337e+01    2.889607e+00
  1.287925e+01    2.990111e+00
  1.289512e+01    3.104655e+00
  1.291100e+01    3.251084e+00
  1.292687e+01    3.419116e+00
  1.294275e+01    3.654764e+00
  1.295862e+01    3.983939e+00
  1.297450e+01    4.319485e+00
  1.299038e+01    4.762047e+00
  1.300625e+01    5.333250e+00
  1.302213e+01    5.975844e+00
  1.303800e+01    6.925285e+00
  1.305388e+01    8.097827e+00
  1.306975e+01    9.363724e+00
  1.308563e+01    1.068360e+01
  1.310150e+01    1.208907e+01
  1.311738e+01    1.347929e+01
  1.313326e+01    1.480240e+01
  1.314913e+01    1.607271e+01
  1.316501e+01    1.706661e+01
  1.318088e+01    1.765445e+01
  1.319676e+01    1.762954e+01
  1.321263e+01    1.668325e+01
  1.322851e+01    1.498970e+01
  1.324438e+01    1.287930e+01
  1.326026e+01    1.084683e+01
  1.327614e+01    9.119694e+00
  1.329201e+01    7.766190e+00
  1.330789e+01    6.582871e+00
  1.332376e+01    5.733130e+00
  1.333964e+01    5.151128e+00
  1.335551e+01    4.656452e+00
  1.337139e+01    4.206018e+00
  1.338727e+01    3.838396e+00
  1.340314e+01    3.578887e+00
  1.341902e+01    3.333997e+00
  1.343489e+01    3.175999e+00
  1.345077e+01    3.063550e+00
  1.346664e+01    2.910820e+00
  1.348252e+01    2.832458e+00
  1.349839e+01    2.771502e+00
  1.351427e+01    2.670715e+00
  1.353015e+01    2.612308e+00
  1.354602e+01    2.492556e+00
  1.356190e+01    2.410907e+00
  1.357777e+01    2.414407e+00
  1.359365e+01    2.393357e+00
  1.360952e+01    2.369510e+00
  1.362540e+01    2.336167e+00
  1.364127e+01    2.331483e+00
  1.365715e+01    2.259523e+00
  1.367303e+01    2.244023e+00
  1.368890e+01    2.231441e+00
  1.370478e+01    2.216752e+00
  1.372065e+01    2.233119e+00
  1.373653e+01    2.255197e+00
  1.375240e+01    2.238388e+00
  1.376828e+01    2.167228e+00
  1.378415e+01    2.127843e+00
  1.380003e+01    2.135968e+00
  1.381591e+01    2.151820e+00
  1.383178e+01    2.109504e+00
  1.384766e+01    2.092186e+00
  1.386353e+01    2.104840e+00
  1.387941e+01    2.098402e+00
  1.389528e+01    2.063075e+00
  1.391116e+01    2.048316e+00
  1.392703e+01    2.076004e+00
  1.394291e+01    2.050913e+00
  1.395879e+01    2.043910e+00
  1.397466e+01    2.062162e+00
  1.399054e+01    2.064922e+00
  1.400641e+01    2.052666e+00
  1.402229e+01    2.055533e+00
  1.403816e+01    1.997789e+00
  1.405404e+01    2.024076e+00
  1.406991e+01    2.005263e+00
  1.408579e+01    1.988385e+00
  1.410167e+01    2.000502e+00
  1.411754e+01    2.005040e+00
  1.413342e+01    1.981442e+00
  1.414929e+01    1.941075e+00
  1.416517e+01    1.953538e+00
  1.418104e+01    1.994784e+00
  1.419692e+01    1.965498e+00
  1.421279e+01    1.974735e+00
  1.422867e+01    1.964819e+00
  1.424455e+01    1.959807e+00
  1.426042e+01    1.966486e+00
  1.427630e+01    1.960908e+00
  1.429217e+01    1.939333e+00
  1.430805e+01    1.935773e+00
  1.432392e+01    1.924047e+00
  1.433980e+01    1.920243e+00
  1.435568e+01    1.956877e+00
  1.437155e+01    1.920877e+00
  1.438743e+01    1.936195e+00
  1.440330e+01    1.930918e+00
  1.441918e+01    1.915718e+00
  1.443505e+01    1.885930e+00
  1.445093e+01    1.925947e+00
  1.446680e+01    1.920131e+00
  1.448268e+01    1.873618e+00
  1.449856e+01    1.868202e+00
  1.451443e+01    1.862221e+00
  1.453031e+01    1.914835e+00
  1.454618e+01    1.912267e+00
  1.456206e+01    1.876751e+00
  1.457793e+01    1.878157e+00
  1.459381e+01    1.848625e+00
  1.460968e+01    1.856799e+00
  1.462556e+01    1.878566e+00
  1.464144e+01    1.904566e+00
  1.465731e+01    1.877121e+00
  1.467319e+01    1.848282e+00
  1.468906e+01    1.889679e+00
  1.470494e+01    1.899583e+00
  1.472081e+01    1.921625e+00
  1.473669e+01    1.902866e+00
  1.475256e+01    1.903905e+00
  1.476844e+01    1.890477e+00
  1.478432e+01    1.871495e+00
  1.480019e+01    1.913918e+00
  1.481607e+01    1.912284e+00
  1.483194e+01    1.912560e+00
  1.484782e+01    1.942907e+00
  1.486369e+01    1.924362e+00
  1.487957e+01    1.921225e+00
  1.489544e+01    1.927123e+00
  1.491132e+01    1.965207e+00
  1.492720e+01    2.004347e+00
  1.494307e+01    1.989646e+00
  1.495895e+01    2.000557e+00
  1.497482e+01    2.042715e+00
  1.499070e+01    2.054811e+00
  1.500657e+01    2.115945e+00
  1.502245e+01    2.228014e+00
  1.503832e+01    2.301437e+00
  1.505420e+01    2.365436e+00
  1.507008e+01    2.460335e+00
  1.508595e+01    2.639376e+00
  1.510183e+01    2.856797e+00
  1.511770e+01    3.077723e+00
  1.513358e+01    3.320805e+00
  1.514945e+01    3.660127e+00
  1.516533e+01    4.085863e+00
  1.518120e+01    4.506669e+00
  1.519708e+01    4.826427e+00
  1.521296e+01    5.243182e+00
  1.522883e+01    5.548236e+00
  1.524471e+01    5.749441e+00
  1.526058e+01    5.893516e+00
  1.527646e+01    6.022348e+00
  1.529233e+01    5.959224e+00
  1.530821e+01    5.603774e+00
  1.532409e+01    5.183136e+00
  1.533996e+01    4.702574e+00
  1.535584e+01    4.146441e+00
  1.537171e+01    3.611732e+00
  1.538759e+01    3.199745e+00
  1.540346e+01    2.930786e+00
  1.541934e+01    2.679542e+00
  1.543521e+01    2.507207e+00
  1.545109e+01    2.339837e+00
  1.546697e+01    2.302212e+00
  1.548284e+01    2.189194e+00
  1.549872e+01    2.072744e+00
  1.551459e+01    2.037531e+00
  1.553047e+01    1.957717e+00
  1.554634e+01    1.959272e+00
  1.556222e+01    1.943352e+00
  1.557809e+01    1.915645e+00
  1.559397e+01    1.847313e+00
  1.560985e+01    1.831130e+00
  1.562572e+01    1.823370e+00
  1.564160e+01    1.795417e+00
  1.565747e+01    1.752868e+00
  1.567335e+01    1.752022e+00
  1.568922e+01    1.763542e+00
  1.570510e+01    1.749052e+00
  1.572097e+01    1.752879e+00
  1.573685e+01    1.677273e+00
  1.575273e+01    1.691818e+00
  1.576860e+01    1.664031e+00
  1.578448e+01    1.645914e+00
  1.580035e+01    1.649336e+00
  1.581623e+01    1.647426e+00
  1.583210e+01    1.646810e+00
  1.584798e+01    1.613983e+00
  1.586385e+01    1.646584e+00
  1.587973e+01    1.651929e+00
  1.589561e+01    1.636805e+00
  1.591148e+01    1.599878e+00
  1.592736e+01    1.591837e+00
  1.594323e+01    1.596412e+00
  1.595911e+01    1.615874e+00
  1.597498e+01    1.607669e+00
  1.599086e+01    1.628211e+00
  1.600673e+01    1.612721e+00
  1.602261e+01    1.616906e+00
  1.603849e+01    1.593354e+00
  1.605436e+01    1.560616e+00
  1.607024e+01    1.575263e+00
  1.608611e+01    1.580517e+00
  1.610199e+01    1.572492e+00
  1.611786e+01    1.569888e+00
  1.613374e+01    1.567153e+00
  1.614961e+01    1.569214e+00
  1.616549e+01    1.554839e+00
  1.618137e+01    1.530322e+00
  1.619724e+01    1.538574e+00
  1.621312e+01    1.566325e+00
  1.622899e+01    1.572884e+00
  1.624487e+01    1.581971e+00
  1.626074e+01    1.548465e+00
  1.627662e+01    1.509028e+00
  1.629250e+01    1.505816e+00
  1.630837e+01    1.518892e+00
  1.632425e+01    1.534149e+00
  1.634012e+01    1.516096e+00
  1.635600e+01    1.513491e+00
  1.637187e+01    1.517720e+00
  1.638775e+01    1.515886e+00
  1.640362e+01    1.508926e+00
  1.641950e+01    1.495699e+00
  1.643538e+01    1.515122e+00
  1.645125e+01    1.543709e+00
  1.646713e+01    1.510489e+00
  1.648300e+01    1.510234e+00
  1.649888e+01    1.529544e+00
  1.651475e+01    1.516836e+00
  1.653063e+01    1.478612e+00
  1.654650e+01    1.504478e+00
  1.656238e+01    1.516842e+00
  1.657826e+01    1.509357e+00
  1.659413e+01    1.475092e+00
  1.661001e+01    1.480365e+00
  1.662588e+01    1.474858e+00
  1.664176e+01    1.453830e+00
  1.665763e+01    1.471291e+00
  1.667351e+01    1.467049e+00
  1.668938e+01    1.452706e+00
  1.670526e+01    1.474542e+00
  1.672114e+01    1.457535e+00
  1.673701e+01    1.461845e+00
  1.675289e+01    1.438441e+00
  1.676876e+01    1.439915e+00
  1.678464e+01    1.448885e+00
  1.680051e+01    1.466023e+00
  1.681639e+01    1.455345e+00
  1.683226e+01    1.449493e+00
  1.684814e+01    1.445136e+00
  1.686402e+01    1.428247e+00
  1.687989e+01    1.430085e+00
  1.689577e+01    1.434662e+00
  1.691164e+01    1.440305e+00
  1.692752e+01    1.445801e+00
  1.694339e+01    1.435122e+00
  1.695927e+01    1.414062e+00
  1.697514e+01    1.430478e+00
  1.699102e+01    1.434145e+00
  1.700690e+01    1.412231e+00
  1.702277e+01    1.407020e+00
  1.703865e+01    1.443759e+00
  1.705452e+01    1.405050e+00
  1.707040e+01    1.391719e+00
  1.708627e+01    1.395882e+00
  1.710215e+01    1.421090e+00
  1.711802e+01    1.403772e+00
  1.713390e+01    1.399769e+00
  1.714978e+01    1.399295e+00
  1.716565e+01    1.390726e+00
  1.718153e+01    1.416637e+00
  1.719740e+01    1.375433e+00
  1.721328e+01    1.379215e+00
  1.722915e+01    1.370678e+00
  1.724503e+01    1.369706e+00
  1.726091e+01    1.363465e+00
  1.727678e+01    1.349880e+00
  1.729266e+01    1.349090e+00
  1.730853e+01    1.376648e+00
  1.732441e+01    1.362475e+00
  1.734028e+01    1.362770e+00
  1.735616e+01    1.340109e+00
  1.737203e+01    1.342882e+00
  1.738791e+01    1.376236e+00
  1.740379e+01    1.361015e+00
  1.741966e+01    1.365185e+00
  1.743554e+01    1.350786e+00
  1.745141e+01    1.337247e+00
  1.746729e+01    1.339106e+00
  1.748316e+01    1.352715e+00
  1.749904e+01    1.337471e+00
  1.751491e+01    1.349802e+00
  1.753079e+01    1.397030e+00
  1.754667e+01    1.359116e+00
  1.756254e+01    1.314662e+00
  1.757842e+01    1.346138e+00
  1.759429e+01    1.339273e+00
  1.761017e+01    1.326867e+00
  1.762604e+01    1.320707e+00
  1.764192e+01    1.329425e+00
  1.765779e+01    1.321464e+00
  1.767367e+01    1.306858e+00
  1.768955e+01    1.326978e+00
  1.770542e+01    1.348708e+00
  1.772130e+01    1.333145e+00
  1.773717e+01    1.345674e+00
  1.775305e+01    1.349918e+00
  1.776892e+01    1.300156e+00
  1.778480e+01    1.314849e+00
  1.780067e+01    1.333373e+00
  1.781655e+01    1.317585e+00
  1.783243e+01    1.308124e+00
  1.784830e+01    1.330277e+00
  1.786418e+01    1.317216e+00
  1.788005e+01    1.287861e+00
  1.789593e+01    1.306219e+00
  1.791180e+01    1.284699e+00
  1.792768e+01    1.306937e+00
  1.794355e+01    1.293546e+00
  1.795943e+01    1.286149e+00
  1.797531e+01    1.295667e+00
  1.799118e+01    1.314480e+00
  1.800706e+01    1.294905e+00
  1.802293e+01    1.313395e+00
  1.803881e+01    1.291160e+00
  1.805468e+01    1.293343e+00
  1.807056e+01    1.295265e+00
  1.808643e+01    1.290491e+00
  1.810231e+01    1.289725e+00
  1.811819e+01    1.275379e+00
  1.813406e+01    1.268666e+00
  1.814994e+01    1.237820e+00
  1.816581e+01    1.249023e+00
  1.818169e+01    1.282934e+00
  1.819756e+01    1.261130e+00
  1.821344e+01    1.240002e+00
  1.822932e+01    1.252094e+00
  1.824519e+01    1.258129e+00
  1.826107e+01    1.266834e+00
  1.827694e+01    1.260622e+00
  1.829282e+01    1.256578e+00
  1.830869e+01    1.255364e+00
  1.832457e+01    1.230312e+00
  1.834044e+01    1.274554e+00
  1.835632e+01    1.287740e+00
  1.837220e+01    1.263396e+00
  1.838807e+01    1.250064e+00
  1.840395e+01    1.244776e+00
  1.841982e+01    1.239081e+00
  1.843570e+01    1.227747e+00
  1.845157e+01    1.233253e+00
  1.846745e+01    1.247805e+00
  1.848332e+01    1.250480e+00
  1.849920e+01    1.226491e+00
  1.851508e+01    1.216602e+00
  1.853095e+01    1.234244e+00
  1.854683e+01    1.244708e+00
  1.856270e+01    1.231402e+00
  1.857858e+01    1.239933e+00
  1.859445e+01    1.227188e+00
  1.861033e+01    1.234267e+00
  1.862620e+01    1.230482e+00
  1.864208e+01    1.223885e+00
  1.865796e+01    1.220268e+00
  1.867383e+01    1.199375e+00
  1.868971e+01    1.205893e+00
  1.870558e+01    1.201438e+00
  1.872146e+01    1.185846e+00
  1.873733e+01    1.210257e+00
  1.875321e+01    1.230443e+00
  1.876908e+01    1.216591e+00
  1.878496e+01    1.204869e+00
  1.880084e+01    1.210076e+00
  1.881671e+01    1.231181e+00
  1.883259e+01    1.219405e+00
  1.884846e+01    1.206985e+00
  1.886434e+01    1.215192e+00
  1.888021e+01    1.209818e+00
  1.889609e+01    1.193024e+00
  1.891196e+01    1.187575e+00
  1.892784e+01    1.166912e+00
  1.894372e+01    1.202033e+00
  1.895959e+01    1.177438e+00
  1.897547e+01    1.173563e+00
  1.899134e+01    1.159657e+00
  1.900722e+01    1.191795e+00
  1.902309e+01    1.177285e+00
  1.903897e+01    1.177267e+00
  1.905484e+01    1.179756e+00
  1.907072e+01    1.176109e+00
  1.908660e+01    1.187409e+00
  1.910247e+01    1.188355e+00
  1.911835e+01    1.167816e+00
  1.913422e+01    1.157866e+00
  1.915010e+01    1.168977e+00
  1.916597e+01    1.156357e+00
  1.918185e+01    1.161380e+00
  1.919773e+01    1.162492e+00
  1.921360e+01    1.171237e+00
  1.922948e+01    1.170676e+00
  1.924535e+01    1.187050e+00
  1.926123e+01    1.168935e+00
  1.927710e+01    1.186816e+00
  1.929298e+01    1.193096e+00
  1.930885e+01    1.180287e+00
  1.932473e+01    1.148204e+00
  1.934061e+01    1.153259e+00
  1.935648e+01    1.151091e+00
  1.937236e+01    1.144008e+00
  1.938823e+01    1.163908e+00
  1.940411e+01    1.147644e+00
  1.941998e+01    1.151897e+00
  1.943586e+01    1.148445e+00
  1.945173e+01    1.156807e+00
  1.946761e+01    1.137204e+00
  1.948349e+01    1.147228e+00
  1.949936e+01    1.163477e+00
  1.951524e+01    1.161883e+00
  1.953111e+01    1.130641e+00
  1.954699e+01    1.141298e+00
  1.956286e+01    1.144343e+00
  1.957874e+01    1.122373e+00
  1.959461e+01    1.138508e+00
  1.961049e+01    1.133140e+00
  1.962637e+01    1.147544e+00
  1.964224e+01    1.137032e+00
  1.965812e+01    1.132929e+00
  1.967399e+01    1.127283e+00
  1.968987e+01    1.139958e+00
  1.970574e+01    1.126385e+00
  1.972162e+01    1.130892e+00
  1.973749e+01    1.131302e+00
  1.975337e+01    1.129196e+00
  1.976925e+01    1.102652e+00
  1.978512e+01    1.107475e+00
  1.980100e+01    1.125839e+00
  1.981687e+01    1.117842e+00
  1.983275e+01    1.115773e+00
  1.984862e+01    1.118553e+00
  1.986450e+01    1.120230e+00
  1.988037e+01    1.113667e+00
  1.989625e+01    1.109297e+00
  1.991213e+01    1.114728e+00
  1.992800e+01    1.105822e+00
  1.994388e+01    1.090442e+00
  1.995975e+01    1.094240e+00
  1.997563e+01    1.101917e+00
  1.999150e+01    1.090144e+00
  2.000738e+01    1.123913e+00
  2.002325e+01    1.127465e+00
  2.003913e+01    1.094615e+00
  2.005501e+01    1.107137e+00
  2.007088e+01    1.118702e+00
  2.008676e+01    1.084288e+00
  2.010263e+01    1.092076e+00
  2.011851e+01    1.109145e+00
  2.013438e+01    1.108821e+00
  2.015026e+01    1.103101e+00
  2.016614e+01    1.097252e+00
  2.018201e+01    1.094510e+00
  2.019789e+01    1.089673e+00
  2.021376e+01    1.080585e+00
  2.022964e+01    1.069458e+00
  2.024551e+01    1.073584e+00
  2.026139e+01    1.087415e+00
  2.027726e+01    1.112383e+00
  2.029314e+01    1.090723e+00
  2.030902e+01    1.100625e+00
  2.032489e+01    1.090672e+00
  2.034077e+01    1.105789e+00
  2.035664e+01    1.122455e+00
  2.037252e+01    1.131450e+00
  2.038839e+01    1.101886e+00
  2.040427e+01    1.075760e+00
  2.042014e+01    1.056121e+00
  2.043602e+01    1.058313e+00
  2.045190e+01    1.065563e+00
  2.046777e+01    1.089957e+00
  2.048365e+01    1.087884e+00
  2.049952e+01    1.095139e+00
  2.051540e+01    1.078941e+00
  2.053127e+01    1.067417e+00
  2.054715e+01    1.058759e+00
  2.056302e+01    1.084418e+00
  2.057890e+01    1.088687e+00
  2.059478e+01    1.087491e+00
  2.061065e+01    1.067420e+00
  2.062653e+01    1.074715e+00
  2.064240e+01    1.056869e+00
  2.065828e+01    1.053921e+00
  2.067415e+01    1.074037e+00
  2.069003e+01    1.071795e+00
  2.070590e+01    1.065989e+00
  2.072178e+01    1.068181e+00
  2.073766e+01    1.077583e+00
  2.075353e+01    1.056908e+00
  2.076941e+01    1.072399e+00
  2.078528e+01    1.076463e+00
  2.080116e+01    1.068587e+00
  2.081703e+01    1.071382e+00
  2.083291e+01    1.059137e+00
  2.084878e+01    1.062354e+00
  2.086466e+01    1.058619e+00
  2.088054e+01    1.090148e+00
  2.089641e+01    1.057778e+00
  2.091229e+01    1.063466e+00
  2.092816e+01    1.083330e+00
  2.094404e+01    1.093594e+00
  2.095991e+01    1.063615e+00
  2.097579e+01    1.069512e+00
  2.099166e+01    1.079508e+00
  2.100754e+01    1.091669e+00
  2.102342e+01    1.063545e+00
  2.103929e+01    1.073776e+00
  2.105517e+01    1.067755e+00
  2.107104e+01    1.069603e+00
  2.108692e+01    1.069114e+00
  2.110279e+01    1.085540e+00
  2.111867e+01    1.092949e+00
  2.113455e+01    1.083706e+00
  2.115042e+01    1.065840e+00
  2.116630e+01    1.092083e+00
  2.118217e+01    1.085425e+00
  2.119805e+01    1.079372e+00
  2.121392e+01    1.120012e+00
  2.122980e+01    1.109005e+00
  2.124567e+01    1.112758e+00
  2.126155e+01    1.112301e+00
  2.127743e+01    1.095793e+00
  2.129330e+01    1.091752e+00
  2.130918e+01    1.088714e+00
  2.132505e+01    1.110363e+00
  2.134093e+01    1.136735e+00
  2.135680e+01    1.142870e+00
  2.137268e+01    1.144617e+00
  2.138855e+01    1.170870e+00
  2.140443e+01    1.165882e+00
  2.142031e+01    1.157427e+00
  2.143618e+01    1.184244e+00
  2.145206e+01    1.210554e+00
  2.146793e+01    1.239498e+00
  2.148381e+01    1.270046e+00
  2.149968e+01    1.277700e+00
  2.151556e+01    1.268898e+00
  2.153143e+01    1.320262e+00
  2.154731e+01    1.361587e+00
  2.156319e+01    1.401143e+00
  2.157906e+01    1.473032e+00
  2.159494e+01    1.503813e+00
  2.161081e+01    1.577718e+00
  2.162669e+01    1.666413e+00
  2.164256e+01    1.748481e+00
  2.165844e+01    1.876865e+00
  2.167431e+01    2.023225e+00
  2.169019e+01    2.200742e+00
  2.170607e+01    2.460448e+00
  2.172194e+01    2.742272e+00
  2.173782e+01    3.086951e+00
  2.175369e+01    3.519647e+00
  2.176957e+01    4.055604e+00
  2.178544e+01    4.641866e+00
  2.180132e+01    5.339590e+00
  2.181719e+01    6.044009e+00
  2.183307e+01    6.775155e+00
  2.184895e+01    7.507832e+00
  2.186482e+01    8.293485e+00
  2.188070e+01    8.978148e+00
  2.189657e+01    9.519550e+00
  2.191245e+01    9.843244e+00
  2.192832e+01    9.712453e+00
  2.194420e+01    9.091317e+00
  2.196007e+01    8.112541e+00
  2.197595e+01    7.055311e+00
  2.199183e+01    6.034739e+00
  2.200770e+01    5.063722e+00
  2.202358e+01    4.294209e+00
  2.203945e+01    3.722836e+00
  2.205533e+01    3.274282e+00
  2.207120e+01    2.825417e+00
  2.208708e+01    2.526755e+00
  2.210296e+01    2.261719e+00
  2.211883e+01    2.108185e+00
  2.213471e+01    1.948163e+00
  2.215058e+01    1.777335e+00
  2.216646e+01    1.671965e+00
  2.218233e+01    1.597027e+00
  2.219821e+01    1.526641e+00
  2.221408e+01    1.448792e+00
  2.222996e+01    1.396877e+00
  2.224584e+01    1.353920e+00
  2.226171e+01    1.293048e+00
  2.227759e+01    1.251612e+00
  2.229346e+01    1.234504e+00
  2.230934e+01    1.205622e+00
  2.232521e+01    1.157336e+00
  2.234109e+01    1.138635e+00
  2.235696e+01    1.116575e+00
  2.237284e+01    1.107036e+00
  2.238872e+01    1.078344e+00
  2.240459e+01    1.090381e+00
  2.242047e+01    1.077923e+00
  2.243634e+01    1.063604e+00
  2.245222e+01    1.038777e+00
  2.246809e+01    1.065831e+00
  2.248397e+01    1.054690e+00
  2.249984e+01    1.021307e+00
  2.251572e+01    1.014208e+00
  2.253160e+01    9.934695e-01
  2.254747e+01    1.001445e+00
  2.256335e+01    9.866449e-01
  2.257922e+01    9.922910e-01
  2.259510e+01    9.946669e-01
  2.261097e+01    9.882957e-01
  2.262685e+01    9.510697e-01
  2.264272e+01    9.605176e-01
  2.265860e+01    9.581567e-01
  2.267448e+01    9.644536e-01
  2.269035e+01    9.533509e-01
  2.270623e+01    9.671828e-01
  2.272210e+01    9.547195e-01
  2.273798e+01    9.483298e-01
  2.275385e+01    9.353466e-01
  2.276973e+01    9.272689e-01
  2.278560e+01    9.344097e-01
  2.280148e+01    9.543815e-01
  2.281736e+01    9.452649e-01
  2.283323e+01    9.328881e-01
  2.284911e+01    9.228860e-01
  2.286498e+01    9.192162e-01
  2.288086e+01    9.268644e-01
  2.289673e+01    9.179798e-01
  2.291261e+01    9.085408e-01
  2.292848e+01    9.051027e-01
  2.294436e+01    9.029673e-01
  2.296024e+01    9.130242e-01
  2.297611e+01    8.974136e-01
  2.299199e+01    8.815122e-01
  2.300786e+01    8.979556e-01
  2.302374e+01    8.901433e-01
  2.303961e+01    8.772299e-01
  2.305549e+01    8.787588e-01
  2.307137e+01    8.876699e-01
  2.308724e+01    8.873078e-01
  2.310312e+01    8.839241e-01
  2.311899e+01    8.896336e-01
  2.313487e+01    8.784185e-01
  2.315074e+01    8.872110e-01
  2.316662e+01    8.742236e-01
  2.318249e+01    8.750097e-01
  2.319837e+01    8.603397e-01
  2.321425e+01    8.622762e-01
  2.323012e+01    8.784755e-01
  2.324600e+01    8.722731e-01
  2.326187e+01    8.568854e-01
  2.327775e+01    8.737406e-01
  2.329362e+01    8.723684e-01
  2.330950e+01    8.520833e-01
  2.332537e+01    8.470768e-01
  2.334125e+01    8.655891e-01
  2.335713e+01    8.432166e-01
  2.337300e+01    8.387710e-01
  2.338888e+01    8.400022e-01
  2.340475e+01    8.415384e-01
  2.342063e+01    8.449882e-01
  2.343650e+01    8.557045e-01
  2.345238e+01    8.476763e-01
  2.346825e+01    8.463271e-01
  2.348413e+01    8.413095e-01
  2.350001e+01    8.331702e-01
  2.351588e+01    8.532161e-01
  2.353176e+01    8.451906e-01
  2.354763e+01    8.258601e-01
  2.356351e+01    8.432597e-01
  2.357938e+01    8.495080e-01
  2.359526e+01    8.302849e-01
  2.361113e+01    8.201731e-01
  2.362701e+01    8.313407e-01
  2.364289e+01    8.463078e-01
  2.365876e+01    8.120047e-01
  2.367464e+01    8.082632e-01
  2.369051e+01    8.163425e-01
  2.370639e+01    8.162981e-01
  2.372226e+01    8.069887e-01
  2.373814e+01    8.072938e-01
  2.375401e+01    8.078894e-01
  2.376989e+01    8.071507e-01
  2.378577e+01    8.115217e-01
  2.380164e+01    8.075610e-01
  2.381752e+01    7.960109e-01
  2.383339e+01    7.987829e-01
  2.384927e+01    8.011628e-01
  2.386514e+01    7.919964e-01
  2.388102e+01    7.746380e-01
  2.389689e+01    8.002858e-01
  2.391277e+01    8.083182e-01
  2.392865e+01    8.004050e-01
  2.394452e+01    7.909232e-01
  2.396040e+01    7.914355e-01
  2.397627e+01    7.996150e-01
  2.399215e+01    7.921796e-01
  2.400802e+01    7.818540e-01
  2.402390e+01    7.818789e-01
  2.403978e+01    7.875108e-01
  2.405565e+01    7.717398e-01
  2.407153e+01    7.790717e-01
  2.408740e+01    7.646998e-01
  2.410328e+01    7.632696e-01
  2.411915e+01    7.620990e-01
  2.413503e+01    7.774073e-01
  2.415090e+01    7.969325e-01
  2.416678e+01    7.820569e-01
  2.418266e+01    7.816640e-01
  2.419853e+01    7.834955e-01
  2.421441e+01    7.651199e-01
  2.423028e+01    7.822049e-01
  2.424616e+01    7.900914e-01
  2.426203e+01    7.728525e-01
  2.427791e+01    7.859037e-01
  2.429378e+01    8.049020e-01
  2.430966e+01    7.781610e-01
  2.432554e+01    7.797071e-01
  2.434141e+01    7.817284e-01
  2.435729e+01    7.833537e-01
  2.437316e+01    7.854346e-01
  2.438904e+01    7.792366e-01
  2.440491e+01    7.705822e-01
  2.442079e+01    7.675489e-01
  2.443666e+01    7.660896e-01
  2.445254e+01    7.843219e-01
  2.446842e+01    7.866886e-01
  2.448429e+01    7.804610e-01
  2.450017e+01    7.695061e-01
  2.451604e+01    7.750842e-01
  2.453192e+01    7.951572e-01
  2.454779e+01    7.818586e-01
  2.456367e+01    7.615940e-01
  2.457954e+01    7.716424e-01
  2.459542e+01    7.785118e-01
  2.461130e+01    7.928833e-01
  2.462717e+01    7.813340e-01
  2.464305e+01    7.795622e-01
  2.465892e+01    7.854720e-01
  2.467480e+01    7.946455e-01
  2.469067e+01    7.847904e-01
  2.470655e+01    7.747161e-01
  2.472242e+01    7.863194e-01
  2.473830e+01    7.810196e-01
  2.475418e+01    7.654684e-01
  2.477005e+01    7.772530e-01
  2.478593e+01    7.800487e-01
  2.480180e+01    7.890974e-01
  2.481768e+01    7.774628e-01
  2.483355e+01    7.756541e-01
  2.484943e+01    7.795807e-01
  2.486530e+01    7.917596e-01
  2.488118e+01    7.964413e-01
  2.489706e+01    7.950903e-01
  2.491293e+01    8.061959e-01
  2.492881e+01    7.791122e-01
  2.494468e+01    7.755616e-01
  2.496056e+01    7.840262e-01
  2.497643e+01    7.897239e-01
  2.499231e+01    8.021487e-01
  2.500819e+01    7.872979e-01
  2.502406e+01    7.995743e-01
  2.503994e+01    8.107105e-01
  2.505581e+01    8.261715e-01
  2.507169e+01    8.085224e-01
  2.508756e+01    8.023123e-01
  2.510344e+01    8.255051e-01
  2.511931e+01    8.193620e-01
  2.513519e+01    8.111616e-01
  2.515107e+01    8.076830e-01
  2.516694e+01    8.095258e-01
  2.518282e+01    8.043320e-01
  2.519869e+01    8.047077e-01
  2.521457e+01    8.258292e-01
  2.523044e+01    8.342192e-01
  2.524632e+01    8.502781e-01
  2.526219e+01    8.436874e-01
  2.527807e+01    8.483063e-01
  2.529395e+01    8.493838e-01
  2.530982e+01    8.537579e-01
  2.532570e+01    8.576012e-01
  2.534157e+01    8.602632e-01
  2.535745e+01    8.600159e-01
  2.537332e+01    8.854022e-01
  2.538920e+01    8.922381e-01
  2.540507e+01    9.161861e-01
  2.542095e+01    9.215013e-01
  2.543683e+01    9.126313e-01
  2.545270e+01    9.268837e-01
  2.546858e+01    9.283184e-01
  2.548445e+01    9.539153e-01
  2.550033e+01    9.721794e-01
  2.551620e+01    9.827307e-01
  2.553208e+01    9.925327e-01
  2.554795e+01    9.900777e-01
  2.556383e+01    1.030338e+00
  2.557971e+01    1.064650e+00
  2.559558e+01    1.098805e+00
  2.561146e+01    1.100080e+00
  2.562733e+01    1.123998e+00
  2.564321e+01    1.166639e+00
  2.565908e+01    1.232450e+00
  2.567496e+01    1.271986e+00
  2.569083e+01    1.343880e+00
  2.570671e+01    1.433484e+00
  2.572259e+01    1.543656e+00
  2.573846e+01    1.667914e+00
  2.575434e+01    1.802105e+00
  2.577021e+01    1.992230e+00
  2.578609e+01    2.211360e+00
  2.580196e+01    2.465546e+00
  2.581784e+01    2.801506e+00
  2.583371e+01    3.165744e+00
  2.584959e+01    3.648704e+00
  2.586547e+01    4.200915e+00
  2.588134e+01    4.760201e+00
  2.589722e+01    5.416154e+00
  2.591309e+01    6.061112e+00
  2.592897e+01    6.828250e+00
  2.594484e+01    7.401126e+00
  2.596072e+01    7.819410e+00
  2.597660e+01    8.041032e+00
  2.599247e+01    7.979651e+00
  2.600835e+01    7.584303e+00
  2.602422e+01    6.930813e+00
  2.604010e+01    6.095594e+00
  2.605597e+01    5.306361e+00
  2.607185e+01    4.511840e+00
  2.608772e+01    3.872100e+00
  2.610360e+01    3.314524e+00
  2.611948e+01    2.896111e+00
  2.613535e+01    2.558515e+00
  2.615123e+01    2.276102e+00
  2.616710e+01    2.037363e+00
  2.618298e+01    1.867777e+00
  2.619885e+01    1.715865e+00
  2.621473e+01    1.574335e+00
  2.623060e+01    1.513582e+00
  2.624648e+01    1.433954e+00
  2.626236e+01    1.321015e+00
  2.627823e+01    1.230675e+00
  2.629411e+01    1.215396e+00
  2.630998e+01    1.163765e+00
  2.632586e+01    1.126195e+00
  2.634173e+01    1.112243e+00
  2.635761e+01    1.085849e+00
  2.637348e+01    1.061801e+00
  2.638936e+01    1.018104e+00
  2.640524e+01    9.988182e-01
  2.642111e+01    9.916861e-01
  2.643699e+01    9.656522e-01
  2.645286e+01    9.712411e-01
  2.646874e+01    9.506760e-01
  2.648461e+01    9.443372e-01
  2.650049e+01    9.304323e-01
  2.651636e+01    9.413853e-01
  2.653224e+01    9.485497e-01
  2.654812e+01    9.456849e-01
  2.656399e+01    9.254320e-01
  2.657987e+01    8.950163e-01
  2.659574e+01    8.955930e-01
  2.661162e+01    9.144906e-01
  2.662749e+01    9.233439e-01
  2.664337e+01    9.080851e-01
  2.665924e+01    8.711204e-01
  2.667512e+01    8.803629e-01
  2.669100e+01    8.714900e-01
  2.670687e+01    8.879971e-01
  2.672275e+01    8.858803e-01
  2.673862e+01    8.925052e-01
  2.675450e+01    8.817652e-01
  2.677037e+01    8.808478e-01
  2.678625e+01    9.105192e-01
  2.680212e+01    8.897887e-01
  2.681800e+01    8.750367e-01
  2.683388e+01    8.895298e-01
  2.684975e+01    9.011804e-01
  2.686563e+01    8.990612e-01
  2.688150e+01    9.139788e-01
  2.689738e+01    9.119920e-01
  2.691325e+01    9.208248e-01
  2.692913e+01    9.437549e-01
  2.694501e+01    9.398662e-01
  2.696088e+01    9.510769e-01
  2.697676e+01    9.637958e-01
  2.699263e+01    9.947630e-01
  2.700851e+01    1.008868e+00
  2.702438e+01    1.029200e+00
  2.704026e+01    1.085273e+00
  2.705613e+01    1.133728e+00
  2.707201e+01    1.199328e+00
  2.708789e+01    1.260169e+00
  2.710376e+01    1.341673e+00
  2.711964e+01    1.428031e+00
  2.713551e+01    1.582988e+00
  2.715139e+01    1.704965e+00
  2.716726e+01    1.880981e+00
  2.718314e+01    2.022128e+00
  2.719901e+01    2.165117e+00
  2.721489e+01    2.282699e+00
  2.723077e+01    2.352786e+00
  2.724664e+01    2.350500e+00
  2.726252e+01    2.291032e+00
  2.727839e+01    2.166178e+00
  2.729427e+01    2.001393e+00
  2.731014e+01    1.827090e+00
  2.732602e+01    1.666752e+00
  2.734189e+01    1.505312e+00
  2.735777e+01    1.386875e+00
  2.737365e+01    1.298896e+00
  2.738952e+01    1.212558e+00
  2.740540e+01    1.154600e+00
  2.742127e+01    1.096786e+00
  2.743715e+01    1.061489e+00
  2.745302e+01    1.016382e+00
  2.746890e+01    9.802883e-01
  2.748477e+01    9.791384e-01
  2.750065e+01    9.790605e-01
  2.751653e+01    9.590720e-01
  2.753240e+01    9.267072e-01
  2.754828e+01    9.027915e-01
  2.756415e+01    8.982810e-01
  2.758003e+01    8.762973e-01
  2.759590e+01    8.700228e-01
  2.761178e+01    8.766083e-01
  2.762765e+01    8.608597e-01
  2.764353e+01    8.691040e-01
  2.765941e+01    8.439663e-01
  2.767528e+01    8.367823e-01
  2.769116e+01    7.974101e-01
  2.770703e+01    8.035611e-01
  2.772291e+01    8.215333e-01
  2.773878e+01    8.239108e-01
  2.775466e+01    8.249220e-01
  2.777054e+01    8.185303e-01
  2.778641e+01    8.006898e-01
  2.780229e+01    7.983212e-01
  2.781816e+01    8.089419e-01
  2.783404e+01    7.994740e-01
  2.784991e+01    7.817515e-01
  2.786579e+01    7.974029e-01
  2.788166e+01    8.053199e-01
  2.789754e+01    8.024516e-01
  2.791342e+01    8.198631e-01
  2.792929e+01    8.104546e-01
  2.794517e+01    7.855018e-01
  2.796104e+01    7.981039e-01
  2.797692e+01    7.767074e-01
  2.799279e+01    7.949352e-01
  2.800867e+01    7.829690e-01
  2.802454e+01    7.769541e-01
  2.804042e+01    7.729524e-01
  2.805630e+01    7.739662e-01
  2.807217e+01    7.702907e-01
  2.808805e+01    7.711713e-01
  2.810392e+01    7.881004e-01
  2.811980e+01    7.696643e-01
  2.813567e+01    7.606829e-01
  2.815155e+01    7.675087e-01
  2.816742e+01    7.569787e-01
  2.818330e+01    7.705355e-01
  2.819918e+01    7.745426e-01
  2.821505e+01    7.614251e-01
  2.823093e+01    7.730466e-01
  2.824680e+01    7.748192e-01
  2.826268e+01    7.652107e-01
  2.827855e+01    7.764292e-01
  2.829443e+01    7.774079e-01
  2.831030e+01    7.491008e-01
  2.832618e+01    7.458006e-01
  2.834206e+01    7.458077e-01
  2.835793e+01    7.589247e-01
  2.837381e+01    7.722152e-01
  2.838968e+01    7.691094e-01
  2.840556e+01    7.333092e-01
  2.842143e+01    7.566009e-01
  2.843731e+01    7.477855e-01
  2.845318e+01    7.625487e-01
  2.846906e+01    7.774221e-01
  2.848494e+01    7.853268e-01
  2.850081e+01    7.761818e-01
  2.851669e+01    7.876880e-01
  2.853256e+01    7.525899e-01
  2.854844e+01    7.693033e-01
  2.856431e+01    7.594878e-01
  2.858019e+01    7.401624e-01
  2.859606e+01    7.371846e-01
  2.861194e+01    7.514314e-01
  2.862782e+01    7.574087e-01
  2.864369e+01    7.436226e-01
  2.865957e+01    7.586480e-01
  2.867544e+01    7.479008e-01
  2.869132e+01    7.572757e-01
  2.870719e+01    7.524038e-01
  2.872307e+01    7.572526e-01
  2.873895e+01    7.735048e-01
  2.875482e+01    7.528265e-01
  2.877070e+01    7.336568e-01
  2.878657e+01    7.498580e-01
  2.880245e+01    7.538849e-01
  2.881832e+01    7.436157e-01
  2.883420e+01    7.665995e-01
  2.885007e+01    7.592706e-01
  2.886595e+01    7.512407e-01
  2.888183e+01    7.304114e-01
  2.889770e+01    7.323639e-01
  2.891358e+01    7.325805e-01
  2.892945e+01    7.460820e-01
  2.894533e+01    7.352687e-01
  2.896120e+01    7.363304e-01
  2.897708e+01    7.339315e-01
  2.899295e+01    7.250088e-01
  2.900883e+01    7.343820e-01
  2.902471e+01    7.369738e-01
  2.904058e+01    7.429384e-01
  2.905646e+01    7.409851e-01
  2.907233e+01    7.432384e-01
  2.908821e+01    7.442998e-01
  2.910408e+01    7.441873e-01
  2.911996e+01    7.256777e-01
  2.913583e+01    7.199532e-01
  2.915171e+01    7.338700e-01
  2.916759e+01    7.368801e-01
  2.918346e+01    7.295806e-01
  2.919934e+01    7.401518e-01
  2.921521e+01    7.407140e-01
  2.923109e+01    7.235292e-01
  2.924696e+01    7.405334e-01
  2.926284e+01    7.311044e-01
  2.927871e+01    7.165194e-01
  2.929459e+01    7.192243e-01
  2.931047e+01    7.115448e-01
  2.932634e+01    7.132947e-01
  2.934222e+01    7.103782e-01
  2.935809e+01    7.217336e-01
  2.937397e+01    7.327519e-01
  2.938984e+01    7.270228e-01
  2.940572e+01    7.218993e-01
  2.942159e+01    7.190836e-01
  2.943747e+01    7.479270e-01
  2.945335e+01    7.367340e-01
  2.946922e+01    7.368208e-01
  2.948510e+01    7.171423e-01
  2.950097e+01    7.100073e-01
  2.951685e+01    7.238632e-01
  2.953272e+01    7.231427e-01
  2.954860e+01    7.090350e-01
  2.956447e+01    7.083833e-01
  2.958035e+01    7.174068e-01
  2.959623e+01    7.247887e-01
  2.961210e+01    7.170035e-01
  2.962798e+01    7.121009e-01
  2.964385e+01    7.385058e-01
  2.965973e+01    7.095129e-01
  2.967560e+01    7.105065e-01
  2.969148e+01    7.158253e-01
  2.970736e+01    7.305999e-01
  2.972323e+01    7.080036e-01
  2.973911e+01    7.280900e-01
  2.975498e+01    7.131000e-01
  2.977086e+01    7.044234e-01
  2.978673e+01    7.029665e-01
  2.980261e+01    7.356077e-01
  2.981848e+01    7.519596e-01
  2.983436e+01    7.199226e-01
  2.985024e+01    7.177398e-01
  2.986611e+01    7.118002e-01
  2.988199e+01    7.082677e-01
  2.989786e+01    7.197680e-01
  2.991374e+01    7.082304e-01
  2.992961e+01    7.144749e-01
  2.994549e+01    7.313591e-01
  2.996136e+01    7.439721e-01
  2.997724e+01    7.408916e-01
  2.999312e+01    7.160403e-01
  3.000899e+01    7.292593e-01
  3.002487e+01    7.322779e-01
  3.004074e+01    7.266614e-01
  3.005662e+01    7.275825e-01
  3.007249e+01    7.364111e-01
  3.008837e+01    7.281045e-01
  3.010424e+01    7.106647e-01
  3.012012e+01    7.197576e-01
  3.013600e+01    7.208107e-01
  3.015187e+01    7.042972e-01
  3.016775e+01    6.941649e-01
  3.018362e+01    6.979656e-01
  3.019950e+01    7.064658e-01
  3.021537e+01    7.114499e-01
  3.023125e+01    7.079346e-01
  3.024712e+01    7.151783e-01
  3.026300e+01    7.129874e-01
  3.027888e+01    7.129182e-01
  3.029475e+01    6.958799e-01
  3.031063e+01    7.100676e-01
  3.032650e+01    6.998476e-01
  3.034238e+01    7.027250e-01
  3.035825e+01    7.046123e-01
  3.037413e+01    6.940511e-01
  3.039000e+01    7.193717e-01
  3.040588e+01    7.149413e-01
  3.042176e+01    7.074732e-01
  3.043763e+01    7.139791e-01
  3.045351e+01    7.295076e-01
  3.046938e+01    7.226793e-01
  3.048526e+01    6.873468e-01
  3.050113e+01    6.939745e-01
  3.051701e+01    7.196481e-01
  3.053288e+01    7.064774e-01
  3.054876e+01    7.015834e-01
  3.056464e+01    7.092811e-01
  3.058051e+01    7.075952e-01
  3.059639e+01    7.099475e-01
  3.061226e+01    7.200860e-01
  3.062814e+01    6.998282e-01
  3.064401e+01    6.965947e-01
  3.065989e+01    6.760371e-01
  3.067577e+01    6.834339e-01
  3.069164e+01    7.087005e-01
  3.070752e+01    7.295808e-01
  3.072339e+01    7.236052e-01
  3.073927e+01    7.151026e-01
  3.075514e+01    6.980411e-01
  3.077102e+01    6.970313e-01
  3.078689e+01    6.913838e-01
  3.080277e+01    7.074617e-01
  3.081865e+01    7.193153e-01
  3.083452e+01    7.255060e-01
  3.085040e+01    7.182251e-01
  3.086627e+01    6.970401e-01
  3.088215e+01    7.007076e-01
  3.089802e+01    7.095498e-01
  3.091390e+01    7.163049e-01
  3.092977e+01    7.234666e-01
  3.094565e+01    7.041246e-01
  3.096153e+01    7.109757e-01
  3.097740e+01    7.112225e-01
  3.099328e+01    7.112197e-01
  3.100915e+01    6.997634e-01
  3.102503e+01    6.837735e-01
  3.104090e+01    7.175961e-01
  3.105678e+01    7.169290e-01
  3.107265e+01    7.036096e-01
  3.108853e+01    7.251985e-01
  3.110441e+01    7.263094e-01
  3.112028e+01    7.183942e-01
  3.113616e+01    7.206493e-01
  3.115203e+01    7.243898e-01
  3.116791e+01    7.333151e-01
  3.118378e+01    7.198787e-01
  3.119966e+01    7.157810e-01
  3.121553e+01    7.139917e-01
  3.123141e+01    7.192315e-01
  3.124729e+01    7.166559e-01
  3.126316e+01    7.173120e-01
  3.127904e+01    7.300816e-01
  3.129491e+01    7.429346e-01
  3.131079e+01    7.162204e-01
  3.132666e+01    7.127978e-01
  3.134254e+01    7.013303e-01
  3.135841e+01    7.245725e-01
  3.137429e+01    7.364871e-01
  3.139017e+01    7.297088e-01
  3.140604e+01    7.401019e-01
  3.142192e+01    7.455037e-01
  3.143779e+01    7.449380e-01
  3.145367e+01    7.544553e-01
  3.146954e+01    7.510976e-01
  3.148542e+01    7.628087e-01
  3.150129e+01    7.566759e-01
  3.151717e+01    7.660416e-01
  3.153305e+01    7.708123e-01
  3.154892e+01    7.699896e-01
  3.156480e+01    7.870746e-01
  3.158067e+01    7.899916e-01
  3.159655e+01    7.936788e-01
  3.161242e+01    7.994648e-01
  3.162830e+01    8.470674e-01
  3.164418e+01    8.385842e-01
  3.166005e+01    8.462741e-01
  3.167593e+01    8.642847e-01
  3.169180e+01    9.342878e-01
  3.170768e+01    9.511291e-01
  3.172355e+01    9.723855e-01
  3.173943e+01    1.020749e+00
  3.175530e+01    1.086945e+00
  3.177118e+01    1.113622e+00
  3.178706e+01    1.232570e+00
  3.180293e+01    1.344318e+00
  3.181881e+01    1.443257e+00
  3.183468e+01    1.587778e+00
  3.185056e+01    1.717312e+00
  3.186643e+01    1.875125e+00
  3.188231e+01    2.005065e+00
  3.189818e+01    2.172248e+00
  3.191406e+01    2.295062e+00
  3.192994e+01    2.333163e+00
  3.194581e+01    2.306714e+00
  3.196169e+01    2.248866e+00
  3.197756e+01    2.097072e+00
  3.199344e+01    1.911362e+00
  3.200931e+01    1.742295e+00
  3.202519e+01    1.580534e+00
  3.204106e+01    1.426268e+00
  3.205694e+01    1.322344e+00
  3.207282e+01    1.222202e+00
  3.208869e+01    1.123719e+00
  3.210457e+01    1.027700e+00
  3.212044e+01    9.871384e-01
  3.213632e+01    9.530994e-01
  3.215219e+01    9.228358e-01
  3.216807e+01    9.037319e-01
  3.218394e+01    8.673001e-01
  3.219982e+01    8.476125e-01
  3.221570e+01    8.056808e-01
  3.223157e+01    7.908837e-01
  3.224745e+01    7.735020e-01
  3.226332e+01    7.888447e-01
  3.227920e+01    7.783080e-01
  3.229507e+01    7.758550e-01
  3.231095e+01    7.778462e-01
  3.232682e+01    7.617266e-01
  3.234270e+01    7.729368e-01
  3.235858e+01    7.653190e-01
  3.237445e+01    7.448556e-01
  3.239033e+01    7.449557e-01
  3.240620e+01    7.341464e-01
  3.242208e+01    7.251906e-01
  3.243795e+01    7.350321e-01
  3.245383e+01    7.322878e-01
  3.246970e+01    7.353893e-01
  3.248558e+01    7.221747e-01
  3.250146e+01    7.262995e-01
  3.251733e+01    7.422125e-01
  3.253321e+01    7.194841e-01
  3.254908e+01    7.199745e-01
