# == pyFAI calibration ==
# Distance Sample to Detector: 0.3999999939076516 m
# PONI: 9.750e-02, 1.135e-01 m
# Rotations: -0.000175 0.000000 -0.000000 rad
# 
# == Fit2d calibration ==
# Distance Sample-beamCenter: 400.000 mm
# Center: x=1514.000, y=1300.000 pix
# Tilt: 0.010 deg  TiltPlanRot: 0.010 deg
# 
# Detector Detector	 Spline= None	 PixelSize= 7.500e-05, 7.500e-05 m
#    Detector has a mask: False 
#    Detector has a dark current: False 
#    detector has a flat field: False 
# 
# Wavelength: 6.888e-11 m
# Mask applied: user provided
# Dark current applied: False
# Flat field applied: False
# Polarization factor: 0.99
# Normalization factor: 1.0
# --> /home/myspot/data/2024_07_Rosario/Ru-CGO-ex/2024-07-27_002_Ru-CGO-ex_Activtation_ramp_000002_data_000183.dat
#       q_nm^-1             I 
  2.003187e-02    1.216594e-01
  3.590745e-02    2.479782e-01
  5.178302e-02    3.822055e-02
  6.765859e-02    3.249338e-02
  8.353417e-02    1.471605e-01
  9.940974e-02    1.142225e-01
  1.152853e-01    1.577930e-02
  1.311609e-01    0.000000e+00
  1.470365e-01    1.268739e-02
  1.629120e-01    2.331704e-02
  1.787876e-01    4.029317e-02
  1.946632e-01    6.823954e-02
  2.105388e-01    5.212255e-02
  2.264143e-01    2.555447e-02
  2.422899e-01    1.870546e-02
  2.581655e-01    6.197496e-02
  2.740411e-01    6.265728e-02
  2.899166e-01    1.787934e-02
  3.057922e-01    1.651978e-03
  3.216678e-01    1.626287e-02
  3.375433e-01    4.079099e-02
  3.534189e-01    5.843255e-02
  3.692945e-01    4.668052e-02
  3.851701e-01    3.570469e-02
  4.010456e-01    3.263102e-02
  4.169212e-01    1.314402e-02
  4.327968e-01    1.691999e-02
  4.486724e-01    1.386269e-02
  4.645479e-01    3.352927e-02
  4.804235e-01    4.693964e-02
  4.962991e-01    3.007361e-02
  5.121747e-01    2.114680e-02
  5.280502e-01    3.080061e-02
  5.439258e-01    4.839112e-02
  5.598014e-01    5.004002e-02
  5.756770e-01    8.077640e-02
  5.915525e-01    2.911654e-02
  6.074281e-01    1.947673e-02
  6.233037e-01    6.225111e-02
  6.391793e-01    6.521231e-02
  6.550548e-01    5.045292e-02
  6.709304e-01    3.843460e-02
  6.868060e-01    3.718254e-02
  7.026815e-01    4.620880e-02
  7.185571e-01    2.803213e-02
  7.344327e-01    1.026446e-02
  7.503083e-01    3.374787e-02
  7.661838e-01    6.692355e-02
  7.820594e-01    5.942349e-02
  7.979350e-01    1.214454e-01
  8.138106e-01    1.794391e-01
  8.296861e-01    2.358636e-01
  8.455617e-01    3.113285e-01
  8.614373e-01    3.938178e-01
  8.773129e-01    4.453101e-01
  8.931884e-01    4.668578e-01
  9.090640e-01    5.655230e-01
  9.249396e-01    5.958283e-01
  9.408152e-01    6.332899e-01
  9.566907e-01    7.599782e-01
  9.725663e-01    8.958361e-01
  9.884419e-01    9.972304e-01
  1.004317e+00    1.000160e+00
  1.020193e+00    1.051960e+00
  1.036069e+00    1.122342e+00
  1.051944e+00    1.215624e+00
  1.067820e+00    1.306161e+00
  1.083695e+00    1.357431e+00
  1.099571e+00    1.402921e+00
  1.115446e+00    1.524897e+00
  1.131322e+00    1.501956e+00
  1.147198e+00    1.513560e+00
  1.163073e+00    1.557020e+00
  1.178949e+00    1.518347e+00
  1.194824e+00    1.548707e+00
  1.210700e+00    1.680518e+00
  1.226575e+00    1.930407e+00
  1.242451e+00    2.099343e+00
  1.258327e+00    2.181888e+00
  1.274202e+00    2.262394e+00
  1.290078e+00    2.294113e+00
  1.305953e+00    2.377880e+00
  1.321829e+00    2.478472e+00
  1.337705e+00    2.459183e+00
  1.353580e+00    2.364104e+00
  1.369456e+00    2.460379e+00
  1.385331e+00    2.596982e+00
  1.401207e+00    2.610495e+00
  1.417082e+00    2.644522e+00
  1.432958e+00    2.569163e+00
  1.448834e+00    2.596648e+00
  1.464709e+00    2.638668e+00
  1.480585e+00    2.774055e+00
  1.496460e+00    2.889674e+00
  1.512336e+00    2.837511e+00
  1.528211e+00    2.773999e+00
  1.544087e+00    2.710953e+00
  1.559963e+00    2.816513e+00
  1.575838e+00    2.802010e+00
  1.591714e+00    2.807256e+00
  1.607589e+00    2.894650e+00
  1.623465e+00    2.825461e+00
  1.639340e+00    2.762903e+00
  1.655216e+00    2.770230e+00
  1.671092e+00    2.769473e+00
  1.686967e+00    2.768592e+00
  1.702843e+00    2.668281e+00
  1.718718e+00    2.659510e+00
  1.734594e+00    2.657945e+00
  1.750469e+00    2.682242e+00
  1.766345e+00    2.779369e+00
  1.782221e+00    2.773051e+00
  1.798096e+00    2.742226e+00
  1.813972e+00    2.763641e+00
  1.829847e+00    2.839873e+00
  1.845723e+00    2.810341e+00
  1.861598e+00    2.807377e+00
  1.877474e+00    2.704865e+00
  1.893350e+00    2.700490e+00
  1.909225e+00    2.786911e+00
  1.925101e+00    2.729522e+00
  1.940976e+00    2.630265e+00
  1.956852e+00    2.710185e+00
  1.972727e+00    2.685802e+00
  1.988603e+00    2.766197e+00
  2.004479e+00    2.735747e+00
  2.020354e+00    2.704242e+00
  2.036230e+00    2.647805e+00
  2.052105e+00    2.534729e+00
  2.067981e+00    2.533316e+00
  2.083856e+00    2.600960e+00
  2.099732e+00    2.663238e+00
  2.115608e+00    2.599889e+00
  2.131483e+00    2.575804e+00
  2.147359e+00    2.653693e+00
  2.163234e+00    2.623974e+00
  2.179110e+00    2.635488e+00
  2.194985e+00    2.678535e+00
  2.210861e+00    2.812415e+00
  2.226737e+00    2.835596e+00
  2.242612e+00    2.727281e+00
  2.258488e+00    2.878901e+00
  2.274363e+00    2.800879e+00
  2.290239e+00    2.703583e+00
  2.306115e+00    2.702772e+00
  2.321990e+00    2.771179e+00
  2.337866e+00    2.707483e+00
  2.353741e+00    2.739795e+00
  2.369617e+00    2.831351e+00
  2.385492e+00    2.799373e+00
  2.401368e+00    2.732941e+00
  2.417244e+00    2.790715e+00
  2.433119e+00    2.705369e+00
  2.448995e+00    2.763881e+00
  2.464870e+00    2.819074e+00
  2.480746e+00    2.746136e+00
  2.496621e+00    2.704673e+00
  2.512497e+00    2.882412e+00
  2.528373e+00    2.817995e+00
  2.544248e+00    2.735283e+00
  2.560124e+00    2.790161e+00
  2.575999e+00    2.863753e+00
  2.591875e+00    2.905556e+00
  2.607750e+00    2.821826e+00
  2.623626e+00    2.835669e+00
  2.639502e+00    2.792322e+00
  2.655377e+00    2.844981e+00
  2.671253e+00    2.880934e+00
  2.687128e+00    2.967097e+00
  2.703004e+00    2.823079e+00
  2.718879e+00    2.788016e+00
  2.734755e+00    2.765310e+00
  2.750631e+00    2.795933e+00
  2.766506e+00    2.743528e+00
  2.782382e+00    2.700480e+00
  2.798257e+00    2.728428e+00
  2.814133e+00    2.801491e+00
  2.830008e+00    2.875999e+00
  2.845884e+00    2.927915e+00
  2.861760e+00    2.897659e+00
  2.877635e+00    2.801623e+00
  2.893511e+00    2.719269e+00
  2.909386e+00    2.718951e+00
  2.925262e+00    2.839609e+00
  2.941137e+00    2.858475e+00
  2.957013e+00    2.868625e+00
  2.972889e+00    2.934352e+00
  2.988764e+00    2.784696e+00
  3.004640e+00    2.742786e+00
  3.020515e+00    2.877960e+00
  3.036391e+00    2.917383e+00
  3.052266e+00    2.884010e+00
  3.068142e+00    2.889585e+00
  3.084018e+00    2.890316e+00
  3.099893e+00    2.869012e+00
  3.115769e+00    2.927316e+00
  3.131644e+00    3.043251e+00
  3.147520e+00    2.911803e+00
  3.163395e+00    2.906685e+00
  3.179271e+00    2.910823e+00
  3.195147e+00    2.905750e+00
  3.211022e+00    2.937391e+00
  3.226898e+00    2.897244e+00
  3.242773e+00    2.850320e+00
  3.258649e+00    2.884290e+00
  3.274525e+00    2.943915e+00
  3.290400e+00    2.968095e+00
  3.306276e+00    2.950906e+00
  3.322151e+00    2.987313e+00
  3.338027e+00    2.997022e+00
  3.353902e+00    2.930121e+00
  3.369778e+00    2.952336e+00
  3.385654e+00    2.970005e+00
  3.401529e+00    2.912422e+00
  3.417405e+00    2.892813e+00
  3.433280e+00    2.983581e+00
  3.449156e+00    2.986917e+00
  3.465031e+00    2.905333e+00
  3.480907e+00    2.935330e+00
  3.496783e+00    3.044590e+00
  3.512658e+00    2.989767e+00
  3.528534e+00    2.993581e+00
  3.544409e+00    2.965344e+00
  3.560285e+00    2.952526e+00
  3.576160e+00    2.900818e+00
  3.592036e+00    2.943466e+00
  3.607912e+00    2.985661e+00
  3.623787e+00    2.991431e+00
  3.639663e+00    2.959209e+00
  3.655538e+00    3.015187e+00
  3.671414e+00    3.009380e+00
  3.687289e+00    3.044115e+00
  3.703165e+00    2.988990e+00
  3.719041e+00    2.999319e+00
  3.734916e+00    3.041889e+00
  3.750792e+00    3.032646e+00
  3.766667e+00    3.040662e+00
  3.782543e+00    2.982999e+00
  3.798418e+00    3.030483e+00
  3.814294e+00    3.040589e+00
  3.830170e+00    2.983258e+00
  3.846045e+00    2.934803e+00
  3.861921e+00    3.060402e+00
  3.877796e+00    3.079519e+00
  3.893672e+00    3.032467e+00
  3.909547e+00    3.042448e+00
  3.925423e+00    3.061369e+00
  3.941299e+00    2.984845e+00
  3.957174e+00    2.937489e+00
  3.973050e+00    2.987960e+00
  3.988925e+00    3.021054e+00
  4.004801e+00    3.082929e+00
  4.020676e+00    3.092688e+00
  4.036552e+00    3.018824e+00
  4.052428e+00    3.057854e+00
  4.068303e+00    3.026648e+00
  4.084179e+00    3.055032e+00
  4.100054e+00    3.125894e+00
  4.115930e+00    3.080626e+00
  4.131806e+00    3.075989e+00
  4.147681e+00    3.041142e+00
  4.163557e+00    3.075546e+00
  4.179432e+00    3.099772e+00
  4.195308e+00    2.928307e+00
  4.211183e+00    2.931467e+00
  4.227059e+00    3.146506e+00
  4.242935e+00    3.065328e+00
  4.258810e+00    3.033026e+00
  4.274686e+00    3.067120e+00
  4.290561e+00    3.037778e+00
  4.306437e+00    3.015006e+00
  4.322312e+00    3.009253e+00
  4.338188e+00    3.042000e+00
  4.354064e+00    3.000980e+00
  4.369939e+00    3.068538e+00
  4.385815e+00    3.044913e+00
  4.401690e+00    2.990299e+00
  4.417566e+00    3.024628e+00
  4.433441e+00    3.121251e+00
  4.449317e+00    3.117523e+00
  4.465193e+00    3.062112e+00
  4.481068e+00    3.081498e+00
  4.496944e+00    3.038341e+00
  4.512819e+00    3.056162e+00
  4.528695e+00    3.059088e+00
  4.544570e+00    3.051812e+00
  4.560446e+00    3.158754e+00
  4.576322e+00    3.072461e+00
  4.592197e+00    3.127025e+00
  4.608073e+00    3.204582e+00
  4.623948e+00    3.134963e+00
  4.639824e+00    3.181404e+00
  4.655699e+00    3.076640e+00
  4.671575e+00    3.062315e+00
  4.687451e+00    3.099446e+00
  4.703326e+00    3.105491e+00
  4.719202e+00    3.083907e+00
  4.735077e+00    3.130835e+00
  4.750953e+00    3.143625e+00
  4.766828e+00    3.129492e+00
  4.782704e+00    3.113914e+00
  4.798580e+00    3.114445e+00
  4.814455e+00    3.147514e+00
  4.830331e+00    3.083657e+00
  4.846206e+00    3.101965e+00
  4.862082e+00    3.102776e+00
  4.877957e+00    3.157609e+00
  4.893833e+00    3.177551e+00
  4.909709e+00    3.174999e+00
  4.925584e+00    3.161276e+00
  4.941460e+00    3.162528e+00
  4.957335e+00    3.114693e+00
  4.973211e+00    3.122860e+00
  4.989086e+00    3.186270e+00
  5.004962e+00    3.151262e+00
  5.020838e+00    3.145084e+00
  5.036713e+00    3.139001e+00
  5.052589e+00    3.085669e+00
  5.068464e+00    3.066279e+00
  5.084340e+00    3.143734e+00
  5.100216e+00    3.182190e+00
  5.116091e+00    3.151807e+00
  5.131967e+00    3.123434e+00
  5.147842e+00    3.104582e+00
  5.163718e+00    3.157377e+00
  5.179593e+00    3.155640e+00
  5.195469e+00    3.173686e+00
  5.211345e+00    3.168331e+00
  5.227220e+00    3.143716e+00
  5.243096e+00    3.201941e+00
  5.258971e+00    3.157564e+00
  5.274847e+00    3.079192e+00
  5.290722e+00    3.146229e+00
  5.306598e+00    3.152248e+00
  5.322474e+00    3.201002e+00
  5.338349e+00    3.254420e+00
  5.354225e+00    3.182460e+00
  5.370100e+00    3.144236e+00
  5.385976e+00    3.147768e+00
  5.401851e+00    3.142585e+00
  5.417727e+00    3.245968e+00
  5.433603e+00    3.180997e+00
  5.449478e+00    3.077009e+00
  5.465354e+00    3.046743e+00
  5.481229e+00    3.064146e+00
  5.497105e+00    3.106323e+00
  5.512980e+00    3.066566e+00
  5.528856e+00    3.070597e+00
  5.544732e+00    3.022049e+00
  5.560607e+00    3.040694e+00
  5.576483e+00    3.057054e+00
  5.592358e+00    3.113351e+00
  5.608234e+00    3.137828e+00
  5.624109e+00    3.127626e+00
  5.639985e+00    3.085638e+00
  5.655861e+00    3.062866e+00
  5.671736e+00    3.084961e+00
  5.687612e+00    3.145071e+00
  5.703487e+00    3.109337e+00
  5.719363e+00    3.086079e+00
  5.735238e+00    3.085875e+00
  5.751114e+00    3.166558e+00
  5.766990e+00    3.077814e+00
  5.782865e+00    3.096847e+00
  5.798741e+00    3.079419e+00
  5.814616e+00    3.155375e+00
  5.830492e+00    3.024539e+00
  5.846367e+00    2.978215e+00
  5.862243e+00    3.021569e+00
  5.878119e+00    3.011457e+00
  5.893994e+00    3.015652e+00
  5.909870e+00    3.000220e+00
  5.925745e+00    3.030704e+00
  5.941621e+00    2.985155e+00
  5.957497e+00    3.007913e+00
  5.973372e+00    3.076956e+00
  5.989248e+00    3.108443e+00
  6.005123e+00    3.074910e+00
  6.020999e+00    3.089866e+00
  6.036874e+00    3.103746e+00
  6.052750e+00    3.139613e+00
  6.068626e+00    3.060855e+00
  6.084501e+00    2.988882e+00
  6.100377e+00    3.080970e+00
  6.116252e+00    3.141760e+00
  6.132128e+00    3.111278e+00
  6.148003e+00    3.147692e+00
  6.163879e+00    3.161510e+00
  6.179755e+00    3.132681e+00
  6.195630e+00    3.126779e+00
  6.211506e+00    3.096091e+00
  6.227381e+00    3.041888e+00
  6.243257e+00    2.986583e+00
  6.259132e+00    3.059040e+00
  6.275008e+00    3.097418e+00
  6.290884e+00    3.024432e+00
  6.306759e+00    3.111722e+00
  6.322635e+00    3.130337e+00
  6.338510e+00    3.148702e+00
  6.354386e+00    3.110911e+00
  6.370261e+00    3.019271e+00
  6.386137e+00    3.110557e+00
  6.402013e+00    3.085394e+00
  6.417888e+00    3.061522e+00
  6.433764e+00    3.100576e+00
  6.449639e+00    3.081113e+00
  6.465515e+00    3.086534e+00
  6.481390e+00    3.074288e+00
  6.497266e+00    3.020299e+00
  6.513142e+00    2.935242e+00
  6.529017e+00    3.001674e+00
  6.544893e+00    3.061950e+00
  6.560768e+00    3.079966e+00
  6.576644e+00    3.038258e+00
  6.592519e+00    3.011138e+00
  6.608395e+00    3.030108e+00
  6.624271e+00    3.011164e+00
  6.640146e+00    2.991786e+00
  6.656022e+00    3.008096e+00
  6.671897e+00    3.015321e+00
  6.687773e+00    3.006489e+00
  6.703648e+00    3.091752e+00
  6.719524e+00    3.149394e+00
  6.735400e+00    3.066704e+00
  6.751275e+00    3.111506e+00
  6.767151e+00    3.043407e+00
  6.783026e+00    3.065014e+00
  6.798902e+00    3.125160e+00
  6.814777e+00    3.073864e+00
  6.830653e+00    3.022795e+00
  6.846529e+00    3.024402e+00
  6.862404e+00    3.032088e+00
  6.878280e+00    3.070796e+00
  6.894155e+00    3.073392e+00
  6.910031e+00    3.069395e+00
  6.925907e+00    3.037615e+00
  6.941782e+00    2.991712e+00
  6.957658e+00    3.004520e+00
  6.973533e+00    2.887728e+00
  6.989409e+00    2.900365e+00
  7.005284e+00    3.003754e+00
  7.021160e+00    2.988846e+00
  7.037036e+00    2.990212e+00
  7.052911e+00    2.989768e+00
  7.068787e+00    2.962732e+00
  7.084662e+00    2.978002e+00
  7.100538e+00    3.006877e+00
  7.116413e+00    2.987731e+00
  7.132289e+00    2.957472e+00
  7.148165e+00    2.982768e+00
  7.164040e+00    3.035790e+00
  7.179916e+00    3.041483e+00
  7.195791e+00    3.008603e+00
  7.211667e+00    3.054327e+00
  7.227542e+00    3.058005e+00
  7.243418e+00    3.010589e+00
  7.259294e+00    3.047128e+00
  7.275169e+00    3.013071e+00
  7.291045e+00    3.008914e+00
  7.306920e+00    3.087018e+00
  7.322796e+00    3.024944e+00
  7.338671e+00    3.079980e+00
  7.354547e+00    3.026929e+00
  7.370423e+00    2.971166e+00
  7.386298e+00    3.026556e+00
  7.402174e+00    3.018798e+00
  7.418049e+00    2.955049e+00
  7.433925e+00    3.009474e+00
  7.449800e+00    3.046412e+00
  7.465676e+00    3.007689e+00
  7.481552e+00    2.931619e+00
  7.497427e+00    2.986191e+00
  7.513303e+00    3.001883e+00
  7.529178e+00    2.980957e+00
  7.545054e+00    2.983521e+00
  7.560929e+00    3.010022e+00
  7.576805e+00    2.990438e+00
  7.592681e+00    3.022479e+00
  7.608556e+00    3.039807e+00
  7.624432e+00    3.035422e+00
  7.640307e+00    2.980058e+00
  7.656183e+00    3.039310e+00
  7.672058e+00    3.007390e+00
  7.687934e+00    2.978890e+00
  7.703810e+00    2.960568e+00
  7.719685e+00    2.918612e+00
  7.735561e+00    2.921176e+00
  7.751436e+00    2.943603e+00
  7.767312e+00    2.999176e+00
  7.783187e+00    2.986044e+00
  7.799063e+00    2.937998e+00
  7.814939e+00    2.979014e+00
  7.830814e+00    2.934767e+00
  7.846690e+00    2.927687e+00
  7.862565e+00    2.920090e+00
  7.878441e+00    2.906383e+00
  7.894317e+00    2.983590e+00
  7.910192e+00    2.958545e+00
  7.926068e+00    2.917787e+00
  7.941943e+00    2.900989e+00
  7.957819e+00    2.969545e+00
  7.973694e+00    2.902921e+00
  7.989570e+00    2.942237e+00
  8.005446e+00    2.936606e+00
  8.021321e+00    2.901380e+00
  8.037197e+00    2.904770e+00
  8.053072e+00    2.996776e+00
  8.068948e+00    2.988307e+00
  8.084823e+00    2.896596e+00
  8.100699e+00    2.899173e+00
  8.116575e+00    2.939200e+00
  8.132450e+00    2.965051e+00
  8.148326e+00    2.933279e+00
  8.164201e+00    2.988616e+00
  8.180077e+00    2.948240e+00
  8.195952e+00    2.974505e+00
  8.211828e+00    2.927532e+00
  8.227704e+00    3.029701e+00
  8.243579e+00    2.970269e+00
  8.259455e+00    2.897402e+00
  8.275330e+00    2.948590e+00
  8.291206e+00    2.886544e+00
  8.307081e+00    2.943183e+00
  8.322957e+00    2.876875e+00
  8.338833e+00    2.840167e+00
  8.354708e+00    2.872840e+00
  8.370584e+00    2.982997e+00
  8.386459e+00    2.953162e+00
  8.402335e+00    2.895431e+00
  8.418210e+00    2.889828e+00
  8.434086e+00    2.936816e+00
  8.449962e+00    2.915636e+00
  8.465837e+00    2.888079e+00
  8.481713e+00    2.851401e+00
  8.497588e+00    2.882085e+00
  8.513464e+00    2.887903e+00
  8.529339e+00    2.848380e+00
  8.545215e+00    2.880998e+00
  8.561091e+00    2.914646e+00
  8.576966e+00    2.931364e+00
  8.592842e+00    2.902406e+00
  8.608717e+00    2.913820e+00
  8.624593e+00    2.904702e+00
  8.640468e+00    2.921393e+00
  8.656344e+00    2.902940e+00
  8.672220e+00    2.899731e+00
  8.688095e+00    2.934417e+00
  8.703971e+00    2.846104e+00
  8.719846e+00    2.864753e+00
  8.735722e+00    2.799993e+00
  8.751598e+00    2.880616e+00
  8.767473e+00    2.839983e+00
  8.783349e+00    2.831535e+00
  8.799224e+00    2.828024e+00
  8.815100e+00    2.798837e+00
  8.830975e+00    2.820252e+00
  8.846851e+00    2.880680e+00
  8.862727e+00    2.873194e+00
  8.878602e+00    2.861896e+00
  8.894478e+00    2.841545e+00
  8.910353e+00    2.856631e+00
  8.926229e+00    2.837723e+00
  8.942104e+00    2.813862e+00
  8.957980e+00    2.841223e+00
  8.973856e+00    2.822699e+00
  8.989731e+00    2.881642e+00
  9.005607e+00    2.866384e+00
  9.021482e+00    2.845063e+00
  9.037358e+00    2.782830e+00
  9.053233e+00    2.814112e+00
  9.069109e+00    2.873990e+00
  9.084985e+00    2.890511e+00
  9.100860e+00    2.872469e+00
  9.116736e+00    2.816795e+00
  9.132611e+00    2.814440e+00
  9.148487e+00    2.855425e+00
  9.164362e+00    2.810767e+00
  9.180238e+00    2.811865e+00
  9.196114e+00    2.811754e+00
  9.211989e+00    2.767978e+00
  9.227865e+00    2.828423e+00
  9.243740e+00    2.841637e+00
  9.259616e+00    2.773868e+00
  9.275491e+00    2.821162e+00
  9.291367e+00    2.826882e+00
  9.307243e+00    2.830923e+00
  9.323118e+00    2.791757e+00
  9.338994e+00    2.761069e+00
  9.354869e+00    2.740868e+00
  9.370745e+00    2.779808e+00
  9.386620e+00    2.724618e+00
  9.402496e+00    2.695317e+00
  9.418372e+00    2.718480e+00
  9.434247e+00    2.741998e+00
  9.450123e+00    2.817492e+00
  9.465998e+00    2.796274e+00
  9.481874e+00    2.756338e+00
  9.497749e+00    2.731282e+00
  9.513625e+00    2.740857e+00
  9.529501e+00    2.755568e+00
  9.545376e+00    2.791528e+00
  9.561252e+00    2.755169e+00
  9.577127e+00    2.756115e+00
  9.593003e+00    2.801539e+00
  9.608878e+00    2.767682e+00
  9.624754e+00    2.766774e+00
  9.640630e+00    2.780030e+00
  9.656505e+00    2.733780e+00
  9.672381e+00    2.733734e+00
  9.688256e+00    2.766462e+00
  9.704132e+00    2.723636e+00
  9.720008e+00    2.625995e+00
  9.735883e+00    2.667255e+00
  9.751759e+00    2.692162e+00
  9.767634e+00    2.742757e+00
  9.783510e+00    2.736626e+00
  9.799385e+00    2.740593e+00
  9.815261e+00    2.705404e+00
  9.831137e+00    2.703694e+00
  9.847012e+00    2.744354e+00
  9.862888e+00    2.779355e+00
  9.878763e+00    2.669701e+00
  9.894639e+00    2.653414e+00
  9.910514e+00    2.667940e+00
  9.926390e+00    2.678312e+00
  9.942266e+00    2.693741e+00
  9.958141e+00    2.737633e+00
  9.974017e+00    2.685291e+00
  9.989892e+00    2.684390e+00
  1.000577e+01    2.691183e+00
  1.002164e+01    2.697600e+00
  1.003752e+01    2.697115e+00
  1.005339e+01    2.681896e+00
  1.006927e+01    2.646862e+00
  1.008515e+01    2.654863e+00
  1.010102e+01    2.669119e+00
  1.011690e+01    2.672662e+00
  1.013277e+01    2.709405e+00
  1.014865e+01    2.683435e+00
  1.016452e+01    2.684973e+00
  1.018040e+01    2.664952e+00
  1.019627e+01    2.680184e+00
  1.021215e+01    2.639185e+00
  1.022803e+01    2.645260e+00
  1.024390e+01    2.677038e+00
  1.025978e+01    2.633296e+00
  1.027565e+01    2.632668e+00
  1.029153e+01    2.645296e+00
  1.030740e+01    2.618149e+00
  1.032328e+01    2.634563e+00
  1.033915e+01    2.630885e+00
  1.035503e+01    2.625416e+00
  1.037091e+01    2.621227e+00
  1.038678e+01    2.632944e+00
  1.040266e+01    2.646314e+00
  1.041853e+01    2.644349e+00
  1.043441e+01    2.628130e+00
  1.045028e+01    2.608432e+00
  1.046616e+01    2.624296e+00
  1.048204e+01    2.609676e+00
  1.049791e+01    2.596369e+00
  1.051379e+01    2.518294e+00
  1.052966e+01    2.615389e+00
  1.054554e+01    2.638863e+00
  1.056141e+01    2.568038e+00
  1.057729e+01    2.509913e+00
  1.059316e+01    2.573734e+00
  1.060904e+01    2.563559e+00
  1.062492e+01    2.559471e+00
  1.064079e+01    2.558470e+00
  1.065667e+01    2.565783e+00
  1.067254e+01    2.548028e+00
  1.068842e+01    2.544577e+00
  1.070429e+01    2.537425e+00
  1.072017e+01    2.520549e+00
  1.073604e+01    2.541317e+00
  1.075192e+01    2.564578e+00
  1.076780e+01    2.522375e+00
  1.078367e+01    2.554256e+00
  1.079955e+01    2.504120e+00
  1.081542e+01    2.517243e+00
  1.083130e+01    2.538426e+00
  1.084717e+01    2.528163e+00
  1.086305e+01    2.547343e+00
  1.087892e+01    2.556406e+00
  1.089480e+01    2.559034e+00
  1.091068e+01    2.550362e+00
  1.092655e+01    2.504095e+00
  1.094243e+01    2.504732e+00
  1.095830e+01    2.514060e+00
  1.097418e+01    2.514749e+00
  1.099005e+01    2.504989e+00
  1.100593e+01    2.478456e+00
  1.102180e+01    2.473051e+00
  1.103768e+01    2.459478e+00
  1.105356e+01    2.502704e+00
  1.106943e+01    2.475935e+00
  1.108531e+01    2.444506e+00
  1.110118e+01    2.476025e+00
  1.111706e+01    2.428322e+00
  1.113293e+01    2.469010e+00
  1.114881e+01    2.508143e+00
  1.116468e+01    2.525978e+00
  1.118056e+01    2.469263e+00
  1.119644e+01    2.446620e+00
  1.121231e+01    2.453598e+00
  1.122819e+01    2.459705e+00
  1.124406e+01    2.476603e+00
  1.125994e+01    2.453841e+00
  1.127581e+01    2.442749e+00
  1.129169e+01    2.500326e+00
  1.130756e+01    2.459593e+00
  1.132344e+01    2.493749e+00
  1.133932e+01    2.422761e+00
  1.135519e+01    2.402009e+00
  1.137107e+01    2.401208e+00
  1.138694e+01    2.385487e+00
  1.140282e+01    2.425715e+00
  1.141869e+01    2.427344e+00
  1.143457e+01    2.445775e+00
  1.145045e+01    2.471014e+00
  1.146632e+01    2.449381e+00
  1.148220e+01    2.419407e+00
  1.149807e+01    2.441525e+00
  1.151395e+01    2.430661e+00
  1.152982e+01    2.370970e+00
  1.154570e+01    2.361617e+00
  1.156157e+01    2.379584e+00
  1.157745e+01    2.353320e+00
  1.159333e+01    2.362420e+00
  1.160920e+01    2.369572e+00
  1.162508e+01    2.372746e+00
  1.164095e+01    2.424703e+00
  1.165683e+01    2.429274e+00
  1.167270e+01    2.414966e+00
  1.168858e+01    2.402902e+00
  1.170445e+01    2.381684e+00
  1.172033e+01    2.390589e+00
  1.173621e+01    2.355264e+00
  1.175208e+01    2.361273e+00
  1.176796e+01    2.395315e+00
  1.178383e+01    2.359565e+00
  1.179971e+01    2.405856e+00
  1.181558e+01    2.384281e+00
  1.183146e+01    2.315949e+00
  1.184733e+01    2.301649e+00
  1.186321e+01    2.325864e+00
  1.187909e+01    2.325528e+00
  1.189496e+01    2.349889e+00
  1.191084e+01    2.321791e+00
  1.192671e+01    2.349006e+00
  1.194259e+01    2.360247e+00
  1.195846e+01    2.292540e+00
  1.197434e+01    2.316359e+00
  1.199021e+01    2.353905e+00
  1.200609e+01    2.320478e+00
  1.202197e+01    2.334574e+00
  1.203784e+01    2.380181e+00
  1.205372e+01    2.350369e+00
  1.206959e+01    2.372343e+00
  1.208547e+01    2.315644e+00
  1.210134e+01    2.319591e+00
  1.211722e+01    2.333317e+00
  1.213309e+01    2.273063e+00
  1.214897e+01    2.326347e+00
  1.216485e+01    2.372088e+00
  1.218072e+01    2.352585e+00
  1.219660e+01    2.324452e+00
  1.221247e+01    2.304478e+00
  1.222835e+01    2.300292e+00
  1.224422e+01    2.345489e+00
  1.226010e+01    2.367166e+00
  1.227597e+01    2.353101e+00
  1.229185e+01    2.339782e+00
  1.230773e+01    2.345399e+00
  1.232360e+01    2.325875e+00
  1.233948e+01    2.302666e+00
  1.235535e+01    2.319424e+00
  1.237123e+01    2.302305e+00
  1.238710e+01    2.310318e+00
  1.240298e+01    2.282030e+00
  1.241886e+01    2.322634e+00
  1.243473e+01    2.326535e+00
  1.245061e+01    2.387558e+00
  1.246648e+01    2.372766e+00
  1.248236e+01    2.300997e+00
  1.249823e+01    2.356075e+00
  1.251411e+01    2.340600e+00
  1.252998e+01    2.285774e+00
  1.254586e+01    2.316102e+00
  1.256174e+01    2.355947e+00
  1.257761e+01    2.396975e+00
  1.259349e+01    2.384840e+00
  1.260936e+01    2.400965e+00
  1.262524e+01    2.426135e+00
  1.264111e+01    2.407907e+00
  1.265699e+01    2.420666e+00
  1.267286e+01    2.420891e+00
  1.268874e+01    2.393589e+00
  1.270462e+01    2.467977e+00
  1.272049e+01    2.477473e+00
  1.273637e+01    2.529656e+00
  1.275224e+01    2.555176e+00
  1.276812e+01    2.591754e+00
  1.278399e+01    2.604800e+00
  1.279987e+01    2.633583e+00
  1.281574e+01    2.688522e+00
  1.283162e+01    2.752097e+00
  1.284750e+01    2.826169e+00
  1.286337e+01    2.914482e+00
  1.287925e+01    2.989443e+00
  1.289512e+01    3.145505e+00
  1.291100e+01    3.323516e+00
  1.292687e+01    3.450006e+00
  1.294275e+01    3.712642e+00
  1.295862e+01    3.996760e+00
  1.297450e+01    4.381371e+00
  1.299038e+01    4.787870e+00
  1.300625e+01    5.314455e+00
  1.302213e+01    6.124546e+00
  1.303800e+01    7.061181e+00
  1.305388e+01    8.168156e+00
  1.306975e+01    9.417636e+00
  1.308563e+01    1.065182e+01
  1.310150e+01    1.187469e+01
  1.311738e+01    1.303137e+01
  1.313326e+01    1.393389e+01
  1.314913e+01    1.476300e+01
  1.316501e+01    1.565862e+01
  1.318088e+01    1.589199e+01
  1.319676e+01    1.532660e+01
  1.321263e+01    1.412478e+01
  1.322851e+01    1.237874e+01
  1.324438e+01    1.052081e+01
  1.326026e+01    8.863807e+00
  1.327614e+01    7.489329e+00
  1.329201e+01    6.397080e+00
  1.330789e+01    5.541276e+00
  1.332376e+01    4.965645e+00
  1.333964e+01    4.525289e+00
  1.335551e+01    4.116793e+00
  1.337139e+01    3.737541e+00
  1.338727e+01    3.471366e+00
  1.340314e+01    3.309818e+00
  1.341902e+01    3.136863e+00
  1.343489e+01    3.004998e+00
  1.345077e+01    2.902971e+00
  1.346664e+01    2.817908e+00
  1.348252e+01    2.733229e+00
  1.349839e+01    2.637691e+00
  1.351427e+01    2.553454e+00
  1.353015e+01    2.486429e+00
  1.354602e+01    2.477367e+00
  1.356190e+01    2.446144e+00
  1.357777e+01    2.449276e+00
  1.359365e+01    2.347034e+00
  1.360952e+01    2.306561e+00
  1.362540e+01    2.304442e+00
  1.364127e+01    2.285853e+00
  1.365715e+01    2.273491e+00
  1.367303e+01    2.238842e+00
  1.368890e+01    2.189000e+00
  1.370478e+01    2.208978e+00
  1.372065e+01    2.234434e+00
  1.373653e+01    2.207712e+00
  1.375240e+01    2.173692e+00
  1.376828e+01    2.180893e+00
  1.378415e+01    2.163134e+00
  1.380003e+01    2.197091e+00
  1.381591e+01    2.129223e+00
  1.383178e+01    2.101038e+00
  1.384766e+01    2.146077e+00
  1.386353e+01    2.162321e+00
  1.387941e+01    2.113606e+00
  1.389528e+01    2.086540e+00
  1.391116e+01    2.089134e+00
  1.392703e+01    2.113084e+00
  1.394291e+01    2.132431e+00
  1.395879e+01    2.084945e+00
  1.397466e+01    2.068866e+00
  1.399054e+01    2.055486e+00
  1.400641e+01    2.052473e+00
  1.402229e+01    2.065521e+00
  1.403816e+01    2.067271e+00
  1.405404e+01    2.049734e+00
  1.406991e+01    2.050010e+00
  1.408579e+01    2.042819e+00
  1.410167e+01    2.055345e+00
  1.411754e+01    2.047087e+00
  1.413342e+01    2.002976e+00
  1.414929e+01    1.990270e+00
  1.416517e+01    2.009663e+00
  1.418104e+01    1.981393e+00
  1.419692e+01    2.039337e+00
  1.421279e+01    2.029124e+00
  1.422867e+01    2.004557e+00
  1.424455e+01    1.993054e+00
  1.426042e+01    1.987579e+00
  1.427630e+01    2.001187e+00
  1.429217e+01    1.980058e+00
  1.430805e+01    1.976784e+00
  1.432392e+01    1.968903e+00
  1.433980e+01    1.945014e+00
  1.435568e+01    1.917231e+00
  1.437155e+01    1.983230e+00
  1.438743e+01    1.968313e+00
  1.440330e+01    1.959080e+00
  1.441918e+01    1.934420e+00
  1.443505e+01    1.944280e+00
  1.445093e+01    1.906518e+00
  1.446680e+01    1.911373e+00
  1.448268e+01    1.928059e+00
  1.449856e+01    1.952077e+00
  1.451443e+01    1.940202e+00
  1.453031e+01    1.929121e+00
  1.454618e+01    1.893303e+00
  1.456206e+01    1.912190e+00
  1.457793e+01    1.926026e+00
  1.459381e+01    1.939949e+00
  1.460968e+01    1.922284e+00
  1.462556e+01    1.913551e+00
  1.464144e+01    1.910113e+00
  1.465731e+01    1.914067e+00
  1.467319e+01    1.954586e+00
  1.468906e+01    1.916671e+00
  1.470494e+01    1.923786e+00
  1.472081e+01    1.913374e+00
  1.473669e+01    1.946328e+00
  1.475256e+01    1.930343e+00
  1.476844e+01    1.910836e+00
  1.478432e+01    1.917740e+00
  1.480019e+01    1.942509e+00
  1.481607e+01    1.959728e+00
  1.483194e+01    1.976564e+00
  1.484782e+01    1.939560e+00
  1.486369e+01    1.957731e+00
  1.487957e+01    1.983589e+00
  1.489544e+01    1.950771e+00
  1.491132e+01    1.996875e+00
  1.492720e+01    1.978954e+00
  1.494307e+01    2.024426e+00
  1.495895e+01    2.046667e+00
  1.497482e+01    2.051725e+00
  1.499070e+01    2.099339e+00
  1.500657e+01    2.168710e+00
  1.502245e+01    2.280843e+00
  1.503832e+01    2.321497e+00
  1.505420e+01    2.393641e+00
  1.507008e+01    2.531788e+00
  1.508595e+01    2.654901e+00
  1.510183e+01    2.830684e+00
  1.511770e+01    3.113541e+00
  1.513358e+01    3.397519e+00
  1.514945e+01    3.727031e+00
  1.516533e+01    4.112917e+00
  1.518120e+01    4.421548e+00
  1.519708e+01    4.753936e+00
  1.521296e+01    5.001960e+00
  1.522883e+01    5.251858e+00
  1.524471e+01    5.392097e+00
  1.526058e+01    5.456110e+00
  1.527646e+01    5.420388e+00
  1.529233e+01    5.189066e+00
  1.530821e+01    4.917469e+00
  1.532409e+01    4.449332e+00
  1.533996e+01    3.933019e+00
  1.535584e+01    3.528008e+00
  1.537171e+01    3.140750e+00
  1.538759e+01    2.889880e+00
  1.540346e+01    2.640830e+00
  1.541934e+01    2.466485e+00
  1.543521e+01    2.342685e+00
  1.545109e+01    2.254835e+00
  1.546697e+01    2.189653e+00
  1.548284e+01    2.115117e+00
  1.549872e+01    2.056104e+00
  1.551459e+01    1.981312e+00
  1.553047e+01    1.935368e+00
  1.554634e+01    1.904259e+00
  1.556222e+01    1.880479e+00
  1.557809e+01    1.844396e+00
  1.559397e+01    1.816879e+00
  1.560985e+01    1.786036e+00
  1.562572e+01    1.795539e+00
  1.564160e+01    1.809944e+00
  1.565747e+01    1.780238e+00
  1.567335e+01    1.757020e+00
  1.568922e+01    1.770675e+00
  1.570510e+01    1.771078e+00
  1.572097e+01    1.721660e+00
  1.573685e+01    1.730739e+00
  1.575273e+01    1.717095e+00
  1.576860e+01    1.686566e+00
  1.578448e+01    1.685155e+00
  1.580035e+01    1.670545e+00
  1.581623e+01    1.680976e+00
  1.583210e+01    1.661646e+00
  1.584798e+01    1.670603e+00
  1.586385e+01    1.674151e+00
  1.587973e+01    1.675078e+00
  1.589561e+01    1.656121e+00
  1.591148e+01    1.671614e+00
  1.592736e+01    1.651662e+00
  1.594323e+01    1.613631e+00
  1.595911e+01    1.632332e+00
  1.597498e+01    1.642844e+00
  1.599086e+01    1.629894e+00
  1.600673e+01    1.628124e+00
  1.602261e+01    1.617190e+00
  1.603849e+01    1.599145e+00
  1.605436e+01    1.601655e+00
  1.607024e+01    1.591775e+00
  1.608611e+01    1.584597e+00
  1.610199e+01    1.579764e+00
  1.611786e+01    1.593349e+00
  1.613374e+01    1.589071e+00
  1.614961e+01    1.578071e+00
  1.616549e+01    1.583907e+00
  1.618137e+01    1.561653e+00
  1.619724e+01    1.564397e+00
  1.621312e+01    1.568397e+00
  1.622899e+01    1.572207e+00
  1.624487e+01    1.549481e+00
  1.626074e+01    1.581478e+00
  1.627662e+01    1.591164e+00
  1.629250e+01    1.585991e+00
  1.630837e+01    1.596509e+00
  1.632425e+01    1.611752e+00
  1.634012e+01    1.570297e+00
  1.635600e+01    1.533439e+00
  1.637187e+01    1.526453e+00
  1.638775e+01    1.531181e+00
  1.640362e+01    1.513380e+00
  1.641950e+01    1.533122e+00
  1.643538e+01    1.523812e+00
  1.645125e+01    1.551525e+00
  1.646713e+01    1.518115e+00
  1.648300e+01    1.491421e+00
  1.649888e+01    1.519689e+00
  1.651475e+01    1.504442e+00
  1.653063e+01    1.487085e+00
  1.654650e+01    1.455253e+00
  1.656238e+01    1.464947e+00
  1.657826e+01    1.498242e+00
  1.659413e+01    1.527831e+00
  1.661001e+01    1.503353e+00
  1.662588e+01    1.480014e+00
  1.664176e+01    1.516447e+00
  1.665763e+01    1.514680e+00
  1.667351e+01    1.484288e+00
  1.668938e+01    1.511552e+00
  1.670526e+01    1.500804e+00
  1.672114e+01    1.472377e+00
  1.673701e+01    1.505128e+00
  1.675289e+01    1.476103e+00
  1.676876e+01    1.481078e+00
  1.678464e+01    1.469292e+00
  1.680051e+01    1.478330e+00
  1.681639e+01    1.474407e+00
  1.683226e+01    1.452768e+00
  1.684814e+01    1.482248e+00
  1.686402e+01    1.465263e+00
  1.687989e+01    1.457340e+00
  1.689577e+01    1.450012e+00
  1.691164e+01    1.461306e+00
  1.692752e+01    1.446170e+00
  1.694339e+01    1.482877e+00
  1.695927e+01    1.491979e+00
  1.697514e+01    1.454737e+00
  1.699102e+01    1.449686e+00
  1.700690e+01    1.442845e+00
  1.702277e+01    1.436379e+00
  1.703865e+01    1.435382e+00
  1.705452e+01    1.482259e+00
  1.707040e+01    1.441489e+00
  1.708627e+01    1.429827e+00
  1.710215e+01    1.416617e+00
  1.711802e+01    1.463427e+00
  1.713390e+01    1.435615e+00
  1.714978e+01    1.414263e+00
  1.716565e+01    1.414651e+00
  1.718153e+01    1.419195e+00
  1.719740e+01    1.402576e+00
  1.721328e+01    1.390766e+00
  1.722915e+01    1.392927e+00
  1.724503e+01    1.397094e+00
  1.726091e+01    1.404752e+00
  1.727678e+01    1.415288e+00
  1.729266e+01    1.392623e+00
  1.730853e+01    1.371308e+00
  1.732441e+01    1.366479e+00
  1.734028e+01    1.384799e+00
  1.735616e+01    1.378389e+00
  1.737203e+01    1.385478e+00
  1.738791e+01    1.387843e+00
  1.740379e+01    1.383478e+00
  1.741966e+01    1.378163e+00
  1.743554e+01    1.387509e+00
  1.745141e+01    1.395081e+00
  1.746729e+01    1.379629e+00
  1.748316e+01    1.362105e+00
  1.749904e+01    1.363940e+00
  1.751491e+01    1.364236e+00
  1.753079e+01    1.395270e+00
  1.754667e+01    1.384145e+00
  1.756254e+01    1.371525e+00
  1.757842e+01    1.385856e+00
  1.759429e+01    1.391318e+00
  1.761017e+01    1.375810e+00
  1.762604e+01    1.368132e+00
  1.764192e+01    1.354336e+00
  1.765779e+01    1.363602e+00
  1.767367e+01    1.336606e+00
  1.768955e+01    1.330977e+00
  1.770542e+01    1.366231e+00
  1.772130e+01    1.333417e+00
  1.773717e+01    1.313667e+00
  1.775305e+01    1.332855e+00
  1.776892e+01    1.338639e+00
  1.778480e+01    1.329499e+00
  1.780067e+01    1.319752e+00
  1.781655e+01    1.316011e+00
  1.783243e+01    1.316148e+00
  1.784830e+01    1.314157e+00
  1.786418e+01    1.329353e+00
  1.788005e+01    1.335216e+00
  1.789593e+01    1.316113e+00
  1.791180e+01    1.328053e+00
  1.792768e+01    1.325460e+00
  1.794355e+01    1.333609e+00
  1.795943e+01    1.336068e+00
  1.797531e+01    1.310097e+00
  1.799118e+01    1.305251e+00
  1.800706e+01    1.301769e+00
  1.802293e+01    1.319445e+00
  1.803881e+01    1.300737e+00
  1.805468e+01    1.327716e+00
  1.807056e+01    1.293474e+00
  1.808643e+01    1.293954e+00
  1.810231e+01    1.300178e+00
  1.811819e+01    1.304479e+00
  1.813406e+01    1.337539e+00
  1.814994e+01    1.314430e+00
  1.816581e+01    1.301143e+00
  1.818169e+01    1.305624e+00
  1.819756e+01    1.309893e+00
  1.821344e+01    1.304738e+00
  1.822932e+01    1.246585e+00
  1.824519e+01    1.277178e+00
  1.826107e+01    1.323500e+00
  1.827694e+01    1.300251e+00
  1.829282e+01    1.281014e+00
  1.830869e+01    1.273517e+00
  1.832457e+01    1.271152e+00
  1.834044e+01    1.262342e+00
  1.835632e+01    1.271830e+00
  1.837220e+01    1.263962e+00
  1.838807e+01    1.253404e+00
  1.840395e+01    1.251208e+00
  1.841982e+01    1.262138e+00
  1.843570e+01    1.277242e+00
  1.845157e+01    1.265585e+00
  1.846745e+01    1.250753e+00
  1.848332e+01    1.262585e+00
  1.849920e+01    1.228521e+00
  1.851508e+01    1.233199e+00
  1.853095e+01    1.236904e+00
  1.854683e+01    1.271013e+00
  1.856270e+01    1.256622e+00
  1.857858e+01    1.225380e+00
  1.859445e+01    1.225092e+00
  1.861033e+01    1.242651e+00
  1.862620e+01    1.232559e+00
  1.864208e+01    1.227662e+00
  1.865796e+01    1.238505e+00
  1.867383e+01    1.256716e+00
  1.868971e+01    1.233193e+00
  1.870558e+01    1.221633e+00
  1.872146e+01    1.253487e+00
  1.873733e+01    1.209655e+00
  1.875321e+01    1.221831e+00
  1.876908e+01    1.225304e+00
  1.878496e+01    1.228630e+00
  1.880084e+01    1.219846e+00
  1.881671e+01    1.219830e+00
  1.883259e+01    1.232618e+00
  1.884846e+01    1.211760e+00
  1.886434e+01    1.220207e+00
  1.888021e+01    1.221092e+00
  1.889609e+01    1.221378e+00
  1.891196e+01    1.230919e+00
  1.892784e+01    1.204396e+00
  1.894372e+01    1.214744e+00
  1.895959e+01    1.213502e+00
  1.897547e+01    1.237210e+00
  1.899134e+01    1.219672e+00
  1.900722e+01    1.214114e+00
  1.902309e+01    1.199268e+00
  1.903897e+01    1.218987e+00
  1.905484e+01    1.223608e+00
  1.907072e+01    1.212350e+00
  1.908660e+01    1.190717e+00
  1.910247e+01    1.187313e+00
  1.911835e+01    1.175623e+00
  1.913422e+01    1.175345e+00
  1.915010e+01    1.171369e+00
  1.916597e+01    1.182031e+00
  1.918185e+01    1.176915e+00
  1.919773e+01    1.176834e+00
  1.921360e+01    1.190238e+00
  1.922948e+01    1.202718e+00
  1.924535e+01    1.178132e+00
  1.926123e+01    1.180248e+00
  1.927710e+01    1.168744e+00
  1.929298e+01    1.166051e+00
  1.930885e+01    1.203199e+00
  1.932473e+01    1.167321e+00
  1.934061e+01    1.159624e+00
  1.935648e+01    1.175518e+00
  1.937236e+01    1.168973e+00
  1.938823e+01    1.182946e+00
  1.940411e+01    1.168346e+00
  1.941998e+01    1.150198e+00
  1.943586e+01    1.163806e+00
  1.945173e+01    1.161077e+00
  1.946761e+01    1.177852e+00
  1.948349e+01    1.165769e+00
  1.949936e+01    1.175062e+00
  1.951524e+01    1.171902e+00
  1.953111e+01    1.166506e+00
  1.954699e+01    1.155964e+00
  1.956286e+01    1.151635e+00
  1.957874e+01    1.163874e+00
  1.959461e+01    1.165946e+00
  1.961049e+01    1.161672e+00
  1.962637e+01    1.140437e+00
  1.964224e+01    1.150737e+00
  1.965812e+01    1.146853e+00
  1.967399e+01    1.148589e+00
  1.968987e+01    1.139600e+00
  1.970574e+01    1.144769e+00
  1.972162e+01    1.142866e+00
  1.973749e+01    1.153838e+00
  1.975337e+01    1.152663e+00
  1.976925e+01    1.122905e+00
  1.978512e+01    1.138831e+00
  1.980100e+01    1.127748e+00
  1.981687e+01    1.142764e+00
  1.983275e+01    1.169231e+00
  1.984862e+01    1.142056e+00
  1.986450e+01    1.140105e+00
  1.988037e+01    1.108294e+00
  1.989625e+01    1.123391e+00
  1.991213e+01    1.121758e+00
  1.992800e+01    1.145009e+00
  1.994388e+01    1.135419e+00
  1.995975e+01    1.118008e+00
  1.997563e+01    1.110047e+00
  1.999150e+01    1.138396e+00
  2.000738e+01    1.098677e+00
  2.002325e+01    1.104162e+00
  2.003913e+01    1.147529e+00
  2.005501e+01    1.136266e+00
  2.007088e+01    1.120157e+00
  2.008676e+01    1.089769e+00
  2.010263e+01    1.100374e+00
  2.011851e+01    1.103687e+00
  2.013438e+01    1.101915e+00
  2.015026e+01    1.107437e+00
  2.016614e+01    1.134368e+00
  2.018201e+01    1.123270e+00
  2.019789e+01    1.112450e+00
  2.021376e+01    1.120899e+00
  2.022964e+01    1.101194e+00
  2.024551e+01    1.090922e+00
  2.026139e+01    1.085360e+00
  2.027726e+01    1.122605e+00
  2.029314e+01    1.116478e+00
  2.030902e+01    1.097988e+00
  2.032489e+01    1.081709e+00
  2.034077e+01    1.078060e+00
  2.035664e+01    1.098826e+00
  2.037252e+01    1.088287e+00
  2.038839e+01    1.078750e+00
  2.040427e+01    1.072969e+00
  2.042014e+01    1.092155e+00
  2.043602e+01    1.096107e+00
  2.045190e+01    1.078994e+00
  2.046777e+01    1.063168e+00
  2.048365e+01    1.082839e+00
  2.049952e+01    1.110933e+00
  2.051540e+01    1.112652e+00
  2.053127e+01    1.096684e+00
  2.054715e+01    1.087320e+00
  2.056302e+01    1.099870e+00
  2.057890e+01    1.092185e+00
  2.059478e+01    1.097191e+00
  2.061065e+01    1.090044e+00
  2.062653e+01    1.090502e+00
  2.064240e+01    1.062236e+00
  2.065828e+01    1.060237e+00
  2.067415e+01    1.062911e+00
  2.069003e+01    1.066203e+00
  2.070590e+01    1.078643e+00
  2.072178e+01    1.055761e+00
  2.073766e+01    1.073176e+00
  2.075353e+01    1.089114e+00
  2.076941e+01    1.064492e+00
  2.078528e+01    1.063442e+00
  2.080116e+01    1.077874e+00
  2.081703e+01    1.085812e+00
  2.083291e+01    1.058256e+00
  2.084878e+01    1.098278e+00
  2.086466e+01    1.114282e+00
  2.088054e+01    1.098323e+00
  2.089641e+01    1.079579e+00
  2.091229e+01    1.086981e+00
  2.092816e+01    1.062224e+00
  2.094404e+01    1.083144e+00
  2.095991e+01    1.070158e+00
  2.097579e+01    1.094754e+00
  2.099166e+01    1.092238e+00
  2.100754e+01    1.072125e+00
  2.102342e+01    1.084250e+00
  2.103929e+01    1.077506e+00
  2.105517e+01    1.075881e+00
  2.107104e+01    1.084397e+00
  2.108692e+01    1.079464e+00
  2.110279e+01    1.067678e+00
  2.111867e+01    1.074222e+00
  2.113455e+01    1.092157e+00
  2.115042e+01    1.069148e+00
  2.116630e+01    1.073392e+00
  2.118217e+01    1.094007e+00
  2.119805e+01    1.081709e+00
  2.121392e+01    1.086090e+00
  2.122980e+01    1.092703e+00
  2.124567e+01    1.103806e+00
  2.126155e+01    1.088524e+00
  2.127743e+01    1.103349e+00
  2.129330e+01    1.130194e+00
  2.130918e+01    1.126853e+00
  2.132505e+01    1.118134e+00
  2.134093e+01    1.111369e+00
  2.135680e+01    1.130562e+00
  2.137268e+01    1.144528e+00
  2.138855e+01    1.158154e+00
  2.140443e+01    1.140279e+00
  2.142031e+01    1.190892e+00
  2.143618e+01    1.207817e+00
  2.145206e+01    1.202184e+00
  2.146793e+01    1.240104e+00
  2.148381e+01    1.263619e+00
  2.149968e+01    1.298446e+00
  2.151556e+01    1.311588e+00
  2.153143e+01    1.348485e+00
  2.154731e+01    1.354214e+00
  2.156319e+01    1.396153e+00
  2.157906e+01    1.466338e+00
  2.159494e+01    1.518313e+00
  2.161081e+01    1.639462e+00
  2.162669e+01    1.722468e+00
  2.164256e+01    1.828193e+00
  2.165844e+01    1.941682e+00
  2.167431e+01    2.102380e+00
  2.169019e+01    2.327770e+00
  2.170607e+01    2.550796e+00
  2.172194e+01    2.827955e+00
  2.173782e+01    3.263948e+00
  2.175369e+01    3.742503e+00
  2.176957e+01    4.280855e+00
  2.178544e+01    4.811924e+00
  2.180132e+01    5.442426e+00
  2.181719e+01    6.143296e+00
  2.183307e+01    6.815409e+00
  2.184895e+01    7.417766e+00
  2.186482e+01    8.017021e+00
  2.188070e+01    8.517522e+00
  2.189657e+01    8.704091e+00
  2.191245e+01    8.616215e+00
  2.192832e+01    8.126768e+00
  2.194420e+01    7.397046e+00
  2.196007e+01    6.521527e+00
  2.197595e+01    5.568358e+00
  2.199183e+01    4.750364e+00
  2.200770e+01    4.024943e+00
  2.202358e+01    3.475689e+00
  2.203945e+01    3.032779e+00
  2.205533e+01    2.652915e+00
  2.207120e+01    2.401570e+00
  2.208708e+01    2.209485e+00
  2.210296e+01    2.007934e+00
  2.211883e+01    1.855279e+00
  2.213471e+01    1.730960e+00
  2.215058e+01    1.652152e+00
  2.216646e+01    1.543322e+00
  2.218233e+01    1.456926e+00
  2.219821e+01    1.384430e+00
  2.221408e+01    1.330027e+00
  2.222996e+01    1.279018e+00
  2.224584e+01    1.255526e+00
  2.226171e+01    1.217057e+00
  2.227759e+01    1.219344e+00
  2.229346e+01    1.181970e+00
  2.230934e+01    1.161387e+00
  2.232521e+01    1.152913e+00
  2.234109e+01    1.108581e+00
  2.235696e+01    1.125599e+00
  2.237284e+01    1.113957e+00
  2.238872e+01    1.082185e+00
  2.240459e+01    1.077533e+00
  2.242047e+01    1.039877e+00
  2.243634e+01    1.047348e+00
  2.245222e+01    1.024888e+00
  2.246809e+01    1.008701e+00
  2.248397e+01    9.977234e-01
  2.249984e+01    1.012478e+00
  2.251572e+01    1.009533e+00
  2.253160e+01    1.011492e+00
  2.254747e+01    9.994193e-01
  2.256335e+01    9.870943e-01
  2.257922e+01    9.665778e-01
  2.259510e+01    9.689955e-01
  2.261097e+01    9.668805e-01
  2.262685e+01    9.728723e-01
  2.264272e+01    9.614112e-01
  2.265860e+01    9.766712e-01
  2.267448e+01    9.694120e-01
  2.269035e+01    9.686969e-01
  2.270623e+01    9.610220e-01
  2.272210e+01    9.256149e-01
  2.273798e+01    9.270161e-01
  2.275385e+01    9.312127e-01
  2.276973e+01    9.362286e-01
  2.278560e+01    9.541185e-01
  2.280148e+01    9.286053e-01
  2.281736e+01    9.167040e-01
  2.283323e+01    9.308110e-01
  2.284911e+01    9.185194e-01
  2.286498e+01    9.176584e-01
  2.288086e+01    9.105383e-01
  2.289673e+01    9.003325e-01
  2.291261e+01    8.976970e-01
  2.292848e+01    9.075997e-01
  2.294436e+01    9.090469e-01
  2.296024e+01    8.893909e-01
  2.297611e+01    9.054044e-01
  2.299199e+01    8.947276e-01
  2.300786e+01    8.938338e-01
  2.302374e+01    9.091666e-01
  2.303961e+01    9.029792e-01
  2.305549e+01    8.788775e-01
  2.307137e+01    8.785992e-01
  2.308724e+01    8.554035e-01
  2.310312e+01    8.696249e-01
  2.311899e+01    8.754850e-01
  2.313487e+01    8.758383e-01
  2.315074e+01    8.767592e-01
  2.316662e+01    8.773338e-01
  2.318249e+01    8.679810e-01
  2.319837e+01    8.802851e-01
  2.321425e+01    8.631871e-01
  2.323012e+01    8.637255e-01
  2.324600e+01    8.567892e-01
  2.326187e+01    8.705026e-01
  2.327775e+01    8.939754e-01
  2.329362e+01    8.688164e-01
  2.330950e+01    8.661543e-01
  2.332537e+01    8.693889e-01
  2.334125e+01    8.504772e-01
  2.335713e+01    8.632019e-01
  2.337300e+01    8.561027e-01
  2.338888e+01    8.511563e-01
  2.340475e+01    8.475355e-01
  2.342063e+01    8.476339e-01
  2.343650e+01    8.499298e-01
  2.345238e+01    8.450699e-01
  2.346825e+01    8.453951e-01
  2.348413e+01    8.318635e-01
  2.350001e+01    8.278084e-01
  2.351588e+01    8.590434e-01
  2.353176e+01    8.521328e-01
  2.354763e+01    8.445138e-01
  2.356351e+01    8.235176e-01
  2.357938e+01    8.351619e-01
  2.359526e+01    8.357271e-01
  2.361113e+01    8.533435e-01
  2.362701e+01    8.363950e-01
  2.364289e+01    8.440112e-01
  2.365876e+01    8.275672e-01
  2.367464e+01    8.322216e-01
  2.369051e+01    8.502591e-01
  2.370639e+01    8.331026e-01
  2.372226e+01    8.187418e-01
  2.373814e+01    8.114845e-01
  2.375401e+01    8.006636e-01
  2.376989e+01    8.000952e-01
  2.378577e+01    8.203818e-01
  2.380164e+01    8.130986e-01
  2.381752e+01    8.093252e-01
  2.383339e+01    8.124073e-01
  2.384927e+01    7.871422e-01
  2.386514e+01    7.967110e-01
  2.388102e+01    8.166143e-01
  2.389689e+01    8.129041e-01
  2.391277e+01    7.982391e-01
  2.392865e+01    7.924480e-01
  2.394452e+01    8.099205e-01
  2.396040e+01    7.971210e-01
  2.397627e+01    7.969038e-01
  2.399215e+01    7.822921e-01
  2.400802e+01    7.965171e-01
  2.402390e+01    7.920026e-01
  2.403978e+01    7.747455e-01
  2.405565e+01    7.924702e-01
  2.407153e+01    7.982330e-01
  2.408740e+01    7.981713e-01
  2.410328e+01    7.968493e-01
  2.411915e+01    7.961352e-01
  2.413503e+01    7.950878e-01
  2.415090e+01    7.952099e-01
  2.416678e+01    8.001740e-01
  2.418266e+01    7.931158e-01
  2.419853e+01    7.535090e-01
  2.421441e+01    7.676366e-01
  2.423028e+01    7.932499e-01
  2.424616e+01    8.070180e-01
  2.426203e+01    7.910824e-01
  2.427791e+01    7.777085e-01
  2.429378e+01    7.856318e-01
  2.430966e+01    7.882417e-01
  2.432554e+01    7.933993e-01
  2.434141e+01    8.078528e-01
  2.435729e+01    8.053166e-01
  2.437316e+01    7.868094e-01
  2.438904e+01    7.908421e-01
  2.440491e+01    7.785404e-01
  2.442079e+01    7.890093e-01
  2.443666e+01    7.932745e-01
  2.445254e+01    7.913038e-01
  2.446842e+01    7.745152e-01
  2.448429e+01    7.935180e-01
  2.450017e+01    7.987118e-01
  2.451604e+01    8.029826e-01
  2.453192e+01    8.040730e-01
  2.454779e+01    7.859933e-01
  2.456367e+01    7.833164e-01
  2.457954e+01    8.091794e-01
  2.459542e+01    8.022558e-01
  2.461130e+01    7.951979e-01
  2.462717e+01    7.879949e-01
  2.464305e+01    7.928985e-01
  2.465892e+01    8.001835e-01
  2.467480e+01    7.915088e-01
  2.469067e+01    7.887277e-01
  2.470655e+01    7.813760e-01
  2.472242e+01    8.022969e-01
  2.473830e+01    8.095309e-01
  2.475418e+01    8.141046e-01
  2.477005e+01    7.956702e-01
  2.478593e+01    7.784538e-01
  2.480180e+01    7.698225e-01
  2.481768e+01    7.768594e-01
  2.483355e+01    7.849241e-01
  2.484943e+01    7.866173e-01
  2.486530e+01    7.858440e-01
  2.488118e+01    7.840331e-01
  2.489706e+01    7.787515e-01
  2.491293e+01    7.825959e-01
  2.492881e+01    7.920732e-01
  2.494468e+01    7.807716e-01
  2.496056e+01    7.724274e-01
  2.497643e+01    7.746453e-01
  2.499231e+01    8.027963e-01
  2.500819e+01    8.087803e-01
  2.502406e+01    8.134221e-01
  2.503994e+01    7.996641e-01
  2.505581e+01    7.796662e-01
  2.507169e+01    8.047467e-01
  2.508756e+01    8.203802e-01
  2.510344e+01    8.144360e-01
  2.511931e+01    8.155883e-01
  2.513519e+01    7.942108e-01
  2.515107e+01    8.174008e-01
  2.516694e+01    8.206075e-01
  2.518282e+01    8.069831e-01
  2.519869e+01    8.101129e-01
  2.521457e+01    8.218779e-01
  2.523044e+01    8.391193e-01
  2.524632e+01    8.514922e-01
  2.526219e+01    8.439530e-01
  2.527807e+01    8.361471e-01
  2.529395e+01    8.485622e-01
  2.530982e+01    8.403612e-01
  2.532570e+01    8.546930e-01
  2.534157e+01    8.851501e-01
  2.535745e+01    8.868658e-01
  2.537332e+01    8.775308e-01
  2.538920e+01    8.948101e-01
  2.540507e+01    8.915700e-01
  2.542095e+01    9.064949e-01
  2.543683e+01    9.172516e-01
  2.545270e+01    9.358499e-01
  2.546858e+01    9.297894e-01
  2.548445e+01    9.419095e-01
  2.550033e+01    9.734579e-01
  2.551620e+01    9.885682e-01
  2.553208e+01    1.004391e+00
  2.554795e+01    1.024679e+00
  2.556383e+01    1.035201e+00
  2.557971e+01    1.067299e+00
  2.559558e+01    1.088969e+00
  2.561146e+01    1.119033e+00
  2.562733e+01    1.152056e+00
  2.564321e+01    1.191962e+00
  2.565908e+01    1.247216e+00
  2.567496e+01    1.307936e+00
  2.569083e+01    1.381932e+00
  2.570671e+01    1.494725e+00
  2.572259e+01    1.618717e+00
  2.573846e+01    1.734828e+00
  2.575434e+01    1.884745e+00
  2.577021e+01    2.125582e+00
  2.578609e+01    2.366488e+00
  2.580196e+01    2.639427e+00
  2.581784e+01    3.019915e+00
  2.583371e+01    3.410449e+00
  2.584959e+01    3.864490e+00
  2.586547e+01    4.426713e+00
  2.588134e+01    5.012553e+00
  2.589722e+01    5.573141e+00
  2.591309e+01    6.095974e+00
  2.592897e+01    6.594436e+00
  2.594484e+01    7.012821e+00
  2.596072e+01    7.065163e+00
  2.597660e+01    6.977726e+00
  2.599247e+01    6.571319e+00
  2.600835e+01    5.990706e+00
  2.602422e+01    5.325201e+00
  2.604010e+01    4.579226e+00
  2.605597e+01    3.918635e+00
  2.607185e+01    3.341818e+00
  2.608772e+01    2.913508e+00
  2.610360e+01    2.591992e+00
  2.611948e+01    2.239964e+00
  2.613535e+01    2.060990e+00
  2.615123e+01    1.857749e+00
  2.616710e+01    1.695795e+00
  2.618298e+01    1.599136e+00
  2.619885e+01    1.477835e+00
  2.621473e+01    1.385546e+00
  2.623060e+01    1.297570e+00
  2.624648e+01    1.246107e+00
  2.626236e+01    1.196383e+00
  2.627823e+01    1.136341e+00
  2.629411e+01    1.097955e+00
  2.630998e+01    1.067281e+00
  2.632586e+01    1.071801e+00
  2.634173e+01    1.030785e+00
  2.635761e+01    1.009327e+00
  2.637348e+01    9.940076e-01
  2.638936e+01    9.831839e-01
  2.640524e+01    9.918524e-01
  2.642111e+01    9.574285e-01
  2.643699e+01    9.338856e-01
  2.645286e+01    9.288197e-01
  2.646874e+01    9.371746e-01
  2.648461e+01    9.169884e-01
  2.650049e+01    9.081430e-01
  2.651636e+01    9.060209e-01
  2.653224e+01    9.049067e-01
  2.654812e+01    8.867404e-01
  2.656399e+01    8.965586e-01
  2.657987e+01    8.965622e-01
  2.659574e+01    8.836278e-01
  2.661162e+01    8.940392e-01
  2.662749e+01    8.531629e-01
  2.664337e+01    8.663313e-01
  2.665924e+01    8.802143e-01
  2.667512e+01    8.610274e-01
  2.669100e+01    8.682504e-01
  2.670687e+01    8.623053e-01
  2.672275e+01    8.829705e-01
  2.673862e+01    8.729584e-01
  2.675450e+01    8.501594e-01
  2.677037e+01    8.647504e-01
  2.678625e+01    8.729424e-01
  2.680212e+01    8.776208e-01
  2.681800e+01    8.587204e-01
  2.683388e+01    8.695709e-01
  2.684975e+01    8.868017e-01
  2.686563e+01    8.785048e-01
  2.688150e+01    9.008068e-01
  2.689738e+01    9.254377e-01
  2.691325e+01    9.205025e-01
  2.692913e+01    9.288714e-01
  2.694501e+01    9.424778e-01
  2.696088e+01    9.503227e-01
  2.697676e+01    9.812871e-01
  2.699263e+01    9.730268e-01
  2.700851e+01    1.018064e+00
  2.702438e+01    1.064827e+00
  2.704026e+01    1.098537e+00
  2.705613e+01    1.133446e+00
  2.707201e+01    1.219662e+00
  2.708789e+01    1.303995e+00
  2.710376e+01    1.379960e+00
  2.711964e+01    1.486812e+00
  2.713551e+01    1.609909e+00
  2.715139e+01    1.729223e+00
  2.716726e+01    1.850870e+00
  2.718314e+01    1.979996e+00
  2.719901e+01    2.085654e+00
  2.721489e+01    2.127911e+00
  2.723077e+01    2.113875e+00
  2.724664e+01    2.066926e+00
  2.726252e+01    1.939965e+00
  2.727839e+01    1.781926e+00
  2.729427e+01    1.654189e+00
  2.731014e+01    1.522012e+00
  2.732602e+01    1.386094e+00
  2.734189e+01    1.305104e+00
  2.735777e+01    1.208926e+00
  2.737365e+01    1.144426e+00
  2.738952e+01    1.079569e+00
  2.740540e+01    1.031784e+00
  2.742127e+01    9.975101e-01
  2.743715e+01    9.553319e-01
  2.745302e+01    9.338440e-01
  2.746890e+01    9.288556e-01
  2.748477e+01    9.242500e-01
  2.750065e+01    9.095715e-01
  2.751653e+01    8.871608e-01
  2.753240e+01    8.830803e-01
  2.754828e+01    8.691461e-01
  2.756415e+01    8.532040e-01
  2.758003e+01    8.424557e-01
  2.759590e+01    8.367869e-01
  2.761178e+01    8.226761e-01
  2.762765e+01    8.442798e-01
  2.764353e+01    8.202798e-01
  2.765941e+01    7.976246e-01
  2.767528e+01    8.187347e-01
  2.769116e+01    8.107912e-01
  2.770703e+01    8.035264e-01
  2.772291e+01    7.901482e-01
  2.773878e+01    7.879272e-01
  2.775466e+01    8.147517e-01
  2.777054e+01    8.161458e-01
  2.778641e+01    8.077891e-01
  2.780229e+01    7.880202e-01
  2.781816e+01    7.883281e-01
  2.783404e+01    7.965230e-01
  2.784991e+01    8.080071e-01
  2.786579e+01    7.898693e-01
  2.788166e+01    7.947373e-01
  2.789754e+01    7.976741e-01
  2.791342e+01    7.923739e-01
  2.792929e+01    7.920099e-01
  2.794517e+01    7.863940e-01
  2.796104e+01    7.872439e-01
  2.797692e+01    7.872738e-01
  2.799279e+01    7.859803e-01
  2.800867e+01    7.611290e-01
  2.802454e+01    7.527393e-01
  2.804042e+01    7.779357e-01
  2.805630e+01    7.750465e-01
  2.807217e+01    7.711754e-01
  2.808805e+01    7.643480e-01
  2.810392e+01    7.598536e-01
  2.811980e+01    7.841452e-01
  2.813567e+01    7.748634e-01
  2.815155e+01    7.641166e-01
  2.816742e+01    7.619156e-01
  2.818330e+01    7.742657e-01
  2.819918e+01    7.575115e-01
  2.821505e+01    7.569970e-01
  2.823093e+01    7.747377e-01
  2.824680e+01    7.810019e-01
  2.826268e+01    7.757685e-01
  2.827855e+01    7.622915e-01
  2.829443e+01    7.615404e-01
  2.831030e+01    7.645906e-01
  2.832618e+01    7.627454e-01
  2.834206e+01    7.674266e-01
  2.835793e+01    7.752317e-01
  2.837381e+01    7.572287e-01
  2.838968e+01    7.646770e-01
  2.840556e+01    7.711099e-01
  2.842143e+01    7.474893e-01
  2.843731e+01    7.586383e-01
  2.845318e+01    7.566477e-01
  2.846906e+01    7.378428e-01
  2.848494e+01    7.373092e-01
  2.850081e+01    7.531511e-01
  2.851669e+01    7.456130e-01
  2.853256e+01    7.402170e-01
  2.854844e+01    7.473923e-01
  2.856431e+01    7.522441e-01
  2.858019e+01    7.524310e-01
  2.859606e+01    7.405592e-01
  2.861194e+01    7.413473e-01
  2.862782e+01    7.615886e-01
  2.864369e+01    7.566165e-01
  2.865957e+01    7.425015e-01
  2.867544e+01    7.473500e-01
  2.869132e+01    7.523128e-01
  2.870719e+01    7.489797e-01
  2.872307e+01    7.623270e-01
  2.873895e+01    7.409986e-01
  2.875482e+01    7.263671e-01
  2.877070e+01    7.369831e-01
  2.878657e+01    7.375385e-01
  2.880245e+01    7.319072e-01
  2.881832e+01    7.583284e-01
  2.883420e+01    7.385058e-01
  2.885007e+01    7.435448e-01
  2.886595e+01    7.570693e-01
  2.888183e+01    7.460484e-01
  2.889770e+01    7.479060e-01
  2.891358e+01    7.275769e-01
  2.892945e+01    7.605092e-01
  2.894533e+01    7.437553e-01
  2.896120e+01    7.380338e-01
  2.897708e+01    7.288170e-01
  2.899295e+01    7.284024e-01
  2.900883e+01    7.220125e-01
  2.902471e+01    7.285783e-01
  2.904058e+01    7.249445e-01
  2.905646e+01    7.330465e-01
  2.907233e+01    7.205017e-01
  2.908821e+01    7.236674e-01
  2.910408e+01    7.175737e-01
  2.911996e+01    7.087964e-01
  2.913583e+01    7.166830e-01
  2.915171e+01    7.187864e-01
  2.916759e+01    7.429474e-01
  2.918346e+01    7.447921e-01
  2.919934e+01    7.289036e-01
  2.921521e+01    7.203584e-01
  2.923109e+01    6.996486e-01
  2.924696e+01    7.083079e-01
  2.926284e+01    7.239617e-01
  2.927871e+01    7.350830e-01
  2.929459e+01    7.346015e-01
  2.931047e+01    7.128139e-01
  2.932634e+01    7.242572e-01
  2.934222e+01    7.198972e-01
  2.935809e+01    7.281520e-01
  2.937397e+01    7.288078e-01
  2.938984e+01    7.484816e-01
  2.940572e+01    7.327890e-01
  2.942159e+01    7.071273e-01
  2.943747e+01    7.185548e-01
  2.945335e+01    7.221630e-01
  2.946922e+01    7.185677e-01
  2.948510e+01    7.021927e-01
  2.950097e+01    7.237123e-01
  2.951685e+01    7.376728e-01
  2.953272e+01    7.305804e-01
  2.954860e+01    7.425770e-01
  2.956447e+01    7.052329e-01
  2.958035e+01    7.146622e-01
  2.959623e+01    7.135217e-01
  2.961210e+01    7.061459e-01
  2.962798e+01    7.072859e-01
  2.964385e+01    7.113242e-01
  2.965973e+01    7.180233e-01
  2.967560e+01    7.154400e-01
  2.969148e+01    7.120426e-01
  2.970736e+01    7.125035e-01
  2.972323e+01    7.224724e-01
  2.973911e+01    7.005457e-01
  2.975498e+01    7.054250e-01
  2.977086e+01    7.227387e-01
  2.978673e+01    7.220298e-01
  2.980261e+01    7.182826e-01
  2.981848e+01    7.019560e-01
  2.983436e+01    7.131830e-01
  2.985024e+01    7.150481e-01
  2.986611e+01    6.790514e-01
  2.988199e+01    6.874144e-01
  2.989786e+01    7.187049e-01
  2.991374e+01    6.980218e-01
  2.992961e+01    7.224875e-01
  2.994549e+01    7.149227e-01
  2.996136e+01    7.202793e-01
  2.997724e+01    7.182733e-01
  2.999312e+01    7.200938e-01
  3.000899e+01    7.185312e-01
  3.002487e+01    7.339557e-01
  3.004074e+01    7.415280e-01
  3.005662e+01    7.342759e-01
  3.007249e+01    7.355797e-01
  3.008837e+01    7.351549e-01
  3.010424e+01    7.152240e-01
  3.012012e+01    7.293726e-01
  3.013600e+01    7.124951e-01
  3.015187e+01    6.914421e-01
  3.016775e+01    7.141547e-01
  3.018362e+01    7.112097e-01
  3.019950e+01    7.287485e-01
  3.021537e+01    7.207047e-01
  3.023125e+01    7.212131e-01
  3.024712e+01    7.103653e-01
  3.026300e+01    7.003323e-01
  3.027888e+01    7.124556e-01
  3.029475e+01    6.942482e-01
  3.031063e+01    6.988370e-01
  3.032650e+01    7.076259e-01
  3.034238e+01    7.104117e-01
  3.035825e+01    7.219467e-01
  3.037413e+01    7.177201e-01
  3.039000e+01    6.977120e-01
  3.040588e+01    7.091963e-01
  3.042176e+01    7.086222e-01
  3.043763e+01    6.980190e-01
  3.045351e+01    7.088502e-01
  3.046938e+01    6.958647e-01
  3.048526e+01    6.953524e-01
  3.050113e+01    6.673757e-01
  3.051701e+01    6.788155e-01
  3.053288e+01    6.896648e-01
  3.054876e+01    7.297677e-01
  3.056464e+01    7.043768e-01
  3.058051e+01    6.970184e-01
  3.059639e+01    7.085120e-01
  3.061226e+01    7.181522e-01
  3.062814e+01    7.275257e-01
  3.064401e+01    7.124814e-01
  3.065989e+01    7.013588e-01
  3.067577e+01    6.875353e-01
  3.069164e+01    6.864582e-01
  3.070752e+01    6.978207e-01
  3.072339e+01    7.076068e-01
  3.073927e+01    6.962559e-01
  3.075514e+01    7.032272e-01
  3.077102e+01    6.995417e-01
  3.078689e+01    7.091451e-01
  3.080277e+01    7.140800e-01
  3.081865e+01    7.119176e-01
  3.083452e+01    7.141008e-01
  3.085040e+01    7.121180e-01
  3.086627e+01    7.021759e-01
  3.088215e+01    7.177721e-01
  3.089802e+01    7.204535e-01
  3.091390e+01    7.344994e-01
  3.092977e+01    7.273247e-01
  3.094565e+01    7.007554e-01
  3.096153e+01    7.067029e-01
  3.097740e+01    7.003272e-01
  3.099328e+01    7.071966e-01
  3.100915e+01    7.133929e-01
  3.102503e+01    7.101967e-01
  3.104090e+01    7.254440e-01
  3.105678e+01    7.228804e-01
  3.107265e+01    7.124005e-01
  3.108853e+01    7.050832e-01
  3.110441e+01    7.054566e-01
  3.112028e+01    7.256548e-01
  3.113616e+01    7.214804e-01
  3.115203e+01    7.122349e-01
  3.116791e+01    7.145892e-01
  3.118378e+01    7.285248e-01
  3.119966e+01    7.299669e-01
  3.121553e+01    7.304174e-01
  3.123141e+01    7.538985e-01
  3.124729e+01    7.332665e-01
  3.126316e+01    7.355624e-01
  3.127904e+01    7.220664e-01
  3.129491e+01    7.200996e-01
  3.131079e+01    7.220548e-01
  3.132666e+01    7.376469e-01
  3.134254e+01    7.369673e-01
  3.135841e+01    7.431717e-01
  3.137429e+01    7.509668e-01
  3.139017e+01    7.290119e-01
  3.140604e+01    7.450800e-01
  3.142192e+01    7.392508e-01
  3.143779e+01    7.372893e-01
  3.145367e+01    7.469674e-01
  3.146954e+01    7.609457e-01
  3.148542e+01    7.617090e-01
  3.150129e+01    7.567558e-01
  3.151717e+01    7.697914e-01
  3.153305e+01    7.750964e-01
  3.154892e+01    7.644380e-01
  3.156480e+01    7.630586e-01
  3.158067e+01    7.953851e-01
  3.159655e+01    8.176162e-01
  3.161242e+01    8.383105e-01
  3.162830e+01    8.679121e-01
  3.164418e+01    8.704175e-01
  3.166005e+01    8.657101e-01
  3.167593e+01    9.036658e-01
  3.169180e+01    9.204335e-01
  3.170768e+01    9.506368e-01
  3.172355e+01    9.810217e-01
  3.173943e+01    1.032102e+00
  3.175530e+01    1.110556e+00
  3.177118e+01    1.155051e+00
  3.178706e+01    1.278736e+00
  3.180293e+01    1.372719e+00
  3.181881e+01    1.506955e+00
  3.183468e+01    1.673149e+00
  3.185056e+01    1.800080e+00
  3.186643e+01    1.955180e+00
  3.188231e+01    2.027757e+00
  3.189818e+01    2.081946e+00
  3.191406e+01    2.080036e+00
  3.192994e+01    2.032918e+00
  3.194581e+01    1.933708e+00
  3.196169e+01    1.820512e+00
  3.197756e+01    1.680223e+00
  3.199344e+01    1.540912e+00
  3.200931e+01    1.409050e+00
  3.202519e+01    1.269325e+00
  3.204106e+01    1.187756e+00
  3.205694e+01    1.097429e+00
  3.207282e+01    1.052521e+00
  3.208869e+01    9.906903e-01
  3.210457e+01    9.347250e-01
  3.212044e+01    8.994246e-01
  3.213632e+01    8.806357e-01
  3.215219e+01    8.359150e-01
  3.216807e+01    8.451845e-01
  3.218394e+01    8.299473e-01
  3.219982e+01    7.866445e-01
  3.221570e+01    8.035734e-01
  3.223157e+01    7.961913e-01
  3.224745e+01    7.810645e-01
  3.226332e+01    7.691637e-01
  3.227920e+01    7.516334e-01
  3.229507e+01    7.356127e-01
  3.231095e+01    7.432582e-01
  3.232682e+01    7.480245e-01
  3.234270e+01    7.255090e-01
  3.235858e+01    7.272414e-01
  3.237445e+01    7.338040e-01
  3.239033e+01    7.079722e-01
  3.240620e+01    6.995494e-01
  3.242208e+01    7.105989e-01
  3.243795e+01    7.245389e-01
  3.245383e+01    7.159598e-01
  3.246970e+01    6.998773e-01
  3.248558e+01    6.900851e-01
  3.250146e+01    7.100398e-01
  3.251733e+01    7.092658e-01
  3.253321e+01    6.985163e-01
  3.254908e+01    6.965190e-01
