# == pyFAI calibration ==
# Distance Sample to Detector: 0.3999999939076516 m
# PONI: 9.750e-02, 1.135e-01 m
# Rotations: -0.000175 0.000000 -0.000000 rad
# 
# == Fit2d calibration ==
# Distance Sample-beamCenter: 400.000 mm
# Center: x=1514.000, y=1300.000 pix
# Tilt: 0.010 deg  TiltPlanRot: 0.010 deg
# 
# Detector Detector	 Spline= None	 PixelSize= 7.500e-05, 7.500e-05 m
#    Detector has a mask: False 
#    Detector has a dark current: False 
#    detector has a flat field: False 
# 
# Wavelength: 6.888e-11 m
# Mask applied: user provided
# Dark current applied: False
# Flat field applied: False
# Polarization factor: 0.99
# Normalization factor: 1.0
# --> /home/myspot/data/2024_07_Rosario/Ru-CGO-ex/2024-07-27_002_Ru-CGO-ex_Activtation_ramp_000002_data_000115.dat
#       q_nm^-1             I 
  2.003187e-02    9.939597e-02
  3.590745e-02    2.277007e-01
  5.178302e-02    6.892205e-02
  6.765859e-02    1.659063e-01
  8.353417e-02    2.263240e-01
  9.940974e-02    9.736493e-02
  1.152853e-01    6.535669e-02
  1.311609e-01    9.019940e-02
  1.470365e-01    1.548331e-02
  1.629120e-01    3.037870e-02
  1.787876e-01    2.257930e-02
  1.946632e-01    1.402261e-02
  2.105388e-01    5.267712e-02
  2.264143e-01    4.036020e-02
  2.422899e-01    5.549468e-02
  2.581655e-01    8.060830e-02
  2.740411e-01    3.517053e-02
  2.899166e-01    4.199956e-02
  3.057922e-01    3.803374e-02
  3.216678e-01    3.186810e-02
  3.375433e-01    6.565027e-02
  3.534189e-01    5.398552e-02
  3.692945e-01    4.357833e-02
  3.851701e-01    5.204367e-02
  4.010456e-01    6.891654e-02
  4.169212e-01    6.573380e-02
  4.327968e-01    5.302658e-02
  4.486724e-01    4.541742e-02
  4.645479e-01    4.387606e-02
  4.804235e-01    3.243769e-02
  4.962991e-01    3.992694e-02
  5.121747e-01    6.308594e-02
  5.280502e-01    2.910635e-02
  5.439258e-01    3.396032e-02
  5.598014e-01    4.855883e-02
  5.756770e-01    3.043930e-02
  5.915525e-01    5.607341e-02
  6.074281e-01    4.316942e-02
  6.233037e-01    4.215987e-02
  6.391793e-01    4.845261e-02
  6.550548e-01    5.115980e-02
  6.709304e-01    2.450866e-02
  6.868060e-01    3.794387e-02
  7.026815e-01    4.031302e-02
  7.185571e-01    2.617078e-02
  7.344327e-01    5.145039e-02
  7.503083e-01    6.895795e-02
  7.661838e-01    4.877551e-02
  7.820594e-01    9.149086e-02
  7.979350e-01    1.487323e-01
  8.138106e-01    1.955584e-01
  8.296861e-01    2.406152e-01
  8.455617e-01    2.690035e-01
  8.614373e-01    3.351865e-01
  8.773129e-01    4.058736e-01
  8.931884e-01    4.888490e-01
  9.090640e-01    5.467679e-01
  9.249396e-01    5.415038e-01
  9.408152e-01    6.935957e-01
  9.566907e-01    7.111338e-01
  9.725663e-01    8.701652e-01
  9.884419e-01    9.259601e-01
  1.004317e+00    9.674233e-01
  1.020193e+00    1.126848e+00
  1.036069e+00    1.274680e+00
  1.051944e+00    1.296728e+00
  1.067820e+00    1.248548e+00
  1.083695e+00    1.312663e+00
  1.099571e+00    1.367564e+00
  1.115446e+00    1.455833e+00
  1.131322e+00    1.382733e+00
  1.147198e+00    1.332265e+00
  1.163073e+00    1.426992e+00
  1.178949e+00    1.519026e+00
  1.194824e+00    1.673800e+00
  1.210700e+00    1.941637e+00
  1.226575e+00    2.073169e+00
  1.242451e+00    2.122425e+00
  1.258327e+00    2.212734e+00
  1.274202e+00    2.327498e+00
  1.290078e+00    2.338830e+00
  1.305953e+00    2.579363e+00
  1.321829e+00    2.556136e+00
  1.337705e+00    2.416163e+00
  1.353580e+00    2.475508e+00
  1.369456e+00    2.581101e+00
  1.385331e+00    2.542260e+00
  1.401207e+00    2.655998e+00
  1.417082e+00    2.692331e+00
  1.432958e+00    2.661885e+00
  1.448834e+00    2.632635e+00
  1.464709e+00    2.650412e+00
  1.480585e+00    2.814681e+00
  1.496460e+00    2.794930e+00
  1.512336e+00    2.838822e+00
  1.528211e+00    2.786817e+00
  1.544087e+00    2.895754e+00
  1.559963e+00    3.015469e+00
  1.575838e+00    2.852450e+00
  1.591714e+00    2.851967e+00
  1.607589e+00    2.824955e+00
  1.623465e+00    2.746498e+00
  1.639340e+00    2.712254e+00
  1.655216e+00    2.792099e+00
  1.671092e+00    2.775136e+00
  1.686967e+00    2.749426e+00
  1.702843e+00    2.852879e+00
  1.718718e+00    2.725981e+00
  1.734594e+00    2.655874e+00
  1.750469e+00    2.647550e+00
  1.766345e+00    2.709893e+00
  1.782221e+00    2.859983e+00
  1.798096e+00    2.777990e+00
  1.813972e+00    2.859363e+00
  1.829847e+00    2.738180e+00
  1.845723e+00    2.624152e+00
  1.861598e+00    2.744480e+00
  1.877474e+00    2.694619e+00
  1.893350e+00    2.678830e+00
  1.909225e+00    2.587823e+00
  1.925101e+00    2.727566e+00
  1.940976e+00    2.668556e+00
  1.956852e+00    2.617159e+00
  1.972727e+00    2.736918e+00
  1.988603e+00    2.750749e+00
  2.004479e+00    2.548654e+00
  2.020354e+00    2.619754e+00
  2.036230e+00    2.789812e+00
  2.052105e+00    2.737899e+00
  2.067981e+00    2.681041e+00
  2.083856e+00    2.704830e+00
  2.099732e+00    2.692052e+00
  2.115608e+00    2.763433e+00
  2.131483e+00    2.717398e+00
  2.147359e+00    2.673954e+00
  2.163234e+00    2.736994e+00
  2.179110e+00    2.731771e+00
  2.194985e+00    2.732762e+00
  2.210861e+00    2.786665e+00
  2.226737e+00    2.745164e+00
  2.242612e+00    2.657434e+00
  2.258488e+00    2.674867e+00
  2.274363e+00    2.736528e+00
  2.290239e+00    2.737341e+00
  2.306115e+00    2.757268e+00
  2.321990e+00    2.670271e+00
  2.337866e+00    2.680065e+00
  2.353741e+00    2.725313e+00
  2.369617e+00    2.679099e+00
  2.385492e+00    2.659471e+00
  2.401368e+00    2.726994e+00
  2.417244e+00    2.616902e+00
  2.433119e+00    2.667445e+00
  2.448995e+00    2.810669e+00
  2.464870e+00    2.775330e+00
  2.480746e+00    2.709270e+00
  2.496621e+00    2.710694e+00
  2.512497e+00    2.650665e+00
  2.528373e+00    2.731651e+00
  2.544248e+00    2.709439e+00
  2.560124e+00    2.681749e+00
  2.575999e+00    2.717482e+00
  2.591875e+00    2.683563e+00
  2.607750e+00    2.771534e+00
  2.623626e+00    2.754460e+00
  2.639502e+00    2.851249e+00
  2.655377e+00    2.823648e+00
  2.671253e+00    2.825516e+00
  2.687128e+00    2.847914e+00
  2.703004e+00    2.684845e+00
  2.718879e+00    2.754688e+00
  2.734755e+00    2.738111e+00
  2.750631e+00    2.676307e+00
  2.766506e+00    2.745116e+00
  2.782382e+00    2.732202e+00
  2.798257e+00    2.722142e+00
  2.814133e+00    2.784939e+00
  2.830008e+00    2.770061e+00
  2.845884e+00    2.794244e+00
  2.861760e+00    2.814066e+00
  2.877635e+00    2.792476e+00
  2.893511e+00    2.810326e+00
  2.909386e+00    2.748942e+00
  2.925262e+00    2.719541e+00
  2.941137e+00    2.826516e+00
  2.957013e+00    2.925923e+00
  2.972889e+00    2.802761e+00
  2.988764e+00    2.799592e+00
  3.004640e+00    2.895587e+00
  3.020515e+00    2.868203e+00
  3.036391e+00    2.827705e+00
  3.052266e+00    2.836268e+00
  3.068142e+00    2.774776e+00
  3.084018e+00    2.776108e+00
  3.099893e+00    2.820308e+00
  3.115769e+00    2.893120e+00
  3.131644e+00    2.877418e+00
  3.147520e+00    2.883449e+00
  3.163395e+00    2.878723e+00
  3.179271e+00    2.838694e+00
  3.195147e+00    2.874184e+00
  3.211022e+00    2.819087e+00
  3.226898e+00    2.869928e+00
  3.242773e+00    2.886949e+00
  3.258649e+00    2.808863e+00
  3.274525e+00    2.848414e+00
  3.290400e+00    2.831854e+00
  3.306276e+00    2.814807e+00
  3.322151e+00    2.864425e+00
  3.338027e+00    2.841955e+00
  3.353902e+00    2.835284e+00
  3.369778e+00    2.888899e+00
  3.385654e+00    2.966183e+00
  3.401529e+00    2.907031e+00
  3.417405e+00    2.912037e+00
  3.433280e+00    2.909683e+00
  3.449156e+00    2.873582e+00
  3.465031e+00    2.855215e+00
  3.480907e+00    2.928030e+00
  3.496783e+00    2.919435e+00
  3.512658e+00    2.906481e+00
  3.528534e+00    2.825070e+00
  3.544409e+00    2.873948e+00
  3.560285e+00    2.880047e+00
  3.576160e+00    2.856597e+00
  3.592036e+00    2.814944e+00
  3.607912e+00    2.887199e+00
  3.623787e+00    2.806002e+00
  3.639663e+00    2.898369e+00
  3.655538e+00    2.911587e+00
  3.671414e+00    2.855937e+00
  3.687289e+00    2.824422e+00
  3.703165e+00    2.876787e+00
  3.719041e+00    2.968489e+00
  3.734916e+00    2.988907e+00
  3.750792e+00    3.027445e+00
  3.766667e+00    3.017296e+00
  3.782543e+00    2.910831e+00
  3.798418e+00    2.948014e+00
  3.814294e+00    2.935761e+00
  3.830170e+00    2.929615e+00
  3.846045e+00    2.928804e+00
  3.861921e+00    3.030478e+00
  3.877796e+00    3.013245e+00
  3.893672e+00    2.926623e+00
  3.909547e+00    2.974484e+00
  3.925423e+00    3.025454e+00
  3.941299e+00    2.943225e+00
  3.957174e+00    2.937979e+00
  3.973050e+00    3.045535e+00
  3.988925e+00    2.920686e+00
  4.004801e+00    2.923838e+00
  4.020676e+00    3.012388e+00
  4.036552e+00    2.976236e+00
  4.052428e+00    2.941087e+00
  4.068303e+00    3.016947e+00
  4.084179e+00    2.990317e+00
  4.100054e+00    2.964545e+00
  4.115930e+00    3.015976e+00
  4.131806e+00    2.905722e+00
  4.147681e+00    2.929873e+00
  4.163557e+00    2.967285e+00
  4.179432e+00    3.034737e+00
  4.195308e+00    2.988865e+00
  4.211183e+00    2.882098e+00
  4.227059e+00    2.972826e+00
  4.242935e+00    3.010189e+00
  4.258810e+00    3.002735e+00
  4.274686e+00    3.058674e+00
  4.290561e+00    3.082071e+00
  4.306437e+00    3.057332e+00
  4.322312e+00    2.935879e+00
  4.338188e+00    2.978040e+00
  4.354064e+00    2.962751e+00
  4.369939e+00    2.908616e+00
  4.385815e+00    2.901626e+00
  4.401690e+00    2.933044e+00
  4.417566e+00    3.002016e+00
  4.433441e+00    3.041023e+00
  4.449317e+00    3.044818e+00
  4.465193e+00    3.051055e+00
  4.481068e+00    2.986385e+00
  4.496944e+00    2.996275e+00
  4.512819e+00    2.965561e+00
  4.528695e+00    3.022002e+00
  4.544570e+00    3.012565e+00
  4.560446e+00    3.051981e+00
  4.576322e+00    3.091527e+00
  4.592197e+00    3.055295e+00
  4.608073e+00    3.018572e+00
  4.623948e+00    2.964654e+00
  4.639824e+00    3.037102e+00
  4.655699e+00    3.027770e+00
  4.671575e+00    3.004099e+00
  4.687451e+00    3.098625e+00
  4.703326e+00    3.058914e+00
  4.719202e+00    2.994909e+00
  4.735077e+00    3.245242e+00
  4.750953e+00    3.213358e+00
  4.766828e+00    3.053986e+00
  4.782704e+00    2.990866e+00
  4.798580e+00    3.074436e+00
  4.814455e+00    3.000573e+00
  4.830331e+00    3.049086e+00
  4.846206e+00    3.111808e+00
  4.862082e+00    3.137393e+00
  4.877957e+00    3.071598e+00
  4.893833e+00    3.071334e+00
  4.909709e+00    3.032252e+00
  4.925584e+00    3.102310e+00
  4.941460e+00    3.090999e+00
  4.957335e+00    3.094874e+00
  4.973211e+00    3.104179e+00
  4.989086e+00    3.068979e+00
  5.004962e+00    3.110037e+00
  5.020838e+00    3.042476e+00
  5.036713e+00    3.048420e+00
  5.052589e+00    3.073002e+00
  5.068464e+00    3.137959e+00
  5.084340e+00    3.035636e+00
  5.100216e+00    3.024902e+00
  5.116091e+00    3.084002e+00
  5.131967e+00    3.172172e+00
  5.147842e+00    3.205633e+00
  5.163718e+00    3.253871e+00
  5.179593e+00    3.083699e+00
  5.195469e+00    3.107186e+00
  5.211345e+00    3.087056e+00
  5.227220e+00    3.035711e+00
  5.243096e+00    3.012711e+00
  5.258971e+00    3.038426e+00
  5.274847e+00    3.004578e+00
  5.290722e+00    3.077568e+00
  5.306598e+00    3.089603e+00
  5.322474e+00    3.062969e+00
  5.338349e+00    3.064639e+00
  5.354225e+00    3.043383e+00
  5.370100e+00    3.066185e+00
  5.385976e+00    3.082616e+00
  5.401851e+00    2.975298e+00
  5.417727e+00    3.038944e+00
  5.433603e+00    3.060615e+00
  5.449478e+00    3.111303e+00
  5.465354e+00    3.035707e+00
  5.481229e+00    3.033604e+00
  5.497105e+00    3.012050e+00
  5.512980e+00    2.930240e+00
  5.528856e+00    3.050676e+00
  5.544732e+00    3.097685e+00
  5.560607e+00    3.039410e+00
  5.576483e+00    3.039606e+00
  5.592358e+00    2.954707e+00
  5.608234e+00    2.957186e+00
  5.624109e+00    3.009396e+00
  5.639985e+00    3.105005e+00
  5.655861e+00    3.083118e+00
  5.671736e+00    3.032106e+00
  5.687612e+00    3.042479e+00
  5.703487e+00    3.033348e+00
  5.719363e+00    2.954713e+00
  5.735238e+00    3.003966e+00
  5.751114e+00    2.961670e+00
  5.766990e+00    2.995718e+00
  5.782865e+00    3.085306e+00
  5.798741e+00    3.053925e+00
  5.814616e+00    3.124193e+00
  5.830492e+00    3.044868e+00
  5.846367e+00    2.993836e+00
  5.862243e+00    3.012336e+00
  5.878119e+00    3.012596e+00
  5.893994e+00    2.974593e+00
  5.909870e+00    2.903789e+00
  5.925745e+00    2.989344e+00
  5.941621e+00    2.997286e+00
  5.957497e+00    2.947586e+00
  5.973372e+00    2.950314e+00
  5.989248e+00    2.933787e+00
  6.005123e+00    2.917572e+00
  6.020999e+00    2.953000e+00
  6.036874e+00    2.970889e+00
  6.052750e+00    3.027689e+00
  6.068626e+00    3.036265e+00
  6.084501e+00    2.974937e+00
  6.100377e+00    3.008626e+00
  6.116252e+00    2.935003e+00
  6.132128e+00    3.045545e+00
  6.148003e+00    2.998410e+00
  6.163879e+00    2.906688e+00
  6.179755e+00    2.942590e+00
  6.195630e+00    3.011678e+00
  6.211506e+00    3.005214e+00
  6.227381e+00    3.046612e+00
  6.243257e+00    2.985363e+00
  6.259132e+00    2.927634e+00
  6.275008e+00    2.988202e+00
  6.290884e+00    3.004110e+00
  6.306759e+00    2.973837e+00
  6.322635e+00    2.994966e+00
  6.338510e+00    3.042617e+00
  6.354386e+00    3.039074e+00
  6.370261e+00    2.976108e+00
  6.386137e+00    2.968622e+00
  6.402013e+00    2.939686e+00
  6.417888e+00    2.948411e+00
  6.433764e+00    2.979286e+00
  6.449639e+00    2.998272e+00
  6.465515e+00    3.065821e+00
  6.481390e+00    2.975093e+00
  6.497266e+00    2.896007e+00
  6.513142e+00    2.883939e+00
  6.529017e+00    2.951068e+00
  6.544893e+00    2.963795e+00
  6.560768e+00    3.009578e+00
  6.576644e+00    3.046868e+00
  6.592519e+00    3.008356e+00
  6.608395e+00    3.022451e+00
  6.624271e+00    3.026399e+00
  6.640146e+00    3.025441e+00
  6.656022e+00    2.990841e+00
  6.671897e+00    2.989009e+00
  6.687773e+00    2.982079e+00
  6.703648e+00    2.956737e+00
  6.719524e+00    2.919258e+00
  6.735400e+00    2.913394e+00
  6.751275e+00    2.949387e+00
  6.767151e+00    3.016748e+00
  6.783026e+00    3.004145e+00
  6.798902e+00    2.970405e+00
  6.814777e+00    2.967345e+00
  6.830653e+00    2.937628e+00
  6.846529e+00    2.913656e+00
  6.862404e+00    2.910681e+00
  6.878280e+00    2.934778e+00
  6.894155e+00    2.916494e+00
  6.910031e+00    2.896945e+00
  6.925907e+00    2.876710e+00
  6.941782e+00    2.949404e+00
  6.957658e+00    2.919193e+00
  6.973533e+00    2.901756e+00
  6.989409e+00    2.915951e+00
  7.005284e+00    2.986445e+00
  7.021160e+00    2.937093e+00
  7.037036e+00    3.021808e+00
  7.052911e+00    3.090739e+00
  7.068787e+00    3.043389e+00
  7.084662e+00    2.977805e+00
  7.100538e+00    2.918295e+00
  7.116413e+00    2.939036e+00
  7.132289e+00    2.915319e+00
  7.148165e+00    2.936885e+00
  7.164040e+00    2.964705e+00
  7.179916e+00    2.958601e+00
  7.195791e+00    2.944040e+00
  7.211667e+00    2.968853e+00
  7.227542e+00    2.968702e+00
  7.243418e+00    2.992361e+00
  7.259294e+00    2.942961e+00
  7.275169e+00    3.011510e+00
  7.291045e+00    2.973624e+00
  7.306920e+00    2.910303e+00
  7.322796e+00    2.974488e+00
  7.338671e+00    2.921846e+00
  7.354547e+00    2.942822e+00
  7.370423e+00    2.949598e+00
  7.386298e+00    2.900388e+00
  7.402174e+00    2.952626e+00
  7.418049e+00    2.963243e+00
  7.433925e+00    2.993217e+00
  7.449800e+00    2.936340e+00
  7.465676e+00    2.908526e+00
  7.481552e+00    2.891588e+00
  7.497427e+00    2.896451e+00
  7.513303e+00    2.863144e+00
  7.529178e+00    2.921590e+00
  7.545054e+00    2.952261e+00
  7.560929e+00    2.886705e+00
  7.576805e+00    2.864195e+00
  7.592681e+00    2.913074e+00
  7.608556e+00    2.888863e+00
  7.624432e+00    2.899196e+00
  7.640307e+00    2.834047e+00
  7.656183e+00    2.859721e+00
  7.672058e+00    2.890519e+00
  7.687934e+00    2.863035e+00
  7.703810e+00    2.900757e+00
  7.719685e+00    2.951219e+00
  7.735561e+00    2.908499e+00
  7.751436e+00    2.883153e+00
  7.767312e+00    2.924221e+00
  7.783187e+00    2.946137e+00
  7.799063e+00    2.868253e+00
  7.814939e+00    2.863016e+00
  7.830814e+00    2.940158e+00
  7.846690e+00    2.911537e+00
  7.862565e+00    2.879083e+00
  7.878441e+00    2.885025e+00
  7.894317e+00    2.869885e+00
  7.910192e+00    2.843252e+00
  7.926068e+00    2.851433e+00
  7.941943e+00    2.858659e+00
  7.957819e+00    2.881376e+00
  7.973694e+00    2.884306e+00
  7.989570e+00    2.878737e+00
  8.005446e+00    2.931403e+00
  8.021321e+00    2.868431e+00
  8.037197e+00    2.864768e+00
  8.053072e+00    2.842370e+00
  8.068948e+00    2.881083e+00
  8.084823e+00    2.860925e+00
  8.100699e+00    2.869936e+00
  8.116575e+00    2.898253e+00
  8.132450e+00    2.880888e+00
  8.148326e+00    2.937506e+00
  8.164201e+00    2.943700e+00
  8.180077e+00    2.892805e+00
  8.195952e+00    2.903040e+00
  8.211828e+00    2.944201e+00
  8.227704e+00    2.901563e+00
  8.243579e+00    2.927032e+00
  8.259455e+00    2.940039e+00
  8.275330e+00    2.874707e+00
  8.291206e+00    2.866726e+00
  8.307081e+00    2.890110e+00
  8.322957e+00    2.874895e+00
  8.338833e+00    2.865016e+00
  8.354708e+00    2.887527e+00
  8.370584e+00    2.842100e+00
  8.386459e+00    2.867305e+00
  8.402335e+00    2.803751e+00
  8.418210e+00    2.832947e+00
  8.434086e+00    2.901109e+00
  8.449962e+00    2.855872e+00
  8.465837e+00    2.849105e+00
  8.481713e+00    2.830858e+00
  8.497588e+00    2.799112e+00
  8.513464e+00    2.832847e+00
  8.529339e+00    2.859577e+00
  8.545215e+00    2.898951e+00
  8.561091e+00    2.848244e+00
  8.576966e+00    2.887722e+00
  8.592842e+00    2.902003e+00
  8.608717e+00    2.817080e+00
  8.624593e+00    2.786218e+00
  8.640468e+00    2.832199e+00
  8.656344e+00    2.815783e+00
  8.672220e+00    2.795404e+00
  8.688095e+00    2.816670e+00
  8.703971e+00    2.843962e+00
  8.719846e+00    2.871585e+00
  8.735722e+00    2.845804e+00
  8.751598e+00    2.836215e+00
  8.767473e+00    2.830595e+00
  8.783349e+00    2.821105e+00
  8.799224e+00    2.814545e+00
  8.815100e+00    2.733268e+00
  8.830975e+00    2.776031e+00
  8.846851e+00    2.827952e+00
  8.862727e+00    2.791637e+00
  8.878602e+00    2.746608e+00
  8.894478e+00    2.704809e+00
  8.910353e+00    2.838311e+00
  8.926229e+00    2.870087e+00
  8.942104e+00    2.767352e+00
  8.957980e+00    2.755015e+00
  8.973856e+00    2.801986e+00
  8.989731e+00    2.776165e+00
  9.005607e+00    2.768591e+00
  9.021482e+00    2.746727e+00
  9.037358e+00    2.773355e+00
  9.053233e+00    2.782217e+00
  9.069109e+00    2.732991e+00
  9.084985e+00    2.721620e+00
  9.100860e+00    2.737930e+00
  9.116736e+00    2.799169e+00
  9.132611e+00    2.793939e+00
  9.148487e+00    2.744251e+00
  9.164362e+00    2.699498e+00
  9.180238e+00    2.754685e+00
  9.196114e+00    2.745090e+00
  9.211989e+00    2.698712e+00
  9.227865e+00    2.718392e+00
  9.243740e+00    2.727587e+00
  9.259616e+00    2.736490e+00
  9.275491e+00    2.753972e+00
  9.291367e+00    2.738330e+00
  9.307243e+00    2.725469e+00
  9.323118e+00    2.757301e+00
  9.338994e+00    2.731696e+00
  9.354869e+00    2.701866e+00
  9.370745e+00    2.728924e+00
  9.386620e+00    2.715312e+00
  9.402496e+00    2.683025e+00
  9.418372e+00    2.685790e+00
  9.434247e+00    2.655799e+00
  9.450123e+00    2.739022e+00
  9.465998e+00    2.748600e+00
  9.481874e+00    2.693087e+00
  9.497749e+00    2.634225e+00
  9.513625e+00    2.683659e+00
  9.529501e+00    2.663634e+00
  9.545376e+00    2.723087e+00
  9.561252e+00    2.776445e+00
  9.577127e+00    2.678459e+00
  9.593003e+00    2.696093e+00
  9.608878e+00    2.750092e+00
  9.624754e+00    2.712160e+00
  9.640630e+00    2.733708e+00
  9.656505e+00    2.688344e+00
  9.672381e+00    2.654634e+00
  9.688256e+00    2.650820e+00
  9.704132e+00    2.714766e+00
  9.720008e+00    2.694917e+00
  9.735883e+00    2.669992e+00
  9.751759e+00    2.661839e+00
  9.767634e+00    2.711402e+00
  9.783510e+00    2.647313e+00
  9.799385e+00    2.626042e+00
  9.815261e+00    2.608187e+00
  9.831137e+00    2.644733e+00
  9.847012e+00    2.677763e+00
  9.862888e+00    2.666285e+00
  9.878763e+00    2.602036e+00
  9.894639e+00    2.624220e+00
  9.910514e+00    2.668135e+00
  9.926390e+00    2.655087e+00
  9.942266e+00    2.667705e+00
  9.958141e+00    2.682150e+00
  9.974017e+00    2.610348e+00
  9.989892e+00    2.590417e+00
  1.000577e+01    2.592951e+00
  1.002164e+01    2.646269e+00
  1.003752e+01    2.636472e+00
  1.005339e+01    2.649738e+00
  1.006927e+01    2.712007e+00
  1.008515e+01    2.713586e+00
  1.010102e+01    2.643196e+00
  1.011690e+01    2.603642e+00
  1.013277e+01    2.567501e+00
  1.014865e+01    2.598150e+00
  1.016452e+01    2.591077e+00
  1.018040e+01    2.606297e+00
  1.019627e+01    2.603519e+00
  1.021215e+01    2.609730e+00
  1.022803e+01    2.566157e+00
  1.024390e+01    2.590526e+00
  1.025978e+01    2.600984e+00
  1.027565e+01    2.538939e+00
  1.029153e+01    2.567035e+00
  1.030740e+01    2.563717e+00
  1.032328e+01    2.554642e+00
  1.033915e+01    2.567152e+00
  1.035503e+01    2.612730e+00
  1.037091e+01    2.586907e+00
  1.038678e+01    2.556075e+00
  1.040266e+01    2.580513e+00
  1.041853e+01    2.579110e+00
  1.043441e+01    2.544308e+00
  1.045028e+01    2.576856e+00
  1.046616e+01    2.533742e+00
  1.048204e+01    2.516681e+00
  1.049791e+01    2.554524e+00
  1.051379e+01    2.573399e+00
  1.052966e+01    2.599603e+00
  1.054554e+01    2.541143e+00
  1.056141e+01    2.547983e+00
  1.057729e+01    2.492465e+00
  1.059316e+01    2.484616e+00
  1.060904e+01    2.493231e+00
  1.062492e+01    2.503851e+00
  1.064079e+01    2.518510e+00
  1.065667e+01    2.565908e+00
  1.067254e+01    2.540921e+00
  1.068842e+01    2.533270e+00
  1.070429e+01    2.475273e+00
  1.072017e+01    2.470700e+00
  1.073604e+01    2.521843e+00
  1.075192e+01    2.490750e+00
  1.076780e+01    2.477277e+00
  1.078367e+01    2.481205e+00
  1.079955e+01    2.479158e+00
  1.081542e+01    2.519984e+00
  1.083130e+01    2.487303e+00
  1.084717e+01    2.515061e+00
  1.086305e+01    2.507542e+00
  1.087892e+01    2.499428e+00
  1.089480e+01    2.537398e+00
  1.091068e+01    2.478440e+00
  1.092655e+01    2.452227e+00
  1.094243e+01    2.462317e+00
  1.095830e+01    2.442028e+00
  1.097418e+01    2.454987e+00
  1.099005e+01    2.460741e+00
  1.100593e+01    2.470273e+00
  1.102180e+01    2.457734e+00
  1.103768e+01    2.466092e+00
  1.105356e+01    2.471421e+00
  1.106943e+01    2.439169e+00
  1.108531e+01    2.426186e+00
  1.110118e+01    2.478606e+00
  1.111706e+01    2.457369e+00
  1.113293e+01    2.437336e+00
  1.114881e+01    2.429305e+00
  1.116468e+01    2.431211e+00
  1.118056e+01    2.382162e+00
  1.119644e+01    2.386334e+00
  1.121231e+01    2.381600e+00
  1.122819e+01    2.429839e+00
  1.124406e+01    2.404934e+00
  1.125994e+01    2.409888e+00
  1.127581e+01    2.393155e+00
  1.129169e+01    2.392999e+00
  1.130756e+01    2.406933e+00
  1.132344e+01    2.430268e+00
  1.133932e+01    2.444851e+00
  1.135519e+01    2.450659e+00
  1.137107e+01    2.411353e+00
  1.138694e+01    2.436271e+00
  1.140282e+01    2.373700e+00
  1.141869e+01    2.358788e+00
  1.143457e+01    2.352705e+00
  1.145045e+01    2.365319e+00
  1.146632e+01    2.385821e+00
  1.148220e+01    2.361654e+00
  1.149807e+01    2.309581e+00
  1.151395e+01    2.370431e+00
  1.152982e+01    2.341905e+00
  1.154570e+01    2.346539e+00
  1.156157e+01    2.335440e+00
  1.157745e+01    2.318824e+00
  1.159333e+01    2.334518e+00
  1.160920e+01    2.336318e+00
  1.162508e+01    2.332590e+00
  1.164095e+01    2.302506e+00
  1.165683e+01    2.351930e+00
  1.167270e+01    2.307411e+00
  1.168858e+01    2.308681e+00
  1.170445e+01    2.302427e+00
  1.172033e+01    2.276574e+00
  1.173621e+01    2.321424e+00
  1.175208e+01    2.327305e+00
  1.176796e+01    2.337549e+00
  1.178383e+01    2.309619e+00
  1.179971e+01    2.288472e+00
  1.181558e+01    2.332300e+00
  1.183146e+01    2.328805e+00
  1.184733e+01    2.275153e+00
  1.186321e+01    2.322998e+00
  1.187909e+01    2.338000e+00
  1.189496e+01    2.316311e+00
  1.191084e+01    2.327822e+00
  1.192671e+01    2.361889e+00
  1.194259e+01    2.355082e+00
  1.195846e+01    2.338484e+00
  1.197434e+01    2.272470e+00
  1.199021e+01    2.282932e+00
  1.200609e+01    2.286707e+00
  1.202197e+01    2.291695e+00
  1.203784e+01    2.300058e+00
  1.205372e+01    2.301716e+00
  1.206959e+01    2.243872e+00
  1.208547e+01    2.258696e+00
  1.210134e+01    2.322289e+00
  1.211722e+01    2.265892e+00
  1.213309e+01    2.231279e+00
  1.214897e+01    2.233366e+00
  1.216485e+01    2.272057e+00
  1.218072e+01    2.283578e+00
  1.219660e+01    2.266312e+00
  1.221247e+01    2.294643e+00
  1.222835e+01    2.294825e+00
  1.224422e+01    2.298448e+00
  1.226010e+01    2.268204e+00
  1.227597e+01    2.254760e+00
  1.229185e+01    2.273977e+00
  1.230773e+01    2.286245e+00
  1.232360e+01    2.317041e+00
  1.233948e+01    2.320440e+00
  1.235535e+01    2.303122e+00
  1.237123e+01    2.271575e+00
  1.238710e+01    2.266233e+00
  1.240298e+01    2.301977e+00
  1.241886e+01    2.305294e+00
  1.243473e+01    2.260296e+00
  1.245061e+01    2.273309e+00
  1.246648e+01    2.345308e+00
  1.248236e+01    2.315849e+00
  1.249823e+01    2.297276e+00
  1.251411e+01    2.353581e+00
  1.252998e+01    2.390922e+00
  1.254586e+01    2.326691e+00
  1.256174e+01    2.326675e+00
  1.257761e+01    2.328212e+00
  1.259349e+01    2.308416e+00
  1.260936e+01    2.349885e+00
  1.262524e+01    2.402913e+00
  1.264111e+01    2.379551e+00
  1.265699e+01    2.366175e+00
  1.267286e+01    2.375348e+00
  1.268874e+01    2.412502e+00
  1.270462e+01    2.459184e+00
  1.272049e+01    2.429396e+00
  1.273637e+01    2.433164e+00
  1.275224e+01    2.517561e+00
  1.276812e+01    2.543572e+00
  1.278399e+01    2.574093e+00
  1.279987e+01    2.584608e+00
  1.281574e+01    2.682020e+00
  1.283162e+01    2.723628e+00
  1.284750e+01    2.788682e+00
  1.286337e+01    2.845168e+00
  1.287925e+01    3.020200e+00
  1.289512e+01    3.124142e+00
  1.291100e+01    3.248939e+00
  1.292687e+01    3.378433e+00
  1.294275e+01    3.632594e+00
  1.295862e+01    3.912336e+00
  1.297450e+01    4.315400e+00
  1.299038e+01    4.768818e+00
  1.300625e+01    5.332017e+00
  1.302213e+01    6.140618e+00
  1.303800e+01    7.081798e+00
  1.305388e+01    8.100706e+00
  1.306975e+01    9.286124e+00
  1.308563e+01    1.069839e+01
  1.310150e+01    1.217228e+01
  1.311738e+01    1.352092e+01
  1.313326e+01    1.469776e+01
  1.314913e+01    1.582845e+01
  1.316501e+01    1.686636e+01
  1.318088e+01    1.740395e+01
  1.319676e+01    1.712475e+01
  1.321263e+01    1.599793e+01
  1.322851e+01    1.419691e+01
  1.324438e+01    1.223572e+01
  1.326026e+01    1.024108e+01
  1.327614e+01    8.673277e+00
  1.329201e+01    7.395798e+00
  1.330789e+01    6.283522e+00
  1.332376e+01    5.497769e+00
  1.333964e+01    4.922019e+00
  1.335551e+01    4.415579e+00
  1.337139e+01    4.061173e+00
  1.338727e+01    3.703926e+00
  1.340314e+01    3.476965e+00
  1.341902e+01    3.253698e+00
  1.343489e+01    3.127370e+00
  1.345077e+01    2.917223e+00
  1.346664e+01    2.842055e+00
  1.348252e+01    2.796707e+00
  1.349839e+01    2.713415e+00
  1.351427e+01    2.647666e+00
  1.353015e+01    2.544368e+00
  1.354602e+01    2.473955e+00
  1.356190e+01    2.490939e+00
  1.357777e+01    2.454134e+00
  1.359365e+01    2.326761e+00
  1.360952e+01    2.368496e+00
  1.362540e+01    2.355790e+00
  1.364127e+01    2.260273e+00
  1.365715e+01    2.277473e+00
  1.367303e+01    2.254614e+00
  1.368890e+01    2.203694e+00
  1.370478e+01    2.169869e+00
  1.372065e+01    2.199720e+00
  1.373653e+01    2.177214e+00
  1.375240e+01    2.160758e+00
  1.376828e+01    2.143573e+00
  1.378415e+01    2.149668e+00
  1.380003e+01    2.123625e+00
  1.381591e+01    2.105451e+00
  1.383178e+01    2.103239e+00
  1.384766e+01    2.086575e+00
  1.386353e+01    2.113464e+00
  1.387941e+01    2.057030e+00
  1.389528e+01    2.060578e+00
  1.391116e+01    2.034509e+00
  1.392703e+01    2.082628e+00
  1.394291e+01    2.078809e+00
  1.395879e+01    2.031947e+00
  1.397466e+01    2.053478e+00
  1.399054e+01    2.060605e+00
  1.400641e+01    2.019262e+00
  1.402229e+01    1.991213e+00
  1.403816e+01    2.017550e+00
  1.405404e+01    1.999866e+00
  1.406991e+01    2.001401e+00
  1.408579e+01    1.985524e+00
  1.410167e+01    2.029454e+00
  1.411754e+01    2.018409e+00
  1.413342e+01    2.014424e+00
  1.414929e+01    1.993616e+00
  1.416517e+01    1.968547e+00
  1.418104e+01    1.992694e+00
  1.419692e+01    1.975465e+00
  1.421279e+01    1.950996e+00
  1.422867e+01    1.983421e+00
  1.424455e+01    1.941302e+00
  1.426042e+01    1.913368e+00
  1.427630e+01    1.939728e+00
  1.429217e+01    1.948472e+00
  1.430805e+01    1.934141e+00
  1.432392e+01    1.928183e+00
  1.433980e+01    1.898229e+00
  1.435568e+01    1.917393e+00
  1.437155e+01    1.926338e+00
  1.438743e+01    1.920623e+00
  1.440330e+01    1.944275e+00
  1.441918e+01    1.913964e+00
  1.443505e+01    1.888055e+00
  1.445093e+01    1.893657e+00
  1.446680e+01    1.914181e+00
  1.448268e+01    1.915843e+00
  1.449856e+01    1.882471e+00
  1.451443e+01    1.903253e+00
  1.453031e+01    1.897162e+00
  1.454618e+01    1.876702e+00
  1.456206e+01    1.851125e+00
  1.457793e+01    1.881547e+00
  1.459381e+01    1.914226e+00
  1.460968e+01    1.906517e+00
  1.462556e+01    1.882894e+00
  1.464144e+01    1.895848e+00
  1.465731e+01    1.897333e+00
  1.467319e+01    1.857076e+00
  1.468906e+01    1.871545e+00
  1.470494e+01    1.885747e+00
  1.472081e+01    1.906913e+00
  1.473669e+01    1.926997e+00
  1.475256e+01    1.907091e+00
  1.476844e+01    1.899686e+00
  1.478432e+01    1.882183e+00
  1.480019e+01    1.899486e+00
  1.481607e+01    1.913872e+00
  1.483194e+01    1.890438e+00
  1.484782e+01    1.895852e+00
  1.486369e+01    1.873961e+00
  1.487957e+01    1.890299e+00
  1.489544e+01    1.922452e+00
  1.491132e+01    1.923289e+00
  1.492720e+01    1.941850e+00
  1.494307e+01    1.980721e+00
  1.495895e+01    2.042473e+00
  1.497482e+01    2.036945e+00
  1.499070e+01    2.046382e+00
  1.500657e+01    2.122906e+00
  1.502245e+01    2.182632e+00
  1.503832e+01    2.255291e+00
  1.505420e+01    2.362693e+00
  1.507008e+01    2.445396e+00
  1.508595e+01    2.598992e+00
  1.510183e+01    2.827645e+00
  1.511770e+01    3.127620e+00
  1.513358e+01    3.398122e+00
  1.514945e+01    3.789773e+00
  1.516533e+01    4.153950e+00
  1.518120e+01    4.518568e+00
  1.519708e+01    4.857079e+00
  1.521296e+01    5.129692e+00
  1.522883e+01    5.492679e+00
  1.524471e+01    5.719383e+00
  1.526058e+01    5.799468e+00
  1.527646e+01    5.803482e+00
  1.529233e+01    5.733586e+00
  1.530821e+01    5.462482e+00
  1.532409e+01    4.985894e+00
  1.533996e+01    4.417090e+00
  1.535584e+01    3.871079e+00
  1.537171e+01    3.472651e+00
  1.538759e+01    3.099873e+00
  1.540346e+01    2.813241e+00
  1.541934e+01    2.615563e+00
  1.543521e+01    2.425148e+00
  1.545109e+01    2.294132e+00
  1.546697e+01    2.208466e+00
  1.548284e+01    2.146609e+00
  1.549872e+01    2.047297e+00
  1.551459e+01    2.000623e+00
  1.553047e+01    1.934153e+00
  1.554634e+01    1.898672e+00
  1.556222e+01    1.879964e+00
  1.557809e+01    1.846948e+00
  1.559397e+01    1.806017e+00
  1.560985e+01    1.779218e+00
  1.562572e+01    1.751504e+00
  1.564160e+01    1.761653e+00
  1.565747e+01    1.742660e+00
  1.567335e+01    1.731438e+00
  1.568922e+01    1.727596e+00
  1.570510e+01    1.731596e+00
  1.572097e+01    1.706055e+00
  1.573685e+01    1.683676e+00
  1.575273e+01    1.700704e+00
  1.576860e+01    1.681402e+00
  1.578448e+01    1.672882e+00
  1.580035e+01    1.616807e+00
  1.581623e+01    1.627333e+00
  1.583210e+01    1.602255e+00
  1.584798e+01    1.577510e+00
  1.586385e+01    1.626184e+00
  1.587973e+01    1.635063e+00
  1.589561e+01    1.615890e+00
  1.591148e+01    1.603506e+00
  1.592736e+01    1.601298e+00
  1.594323e+01    1.606648e+00
  1.595911e+01    1.590555e+00
  1.597498e+01    1.580588e+00
  1.599086e+01    1.588641e+00
  1.600673e+01    1.585449e+00
  1.602261e+01    1.557520e+00
  1.603849e+01    1.576646e+00
  1.605436e+01    1.597751e+00
  1.607024e+01    1.580851e+00
  1.608611e+01    1.596415e+00
  1.610199e+01    1.582321e+00
  1.611786e+01    1.564872e+00
  1.613374e+01    1.566963e+00
  1.614961e+01    1.573183e+00
  1.616549e+01    1.564751e+00
  1.618137e+01    1.543435e+00
  1.619724e+01    1.530543e+00
  1.621312e+01    1.528042e+00
  1.622899e+01    1.548048e+00
  1.624487e+01    1.578511e+00
  1.626074e+01    1.536992e+00
  1.627662e+01    1.514963e+00
  1.629250e+01    1.487612e+00
  1.630837e+01    1.503390e+00
  1.632425e+01    1.513288e+00
  1.634012e+01    1.521692e+00
  1.635600e+01    1.524545e+00
  1.637187e+01    1.514953e+00
  1.638775e+01    1.493352e+00
  1.640362e+01    1.504143e+00
  1.641950e+01    1.525970e+00
  1.643538e+01    1.539342e+00
  1.645125e+01    1.517101e+00
  1.646713e+01    1.500350e+00
  1.648300e+01    1.488905e+00
  1.649888e+01    1.487750e+00
  1.651475e+01    1.479846e+00
  1.653063e+01    1.497421e+00
  1.654650e+01    1.499012e+00
  1.656238e+01    1.477720e+00
  1.657826e+01    1.473697e+00
  1.659413e+01    1.486883e+00
  1.661001e+01    1.468294e+00
  1.662588e+01    1.462994e+00
  1.664176e+01    1.481837e+00
  1.665763e+01    1.494035e+00
  1.667351e+01    1.474985e+00
  1.668938e+01    1.461095e+00
  1.670526e+01    1.476082e+00
  1.672114e+01    1.476974e+00
  1.673701e+01    1.445274e+00
  1.675289e+01    1.438590e+00
  1.676876e+01    1.423311e+00
  1.678464e+01    1.427242e+00
  1.680051e+01    1.450863e+00
  1.681639e+01    1.434000e+00
  1.683226e+01    1.443604e+00
  1.684814e+01    1.434253e+00
  1.686402e+01    1.436508e+00
  1.687989e+01    1.416463e+00
  1.689577e+01    1.430611e+00
  1.691164e+01    1.414793e+00
  1.692752e+01    1.394662e+00
  1.694339e+01    1.409649e+00
  1.695927e+01    1.416926e+00
  1.697514e+01    1.426526e+00
  1.699102e+01    1.391059e+00
  1.700690e+01    1.396624e+00
  1.702277e+01    1.414244e+00
  1.703865e+01    1.398788e+00
  1.705452e+01    1.383808e+00
  1.707040e+01    1.400564e+00
  1.708627e+01    1.375236e+00
  1.710215e+01    1.400286e+00
  1.711802e+01    1.408018e+00
  1.713390e+01    1.412908e+00
  1.714978e+01    1.400895e+00
  1.716565e+01    1.380460e+00
  1.718153e+01    1.392891e+00
  1.719740e+01    1.420832e+00
  1.721328e+01    1.397857e+00
  1.722915e+01    1.392162e+00
  1.724503e+01    1.385257e+00
  1.726091e+01    1.371343e+00
  1.727678e+01    1.360602e+00
  1.729266e+01    1.370014e+00
  1.730853e+01    1.356656e+00
  1.732441e+01    1.381786e+00
  1.734028e+01    1.383091e+00
  1.735616e+01    1.373269e+00
  1.737203e+01    1.371402e+00
  1.738791e+01    1.352808e+00
  1.740379e+01    1.349342e+00
  1.741966e+01    1.347899e+00
  1.743554e+01    1.334451e+00
  1.745141e+01    1.344503e+00
  1.746729e+01    1.356576e+00
  1.748316e+01    1.357693e+00
  1.749904e+01    1.324739e+00
  1.751491e+01    1.332389e+00
  1.753079e+01    1.372071e+00
  1.754667e+01    1.328181e+00
  1.756254e+01    1.321082e+00
  1.757842e+01    1.326232e+00
  1.759429e+01    1.339657e+00
  1.761017e+01    1.346588e+00
  1.762604e+01    1.335219e+00
  1.764192e+01    1.355172e+00
  1.765779e+01    1.320217e+00
  1.767367e+01    1.325644e+00
  1.768955e+01    1.315670e+00
  1.770542e+01    1.321966e+00
  1.772130e+01    1.312884e+00
  1.773717e+01    1.302931e+00
  1.775305e+01    1.312171e+00
  1.776892e+01    1.315345e+00
  1.778480e+01    1.308478e+00
  1.780067e+01    1.309808e+00
  1.781655e+01    1.301754e+00
  1.783243e+01    1.287331e+00
  1.784830e+01    1.294635e+00
  1.786418e+01    1.273466e+00
  1.788005e+01    1.257254e+00
  1.789593e+01    1.249139e+00
  1.791180e+01    1.276528e+00
  1.792768e+01    1.284072e+00
  1.794355e+01    1.283417e+00
  1.795943e+01    1.271669e+00
  1.797531e+01    1.288116e+00
  1.799118e+01    1.306142e+00
  1.800706e+01    1.314947e+00
  1.802293e+01    1.268461e+00
  1.803881e+01    1.272878e+00
  1.805468e+01    1.254335e+00
  1.807056e+01    1.272770e+00
  1.808643e+01    1.286002e+00
  1.810231e+01    1.295019e+00
  1.811819e+01    1.268648e+00
  1.813406e+01    1.263014e+00
  1.814994e+01    1.284215e+00
  1.816581e+01    1.277858e+00
  1.818169e+01    1.271770e+00
  1.819756e+01    1.239245e+00
  1.821344e+01    1.242540e+00
  1.822932e+01    1.283325e+00
  1.824519e+01    1.280893e+00
  1.826107e+01    1.246379e+00
  1.827694e+01    1.255412e+00
  1.829282e+01    1.252912e+00
  1.830869e+01    1.266176e+00
  1.832457e+01    1.283029e+00
  1.834044e+01    1.229919e+00
  1.835632e+01    1.237129e+00
  1.837220e+01    1.248600e+00
  1.838807e+01    1.241767e+00
  1.840395e+01    1.240311e+00
  1.841982e+01    1.232835e+00
  1.843570e+01    1.252217e+00
  1.845157e+01    1.217909e+00
  1.846745e+01    1.202897e+00
  1.848332e+01    1.224598e+00
  1.849920e+01    1.230493e+00
  1.851508e+01    1.229142e+00
  1.853095e+01    1.215007e+00
  1.854683e+01    1.230101e+00
  1.856270e+01    1.204947e+00
  1.857858e+01    1.216942e+00
  1.859445e+01    1.203693e+00
  1.861033e+01    1.215958e+00
  1.862620e+01    1.218754e+00
  1.864208e+01    1.220803e+00
  1.865796e+01    1.226847e+00
  1.867383e+01    1.215891e+00
  1.868971e+01    1.197102e+00
  1.870558e+01    1.219054e+00
  1.872146e+01    1.227274e+00
  1.873733e+01    1.207410e+00
  1.875321e+01    1.212289e+00
  1.876908e+01    1.201774e+00
  1.878496e+01    1.196042e+00
  1.880084e+01    1.188053e+00
  1.881671e+01    1.202433e+00
  1.883259e+01    1.177508e+00
  1.884846e+01    1.167032e+00
  1.886434e+01    1.188058e+00
  1.888021e+01    1.198589e+00
  1.889609e+01    1.195961e+00
  1.891196e+01    1.182370e+00
  1.892784e+01    1.201486e+00
  1.894372e+01    1.193834e+00
  1.895959e+01    1.178726e+00
  1.897547e+01    1.179253e+00
  1.899134e+01    1.175286e+00
  1.900722e+01    1.204401e+00
  1.902309e+01    1.185991e+00
  1.903897e+01    1.183065e+00
  1.905484e+01    1.195690e+00
  1.907072e+01    1.188289e+00
  1.908660e+01    1.192503e+00
  1.910247e+01    1.176049e+00
  1.911835e+01    1.181270e+00
  1.913422e+01    1.152227e+00
  1.915010e+01    1.157662e+00
  1.916597e+01    1.162093e+00
  1.918185e+01    1.156061e+00
  1.919773e+01    1.165576e+00
  1.921360e+01    1.153715e+00
  1.922948e+01    1.144470e+00
  1.924535e+01    1.141016e+00
  1.926123e+01    1.157416e+00
  1.927710e+01    1.167291e+00
  1.929298e+01    1.175197e+00
  1.930885e+01    1.159882e+00
  1.932473e+01    1.180010e+00
  1.934061e+01    1.165054e+00
  1.935648e+01    1.181942e+00
  1.937236e+01    1.183601e+00
  1.938823e+01    1.153572e+00
  1.940411e+01    1.143488e+00
  1.941998e+01    1.124780e+00
  1.943586e+01    1.163297e+00
  1.945173e+01    1.163639e+00
  1.946761e+01    1.163661e+00
  1.948349e+01    1.153247e+00
  1.949936e+01    1.155840e+00
  1.951524e+01    1.156235e+00
  1.953111e+01    1.150205e+00
  1.954699e+01    1.136998e+00
  1.956286e+01    1.148767e+00
  1.957874e+01    1.119043e+00
  1.959461e+01    1.154476e+00
  1.961049e+01    1.169135e+00
  1.962637e+01    1.173657e+00
  1.964224e+01    1.145168e+00
  1.965812e+01    1.127159e+00
  1.967399e+01    1.134796e+00
  1.968987e+01    1.150414e+00
  1.970574e+01    1.116208e+00
  1.972162e+01    1.128962e+00
  1.973749e+01    1.128943e+00
  1.975337e+01    1.106548e+00
  1.976925e+01    1.111013e+00
  1.978512e+01    1.122633e+00
  1.980100e+01    1.116038e+00
  1.981687e+01    1.131572e+00
  1.983275e+01    1.139501e+00
  1.984862e+01    1.129470e+00
  1.986450e+01    1.087763e+00
  1.988037e+01    1.109942e+00
  1.989625e+01    1.106362e+00
  1.991213e+01    1.121826e+00
  1.992800e+01    1.124864e+00
  1.994388e+01    1.130641e+00
  1.995975e+01    1.107673e+00
  1.997563e+01    1.084020e+00
  1.999150e+01    1.091953e+00
  2.000738e+01    1.115600e+00
  2.002325e+01    1.109761e+00
  2.003913e+01    1.098705e+00
  2.005501e+01    1.091071e+00
  2.007088e+01    1.087502e+00
  2.008676e+01    1.092790e+00
  2.010263e+01    1.091777e+00
  2.011851e+01    1.087791e+00
  2.013438e+01    1.079840e+00
  2.015026e+01    1.070105e+00
  2.016614e+01    1.070580e+00
  2.018201e+01    1.091216e+00
  2.019789e+01    1.082024e+00
  2.021376e+01    1.077485e+00
  2.022964e+01    1.082016e+00
  2.024551e+01    1.090369e+00
  2.026139e+01    1.080281e+00
  2.027726e+01    1.084026e+00
  2.029314e+01    1.084611e+00
  2.030902e+01    1.074214e+00
  2.032489e+01    1.085825e+00
  2.034077e+01    1.110201e+00
  2.035664e+01    1.108508e+00
  2.037252e+01    1.064054e+00
  2.038839e+01    1.062529e+00
  2.040427e+01    1.082010e+00
  2.042014e+01    1.087186e+00
  2.043602e+01    1.119732e+00
  2.045190e+01    1.104655e+00
  2.046777e+01    1.064664e+00
  2.048365e+01    1.049106e+00
  2.049952e+01    1.066252e+00
  2.051540e+01    1.079342e+00
  2.053127e+01    1.072465e+00
  2.054715e+01    1.090297e+00
  2.056302e+01    1.086647e+00
  2.057890e+01    1.070349e+00
  2.059478e+01    1.074154e+00
  2.061065e+01    1.083814e+00
  2.062653e+01    1.067924e+00
  2.064240e+01    1.089999e+00
  2.065828e+01    1.058749e+00
  2.067415e+01    1.052900e+00
  2.069003e+01    1.056811e+00
  2.070590e+01    1.042210e+00
  2.072178e+01    1.049577e+00
  2.073766e+01    1.076572e+00
  2.075353e+01    1.074408e+00
  2.076941e+01    1.066356e+00
  2.078528e+01    1.074082e+00
  2.080116e+01    1.069167e+00
  2.081703e+01    1.063958e+00
  2.083291e+01    1.061893e+00
  2.084878e+01    1.073733e+00
  2.086466e+01    1.068194e+00
  2.088054e+01    1.069813e+00
  2.089641e+01    1.058847e+00
  2.091229e+01    1.070197e+00
  2.092816e+01    1.038506e+00
  2.094404e+01    1.035938e+00
  2.095991e+01    1.075038e+00
  2.097579e+01    1.083818e+00
  2.099166e+01    1.053183e+00
  2.100754e+01    1.047696e+00
  2.102342e+01    1.063400e+00
  2.103929e+01    1.053241e+00
  2.105517e+01    1.042351e+00
  2.107104e+01    1.047271e+00
  2.108692e+01    1.030267e+00
  2.110279e+01    1.047777e+00
  2.111867e+01    1.067311e+00
  2.113455e+01    1.060357e+00
  2.115042e+01    1.053119e+00
  2.116630e+01    1.076089e+00
  2.118217e+01    1.075126e+00
  2.119805e+01    1.063825e+00
  2.121392e+01    1.076647e+00
  2.122980e+01    1.089423e+00
  2.124567e+01    1.101673e+00
  2.126155e+01    1.098087e+00
  2.127743e+01    1.106199e+00
  2.129330e+01    1.095211e+00
  2.130918e+01    1.095491e+00
  2.132505e+01    1.112848e+00
  2.134093e+01    1.123068e+00
  2.135680e+01    1.142225e+00
  2.137268e+01    1.121664e+00
  2.138855e+01    1.131135e+00
  2.140443e+01    1.163746e+00
  2.142031e+01    1.181410e+00
  2.143618e+01    1.194282e+00
  2.145206e+01    1.220150e+00
  2.146793e+01    1.239579e+00
  2.148381e+01    1.255990e+00
  2.149968e+01    1.259161e+00
  2.151556e+01    1.298272e+00
  2.153143e+01    1.307546e+00
  2.154731e+01    1.362815e+00
  2.156319e+01    1.418703e+00
  2.157906e+01    1.427011e+00
  2.159494e+01    1.505876e+00
  2.161081e+01    1.583477e+00
  2.162669e+01    1.671824e+00
  2.164256e+01    1.774540e+00
  2.165844e+01    1.946352e+00
  2.167431e+01    2.126710e+00
  2.169019e+01    2.244154e+00
  2.170607e+01    2.482743e+00
  2.172194e+01    2.824252e+00
  2.173782e+01    3.163248e+00
  2.175369e+01    3.631809e+00
  2.176957e+01    4.137392e+00
  2.178544e+01    4.764963e+00
  2.180132e+01    5.465122e+00
  2.181719e+01    6.156315e+00
  2.183307e+01    6.895057e+00
  2.184895e+01    7.618755e+00
  2.186482e+01    8.375329e+00
  2.188070e+01    9.016662e+00
  2.189657e+01    9.459205e+00
  2.191245e+01    9.543312e+00
  2.192832e+01    9.241123e+00
  2.194420e+01    8.640100e+00
  2.196007e+01    7.674906e+00
  2.197595e+01    6.614365e+00
  2.199183e+01    5.620992e+00
  2.200770e+01    4.739239e+00
  2.202358e+01    4.043424e+00
  2.203945e+01    3.482597e+00
  2.205533e+01    3.060415e+00
  2.207120e+01    2.717742e+00
  2.208708e+01    2.396610e+00
  2.210296e+01    2.195939e+00
  2.211883e+01    2.007448e+00
  2.213471e+01    1.849030e+00
  2.215058e+01    1.731974e+00
  2.216646e+01    1.630194e+00
  2.218233e+01    1.530404e+00
  2.219821e+01    1.459662e+00
  2.221408e+01    1.420937e+00
  2.222996e+01    1.359025e+00
  2.224584e+01    1.298516e+00
  2.226171e+01    1.247052e+00
  2.227759e+01    1.246536e+00
  2.229346e+01    1.226631e+00
  2.230934e+01    1.196662e+00
  2.232521e+01    1.167123e+00
  2.234109e+01    1.160059e+00
  2.235696e+01    1.117371e+00
  2.237284e+01    1.079855e+00
  2.238872e+01    1.085480e+00
  2.240459e+01    1.078479e+00
  2.242047e+01    1.074755e+00
  2.243634e+01    1.071621e+00
  2.245222e+01    1.060701e+00
  2.246809e+01    1.057872e+00
  2.248397e+01    1.028013e+00
  2.249984e+01    1.026816e+00
  2.251572e+01    1.007928e+00
  2.253160e+01    1.000694e+00
  2.254747e+01    1.004542e+00
  2.256335e+01    9.958263e-01
  2.257922e+01    9.661707e-01
  2.259510e+01    9.533274e-01
  2.261097e+01    9.514771e-01
  2.262685e+01    9.692669e-01
  2.264272e+01    9.639206e-01
  2.265860e+01    9.622697e-01
  2.267448e+01    9.607301e-01
  2.269035e+01    9.374391e-01
  2.270623e+01    9.286040e-01
  2.272210e+01    9.494196e-01
  2.273798e+01    9.501122e-01
  2.275385e+01    9.338075e-01
  2.276973e+01    9.157790e-01
  2.278560e+01    9.138369e-01
  2.280148e+01    9.385172e-01
  2.281736e+01    9.519487e-01
  2.283323e+01    9.091623e-01
  2.284911e+01    8.989612e-01
  2.286498e+01    9.175361e-01
  2.288086e+01    9.196320e-01
  2.289673e+01    9.141113e-01
  2.291261e+01    9.083270e-01
  2.292848e+01    8.882324e-01
  2.294436e+01    8.821895e-01
  2.296024e+01    9.026349e-01
  2.297611e+01    9.073417e-01
  2.299199e+01    8.912079e-01
  2.300786e+01    9.045962e-01
  2.302374e+01    9.107167e-01
  2.303961e+01    8.860826e-01
  2.305549e+01    8.698568e-01
  2.307137e+01    8.978924e-01
  2.308724e+01    8.923147e-01
  2.310312e+01    8.949382e-01
  2.311899e+01    8.921475e-01
  2.313487e+01    8.747364e-01
  2.315074e+01    8.618974e-01
  2.316662e+01    8.544756e-01
  2.318249e+01    8.676007e-01
  2.319837e+01    8.604470e-01
  2.321425e+01    8.625364e-01
  2.323012e+01    8.784448e-01
  2.324600e+01    8.606693e-01
  2.326187e+01    8.710197e-01
  2.327775e+01    8.572449e-01
  2.329362e+01    8.614449e-01
  2.330950e+01    8.508328e-01
  2.332537e+01    8.494171e-01
  2.334125e+01    8.536509e-01
  2.335713e+01    8.505985e-01
  2.337300e+01    8.535977e-01
  2.338888e+01    8.488551e-01
  2.340475e+01    8.543574e-01
  2.342063e+01    8.456904e-01
  2.343650e+01    8.330272e-01
  2.345238e+01    8.505983e-01
  2.346825e+01    8.426666e-01
  2.348413e+01    8.365270e-01
  2.350001e+01    8.452485e-01
  2.351588e+01    8.445336e-01
  2.353176e+01    8.499010e-01
  2.354763e+01    8.594316e-01
  2.356351e+01    8.512669e-01
  2.357938e+01    8.406982e-01
  2.359526e+01    8.325785e-01
  2.361113e+01    8.234258e-01
  2.362701e+01    8.258470e-01
  2.364289e+01    8.481932e-01
  2.365876e+01    8.391172e-01
  2.367464e+01    8.278303e-01
  2.369051e+01    8.104286e-01
  2.370639e+01    8.056312e-01
  2.372226e+01    8.136111e-01
  2.373814e+01    8.195649e-01
  2.375401e+01    7.938637e-01
  2.376989e+01    7.919680e-01
  2.378577e+01    8.062513e-01
  2.380164e+01    8.037059e-01
  2.381752e+01    8.228123e-01
  2.383339e+01    7.915738e-01
  2.384927e+01    7.984235e-01
  2.386514e+01    7.924160e-01
  2.388102e+01    7.964652e-01
  2.389689e+01    7.925414e-01
  2.391277e+01    7.945951e-01
  2.392865e+01    7.858258e-01
  2.394452e+01    7.847314e-01
  2.396040e+01    7.909777e-01
  2.397627e+01    7.999356e-01
  2.399215e+01    7.878258e-01
  2.400802e+01    7.870557e-01
  2.402390e+01    7.885738e-01
  2.403978e+01    8.053443e-01
  2.405565e+01    7.894472e-01
  2.407153e+01    7.689457e-01
  2.408740e+01    7.807758e-01
  2.410328e+01    7.673258e-01
  2.411915e+01    7.520697e-01
  2.413503e+01    7.786576e-01
  2.415090e+01    7.703926e-01
  2.416678e+01    7.828352e-01
  2.418266e+01    7.795151e-01
  2.419853e+01    7.467593e-01
  2.421441e+01    7.623628e-01
  2.423028e+01    7.472772e-01
  2.424616e+01    7.550285e-01
  2.426203e+01    7.797796e-01
  2.427791e+01    7.629700e-01
  2.429378e+01    7.813118e-01
  2.430966e+01    7.763814e-01
  2.432554e+01    7.690068e-01
  2.434141e+01    7.763649e-01
  2.435729e+01    7.864813e-01
  2.437316e+01    7.782629e-01
  2.438904e+01    7.713058e-01
  2.440491e+01    7.792156e-01
  2.442079e+01    7.667658e-01
  2.443666e+01    7.739688e-01
  2.445254e+01    7.813259e-01
  2.446842e+01    7.887219e-01
  2.448429e+01    7.839764e-01
  2.450017e+01    7.724654e-01
  2.451604e+01    7.815642e-01
  2.453192e+01    7.548878e-01
  2.454779e+01    7.583331e-01
  2.456367e+01    7.597483e-01
  2.457954e+01    7.741253e-01
  2.459542e+01    7.863644e-01
  2.461130e+01    7.853706e-01
  2.462717e+01    7.814257e-01
  2.464305e+01    7.680740e-01
  2.465892e+01    7.874459e-01
  2.467480e+01    7.812997e-01
  2.469067e+01    7.763222e-01
  2.470655e+01    7.823433e-01
  2.472242e+01    7.938775e-01
  2.473830e+01    7.934380e-01
  2.475418e+01    7.828376e-01
  2.477005e+01    7.851626e-01
  2.478593e+01    7.707981e-01
  2.480180e+01    7.720889e-01
  2.481768e+01    7.715712e-01
  2.483355e+01    7.624540e-01
  2.484943e+01    7.809863e-01
  2.486530e+01    7.968637e-01
  2.488118e+01    7.848763e-01
  2.489706e+01    7.860212e-01
  2.491293e+01    7.751830e-01
  2.492881e+01    7.835245e-01
  2.494468e+01    7.972882e-01
  2.496056e+01    7.847233e-01
  2.497643e+01    7.830936e-01
  2.499231e+01    7.944064e-01
  2.500819e+01    7.938025e-01
  2.502406e+01    7.975150e-01
  2.503994e+01    8.242154e-01
  2.505581e+01    8.020690e-01
  2.507169e+01    7.991100e-01
  2.508756e+01    8.109859e-01
  2.510344e+01    7.975150e-01
  2.511931e+01    7.905875e-01
  2.513519e+01    7.893866e-01
  2.515107e+01    8.112359e-01
  2.516694e+01    8.228651e-01
  2.518282e+01    8.114192e-01
  2.519869e+01    8.160964e-01
  2.521457e+01    8.330356e-01
  2.523044e+01    8.351166e-01
  2.524632e+01    8.346854e-01
  2.526219e+01    8.447693e-01
  2.527807e+01    8.561447e-01
  2.529395e+01    8.427720e-01
  2.530982e+01    8.462161e-01
  2.532570e+01    8.769738e-01
  2.534157e+01    8.714553e-01
  2.535745e+01    8.730691e-01
  2.537332e+01    8.791119e-01
  2.538920e+01    8.772031e-01
  2.540507e+01    8.971654e-01
  2.542095e+01    9.039922e-01
  2.543683e+01    9.257830e-01
  2.545270e+01    9.399700e-01
  2.546858e+01    9.486697e-01
  2.548445e+01    9.661847e-01
  2.550033e+01    9.398121e-01
  2.551620e+01    9.653539e-01
  2.553208e+01    1.000586e+00
  2.554795e+01    1.004298e+00
  2.556383e+01    1.043849e+00
  2.557971e+01    1.056514e+00
  2.559558e+01    1.069860e+00
  2.561146e+01    1.122391e+00
  2.562733e+01    1.174821e+00
  2.564321e+01    1.201295e+00
  2.565908e+01    1.256452e+00
  2.567496e+01    1.283108e+00
  2.569083e+01    1.371348e+00
  2.570671e+01    1.479753e+00
  2.572259e+01    1.581608e+00
  2.573846e+01    1.705291e+00
  2.575434e+01    1.835193e+00
  2.577021e+01    2.039246e+00
  2.578609e+01    2.293290e+00
  2.580196e+01    2.534083e+00
  2.581784e+01    2.876147e+00
  2.583371e+01    3.305953e+00
  2.584959e+01    3.758538e+00
  2.586547e+01    4.313102e+00
  2.588134e+01    4.877040e+00
  2.589722e+01    5.544926e+00
  2.591309e+01    6.231972e+00
  2.592897e+01    6.916461e+00
  2.594484e+01    7.381249e+00
  2.596072e+01    7.777549e+00
  2.597660e+01    7.895681e+00
  2.599247e+01    7.676372e+00
  2.600835e+01    7.190575e+00
  2.602422e+01    6.438996e+00
  2.604010e+01    5.683809e+00
  2.605597e+01    4.890861e+00
  2.607185e+01    4.160056e+00
  2.608772e+01    3.526900e+00
  2.610360e+01    3.040440e+00
  2.611948e+01    2.671003e+00
  2.613535e+01    2.384131e+00
  2.615123e+01    2.114552e+00
  2.616710e+01    1.908752e+00
  2.618298e+01    1.793882e+00
  2.619885e+01    1.620788e+00
  2.621473e+01    1.527827e+00
  2.623060e+01    1.419460e+00
  2.624648e+01    1.363391e+00
  2.626236e+01    1.291835e+00
  2.627823e+01    1.236762e+00
  2.629411e+01    1.172390e+00
  2.630998e+01    1.137284e+00
  2.632586e+01    1.090277e+00
  2.634173e+01    1.054070e+00
  2.635761e+01    1.067523e+00
  2.637348e+01    1.022318e+00
  2.638936e+01    9.868604e-01
  2.640524e+01    9.952254e-01
  2.642111e+01    9.836527e-01
  2.643699e+01    9.529105e-01
  2.645286e+01    9.451873e-01
  2.646874e+01    9.542153e-01
  2.648461e+01    9.461553e-01
  2.650049e+01    9.462993e-01
  2.651636e+01    9.398786e-01
  2.653224e+01    9.311120e-01
  2.654812e+01    9.224766e-01
  2.656399e+01    9.008404e-01
  2.657987e+01    8.838328e-01
  2.659574e+01    9.031569e-01
  2.661162e+01    9.152612e-01
  2.662749e+01    8.983275e-01
  2.664337e+01    9.026261e-01
  2.665924e+01    8.738151e-01
  2.667512e+01    8.839535e-01
  2.669100e+01    8.975716e-01
  2.670687e+01    8.858651e-01
  2.672275e+01    8.969876e-01
  2.673862e+01    8.806020e-01
  2.675450e+01    8.977495e-01
  2.677037e+01    8.797789e-01
  2.678625e+01    8.960730e-01
  2.680212e+01    8.922252e-01
  2.681800e+01    8.962294e-01
  2.683388e+01    9.039732e-01
  2.684975e+01    9.022259e-01
  2.686563e+01    8.862997e-01
  2.688150e+01    9.045452e-01
  2.689738e+01    8.891854e-01
  2.691325e+01    9.099637e-01
  2.692913e+01    9.248876e-01
  2.694501e+01    9.292734e-01
  2.696088e+01    9.516492e-01
  2.697676e+01    9.595407e-01
  2.699263e+01    9.998978e-01
  2.700851e+01    1.016177e+00
  2.702438e+01    1.042136e+00
  2.704026e+01    1.080122e+00
  2.705613e+01    1.135070e+00
  2.707201e+01    1.190496e+00
  2.708789e+01    1.259360e+00
  2.710376e+01    1.342703e+00
  2.711964e+01    1.466969e+00
  2.713551e+01    1.585196e+00
  2.715139e+01    1.767892e+00
  2.716726e+01    1.914149e+00
  2.718314e+01    2.058917e+00
  2.719901e+01    2.190690e+00
  2.721489e+01    2.264770e+00
  2.723077e+01    2.321039e+00
  2.724664e+01    2.291921e+00
  2.726252e+01    2.215691e+00
  2.727839e+01    2.078512e+00
  2.729427e+01    1.911793e+00
  2.731014e+01    1.732278e+00
  2.732602e+01    1.557828e+00
  2.734189e+01    1.420535e+00
  2.735777e+01    1.286158e+00
  2.737365e+01    1.216876e+00
  2.738952e+01    1.183627e+00
  2.740540e+01    1.122981e+00
  2.742127e+01    1.074722e+00
  2.743715e+01    1.039027e+00
  2.745302e+01    9.872959e-01
  2.746890e+01    9.584006e-01
  2.748477e+01    9.226249e-01
  2.750065e+01    8.995473e-01
  2.751653e+01    8.820550e-01
  2.753240e+01    8.837498e-01
  2.754828e+01    8.871754e-01
  2.756415e+01    8.673817e-01
  2.758003e+01    8.470302e-01
  2.759590e+01    8.746232e-01
  2.761178e+01    8.365001e-01
  2.762765e+01    8.471165e-01
  2.764353e+01    8.551716e-01
  2.765941e+01    8.212913e-01
  2.767528e+01    8.217063e-01
  2.769116e+01    8.409130e-01
  2.770703e+01    8.101779e-01
  2.772291e+01    8.238649e-01
  2.773878e+01    8.084986e-01
  2.775466e+01    8.105611e-01
  2.777054e+01    8.072107e-01
  2.778641e+01    7.944988e-01
  2.780229e+01    8.099048e-01
  2.781816e+01    7.917677e-01
  2.783404e+01    7.952443e-01
  2.784991e+01    8.118319e-01
  2.786579e+01    8.027044e-01
  2.788166e+01    7.617049e-01
  2.789754e+01    7.814798e-01
  2.791342e+01    7.837605e-01
  2.792929e+01    7.726740e-01
  2.794517e+01    7.905040e-01
  2.796104e+01    7.887446e-01
  2.797692e+01    7.753590e-01
  2.799279e+01    7.608383e-01
  2.800867e+01    7.729883e-01
  2.802454e+01    7.812591e-01
  2.804042e+01    7.847341e-01
  2.805630e+01    7.899606e-01
  2.807217e+01    7.785744e-01
  2.808805e+01    7.824351e-01
  2.810392e+01    7.778265e-01
  2.811980e+01    7.733472e-01
  2.813567e+01    7.851941e-01
  2.815155e+01    7.752375e-01
  2.816742e+01    7.610630e-01
  2.818330e+01    7.611731e-01
  2.819918e+01    7.719453e-01
  2.821505e+01    7.813458e-01
  2.823093e+01    7.712879e-01
  2.824680e+01    7.628468e-01
  2.826268e+01    7.568747e-01
  2.827855e+01    7.532184e-01
  2.829443e+01    7.667482e-01
  2.831030e+01    7.638330e-01
  2.832618e+01    7.672090e-01
  2.834206e+01    7.476652e-01
  2.835793e+01    7.486635e-01
  2.837381e+01    7.425544e-01
  2.838968e+01    7.505391e-01
  2.840556e+01    7.588309e-01
  2.842143e+01    7.706962e-01
  2.843731e+01    7.606042e-01
  2.845318e+01    7.265596e-01
  2.846906e+01    7.626914e-01
  2.848494e+01    7.678215e-01
  2.850081e+01    7.656929e-01
  2.851669e+01    7.515798e-01
  2.853256e+01    7.414016e-01
  2.854844e+01    7.534891e-01
  2.856431e+01    7.487822e-01
  2.858019e+01    7.440217e-01
  2.859606e+01    7.531526e-01
  2.861194e+01    7.507291e-01
  2.862782e+01    7.317656e-01
  2.864369e+01    7.231072e-01
  2.865957e+01    7.279453e-01
  2.867544e+01    7.313037e-01
  2.869132e+01    7.448441e-01
  2.870719e+01    7.340551e-01
  2.872307e+01    7.401917e-01
  2.873895e+01    7.423334e-01
  2.875482e+01    7.145593e-01
  2.877070e+01    7.205943e-01
  2.878657e+01    7.251815e-01
  2.880245e+01    7.289101e-01
  2.881832e+01    7.368540e-01
  2.883420e+01    7.308447e-01
  2.885007e+01    7.262874e-01
  2.886595e+01    7.030123e-01
  2.888183e+01    7.219377e-01
  2.889770e+01    7.282050e-01
  2.891358e+01    7.341938e-01
  2.892945e+01    7.253783e-01
  2.894533e+01    7.496956e-01
  2.896120e+01    7.395906e-01
  2.897708e+01    7.197428e-01
  2.899295e+01    7.353592e-01
  2.900883e+01    7.328508e-01
  2.902471e+01    7.188691e-01
  2.904058e+01    7.305077e-01
  2.905646e+01    7.336405e-01
  2.907233e+01    7.279078e-01
  2.908821e+01    7.130010e-01
  2.910408e+01    7.280761e-01
  2.911996e+01    7.405868e-01
  2.913583e+01    7.438089e-01
  2.915171e+01    7.279962e-01
  2.916759e+01    7.221625e-01
  2.918346e+01    7.140043e-01
  2.919934e+01    7.232392e-01
  2.921521e+01    7.212821e-01
  2.923109e+01    7.202272e-01
  2.924696e+01    7.368925e-01
  2.926284e+01    7.372743e-01
  2.927871e+01    7.112896e-01
  2.929459e+01    7.119243e-01
  2.931047e+01    7.366393e-01
  2.932634e+01    7.151884e-01
  2.934222e+01    7.425416e-01
  2.935809e+01    7.520682e-01
  2.937397e+01    7.219321e-01
  2.938984e+01    6.853204e-01
  2.940572e+01    6.955026e-01
  2.942159e+01    7.054341e-01
  2.943747e+01    7.095479e-01
  2.945335e+01    7.316921e-01
  2.946922e+01    7.269047e-01
  2.948510e+01    7.236113e-01
  2.950097e+01    7.366474e-01
  2.951685e+01    7.256893e-01
  2.953272e+01    7.283995e-01
  2.954860e+01    6.922329e-01
  2.956447e+01    7.065231e-01
  2.958035e+01    7.059401e-01
  2.959623e+01    7.368044e-01
  2.961210e+01    7.389013e-01
  2.962798e+01    7.250012e-01
  2.964385e+01    7.350798e-01
  2.965973e+01    7.239418e-01
  2.967560e+01    7.034964e-01
  2.969148e+01    6.949168e-01
  2.970736e+01    7.119938e-01
  2.972323e+01    7.180279e-01
  2.973911e+01    7.102826e-01
  2.975498e+01    7.269005e-01
  2.977086e+01    7.339530e-01
  2.978673e+01    7.014890e-01
  2.980261e+01    7.040830e-01
  2.981848e+01    7.029118e-01
  2.983436e+01    7.156722e-01
  2.985024e+01    7.131605e-01
  2.986611e+01    7.080864e-01
  2.988199e+01    7.319164e-01
  2.989786e+01    7.152308e-01
  2.991374e+01    7.054155e-01
  2.992961e+01    7.186036e-01
  2.994549e+01    6.981323e-01
  2.996136e+01    7.099648e-01
  2.997724e+01    7.036501e-01
  2.999312e+01    7.206963e-01
  3.000899e+01    7.294523e-01
  3.002487e+01    7.217805e-01
  3.004074e+01    7.081658e-01
  3.005662e+01    7.222605e-01
  3.007249e+01    7.070881e-01
  3.008837e+01    6.984512e-01
  3.010424e+01    7.029391e-01
  3.012012e+01    7.050683e-01
  3.013600e+01    7.239514e-01
  3.015187e+01    7.218273e-01
  3.016775e+01    7.179620e-01
  3.018362e+01    6.862412e-01
  3.019950e+01    6.699452e-01
  3.021537e+01    6.939058e-01
  3.023125e+01    7.111610e-01
  3.024712e+01    7.066673e-01
  3.026300e+01    7.193901e-01
  3.027888e+01    7.037974e-01
  3.029475e+01    7.086295e-01
  3.031063e+01    7.050391e-01
  3.032650e+01    7.253526e-01
  3.034238e+01    7.104813e-01
  3.035825e+01    7.074983e-01
  3.037413e+01    7.066022e-01
  3.039000e+01    7.053472e-01
  3.040588e+01    7.143320e-01
  3.042176e+01    6.990076e-01
  3.043763e+01    6.800631e-01
  3.045351e+01    6.995462e-01
  3.046938e+01    7.117728e-01
  3.048526e+01    7.118006e-01
  3.050113e+01    6.988930e-01
  3.051701e+01    6.899003e-01
  3.053288e+01    6.999841e-01
  3.054876e+01    7.019154e-01
  3.056464e+01    6.913532e-01
  3.058051e+01    7.077189e-01
  3.059639e+01    6.986355e-01
  3.061226e+01    7.204682e-01
  3.062814e+01    6.956920e-01
  3.064401e+01    6.849779e-01
  3.065989e+01    7.102109e-01
  3.067577e+01    7.212194e-01
  3.069164e+01    7.162607e-01
  3.070752e+01    7.104306e-01
  3.072339e+01    7.204521e-01
  3.073927e+01    6.916510e-01
  3.075514e+01    7.039919e-01
  3.077102e+01    7.058088e-01
  3.078689e+01    6.972642e-01
  3.080277e+01    6.937845e-01
  3.081865e+01    6.976108e-01
  3.083452e+01    7.039801e-01
  3.085040e+01    6.986125e-01
  3.086627e+01    7.175464e-01
  3.088215e+01    7.195304e-01
  3.089802e+01    7.059307e-01
  3.091390e+01    6.921279e-01
  3.092977e+01    7.283161e-01
  3.094565e+01    7.154017e-01
  3.096153e+01    7.120842e-01
  3.097740e+01    7.008703e-01
  3.099328e+01    7.142542e-01
  3.100915e+01    7.000175e-01
  3.102503e+01    7.237778e-01
  3.104090e+01    7.160207e-01
  3.105678e+01    7.095540e-01
  3.107265e+01    7.102746e-01
  3.108853e+01    7.311853e-01
  3.110441e+01    7.015981e-01
  3.112028e+01    7.005518e-01
  3.113616e+01    7.241490e-01
  3.115203e+01    7.145420e-01
  3.116791e+01    7.501388e-01
  3.118378e+01    7.527638e-01
  3.119966e+01    7.367079e-01
  3.121553e+01    7.152485e-01
  3.123141e+01    7.334998e-01
  3.124729e+01    7.300242e-01
  3.126316e+01    7.292519e-01
  3.127904e+01    7.148506e-01
  3.129491e+01    7.385698e-01
  3.131079e+01    7.355845e-01
  3.132666e+01    7.352864e-01
  3.134254e+01    7.314814e-01
  3.135841e+01    7.154242e-01
  3.137429e+01    7.389193e-01
  3.139017e+01    7.184703e-01
  3.140604e+01    7.285361e-01
  3.142192e+01    7.525458e-01
  3.143779e+01    7.331558e-01
  3.145367e+01    7.520930e-01
  3.146954e+01    7.514686e-01
  3.148542e+01    7.389584e-01
  3.150129e+01    7.389026e-01
  3.151717e+01    7.685569e-01
  3.153305e+01    7.627633e-01
  3.154892e+01    7.737209e-01
  3.156480e+01    7.845637e-01
  3.158067e+01    7.711229e-01
  3.159655e+01    8.125795e-01
  3.161242e+01    8.326921e-01
  3.162830e+01    8.211060e-01
  3.164418e+01    8.276116e-01
  3.166005e+01    8.503249e-01
  3.167593e+01    9.043832e-01
  3.169180e+01    9.472779e-01
  3.170768e+01    9.657591e-01
  3.172355e+01    9.762796e-01
  3.173943e+01    1.036211e+00
  3.175530e+01    1.074619e+00
  3.177118e+01    1.154374e+00
  3.178706e+01    1.278243e+00
  3.180293e+01    1.355934e+00
  3.181881e+01    1.475368e+00
  3.183468e+01    1.596190e+00
  3.185056e+01    1.737354e+00
  3.186643e+01    1.936560e+00
  3.188231e+01    2.077836e+00
  3.189818e+01    2.207838e+00
  3.191406e+01    2.290314e+00
  3.192994e+01    2.291605e+00
  3.194581e+01    2.211244e+00
  3.196169e+01    2.105739e+00
  3.197756e+01    1.969113e+00
  3.199344e+01    1.829001e+00
  3.200931e+01    1.616338e+00
  3.202519e+01    1.446062e+00
  3.204106e+01    1.334112e+00
  3.205694e+01    1.237871e+00
  3.207282e+01    1.141754e+00
  3.208869e+01    1.064295e+00
  3.210457e+01    9.852173e-01
  3.212044e+01    9.682249e-01
  3.213632e+01    9.343141e-01
  3.215219e+01    9.101421e-01
  3.216807e+01    8.422670e-01
  3.218394e+01    8.206627e-01
  3.219982e+01    8.313512e-01
  3.221570e+01    8.393728e-01
  3.223157e+01    7.771646e-01
  3.224745e+01    7.624706e-01
  3.226332e+01    7.704374e-01
  3.227920e+01    7.821723e-01
  3.229507e+01    7.793435e-01
  3.231095e+01    7.786238e-01
  3.232682e+01    7.639697e-01
  3.234270e+01    7.419639e-01
  3.235858e+01    7.324261e-01
  3.237445e+01    7.566028e-01
  3.239033e+01    7.331101e-01
  3.240620e+01    7.137659e-01
  3.242208e+01    7.092988e-01
  3.243795e+01    7.151941e-01
  3.245383e+01    7.132380e-01
  3.246970e+01    7.215940e-01
  3.248558e+01    7.225479e-01
  3.250146e+01    7.153968e-01
  3.251733e+01    7.094771e-01
  3.253321e+01    6.913114e-01
  3.254908e+01    6.958395e-01
