# == pyFAI calibration ==
# Distance Sample to Detector: 0.3999999939076516 m
# PONI: 9.750e-02, 1.135e-01 m
# Rotations: -0.000175 0.000000 -0.000000 rad
# 
# == Fit2d calibration ==
# Distance Sample-beamCenter: 400.000 mm
# Center: x=1514.000, y=1300.000 pix
# Tilt: 0.010 deg  TiltPlanRot: 0.010 deg
# 
# Detector Detector	 Spline= None	 PixelSize= 7.500e-05, 7.500e-05 m
#    Detector has a mask: False 
#    Detector has a dark current: False 
#    detector has a flat field: False 
# 
# Wavelength: 6.888e-11 m
# Mask applied: user provided
# Dark current applied: False
# Flat field applied: False
# Polarization factor: 0.99
# Normalization factor: 1.0
# --> /home/myspot/data/2024_07_Rosario/Ru-CGO-ex/2024-07-27_002_Ru-CGO-ex_Activtation_ramp_000002_data_000040.dat
#       q_nm^-1             I 
  2.003187e-02    0.000000e+00
  3.590745e-02    0.000000e+00
  5.178302e-02    4.717781e-02
  6.765859e-02    6.289696e-02
  8.353417e-02    1.067309e-01
  9.940974e-02    9.632698e-02
  1.152853e-01    3.059550e-02
  1.311609e-01    4.016135e-02
  1.470365e-01    4.865648e-02
  1.629120e-01    4.887070e-02
  1.787876e-01    3.816683e-02
  1.946632e-01    1.445984e-02
  2.105388e-01    3.555913e-02
  2.264143e-01    2.422170e-02
  2.422899e-01    3.930914e-02
  2.581655e-01    2.484762e-02
  2.740411e-01    1.484133e-02
  2.899166e-01    5.387330e-02
  3.057922e-01    9.170272e-02
  3.216678e-01    3.685366e-02
  3.375433e-01    4.171021e-02
  3.534189e-01    3.390073e-02
  3.692945e-01    2.112065e-02
  3.851701e-01    1.840942e-02
  4.010456e-01    2.473124e-02
  4.169212e-01    1.369899e-02
  4.327968e-01    3.160605e-02
  4.486724e-01    2.817477e-02
  4.645479e-01    2.830587e-02
  4.804235e-01    3.939745e-02
  4.962991e-01    3.661960e-02
  5.121747e-01    3.938185e-02
  5.280502e-01    4.204399e-02
  5.439258e-01    2.000997e-02
  5.598014e-01    3.253147e-02
  5.756770e-01    5.321722e-02
  5.915525e-01    4.736025e-02
  6.074281e-01    2.610053e-02
  6.233037e-01    5.756371e-02
  6.391793e-01    6.002706e-02
  6.550548e-01    5.963308e-02
  6.709304e-01    6.445704e-02
  6.868060e-01    4.471717e-02
  7.026815e-01    3.198731e-02
  7.185571e-01    5.962891e-02
  7.344327e-01    5.754684e-02
  7.503083e-01    7.398225e-02
  7.661838e-01    8.952834e-02
  7.820594e-01    1.212658e-01
  7.979350e-01    1.477424e-01
  8.138106e-01    1.617762e-01
  8.296861e-01    2.355670e-01
  8.455617e-01    3.089398e-01
  8.614373e-01    4.133697e-01
  8.773129e-01    4.988677e-01
  8.931884e-01    5.310251e-01
  9.090640e-01    5.866295e-01
  9.249396e-01    6.341044e-01
  9.408152e-01    6.851605e-01
  9.566907e-01    7.561584e-01
  9.725663e-01    9.968220e-01
  9.884419e-01    1.083466e+00
  1.004317e+00    1.027955e+00
  1.020193e+00    1.157220e+00
  1.036069e+00    1.183107e+00
  1.051944e+00    1.183642e+00
  1.067820e+00    1.284724e+00
  1.083695e+00    1.359958e+00
  1.099571e+00    1.393750e+00
  1.115446e+00    1.397125e+00
  1.131322e+00    1.419902e+00
  1.147198e+00    1.452344e+00
  1.163073e+00    1.448931e+00
  1.178949e+00    1.592935e+00
  1.194824e+00    1.593326e+00
  1.210700e+00    1.745504e+00
  1.226575e+00    2.060971e+00
  1.242451e+00    2.225262e+00
  1.258327e+00    2.149169e+00
  1.274202e+00    2.292255e+00
  1.290078e+00    2.471278e+00
  1.305953e+00    2.614420e+00
  1.321829e+00    2.723905e+00
  1.337705e+00    2.568964e+00
  1.353580e+00    2.601222e+00
  1.369456e+00    2.571354e+00
  1.385331e+00    2.667496e+00
  1.401207e+00    2.827406e+00
  1.417082e+00    2.851961e+00
  1.432958e+00    2.704674e+00
  1.448834e+00    2.671061e+00
  1.464709e+00    2.844339e+00
  1.480585e+00    2.903027e+00
  1.496460e+00    2.960403e+00
  1.512336e+00    2.979319e+00
  1.528211e+00    3.012115e+00
  1.544087e+00    3.034805e+00
  1.559963e+00    3.025357e+00
  1.575838e+00    2.955229e+00
  1.591714e+00    2.964550e+00
  1.607589e+00    2.981135e+00
  1.623465e+00    2.946854e+00
  1.639340e+00    2.873912e+00
  1.655216e+00    2.919706e+00
  1.671092e+00    3.027413e+00
  1.686967e+00    3.039969e+00
  1.702843e+00    2.963935e+00
  1.718718e+00    2.906170e+00
  1.734594e+00    2.812845e+00
  1.750469e+00    2.788932e+00
  1.766345e+00    2.870065e+00
  1.782221e+00    2.869989e+00
  1.798096e+00    2.875095e+00
  1.813972e+00    2.888407e+00
  1.829847e+00    2.990641e+00
  1.845723e+00    2.811668e+00
  1.861598e+00    2.664901e+00
  1.877474e+00    2.821023e+00
  1.893350e+00    2.796663e+00
  1.909225e+00    2.832202e+00
  1.925101e+00    2.756812e+00
  1.940976e+00    2.696562e+00
  1.956852e+00    2.822328e+00
  1.972727e+00    2.750420e+00
  1.988603e+00    2.769180e+00
  2.004479e+00    2.726592e+00
  2.020354e+00    2.717893e+00
  2.036230e+00    2.762240e+00
  2.052105e+00    2.842294e+00
  2.067981e+00    2.819577e+00
  2.083856e+00    2.773459e+00
  2.099732e+00    2.823255e+00
  2.115608e+00    2.722789e+00
  2.131483e+00    2.764351e+00
  2.147359e+00    2.792864e+00
  2.163234e+00    2.712676e+00
  2.179110e+00    2.801106e+00
  2.194985e+00    2.883987e+00
  2.210861e+00    2.853155e+00
  2.226737e+00    2.797719e+00
  2.242612e+00    2.743663e+00
  2.258488e+00    2.803334e+00
  2.274363e+00    2.842820e+00
  2.290239e+00    2.835747e+00
  2.306115e+00    2.831933e+00
  2.321990e+00    2.867937e+00
  2.337866e+00    2.886333e+00
  2.353741e+00    2.791884e+00
  2.369617e+00    2.815870e+00
  2.385492e+00    2.805998e+00
  2.401368e+00    2.750742e+00
  2.417244e+00    2.770732e+00
  2.433119e+00    2.827622e+00
  2.448995e+00    2.822337e+00
  2.464870e+00    2.853772e+00
  2.480746e+00    2.866651e+00
  2.496621e+00    2.951160e+00
  2.512497e+00    2.958804e+00
  2.528373e+00    2.839908e+00
  2.544248e+00    2.898229e+00
  2.560124e+00    2.940353e+00
  2.575999e+00    2.811370e+00
  2.591875e+00    2.731013e+00
  2.607750e+00    2.790584e+00
  2.623626e+00    2.839512e+00
  2.639502e+00    2.802463e+00
  2.655377e+00    2.864919e+00
  2.671253e+00    2.806843e+00
  2.687128e+00    2.887346e+00
  2.703004e+00    2.869351e+00
  2.718879e+00    2.796417e+00
  2.734755e+00    2.722166e+00
  2.750631e+00    2.728553e+00
  2.766506e+00    2.859244e+00
  2.782382e+00    2.896838e+00
  2.798257e+00    2.818110e+00
  2.814133e+00    2.818546e+00
  2.830008e+00    2.781253e+00
  2.845884e+00    2.843639e+00
  2.861760e+00    2.863686e+00
  2.877635e+00    2.784286e+00
  2.893511e+00    2.757711e+00
  2.909386e+00    2.831773e+00
  2.925262e+00    2.819821e+00
  2.941137e+00    2.859610e+00
  2.957013e+00    2.886113e+00
  2.972889e+00    2.891266e+00
  2.988764e+00    2.843201e+00
  3.004640e+00    2.866380e+00
  3.020515e+00    2.918328e+00
  3.036391e+00    2.894741e+00
  3.052266e+00    3.010251e+00
  3.068142e+00    3.065520e+00
  3.084018e+00    2.965082e+00
  3.099893e+00    2.813062e+00
  3.115769e+00    2.908762e+00
  3.131644e+00    2.927674e+00
  3.147520e+00    2.989518e+00
  3.163395e+00    2.896969e+00
  3.179271e+00    2.910377e+00
  3.195147e+00    2.941128e+00
  3.211022e+00    3.047040e+00
  3.226898e+00    3.007898e+00
  3.242773e+00    2.954971e+00
  3.258649e+00    3.021610e+00
  3.274525e+00    3.042471e+00
  3.290400e+00    2.959264e+00
  3.306276e+00    2.977955e+00
  3.322151e+00    3.018811e+00
  3.338027e+00    2.972917e+00
  3.353902e+00    2.928226e+00
  3.369778e+00    2.900918e+00
  3.385654e+00    2.795182e+00
  3.401529e+00    2.923344e+00
  3.417405e+00    2.913714e+00
  3.433280e+00    2.918750e+00
  3.449156e+00    2.936228e+00
  3.465031e+00    2.968669e+00
  3.480907e+00    3.073153e+00
  3.496783e+00    2.968379e+00
  3.512658e+00    2.920774e+00
  3.528534e+00    2.896092e+00
  3.544409e+00    2.965808e+00
  3.560285e+00    2.995041e+00
  3.576160e+00    2.957068e+00
  3.592036e+00    2.997173e+00
  3.607912e+00    3.044346e+00
  3.623787e+00    3.062796e+00
  3.639663e+00    3.021766e+00
  3.655538e+00    2.942882e+00
  3.671414e+00    2.933645e+00
  3.687289e+00    3.006266e+00
  3.703165e+00    3.014852e+00
  3.719041e+00    3.080802e+00
  3.734916e+00    3.038577e+00
  3.750792e+00    2.957412e+00
  3.766667e+00    2.961441e+00
  3.782543e+00    3.030153e+00
  3.798418e+00    3.006641e+00
  3.814294e+00    2.957836e+00
  3.830170e+00    2.943015e+00
  3.846045e+00    3.027974e+00
  3.861921e+00    2.960656e+00
  3.877796e+00    2.990030e+00
  3.893672e+00    3.015760e+00
  3.909547e+00    3.006392e+00
  3.925423e+00    3.017669e+00
  3.941299e+00    3.002101e+00
  3.957174e+00    2.961496e+00
  3.973050e+00    3.033694e+00
  3.988925e+00    3.024034e+00
  4.004801e+00    2.918456e+00
  4.020676e+00    3.015100e+00
  4.036552e+00    3.077546e+00
  4.052428e+00    3.004652e+00
  4.068303e+00    2.982025e+00
  4.084179e+00    2.994114e+00
  4.100054e+00    3.029732e+00
  4.115930e+00    2.975779e+00
  4.131806e+00    3.016272e+00
  4.147681e+00    2.988502e+00
  4.163557e+00    3.070888e+00
  4.179432e+00    3.110321e+00
  4.195308e+00    3.042087e+00
  4.211183e+00    3.039483e+00
  4.227059e+00    3.034514e+00
  4.242935e+00    3.056388e+00
  4.258810e+00    3.004603e+00
  4.274686e+00    2.987276e+00
  4.290561e+00    2.985617e+00
  4.306437e+00    3.076468e+00
  4.322312e+00    3.102347e+00
  4.338188e+00    2.973813e+00
  4.354064e+00    2.998889e+00
  4.369939e+00    3.075198e+00
  4.385815e+00    3.160921e+00
  4.401690e+00    3.102426e+00
  4.417566e+00    3.100329e+00
  4.433441e+00    3.045840e+00
  4.449317e+00    3.036860e+00
  4.465193e+00    3.069088e+00
  4.481068e+00    3.095544e+00
  4.496944e+00    3.094510e+00
  4.512819e+00    3.092199e+00
  4.528695e+00    3.129320e+00
  4.544570e+00    3.122492e+00
  4.560446e+00    3.113725e+00
  4.576322e+00    3.099250e+00
  4.592197e+00    3.087892e+00
  4.608073e+00    3.039711e+00
  4.623948e+00    3.070212e+00
  4.639824e+00    3.137635e+00
  4.655699e+00    3.081534e+00
  4.671575e+00    3.099199e+00
  4.687451e+00    3.138715e+00
  4.703326e+00    3.086314e+00
  4.719202e+00    3.065659e+00
  4.735077e+00    3.346107e+00
  4.750953e+00    3.281662e+00
  4.766828e+00    3.126441e+00
  4.782704e+00    3.059190e+00
  4.798580e+00    3.155343e+00
  4.814455e+00    3.077173e+00
  4.830331e+00    3.108206e+00
  4.846206e+00    3.133236e+00
  4.862082e+00    3.067072e+00
  4.877957e+00    3.057677e+00
  4.893833e+00    3.133932e+00
  4.909709e+00    3.183801e+00
  4.925584e+00    3.183947e+00
  4.941460e+00    3.106555e+00
  4.957335e+00    3.052587e+00
  4.973211e+00    3.090933e+00
  4.989086e+00    3.101546e+00
  5.004962e+00    3.094144e+00
  5.020838e+00    3.082067e+00
  5.036713e+00    3.158594e+00
  5.052589e+00    3.137386e+00
  5.068464e+00    3.131062e+00
  5.084340e+00    3.066977e+00
  5.100216e+00    3.033994e+00
  5.116091e+00    3.085442e+00
  5.131967e+00    3.205932e+00
  5.147842e+00    3.231527e+00
  5.163718e+00    3.132293e+00
  5.179593e+00    3.116357e+00
  5.195469e+00    3.092227e+00
  5.211345e+00    3.031110e+00
  5.227220e+00    3.031603e+00
  5.243096e+00    3.194558e+00
  5.258971e+00    3.120504e+00
  5.274847e+00    3.112313e+00
  5.290722e+00    3.119395e+00
  5.306598e+00    3.086217e+00
  5.322474e+00    3.200506e+00
  5.338349e+00    3.075944e+00
  5.354225e+00    3.093787e+00
  5.370100e+00    3.171741e+00
  5.385976e+00    3.136668e+00
  5.401851e+00    3.141696e+00
  5.417727e+00    3.074163e+00
  5.433603e+00    3.074565e+00
  5.449478e+00    3.045364e+00
  5.465354e+00    3.060815e+00
  5.481229e+00    3.127889e+00
  5.497105e+00    3.002936e+00
  5.512980e+00    3.035581e+00
  5.528856e+00    3.156653e+00
  5.544732e+00    3.193521e+00
  5.560607e+00    3.148274e+00
  5.576483e+00    3.110046e+00
  5.592358e+00    3.115663e+00
  5.608234e+00    3.121547e+00
  5.624109e+00    3.085672e+00
  5.639985e+00    3.010924e+00
  5.655861e+00    3.024177e+00
  5.671736e+00    3.007144e+00
  5.687612e+00    3.087579e+00
  5.703487e+00    3.111678e+00
  5.719363e+00    3.092376e+00
  5.735238e+00    3.084909e+00
  5.751114e+00    3.049026e+00
  5.766990e+00    3.031686e+00
  5.782865e+00    2.988881e+00
  5.798741e+00    2.989322e+00
  5.814616e+00    3.065059e+00
  5.830492e+00    3.161242e+00
  5.846367e+00    3.066991e+00
  5.862243e+00    2.973741e+00
  5.878119e+00    3.019654e+00
  5.893994e+00    2.994252e+00
  5.909870e+00    3.020103e+00
  5.925745e+00    3.067841e+00
  5.941621e+00    3.070105e+00
  5.957497e+00    3.055862e+00
  5.973372e+00    3.008455e+00
  5.989248e+00    3.052372e+00
  6.005123e+00    3.135861e+00
  6.020999e+00    3.080350e+00
  6.036874e+00    3.136580e+00
  6.052750e+00    3.101252e+00
  6.068626e+00    3.036607e+00
  6.084501e+00    2.961891e+00
  6.100377e+00    3.024369e+00
  6.116252e+00    3.043118e+00
  6.132128e+00    3.073439e+00
  6.148003e+00    3.136976e+00
  6.163879e+00    3.070051e+00
  6.179755e+00    3.070692e+00
  6.195630e+00    3.048166e+00
  6.211506e+00    3.027197e+00
  6.227381e+00    3.014565e+00
  6.243257e+00    2.976628e+00
  6.259132e+00    2.987097e+00
  6.275008e+00    3.019011e+00
  6.290884e+00    3.016531e+00
  6.306759e+00    2.982131e+00
  6.322635e+00    3.019140e+00
  6.338510e+00    3.026702e+00
  6.354386e+00    3.029263e+00
  6.370261e+00    3.048741e+00
  6.386137e+00    3.047001e+00
  6.402013e+00    3.111852e+00
  6.417888e+00    3.103887e+00
  6.433764e+00    3.026513e+00
  6.449639e+00    3.045179e+00
  6.465515e+00    3.036568e+00
  6.481390e+00    3.041722e+00
  6.497266e+00    3.060744e+00
  6.513142e+00    3.021308e+00
  6.529017e+00    3.031257e+00
  6.544893e+00    3.071903e+00
  6.560768e+00    3.093713e+00
  6.576644e+00    3.071905e+00
  6.592519e+00    3.038983e+00
  6.608395e+00    3.076591e+00
  6.624271e+00    3.066931e+00
  6.640146e+00    3.046870e+00
  6.656022e+00    3.068350e+00
  6.671897e+00    3.072837e+00
  6.687773e+00    3.053298e+00
  6.703648e+00    3.092654e+00
  6.719524e+00    3.083122e+00
  6.735400e+00    3.017423e+00
  6.751275e+00    3.042017e+00
  6.767151e+00    2.973362e+00
  6.783026e+00    3.048373e+00
  6.798902e+00    3.035693e+00
  6.814777e+00    3.021421e+00
  6.830653e+00    3.031209e+00
  6.846529e+00    3.014869e+00
  6.862404e+00    3.064048e+00
  6.878280e+00    3.051570e+00
  6.894155e+00    3.029995e+00
  6.910031e+00    3.002809e+00
  6.925907e+00    3.018516e+00
  6.941782e+00    3.091381e+00
  6.957658e+00    3.024044e+00
  6.973533e+00    3.028971e+00
  6.989409e+00    3.065009e+00
  7.005284e+00    3.077682e+00
  7.021160e+00    3.062450e+00
  7.037036e+00    3.072512e+00
  7.052911e+00    3.066036e+00
  7.068787e+00    2.990767e+00
  7.084662e+00    3.044990e+00
  7.100538e+00    3.007782e+00
  7.116413e+00    3.055744e+00
  7.132289e+00    3.005124e+00
  7.148165e+00    3.002154e+00
  7.164040e+00    2.992454e+00
  7.179916e+00    2.977503e+00
  7.195791e+00    2.992910e+00
  7.211667e+00    3.001923e+00
  7.227542e+00    2.932065e+00
  7.243418e+00    2.920077e+00
  7.259294e+00    2.956633e+00
  7.275169e+00    3.017345e+00
  7.291045e+00    3.060564e+00
  7.306920e+00    3.004275e+00
  7.322796e+00    2.984253e+00
  7.338671e+00    2.970648e+00
  7.354547e+00    2.989462e+00
  7.370423e+00    2.986371e+00
  7.386298e+00    2.972788e+00
  7.402174e+00    2.968827e+00
  7.418049e+00    3.006296e+00
  7.433925e+00    2.984634e+00
  7.449800e+00    3.091046e+00
  7.465676e+00    3.036017e+00
  7.481552e+00    3.046041e+00
  7.497427e+00    3.035695e+00
  7.513303e+00    3.021317e+00
  7.529178e+00    2.991724e+00
  7.545054e+00    2.908746e+00
  7.560929e+00    2.972673e+00
  7.576805e+00    3.038515e+00
  7.592681e+00    3.005484e+00
  7.608556e+00    2.948059e+00
  7.624432e+00    2.950840e+00
  7.640307e+00    2.995329e+00
  7.656183e+00    2.987515e+00
  7.672058e+00    2.986224e+00
  7.687934e+00    2.935174e+00
  7.703810e+00    2.943222e+00
  7.719685e+00    2.917216e+00
  7.735561e+00    2.906797e+00
  7.751436e+00    2.894110e+00
  7.767312e+00    2.903950e+00
  7.783187e+00    2.947094e+00
  7.799063e+00    2.996581e+00
  7.814939e+00    2.940828e+00
  7.830814e+00    2.939871e+00
  7.846690e+00    3.003499e+00
  7.862565e+00    2.967540e+00
  7.878441e+00    2.985074e+00
  7.894317e+00    2.959013e+00
  7.910192e+00    2.950014e+00
  7.926068e+00    2.946100e+00
  7.941943e+00    2.904040e+00
  7.957819e+00    2.918345e+00
  7.973694e+00    2.918676e+00
  7.989570e+00    2.864163e+00
  8.005446e+00    2.913611e+00
  8.021321e+00    2.925579e+00
  8.037197e+00    2.917749e+00
  8.053072e+00    2.942000e+00
  8.068948e+00    2.894928e+00
  8.084823e+00    2.912402e+00
  8.100699e+00    2.911481e+00
  8.116575e+00    3.007878e+00
  8.132450e+00    3.016761e+00
  8.148326e+00    2.946963e+00
  8.164201e+00    2.987276e+00
  8.180077e+00    3.013420e+00
  8.195952e+00    3.044605e+00
  8.211828e+00    2.956420e+00
  8.227704e+00    2.902359e+00
  8.243579e+00    2.950616e+00
  8.259455e+00    2.899667e+00
  8.275330e+00    2.942129e+00
  8.291206e+00    2.952201e+00
  8.307081e+00    2.955923e+00
  8.322957e+00    2.894399e+00
  8.338833e+00    2.945290e+00
  8.354708e+00    2.947255e+00
  8.370584e+00    2.925545e+00
  8.386459e+00    2.955294e+00
  8.402335e+00    2.898470e+00
  8.418210e+00    2.885048e+00
  8.434086e+00    2.853502e+00
  8.449962e+00    2.879955e+00
  8.465837e+00    2.881630e+00
  8.481713e+00    2.895351e+00
  8.497588e+00    2.901188e+00
  8.513464e+00    2.906264e+00
  8.529339e+00    2.847800e+00
  8.545215e+00    2.890539e+00
  8.561091e+00    2.942878e+00
  8.576966e+00    2.906101e+00
  8.592842e+00    2.909974e+00
  8.608717e+00    2.907036e+00
  8.624593e+00    2.851317e+00
  8.640468e+00    2.845365e+00
  8.656344e+00    2.881958e+00
  8.672220e+00    2.911819e+00
  8.688095e+00    2.798971e+00
  8.703971e+00    2.848216e+00
  8.719846e+00    2.887333e+00
  8.735722e+00    2.865199e+00
  8.751598e+00    2.807624e+00
  8.767473e+00    2.883173e+00
  8.783349e+00    2.893582e+00
  8.799224e+00    2.864612e+00
  8.815100e+00    2.882767e+00
  8.830975e+00    2.767395e+00
  8.846851e+00    2.791527e+00
  8.862727e+00    2.909602e+00
  8.878602e+00    2.874499e+00
  8.894478e+00    2.809560e+00
  8.910353e+00    2.803989e+00
  8.926229e+00    2.840995e+00
  8.942104e+00    2.884604e+00
  8.957980e+00    2.822482e+00
  8.973856e+00    2.810487e+00
  8.989731e+00    2.817961e+00
  9.005607e+00    2.880427e+00
  9.021482e+00    2.858239e+00
  9.037358e+00    2.855150e+00
  9.053233e+00    2.812852e+00
  9.069109e+00    2.782883e+00
  9.084985e+00    2.835160e+00
  9.100860e+00    2.842293e+00
  9.116736e+00    2.875007e+00
  9.132611e+00    2.812649e+00
  9.148487e+00    2.864336e+00
  9.164362e+00    2.834519e+00
  9.180238e+00    2.820438e+00
  9.196114e+00    2.810679e+00
  9.211989e+00    2.877455e+00
  9.227865e+00    2.828497e+00
  9.243740e+00    2.776627e+00
  9.259616e+00    2.784207e+00
  9.275491e+00    2.789550e+00
  9.291367e+00    2.811496e+00
  9.307243e+00    2.740498e+00
  9.323118e+00    2.742211e+00
  9.338994e+00    2.720118e+00
  9.354869e+00    2.759626e+00
  9.370745e+00    2.800736e+00
  9.386620e+00    2.799845e+00
  9.402496e+00    2.811262e+00
  9.418372e+00    2.743055e+00
  9.434247e+00    2.762580e+00
  9.450123e+00    2.748679e+00
  9.465998e+00    2.739598e+00
  9.481874e+00    2.730992e+00
  9.497749e+00    2.739746e+00
  9.513625e+00    2.751680e+00
  9.529501e+00    2.795307e+00
  9.545376e+00    2.772435e+00
  9.561252e+00    2.763991e+00
  9.577127e+00    2.779815e+00
  9.593003e+00    2.789823e+00
  9.608878e+00    2.716441e+00
  9.624754e+00    2.779142e+00
  9.640630e+00    2.815927e+00
  9.656505e+00    2.773398e+00
  9.672381e+00    2.766854e+00
  9.688256e+00    2.800670e+00
  9.704132e+00    2.752194e+00
  9.720008e+00    2.712215e+00
  9.735883e+00    2.752982e+00
  9.751759e+00    2.736299e+00
  9.767634e+00    2.680336e+00
  9.783510e+00    2.703150e+00
  9.799385e+00    2.751974e+00
  9.815261e+00    2.773518e+00
  9.831137e+00    2.753929e+00
  9.847012e+00    2.759305e+00
  9.862888e+00    2.730016e+00
  9.878763e+00    2.764612e+00
  9.894639e+00    2.745802e+00
  9.910514e+00    2.738344e+00
  9.926390e+00    2.669093e+00
  9.942266e+00    2.657480e+00
  9.958141e+00    2.658174e+00
  9.974017e+00    2.663647e+00
  9.989892e+00    2.661991e+00
  1.000577e+01    2.690723e+00
  1.002164e+01    2.710281e+00
  1.003752e+01    2.703617e+00
  1.005339e+01    2.707929e+00
  1.006927e+01    2.671050e+00
  1.008515e+01    2.697872e+00
  1.010102e+01    2.694753e+00
  1.011690e+01    2.642565e+00
  1.013277e+01    2.643133e+00
  1.014865e+01    2.671029e+00
  1.016452e+01    2.733989e+00
  1.018040e+01    2.730991e+00
  1.019627e+01    2.674049e+00
  1.021215e+01    2.640813e+00
  1.022803e+01    2.647719e+00
  1.024390e+01    2.637372e+00
  1.025978e+01    2.636038e+00
  1.027565e+01    2.658565e+00
  1.029153e+01    2.716950e+00
  1.030740e+01    2.656361e+00
  1.032328e+01    2.613625e+00
  1.033915e+01    2.593185e+00
  1.035503e+01    2.599100e+00
  1.037091e+01    2.581765e+00
  1.038678e+01    2.584233e+00
  1.040266e+01    2.583007e+00
  1.041853e+01    2.594812e+00
  1.043441e+01    2.605893e+00
  1.045028e+01    2.624923e+00
  1.046616e+01    2.653606e+00
  1.048204e+01    2.632296e+00
  1.049791e+01    2.642881e+00
  1.051379e+01    2.634335e+00
  1.052966e+01    2.573415e+00
  1.054554e+01    2.574409e+00
  1.056141e+01    2.600438e+00
  1.057729e+01    2.657042e+00
  1.059316e+01    2.593517e+00
  1.060904e+01    2.545151e+00
  1.062492e+01    2.558579e+00
  1.064079e+01    2.586014e+00
  1.065667e+01    2.621128e+00
  1.067254e+01    2.547343e+00
  1.068842e+01    2.593163e+00
  1.070429e+01    2.585079e+00
  1.072017e+01    2.561668e+00
  1.073604e+01    2.537382e+00
  1.075192e+01    2.556184e+00
  1.076780e+01    2.529591e+00
  1.078367e+01    2.540474e+00
  1.079955e+01    2.523304e+00
  1.081542e+01    2.500707e+00
  1.083130e+01    2.513391e+00
  1.084717e+01    2.513929e+00
  1.086305e+01    2.520404e+00
  1.087892e+01    2.569294e+00
  1.089480e+01    2.538556e+00
  1.091068e+01    2.572572e+00
  1.092655e+01    2.590971e+00
  1.094243e+01    2.550224e+00
  1.095830e+01    2.520520e+00
  1.097418e+01    2.506872e+00
  1.099005e+01    2.493290e+00
  1.100593e+01    2.515949e+00
  1.102180e+01    2.502448e+00
  1.103768e+01    2.471275e+00
  1.105356e+01    2.474523e+00
  1.106943e+01    2.496522e+00
  1.108531e+01    2.473412e+00
  1.110118e+01    2.492802e+00
  1.111706e+01    2.502642e+00
  1.113293e+01    2.512728e+00
  1.114881e+01    2.475991e+00
  1.116468e+01    2.456649e+00
  1.118056e+01    2.467411e+00
  1.119644e+01    2.477641e+00
  1.121231e+01    2.474569e+00
  1.122819e+01    2.502033e+00
  1.124406e+01    2.519416e+00
  1.125994e+01    2.438130e+00
  1.127581e+01    2.430264e+00
  1.129169e+01    2.404551e+00
  1.130756e+01    2.420490e+00
  1.132344e+01    2.415107e+00
  1.133932e+01    2.423980e+00
  1.135519e+01    2.456088e+00
  1.137107e+01    2.434017e+00
  1.138694e+01    2.424144e+00
  1.140282e+01    2.418536e+00
  1.141869e+01    2.426578e+00
  1.143457e+01    2.450246e+00
  1.145045e+01    2.415958e+00
  1.146632e+01    2.393862e+00
  1.148220e+01    2.411016e+00
  1.149807e+01    2.443742e+00
  1.151395e+01    2.461130e+00
  1.152982e+01    2.423003e+00
  1.154570e+01    2.427929e+00
  1.156157e+01    2.374559e+00
  1.157745e+01    2.372668e+00
  1.159333e+01    2.401398e+00
  1.160920e+01    2.367494e+00
  1.162508e+01    2.407117e+00
  1.164095e+01    2.397860e+00
  1.165683e+01    2.399672e+00
  1.167270e+01    2.354181e+00
  1.168858e+01    2.354192e+00
  1.170445e+01    2.426531e+00
  1.172033e+01    2.401081e+00
  1.173621e+01    2.365736e+00
  1.175208e+01    2.359499e+00
  1.176796e+01    2.346771e+00
  1.178383e+01    2.332812e+00
  1.179971e+01    2.334599e+00
  1.181558e+01    2.345125e+00
  1.183146e+01    2.388122e+00
  1.184733e+01    2.367983e+00
  1.186321e+01    2.321765e+00
  1.187909e+01    2.351745e+00
  1.189496e+01    2.371636e+00
  1.191084e+01    2.364244e+00
  1.192671e+01    2.360705e+00
  1.194259e+01    2.357038e+00
  1.195846e+01    2.328879e+00
  1.197434e+01    2.349040e+00
  1.199021e+01    2.378034e+00
  1.200609e+01    2.373127e+00
  1.202197e+01    2.332051e+00
  1.203784e+01    2.330426e+00
  1.205372e+01    2.368949e+00
  1.206959e+01    2.354346e+00
  1.208547e+01    2.319012e+00
  1.210134e+01    2.291940e+00
  1.211722e+01    2.347518e+00
  1.213309e+01    2.333405e+00
  1.214897e+01    2.318164e+00
  1.216485e+01    2.332187e+00
  1.218072e+01    2.391462e+00
  1.219660e+01    2.396452e+00
  1.221247e+01    2.325652e+00
  1.222835e+01    2.337642e+00
  1.224422e+01    2.327113e+00
  1.226010e+01    2.342706e+00
  1.227597e+01    2.332876e+00
  1.229185e+01    2.289927e+00
  1.230773e+01    2.333766e+00
  1.232360e+01    2.291798e+00
  1.233948e+01    2.301949e+00
  1.235535e+01    2.306361e+00
  1.237123e+01    2.354511e+00
  1.238710e+01    2.356540e+00
  1.240298e+01    2.378995e+00
  1.241886e+01    2.361976e+00
  1.243473e+01    2.362217e+00
  1.245061e+01    2.353518e+00
  1.246648e+01    2.373536e+00
  1.248236e+01    2.384227e+00
  1.249823e+01    2.398434e+00
  1.251411e+01    2.369127e+00
  1.252998e+01    2.357537e+00
  1.254586e+01    2.354440e+00
  1.256174e+01    2.357141e+00
  1.257761e+01    2.362107e+00
  1.259349e+01    2.444365e+00
  1.260936e+01    2.471831e+00
  1.262524e+01    2.409043e+00
  1.264111e+01    2.395952e+00
  1.265699e+01    2.403943e+00
  1.267286e+01    2.500159e+00
  1.268874e+01    2.499096e+00
  1.270462e+01    2.539767e+00
  1.272049e+01    2.508956e+00
  1.273637e+01    2.556140e+00
  1.275224e+01    2.549186e+00
  1.276812e+01    2.551435e+00
  1.278399e+01    2.594236e+00
  1.279987e+01    2.727691e+00
  1.281574e+01    2.776451e+00
  1.283162e+01    2.762505e+00
  1.284750e+01    2.858272e+00
  1.286337e+01    2.961642e+00
  1.287925e+01    3.064850e+00
  1.289512e+01    3.157925e+00
  1.291100e+01    3.329520e+00
  1.292687e+01    3.447734e+00
  1.294275e+01    3.656037e+00
  1.295862e+01    3.991172e+00
  1.297450e+01    4.294578e+00
  1.299038e+01    4.653063e+00
  1.300625e+01    5.180558e+00
  1.302213e+01    5.912858e+00
  1.303800e+01    6.817531e+00
  1.305388e+01    7.828719e+00
  1.306975e+01    9.191538e+00
  1.308563e+01    1.065728e+01
  1.310150e+01    1.217792e+01
  1.311738e+01    1.360968e+01
  1.313326e+01    1.495160e+01
  1.314913e+01    1.638116e+01
  1.316501e+01    1.774932e+01
  1.318088e+01    1.897176e+01
  1.319676e+01    1.938780e+01
  1.321263e+01    1.904166e+01
  1.322851e+01    1.768566e+01
  1.324438e+01    1.573562e+01
  1.326026e+01    1.338127e+01
  1.327614e+01    1.123147e+01
  1.329201e+01    9.355209e+00
  1.330789e+01    7.911524e+00
  1.332376e+01    6.808043e+00
  1.333964e+01    5.969645e+00
  1.335551e+01    5.282468e+00
  1.337139e+01    4.769804e+00
  1.338727e+01    4.353762e+00
  1.340314e+01    4.048704e+00
  1.341902e+01    3.762292e+00
  1.343489e+01    3.508477e+00
  1.345077e+01    3.297994e+00
  1.346664e+01    3.098068e+00
  1.348252e+01    2.963101e+00
  1.349839e+01    2.855603e+00
  1.351427e+01    2.787234e+00
  1.353015e+01    2.748856e+00
  1.354602e+01    2.762644e+00
  1.356190e+01    2.668250e+00
  1.357777e+01    2.578423e+00
  1.359365e+01    2.566193e+00
  1.360952e+01    2.513264e+00
  1.362540e+01    2.422679e+00
  1.364127e+01    2.415802e+00
  1.365715e+01    2.389449e+00
  1.367303e+01    2.334615e+00
  1.368890e+01    2.308456e+00
  1.370478e+01    2.312851e+00
  1.372065e+01    2.274951e+00
  1.373653e+01    2.223628e+00
  1.375240e+01    2.244499e+00
  1.376828e+01    2.249910e+00
  1.378415e+01    2.235934e+00
  1.380003e+01    2.211675e+00
  1.381591e+01    2.192688e+00
  1.383178e+01    2.169143e+00
  1.384766e+01    2.145575e+00
  1.386353e+01    2.123628e+00
  1.387941e+01    2.103168e+00
  1.389528e+01    2.161798e+00
  1.391116e+01    2.165190e+00
  1.392703e+01    2.148103e+00
  1.394291e+01    2.079796e+00
  1.395879e+01    2.071468e+00
  1.397466e+01    2.094870e+00
  1.399054e+01    2.078402e+00
  1.400641e+01    2.087756e+00
  1.402229e+01    2.105092e+00
  1.403816e+01    2.141741e+00
  1.405404e+01    2.077297e+00
  1.406991e+01    2.059873e+00
  1.408579e+01    2.032361e+00
  1.410167e+01    2.036862e+00
  1.411754e+01    2.055725e+00
  1.413342e+01    2.029101e+00
  1.414929e+01    2.029710e+00
  1.416517e+01    1.986460e+00
  1.418104e+01    1.979500e+00
  1.419692e+01    1.986138e+00
  1.421279e+01    2.038670e+00
  1.422867e+01    2.031054e+00
  1.424455e+01    2.010967e+00
  1.426042e+01    2.009598e+00
  1.427630e+01    1.983123e+00
  1.429217e+01    1.959459e+00
  1.430805e+01    1.985820e+00
  1.432392e+01    1.978178e+00
  1.433980e+01    1.974912e+00
  1.435568e+01    1.971938e+00
  1.437155e+01    1.956078e+00
  1.438743e+01    1.958953e+00
  1.440330e+01    1.980781e+00
  1.441918e+01    1.958322e+00
  1.443505e+01    1.979392e+00
  1.445093e+01    1.952519e+00
  1.446680e+01    1.993526e+00
  1.448268e+01    1.963847e+00
  1.449856e+01    1.926341e+00
  1.451443e+01    1.927142e+00
  1.453031e+01    1.939556e+00
  1.454618e+01    1.924278e+00
  1.456206e+01    1.946966e+00
  1.457793e+01    1.912167e+00
  1.459381e+01    1.959165e+00
  1.460968e+01    1.932712e+00
  1.462556e+01    1.910573e+00
  1.464144e+01    1.925137e+00
  1.465731e+01    1.909099e+00
  1.467319e+01    1.897204e+00
  1.468906e+01    1.937740e+00
  1.470494e+01    1.937275e+00
  1.472081e+01    1.927594e+00
  1.473669e+01    1.952874e+00
  1.475256e+01    1.921705e+00
  1.476844e+01    1.929026e+00
  1.478432e+01    1.930637e+00
  1.480019e+01    1.921785e+00
  1.481607e+01    1.951127e+00
  1.483194e+01    1.904421e+00
  1.484782e+01    1.883553e+00
  1.486369e+01    1.957241e+00
  1.487957e+01    1.949442e+00
  1.489544e+01    1.945213e+00
  1.491132e+01    1.983122e+00
  1.492720e+01    2.009561e+00
  1.494307e+01    1.993918e+00
  1.495895e+01    2.070425e+00
  1.497482e+01    2.071044e+00
  1.499070e+01    2.103708e+00
  1.500657e+01    2.135130e+00
  1.502245e+01    2.195916e+00
  1.503832e+01    2.260720e+00
  1.505420e+01    2.352369e+00
  1.507008e+01    2.439524e+00
  1.508595e+01    2.601941e+00
  1.510183e+01    2.758138e+00
  1.511770e+01    2.988085e+00
  1.513358e+01    3.219258e+00
  1.514945e+01    3.548237e+00
  1.516533e+01    3.953056e+00
  1.518120e+01    4.429122e+00
  1.519708e+01    4.900595e+00
  1.521296e+01    5.270052e+00
  1.522883e+01    5.568044e+00
  1.524471e+01    5.972055e+00
  1.526058e+01    6.254758e+00
  1.527646e+01    6.448410e+00
  1.529233e+01    6.559253e+00
  1.530821e+01    6.387297e+00
  1.532409e+01    5.995720e+00
  1.533996e+01    5.446381e+00
  1.535584e+01    4.844736e+00
  1.537171e+01    4.263204e+00
  1.538759e+01    3.763991e+00
  1.540346e+01    3.391654e+00
  1.541934e+01    3.059485e+00
  1.543521e+01    2.758055e+00
  1.545109e+01    2.557859e+00
  1.546697e+01    2.427360e+00
  1.548284e+01    2.331119e+00
  1.549872e+01    2.266286e+00
  1.551459e+01    2.164381e+00
  1.553047e+01    2.053500e+00
  1.554634e+01    2.043919e+00
  1.556222e+01    2.000049e+00
  1.557809e+01    1.935498e+00
  1.559397e+01    1.897468e+00
  1.560985e+01    1.893346e+00
  1.562572e+01    1.865592e+00
  1.564160e+01    1.854788e+00
  1.565747e+01    1.852183e+00
  1.567335e+01    1.785887e+00
  1.568922e+01    1.769601e+00
  1.570510e+01    1.751921e+00
  1.572097e+01    1.775480e+00
  1.573685e+01    1.732992e+00
  1.575273e+01    1.712524e+00
  1.576860e+01    1.723802e+00
  1.578448e+01    1.738016e+00
  1.580035e+01    1.707032e+00
  1.581623e+01    1.727091e+00
  1.583210e+01    1.692606e+00
  1.584798e+01    1.674769e+00
  1.586385e+01    1.676144e+00
  1.587973e+01    1.667177e+00
  1.589561e+01    1.643139e+00
  1.591148e+01    1.643622e+00
  1.592736e+01    1.676701e+00
  1.594323e+01    1.676936e+00
  1.595911e+01    1.659044e+00
  1.597498e+01    1.652125e+00
  1.599086e+01    1.637452e+00
  1.600673e+01    1.603702e+00
  1.602261e+01    1.622588e+00
  1.603849e+01    1.654567e+00
  1.605436e+01    1.637478e+00
  1.607024e+01    1.587924e+00
  1.608611e+01    1.580785e+00
  1.610199e+01    1.576135e+00
  1.611786e+01    1.615489e+00
  1.613374e+01    1.604635e+00
  1.614961e+01    1.560255e+00
  1.616549e+01    1.584585e+00
  1.618137e+01    1.579069e+00
  1.619724e+01    1.572708e+00
  1.621312e+01    1.610414e+00
  1.622899e+01    1.583746e+00
  1.624487e+01    1.588894e+00
  1.626074e+01    1.581368e+00
  1.627662e+01    1.564697e+00
  1.629250e+01    1.568937e+00
  1.630837e+01    1.549619e+00
  1.632425e+01    1.543564e+00
  1.634012e+01    1.579040e+00
  1.635600e+01    1.599520e+00
  1.637187e+01    1.555106e+00
  1.638775e+01    1.567425e+00
  1.640362e+01    1.552392e+00
  1.641950e+01    1.564661e+00
  1.643538e+01    1.567847e+00
  1.645125e+01    1.532234e+00
  1.646713e+01    1.554182e+00
  1.648300e+01    1.550525e+00
  1.649888e+01    1.509328e+00
  1.651475e+01    1.508942e+00
  1.653063e+01    1.513594e+00
  1.654650e+01    1.504140e+00
  1.656238e+01    1.532316e+00
  1.657826e+01    1.529206e+00
  1.659413e+01    1.501772e+00
  1.661001e+01    1.478566e+00
  1.662588e+01    1.477922e+00
  1.664176e+01    1.503504e+00
  1.665763e+01    1.464410e+00
  1.667351e+01    1.518103e+00
  1.668938e+01    1.498609e+00
  1.670526e+01    1.487764e+00
  1.672114e+01    1.487667e+00
  1.673701e+01    1.492480e+00
  1.675289e+01    1.523551e+00
  1.676876e+01    1.488332e+00
  1.678464e+01    1.444486e+00
  1.680051e+01    1.471449e+00
  1.681639e+01    1.453585e+00
  1.683226e+01    1.462852e+00
  1.684814e+01    1.476757e+00
  1.686402e+01    1.454991e+00
  1.687989e+01    1.460627e+00
  1.689577e+01    1.472781e+00
  1.691164e+01    1.451006e+00
  1.692752e+01    1.466222e+00
  1.694339e+01    1.461666e+00
  1.695927e+01    1.451857e+00
  1.697514e+01    1.470523e+00
  1.699102e+01    1.429310e+00
  1.700690e+01    1.433233e+00
  1.702277e+01    1.455348e+00
  1.703865e+01    1.457626e+00
  1.705452e+01    1.454552e+00
  1.707040e+01    1.440252e+00
  1.708627e+01    1.410222e+00
  1.710215e+01    1.450750e+00
  1.711802e+01    1.437179e+00
  1.713390e+01    1.427212e+00
  1.714978e+01    1.417069e+00
  1.716565e+01    1.421472e+00
  1.718153e+01    1.404329e+00
  1.719740e+01    1.405254e+00
  1.721328e+01    1.423688e+00
  1.722915e+01    1.420327e+00
  1.724503e+01    1.437843e+00
  1.726091e+01    1.416738e+00
  1.727678e+01    1.383625e+00
  1.729266e+01    1.396009e+00
  1.730853e+01    1.415039e+00
  1.732441e+01    1.374165e+00
  1.734028e+01    1.375397e+00
  1.735616e+01    1.388519e+00
  1.737203e+01    1.415860e+00
  1.738791e+01    1.372174e+00
  1.740379e+01    1.368451e+00
  1.741966e+01    1.385432e+00
  1.743554e+01    1.418748e+00
  1.745141e+01    1.381544e+00
  1.746729e+01    1.381699e+00
  1.748316e+01    1.363878e+00
  1.749904e+01    1.378079e+00
  1.751491e+01    1.352291e+00
  1.753079e+01    1.352349e+00
  1.754667e+01    1.350437e+00
  1.756254e+01    1.338244e+00
  1.757842e+01    1.354887e+00
  1.759429e+01    1.383757e+00
  1.761017e+01    1.379231e+00
  1.762604e+01    1.353593e+00
  1.764192e+01    1.357270e+00
  1.765779e+01    1.353055e+00
  1.767367e+01    1.367408e+00
  1.768955e+01    1.378766e+00
  1.770542e+01    1.364563e+00
  1.772130e+01    1.338250e+00
  1.773717e+01    1.340396e+00
  1.775305e+01    1.347719e+00
  1.776892e+01    1.359749e+00
  1.778480e+01    1.357670e+00
  1.780067e+01    1.329202e+00
  1.781655e+01    1.330293e+00
  1.783243e+01    1.339745e+00
  1.784830e+01    1.313733e+00
  1.786418e+01    1.311146e+00
  1.788005e+01    1.317202e+00
  1.789593e+01    1.325279e+00
  1.791180e+01    1.308041e+00
  1.792768e+01    1.323595e+00
  1.794355e+01    1.314398e+00
  1.795943e+01    1.333331e+00
  1.797531e+01    1.330180e+00
  1.799118e+01    1.318467e+00
  1.800706e+01    1.331760e+00
  1.802293e+01    1.312012e+00
  1.803881e+01    1.297480e+00
  1.805468e+01    1.300721e+00
  1.807056e+01    1.305099e+00
  1.808643e+01    1.315531e+00
  1.810231e+01    1.308893e+00
  1.811819e+01    1.307289e+00
  1.813406e+01    1.307209e+00
  1.814994e+01    1.309671e+00
  1.816581e+01    1.307290e+00
  1.818169e+01    1.292867e+00
  1.819756e+01    1.310263e+00
  1.821344e+01    1.288774e+00
  1.822932e+01    1.251169e+00
  1.824519e+01    1.242541e+00
  1.826107e+01    1.285770e+00
  1.827694e+01    1.272081e+00
  1.829282e+01    1.281570e+00
  1.830869e+01    1.304145e+00
  1.832457e+01    1.292457e+00
  1.834044e+01    1.276510e+00
  1.835632e+01    1.274464e+00
  1.837220e+01    1.253185e+00
  1.838807e+01    1.294889e+00
  1.840395e+01    1.281742e+00
  1.841982e+01    1.258085e+00
  1.843570e+01    1.260794e+00
  1.845157e+01    1.273131e+00
  1.846745e+01    1.288374e+00
  1.848332e+01    1.295285e+00
  1.849920e+01    1.265030e+00
  1.851508e+01    1.250223e+00
  1.853095e+01    1.250490e+00
  1.854683e+01    1.246887e+00
  1.856270e+01    1.234079e+00
  1.857858e+01    1.238779e+00
  1.859445e+01    1.255980e+00
  1.861033e+01    1.238618e+00
  1.862620e+01    1.257523e+00
  1.864208e+01    1.258224e+00
  1.865796e+01    1.259813e+00
  1.867383e+01    1.251645e+00
  1.868971e+01    1.217351e+00
  1.870558e+01    1.214097e+00
  1.872146e+01    1.259057e+00
  1.873733e+01    1.244782e+00
  1.875321e+01    1.238753e+00
  1.876908e+01    1.250746e+00
  1.878496e+01    1.236837e+00
  1.880084e+01    1.246531e+00
  1.881671e+01    1.225430e+00
  1.883259e+01    1.209318e+00
  1.884846e+01    1.206864e+00
  1.886434e+01    1.245026e+00
  1.888021e+01    1.237158e+00
  1.889609e+01    1.219805e+00
  1.891196e+01    1.223652e+00
  1.892784e+01    1.207266e+00
  1.894372e+01    1.201148e+00
  1.895959e+01    1.195871e+00
  1.897547e+01    1.219919e+00
  1.899134e+01    1.225514e+00
  1.900722e+01    1.200759e+00
  1.902309e+01    1.190389e+00
  1.903897e+01    1.193507e+00
  1.905484e+01    1.210584e+00
  1.907072e+01    1.198335e+00
  1.908660e+01    1.178334e+00
  1.910247e+01    1.213137e+00
  1.911835e+01    1.234073e+00
  1.913422e+01    1.215099e+00
  1.915010e+01    1.172898e+00
  1.916597e+01    1.179011e+00
  1.918185e+01    1.181525e+00
  1.919773e+01    1.190537e+00
  1.921360e+01    1.172803e+00
  1.922948e+01    1.179953e+00
  1.924535e+01    1.192442e+00
  1.926123e+01    1.183564e+00
  1.927710e+01    1.186881e+00
  1.929298e+01    1.173248e+00
  1.930885e+01    1.209054e+00
  1.932473e+01    1.229898e+00
  1.934061e+01    1.192617e+00
  1.935648e+01    1.177616e+00
  1.937236e+01    1.175122e+00
  1.938823e+01    1.186318e+00
  1.940411e+01    1.176643e+00
  1.941998e+01    1.180616e+00
  1.943586e+01    1.172989e+00
  1.945173e+01    1.175405e+00
  1.946761e+01    1.155525e+00
  1.948349e+01    1.162817e+00
  1.949936e+01    1.178274e+00
  1.951524e+01    1.177181e+00
  1.953111e+01    1.174904e+00
  1.954699e+01    1.180346e+00
  1.956286e+01    1.166606e+00
  1.957874e+01    1.169482e+00
  1.959461e+01    1.160771e+00
  1.961049e+01    1.151967e+00
  1.962637e+01    1.167733e+00
  1.964224e+01    1.159162e+00
  1.965812e+01    1.161811e+00
  1.967399e+01    1.153481e+00
  1.968987e+01    1.128639e+00
  1.970574e+01    1.143628e+00
  1.972162e+01    1.168198e+00
  1.973749e+01    1.150977e+00
  1.975337e+01    1.133556e+00
  1.976925e+01    1.160618e+00
  1.978512e+01    1.147757e+00
  1.980100e+01    1.154732e+00
  1.981687e+01    1.135351e+00
  1.983275e+01    1.129548e+00
  1.984862e+01    1.171343e+00
  1.986450e+01    1.166030e+00
  1.988037e+01    1.138040e+00
  1.989625e+01    1.132842e+00
  1.991213e+01    1.155483e+00
  1.992800e+01    1.128256e+00
  1.994388e+01    1.128842e+00
  1.995975e+01    1.115316e+00
  1.997563e+01    1.110946e+00
  1.999150e+01    1.121834e+00
  2.000738e+01    1.121984e+00
  2.002325e+01    1.115240e+00
  2.003913e+01    1.146594e+00
  2.005501e+01    1.133283e+00
  2.007088e+01    1.124607e+00
  2.008676e+01    1.142425e+00
  2.010263e+01    1.140706e+00
  2.011851e+01    1.135900e+00
  2.013438e+01    1.134665e+00
  2.015026e+01    1.110339e+00
  2.016614e+01    1.107805e+00
  2.018201e+01    1.121283e+00
  2.019789e+01    1.129202e+00
  2.021376e+01    1.123507e+00
  2.022964e+01    1.113646e+00
  2.024551e+01    1.108108e+00
  2.026139e+01    1.102327e+00
  2.027726e+01    1.110510e+00
  2.029314e+01    1.105339e+00
  2.030902e+01    1.074789e+00
  2.032489e+01    1.101945e+00
  2.034077e+01    1.133067e+00
  2.035664e+01    1.108912e+00
  2.037252e+01    1.087208e+00
  2.038839e+01    1.109719e+00
  2.040427e+01    1.093920e+00
  2.042014e+01    1.108584e+00
  2.043602e+01    1.137534e+00
  2.045190e+01    1.114343e+00
  2.046777e+01    1.113516e+00
  2.048365e+01    1.096099e+00
  2.049952e+01    1.107082e+00
  2.051540e+01    1.090731e+00
  2.053127e+01    1.119380e+00
  2.054715e+01    1.123051e+00
  2.056302e+01    1.112414e+00
  2.057890e+01    1.114189e+00
  2.059478e+01    1.104257e+00
  2.061065e+01    1.120158e+00
  2.062653e+01    1.081266e+00
  2.064240e+01    1.089322e+00
  2.065828e+01    1.109190e+00
  2.067415e+01    1.095990e+00
  2.069003e+01    1.092654e+00
  2.070590e+01    1.101977e+00
  2.072178e+01    1.102043e+00
  2.073766e+01    1.103893e+00
  2.075353e+01    1.090768e+00
  2.076941e+01    1.107349e+00
  2.078528e+01    1.103485e+00
  2.080116e+01    1.081592e+00
  2.081703e+01    1.106118e+00
  2.083291e+01    1.084982e+00
  2.084878e+01    1.091463e+00
  2.086466e+01    1.092641e+00
  2.088054e+01    1.073919e+00
  2.089641e+01    1.097953e+00
  2.091229e+01    1.100632e+00
  2.092816e+01    1.095261e+00
  2.094404e+01    1.096487e+00
  2.095991e+01    1.078310e+00
  2.097579e+01    1.086423e+00
  2.099166e+01    1.106264e+00
  2.100754e+01    1.089072e+00
  2.102342e+01    1.108698e+00
  2.103929e+01    1.085833e+00
  2.105517e+01    1.126089e+00
  2.107104e+01    1.087646e+00
  2.108692e+01    1.090875e+00
  2.110279e+01    1.103652e+00
  2.111867e+01    1.103746e+00
  2.113455e+01    1.113701e+00
  2.115042e+01    1.102283e+00
  2.116630e+01    1.116576e+00
  2.118217e+01    1.138089e+00
  2.119805e+01    1.115328e+00
  2.121392e+01    1.116697e+00
  2.122980e+01    1.097998e+00
  2.124567e+01    1.079043e+00
  2.126155e+01    1.134328e+00
  2.127743e+01    1.138641e+00
  2.129330e+01    1.140059e+00
  2.130918e+01    1.143064e+00
  2.132505e+01    1.142252e+00
  2.134093e+01    1.151256e+00
  2.135680e+01    1.173898e+00
  2.137268e+01    1.210186e+00
  2.138855e+01    1.203033e+00
  2.140443e+01    1.176572e+00
  2.142031e+01    1.195306e+00
  2.143618e+01    1.192807e+00
  2.145206e+01    1.230493e+00
  2.146793e+01    1.246990e+00
  2.148381e+01    1.265494e+00
  2.149968e+01    1.292698e+00
  2.151556e+01    1.295048e+00
  2.153143e+01    1.307810e+00
  2.154731e+01    1.339822e+00
  2.156319e+01    1.412439e+00
  2.157906e+01    1.445201e+00
  2.159494e+01    1.482469e+00
  2.161081e+01    1.558380e+00
  2.162669e+01    1.607696e+00
  2.164256e+01    1.690243e+00
  2.165844e+01    1.800852e+00
  2.167431e+01    1.952588e+00
  2.169019e+01    2.150203e+00
  2.170607e+01    2.334909e+00
  2.172194e+01    2.567715e+00
  2.173782e+01    2.890257e+00
  2.175369e+01    3.255386e+00
  2.176957e+01    3.705081e+00
  2.178544e+01    4.283804e+00
  2.180132e+01    4.920129e+00
  2.181719e+01    5.597473e+00
  2.183307e+01    6.429622e+00
  2.184895e+01    7.304263e+00
  2.186482e+01    8.133700e+00
  2.188070e+01    8.967156e+00
  2.189657e+01    9.835734e+00
  2.191245e+01    1.044077e+01
  2.192832e+01    1.075287e+01
  2.194420e+01    1.064990e+01
  2.196007e+01    1.017329e+01
  2.197595e+01    9.190901e+00
  2.199183e+01    8.064793e+00
  2.200770e+01    6.885546e+00
  2.202358e+01    5.782425e+00
  2.203945e+01    4.865339e+00
  2.205533e+01    4.173429e+00
  2.207120e+01    3.623106e+00
  2.208708e+01    3.155989e+00
  2.210296e+01    2.765127e+00
  2.211883e+01    2.514812e+00
  2.213471e+01    2.266528e+00
  2.215058e+01    2.103353e+00
  2.216646e+01    1.952669e+00
  2.218233e+01    1.817020e+00
  2.219821e+01    1.704913e+00
  2.221408e+01    1.627798e+00
  2.222996e+01    1.555667e+00
  2.224584e+01    1.452736e+00
  2.226171e+01    1.411464e+00
  2.227759e+01    1.368639e+00
  2.229346e+01    1.327045e+00
  2.230934e+01    1.296773e+00
  2.232521e+01    1.252754e+00
  2.234109e+01    1.218259e+00
  2.235696e+01    1.205725e+00
  2.237284e+01    1.171954e+00
  2.238872e+01    1.157695e+00
  2.240459e+01    1.143782e+00
  2.242047e+01    1.133118e+00
  2.243634e+01    1.117286e+00
  2.245222e+01    1.104305e+00
  2.246809e+01    1.071487e+00
  2.248397e+01    1.068636e+00
  2.249984e+01    1.076347e+00
  2.251572e+01    1.041011e+00
  2.253160e+01    1.053905e+00
  2.254747e+01    1.053034e+00
  2.256335e+01    1.020505e+00
  2.257922e+01    1.010939e+00
  2.259510e+01    1.031103e+00
  2.261097e+01    1.024039e+00
  2.262685e+01    1.002509e+00
  2.264272e+01    1.007841e+00
  2.265860e+01    9.840547e-01
  2.267448e+01    9.613511e-01
  2.269035e+01    9.637883e-01
  2.270623e+01    9.889042e-01
  2.272210e+01    9.682487e-01
  2.273798e+01    9.620794e-01
  2.275385e+01    9.735249e-01
  2.276973e+01    9.926578e-01
  2.278560e+01    9.802381e-01
  2.280148e+01    9.544184e-01
  2.281736e+01    9.507840e-01
  2.283323e+01    9.540022e-01
  2.284911e+01    9.674068e-01
  2.286498e+01    9.448903e-01
  2.288086e+01    9.358594e-01
  2.289673e+01    9.431831e-01
  2.291261e+01    9.308506e-01
  2.292848e+01    9.188540e-01
  2.294436e+01    9.325590e-01
  2.296024e+01    9.301882e-01
  2.297611e+01    9.375144e-01
  2.299199e+01    9.474854e-01
  2.300786e+01    9.439638e-01
  2.302374e+01    9.247056e-01
  2.303961e+01    9.028386e-01
  2.305549e+01    8.990473e-01
  2.307137e+01    8.969981e-01
  2.308724e+01    8.992045e-01
  2.310312e+01    9.028773e-01
  2.311899e+01    8.926612e-01
  2.313487e+01    9.088998e-01
  2.315074e+01    9.000093e-01
  2.316662e+01    9.001849e-01
  2.318249e+01    8.973095e-01
  2.319837e+01    8.980105e-01
  2.321425e+01    8.827446e-01
  2.323012e+01    8.892655e-01
  2.324600e+01    8.933506e-01
  2.326187e+01    8.746166e-01
  2.327775e+01    8.783875e-01
  2.329362e+01    8.686138e-01
  2.330950e+01    8.838279e-01
  2.332537e+01    8.760579e-01
  2.334125e+01    8.651729e-01
  2.335713e+01    8.804634e-01
  2.337300e+01    8.708100e-01
  2.338888e+01    8.587683e-01
  2.340475e+01    8.785440e-01
  2.342063e+01    8.761660e-01
  2.343650e+01    8.590575e-01
  2.345238e+01    8.655124e-01
  2.346825e+01    8.638857e-01
  2.348413e+01    8.639535e-01
  2.350001e+01    8.499061e-01
  2.351588e+01    8.619399e-01
  2.353176e+01    8.400185e-01
  2.354763e+01    8.629389e-01
  2.356351e+01    8.723569e-01
  2.357938e+01    8.619154e-01
  2.359526e+01    8.647368e-01
  2.361113e+01    8.616514e-01
  2.362701e+01    8.706579e-01
  2.364289e+01    8.482789e-01
  2.365876e+01    8.381302e-01
  2.367464e+01    8.388992e-01
  2.369051e+01    8.443071e-01
  2.370639e+01    8.582615e-01
  2.372226e+01    8.150423e-01
  2.373814e+01    8.294911e-01
  2.375401e+01    8.473822e-01
  2.376989e+01    8.422955e-01
  2.378577e+01    8.505593e-01
  2.380164e+01    8.395520e-01
  2.381752e+01    8.436077e-01
  2.383339e+01    8.252241e-01
  2.384927e+01    8.087788e-01
  2.386514e+01    8.252597e-01
  2.388102e+01    8.211303e-01
  2.389689e+01    8.249303e-01
  2.391277e+01    8.046670e-01
  2.392865e+01    8.155143e-01
  2.394452e+01    8.038751e-01
  2.396040e+01    8.017529e-01
  2.397627e+01    8.202702e-01
  2.399215e+01    8.035912e-01
  2.400802e+01    7.979436e-01
  2.402390e+01    8.023757e-01
  2.403978e+01    8.025083e-01
  2.405565e+01    8.102555e-01
  2.407153e+01    7.939801e-01
  2.408740e+01    8.182297e-01
  2.410328e+01    7.980470e-01
  2.411915e+01    8.008461e-01
  2.413503e+01    8.108472e-01
  2.415090e+01    8.045009e-01
  2.416678e+01    7.885979e-01
  2.418266e+01    7.745600e-01
  2.419853e+01    7.873609e-01
  2.421441e+01    7.803329e-01
  2.423028e+01    8.082340e-01
  2.424616e+01    7.931352e-01
  2.426203e+01    8.114985e-01
  2.427791e+01    7.942986e-01
  2.429378e+01    7.789177e-01
  2.430966e+01    7.943271e-01
  2.432554e+01    7.972187e-01
  2.434141e+01    8.011268e-01
  2.435729e+01    8.182412e-01
  2.437316e+01    8.128762e-01
  2.438904e+01    7.909571e-01
  2.440491e+01    7.994981e-01
  2.442079e+01    7.956356e-01
  2.443666e+01    8.005975e-01
  2.445254e+01    8.108767e-01
  2.446842e+01    8.104137e-01
  2.448429e+01    8.156588e-01
  2.450017e+01    8.067075e-01
  2.451604e+01    8.035002e-01
  2.453192e+01    7.843028e-01
  2.454779e+01    8.076716e-01
  2.456367e+01    7.938774e-01
  2.457954e+01    8.030841e-01
  2.459542e+01    8.116921e-01
  2.461130e+01    8.103333e-01
  2.462717e+01    7.947084e-01
  2.464305e+01    8.024783e-01
  2.465892e+01    8.056071e-01
  2.467480e+01    8.135997e-01
  2.469067e+01    8.117445e-01
  2.470655e+01    7.885358e-01
  2.472242e+01    7.906774e-01
  2.473830e+01    7.985962e-01
  2.475418e+01    7.987996e-01
  2.477005e+01    8.022396e-01
  2.478593e+01    7.860044e-01
  2.480180e+01    7.966952e-01
  2.481768e+01    7.934807e-01
  2.483355e+01    8.044643e-01
  2.484943e+01    8.327246e-01
  2.486530e+01    8.159074e-01
  2.488118e+01    7.933522e-01
  2.489706e+01    8.000436e-01
  2.491293e+01    7.956461e-01
  2.492881e+01    8.002831e-01
  2.494468e+01    8.060024e-01
  2.496056e+01    8.078920e-01
  2.497643e+01    8.289245e-01
  2.499231e+01    8.162339e-01
  2.500819e+01    8.110110e-01
  2.502406e+01    8.155178e-01
  2.503994e+01    8.184205e-01
  2.505581e+01    8.220485e-01
  2.507169e+01    8.239816e-01
  2.508756e+01    8.035308e-01
  2.510344e+01    8.189605e-01
  2.511931e+01    8.243710e-01
  2.513519e+01    8.347581e-01
  2.515107e+01    8.206221e-01
  2.516694e+01    8.353615e-01
  2.518282e+01    8.522092e-01
  2.519869e+01    8.575367e-01
  2.521457e+01    8.409083e-01
  2.523044e+01    8.560974e-01
  2.524632e+01    8.485225e-01
  2.526219e+01    8.493342e-01
  2.527807e+01    8.619966e-01
  2.529395e+01    8.729193e-01
  2.530982e+01    8.824533e-01
  2.532570e+01    8.840173e-01
  2.534157e+01    8.892204e-01
  2.535745e+01    8.678579e-01
  2.537332e+01    8.675486e-01
  2.538920e+01    9.162160e-01
  2.540507e+01    9.208530e-01
  2.542095e+01    9.142960e-01
  2.543683e+01    9.331880e-01
  2.545270e+01    9.187513e-01
  2.546858e+01    9.436752e-01
  2.548445e+01    9.640425e-01
  2.550033e+01    9.616547e-01
  2.551620e+01    9.768323e-01
  2.553208e+01    9.924179e-01
  2.554795e+01    1.020022e+00
  2.556383e+01    1.043570e+00
  2.557971e+01    1.065828e+00
  2.559558e+01    1.106744e+00
  2.561146e+01    1.112615e+00
  2.562733e+01    1.128919e+00
  2.564321e+01    1.160703e+00
  2.565908e+01    1.227440e+00
  2.567496e+01    1.282910e+00
  2.569083e+01    1.319443e+00
  2.570671e+01    1.385831e+00
  2.572259e+01    1.458011e+00
  2.573846e+01    1.563204e+00
  2.575434e+01    1.711229e+00
  2.577021e+01    1.862008e+00
  2.578609e+01    2.022103e+00
  2.580196e+01    2.226631e+00
  2.581784e+01    2.490376e+00
  2.583371e+01    2.824732e+00
  2.584959e+01    3.268979e+00
  2.586547e+01    3.735818e+00
  2.588134e+01    4.269142e+00
  2.589722e+01    4.962608e+00
  2.591309e+01    5.692322e+00
  2.592897e+01    6.415843e+00
  2.594484e+01    7.145725e+00
  2.596072e+01    7.915852e+00
  2.597660e+01    8.488474e+00
  2.599247e+01    8.859869e+00
  2.600835e+01    8.928963e+00
  2.602422e+01    8.660051e+00
  2.604010e+01    8.033297e+00
  2.605597e+01    7.267891e+00
  2.607185e+01    6.238312e+00
  2.608772e+01    5.355732e+00
  2.610360e+01    4.577280e+00
  2.611948e+01    3.871167e+00
  2.613535e+01    3.375968e+00
  2.615123e+01    2.957150e+00
  2.616710e+01    2.631559e+00
  2.618298e+01    2.350767e+00
  2.619885e+01    2.109225e+00
  2.621473e+01    1.909545e+00
  2.623060e+01    1.777848e+00
  2.624648e+01    1.637994e+00
  2.626236e+01    1.528450e+00
  2.627823e+01    1.432370e+00
  2.629411e+01    1.369275e+00
  2.630998e+01    1.319611e+00
  2.632586e+01    1.251440e+00
  2.634173e+01    1.208994e+00
  2.635761e+01    1.167496e+00
  2.637348e+01    1.143827e+00
  2.638936e+01    1.123780e+00
  2.640524e+01    1.105296e+00
  2.642111e+01    1.075352e+00
  2.643699e+01    1.052910e+00
  2.645286e+01    1.033912e+00
  2.646874e+01    1.030465e+00
  2.648461e+01    1.001008e+00
  2.650049e+01    9.924833e-01
  2.651636e+01    9.812849e-01
  2.653224e+01    9.779121e-01
  2.654812e+01    9.508809e-01
  2.656399e+01    9.499344e-01
  2.657987e+01    9.429327e-01
  2.659574e+01    9.406148e-01
  2.661162e+01    9.511221e-01
  2.662749e+01    9.371015e-01
  2.664337e+01    9.414847e-01
  2.665924e+01    9.372991e-01
  2.667512e+01    9.192833e-01
  2.669100e+01    9.178291e-01
  2.670687e+01    9.309545e-01
  2.672275e+01    9.327285e-01
  2.673862e+01    9.416448e-01
  2.675450e+01    9.159160e-01
  2.677037e+01    8.967482e-01
  2.678625e+01    9.027340e-01
  2.680212e+01    9.117109e-01
  2.681800e+01    9.159907e-01
  2.683388e+01    9.198584e-01
  2.684975e+01    9.234896e-01
  2.686563e+01    9.152316e-01
  2.688150e+01    9.240763e-01
  2.689738e+01    9.278969e-01
  2.691325e+01    9.314395e-01
  2.692913e+01    9.308534e-01
  2.694501e+01    9.573750e-01
  2.696088e+01    9.663157e-01
  2.697676e+01    9.808390e-01
  2.699263e+01    9.989027e-01
  2.700851e+01    1.012443e+00
  2.702438e+01    1.048089e+00
  2.704026e+01    1.063244e+00
  2.705613e+01    1.084941e+00
  2.707201e+01    1.133688e+00
  2.708789e+01    1.178794e+00
  2.710376e+01    1.270183e+00
  2.711964e+01    1.360179e+00
  2.713551e+01    1.489897e+00
  2.715139e+01    1.597498e+00
  2.716726e+01    1.723625e+00
  2.718314e+01    1.887934e+00
  2.719901e+01    2.069386e+00
  2.721489e+01    2.209760e+00
  2.723077e+01    2.357602e+00
  2.724664e+01    2.491868e+00
  2.726252e+01    2.595780e+00
  2.727839e+01    2.566729e+00
  2.729427e+01    2.452403e+00
  2.731014e+01    2.281224e+00
  2.732602e+01    2.060977e+00
  2.734189e+01    1.890621e+00
  2.735777e+01    1.722144e+00
  2.737365e+01    1.553891e+00
  2.738952e+01    1.407225e+00
  2.740540e+01    1.348262e+00
  2.742127e+01    1.259471e+00
  2.743715e+01    1.188983e+00
  2.745302e+01    1.124483e+00
  2.746890e+01    1.091360e+00
  2.748477e+01    1.043669e+00
  2.750065e+01    1.017140e+00
  2.751653e+01    9.916431e-01
  2.753240e+01    9.619880e-01
  2.754828e+01    9.455056e-01
  2.756415e+01    9.200478e-01
  2.758003e+01    9.141254e-01
  2.759590e+01    9.057170e-01
  2.761178e+01    9.011059e-01
  2.762765e+01    8.895704e-01
  2.764353e+01    8.767127e-01
  2.765941e+01    8.532458e-01
  2.767528e+01    8.319448e-01
  2.769116e+01    8.373479e-01
  2.770703e+01    8.467958e-01
  2.772291e+01    8.469511e-01
  2.773878e+01    8.300035e-01
  2.775466e+01    8.514637e-01
  2.777054e+01    8.575162e-01
  2.778641e+01    8.328505e-01
  2.780229e+01    8.092161e-01
  2.781816e+01    8.334957e-01
  2.783404e+01    8.389988e-01
  2.784991e+01    8.188840e-01
  2.786579e+01    8.205780e-01
  2.788166e+01    8.438961e-01
  2.789754e+01    8.311163e-01
  2.791342e+01    8.106456e-01
  2.792929e+01    7.963349e-01
  2.794517e+01    7.925066e-01
  2.796104e+01    8.060116e-01
  2.797692e+01    8.085414e-01
  2.799279e+01    8.049266e-01
  2.800867e+01    8.024563e-01
  2.802454e+01    8.001124e-01
  2.804042e+01    8.011430e-01
  2.805630e+01    7.840515e-01
  2.807217e+01    7.834888e-01
  2.808805e+01    7.874917e-01
  2.810392e+01    7.956778e-01
  2.811980e+01    8.076736e-01
  2.813567e+01    7.990440e-01
  2.815155e+01    7.942554e-01
  2.816742e+01    7.977794e-01
  2.818330e+01    7.911609e-01
  2.819918e+01    7.925262e-01
  2.821505e+01    8.018650e-01
  2.823093e+01    7.994333e-01
  2.824680e+01    7.871827e-01
  2.826268e+01    7.877288e-01
  2.827855e+01    7.812156e-01
  2.829443e+01    7.770626e-01
  2.831030e+01    7.845256e-01
  2.832618e+01    7.899019e-01
  2.834206e+01    7.976286e-01
  2.835793e+01    7.728159e-01
  2.837381e+01    7.420841e-01
  2.838968e+01    7.681428e-01
  2.840556e+01    7.823182e-01
  2.842143e+01    7.676303e-01
  2.843731e+01    7.680802e-01
  2.845318e+01    7.634729e-01
  2.846906e+01    7.778103e-01
  2.848494e+01    7.676444e-01
  2.850081e+01    7.714585e-01
  2.851669e+01    7.912015e-01
  2.853256e+01    7.718807e-01
  2.854844e+01    7.279541e-01
  2.856431e+01    7.490715e-01
  2.858019e+01    7.503838e-01
  2.859606e+01    7.658434e-01
  2.861194e+01    7.645864e-01
  2.862782e+01    7.560036e-01
  2.864369e+01    7.399516e-01
  2.865957e+01    7.472658e-01
  2.867544e+01    7.614461e-01
  2.869132e+01    7.761033e-01
  2.870719e+01    7.448413e-01
  2.872307e+01    7.427526e-01
  2.873895e+01    7.422199e-01
  2.875482e+01    7.749262e-01
  2.877070e+01    7.536439e-01
  2.878657e+01    7.535854e-01
  2.880245e+01    7.418553e-01
  2.881832e+01    7.536729e-01
  2.883420e+01    7.601067e-01
  2.885007e+01    7.679583e-01
  2.886595e+01    7.575942e-01
  2.888183e+01    7.822426e-01
  2.889770e+01    7.751426e-01
  2.891358e+01    7.576399e-01
  2.892945e+01    7.410235e-01
  2.894533e+01    7.317564e-01
  2.896120e+01    7.493389e-01
  2.897708e+01    7.656558e-01
  2.899295e+01    7.498861e-01
  2.900883e+01    7.376192e-01
  2.902471e+01    7.443439e-01
  2.904058e+01    7.281673e-01
  2.905646e+01    7.478097e-01
  2.907233e+01    7.328134e-01
  2.908821e+01    7.655402e-01
  2.910408e+01    7.425777e-01
  2.911996e+01    7.631029e-01
  2.913583e+01    7.705734e-01
  2.915171e+01    7.449474e-01
  2.916759e+01    7.483108e-01
  2.918346e+01    7.459029e-01
  2.919934e+01    7.679847e-01
  2.921521e+01    7.695141e-01
  2.923109e+01    7.415138e-01
  2.924696e+01    7.451808e-01
  2.926284e+01    7.429568e-01
  2.927871e+01    7.443275e-01
  2.929459e+01    7.482591e-01
  2.931047e+01    7.297282e-01
  2.932634e+01    7.495593e-01
  2.934222e+01    7.612168e-01
  2.935809e+01    7.294576e-01
  2.937397e+01    7.299177e-01
  2.938984e+01    7.435867e-01
  2.940572e+01    7.200431e-01
  2.942159e+01    7.203974e-01
  2.943747e+01    7.347251e-01
  2.945335e+01    7.364417e-01
  2.946922e+01    7.349370e-01
  2.948510e+01    7.172799e-01
  2.950097e+01    7.427362e-01
  2.951685e+01    7.374645e-01
  2.953272e+01    7.196262e-01
  2.954860e+01    7.626103e-01
  2.956447e+01    7.583720e-01
  2.958035e+01    7.392467e-01
  2.959623e+01    7.449163e-01
  2.961210e+01    7.407169e-01
  2.962798e+01    7.224823e-01
  2.964385e+01    7.304437e-01
  2.965973e+01    7.445025e-01
  2.967560e+01    7.365751e-01
  2.969148e+01    7.204912e-01
  2.970736e+01    7.213531e-01
  2.972323e+01    7.222830e-01
  2.973911e+01    7.432325e-01
  2.975498e+01    7.302583e-01
  2.977086e+01    7.200355e-01
  2.978673e+01    7.279657e-01
  2.980261e+01    7.138290e-01
  2.981848e+01    7.181637e-01
  2.983436e+01    7.141740e-01
  2.985024e+01    7.083950e-01
  2.986611e+01    7.273368e-01
  2.988199e+01    7.197863e-01
  2.989786e+01    7.361308e-01
  2.991374e+01    7.244545e-01
  2.992961e+01    7.245372e-01
  2.994549e+01    7.269920e-01
  2.996136e+01    7.464666e-01
  2.997724e+01    7.628101e-01
  2.999312e+01    7.538741e-01
  3.000899e+01    7.553942e-01
  3.002487e+01    7.304012e-01
  3.004074e+01    7.518610e-01
  3.005662e+01    7.406461e-01
  3.007249e+01    7.400107e-01
  3.008837e+01    7.247652e-01
  3.010424e+01    7.361794e-01
  3.012012e+01    7.308201e-01
  3.013600e+01    7.356574e-01
  3.015187e+01    7.247553e-01
  3.016775e+01    7.170910e-01
  3.018362e+01    7.187893e-01
  3.019950e+01    7.158467e-01
  3.021537e+01    7.248504e-01
  3.023125e+01    7.156263e-01
  3.024712e+01    7.141450e-01
  3.026300e+01    7.134241e-01
  3.027888e+01    7.049316e-01
  3.029475e+01    7.105966e-01
  3.031063e+01    7.203832e-01
  3.032650e+01    7.183086e-01
  3.034238e+01    7.100353e-01
  3.035825e+01    7.110605e-01
  3.037413e+01    7.144430e-01
  3.039000e+01    7.303542e-01
  3.040588e+01    7.304528e-01
  3.042176e+01    7.322554e-01
  3.043763e+01    7.130845e-01
  3.045351e+01    7.115474e-01
  3.046938e+01    7.001125e-01
  3.048526e+01    7.146053e-01
  3.050113e+01    7.121154e-01
  3.051701e+01    7.125980e-01
  3.053288e+01    7.279119e-01
  3.054876e+01    7.043293e-01
  3.056464e+01    7.093986e-01
  3.058051e+01    7.070377e-01
  3.059639e+01    7.134606e-01
  3.061226e+01    7.039700e-01
  3.062814e+01    7.108279e-01
  3.064401e+01    7.243676e-01
  3.065989e+01    7.295123e-01
  3.067577e+01    7.024125e-01
  3.069164e+01    7.246996e-01
  3.070752e+01    7.392228e-01
  3.072339e+01    7.279863e-01
  3.073927e+01    7.352749e-01
  3.075514e+01    7.313392e-01
  3.077102e+01    7.290936e-01
  3.078689e+01    7.161981e-01
  3.080277e+01    7.304209e-01
  3.081865e+01    7.010786e-01
  3.083452e+01    7.266624e-01
  3.085040e+01    7.629278e-01
  3.086627e+01    7.462845e-01
  3.088215e+01    7.429366e-01
  3.089802e+01    7.369573e-01
  3.091390e+01    7.302193e-01
  3.092977e+01    7.355670e-01
  3.094565e+01    7.286922e-01
  3.096153e+01    7.480828e-01
  3.097740e+01    7.420542e-01
  3.099328e+01    6.930023e-01
  3.100915e+01    6.989825e-01
  3.102503e+01    7.163786e-01
  3.104090e+01    7.120255e-01
  3.105678e+01    6.933039e-01
  3.107265e+01    7.167017e-01
  3.108853e+01    7.235980e-01
  3.110441e+01    7.312315e-01
  3.112028e+01    7.141497e-01
  3.113616e+01    7.195820e-01
  3.115203e+01    7.474159e-01
  3.116791e+01    7.342235e-01
  3.118378e+01    7.162997e-01
  3.119966e+01    7.120956e-01
  3.121553e+01    7.270255e-01
  3.123141e+01    7.265773e-01
  3.124729e+01    7.342709e-01
  3.126316e+01    7.444699e-01
  3.127904e+01    7.427394e-01
  3.129491e+01    7.580518e-01
  3.131079e+01    7.454106e-01
  3.132666e+01    7.356268e-01
  3.134254e+01    7.467996e-01
  3.135841e+01    7.578331e-01
  3.137429e+01    7.626894e-01
  3.139017e+01    7.510998e-01
  3.140604e+01    7.452810e-01
  3.142192e+01    7.596561e-01
  3.143779e+01    7.624202e-01
  3.145367e+01    7.533038e-01
  3.146954e+01    7.749757e-01
  3.148542e+01    7.626263e-01
  3.150129e+01    7.556868e-01
  3.151717e+01    7.802640e-01
  3.153305e+01    7.816210e-01
  3.154892e+01    7.880538e-01
  3.156480e+01    7.901528e-01
  3.158067e+01    7.824819e-01
  3.159655e+01    8.071581e-01
  3.161242e+01    8.271808e-01
  3.162830e+01    8.314737e-01
  3.164418e+01    8.467287e-01
  3.166005e+01    8.619859e-01
  3.167593e+01    8.780522e-01
  3.169180e+01    8.909664e-01
  3.170768e+01    9.068778e-01
  3.172355e+01    9.173167e-01
  3.173943e+01    9.700735e-01
  3.175530e+01    1.011477e+00
  3.177118e+01    1.036256e+00
  3.178706e+01    1.146457e+00
  3.180293e+01    1.213760e+00
  3.181881e+01    1.306446e+00
  3.183468e+01    1.415602e+00
  3.185056e+01    1.522982e+00
  3.186643e+01    1.711024e+00
  3.188231e+01    1.931929e+00
  3.189818e+01    2.066450e+00
  3.191406e+01    2.252328e+00
  3.192994e+01    2.443970e+00
  3.194581e+01    2.520377e+00
  3.196169e+01    2.561738e+00
  3.197756e+01    2.523194e+00
  3.199344e+01    2.372679e+00
  3.200931e+01    2.247415e+00
  3.202519e+01    2.056244e+00
  3.204106e+01    1.838076e+00
  3.205694e+01    1.666912e+00
  3.207282e+01    1.513872e+00
  3.208869e+01    1.335258e+00
  3.210457e+01    1.254907e+00
  3.212044e+01    1.141916e+00
  3.213632e+01    1.098952e+00
  3.215219e+01    1.049625e+00
  3.216807e+01    9.982466e-01
  3.218394e+01    9.424194e-01
  3.219982e+01    9.282324e-01
  3.221570e+01    9.133793e-01
  3.223157e+01    8.670571e-01
  3.224745e+01    8.355159e-01
  3.226332e+01    8.400943e-01
  3.227920e+01    8.084496e-01
  3.229507e+01    8.259187e-01
  3.231095e+01    8.357134e-01
  3.232682e+01    8.049482e-01
  3.234270e+01    7.632917e-01
  3.235858e+01    8.015857e-01
  3.237445e+01    7.742796e-01
  3.239033e+01    7.823685e-01
  3.240620e+01    7.778285e-01
  3.242208e+01    7.700174e-01
  3.243795e+01    7.516110e-01
  3.245383e+01    7.553526e-01
  3.246970e+01    7.272224e-01
  3.248558e+01    7.437767e-01
  3.250146e+01    7.355923e-01
  3.251733e+01    7.265010e-01
  3.253321e+01    7.258074e-01
  3.254908e+01    7.346754e-01
