q_nm^-1             I
2.003187e-02    0.000000e+00
3.590745e-02    0.000000e+00
5.178302e-02    4.781393e-02
6.765859e-02    9.488808e-02
8.353417e-02    1.295205e-01
9.940974e-02    4.946812e-02
1.152853e-01    7.603302e-02
1.311609e-01    3.958973e-02
1.470365e-01    4.984014e-02
1.629120e-01    2.557602e-02
1.787876e-01    1.211619e-02
1.946632e-01    3.904508e-02
2.105388e-01    7.628351e-03
2.264143e-01    1.955329e-02
2.422899e-01    7.643035e-02
2.581655e-01    4.480809e-02
2.740411e-01    5.734052e-02
2.899166e-01    4.999390e-02
3.057922e-01    3.617424e-02
3.216678e-01    6.417049e-02
3.375433e-01    3.857280e-02
3.534189e-01    2.063214e-02
3.692945e-01    4.173624e-02
3.851701e-01    4.683345e-02
4.010456e-01    1.582505e-02
4.169212e-01    1.773700e-02
4.327968e-01    2.480845e-02
4.486724e-01    4.079945e-02
4.645479e-01    4.742662e-02
4.804235e-01    4.978207e-02
4.962991e-01    5.498847e-02
5.121747e-01    2.504761e-02
5.280502e-01    4.359586e-02
5.439258e-01    3.417728e-02
5.598014e-01    4.877447e-02
5.756770e-01    5.806728e-02
5.915525e-01    4.815349e-02
6.074281e-01    2.227710e-02
6.233037e-01    2.879350e-02
6.391793e-01    3.645079e-02
6.550548e-01    4.904598e-02
6.709304e-01    3.640214e-02
6.868060e-01    2.188308e-02
7.026815e-01    2.218592e-02
7.185571e-01    1.937806e-02
7.344327e-01    2.671621e-02
7.503083e-01    3.157799e-02
7.661838e-01    7.661290e-02
7.820594e-01    1.291993e-01
7.979350e-01    1.460565e-01
8.138106e-01    2.087432e-01
8.296861e-01    2.783193e-01
8.455617e-01    3.241640e-01
8.614373e-01    4.006650e-01
8.773129e-01    4.434958e-01
8.931884e-01    4.907368e-01
9.090640e-01    5.455952e-01
9.249396e-01    5.602244e-01
9.408152e-01    6.812738e-01
9.566907e-01    7.762852e-01
9.725663e-01    7.858205e-01
9.884419e-01    8.308556e-01
1.004317e+00    9.365116e-01
1.020193e+00    1.086100e+00
1.036069e+00    1.301914e+00
1.051944e+00    1.289598e+00
1.067820e+00    1.296571e+00
1.083695e+00    1.344916e+00
1.099571e+00    1.313456e+00
1.115446e+00    1.369147e+00
1.131322e+00    1.394027e+00
1.147198e+00    1.429348e+00
1.163073e+00    1.442773e+00
1.178949e+00    1.454802e+00
1.194824e+00    1.460895e+00
1.210700e+00    1.613513e+00
1.226575e+00    1.896995e+00
1.242451e+00    2.072169e+00
1.258327e+00    2.216603e+00
1.274202e+00    2.224819e+00
1.290078e+00    2.206539e+00
1.305953e+00    2.272014e+00
1.321829e+00    2.416273e+00
1.337705e+00    2.532841e+00
1.353580e+00    2.523986e+00
1.369456e+00    2.578094e+00
1.385331e+00    2.492553e+00
1.401207e+00    2.346472e+00
1.417082e+00    2.426569e+00
1.432958e+00    2.647253e+00
1.448834e+00    2.709204e+00
1.464709e+00    2.684656e+00
1.480585e+00    2.774373e+00
1.496460e+00    2.877090e+00
1.512336e+00    2.870951e+00
1.528211e+00    2.861607e+00
1.544087e+00    2.764727e+00
1.559963e+00    2.839402e+00
1.575838e+00    2.759542e+00
1.591714e+00    2.868226e+00
1.607589e+00    2.851999e+00
1.623465e+00    2.883819e+00
1.639340e+00    2.843737e+00
1.655216e+00    2.781545e+00
1.671092e+00    2.780640e+00
1.686967e+00    2.838326e+00
1.702843e+00    2.816250e+00
1.718718e+00    2.716458e+00
1.734594e+00    2.718206e+00
1.750469e+00    2.768107e+00
1.766345e+00    2.743152e+00
1.782221e+00    2.794802e+00
1.798096e+00    2.752375e+00
1.813972e+00    2.700755e+00
1.829847e+00    2.728832e+00
1.845723e+00    2.611612e+00
1.861598e+00    2.676559e+00
1.877474e+00    2.728117e+00
1.893350e+00    2.791174e+00
1.909225e+00    2.715297e+00
1.925101e+00    2.694974e+00
1.940976e+00    2.632180e+00
1.956852e+00    2.797048e+00
1.972727e+00    2.748775e+00
1.988603e+00    2.665971e+00
2.004479e+00    2.737899e+00
2.020354e+00    2.793596e+00
2.036230e+00    2.805076e+00
2.052105e+00    2.736112e+00
2.067981e+00    2.727453e+00
2.083856e+00    2.762761e+00
2.099732e+00    2.785681e+00
2.115608e+00    2.698038e+00
2.131483e+00    2.637948e+00
2.147359e+00    2.665178e+00
2.163234e+00    2.735948e+00
2.179110e+00    2.796076e+00
2.194985e+00    2.692183e+00
2.210861e+00    2.704377e+00
2.226737e+00    2.754048e+00
2.242612e+00    2.698726e+00
2.258488e+00    2.706512e+00
2.274363e+00    2.673575e+00
2.290239e+00    2.643269e+00
2.306115e+00    2.681596e+00
2.321990e+00    2.691516e+00
2.337866e+00    2.682086e+00
2.353741e+00    2.705975e+00
2.369617e+00    2.620591e+00
2.385492e+00    2.629188e+00
2.401368e+00    2.743674e+00
2.417244e+00    2.792108e+00
2.433119e+00    2.774554e+00
2.448995e+00    2.817966e+00
2.464870e+00    2.871616e+00
2.480746e+00    2.740066e+00
2.496621e+00    2.722455e+00
2.512497e+00    2.813292e+00
2.528373e+00    2.811741e+00
2.544248e+00    2.759582e+00
2.560124e+00    2.861148e+00
2.575999e+00    2.903978e+00
2.591875e+00    2.780657e+00
2.607750e+00    2.752288e+00
2.623626e+00    2.784012e+00
2.639502e+00    2.848289e+00
2.655377e+00    2.780931e+00
2.671253e+00    2.737810e+00
2.687128e+00    2.865590e+00
2.703004e+00    2.893414e+00
2.718879e+00    2.772011e+00
2.734755e+00    2.793489e+00
2.750631e+00    2.824833e+00
2.766506e+00    2.809759e+00
2.782382e+00    2.908028e+00
2.798257e+00    2.909472e+00
2.814133e+00    2.881547e+00
2.830008e+00    2.871200e+00
2.845884e+00    2.831745e+00
2.861760e+00    2.912958e+00
2.877635e+00    2.851678e+00
2.893511e+00    2.753888e+00
2.909386e+00    2.824304e+00
2.925262e+00    2.882902e+00
2.941137e+00    2.835034e+00
2.957013e+00    2.763475e+00
2.972889e+00    2.888175e+00
2.988764e+00    2.885837e+00
3.004640e+00    2.977634e+00
3.020515e+00    2.962587e+00
3.036391e+00    2.860433e+00
3.052266e+00    2.809791e+00
3.068142e+00    2.887524e+00
3.084018e+00    2.945936e+00
3.099893e+00    2.969017e+00
3.115769e+00    2.966470e+00
3.131644e+00    2.970553e+00
3.147520e+00    2.896710e+00
3.163395e+00    2.896747e+00
3.179271e+00    2.930757e+00
3.195147e+00    2.990744e+00
3.211022e+00    3.038464e+00
3.226898e+00    2.971080e+00
3.242773e+00    2.949680e+00
3.258649e+00    2.991480e+00
3.274525e+00    2.944602e+00
3.290400e+00    2.932006e+00
3.306276e+00    2.884996e+00
3.322151e+00    3.002283e+00
3.338027e+00    3.038923e+00
3.353902e+00    2.966541e+00
3.369778e+00    2.947707e+00
3.385654e+00    2.929894e+00
3.401529e+00    2.933424e+00
3.417405e+00    2.947450e+00
3.433280e+00    2.949919e+00
3.449156e+00    2.857626e+00
3.465031e+00    2.929842e+00
3.480907e+00    2.866730e+00
3.496783e+00    2.936984e+00
3.512658e+00    2.873886e+00
3.528534e+00    2.903650e+00
3.544409e+00    2.880877e+00
3.560285e+00    2.948882e+00
3.576160e+00    3.007144e+00
3.592036e+00    3.004706e+00
3.607912e+00    3.030733e+00
3.623787e+00    2.987142e+00
3.639663e+00    2.996377e+00
3.655538e+00    3.063417e+00
3.671414e+00    3.071001e+00
3.687289e+00    3.095640e+00
3.703165e+00    3.095904e+00
3.719041e+00    3.039179e+00
3.734916e+00    3.019445e+00
3.750792e+00    3.020545e+00
3.766667e+00    2.990063e+00
3.782543e+00    2.997872e+00
3.798418e+00    2.951684e+00
3.814294e+00    2.920148e+00
3.830170e+00    2.990576e+00
3.846045e+00    3.039738e+00
3.861921e+00    2.984480e+00
3.877796e+00    3.017539e+00
3.893672e+00    3.042349e+00
3.909547e+00    3.025983e+00
3.925423e+00    3.081644e+00
3.941299e+00    3.083356e+00
3.957174e+00    3.101947e+00
3.973050e+00    3.092164e+00
3.988925e+00    3.080039e+00
4.004801e+00    3.084982e+00
4.020676e+00    3.025285e+00
4.036552e+00    3.063916e+00
4.052428e+00    3.048547e+00
4.068303e+00    3.024739e+00
4.084179e+00    3.014019e+00
4.100054e+00    3.046099e+00
4.115930e+00    2.972560e+00
4.131806e+00    3.039526e+00
4.147681e+00    3.054697e+00
4.163557e+00    3.046453e+00
4.179432e+00    3.081645e+00
4.195308e+00    3.060959e+00
4.211183e+00    3.015236e+00
4.227059e+00    3.087486e+00
4.242935e+00    3.035920e+00
4.258810e+00    3.041505e+00
4.274686e+00    3.059234e+00
4.290561e+00    3.004228e+00
4.306437e+00    3.007593e+00
4.322312e+00    3.028030e+00
4.338188e+00    3.045166e+00
4.354064e+00    3.074269e+00
4.369939e+00    3.169236e+00
4.385815e+00    3.130767e+00
4.401690e+00    3.104146e+00
4.417566e+00    2.969912e+00
4.433441e+00    3.026813e+00
4.449317e+00    3.106393e+00
4.465193e+00    3.046229e+00
4.481068e+00    3.116130e+00
4.496944e+00    3.108503e+00
4.512819e+00    3.042858e+00
4.528695e+00    2.971219e+00
4.544570e+00    2.944280e+00
4.560446e+00    3.084297e+00
4.576322e+00    3.153268e+00
4.592197e+00    3.111174e+00
4.608073e+00    3.148451e+00
4.623948e+00    3.161799e+00
4.639824e+00    3.136985e+00
4.655699e+00    3.126919e+00
4.671575e+00    3.089591e+00
4.687451e+00    3.069607e+00
4.703326e+00    3.234633e+00
4.719202e+00    3.161957e+00
4.735077e+00    3.308436e+00
4.750953e+00    3.311993e+00
4.766828e+00    3.294769e+00
4.782704e+00    3.203767e+00
4.798580e+00    3.115799e+00
4.814455e+00    3.122807e+00
4.830331e+00    3.129984e+00
4.846206e+00    3.134158e+00
4.862082e+00    3.133306e+00
4.877957e+00    3.135107e+00
4.893833e+00    3.194810e+00
4.909709e+00    3.193027e+00
4.925584e+00    3.142378e+00
4.941460e+00    3.153361e+00
4.957335e+00    3.107020e+00
4.973211e+00    3.129612e+00
4.989086e+00    3.166444e+00
5.004962e+00    3.144760e+00
5.020838e+00    3.085606e+00
5.036713e+00    3.121455e+00
5.052589e+00    3.183879e+00
5.068464e+00    3.090736e+00
5.084340e+00    3.132011e+00
5.100216e+00    3.146046e+00
5.116091e+00    3.163713e+00
5.131967e+00    3.100552e+00
5.147842e+00    3.074965e+00
5.163718e+00    3.125844e+00
5.179593e+00    3.174161e+00
5.195469e+00    3.138530e+00
5.211345e+00    3.090229e+00
5.227220e+00    3.109613e+00
5.243096e+00    3.107142e+00
5.258971e+00    3.090678e+00
5.274847e+00    3.104336e+00
5.290722e+00    3.123849e+00
5.306598e+00    3.148139e+00
5.322474e+00    3.155691e+00
5.338349e+00    3.184541e+00
5.354225e+00    3.129153e+00
5.370100e+00    3.172833e+00
5.385976e+00    3.241885e+00
5.401851e+00    3.215728e+00
5.417727e+00    3.098029e+00
5.433603e+00    3.105723e+00
5.449478e+00    3.077453e+00
5.465354e+00    3.094118e+00
5.481229e+00    3.064080e+00
5.497105e+00    3.102910e+00
5.512980e+00    3.059628e+00
5.528856e+00    3.017436e+00
5.544732e+00    2.978802e+00
5.560607e+00    3.074334e+00
5.576483e+00    3.065278e+00
5.592358e+00    3.070273e+00
5.608234e+00    3.108132e+00
5.624109e+00    3.073304e+00
5.639985e+00    3.014993e+00
5.655861e+00    3.026703e+00
5.671736e+00    3.090684e+00
5.687612e+00    3.071622e+00
5.703487e+00    3.005149e+00
5.719363e+00    3.101312e+00
5.735238e+00    3.071850e+00
5.751114e+00    3.075252e+00
5.766990e+00    3.034187e+00
5.782865e+00    3.053574e+00
5.798741e+00    3.085348e+00
5.814616e+00    3.179186e+00
5.830492e+00    3.066674e+00
5.846367e+00    3.063833e+00
5.862243e+00    3.057456e+00
5.878119e+00    3.075665e+00
5.893994e+00    2.991441e+00
5.909870e+00    3.054729e+00
5.925745e+00    3.036094e+00
5.941621e+00    3.030643e+00
5.957497e+00    3.100397e+00
5.973372e+00    3.031610e+00
5.989248e+00    3.112101e+00
6.005123e+00    3.058047e+00
6.020999e+00    3.063257e+00
6.036874e+00    3.021968e+00
6.052750e+00    3.042274e+00
6.068626e+00    3.076091e+00
6.084501e+00    3.064080e+00
6.100377e+00    3.031764e+00
6.116252e+00    3.104571e+00
6.132128e+00    3.091321e+00
6.148003e+00    3.029650e+00
6.163879e+00    3.127258e+00
6.179755e+00    3.146602e+00
6.195630e+00    3.102339e+00
6.211506e+00    3.072469e+00
6.227381e+00    3.063758e+00
6.243257e+00    3.066407e+00
6.259132e+00    3.082203e+00
6.275008e+00    3.040504e+00
6.290884e+00    3.039403e+00
6.306759e+00    3.141218e+00
6.322635e+00    3.078938e+00
6.338510e+00    3.070903e+00
6.354386e+00    3.042791e+00
6.370261e+00    3.067115e+00
6.386137e+00    3.070918e+00
6.402013e+00    3.054740e+00
6.417888e+00    3.043840e+00
6.433764e+00    3.061619e+00
6.449639e+00    3.050413e+00
6.465515e+00    3.052611e+00
6.481390e+00    3.057143e+00
6.497266e+00    3.066449e+00
6.513142e+00    3.068445e+00
6.529017e+00    2.965082e+00
6.544893e+00    2.966672e+00
6.560768e+00    3.081136e+00
6.576644e+00    3.051074e+00
6.592519e+00    3.002162e+00
6.608395e+00    3.042332e+00
6.624271e+00    3.041865e+00
6.640146e+00    3.062055e+00
6.656022e+00    2.972017e+00
6.671897e+00    3.020881e+00
6.687773e+00    3.160798e+00
6.703648e+00    3.044550e+00
6.719524e+00    2.973930e+00
6.735400e+00    3.040206e+00
6.751275e+00    3.021645e+00
6.767151e+00    3.068434e+00
6.783026e+00    3.051658e+00
6.798902e+00    3.038550e+00
6.814777e+00    3.110986e+00
6.830653e+00    3.083245e+00
6.846529e+00    2.997548e+00
6.862404e+00    2.971990e+00
6.878280e+00    3.070865e+00
6.894155e+00    3.062277e+00
6.910031e+00    3.018191e+00
6.925907e+00    3.069645e+00
6.941782e+00    2.989076e+00
6.957658e+00    2.999093e+00
6.973533e+00    2.990614e+00
6.989409e+00    2.999134e+00
7.005284e+00    3.056392e+00
7.021160e+00    3.035670e+00
7.037036e+00    3.048087e+00
7.052911e+00    3.027903e+00
7.068787e+00    3.032252e+00
7.084662e+00    2.986795e+00
7.100538e+00    3.050289e+00
7.116413e+00    3.025179e+00
7.132289e+00    3.004482e+00
7.148165e+00    3.006001e+00
7.164040e+00    3.065273e+00
7.179916e+00    3.028698e+00
7.195791e+00    3.114261e+00
7.211667e+00    3.095305e+00
7.227542e+00    2.991298e+00
7.243418e+00    2.969689e+00
7.259294e+00    2.992473e+00
7.275169e+00    3.042185e+00
7.291045e+00    3.034985e+00
7.306920e+00    3.011733e+00
7.322796e+00    3.027359e+00
7.338671e+00    3.019013e+00
7.354547e+00    3.070100e+00
7.370423e+00    3.008570e+00
7.386298e+00    2.983613e+00
7.402174e+00    2.951513e+00
7.418049e+00    3.007389e+00
7.433925e+00    3.022841e+00
7.449800e+00    2.997117e+00
7.465676e+00    2.972286e+00
7.481552e+00    3.014642e+00
7.497427e+00    3.016476e+00
7.513303e+00    3.020754e+00
7.529178e+00    2.984513e+00
7.545054e+00    2.927302e+00
7.560929e+00    2.972671e+00
7.576805e+00    3.025521e+00
7.592681e+00    3.001915e+00
7.608556e+00    3.014118e+00
7.624432e+00    2.989655e+00
7.640307e+00    2.979539e+00
7.656183e+00    3.010239e+00
7.672058e+00    2.984325e+00
7.687934e+00    2.965814e+00
7.703810e+00    3.006973e+00
7.719685e+00    3.027050e+00
7.735561e+00    2.997066e+00
7.751436e+00    2.974597e+00
7.767312e+00    2.976183e+00
7.783187e+00    2.965499e+00
7.799063e+00    2.930451e+00
7.814939e+00    2.941635e+00
7.830814e+00    2.950637e+00
7.846690e+00    2.938464e+00
7.862565e+00    2.999171e+00
7.878441e+00    3.032061e+00
7.894317e+00    2.958380e+00
7.910192e+00    2.944052e+00
7.926068e+00    2.994252e+00
7.941943e+00    2.963581e+00
7.957819e+00    2.932033e+00
7.973694e+00    2.867976e+00
7.989570e+00    3.002737e+00
8.005446e+00    2.999398e+00
8.021321e+00    2.933203e+00
8.037197e+00    2.926677e+00
8.053072e+00    2.894312e+00
8.068948e+00    2.914937e+00
8.084823e+00    2.972662e+00
8.100699e+00    3.025700e+00
8.116575e+00    2.957399e+00
8.132450e+00    2.895764e+00
8.148326e+00    2.923312e+00
8.164201e+00    2.969018e+00
8.180077e+00    2.969536e+00
8.195952e+00    2.958966e+00
8.211828e+00    2.966012e+00
8.227704e+00    2.945332e+00
8.243579e+00    2.972086e+00
8.259455e+00    2.994086e+00
8.275330e+00    2.946385e+00
8.291206e+00    2.906138e+00
8.307081e+00    2.941464e+00
8.322957e+00    2.926900e+00
8.338833e+00    2.895876e+00
8.354708e+00    2.906709e+00
8.370584e+00    2.894039e+00
8.386459e+00    2.932669e+00
8.402335e+00    2.936115e+00
8.418210e+00    2.933989e+00
8.434086e+00    2.928977e+00
8.449962e+00    2.929866e+00
8.465837e+00    2.892386e+00
8.481713e+00    2.910066e+00
8.497588e+00    2.905306e+00
8.513464e+00    2.879831e+00
8.529339e+00    2.883676e+00
8.545215e+00    2.883130e+00
8.561091e+00    2.890350e+00
8.576966e+00    2.791010e+00
8.592842e+00    2.890695e+00
8.608717e+00    2.903053e+00
8.624593e+00    2.884585e+00
8.640468e+00    2.867428e+00
8.656344e+00    2.899905e+00
8.672220e+00    2.862960e+00
8.688095e+00    2.827817e+00
8.703971e+00    2.857536e+00
8.719846e+00    2.829603e+00
8.735722e+00    2.817217e+00
8.751598e+00    2.811068e+00
8.767473e+00    2.849216e+00
8.783349e+00    2.874356e+00
8.799224e+00    2.872938e+00
8.815100e+00    2.881135e+00
8.830975e+00    2.898544e+00
8.846851e+00    2.891079e+00
8.862727e+00    2.874591e+00
8.878602e+00    2.844709e+00
8.894478e+00    2.809444e+00
8.910353e+00    2.800138e+00
8.926229e+00    2.874979e+00
8.942104e+00    2.796989e+00
8.957980e+00    2.779837e+00
8.973856e+00    2.859103e+00
8.989731e+00    2.842049e+00
9.005607e+00    2.829652e+00
9.021482e+00    2.812455e+00
9.037358e+00    2.832625e+00
9.053233e+00    2.852448e+00
9.069109e+00    2.850304e+00
9.084985e+00    2.839265e+00
9.100860e+00    2.802027e+00
9.116736e+00    2.801467e+00
9.132611e+00    2.813800e+00
9.148487e+00    2.824037e+00
9.164362e+00    2.811950e+00
9.180238e+00    2.769042e+00
9.196114e+00    2.747348e+00
9.211989e+00    2.763430e+00
9.227865e+00    2.786866e+00
9.243740e+00    2.782265e+00
9.259616e+00    2.867639e+00
9.275491e+00    2.816883e+00
9.291367e+00    2.788432e+00
9.307243e+00    2.813747e+00
9.323118e+00    2.822388e+00
9.338994e+00    2.781539e+00
9.354869e+00    2.773710e+00
9.370745e+00    2.773881e+00
9.386620e+00    2.791601e+00
9.402496e+00    2.785198e+00
9.418372e+00    2.897717e+00
9.434247e+00    2.822595e+00
9.450123e+00    2.797695e+00
9.465998e+00    2.791306e+00
9.481874e+00    2.795070e+00
9.497749e+00    2.795047e+00
9.513625e+00    2.771622e+00
9.529501e+00    2.727832e+00
9.545376e+00    2.734275e+00
9.561252e+00    2.749907e+00
9.577127e+00    2.743321e+00
9.593003e+00    2.673963e+00
9.608878e+00    2.729862e+00
9.624754e+00    2.741309e+00
9.640630e+00    2.712115e+00
9.656505e+00    2.702746e+00
9.672381e+00    2.809983e+00
9.688256e+00    2.726246e+00
9.704132e+00    2.747416e+00
9.720008e+00    2.706981e+00
9.735883e+00    2.735339e+00
9.751759e+00    2.764075e+00
9.767634e+00    2.726884e+00
9.783510e+00    2.754357e+00
9.799385e+00    2.723619e+00
9.815261e+00    2.734438e+00
9.831137e+00    2.721547e+00
9.847012e+00    2.681317e+00
9.862888e+00    2.664666e+00
9.878763e+00    2.668938e+00
9.894639e+00    2.662169e+00
9.910514e+00    2.697732e+00
9.926390e+00    2.681797e+00
9.942266e+00    2.690707e+00
9.958141e+00    2.699185e+00
9.974017e+00    2.709314e+00
9.989892e+00    2.678463e+00
1.000577e+01    2.691642e+00
1.002164e+01    2.692404e+00
1.003752e+01    2.685961e+00
1.005339e+01    2.635934e+00
1.006927e+01    2.659827e+00
1.008515e+01    2.625530e+00
1.010102e+01    2.601804e+00
1.011690e+01    2.601237e+00
1.013277e+01    2.615227e+00
1.014865e+01    2.695945e+00
1.016452e+01    2.707792e+00
1.018040e+01    2.631624e+00
1.019627e+01    2.620598e+00
1.021215e+01    2.617309e+00
1.022803e+01    2.630211e+00
1.024390e+01    2.594052e+00
1.025978e+01    2.618073e+00
1.027565e+01    2.629772e+00
1.029153e+01    2.673843e+00
1.030740e+01    2.646656e+00
1.032328e+01    2.577653e+00
1.033915e+01    2.612930e+00
1.035503e+01    2.628025e+00
1.037091e+01    2.592567e+00
1.038678e+01    2.598586e+00
1.040266e+01    2.606676e+00
1.041853e+01    2.610543e+00
1.043441e+01    2.548111e+00
1.045028e+01    2.570697e+00
1.046616e+01    2.574031e+00
1.048204e+01    2.582946e+00
1.049791e+01    2.653669e+00
1.051379e+01    2.625238e+00
1.052966e+01    2.641559e+00
1.054554e+01    2.644639e+00
1.056141e+01    2.643991e+00
1.057729e+01    2.619347e+00
1.059316e+01    2.637044e+00
1.060904e+01    2.642262e+00
1.062492e+01    2.602552e+00
1.064079e+01    2.651875e+00
1.065667e+01    2.588038e+00
1.067254e+01    2.563518e+00
1.068842e+01    2.597816e+00
1.070429e+01    2.583676e+00
1.072017e+01    2.605957e+00
1.073604e+01    2.580606e+00
1.075192e+01    2.508612e+00
1.076780e+01    2.583961e+00
1.078367e+01    2.548121e+00
1.079955e+01    2.502902e+00
1.081542e+01    2.535056e+00
1.083130e+01    2.502892e+00
1.084717e+01    2.537822e+00
1.086305e+01    2.539896e+00
1.087892e+01    2.499107e+00
1.089480e+01    2.545749e+00
1.091068e+01    2.545021e+00
1.092655e+01    2.547637e+00
1.094243e+01    2.478788e+00
1.095830e+01    2.526289e+00
1.097418e+01    2.508056e+00
1.099005e+01    2.480708e+00
1.100593e+01    2.530271e+00
1.102180e+01    2.530997e+00
1.103768e+01    2.479257e+00
1.105356e+01    2.509386e+00
1.106943e+01    2.503002e+00
1.108531e+01    2.526521e+00
1.110118e+01    2.484035e+00
1.111706e+01    2.487495e+00
1.113293e+01    2.468295e+00
1.114881e+01    2.467020e+00
1.116468e+01    2.484010e+00
1.118056e+01    2.496059e+00
1.119644e+01    2.481873e+00
1.121231e+01    2.483320e+00
1.122819e+01    2.497682e+00
1.124406e+01    2.463098e+00
1.125994e+01    2.457644e+00
1.127581e+01    2.460103e+00
1.129169e+01    2.437844e+00
1.130756e+01    2.452230e+00
1.132344e+01    2.478057e+00
1.133932e+01    2.472556e+00
1.135519e+01    2.418025e+00
1.137107e+01    2.450540e+00
1.138694e+01    2.464262e+00
1.140282e+01    2.476123e+00
1.141869e+01    2.483161e+00
1.143457e+01    2.459706e+00
1.145045e+01    2.407681e+00
1.146632e+01    2.409666e+00
1.148220e+01    2.422201e+00
1.149807e+01    2.416446e+00
1.151395e+01    2.420135e+00
1.152982e+01    2.389751e+00
1.154570e+01    2.400338e+00
1.156157e+01    2.410239e+00
1.157745e+01    2.407599e+00
1.159333e+01    2.396819e+00
1.160920e+01    2.353726e+00
1.162508e+01    2.368766e+00
1.164095e+01    2.375289e+00
1.165683e+01    2.451107e+00
1.167270e+01    2.370788e+00
1.168858e+01    2.350352e+00
1.170445e+01    2.354710e+00
1.172033e+01    2.395181e+00
1.173621e+01    2.411201e+00
1.175208e+01    2.375597e+00
1.176796e+01    2.391274e+00
1.178383e+01    2.366862e+00
1.179971e+01    2.385518e+00
1.181558e+01    2.364115e+00
1.183146e+01    2.376867e+00
1.184733e+01    2.347428e+00
1.186321e+01    2.334353e+00
1.187909e+01    2.375276e+00
1.189496e+01    2.369163e+00
1.191084e+01    2.314140e+00
1.192671e+01    2.347732e+00
1.194259e+01    2.399552e+00
1.195846e+01    2.402266e+00
1.197434e+01    2.379002e+00
1.199021e+01    2.345550e+00
1.200609e+01    2.359195e+00
1.202197e+01    2.379460e+00
1.203784e+01    2.352668e+00
1.205372e+01    2.346245e+00
1.206959e+01    2.328738e+00
1.208547e+01    2.308621e+00
1.210134e+01    2.346014e+00
1.211722e+01    2.312897e+00
1.213309e+01    2.307276e+00
1.214897e+01    2.337415e+00
1.216485e+01    2.313274e+00
1.218072e+01    2.326579e+00
1.219660e+01    2.352029e+00
1.221247e+01    2.318387e+00
1.222835e+01    2.355199e+00
1.224422e+01    2.357684e+00
1.226010e+01    2.317655e+00
1.227597e+01    2.312892e+00
1.229185e+01    2.346689e+00
1.230773e+01    2.364385e+00
1.232360e+01    2.323900e+00
1.233948e+01    2.314167e+00
1.235535e+01    2.330475e+00
1.237123e+01    2.301505e+00
1.238710e+01    2.338156e+00
1.240298e+01    2.359872e+00
1.241886e+01    2.329235e+00
1.243473e+01    2.361018e+00
1.245061e+01    2.389005e+00
1.246648e+01    2.337270e+00
1.248236e+01    2.345342e+00
1.249823e+01    2.323112e+00
1.251411e+01    2.349140e+00
1.252998e+01    2.400090e+00
1.254586e+01    2.390486e+00
1.256174e+01    2.354491e+00
1.257761e+01    2.380359e+00
1.259349e+01    2.363382e+00
1.260936e+01    2.364458e+00
1.262524e+01    2.428835e+00
1.264111e+01    2.390419e+00
1.265699e+01    2.433209e+00
1.267286e+01    2.438866e+00
1.268874e+01    2.462487e+00
1.270462e+01    2.471013e+00
1.272049e+01    2.468111e+00
1.273637e+01    2.524200e+00
1.275224e+01    2.543670e+00
1.276812e+01    2.593309e+00
1.278399e+01    2.608928e+00
1.279987e+01    2.626616e+00
1.281574e+01    2.707348e+00
1.283162e+01    2.782351e+00
1.284750e+01    2.794659e+00
1.286337e+01    2.901376e+00
1.287925e+01    2.982881e+00
1.289512e+01    3.090348e+00
1.291100e+01    3.210648e+00
1.292687e+01    3.392991e+00
1.294275e+01    3.665901e+00
1.295862e+01    3.984997e+00
1.297450e+01    4.338957e+00
1.299038e+01    4.842619e+00
1.300625e+01    5.438916e+00
1.302213e+01    6.222753e+00
1.303800e+01    7.130883e+00
1.305388e+01    8.219487e+00
1.306975e+01    9.403390e+00
1.308563e+01    1.066525e+01
1.310150e+01    1.197552e+01
1.311738e+01    1.310518e+01
1.313326e+01    1.394532e+01
1.314913e+01    1.488780e+01
1.316501e+01    1.569390e+01
1.318088e+01    1.568338e+01
1.319676e+01    1.511517e+01
1.321263e+01    1.376387e+01
1.322851e+01    1.207896e+01
1.324438e+01    1.016234e+01
1.326026e+01    8.545643e+00
1.327614e+01    7.334496e+00
1.329201e+01    6.356159e+00
1.330789e+01    5.532275e+00
1.332376e+01    4.879714e+00
1.333964e+01    4.351349e+00
1.335551e+01    4.032429e+00
1.337139e+01    3.749477e+00
1.338727e+01    3.510226e+00
1.340314e+01    3.288307e+00
1.341902e+01    3.182266e+00
1.343489e+01    3.009311e+00
1.345077e+01    2.845991e+00
1.346664e+01    2.796391e+00
1.348252e+01    2.667659e+00
1.349839e+01    2.636931e+00
1.351427e+01    2.569532e+00
1.353015e+01    2.487112e+00
1.354602e+01    2.455281e+00
1.356190e+01    2.389894e+00
1.357777e+01    2.362099e+00
1.359365e+01    2.349185e+00
1.360952e+01    2.354064e+00
1.362540e+01    2.255038e+00
1.364127e+01    2.286359e+00
1.365715e+01    2.273416e+00
1.367303e+01    2.276408e+00
1.368890e+01    2.226429e+00
1.370478e+01    2.196157e+00
1.372065e+01    2.177756e+00
1.373653e+01    2.178690e+00
1.375240e+01    2.186070e+00
1.376828e+01    2.168087e+00
1.378415e+01    2.138351e+00
1.380003e+01    2.154878e+00
1.381591e+01    2.140010e+00
1.383178e+01    2.103220e+00
1.384766e+01    2.138313e+00
1.386353e+01    2.105325e+00
1.387941e+01    2.095359e+00
1.389528e+01    2.103086e+00
1.391116e+01    2.065859e+00
1.392703e+01    2.089365e+00
1.394291e+01    2.084841e+00
1.395879e+01    2.101090e+00
1.397466e+01    2.092209e+00
1.399054e+01    2.022777e+00
1.400641e+01    1.991139e+00
1.402229e+01    2.024579e+00
1.403816e+01    2.016659e+00
1.405404e+01    2.037923e+00
1.406991e+01    2.053002e+00
1.408579e+01    2.019361e+00
1.410167e+01    2.024579e+00
1.411754e+01    2.035579e+00
1.413342e+01    2.047179e+00
1.414929e+01    2.028548e+00
1.416517e+01    2.002419e+00
1.418104e+01    1.982515e+00
1.419692e+01    1.972127e+00
1.421279e+01    1.971007e+00
1.422867e+01    2.002637e+00
1.424455e+01    2.012183e+00
1.426042e+01    1.990640e+00
1.427630e+01    2.007571e+00
1.429217e+01    1.974278e+00
1.430805e+01    1.957451e+00
1.432392e+01    1.953468e+00
1.433980e+01    1.956226e+00
1.435568e+01    1.969875e+00
1.437155e+01    1.955405e+00
1.438743e+01    1.986950e+00
1.440330e+01    1.976586e+00
1.441918e+01    1.944601e+00
1.443505e+01    1.950469e+00
1.445093e+01    1.953331e+00
1.446680e+01    1.929729e+00
1.448268e+01    1.932024e+00
1.449856e+01    1.920958e+00
1.451443e+01    1.933284e+00
1.453031e+01    1.918189e+00
1.454618e+01    1.887874e+00
1.456206e+01    1.877620e+00
1.457793e+01    1.871477e+00
1.459381e+01    1.937460e+00
1.460968e+01    1.949564e+00
1.462556e+01    1.946449e+00
1.464144e+01    1.930053e+00
1.465731e+01    1.932460e+00
1.467319e+01    1.964191e+00
1.468906e+01    1.940499e+00
1.470494e+01    1.893930e+00
1.472081e+01    1.900288e+00
1.473669e+01    1.886153e+00
1.475256e+01    1.929353e+00
1.476844e+01    1.918702e+00
1.478432e+01    1.868855e+00
1.480019e+01    1.926679e+00
1.481607e+01    1.937546e+00
1.483194e+01    1.944092e+00
1.484782e+01    1.956937e+00
1.486369e+01    1.959822e+00
1.487957e+01    1.928577e+00
1.489544e+01    1.942915e+00
1.491132e+01    1.974658e+00
1.492720e+01    2.017525e+00
1.494307e+01    2.018235e+00
1.495895e+01    2.033586e+00
1.497482e+01    2.053466e+00
1.499070e+01    2.107565e+00
1.500657e+01    2.163295e+00
1.502245e+01    2.192208e+00
1.503832e+01    2.307670e+00
1.505420e+01    2.424527e+00
1.507008e+01    2.521458e+00
1.508595e+01    2.720867e+00
1.510183e+01    2.884326e+00
1.511770e+01    3.074882e+00
1.513358e+01    3.446543e+00
1.514945e+01    3.844324e+00
1.516533e+01    4.172754e+00
1.518120e+01    4.514000e+00
1.519708e+01    4.784528e+00
1.521296e+01    4.994705e+00
1.522883e+01    5.273974e+00
1.524471e+01    5.427047e+00
1.526058e+01    5.448327e+00
1.527646e+01    5.404119e+00
1.529233e+01    5.197436e+00
1.530821e+01    4.803134e+00
1.532409e+01    4.388974e+00
1.533996e+01    3.900034e+00
1.535584e+01    3.430313e+00
1.537171e+01    3.134540e+00
1.538759e+01    2.833778e+00
1.540346e+01    2.612196e+00
1.541934e+01    2.437213e+00
1.543521e+01    2.306480e+00
1.545109e+01    2.237001e+00
1.546697e+01    2.125942e+00
1.548284e+01    2.097022e+00
1.549872e+01    2.002076e+00
1.551459e+01    1.986187e+00
1.553047e+01    1.956035e+00
1.554634e+01    1.901153e+00
1.556222e+01    1.847879e+00
1.557809e+01    1.852301e+00
1.559397e+01    1.853003e+00
1.560985e+01    1.817396e+00
1.562572e+01    1.748842e+00
1.564160e+01    1.750186e+00
1.565747e+01    1.776067e+00
1.567335e+01    1.770495e+00
1.568922e+01    1.724146e+00
1.570510e+01    1.719009e+00
1.572097e+01    1.722772e+00
1.573685e+01    1.689756e+00
1.575273e+01    1.685683e+00
1.576860e+01    1.663810e+00
1.578448e+01    1.700023e+00
1.580035e+01    1.664875e+00
1.581623e+01    1.678067e+00
1.583210e+01    1.666235e+00
1.584798e+01    1.667121e+00
1.586385e+01    1.690596e+00
1.587973e+01    1.691021e+00
1.589561e+01    1.626199e+00
1.591148e+01    1.640584e+00
1.592736e+01    1.659490e+00
1.594323e+01    1.628562e+00
1.595911e+01    1.649840e+00
1.597498e+01    1.665995e+00
1.599086e+01    1.608781e+00
1.600673e+01    1.611273e+00
1.602261e+01    1.632025e+00
1.603849e+01    1.624668e+00
1.605436e+01    1.634617e+00
1.607024e+01    1.605182e+00
1.608611e+01    1.587475e+00
1.610199e+01    1.597613e+00
1.611786e+01    1.568315e+00
1.613374e+01    1.572213e+00
1.614961e+01    1.591184e+00
1.616549e+01    1.574286e+00
1.618137e+01    1.577057e+00
1.619724e+01    1.583607e+00
1.621312e+01    1.589381e+00
1.622899e+01    1.604908e+00
1.624487e+01    1.555822e+00
1.626074e+01    1.549064e+00
1.627662e+01    1.578775e+00
1.629250e+01    1.566339e+00
1.630837e+01    1.552440e+00
1.632425e+01    1.527244e+00
1.634012e+01    1.556948e+00
1.635600e+01    1.570050e+00
1.637187e+01    1.563791e+00
1.638775e+01    1.552605e+00
1.640362e+01    1.552642e+00
1.641950e+01    1.544372e+00
1.643538e+01    1.539893e+00
1.645125e+01    1.535899e+00
1.646713e+01    1.532740e+00
1.648300e+01    1.510672e+00
1.649888e+01    1.514629e+00
1.651475e+01    1.520122e+00
1.653063e+01    1.544674e+00
1.654650e+01    1.521229e+00
1.656238e+01    1.498820e+00
1.657826e+01    1.496112e+00
1.659413e+01    1.482634e+00
1.661001e+01    1.469903e+00
1.662588e+01    1.500690e+00
1.664176e+01    1.506292e+00
1.665763e+01    1.509019e+00
1.667351e+01    1.472863e+00
1.668938e+01    1.507947e+00
1.670526e+01    1.490377e+00
1.672114e+01    1.489294e+00
1.673701e+01    1.452934e+00
1.675289e+01    1.445463e+00
1.676876e+01    1.469966e+00
1.678464e+01    1.504102e+00
1.680051e+01    1.489016e+00
1.681639e+01    1.473963e+00
1.683226e+01    1.446796e+00
1.684814e+01    1.453150e+00
1.686402e+01    1.470497e+00
1.687989e+01    1.443976e+00
1.689577e+01    1.435359e+00
1.691164e+01    1.466411e+00
1.692752e+01    1.459471e+00
1.694339e+01    1.448324e+00
1.695927e+01    1.449260e+00
1.697514e+01    1.427933e+00
1.699102e+01    1.440205e+00
1.700690e+01    1.440761e+00
1.702277e+01    1.442656e+00
1.703865e+01    1.438147e+00
1.705452e+01    1.447570e+00
1.707040e+01    1.427980e+00
1.708627e+01    1.454862e+00
1.710215e+01    1.464653e+00
1.711802e+01    1.442119e+00
1.713390e+01    1.430054e+00
1.714978e+01    1.406350e+00
1.716565e+01    1.364851e+00
1.718153e+01    1.396967e+00
1.719740e+01    1.415551e+00
1.721328e+01    1.394940e+00
1.722915e+01    1.414684e+00
1.724503e+01    1.412027e+00
1.726091e+01    1.377064e+00
1.727678e+01    1.381280e+00
1.729266e+01    1.409871e+00
1.730853e+01    1.388300e+00
1.732441e+01    1.387286e+00
1.734028e+01    1.393842e+00
1.735616e+01    1.388924e+00
1.737203e+01    1.391211e+00
1.738791e+01    1.368024e+00
1.740379e+01    1.370045e+00
1.741966e+01    1.360995e+00
1.743554e+01    1.362388e+00
1.745141e+01    1.379849e+00
1.746729e+01    1.380393e+00
1.748316e+01    1.371167e+00
1.749904e+01    1.345935e+00
1.751491e+01    1.355211e+00
1.753079e+01    1.375239e+00
1.754667e+01    1.335296e+00
1.756254e+01    1.345913e+00
1.757842e+01    1.362702e+00
1.759429e+01    1.351570e+00
1.761017e+01    1.349129e+00
1.762604e+01    1.376211e+00
1.764192e+01    1.375380e+00
1.765779e+01    1.360648e+00
1.767367e+01    1.352360e+00
1.768955e+01    1.352830e+00
1.770542e+01    1.341336e+00
1.772130e+01    1.320851e+00
1.773717e+01    1.357396e+00
1.775305e+01    1.347220e+00
1.776892e+01    1.339635e+00
1.778480e+01    1.314854e+00
1.780067e+01    1.302728e+00
1.781655e+01    1.347818e+00
1.783243e+01    1.338957e+00
1.784830e+01    1.324832e+00
1.786418e+01    1.309277e+00
1.788005e+01    1.336387e+00
1.789593e+01    1.339970e+00
1.791180e+01    1.324902e+00
1.792768e+01    1.324771e+00
1.794355e+01    1.292439e+00
1.795943e+01    1.312595e+00
1.797531e+01    1.316316e+00
1.799118e+01    1.305261e+00
1.800706e+01    1.308396e+00
1.802293e+01    1.294413e+00
1.803881e+01    1.310731e+00
1.805468e+01    1.312805e+00
1.807056e+01    1.286140e+00
1.808643e+01    1.310380e+00
1.810231e+01    1.291633e+00
1.811819e+01    1.286321e+00
1.813406e+01    1.296839e+00
1.814994e+01    1.307125e+00
1.816581e+01    1.274363e+00
1.818169e+01    1.312505e+00
1.819756e+01    1.297880e+00
1.821344e+01    1.279421e+00
1.822932e+01    1.282879e+00
1.824519e+01    1.278728e+00
1.826107e+01    1.265933e+00
1.827694e+01    1.280398e+00
1.829282e+01    1.297372e+00
1.830869e+01    1.300107e+00
1.832457e+01    1.302553e+00
1.834044e+01    1.277751e+00
1.835632e+01    1.249235e+00
1.837220e+01    1.246124e+00
1.838807e+01    1.265575e+00
1.840395e+01    1.265660e+00
1.841982e+01    1.265940e+00
1.843570e+01    1.266268e+00
1.845157e+01    1.247670e+00
1.846745e+01    1.250368e+00
1.848332e+01    1.266070e+00
1.849920e+01    1.241860e+00
1.851508e+01    1.238007e+00
1.853095e+01    1.263086e+00
1.854683e+01    1.252351e+00
1.856270e+01    1.255250e+00
1.857858e+01    1.243627e+00
1.859445e+01    1.240827e+00
1.861033e+01    1.239232e+00
1.862620e+01    1.247560e+00
1.864208e+01    1.252817e+00
1.865796e+01    1.224182e+00
1.867383e+01    1.223411e+00
1.868971e+01    1.227613e+00
1.870558e+01    1.246141e+00
1.872146e+01    1.243055e+00
1.873733e+01    1.240212e+00
1.875321e+01    1.234392e+00
1.876908e+01    1.261255e+00
1.878496e+01    1.234985e+00
1.880084e+01    1.213181e+00
1.881671e+01    1.250121e+00
1.883259e+01    1.226828e+00
1.884846e+01    1.215623e+00
1.886434e+01    1.213281e+00
1.888021e+01    1.221289e+00
1.889609e+01    1.237954e+00
1.891196e+01    1.220006e+00
1.892784e+01    1.209289e+00
1.894372e+01    1.189931e+00
1.895959e+01    1.204432e+00
1.897547e+01    1.217514e+00
1.899134e+01    1.184662e+00
1.900722e+01    1.193813e+00
1.902309e+01    1.190157e+00
1.903897e+01    1.190608e+00
1.905484e+01    1.209200e+00
1.907072e+01    1.181932e+00
1.908660e+01    1.197192e+00
1.910247e+01    1.214693e+00
1.911835e+01    1.201557e+00
1.913422e+01    1.205601e+00
1.915010e+01    1.223794e+00
1.916597e+01    1.216471e+00
1.918185e+01    1.214564e+00
1.919773e+01    1.234749e+00
1.921360e+01    1.222884e+00
1.922948e+01    1.190821e+00
1.924535e+01    1.155543e+00
1.926123e+01    1.163861e+00
1.927710e+01    1.175645e+00
1.929298e+01    1.187849e+00
1.930885e+01    1.197913e+00
1.932473e+01    1.174586e+00
1.934061e+01    1.157620e+00
1.935648e+01    1.159742e+00
1.937236e+01    1.175825e+00
1.938823e+01    1.187363e+00
1.940411e+01    1.177537e+00
1.941998e+01    1.159634e+00
1.943586e+01    1.152489e+00
1.945173e+01    1.142326e+00
1.946761e+01    1.171022e+00
1.948349e+01    1.165117e+00
1.949936e+01    1.153364e+00
1.951524e+01    1.164910e+00
1.953111e+01    1.160138e+00
1.954699e+01    1.175451e+00
1.956286e+01    1.164250e+00
1.957874e+01    1.147045e+00
1.959461e+01    1.138648e+00
1.961049e+01    1.138932e+00
1.962637e+01    1.156283e+00
1.964224e+01    1.177624e+00
1.965812e+01    1.152760e+00
1.967399e+01    1.135944e+00
1.968987e+01    1.139247e+00
1.970574e+01    1.144536e+00
1.972162e+01    1.128564e+00
1.973749e+01    1.124091e+00
1.975337e+01    1.118218e+00
1.976925e+01    1.125443e+00
1.978512e+01    1.144018e+00
1.980100e+01    1.139187e+00
1.981687e+01    1.157414e+00
1.983275e+01    1.164292e+00
1.984862e+01    1.115752e+00
1.986450e+01    1.098727e+00
1.988037e+01    1.124534e+00
1.989625e+01    1.130994e+00
1.991213e+01    1.127408e+00
1.992800e+01    1.110143e+00
1.994388e+01    1.123576e+00
1.995975e+01    1.121722e+00
1.997563e+01    1.108901e+00
1.999150e+01    1.117213e+00
2.000738e+01    1.110309e+00
2.002325e+01    1.115183e+00
2.003913e+01    1.098443e+00
2.005501e+01    1.117584e+00
2.007088e+01    1.119646e+00
2.008676e+01    1.090329e+00
2.010263e+01    1.093919e+00
2.011851e+01    1.105071e+00
2.013438e+01    1.107170e+00
2.015026e+01    1.114456e+00
2.016614e+01    1.116733e+00
2.018201e+01    1.096166e+00
2.019789e+01    1.080717e+00
2.021376e+01    1.085732e+00
2.022964e+01    1.091388e+00
2.024551e+01    1.094559e+00
2.026139e+01    1.079112e+00
2.027726e+01    1.086958e+00
2.029314e+01    1.103293e+00
2.030902e+01    1.117047e+00
2.032489e+01    1.112134e+00
2.034077e+01    1.109453e+00
2.035664e+01    1.068688e+00
2.037252e+01    1.076557e+00
2.038839e+01    1.079735e+00
2.040427e+01    1.092784e+00
2.042014e+01    1.084148e+00
2.043602e+01    1.076061e+00
2.045190e+01    1.082642e+00
2.046777e+01    1.061412e+00
2.048365e+01    1.081902e+00
2.049952e+01    1.064315e+00
2.051540e+01    1.097249e+00
2.053127e+01    1.080042e+00
2.054715e+01    1.088573e+00
2.056302e+01    1.086983e+00
2.057890e+01    1.087139e+00
2.059478e+01    1.080953e+00
2.061065e+01    1.104339e+00
2.062653e+01    1.075687e+00
2.064240e+01    1.045996e+00
2.065828e+01    1.049485e+00
2.067415e+01    1.046616e+00
2.069003e+01    1.084160e+00
2.070590e+01    1.074622e+00
2.072178e+01    1.077342e+00
2.073766e+01    1.062797e+00
2.075353e+01    1.074953e+00
2.076941e+01    1.066275e+00
2.078528e+01    1.072963e+00
2.080116e+01    1.083064e+00
2.081703e+01    1.080086e+00
2.083291e+01    1.078524e+00
2.084878e+01    1.067547e+00
2.086466e+01    1.082941e+00
2.088054e+01    1.098772e+00
2.089641e+01    1.118208e+00
2.091229e+01    1.115122e+00
2.092816e+01    1.105813e+00
2.094404e+01    1.101482e+00
2.095991e+01    1.093690e+00
2.097579e+01    1.089104e+00
2.099166e+01    1.086632e+00
2.100754e+01    1.077993e+00
2.102342e+01    1.082214e+00
2.103929e+01    1.074998e+00
2.105517e+01    1.075982e+00
2.107104e+01    1.079789e+00
2.108692e+01    1.075098e+00
2.110279e+01    1.078278e+00
2.111867e+01    1.066635e+00
2.113455e+01    1.072240e+00
2.115042e+01    1.074100e+00
2.116630e+01    1.085727e+00
2.118217e+01    1.107280e+00
2.119805e+01    1.111820e+00
2.121392e+01    1.090837e+00
2.122980e+01    1.089117e+00
2.124567e+01    1.098377e+00
2.126155e+01    1.089038e+00
2.127743e+01    1.091270e+00
2.129330e+01    1.122989e+00
2.130918e+01    1.126550e+00
2.132505e+01    1.120674e+00
2.134093e+01    1.117649e+00
2.135680e+01    1.101835e+00
2.137268e+01    1.132612e+00
2.138855e+01    1.152580e+00
2.140443e+01    1.151436e+00
2.142031e+01    1.200577e+00
2.143618e+01    1.204591e+00
2.145206e+01    1.214137e+00
2.146793e+01    1.238107e+00
2.148381e+01    1.247053e+00
2.149968e+01    1.282478e+00
2.151556e+01    1.320363e+00
2.153143e+01    1.349162e+00
2.154731e+01    1.403727e+00
2.156319e+01    1.438320e+00
2.157906e+01    1.452712e+00
2.159494e+01    1.523263e+00
2.161081e+01    1.636249e+00
2.162669e+01    1.718461e+00
2.164256e+01    1.796280e+00
2.165844e+01    1.963395e+00
2.167431e+01    2.138208e+00
2.169019e+01    2.373066e+00
2.170607e+01    2.629707e+00
2.172194e+01    2.949833e+00
2.173782e+01    3.326600e+00
2.175369e+01    3.815599e+00
2.176957e+01    4.361455e+00
2.178544e+01    4.927564e+00
2.180132e+01    5.530906e+00
2.181719e+01    6.152472e+00
2.183307e+01    6.870201e+00
2.184895e+01    7.536998e+00
2.186482e+01    8.045855e+00
2.188070e+01    8.500109e+00
2.189657e+01    8.727844e+00
2.191245e+01    8.586416e+00
2.192832e+01    8.027383e+00
2.194420e+01    7.199050e+00
2.196007e+01    6.282183e+00
2.197595e+01    5.440676e+00
2.199183e+01    4.612477e+00
2.200770e+01    3.883025e+00
2.202358e+01    3.337972e+00
2.203945e+01    2.944049e+00
2.205533e+01    2.604508e+00
2.207120e+01    2.335248e+00
2.208708e+01    2.144038e+00
2.210296e+01    1.957014e+00
2.211883e+01    1.824672e+00
2.213471e+01    1.693815e+00
2.215058e+01    1.604601e+00
2.216646e+01    1.514336e+00
2.218233e+01    1.451075e+00
2.219821e+01    1.385535e+00
2.221408e+01    1.336958e+00
2.222996e+01    1.311547e+00
2.224584e+01    1.267619e+00
2.226171e+01    1.238262e+00
2.227759e+01    1.185808e+00
2.229346e+01    1.168121e+00
2.230934e+01    1.132966e+00
2.232521e+01    1.124021e+00
2.234109e+01    1.129867e+00
2.235696e+01    1.121084e+00
2.237284e+01    1.082583e+00
2.238872e+01    1.076844e+00
2.240459e+01    1.082076e+00
2.242047e+01    1.046822e+00
2.243634e+01    1.034049e+00
2.245222e+01    1.025278e+00
2.246809e+01    1.017363e+00
2.248397e+01    1.027711e+00
2.249984e+01    1.026016e+00
2.251572e+01    1.030720e+00
2.253160e+01    9.995981e-01
2.254747e+01    9.837016e-01
2.256335e+01    9.867625e-01
2.257922e+01    9.903285e-01
2.259510e+01    9.750134e-01
2.261097e+01    9.784291e-01
2.262685e+01    9.794362e-01
2.264272e+01    9.715606e-01
2.265860e+01    9.717847e-01
2.267448e+01    9.660445e-01
2.269035e+01    9.577191e-01
2.270623e+01    9.349409e-01
2.272210e+01    9.205765e-01
2.273798e+01    9.237575e-01
2.275385e+01    9.257249e-01
2.276973e+01    9.274618e-01
2.278560e+01    9.331415e-01
2.280148e+01    9.432241e-01
2.281736e+01    9.056605e-01
2.283323e+01    9.141015e-01
2.284911e+01    9.400440e-01
2.286498e+01    9.126354e-01
2.288086e+01    8.976753e-01
2.289673e+01    8.870713e-01
2.291261e+01    9.033841e-01
2.292848e+01    9.109724e-01
2.294436e+01    9.207376e-01
2.296024e+01    9.184139e-01
2.297611e+01    8.823021e-01
2.299199e+01    8.918915e-01
2.300786e+01    9.217112e-01
2.302374e+01    8.830988e-01
2.303961e+01    8.713557e-01
2.305549e+01    8.848867e-01
2.307137e+01    8.819064e-01
2.308724e+01    8.821341e-01
2.310312e+01    9.119462e-01
2.311899e+01    8.976431e-01
2.313487e+01    8.913077e-01
2.315074e+01    8.962424e-01
2.316662e+01    8.860521e-01
2.318249e+01    8.932698e-01
2.319837e+01    8.950618e-01
2.321425e+01    8.770114e-01
2.323012e+01    8.851467e-01
2.324600e+01    8.785575e-01
2.326187e+01    8.633472e-01
2.327775e+01    8.544279e-01
2.329362e+01    8.368579e-01
2.330950e+01    8.422490e-01
2.332537e+01    8.556931e-01
2.334125e+01    8.566223e-01
2.335713e+01    8.523771e-01
2.337300e+01    8.551979e-01
2.338888e+01    8.539875e-01
2.340475e+01    8.397185e-01
2.342063e+01    8.465052e-01
2.343650e+01    8.766298e-01
2.345238e+01    8.586664e-01
2.346825e+01    8.334410e-01
2.348413e+01    8.452212e-01
2.350001e+01    8.636033e-01
2.351588e+01    8.627887e-01
2.353176e+01    8.397458e-01
2.354763e+01    8.426231e-01
2.356351e+01    8.427477e-01
2.357938e+01    8.327510e-01
2.359526e+01    8.648319e-01
2.361113e+01    8.522303e-01
2.362701e+01    8.595726e-01
2.364289e+01    8.352382e-01
2.365876e+01    8.320625e-01
2.367464e+01    8.219200e-01
2.369051e+01    8.230693e-01
2.370639e+01    8.290388e-01
2.372226e+01    8.200973e-01
2.373814e+01    8.002968e-01
2.375401e+01    8.112696e-01
2.376989e+01    8.141736e-01
2.378577e+01    8.155090e-01
2.380164e+01    7.971353e-01
2.381752e+01    7.921969e-01
2.383339e+01    7.901619e-01
2.384927e+01    8.039457e-01
2.386514e+01    8.043461e-01
2.388102e+01    8.211064e-01
2.389689e+01    8.095163e-01
2.391277e+01    7.902381e-01
2.392865e+01    7.995312e-01
2.394452e+01    7.898707e-01
2.396040e+01    7.633179e-01
2.397627e+01    7.740412e-01
2.399215e+01    7.953772e-01
2.400802e+01    7.869734e-01
2.402390e+01    7.658475e-01
2.403978e+01    7.810509e-01
2.405565e+01    7.882975e-01
2.407153e+01    7.679408e-01
2.408740e+01    7.591334e-01
2.410328e+01    7.833701e-01
2.411915e+01    7.719140e-01
2.413503e+01    7.739673e-01
2.415090e+01    7.997141e-01
2.416678e+01    7.926517e-01
2.418266e+01    7.968234e-01
2.419853e+01    7.877916e-01
2.421441e+01    7.788715e-01
2.423028e+01    7.849174e-01
2.424616e+01    8.010979e-01
2.426203e+01    7.785227e-01
2.427791e+01    7.584757e-01
2.429378e+01    7.937378e-01
2.430966e+01    7.927807e-01
2.432554e+01    7.869812e-01
2.434141e+01    7.852605e-01
2.435729e+01    7.837499e-01
2.437316e+01    7.950679e-01
2.438904e+01    7.875339e-01
2.440491e+01    7.933415e-01
2.442079e+01    7.983482e-01
2.443666e+01    7.898514e-01
2.445254e+01    7.946237e-01
2.446842e+01    7.816925e-01
2.448429e+01    7.997473e-01
2.450017e+01    7.935048e-01
2.451604e+01    7.916555e-01
2.453192e+01    7.924033e-01
2.454779e+01    7.736627e-01
2.456367e+01    7.816663e-01
2.457954e+01    7.778572e-01
2.459542e+01    7.820715e-01
2.461130e+01    7.899076e-01
2.462717e+01    7.823109e-01
2.464305e+01    7.690189e-01
2.465892e+01    7.748275e-01
2.467480e+01    7.747251e-01
2.469067e+01    7.706717e-01
2.470655e+01    7.696698e-01
2.472242e+01    7.822956e-01
2.473830e+01    7.945819e-01
2.475418e+01    8.006115e-01
2.477005e+01    7.985426e-01
2.478593e+01    8.071815e-01
2.480180e+01    7.902201e-01
2.481768e+01    7.737652e-01
2.483355e+01    7.654153e-01
2.484943e+01    7.765057e-01
2.486530e+01    7.912357e-01
2.488118e+01    7.876365e-01
2.489706e+01    7.816699e-01
2.491293e+01    8.019577e-01
2.492881e+01    8.054933e-01
2.494468e+01    7.997696e-01
2.496056e+01    8.031403e-01
2.497643e+01    8.079358e-01
2.499231e+01    8.162954e-01
2.500819e+01    8.134134e-01
2.502406e+01    7.855559e-01
2.503994e+01    7.880169e-01
2.505581e+01    8.060851e-01
2.507169e+01    7.966330e-01
2.508756e+01    7.953219e-01
2.510344e+01    8.216866e-01
2.511931e+01    8.093259e-01
2.513519e+01    7.946398e-01
2.515107e+01    8.215912e-01
2.516694e+01    8.357472e-01
2.518282e+01    8.112124e-01
2.519869e+01    8.209286e-01
2.521457e+01    8.284301e-01
2.523044e+01    8.405012e-01
2.524632e+01    8.394822e-01
2.526219e+01    8.485209e-01
2.527807e+01    8.337342e-01
2.529395e+01    8.402857e-01
2.530982e+01    8.517562e-01
2.532570e+01    8.727514e-01
2.534157e+01    8.731396e-01
2.535745e+01    8.805411e-01
2.537332e+01    8.795509e-01
2.538920e+01    8.877080e-01
2.540507e+01    8.847466e-01
2.542095e+01    8.983650e-01
2.543683e+01    9.265666e-01
2.545270e+01    9.292064e-01
2.546858e+01    9.215556e-01
2.548445e+01    9.463164e-01
2.550033e+01    9.774695e-01
2.551620e+01    9.515359e-01
2.553208e+01    9.721370e-01
2.554795e+01    1.008098e+00
2.556383e+01    1.042167e+00
2.557971e+01    1.070007e+00
2.559558e+01    1.101064e+00
2.561146e+01    1.139159e+00
2.562733e+01    1.155959e+00
2.564321e+01    1.196581e+00
2.565908e+01    1.273025e+00
2.567496e+01    1.326222e+00
2.569083e+01    1.416069e+00
2.570671e+01    1.527900e+00
2.572259e+01    1.602287e+00
2.573846e+01    1.756314e+00
2.575434e+01    1.927983e+00
2.577021e+01    2.125158e+00
2.578609e+01    2.395446e+00
2.580196e+01    2.738164e+00
2.581784e+01    3.075165e+00
2.583371e+01    3.538585e+00
2.584959e+01    3.996161e+00
2.586547e+01    4.502082e+00
2.588134e+01    5.074984e+00
2.589722e+01    5.641891e+00
2.591309e+01    6.202962e+00
2.592897e+01    6.664378e+00
2.594484e+01    6.937994e+00
2.596072e+01    7.070298e+00
2.597660e+01    6.879526e+00
2.599247e+01    6.397477e+00
2.600835e+01    5.816504e+00
2.602422e+01    5.099787e+00
2.604010e+01    4.374184e+00
2.605597e+01    3.738286e+00
2.607185e+01    3.263118e+00
2.608772e+01    2.844414e+00
2.610360e+01    2.522532e+00
2.611948e+01    2.224572e+00
2.613535e+01    1.976102e+00
2.615123e+01    1.821399e+00
2.616710e+01    1.685954e+00
2.618298e+01    1.555527e+00
2.619885e+01    1.454803e+00
2.621473e+01    1.364712e+00
2.623060e+01    1.318855e+00
2.624648e+01    1.246330e+00
2.626236e+01    1.174324e+00
2.627823e+01    1.135188e+00
2.629411e+01    1.109851e+00
2.630998e+01    1.056470e+00
2.632586e+01    1.064046e+00
2.634173e+01    1.062575e+00
2.635761e+01    1.015481e+00
2.637348e+01    9.682795e-01
2.638936e+01    9.669104e-01
2.640524e+01    9.343736e-01
2.642111e+01    9.499959e-01
2.643699e+01    9.508316e-01
2.645286e+01    9.258949e-01
2.646874e+01    9.216429e-01
2.648461e+01    9.026755e-01
2.650049e+01    9.042550e-01
2.651636e+01    9.182833e-01
2.653224e+01    9.017445e-01
2.654812e+01    8.871783e-01
2.656399e+01    8.944667e-01
2.657987e+01    8.907959e-01
2.659574e+01    8.844353e-01
2.661162e+01    8.853287e-01
2.662749e+01    8.955728e-01
2.664337e+01    8.707494e-01
2.665924e+01    8.697373e-01
2.667512e+01    8.739735e-01
2.669100e+01    8.780413e-01
2.670687e+01    8.661501e-01
2.672275e+01    8.909332e-01
2.673862e+01    8.707595e-01
2.675450e+01    8.558173e-01
2.677037e+01    8.539072e-01
2.678625e+01    8.776937e-01
2.680212e+01    8.708562e-01
2.681800e+01    8.840449e-01
2.683388e+01    9.025429e-01
2.684975e+01    9.069886e-01
2.686563e+01    8.955528e-01
2.688150e+01    8.918663e-01
2.689738e+01    8.936032e-01
2.691325e+01    9.196869e-01
2.692913e+01    9.125801e-01
2.694501e+01    9.391322e-01
2.696088e+01    9.552386e-01
2.697676e+01    9.815169e-01
2.699263e+01    1.010033e+00
2.700851e+01    1.020515e+00
2.702438e+01    1.042104e+00
2.704026e+01    1.094528e+00
2.705613e+01    1.142563e+00
2.707201e+01    1.225916e+00
2.708789e+01    1.316319e+00
2.710376e+01    1.400333e+00
2.711964e+01    1.521455e+00
2.713551e+01    1.660788e+00
2.715139e+01    1.767361e+00
2.716726e+01    1.895613e+00
2.718314e+01    1.986000e+00
2.719901e+01    2.093106e+00
2.721489e+01    2.131997e+00
2.723077e+01    2.110206e+00
2.724664e+01    2.031654e+00
2.726252e+01    1.881469e+00
2.727839e+01    1.763793e+00
2.729427e+01    1.606316e+00
2.731014e+01    1.471360e+00
2.732602e+01    1.353787e+00
2.734189e+01    1.232336e+00
2.735777e+01    1.154133e+00
2.737365e+01    1.109697e+00
2.738952e+01    1.067819e+00
2.740540e+01    1.014989e+00
2.742127e+01    9.839054e-01
2.743715e+01    9.482109e-01
2.745302e+01    9.410588e-01
2.746890e+01    9.201146e-01
2.748477e+01    8.850456e-01
2.750065e+01    8.509206e-01
2.751653e+01    8.834251e-01
2.753240e+01    8.710564e-01
2.754828e+01    8.377809e-01
2.756415e+01    8.330956e-01
2.758003e+01    8.637043e-01
2.759590e+01    8.340337e-01
2.761178e+01    8.466026e-01
2.762765e+01    8.349794e-01
2.764353e+01    8.224354e-01
2.765941e+01    8.101826e-01
2.767528e+01    8.009012e-01
2.769116e+01    8.006063e-01
2.770703e+01    8.008825e-01
2.772291e+01    7.940617e-01
2.773878e+01    7.995239e-01
2.775466e+01    8.017627e-01
2.777054e+01    7.966477e-01
2.778641e+01    7.993335e-01
2.780229e+01    7.738671e-01
2.781816e+01    7.914406e-01
2.783404e+01    7.994601e-01
2.784991e+01    8.124976e-01
2.786579e+01    8.002316e-01
2.788166e+01    8.044532e-01
2.789754e+01    7.897761e-01
2.791342e+01    7.833413e-01
2.792929e+01    7.910562e-01
2.794517e+01    7.826288e-01
2.796104e+01    8.040633e-01
2.797692e+01    7.950643e-01
2.799279e+01    7.702206e-01
2.800867e+01    7.701082e-01
2.802454e+01    7.803179e-01
2.804042e+01    7.853858e-01
2.805630e+01    7.709629e-01
2.807217e+01    7.694149e-01
2.808805e+01    7.722890e-01
2.810392e+01    7.781559e-01
2.811980e+01    7.634141e-01
2.813567e+01    7.690261e-01
2.815155e+01    7.680795e-01
2.816742e+01    7.733046e-01
2.818330e+01    7.747405e-01
2.819918e+01    7.696660e-01
2.821505e+01    7.670200e-01
2.823093e+01    7.727032e-01
2.824680e+01    7.516162e-01
2.826268e+01    7.400484e-01
2.827855e+01    7.469644e-01
2.829443e+01    7.513164e-01
2.831030e+01    7.595947e-01
2.832618e+01    7.526280e-01
2.834206e+01    7.698525e-01
2.835793e+01    7.526113e-01
2.837381e+01    7.564018e-01
2.838968e+01    7.412214e-01
2.840556e+01    7.516319e-01
2.842143e+01    7.538758e-01
2.843731e+01    7.556152e-01
2.845318e+01    7.681650e-01
2.846906e+01    7.513216e-01
2.848494e+01    7.379759e-01
2.850081e+01    7.441170e-01
2.851669e+01    7.352489e-01
2.853256e+01    7.375901e-01
2.854844e+01    7.564294e-01
2.856431e+01    7.658862e-01
2.858019e+01    7.635413e-01
2.859606e+01    7.470777e-01
2.861194e+01    7.552295e-01
2.862782e+01    7.506566e-01
2.864369e+01    7.434857e-01
2.865957e+01    7.313403e-01
2.867544e+01    7.239765e-01
2.869132e+01    7.368706e-01
2.870719e+01    7.525947e-01
2.872307e+01    7.444237e-01
2.873895e+01    7.461315e-01
2.875482e+01    7.443039e-01
2.877070e+01    7.275362e-01
2.878657e+01    7.426727e-01
2.880245e+01    7.480617e-01
2.881832e+01    7.500182e-01
2.883420e+01    7.338670e-01
2.885007e+01    7.488345e-01
2.886595e+01    7.260993e-01
2.888183e+01    7.323774e-01
2.889770e+01    7.191011e-01
2.891358e+01    7.362173e-01
2.892945e+01    7.431843e-01
2.894533e+01    7.332428e-01
2.896120e+01    7.310427e-01
2.897708e+01    7.198504e-01
2.899295e+01    7.126862e-01
2.900883e+01    7.121082e-01
2.902471e+01    7.312696e-01
2.904058e+01    7.256605e-01
2.905646e+01    7.286342e-01
2.907233e+01    7.219462e-01
2.908821e+01    7.231061e-01
2.910408e+01    7.187119e-01
2.911996e+01    7.428938e-01
2.913583e+01    7.445105e-01
2.915171e+01    7.471420e-01
2.916759e+01    7.397291e-01
2.918346e+01    7.384311e-01
2.919934e+01    7.239595e-01
2.921521e+01    7.380216e-01
2.923109e+01    7.354587e-01
2.924696e+01    7.275164e-01
2.926284e+01    7.212517e-01
2.927871e+01    7.425516e-01
2.929459e+01    7.206056e-01
2.931047e+01    7.269958e-01
2.932634e+01    7.096926e-01
2.934222e+01    7.151834e-01
2.935809e+01    7.236781e-01
2.937397e+01    7.325847e-01
2.938984e+01    7.474966e-01
2.940572e+01    7.258169e-01
2.942159e+01    7.221860e-01
2.943747e+01    7.220361e-01
2.945335e+01    7.213660e-01
2.946922e+01    7.386199e-01
2.948510e+01    7.341452e-01
2.950097e+01    7.046677e-01
2.951685e+01    7.208005e-01
2.953272e+01    7.366571e-01
2.954860e+01    7.289156e-01
2.956447e+01    7.151642e-01
2.958035e+01    7.285395e-01
2.959623e+01    7.399151e-01
2.961210e+01    6.951993e-01
2.962798e+01    7.074545e-01
2.964385e+01    7.511276e-01
2.965973e+01    7.253318e-01
2.967560e+01    6.952195e-01
2.969148e+01    7.113811e-01
2.970736e+01    7.107869e-01
2.972323e+01    7.066157e-01
2.973911e+01    7.049522e-01
2.975498e+01    7.343270e-01
2.977086e+01    7.382160e-01
2.978673e+01    7.340766e-01
2.980261e+01    7.254375e-01
2.981848e+01    7.253037e-01
2.983436e+01    7.242659e-01
2.985024e+01    7.280358e-01
2.986611e+01    7.061126e-01
2.988199e+01    7.197479e-01
2.989786e+01    7.038605e-01
2.991374e+01    7.158607e-01
2.992961e+01    7.143163e-01
2.994549e+01    7.229134e-01
2.996136e+01    7.062165e-01
2.997724e+01    7.211670e-01
2.999312e+01    7.211881e-01
3.000899e+01    7.339453e-01
3.002487e+01    7.441303e-01
3.004074e+01    7.244406e-01
3.005662e+01    7.073169e-01
3.007249e+01    7.206767e-01
3.008837e+01    7.116478e-01
3.010424e+01    6.971552e-01
3.012012e+01    6.980304e-01
3.013600e+01    7.348955e-01
3.015187e+01    7.079445e-01
3.016775e+01    7.165769e-01
3.018362e+01    7.278842e-01
3.019950e+01    7.117701e-01
3.021537e+01    7.010823e-01
3.023125e+01    7.067637e-01
3.024712e+01    7.107037e-01
3.026300e+01    7.224360e-01
3.027888e+01    7.081184e-01
3.029475e+01    7.016725e-01
3.031063e+01    7.027135e-01
3.032650e+01    7.012826e-01
3.034238e+01    6.982666e-01
3.035825e+01    6.850581e-01
3.037413e+01    6.913387e-01
3.039000e+01    7.086445e-01
3.040588e+01    7.209516e-01
3.042176e+01    7.134461e-01
3.043763e+01    7.132752e-01
3.045351e+01    6.933665e-01
3.046938e+01    6.931093e-01
3.048526e+01    7.141706e-01
3.050113e+01    7.186872e-01
3.051701e+01    6.977156e-01
3.053288e+01    6.966184e-01
3.054876e+01    6.880825e-01
3.056464e+01    7.080808e-01
3.058051e+01    7.109351e-01
3.059639e+01    6.987564e-01
3.061226e+01    7.266097e-01
3.062814e+01    7.179393e-01
3.064401e+01    7.021738e-01
3.065989e+01    7.002593e-01
3.067577e+01    6.978912e-01
3.069164e+01    6.854771e-01
3.070752e+01    6.886488e-01
3.072339e+01    6.951763e-01
3.073927e+01    6.999637e-01
3.075514e+01    6.991907e-01
3.077102e+01    7.079248e-01
3.078689e+01    7.043954e-01
3.080277e+01    7.251920e-01
3.081865e+01    7.156762e-01
3.083452e+01    7.098492e-01
3.085040e+01    6.864151e-01
3.086627e+01    6.812871e-01
3.088215e+01    6.986293e-01
3.089802e+01    7.113636e-01
3.091390e+01    7.040610e-01
3.092977e+01    7.121895e-01
3.094565e+01    7.096244e-01
3.096153e+01    7.002748e-01
3.097740e+01    7.065707e-01
3.099328e+01    7.277249e-01
3.100915e+01    7.029125e-01
3.102503e+01    6.980757e-01
3.104090e+01    6.808829e-01
3.105678e+01    6.881050e-01
3.107265e+01    7.199426e-01
3.108853e+01    7.284153e-01
3.110441e+01    7.197437e-01
3.112028e+01    7.131501e-01
3.113616e+01    7.319477e-01
3.115203e+01    7.215325e-01
3.116791e+01    7.167576e-01
3.118378e+01    7.084355e-01
3.119966e+01    7.392692e-01
3.121553e+01    7.215819e-01
3.123141e+01    7.130374e-01
3.124729e+01    7.176927e-01
3.126316e+01    7.054617e-01
3.127904e+01    7.058668e-01
3.129491e+01    7.072546e-01
3.131079e+01    7.011387e-01
3.132666e+01    7.142484e-01
3.134254e+01    7.252966e-01
3.135841e+01    7.199311e-01
3.137429e+01    7.404097e-01
3.139017e+01    7.394276e-01
3.140604e+01    7.120445e-01
3.142192e+01    7.382134e-01
3.143779e+01    7.397921e-01
3.145367e+01    7.080852e-01
3.146954e+01    7.460701e-01
3.148542e+01    7.663797e-01
3.150129e+01    7.681237e-01
3.151717e+01    7.573150e-01
3.153305e+01    7.606401e-01
3.154892e+01    7.721178e-01
3.156480e+01    7.940057e-01
3.158067e+01    8.104432e-01
3.159655e+01    7.947288e-01
3.161242e+01    8.141170e-01
3.162830e+01    8.271839e-01
3.164418e+01    8.472525e-01
3.166005e+01    8.562511e-01
3.167593e+01    8.950490e-01
3.169180e+01    9.575751e-01
3.170768e+01    9.762420e-01
3.172355e+01    9.965202e-01
3.173943e+01    1.075299e+00
3.175530e+01    1.114115e+00
3.177118e+01    1.197979e+00
3.178706e+01    1.297982e+00
3.180293e+01    1.393438e+00
3.181881e+01    1.517815e+00
3.183468e+01    1.666041e+00
3.185056e+01    1.812639e+00
3.186643e+01    1.953909e+00
3.188231e+01    2.033391e+00
3.189818e+01    2.093499e+00
3.191406e+01    2.098564e+00
3.192994e+01    2.010939e+00
3.194581e+01    1.912055e+00
3.196169e+01    1.797729e+00
3.197756e+01    1.637499e+00
3.199344e+01    1.486244e+00
3.200931e+01    1.340518e+00
3.202519e+01    1.238611e+00
3.204106e+01    1.177201e+00
3.205694e+01    1.108428e+00
3.207282e+01    1.030471e+00
3.208869e+01    9.745572e-01
3.210457e+01    9.345462e-01
3.212044e+01    8.976648e-01
3.213632e+01    8.549211e-01
3.215219e+01    8.374807e-01
3.216807e+01    8.318620e-01
3.218394e+01    8.320267e-01
3.219982e+01    7.867172e-01
3.221570e+01    7.873430e-01
3.223157e+01    8.020368e-01
3.224745e+01    7.679464e-01
3.226332e+01    7.710777e-01
3.227920e+01    7.876167e-01
3.229507e+01    7.615047e-01
3.231095e+01    7.286224e-01
3.232682e+01    7.445532e-01
3.234270e+01    7.199184e-01
3.235858e+01    7.156300e-01
3.237445e+01    7.097675e-01
3.239033e+01    7.343302e-01
3.240620e+01    7.035354e-01
3.242208e+01    6.994765e-01
3.243795e+01    7.119554e-01
3.245383e+01    7.337473e-01
3.246970e+01    7.152893e-01
3.248558e+01    6.996256e-01
3.250146e+01    7.004387e-01
3.251733e+01    7.009073e-01
3.253321e+01    7.183758e-01
3.254908e+01    7.120280e-01