# == pyFAI calibration ==
# Distance Sample to Detector: 0.3999999939076516 m
# PONI: 9.750e-02, 1.135e-01 m
# Rotations: -0.000175 0.000000 -0.000000 rad
# 
# == Fit2d calibration ==
# Distance Sample-beamCenter: 400.000 mm
# Center: x=1514.000, y=1300.000 pix
# Tilt: 0.010 deg  TiltPlanRot: 0.010 deg
# 
# Detector Detector	 Spline= None	 PixelSize= 7.500e-05, 7.500e-05 m
#    Detector has a mask: False 
#    Detector has a dark current: False 
#    detector has a flat field: False 
# 
# Wavelength: 6.888e-11 m
# Mask applied: user provided
# Dark current applied: False
# Flat field applied: False
# Polarization factor: 0.99
# Normalization factor: 1.0
# --> /home/myspot/data/2024_07_Rosario/Ru-CGO-ex/2024-07-27_003_Ru-CGO-ex_Reaction_dwell_000023_data_000117.dat
#       q_nm^-1             I 
  2.003187e-02    7.711996e-02
  3.590745e-02    6.421730e-02
  5.178302e-02    0.000000e+00
  6.765859e-02    3.249338e-02
  8.353417e-02    9.050719e-02
  9.940974e-02    1.383302e-01
  1.152853e-01    3.643651e-02
  1.311609e-01    1.710062e-02
  1.470365e-01    3.889065e-02
  1.629120e-01    2.109055e-02
  1.787876e-01    0.000000e+00
  1.946632e-01    1.443527e-02
  2.105388e-01    1.646379e-02
  2.264143e-01    1.822240e-02
  2.422899e-01    4.163101e-03
  2.581655e-01    4.757379e-03
  2.740411e-01    2.504383e-02
  2.899166e-01    3.791050e-02
  3.057922e-01    1.288459e-02
  3.216678e-01    4.900723e-03
  3.375433e-01    3.140004e-02
  3.534189e-01    2.944477e-02
  3.692945e-01    2.016806e-02
  3.851701e-01    3.198596e-02
  4.010456e-01    5.832633e-02
  4.169212e-01    9.365904e-02
  4.327968e-01    4.741457e-02
  4.486724e-01    2.687631e-02
  4.645479e-01    4.576691e-02
  4.804235e-01    2.394193e-02
  4.962991e-01    3.056147e-02
  5.121747e-01    3.757722e-02
  5.280502e-01    5.060605e-02
  5.439258e-01    3.595839e-02
  5.598014e-01    6.790481e-02
  5.756770e-01    3.572799e-02
  5.915525e-01    5.037494e-02
  6.074281e-01    5.357383e-02
  6.233037e-01    4.866088e-02
  6.391793e-01    5.081718e-02
  6.550548e-01    2.242447e-02
  6.709304e-01    2.764462e-02
  6.868060e-01    2.962286e-02
  7.026815e-01    3.313243e-02
  7.185571e-01    4.009570e-02
  7.344327e-01    4.315259e-02
  7.503083e-01    4.590345e-02
  7.661838e-01    6.056695e-02
  7.820594e-01    1.138886e-01
  7.979350e-01    1.256485e-01
  8.138106e-01    2.031097e-01
  8.296861e-01    2.613934e-01
  8.455617e-01    3.636462e-01
  8.614373e-01    4.465288e-01
  8.773129e-01    5.386730e-01
  8.931884e-01    5.681805e-01
  9.090640e-01    6.130421e-01
  9.249396e-01    7.700742e-01
  9.408152e-01    8.908073e-01
  9.566907e-01    9.337977e-01
  9.725663e-01    1.043638e+00
  9.884419e-01    1.110052e+00
  1.004317e+00    1.095495e+00
  1.020193e+00    1.215542e+00
  1.036069e+00    1.293727e+00
  1.051944e+00    1.357209e+00
  1.067820e+00    1.419957e+00
  1.083695e+00    1.552266e+00
  1.099571e+00    1.603294e+00
  1.115446e+00    1.716864e+00
  1.131322e+00    1.674676e+00
  1.147198e+00    1.590399e+00
  1.163073e+00    1.567995e+00
  1.178949e+00    1.632114e+00
  1.194824e+00    1.707607e+00
  1.210700e+00    2.100342e+00
  1.226575e+00    2.303988e+00
  1.242451e+00    2.430239e+00
  1.258327e+00    2.491582e+00
  1.274202e+00    2.532022e+00
  1.290078e+00    2.734730e+00
  1.305953e+00    2.587628e+00
  1.321829e+00    2.630521e+00
  1.337705e+00    2.813483e+00
  1.353580e+00    2.773215e+00
  1.369456e+00    2.737079e+00
  1.385331e+00    2.904562e+00
  1.401207e+00    2.927738e+00
  1.417082e+00    2.823599e+00
  1.432958e+00    2.860989e+00
  1.448834e+00    3.019534e+00
  1.464709e+00    3.164147e+00
  1.480585e+00    3.033741e+00
  1.496460e+00    3.187993e+00
  1.512336e+00    3.061849e+00
  1.528211e+00    3.150317e+00
  1.544087e+00    3.109433e+00
  1.559963e+00    3.079255e+00
  1.575838e+00    3.041767e+00
  1.591714e+00    3.201502e+00
  1.607589e+00    3.260245e+00
  1.623465e+00    3.056771e+00
  1.639340e+00    2.979396e+00
  1.655216e+00    3.043152e+00
  1.671092e+00    3.113045e+00
  1.686967e+00    3.177613e+00
  1.702843e+00    3.168147e+00
  1.718718e+00    3.092202e+00
  1.734594e+00    3.096775e+00
  1.750469e+00    3.010129e+00
  1.766345e+00    3.100494e+00
  1.782221e+00    3.186281e+00
  1.798096e+00    3.070505e+00
  1.813972e+00    3.060927e+00
  1.829847e+00    3.055487e+00
  1.845723e+00    3.062583e+00
  1.861598e+00    3.109564e+00
  1.877474e+00    3.063324e+00
  1.893350e+00    3.067209e+00
  1.909225e+00    3.147503e+00
  1.925101e+00    3.085908e+00
  1.940976e+00    3.004636e+00
  1.956852e+00    3.094645e+00
  1.972727e+00    3.162493e+00
  1.988603e+00    3.098933e+00
  2.004479e+00    3.052758e+00
  2.020354e+00    2.990692e+00
  2.036230e+00    3.006136e+00
  2.052105e+00    2.993796e+00
  2.067981e+00    3.026848e+00
  2.083856e+00    3.106879e+00
  2.099732e+00    2.990390e+00
  2.115608e+00    3.073379e+00
  2.131483e+00    3.097377e+00
  2.147359e+00    2.988165e+00
  2.163234e+00    2.996138e+00
  2.179110e+00    3.164291e+00
  2.194985e+00    3.089044e+00
  2.210861e+00    3.034701e+00
  2.226737e+00    3.202670e+00
  2.242612e+00    3.224888e+00
  2.258488e+00    3.083512e+00
  2.274363e+00    3.109727e+00
  2.290239e+00    3.066536e+00
  2.306115e+00    3.134731e+00
  2.321990e+00    3.186945e+00
  2.337866e+00    3.074444e+00
  2.353741e+00    3.059438e+00
  2.369617e+00    3.089530e+00
  2.385492e+00    3.119544e+00
  2.401368e+00    3.097503e+00
  2.417244e+00    3.088128e+00
  2.433119e+00    3.064531e+00
  2.448995e+00    3.075737e+00
  2.464870e+00    3.144973e+00
  2.480746e+00    3.213200e+00
  2.496621e+00    3.182399e+00
  2.512497e+00    3.151560e+00
  2.528373e+00    3.099610e+00
  2.544248e+00    3.144658e+00
  2.560124e+00    3.169085e+00
  2.575999e+00    3.158298e+00
  2.591875e+00    3.224772e+00
  2.607750e+00    3.304119e+00
  2.623626e+00    3.154408e+00
  2.639502e+00    3.209689e+00
  2.655377e+00    3.343653e+00
  2.671253e+00    3.235422e+00
  2.687128e+00    3.227092e+00
  2.703004e+00    3.251315e+00
  2.718879e+00    3.326596e+00
  2.734755e+00    3.270733e+00
  2.750631e+00    3.285172e+00
  2.766506e+00    3.311047e+00
  2.782382e+00    3.243987e+00
  2.798257e+00    3.244581e+00
  2.814133e+00    3.322920e+00
  2.830008e+00    3.301892e+00
  2.845884e+00    3.228289e+00
  2.861760e+00    3.279330e+00
  2.877635e+00    3.345574e+00
  2.893511e+00    3.329826e+00
  2.909386e+00    3.293942e+00
  2.925262e+00    3.303795e+00
  2.941137e+00    3.322820e+00
  2.957013e+00    3.301385e+00
  2.972889e+00    3.353106e+00
  2.988764e+00    3.424470e+00
  3.004640e+00    3.442013e+00
  3.020515e+00    3.327878e+00
  3.036391e+00    3.242993e+00
  3.052266e+00    3.299064e+00
  3.068142e+00    3.375559e+00
  3.084018e+00    3.402337e+00
  3.099893e+00    3.394244e+00
  3.115769e+00    3.304564e+00
  3.131644e+00    3.361732e+00
  3.147520e+00    3.460715e+00
  3.163395e+00    3.235511e+00
  3.179271e+00    3.290879e+00
  3.195147e+00    3.320024e+00
  3.211022e+00    3.369938e+00
  3.226898e+00    3.375087e+00
  3.242773e+00    3.345547e+00
  3.258649e+00    3.395843e+00
  3.274525e+00    3.381311e+00
  3.290400e+00    3.357844e+00
  3.306276e+00    3.367517e+00
  3.322151e+00    3.400545e+00
  3.338027e+00    3.457081e+00
  3.353902e+00    3.519572e+00
  3.369778e+00    3.480433e+00
  3.385654e+00    3.478299e+00
  3.401529e+00    3.551620e+00
  3.417405e+00    3.565351e+00
  3.433280e+00    3.510907e+00
  3.449156e+00    3.448498e+00
  3.465031e+00    3.442899e+00
  3.480907e+00    3.503205e+00
  3.496783e+00    3.527143e+00
  3.512658e+00    3.477413e+00
  3.528534e+00    3.553179e+00
  3.544409e+00    3.522464e+00
  3.560285e+00    3.493078e+00
  3.576160e+00    3.422968e+00
  3.592036e+00    3.458767e+00
  3.607912e+00    3.517860e+00
  3.623787e+00    3.534365e+00
  3.639663e+00    3.479641e+00
  3.655538e+00    3.442317e+00
  3.671414e+00    3.406315e+00
  3.687289e+00    3.371293e+00
  3.703165e+00    3.397753e+00
  3.719041e+00    3.479080e+00
  3.734916e+00    3.465452e+00
  3.750792e+00    3.467391e+00
  3.766667e+00    3.529286e+00
  3.782543e+00    3.441995e+00
  3.798418e+00    3.341142e+00
  3.814294e+00    3.444206e+00
  3.830170e+00    3.506023e+00
  3.846045e+00    3.426676e+00
  3.861921e+00    3.400712e+00
  3.877796e+00    3.508356e+00
  3.893672e+00    3.532281e+00
  3.909547e+00    3.507484e+00
  3.925423e+00    3.508196e+00
  3.941299e+00    3.506807e+00
  3.957174e+00    3.477884e+00
  3.973050e+00    3.479732e+00
  3.988925e+00    3.511100e+00
  4.004801e+00    3.503855e+00
  4.020676e+00    3.521284e+00
  4.036552e+00    3.550209e+00
  4.052428e+00    3.686670e+00
  4.068303e+00    3.528983e+00
  4.084179e+00    3.598623e+00
  4.100054e+00    3.667966e+00
  4.115930e+00    3.568509e+00
  4.131806e+00    3.552114e+00
  4.147681e+00    3.513237e+00
  4.163557e+00    3.590790e+00
  4.179432e+00    3.590417e+00
  4.195308e+00    3.605466e+00
  4.211183e+00    3.571414e+00
  4.227059e+00    3.578434e+00
  4.242935e+00    3.561914e+00
  4.258810e+00    3.596027e+00
  4.274686e+00    3.514135e+00
  4.290561e+00    3.561034e+00
  4.306437e+00    3.528132e+00
  4.322312e+00    3.554550e+00
  4.338188e+00    3.627457e+00
  4.354064e+00    3.597236e+00
  4.369939e+00    3.589813e+00
  4.385815e+00    3.509757e+00
  4.401690e+00    3.512315e+00
  4.417566e+00    3.610615e+00
  4.433441e+00    3.608258e+00
  4.449317e+00    3.671062e+00
  4.465193e+00    3.682645e+00
  4.481068e+00    3.682543e+00
  4.496944e+00    3.582887e+00
  4.512819e+00    3.552079e+00
  4.528695e+00    3.530770e+00
  4.544570e+00    3.587211e+00
  4.560446e+00    3.557713e+00
  4.576322e+00    3.609142e+00
  4.592197e+00    3.646410e+00
  4.608073e+00    3.657416e+00
  4.623948e+00    3.668142e+00
  4.639824e+00    3.632982e+00
  4.655699e+00    3.667800e+00
  4.671575e+00    3.662140e+00
  4.687451e+00    3.594777e+00
  4.703326e+00    3.555273e+00
  4.719202e+00    3.522979e+00
  4.735077e+00    3.623527e+00
  4.750953e+00    3.601362e+00
  4.766828e+00    3.647750e+00
  4.782704e+00    3.657535e+00
  4.798580e+00    3.627678e+00
  4.814455e+00    3.608900e+00
  4.830331e+00    3.676868e+00
  4.846206e+00    3.628537e+00
  4.862082e+00    3.604588e+00
  4.877957e+00    3.686895e+00
  4.893833e+00    3.723515e+00
  4.909709e+00    3.578627e+00
  4.925584e+00    3.623503e+00
  4.941460e+00    3.684470e+00
  4.957335e+00    3.690284e+00
  4.973211e+00    3.715637e+00
  4.989086e+00    3.697235e+00
  5.004962e+00    3.713484e+00
  5.020838e+00    3.661715e+00
  5.036713e+00    3.677053e+00
  5.052589e+00    3.657613e+00
  5.068464e+00    3.676259e+00
  5.084340e+00    3.598698e+00
  5.100216e+00    3.597014e+00
  5.116091e+00    3.610954e+00
  5.131967e+00    3.684605e+00
  5.147842e+00    3.652478e+00
  5.163718e+00    3.663777e+00
  5.179593e+00    3.675757e+00
  5.195469e+00    3.700830e+00
  5.211345e+00    3.669669e+00
  5.227220e+00    3.668800e+00
  5.243096e+00    3.596804e+00
  5.258971e+00    3.624227e+00
  5.274847e+00    3.676022e+00
  5.290722e+00    3.681531e+00
  5.306598e+00    3.669025e+00
  5.322474e+00    3.721120e+00
  5.338349e+00    3.706317e+00
  5.354225e+00    3.649295e+00
  5.370100e+00    3.772561e+00
  5.385976e+00    3.660077e+00
  5.401851e+00    3.680913e+00
  5.417727e+00    3.647652e+00
  5.433603e+00    3.569534e+00
  5.449478e+00    3.568696e+00
  5.465354e+00    3.602294e+00
  5.481229e+00    3.587303e+00
  5.497105e+00    3.549608e+00
  5.512980e+00    3.468266e+00
  5.528856e+00    3.498170e+00
  5.544732e+00    3.591760e+00
  5.560607e+00    3.634952e+00
  5.576483e+00    3.616049e+00
  5.592358e+00    3.587359e+00
  5.608234e+00    3.599710e+00
  5.624109e+00    3.561529e+00
  5.639985e+00    3.576152e+00
  5.655861e+00    3.647957e+00
  5.671736e+00    3.615224e+00
  5.687612e+00    3.577292e+00
  5.703487e+00    3.591819e+00
  5.719363e+00    3.635920e+00
  5.735238e+00    3.639287e+00
  5.751114e+00    3.521409e+00
  5.766990e+00    3.529618e+00
  5.782865e+00    3.570687e+00
  5.798741e+00    3.642379e+00
  5.814616e+00    3.658814e+00
  5.830492e+00    3.616026e+00
  5.846367e+00    3.578652e+00
  5.862243e+00    3.504561e+00
  5.878119e+00    3.519894e+00
  5.893994e+00    3.628992e+00
  5.909870e+00    3.544560e+00
  5.925745e+00    3.600227e+00
  5.941621e+00    3.596437e+00
  5.957497e+00    3.559338e+00
  5.973372e+00    3.547486e+00
  5.989248e+00    3.560283e+00
  6.005123e+00    3.538356e+00
  6.020999e+00    3.532323e+00
  6.036874e+00    3.645656e+00
  6.052750e+00    3.603561e+00
  6.068626e+00    3.589358e+00
  6.084501e+00    3.563495e+00
  6.100377e+00    3.561265e+00
  6.116252e+00    3.593476e+00
  6.132128e+00    3.627443e+00
  6.148003e+00    3.600706e+00
  6.163879e+00    3.570279e+00
  6.179755e+00    3.558702e+00
  6.195630e+00    3.512878e+00
  6.211506e+00    3.528134e+00
  6.227381e+00    3.625428e+00
  6.243257e+00    3.636940e+00
  6.259132e+00    3.589595e+00
  6.275008e+00    3.566215e+00
  6.290884e+00    3.513483e+00
  6.306759e+00    3.510085e+00
  6.322635e+00    3.574013e+00
  6.338510e+00    3.486511e+00
  6.354386e+00    3.511254e+00
  6.370261e+00    3.529557e+00
  6.386137e+00    3.547433e+00
  6.402013e+00    3.513929e+00
  6.417888e+00    3.498158e+00
  6.433764e+00    3.638654e+00
  6.449639e+00    3.685369e+00
  6.465515e+00    3.605227e+00
  6.481390e+00    3.584638e+00
  6.497266e+00    3.585536e+00
  6.513142e+00    3.638188e+00
  6.529017e+00    3.611362e+00
  6.544893e+00    3.517013e+00
  6.560768e+00    3.540285e+00
  6.576644e+00    3.544619e+00
  6.592519e+00    3.494796e+00
  6.608395e+00    3.538865e+00
  6.624271e+00    3.607961e+00
  6.640146e+00    3.630531e+00
  6.656022e+00    3.508138e+00
  6.671897e+00    3.505972e+00
  6.687773e+00    3.513933e+00
  6.703648e+00    3.565246e+00
  6.719524e+00    3.615492e+00
  6.735400e+00    3.591637e+00
  6.751275e+00    3.539614e+00
  6.767151e+00    3.542124e+00
  6.783026e+00    3.540082e+00
  6.798902e+00    3.525568e+00
  6.814777e+00    3.497795e+00
  6.830653e+00    3.561648e+00
  6.846529e+00    3.528349e+00
  6.862404e+00    3.562634e+00
  6.878280e+00    3.553715e+00
  6.894155e+00    3.488873e+00
  6.910031e+00    3.502948e+00
  6.925907e+00    3.482845e+00
  6.941782e+00    3.496372e+00
  6.957658e+00    3.603399e+00
  6.973533e+00    3.604145e+00
  6.989409e+00    3.604496e+00
  7.005284e+00    3.549378e+00
  7.021160e+00    3.560154e+00
  7.037036e+00    3.590251e+00
  7.052911e+00    3.488981e+00
  7.068787e+00    3.517370e+00
  7.084662e+00    3.501351e+00
  7.100538e+00    3.453103e+00
  7.116413e+00    3.487959e+00
  7.132289e+00    3.530330e+00
  7.148165e+00    3.543983e+00
  7.164040e+00    3.545011e+00
  7.179916e+00    3.482661e+00
  7.195791e+00    3.516990e+00
  7.211667e+00    3.480213e+00
  7.227542e+00    3.540776e+00
  7.243418e+00    3.553015e+00
  7.259294e+00    3.560123e+00
  7.275169e+00    3.541554e+00
  7.291045e+00    3.467174e+00
  7.306920e+00    3.507508e+00
  7.322796e+00    3.467753e+00
  7.338671e+00    3.505569e+00
  7.354547e+00    3.459336e+00
  7.370423e+00    3.504223e+00
  7.386298e+00    3.476876e+00
  7.402174e+00    3.454033e+00
  7.418049e+00    3.496285e+00
  7.433925e+00    3.444803e+00
  7.449800e+00    3.508845e+00
  7.465676e+00    3.513826e+00
  7.481552e+00    3.515056e+00
  7.497427e+00    3.524422e+00
  7.513303e+00    3.497699e+00
  7.529178e+00    3.429826e+00
  7.545054e+00    3.424643e+00
  7.560929e+00    3.504356e+00
  7.576805e+00    3.466498e+00
  7.592681e+00    3.509642e+00
  7.608556e+00    3.499072e+00
  7.624432e+00    3.435960e+00
  7.640307e+00    3.462491e+00
  7.656183e+00    3.500635e+00
  7.672058e+00    3.471373e+00
  7.687934e+00    3.429112e+00
  7.703810e+00    3.491951e+00
  7.719685e+00    3.484782e+00
  7.735561e+00    3.422118e+00
  7.751436e+00    3.436838e+00
  7.767312e+00    3.457098e+00
  7.783187e+00    3.460030e+00
  7.799063e+00    3.465881e+00
  7.814939e+00    3.467670e+00
  7.830814e+00    3.489519e+00
  7.846690e+00    3.490454e+00
  7.862565e+00    3.490787e+00
  7.878441e+00    3.523184e+00
  7.894317e+00    3.537431e+00
  7.910192e+00    3.464686e+00
  7.926068e+00    3.468159e+00
  7.941943e+00    3.499728e+00
  7.957819e+00    3.470268e+00
  7.973694e+00    3.390693e+00
  7.989570e+00    3.389482e+00
  8.005446e+00    3.386986e+00
  8.021321e+00    3.424351e+00
  8.037197e+00    3.476207e+00
  8.053072e+00    3.455022e+00
  8.068948e+00    3.415542e+00
  8.084823e+00    3.406377e+00
  8.100699e+00    3.501297e+00
  8.116575e+00    3.476126e+00
  8.132450e+00    3.480613e+00
  8.148326e+00    3.475647e+00
  8.164201e+00    3.456663e+00
  8.180077e+00    3.458977e+00
  8.195952e+00    3.459094e+00
  8.211828e+00    3.433215e+00
  8.227704e+00    3.515593e+00
  8.243579e+00    3.559102e+00
  8.259455e+00    3.447851e+00
  8.275330e+00    3.439976e+00
  8.291206e+00    3.442476e+00
  8.307081e+00    3.406069e+00
  8.322957e+00    3.434755e+00
  8.338833e+00    3.448490e+00
  8.354708e+00    3.411352e+00
  8.370584e+00    3.356893e+00
  8.386459e+00    3.326890e+00
  8.402335e+00    3.346095e+00
  8.418210e+00    3.380348e+00
  8.434086e+00    3.332050e+00
  8.449962e+00    3.359927e+00
  8.465837e+00    3.450769e+00
  8.481713e+00    3.412362e+00
  8.497588e+00    3.357303e+00
  8.513464e+00    3.413815e+00
  8.529339e+00    3.405483e+00
  8.545215e+00    3.370285e+00
  8.561091e+00    3.362122e+00
  8.576966e+00    3.367711e+00
  8.592842e+00    3.361173e+00
  8.608717e+00    3.281753e+00
  8.624593e+00    3.275082e+00
  8.640468e+00    3.348199e+00
  8.656344e+00    3.337137e+00
  8.672220e+00    3.292186e+00
  8.688095e+00    3.327084e+00
  8.703971e+00    3.386343e+00
  8.719846e+00    3.319790e+00
  8.735722e+00    3.303095e+00
  8.751598e+00    3.326946e+00
  8.767473e+00    3.326832e+00
  8.783349e+00    3.292682e+00
  8.799224e+00    3.326718e+00
  8.815100e+00    3.297756e+00
  8.830975e+00    3.315584e+00
  8.846851e+00    3.409239e+00
  8.862727e+00    3.385471e+00
  8.878602e+00    3.298269e+00
  8.894478e+00    3.305686e+00
  8.910353e+00    3.337159e+00
  8.926229e+00    3.289102e+00
  8.942104e+00    3.277020e+00
  8.957980e+00    3.352743e+00
  8.973856e+00    3.334491e+00
  8.989731e+00    3.266122e+00
  9.005607e+00    3.241991e+00
  9.021482e+00    3.273881e+00
  9.037358e+00    3.227643e+00
  9.053233e+00    3.245056e+00
  9.069109e+00    3.280822e+00
  9.084985e+00    3.302781e+00
  9.100860e+00    3.298894e+00
  9.116736e+00    3.284910e+00
  9.132611e+00    3.211426e+00
  9.148487e+00    3.249239e+00
  9.164362e+00    3.293206e+00
  9.180238e+00    3.288668e+00
  9.196114e+00    3.280491e+00
  9.211989e+00    3.295510e+00
  9.227865e+00    3.315107e+00
  9.243740e+00    3.230622e+00
  9.259616e+00    3.246624e+00
  9.275491e+00    3.254336e+00
  9.291367e+00    3.265451e+00
  9.307243e+00    3.235926e+00
  9.323118e+00    3.255426e+00
  9.338994e+00    3.250509e+00
  9.354869e+00    3.212373e+00
  9.370745e+00    3.213034e+00
  9.386620e+00    3.231344e+00
  9.402496e+00    3.252671e+00
  9.418372e+00    3.202043e+00
  9.434247e+00    3.244354e+00
  9.450123e+00    3.292732e+00
  9.465998e+00    3.278098e+00
  9.481874e+00    3.227218e+00
  9.497749e+00    3.165169e+00
  9.513625e+00    3.197086e+00
  9.529501e+00    3.236793e+00
  9.545376e+00    3.169088e+00
  9.561252e+00    3.198565e+00
  9.577127e+00    3.215168e+00
  9.593003e+00    3.204961e+00
  9.608878e+00    3.244465e+00
  9.624754e+00    3.222874e+00
  9.640630e+00    3.200440e+00
  9.656505e+00    3.228855e+00
  9.672381e+00    3.230961e+00
  9.688256e+00    3.173591e+00
  9.704132e+00    3.187305e+00
  9.720008e+00    3.202544e+00
  9.735883e+00    3.150786e+00
  9.751759e+00    3.151409e+00
  9.767634e+00    3.215223e+00
  9.783510e+00    3.249301e+00
  9.799385e+00    3.255564e+00
  9.815261e+00    3.193975e+00
  9.831137e+00    3.149004e+00
  9.847012e+00    3.185534e+00
  9.862888e+00    3.181138e+00
  9.878763e+00    3.139652e+00
  9.894639e+00    3.133744e+00
  9.910514e+00    3.117940e+00
  9.926390e+00    3.117132e+00
  9.942266e+00    3.129320e+00
  9.958141e+00    3.120631e+00
  9.974017e+00    3.139120e+00
  9.989892e+00    3.156193e+00
  1.000577e+01    3.139205e+00
  1.002164e+01    3.142483e+00
  1.003752e+01    3.140707e+00
  1.005339e+01    3.048865e+00
  1.006927e+01    3.059721e+00
  1.008515e+01    3.106186e+00
  1.010102e+01    3.156249e+00
  1.011690e+01    3.106645e+00
  1.013277e+01    3.093300e+00
  1.014865e+01    3.013606e+00
  1.016452e+01    3.047891e+00
  1.018040e+01    3.063833e+00
  1.019627e+01    3.066553e+00
  1.021215e+01    3.030258e+00
  1.022803e+01    3.024510e+00
  1.024390e+01    3.045527e+00
  1.025978e+01    3.034915e+00
  1.027565e+01    3.029837e+00
  1.029153e+01    3.023311e+00
  1.030740e+01    3.052585e+00
  1.032328e+01    3.063123e+00
  1.033915e+01    3.091865e+00
  1.035503e+01    3.094760e+00
  1.037091e+01    3.102962e+00
  1.038678e+01    3.115153e+00
  1.040266e+01    3.036780e+00
  1.041853e+01    3.016836e+00
  1.043441e+01    3.070854e+00
  1.045028e+01    3.004223e+00
  1.046616e+01    3.017623e+00
  1.048204e+01    3.019255e+00
  1.049791e+01    3.027810e+00
  1.051379e+01    3.043809e+00
  1.052966e+01    3.071898e+00
  1.054554e+01    2.972995e+00
  1.056141e+01    3.013374e+00
  1.057729e+01    3.034827e+00
  1.059316e+01    2.992560e+00
  1.060904e+01    3.001039e+00
  1.062492e+01    2.997538e+00
  1.064079e+01    3.054789e+00
  1.065667e+01    3.009288e+00
  1.067254e+01    2.987187e+00
  1.068842e+01    2.980765e+00
  1.070429e+01    2.943736e+00
  1.072017e+01    2.960971e+00
  1.073604e+01    2.990017e+00
  1.075192e+01    2.959875e+00
  1.076780e+01    2.935235e+00
  1.078367e+01    2.980604e+00
  1.079955e+01    2.939685e+00
  1.081542e+01    2.967708e+00
  1.083130e+01    2.974005e+00
  1.084717e+01    2.919619e+00
  1.086305e+01    2.946630e+00
  1.087892e+01    2.944567e+00
  1.089480e+01    2.972849e+00
  1.091068e+01    2.927727e+00
  1.092655e+01    2.931399e+00
  1.094243e+01    2.905724e+00
  1.095830e+01    2.905412e+00
  1.097418e+01    2.913538e+00
  1.099005e+01    2.915026e+00
  1.100593e+01    2.910370e+00
  1.102180e+01    2.892339e+00
  1.103768e+01    2.888648e+00
  1.105356e+01    2.939367e+00
  1.106943e+01    2.913683e+00
  1.108531e+01    2.848507e+00
  1.110118e+01    2.850123e+00
  1.111706e+01    2.852367e+00
  1.113293e+01    2.884409e+00
  1.114881e+01    2.843818e+00
  1.116468e+01    2.840681e+00
  1.118056e+01    2.841783e+00
  1.119644e+01    2.928441e+00
  1.121231e+01    2.873504e+00
  1.122819e+01    2.857413e+00
  1.124406e+01    2.885284e+00
  1.125994e+01    2.777272e+00
  1.127581e+01    2.852389e+00
  1.129169e+01    2.880760e+00
  1.130756e+01    2.847301e+00
  1.132344e+01    2.796495e+00
  1.133932e+01    2.857649e+00
  1.135519e+01    2.838786e+00
  1.137107e+01    2.886016e+00
  1.138694e+01    2.869915e+00
  1.140282e+01    2.815105e+00
  1.141869e+01    2.787472e+00
  1.143457e+01    2.759063e+00
  1.145045e+01    2.781178e+00
  1.146632e+01    2.783510e+00
  1.148220e+01    2.788821e+00
  1.149807e+01    2.784115e+00
  1.151395e+01    2.777197e+00
  1.152982e+01    2.799845e+00
  1.154570e+01    2.791435e+00
  1.156157e+01    2.803563e+00
  1.157745e+01    2.783420e+00
  1.159333e+01    2.774359e+00
  1.160920e+01    2.769544e+00
  1.162508e+01    2.795579e+00
  1.164095e+01    2.710640e+00
  1.165683e+01    2.769559e+00
  1.167270e+01    2.792704e+00
  1.168858e+01    2.842534e+00
  1.170445e+01    2.821360e+00
  1.172033e+01    2.739633e+00
  1.173621e+01    2.755877e+00
  1.175208e+01    2.734509e+00
  1.176796e+01    2.721952e+00
  1.178383e+01    2.765202e+00
  1.179971e+01    2.746094e+00
  1.181558e+01    2.762044e+00
  1.183146e+01    2.739666e+00
  1.184733e+01    2.721550e+00
  1.186321e+01    2.771003e+00
  1.187909e+01    2.759544e+00
  1.189496e+01    2.725290e+00
  1.191084e+01    2.743355e+00
  1.192671e+01    2.744845e+00
  1.194259e+01    2.700593e+00
  1.195846e+01    2.707566e+00
  1.197434e+01    2.738513e+00
  1.199021e+01    2.731197e+00
  1.200609e+01    2.731014e+00
  1.202197e+01    2.712125e+00
  1.203784e+01    2.717835e+00
  1.205372e+01    2.699376e+00
  1.206959e+01    2.693283e+00
  1.208547e+01    2.700823e+00
  1.210134e+01    2.711911e+00
  1.211722e+01    2.681726e+00
  1.213309e+01    2.701828e+00
  1.214897e+01    2.677486e+00
  1.216485e+01    2.653174e+00
  1.218072e+01    2.657573e+00
  1.219660e+01    2.647739e+00
  1.221247e+01    2.701447e+00
  1.222835e+01    2.769401e+00
  1.224422e+01    2.712312e+00
  1.226010e+01    2.703093e+00
  1.227597e+01    2.684684e+00
  1.229185e+01    2.671826e+00
  1.230773e+01    2.647563e+00
  1.232360e+01    2.688904e+00
  1.233948e+01    2.691369e+00
  1.235535e+01    2.677767e+00
  1.237123e+01    2.697287e+00
  1.238710e+01    2.663372e+00
  1.240298e+01    2.657022e+00
  1.241886e+01    2.670581e+00
  1.243473e+01    2.661284e+00
  1.245061e+01    2.698644e+00
  1.246648e+01    2.740824e+00
  1.248236e+01    2.751473e+00
  1.249823e+01    2.702339e+00
  1.251411e+01    2.709383e+00
  1.252998e+01    2.735368e+00
  1.254586e+01    2.722553e+00
  1.256174e+01    2.705122e+00
  1.257761e+01    2.701396e+00
  1.259349e+01    2.749028e+00
  1.260936e+01    2.733696e+00
  1.262524e+01    2.801271e+00
  1.264111e+01    2.776569e+00
  1.265699e+01    2.748515e+00
  1.267286e+01    2.716128e+00
  1.268874e+01    2.786505e+00
  1.270462e+01    2.835011e+00
  1.272049e+01    2.895533e+00
  1.273637e+01    2.929387e+00
  1.275224e+01    2.881721e+00
  1.276812e+01    2.928052e+00
  1.278399e+01    3.005228e+00
  1.279987e+01    3.017815e+00
  1.281574e+01    3.024366e+00
  1.283162e+01    3.159197e+00
  1.284750e+01    3.225555e+00
  1.286337e+01    3.301439e+00
  1.287925e+01    3.374409e+00
  1.289512e+01    3.506287e+00
  1.291100e+01    3.607033e+00
  1.292687e+01    3.817157e+00
  1.294275e+01    4.074123e+00
  1.295862e+01    4.439081e+00
  1.297450e+01    4.814481e+00
  1.299038e+01    5.300375e+00
  1.300625e+01    5.975751e+00
  1.302213e+01    6.800883e+00
  1.303800e+01    7.736925e+00
  1.305388e+01    8.847164e+00
  1.306975e+01    1.017637e+01
  1.308563e+01    1.146459e+01
  1.310150e+01    1.267262e+01
  1.311738e+01    1.383396e+01
  1.313326e+01    1.486614e+01
  1.314913e+01    1.567614e+01
  1.316501e+01    1.634160e+01
  1.318088e+01    1.644037e+01
  1.319676e+01    1.571365e+01
  1.321263e+01    1.431944e+01
  1.322851e+01    1.249330e+01
  1.324438e+01    1.081013e+01
  1.326026e+01    9.125859e+00
  1.327614e+01    7.787853e+00
  1.329201e+01    6.843762e+00
  1.330789e+01    6.000656e+00
  1.332376e+01    5.301983e+00
  1.333964e+01    4.816159e+00
  1.335551e+01    4.430422e+00
  1.337139e+01    4.147738e+00
  1.338727e+01    3.929869e+00
  1.340314e+01    3.701072e+00
  1.341902e+01    3.529992e+00
  1.343489e+01    3.340690e+00
  1.345077e+01    3.155005e+00
  1.346664e+01    3.107264e+00
  1.348252e+01    3.071640e+00
  1.349839e+01    3.023195e+00
  1.351427e+01    2.915438e+00
  1.353015e+01    2.853659e+00
  1.354602e+01    2.847415e+00
  1.356190e+01    2.798577e+00
  1.357777e+01    2.715393e+00
  1.359365e+01    2.689194e+00
  1.360952e+01    2.684196e+00
  1.362540e+01    2.676764e+00
  1.364127e+01    2.667703e+00
  1.365715e+01    2.613766e+00
  1.367303e+01    2.581489e+00
  1.368890e+01    2.554173e+00
  1.370478e+01    2.574407e+00
  1.372065e+01    2.568287e+00
  1.373653e+01    2.541276e+00
  1.375240e+01    2.527643e+00
  1.376828e+01    2.547326e+00
  1.378415e+01    2.545594e+00
  1.380003e+01    2.507728e+00
  1.381591e+01    2.467944e+00
  1.383178e+01    2.433555e+00
  1.384766e+01    2.399941e+00
  1.386353e+01    2.461800e+00
  1.387941e+01    2.411137e+00
  1.389528e+01    2.388165e+00
  1.391116e+01    2.376413e+00
  1.392703e+01    2.400989e+00
  1.394291e+01    2.420818e+00
  1.395879e+01    2.430893e+00
  1.397466e+01    2.406676e+00
  1.399054e+01    2.359511e+00
  1.400641e+01    2.354543e+00
  1.402229e+01    2.364982e+00
  1.403816e+01    2.341192e+00
  1.405404e+01    2.364825e+00
  1.406991e+01    2.382379e+00
  1.408579e+01    2.327156e+00
  1.410167e+01    2.315437e+00
  1.411754e+01    2.307462e+00
  1.413342e+01    2.318893e+00
  1.414929e+01    2.344549e+00
  1.416517e+01    2.318718e+00
  1.418104e+01    2.312867e+00
  1.419692e+01    2.326441e+00
  1.421279e+01    2.316045e+00
  1.422867e+01    2.279921e+00
  1.424455e+01    2.285372e+00
  1.426042e+01    2.283446e+00
  1.427630e+01    2.269610e+00
  1.429217e+01    2.230470e+00
  1.430805e+01    2.280539e+00
  1.432392e+01    2.271062e+00
  1.433980e+01    2.274135e+00
  1.435568e+01    2.290837e+00
  1.437155e+01    2.245300e+00
  1.438743e+01    2.250180e+00
  1.440330e+01    2.277272e+00
  1.441918e+01    2.247961e+00
  1.443505e+01    2.240494e+00
  1.445093e+01    2.232266e+00
  1.446680e+01    2.206867e+00
  1.448268e+01    2.199059e+00
  1.449856e+01    2.233543e+00
  1.451443e+01    2.229918e+00
  1.453031e+01    2.264978e+00
  1.454618e+01    2.237946e+00
  1.456206e+01    2.220783e+00
  1.457793e+01    2.184123e+00
  1.459381e+01    2.204046e+00
  1.460968e+01    2.205302e+00
  1.462556e+01    2.196540e+00
  1.464144e+01    2.207955e+00
  1.465731e+01    2.197611e+00
  1.467319e+01    2.212826e+00
  1.468906e+01    2.196009e+00
  1.470494e+01    2.204731e+00
  1.472081e+01    2.169951e+00
  1.473669e+01    2.192791e+00
  1.475256e+01    2.199757e+00
  1.476844e+01    2.169578e+00
  1.478432e+01    2.182753e+00
  1.480019e+01    2.193225e+00
  1.481607e+01    2.189097e+00
  1.483194e+01    2.209919e+00
  1.484782e+01    2.194473e+00
  1.486369e+01    2.177083e+00
  1.487957e+01    2.233739e+00
  1.489544e+01    2.254993e+00
  1.491132e+01    2.263383e+00
  1.492720e+01    2.312304e+00
  1.494307e+01    2.264975e+00
  1.495895e+01    2.321063e+00
  1.497482e+01    2.393179e+00
  1.499070e+01    2.451305e+00
  1.500657e+01    2.428798e+00
  1.502245e+01    2.464472e+00
  1.503832e+01    2.579275e+00
  1.505420e+01    2.710083e+00
  1.507008e+01    2.833917e+00
  1.508595e+01    2.960513e+00
  1.510183e+01    3.151000e+00
  1.511770e+01    3.439544e+00
  1.513358e+01    3.777368e+00
  1.514945e+01    4.144406e+00
  1.516533e+01    4.537415e+00
  1.518120e+01    4.944601e+00
  1.519708e+01    5.194372e+00
  1.521296e+01    5.439306e+00
  1.522883e+01    5.675618e+00
  1.524471e+01    5.793614e+00
  1.526058e+01    5.833158e+00
  1.527646e+01    5.728780e+00
  1.529233e+01    5.393455e+00
  1.530821e+01    5.086093e+00
  1.532409e+01    4.650314e+00
  1.533996e+01    4.153207e+00
  1.535584e+01    3.710446e+00
  1.537171e+01    3.381526e+00
  1.538759e+01    3.166923e+00
  1.540346e+01    2.973965e+00
  1.541934e+01    2.774181e+00
  1.543521e+01    2.619452e+00
  1.545109e+01    2.496953e+00
  1.546697e+01    2.400747e+00
  1.548284e+01    2.341954e+00
  1.549872e+01    2.254417e+00
  1.551459e+01    2.234778e+00
  1.553047e+01    2.246787e+00
  1.554634e+01    2.185721e+00
  1.556222e+01    2.182358e+00
  1.557809e+01    2.095012e+00
  1.559397e+01    2.096244e+00
  1.560985e+01    2.085987e+00
  1.562572e+01    2.080436e+00
  1.564160e+01    2.060817e+00
  1.565747e+01    2.083905e+00
  1.567335e+01    2.000756e+00
  1.568922e+01    1.987454e+00
  1.570510e+01    1.999580e+00
  1.572097e+01    1.968726e+00
  1.573685e+01    1.961788e+00
  1.575273e+01    1.956446e+00
  1.576860e+01    1.955906e+00
  1.578448e+01    1.928532e+00
  1.580035e+01    1.930110e+00
  1.581623e+01    1.937870e+00
  1.583210e+01    1.917219e+00
  1.584798e+01    1.879243e+00
  1.586385e+01    1.905301e+00
  1.587973e+01    1.930792e+00
  1.589561e+01    1.943938e+00
  1.591148e+01    1.918500e+00
  1.592736e+01    1.899056e+00
  1.594323e+01    1.888743e+00
  1.595911e+01    1.875160e+00
  1.597498e+01    1.895584e+00
  1.599086e+01    1.886373e+00
  1.600673e+01    1.852287e+00
  1.602261e+01    1.877617e+00
  1.603849e+01    1.872424e+00
  1.605436e+01    1.888896e+00
  1.607024e+01    1.879143e+00
  1.608611e+01    1.859066e+00
  1.610199e+01    1.822995e+00
  1.611786e+01    1.830206e+00
  1.613374e+01    1.871024e+00
  1.614961e+01    1.853807e+00
  1.616549e+01    1.797345e+00
  1.618137e+01    1.806292e+00
  1.619724e+01    1.779690e+00
  1.621312e+01    1.789366e+00
  1.622899e+01    1.820259e+00
  1.624487e+01    1.789976e+00
  1.626074e+01    1.812303e+00
  1.627662e+01    1.849820e+00
  1.629250e+01    1.846233e+00
  1.630837e+01    1.829513e+00
  1.632425e+01    1.793650e+00
  1.634012e+01    1.778298e+00
  1.635600e+01    1.787453e+00
  1.637187e+01    1.794377e+00
  1.638775e+01    1.808522e+00
  1.640362e+01    1.787983e+00
  1.641950e+01    1.741830e+00
  1.643538e+01    1.771108e+00
  1.645125e+01    1.773528e+00
  1.646713e+01    1.778543e+00
  1.648300e+01    1.799165e+00
  1.649888e+01    1.820197e+00
  1.651475e+01    1.765524e+00
  1.653063e+01    1.754390e+00
  1.654650e+01    1.739796e+00
  1.656238e+01    1.722962e+00
  1.657826e+01    1.749592e+00
  1.659413e+01    1.746418e+00
  1.661001e+01    1.729185e+00
  1.662588e+01    1.722076e+00
  1.664176e+01    1.753052e+00
  1.665763e+01    1.748337e+00
  1.667351e+01    1.733155e+00
  1.668938e+01    1.713647e+00
  1.670526e+01    1.699748e+00
  1.672114e+01    1.690486e+00
  1.673701e+01    1.704087e+00
  1.675289e+01    1.698503e+00
  1.676876e+01    1.695472e+00
  1.678464e+01    1.703498e+00
  1.680051e+01    1.716642e+00
  1.681639e+01    1.700894e+00
  1.683226e+01    1.705308e+00
  1.684814e+01    1.680667e+00
  1.686402e+01    1.692004e+00
  1.687989e+01    1.695247e+00
  1.689577e+01    1.694759e+00
  1.691164e+01    1.716863e+00
  1.692752e+01    1.721801e+00
  1.694339e+01    1.670624e+00
  1.695927e+01    1.673994e+00
  1.697514e+01    1.692814e+00
  1.699102e+01    1.677336e+00
  1.700690e+01    1.656093e+00
  1.702277e+01    1.660429e+00
  1.703865e+01    1.648479e+00
  1.705452e+01    1.662581e+00
  1.707040e+01    1.643255e+00
  1.708627e+01    1.623575e+00
  1.710215e+01    1.640877e+00
  1.711802e+01    1.661961e+00
  1.713390e+01    1.677847e+00
  1.714978e+01    1.681333e+00
  1.716565e+01    1.640911e+00
  1.718153e+01    1.658175e+00
  1.719740e+01    1.651428e+00
  1.721328e+01    1.637351e+00
  1.722915e+01    1.656294e+00
  1.724503e+01    1.628094e+00
  1.726091e+01    1.605929e+00
  1.727678e+01    1.615618e+00
  1.729266e+01    1.627831e+00
  1.730853e+01    1.593681e+00
  1.732441e+01    1.610706e+00
  1.734028e+01    1.631109e+00
  1.735616e+01    1.612042e+00
  1.737203e+01    1.603288e+00
  1.738791e+01    1.594780e+00
  1.740379e+01    1.611766e+00
  1.741966e+01    1.596044e+00
  1.743554e+01    1.608880e+00
  1.745141e+01    1.590933e+00
  1.746729e+01    1.581892e+00
  1.748316e+01    1.573505e+00
  1.749904e+01    1.581503e+00
  1.751491e+01    1.603308e+00
  1.753079e+01    1.605965e+00
  1.754667e+01    1.604881e+00
  1.756254e+01    1.549967e+00
  1.757842e+01    1.545775e+00
  1.759429e+01    1.581653e+00
  1.761017e+01    1.537105e+00
  1.762604e+01    1.548014e+00
  1.764192e+01    1.570737e+00
  1.765779e+01    1.566176e+00
  1.767367e+01    1.537255e+00
  1.768955e+01    1.550873e+00
  1.770542e+01    1.536796e+00
  1.772130e+01    1.536005e+00
  1.773717e+01    1.516340e+00
  1.775305e+01    1.520091e+00
  1.776892e+01    1.535408e+00
  1.778480e+01    1.528856e+00
  1.780067e+01    1.538966e+00
  1.781655e+01    1.539654e+00
  1.783243e+01    1.532930e+00
  1.784830e+01    1.529145e+00
  1.786418e+01    1.542466e+00
  1.788005e+01    1.512148e+00
  1.789593e+01    1.518526e+00
  1.791180e+01    1.533155e+00
  1.792768e+01    1.509935e+00
  1.794355e+01    1.503744e+00
  1.795943e+01    1.533243e+00
  1.797531e+01    1.529515e+00
  1.799118e+01    1.546100e+00
  1.800706e+01    1.528084e+00
  1.802293e+01    1.498538e+00
  1.803881e+01    1.491968e+00
  1.805468e+01    1.496684e+00
  1.807056e+01    1.505196e+00
  1.808643e+01    1.519451e+00
  1.810231e+01    1.503986e+00
  1.811819e+01    1.491549e+00
  1.813406e+01    1.499607e+00
  1.814994e+01    1.496066e+00
  1.816581e+01    1.495195e+00
  1.818169e+01    1.470814e+00
  1.819756e+01    1.483101e+00
  1.821344e+01    1.498290e+00
  1.822932e+01    1.492642e+00
  1.824519e+01    1.478109e+00
  1.826107e+01    1.463716e+00
  1.827694e+01    1.494167e+00
  1.829282e+01    1.507967e+00
  1.830869e+01    1.478595e+00
  1.832457e+01    1.519064e+00
  1.834044e+01    1.501772e+00
  1.835632e+01    1.497695e+00
  1.837220e+01    1.488852e+00
  1.838807e+01    1.474314e+00
  1.840395e+01    1.458579e+00
  1.841982e+01    1.431089e+00
  1.843570e+01    1.461023e+00
  1.845157e+01    1.461427e+00
  1.846745e+01    1.461323e+00
  1.848332e+01    1.441672e+00
  1.849920e+01    1.454734e+00
  1.851508e+01    1.449279e+00
  1.853095e+01    1.461206e+00
  1.854683e+01    1.457739e+00
  1.856270e+01    1.454393e+00
  1.857858e+01    1.458094e+00
  1.859445e+01    1.441778e+00
  1.861033e+01    1.425521e+00
  1.862620e+01    1.428618e+00
  1.864208e+01    1.420390e+00
  1.865796e+01    1.432473e+00
  1.867383e+01    1.447490e+00
  1.868971e+01    1.430785e+00
  1.870558e+01    1.423933e+00
  1.872146e+01    1.438174e+00
  1.873733e+01    1.441208e+00
  1.875321e+01    1.442820e+00
  1.876908e+01    1.420089e+00
  1.878496e+01    1.422958e+00
  1.880084e+01    1.407560e+00
  1.881671e+01    1.416844e+00
  1.883259e+01    1.408147e+00
  1.884846e+01    1.385643e+00
  1.886434e+01    1.416414e+00
  1.888021e+01    1.392962e+00
  1.889609e+01    1.392981e+00
  1.891196e+01    1.357758e+00
  1.892784e+01    1.365154e+00
  1.894372e+01    1.389783e+00
  1.895959e+01    1.397317e+00
  1.897547e+01    1.386216e+00
  1.899134e+01    1.387099e+00
  1.900722e+01    1.356039e+00
  1.902309e+01    1.402355e+00
  1.903897e+01    1.397349e+00
  1.905484e+01    1.413585e+00
  1.907072e+01    1.385994e+00
  1.908660e+01    1.386617e+00
  1.910247e+01    1.397638e+00
  1.911835e+01    1.364587e+00
  1.913422e+01    1.341754e+00
  1.915010e+01    1.352319e+00
  1.916597e+01    1.357403e+00
  1.918185e+01    1.376577e+00
  1.919773e+01    1.348498e+00
  1.921360e+01    1.367198e+00
  1.922948e+01    1.378379e+00
  1.924535e+01    1.398535e+00
  1.926123e+01    1.377115e+00
  1.927710e+01    1.370042e+00
  1.929298e+01    1.371751e+00
  1.930885e+01    1.366318e+00
  1.932473e+01    1.357530e+00
  1.934061e+01    1.347896e+00
  1.935648e+01    1.306206e+00
  1.937236e+01    1.335426e+00
  1.938823e+01    1.336721e+00
  1.940411e+01    1.346393e+00
  1.941998e+01    1.326061e+00
  1.943586e+01    1.328731e+00
  1.945173e+01    1.355404e+00
  1.946761e+01    1.357817e+00
  1.948349e+01    1.342195e+00
  1.949936e+01    1.312853e+00
  1.951524e+01    1.321069e+00
  1.953111e+01    1.298258e+00
  1.954699e+01    1.325145e+00
  1.956286e+01    1.329778e+00
  1.957874e+01    1.332555e+00
  1.959461e+01    1.330505e+00
  1.961049e+01    1.341865e+00
  1.962637e+01    1.344583e+00
  1.964224e+01    1.331607e+00
  1.965812e+01    1.319010e+00
  1.967399e+01    1.325173e+00
  1.968987e+01    1.330172e+00
  1.970574e+01    1.328988e+00
  1.972162e+01    1.334729e+00
  1.973749e+01    1.318980e+00
  1.975337e+01    1.285177e+00
  1.976925e+01    1.309952e+00
  1.978512e+01    1.314797e+00
  1.980100e+01    1.312902e+00
  1.981687e+01    1.306690e+00
  1.983275e+01    1.295636e+00
  1.984862e+01    1.303219e+00
  1.986450e+01    1.318785e+00
  1.988037e+01    1.316184e+00
  1.989625e+01    1.302751e+00
  1.991213e+01    1.293686e+00
  1.992800e+01    1.332696e+00
  1.994388e+01    1.280188e+00
  1.995975e+01    1.264052e+00
  1.997563e+01    1.288157e+00
  1.999150e+01    1.324587e+00
  2.000738e+01    1.299043e+00
  2.002325e+01    1.278667e+00
  2.003913e+01    1.269807e+00
  2.005501e+01    1.274324e+00
  2.007088e+01    1.319396e+00
  2.008676e+01    1.308025e+00
  2.010263e+01    1.284212e+00
  2.011851e+01    1.263213e+00
  2.013438e+01    1.283468e+00
  2.015026e+01    1.279627e+00
  2.016614e+01    1.267236e+00
  2.018201e+01    1.270088e+00
  2.019789e+01    1.247509e+00
  2.021376e+01    1.237262e+00
  2.022964e+01    1.265216e+00
  2.024551e+01    1.254704e+00
  2.026139e+01    1.270725e+00
  2.027726e+01    1.264957e+00
  2.029314e+01    1.291139e+00
  2.030902e+01    1.281244e+00
  2.032489e+01    1.257282e+00
  2.034077e+01    1.227957e+00
  2.035664e+01    1.241172e+00
  2.037252e+01    1.238536e+00
  2.038839e+01    1.254040e+00
  2.040427e+01    1.246348e+00
  2.042014e+01    1.240355e+00
  2.043602e+01    1.244599e+00
  2.045190e+01    1.257087e+00
  2.046777e+01    1.264677e+00
  2.048365e+01    1.207834e+00
  2.049952e+01    1.196769e+00
  2.051540e+01    1.244684e+00
  2.053127e+01    1.240535e+00
  2.054715e+01    1.257239e+00
  2.056302e+01    1.265754e+00
  2.057890e+01    1.230052e+00
  2.059478e+01    1.235772e+00
  2.061065e+01    1.236512e+00
  2.062653e+01    1.242108e+00
  2.064240e+01    1.205839e+00
  2.065828e+01    1.244464e+00
  2.067415e+01    1.213447e+00
  2.069003e+01    1.239931e+00
  2.070590e+01    1.248850e+00
  2.072178e+01    1.226131e+00
  2.073766e+01    1.212211e+00
  2.075353e+01    1.223137e+00
  2.076941e+01    1.261534e+00
  2.078528e+01    1.243009e+00
  2.080116e+01    1.247191e+00
  2.081703e+01    1.233444e+00
  2.083291e+01    1.223197e+00
  2.084878e+01    1.229382e+00
  2.086466e+01    1.242043e+00
  2.088054e+01    1.213203e+00
  2.089641e+01    1.230302e+00
  2.091229e+01    1.233318e+00
  2.092816e+01    1.230624e+00
  2.094404e+01    1.237233e+00
  2.095991e+01    1.226346e+00
  2.097579e+01    1.222672e+00
  2.099166e+01    1.213883e+00
  2.100754e+01    1.219943e+00
  2.102342e+01    1.247963e+00
  2.103929e+01    1.219753e+00
  2.105517e+01    1.198116e+00
  2.107104e+01    1.216377e+00
  2.108692e+01    1.220343e+00
  2.110279e+01    1.205361e+00
  2.111867e+01    1.232384e+00
  2.113455e+01    1.245362e+00
  2.115042e+01    1.222247e+00
  2.116630e+01    1.221701e+00
  2.118217e+01    1.226983e+00
  2.119805e+01    1.240946e+00
  2.121392e+01    1.234344e+00
  2.122980e+01    1.240302e+00
  2.124567e+01    1.228820e+00
  2.126155e+01    1.229362e+00
  2.127743e+01    1.249487e+00
  2.129330e+01    1.274579e+00
  2.130918e+01    1.272135e+00
  2.132505e+01    1.254977e+00
  2.134093e+01    1.262610e+00
  2.135680e+01    1.276464e+00
  2.137268e+01    1.318234e+00
  2.138855e+01    1.339895e+00
  2.140443e+01    1.303045e+00
  2.142031e+01    1.318020e+00
  2.143618e+01    1.333246e+00
  2.145206e+01    1.349339e+00
  2.146793e+01    1.346920e+00
  2.148381e+01    1.395008e+00
  2.149968e+01    1.436801e+00
  2.151556e+01    1.461897e+00
  2.153143e+01    1.479085e+00
  2.154731e+01    1.529878e+00
  2.156319e+01    1.554196e+00
  2.157906e+01    1.600588e+00
  2.159494e+01    1.669758e+00
  2.161081e+01    1.756273e+00
  2.162669e+01    1.836260e+00
  2.164256e+01    1.968514e+00
  2.165844e+01    2.119446e+00
  2.167431e+01    2.321835e+00
  2.169019e+01    2.545512e+00
  2.170607e+01    2.786604e+00
  2.172194e+01    3.160055e+00
  2.173782e+01    3.533454e+00
  2.175369e+01    3.987011e+00
  2.176957e+01    4.572682e+00
  2.178544e+01    5.263057e+00
  2.180132e+01    5.939625e+00
  2.181719e+01    6.574910e+00
  2.183307e+01    7.294974e+00
  2.184895e+01    7.906705e+00
  2.186482e+01    8.467390e+00
  2.188070e+01    8.840213e+00
  2.189657e+01    8.896753e+00
  2.191245e+01    8.709505e+00
  2.192832e+01    8.308302e+00
  2.194420e+01    7.481522e+00
  2.196007e+01    6.582693e+00
  2.197595e+01    5.655963e+00
  2.199183e+01    4.827455e+00
  2.200770e+01    4.127631e+00
  2.202358e+01    3.581840e+00
  2.203945e+01    3.144921e+00
  2.205533e+01    2.812334e+00
  2.207120e+01    2.563504e+00
  2.208708e+01    2.356517e+00
  2.210296e+01    2.184613e+00
  2.211883e+01    2.014348e+00
  2.213471e+01    1.888360e+00
  2.215058e+01    1.783393e+00
  2.216646e+01    1.680478e+00
  2.218233e+01    1.610898e+00
  2.219821e+01    1.541414e+00
  2.221408e+01    1.492797e+00
  2.222996e+01    1.413731e+00
  2.224584e+01    1.386897e+00
  2.226171e+01    1.346393e+00
  2.227759e+01    1.345614e+00
  2.229346e+01    1.324544e+00
  2.230934e+01    1.314257e+00
  2.232521e+01    1.296920e+00
  2.234109e+01    1.272650e+00
  2.235696e+01    1.254166e+00
  2.237284e+01    1.212544e+00
  2.238872e+01    1.188563e+00
  2.240459e+01    1.190471e+00
  2.242047e+01    1.187606e+00
  2.243634e+01    1.183305e+00
  2.245222e+01    1.176413e+00
  2.246809e+01    1.157810e+00
  2.248397e+01    1.136255e+00
  2.249984e+01    1.161994e+00
  2.251572e+01    1.164247e+00
  2.253160e+01    1.162104e+00
  2.254747e+01    1.133968e+00
  2.256335e+01    1.142215e+00
  2.257922e+01    1.131087e+00
  2.259510e+01    1.086570e+00
  2.261097e+01    1.092603e+00
  2.262685e+01    1.072647e+00
  2.264272e+01    1.076971e+00
  2.265860e+01    1.109801e+00
  2.267448e+01    1.095290e+00
  2.269035e+01    1.088466e+00
  2.270623e+01    1.073610e+00
  2.272210e+01    1.081095e+00
  2.273798e+01    1.065754e+00
  2.275385e+01    1.060085e+00
  2.276973e+01    1.073629e+00
  2.278560e+01    1.062007e+00
  2.280148e+01    1.067397e+00
  2.281736e+01    1.075680e+00
  2.283323e+01    1.037031e+00
  2.284911e+01    1.047130e+00
  2.286498e+01    1.064723e+00
  2.288086e+01    1.045448e+00
  2.289673e+01    1.028110e+00
  2.291261e+01    1.019948e+00
  2.292848e+01    1.038344e+00
  2.294436e+01    1.027786e+00
  2.296024e+01    1.037622e+00
  2.297611e+01    1.008096e+00
  2.299199e+01    1.016583e+00
  2.300786e+01    1.006036e+00
  2.302374e+01    1.005620e+00
  2.303961e+01    1.013803e+00
  2.305549e+01    1.013764e+00
  2.307137e+01    1.022685e+00
  2.308724e+01    9.967098e-01
  2.310312e+01    1.005348e+00
  2.311899e+01    1.014572e+00
  2.313487e+01    1.001166e+00
  2.315074e+01    9.849837e-01
  2.316662e+01    9.741406e-01
  2.318249e+01    1.002359e+00
  2.319837e+01    1.005949e+00
  2.321425e+01    9.979212e-01
  2.323012e+01    1.019921e+00
  2.324600e+01    1.017463e+00
  2.326187e+01    9.963600e-01
  2.327775e+01    9.957839e-01
  2.329362e+01    9.834958e-01
  2.330950e+01    9.716476e-01
  2.332537e+01    9.818341e-01
  2.334125e+01    9.883878e-01
  2.335713e+01    9.880319e-01
  2.337300e+01    9.690877e-01
  2.338888e+01    9.666063e-01
  2.340475e+01    9.857245e-01
  2.342063e+01    9.702180e-01
  2.343650e+01    9.751124e-01
  2.345238e+01    9.672549e-01
  2.346825e+01    9.513128e-01
  2.348413e+01    9.456398e-01
  2.350001e+01    9.605856e-01
  2.351588e+01    9.577352e-01
  2.353176e+01    9.572461e-01
  2.354763e+01    9.484709e-01
  2.356351e+01    9.626181e-01
  2.357938e+01    9.742165e-01
  2.359526e+01    9.626329e-01
  2.361113e+01    9.634358e-01
  2.362701e+01    9.733586e-01
  2.364289e+01    9.534760e-01
  2.365876e+01    9.394705e-01
  2.367464e+01    9.283180e-01
  2.369051e+01    9.547275e-01
  2.370639e+01    9.544615e-01
  2.372226e+01    9.532965e-01
  2.373814e+01    9.429015e-01
  2.375401e+01    9.293872e-01
  2.376989e+01    9.314063e-01
  2.378577e+01    9.246036e-01
  2.380164e+01    9.110820e-01
  2.381752e+01    9.132112e-01
  2.383339e+01    9.269449e-01
  2.384927e+01    9.209570e-01
  2.386514e+01    9.208699e-01
  2.388102e+01    9.317375e-01
  2.389689e+01    9.112724e-01
  2.391277e+01    8.804094e-01
  2.392865e+01    9.134154e-01
  2.394452e+01    9.113248e-01
  2.396040e+01    9.023329e-01
  2.397627e+01    9.065437e-01
  2.399215e+01    8.972762e-01
  2.400802e+01    8.902209e-01
  2.402390e+01    8.796937e-01
  2.403978e+01    9.010808e-01
  2.405565e+01    8.929514e-01
  2.407153e+01    8.848270e-01
  2.408740e+01    8.989367e-01
  2.410328e+01    9.103487e-01
  2.411915e+01    9.000261e-01
  2.413503e+01    8.968407e-01
  2.415090e+01    8.973621e-01
  2.416678e+01    8.640848e-01
  2.418266e+01    8.677580e-01
  2.419853e+01    8.871023e-01
  2.421441e+01    8.771018e-01
  2.423028e+01    8.663635e-01
  2.424616e+01    8.988191e-01
  2.426203e+01    9.154323e-01
  2.427791e+01    9.060077e-01
  2.429378e+01    8.849461e-01
  2.430966e+01    8.789396e-01
  2.432554e+01    8.946261e-01
  2.434141e+01    9.030274e-01
  2.435729e+01    9.080302e-01
  2.437316e+01    9.089087e-01
  2.438904e+01    8.931350e-01
  2.440491e+01    9.053034e-01
  2.442079e+01    9.044051e-01
  2.443666e+01    9.063638e-01
  2.445254e+01    9.064573e-01
  2.446842e+01    9.045286e-01
  2.448429e+01    8.914598e-01
  2.450017e+01    8.800572e-01
  2.451604e+01    8.912612e-01
  2.453192e+01    9.011466e-01
  2.454779e+01    8.863732e-01
  2.456367e+01    8.956522e-01
  2.457954e+01    8.993555e-01
  2.459542e+01    9.112205e-01
  2.461130e+01    8.816672e-01
  2.462717e+01    8.924412e-01
  2.464305e+01    9.021956e-01
  2.465892e+01    9.010283e-01
  2.467480e+01    8.866861e-01
  2.469067e+01    8.889440e-01
  2.470655e+01    9.124169e-01
  2.472242e+01    9.040062e-01
  2.473830e+01    9.099713e-01
  2.475418e+01    8.926395e-01
  2.477005e+01    8.832451e-01
  2.478593e+01    8.925583e-01
  2.480180e+01    9.039086e-01
  2.481768e+01    9.019446e-01
  2.483355e+01    8.833358e-01
  2.484943e+01    8.812596e-01
  2.486530e+01    8.940750e-01
  2.488118e+01    9.100477e-01
  2.489706e+01    8.966187e-01
  2.491293e+01    9.032884e-01
  2.492881e+01    8.980752e-01
  2.494468e+01    9.053053e-01
  2.496056e+01    9.193254e-01
  2.497643e+01    8.986017e-01
  2.499231e+01    8.889736e-01
  2.500819e+01    8.799891e-01
  2.502406e+01    8.800112e-01
  2.503994e+01    9.132882e-01
  2.505581e+01    9.042927e-01
  2.507169e+01    9.084474e-01
  2.508756e+01    8.905676e-01
  2.510344e+01    9.084651e-01
  2.511931e+01    9.104830e-01
  2.513519e+01    9.114805e-01
  2.515107e+01    9.006007e-01
  2.516694e+01    9.213946e-01
  2.518282e+01    9.158034e-01
  2.519869e+01    9.263574e-01
  2.521457e+01    9.269357e-01
  2.523044e+01    9.382675e-01
  2.524632e+01    9.359754e-01
  2.526219e+01    9.492382e-01
  2.527807e+01    9.319569e-01
  2.529395e+01    9.492971e-01
  2.530982e+01    9.636389e-01
  2.532570e+01    9.468082e-01
  2.534157e+01    9.628898e-01
  2.535745e+01    9.728112e-01
  2.537332e+01    9.830027e-01
  2.538920e+01    9.872684e-01
  2.540507e+01    1.002489e+00
  2.542095e+01    9.999645e-01
  2.543683e+01    1.013339e+00
  2.545270e+01    1.035718e+00
  2.546858e+01    1.036819e+00
  2.548445e+01    1.047754e+00
  2.550033e+01    1.073875e+00
  2.551620e+01    1.067640e+00
  2.553208e+01    1.083749e+00
  2.554795e+01    1.115849e+00
  2.556383e+01    1.137119e+00
  2.557971e+01    1.167155e+00
  2.559558e+01    1.190345e+00
  2.561146e+01    1.212788e+00
  2.562733e+01    1.277822e+00
  2.564321e+01    1.283064e+00
  2.565908e+01    1.328430e+00
  2.567496e+01    1.414398e+00
  2.569083e+01    1.500926e+00
  2.570671e+01    1.603110e+00
  2.572259e+01    1.736635e+00
  2.573846e+01    1.864091e+00
  2.575434e+01    2.032999e+00
  2.577021e+01    2.266216e+00
  2.578609e+01    2.526488e+00
  2.580196e+01    2.839753e+00
  2.581784e+01    3.225320e+00
  2.583371e+01    3.651608e+00
  2.584959e+01    4.152908e+00
  2.586547e+01    4.710434e+00
  2.588134e+01    5.318220e+00
  2.589722e+01    5.815628e+00
  2.591309e+01    6.387406e+00
  2.592897e+01    6.839856e+00
  2.594484e+01    7.049866e+00
  2.596072e+01    7.141463e+00
  2.597660e+01    6.965765e+00
  2.599247e+01    6.491680e+00
  2.600835e+01    5.906934e+00
  2.602422e+01    5.224104e+00
  2.604010e+01    4.543220e+00
  2.605597e+01    3.928728e+00
  2.607185e+01    3.417760e+00
  2.608772e+01    2.988301e+00
  2.610360e+01    2.650192e+00
  2.611948e+01    2.342572e+00
  2.613535e+01    2.146323e+00
  2.615123e+01    1.947792e+00
  2.616710e+01    1.781129e+00
  2.618298e+01    1.679087e+00
  2.619885e+01    1.565336e+00
  2.621473e+01    1.463397e+00
  2.623060e+01    1.396624e+00
  2.624648e+01    1.338051e+00
  2.626236e+01    1.283539e+00
  2.627823e+01    1.269003e+00
  2.629411e+01    1.204178e+00
  2.630998e+01    1.180657e+00
  2.632586e+01    1.157945e+00
  2.634173e+01    1.126857e+00
  2.635761e+01    1.103914e+00
  2.637348e+01    1.078743e+00
  2.638936e+01    1.074557e+00
  2.640524e+01    1.054245e+00
  2.642111e+01    1.036084e+00
  2.643699e+01    1.007369e+00
  2.645286e+01    1.045494e+00
  2.646874e+01    1.011879e+00
  2.648461e+01    1.002068e+00
  2.650049e+01    1.020426e+00
  2.651636e+01    1.002733e+00
  2.653224e+01    9.965107e-01
  2.654812e+01    9.864779e-01
  2.656399e+01    9.806807e-01
  2.657987e+01    9.970719e-01
  2.659574e+01    9.785756e-01
  2.661162e+01    9.608917e-01
  2.662749e+01    9.738556e-01
  2.664337e+01    9.716815e-01
  2.665924e+01    9.605733e-01
  2.667512e+01    9.510540e-01
  2.669100e+01    9.631060e-01
  2.670687e+01    9.641430e-01
  2.672275e+01    9.695697e-01
  2.673862e+01    9.767411e-01
  2.675450e+01    9.467298e-01
  2.677037e+01    9.394911e-01
  2.678625e+01    9.684370e-01
  2.680212e+01    9.850841e-01
  2.681800e+01    9.809290e-01
  2.683388e+01    9.807131e-01
  2.684975e+01    9.750479e-01
  2.686563e+01    1.007681e+00
  2.688150e+01    9.938618e-01
  2.689738e+01    9.806545e-01
  2.691325e+01    1.019245e+00
  2.692913e+01    1.017452e+00
  2.694501e+01    1.010541e+00
  2.696088e+01    1.046600e+00
  2.697676e+01    1.075584e+00
  2.699263e+01    1.075550e+00
  2.700851e+01    1.117592e+00
  2.702438e+01    1.152453e+00
  2.704026e+01    1.194092e+00
  2.705613e+01    1.252485e+00
  2.707201e+01    1.296128e+00
  2.708789e+01    1.378068e+00
  2.710376e+01    1.507317e+00
  2.711964e+01    1.634565e+00
  2.713551e+01    1.766629e+00
  2.715139e+01    1.903823e+00
  2.716726e+01    1.989824e+00
  2.718314e+01    2.067901e+00
  2.719901e+01    2.111890e+00
  2.721489e+01    2.158744e+00
  2.723077e+01    2.154970e+00
  2.724664e+01    2.083406e+00
  2.726252e+01    1.923531e+00
  2.727839e+01    1.788103e+00
  2.729427e+01    1.672646e+00
  2.731014e+01    1.548652e+00
  2.732602e+01    1.450384e+00
  2.734189e+01    1.354467e+00
  2.735777e+01    1.284410e+00
  2.737365e+01    1.226449e+00
  2.738952e+01    1.169508e+00
  2.740540e+01    1.117134e+00
  2.742127e+01    1.072932e+00
  2.743715e+01    1.059072e+00
  2.745302e+01    1.051044e+00
  2.746890e+01    1.024992e+00
  2.748477e+01    1.022835e+00
  2.750065e+01    9.960706e-01
  2.751653e+01    9.612462e-01
  2.753240e+01    9.548511e-01
  2.754828e+01    9.484624e-01
  2.756415e+01    9.580054e-01
  2.758003e+01    9.492523e-01
  2.759590e+01    9.285334e-01
  2.761178e+01    9.190486e-01
  2.762765e+01    9.443556e-01
  2.764353e+01    9.354897e-01
  2.765941e+01    9.012389e-01
  2.767528e+01    9.301859e-01
  2.769116e+01    9.171233e-01
  2.770703e+01    8.787302e-01
  2.772291e+01    8.970966e-01
  2.773878e+01    8.915349e-01
  2.775466e+01    8.879728e-01
  2.777054e+01    8.974709e-01
  2.778641e+01    8.912405e-01
  2.780229e+01    8.912309e-01
  2.781816e+01    8.777372e-01
  2.783404e+01    8.798634e-01
  2.784991e+01    9.087369e-01
  2.786579e+01    8.908433e-01
  2.788166e+01    8.653370e-01
  2.789754e+01    8.801380e-01
  2.791342e+01    8.881955e-01
  2.792929e+01    8.769007e-01
  2.794517e+01    8.803412e-01
  2.796104e+01    8.867158e-01
  2.797692e+01    8.715841e-01
  2.799279e+01    8.724703e-01
  2.800867e+01    8.718103e-01
  2.802454e+01    8.893695e-01
  2.804042e+01    8.557168e-01
  2.805630e+01    8.455796e-01
  2.807217e+01    8.596951e-01
  2.808805e+01    8.570399e-01
  2.810392e+01    8.658161e-01
  2.811980e+01    8.816601e-01
  2.813567e+01    8.680745e-01
  2.815155e+01    8.473861e-01
  2.816742e+01    8.559976e-01
  2.818330e+01    8.752964e-01
  2.819918e+01    8.698781e-01
  2.821505e+01    8.687879e-01
  2.823093e+01    8.349358e-01
  2.824680e+01    8.516703e-01
  2.826268e+01    8.656991e-01
  2.827855e+01    8.553101e-01
  2.829443e+01    8.545310e-01
  2.831030e+01    8.517503e-01
  2.832618e+01    8.382244e-01
  2.834206e+01    8.535902e-01
  2.835793e+01    8.575202e-01
  2.837381e+01    8.536695e-01
  2.838968e+01    8.405542e-01
  2.840556e+01    8.335630e-01
  2.842143e+01    8.528873e-01
  2.843731e+01    8.316860e-01
  2.845318e+01    8.437638e-01
  2.846906e+01    8.465342e-01
  2.848494e+01    8.287166e-01
  2.850081e+01    8.374394e-01
  2.851669e+01    8.490363e-01
  2.853256e+01    8.200514e-01
  2.854844e+01    8.255890e-01
  2.856431e+01    8.243372e-01
  2.858019e+01    8.484587e-01
  2.859606e+01    8.171808e-01
  2.861194e+01    8.144351e-01
  2.862782e+01    8.473370e-01
  2.864369e+01    8.564218e-01
  2.865957e+01    8.549566e-01
  2.867544e+01    8.463814e-01
  2.869132e+01    8.662154e-01
  2.870719e+01    8.306308e-01
  2.872307e+01    8.274870e-01
  2.873895e+01    8.202090e-01
  2.875482e+01    8.006866e-01
  2.877070e+01    8.491479e-01
  2.878657e+01    8.425153e-01
  2.880245e+01    8.084211e-01
  2.881832e+01    8.043735e-01
  2.883420e+01    8.263429e-01
  2.885007e+01    8.166603e-01
  2.886595e+01    8.278776e-01
  2.888183e+01    8.388391e-01
  2.889770e+01    8.361103e-01
  2.891358e+01    8.093107e-01
  2.892945e+01    8.199904e-01
  2.894533e+01    8.358281e-01
  2.896120e+01    8.237644e-01
  2.897708e+01    8.332850e-01
  2.899295e+01    8.312002e-01
  2.900883e+01    8.234105e-01
  2.902471e+01    8.058521e-01
  2.904058e+01    8.034246e-01
  2.905646e+01    8.165126e-01
  2.907233e+01    8.033206e-01
  2.908821e+01    8.072253e-01
  2.910408e+01    8.163132e-01
  2.911996e+01    8.079428e-01
  2.913583e+01    8.210943e-01
  2.915171e+01    8.110929e-01
  2.916759e+01    8.072178e-01
  2.918346e+01    8.205404e-01
  2.919934e+01    8.074047e-01
  2.921521e+01    8.217655e-01
  2.923109e+01    8.085091e-01
  2.924696e+01    7.948514e-01
  2.926284e+01    7.892411e-01
  2.927871e+01    8.071221e-01
  2.929459e+01    8.007044e-01
  2.931047e+01    8.057394e-01
  2.932634e+01    8.116600e-01
  2.934222e+01    8.020505e-01
  2.935809e+01    8.315097e-01
  2.937397e+01    8.045941e-01
  2.938984e+01    8.035324e-01
  2.940572e+01    7.924041e-01
  2.942159e+01    8.037075e-01
  2.943747e+01    8.074602e-01
  2.945335e+01    8.044165e-01
  2.946922e+01    7.924371e-01
  2.948510e+01    8.141200e-01
  2.950097e+01    8.103842e-01
  2.951685e+01    8.199077e-01
  2.953272e+01    8.290951e-01
  2.954860e+01    7.878574e-01
  2.956447e+01    7.726445e-01
  2.958035e+01    7.949984e-01
  2.959623e+01    8.215818e-01
  2.961210e+01    8.010263e-01
  2.962798e+01    8.048000e-01
  2.964385e+01    8.446473e-01
  2.965973e+01    8.311992e-01
  2.967560e+01    7.987298e-01
  2.969148e+01    7.959035e-01
  2.970736e+01    7.983399e-01
  2.972323e+01    8.079536e-01
  2.973911e+01    8.041214e-01
  2.975498e+01    7.857782e-01
  2.977086e+01    7.890481e-01
  2.978673e+01    8.089752e-01
  2.980261e+01    7.707796e-01
  2.981848e+01    7.717137e-01
  2.983436e+01    7.856669e-01
  2.985024e+01    8.141898e-01
  2.986611e+01    8.100672e-01
  2.988199e+01    8.059766e-01
  2.989786e+01    8.104191e-01
  2.991374e+01    8.072495e-01
  2.992961e+01    8.058716e-01
  2.994549e+01    7.881823e-01
  2.996136e+01    7.863646e-01
  2.997724e+01    8.154103e-01
  2.999312e+01    8.107103e-01
  3.000899e+01    8.040687e-01
  3.002487e+01    7.756816e-01
  3.004074e+01    8.005664e-01
  3.005662e+01    8.326114e-01
  3.007249e+01    8.117465e-01
  3.008837e+01    7.943167e-01
  3.010424e+01    7.951387e-01
  3.012012e+01    8.021566e-01
  3.013600e+01    7.864878e-01
  3.015187e+01    7.817511e-01
  3.016775e+01    7.683185e-01
  3.018362e+01    7.895767e-01
  3.019950e+01    7.853035e-01
  3.021537e+01    7.779838e-01
  3.023125e+01    7.940723e-01
  3.024712e+01    7.971638e-01
  3.026300e+01    7.737445e-01
  3.027888e+01    7.841954e-01
  3.029475e+01    7.839126e-01
  3.031063e+01    7.964891e-01
  3.032650e+01    8.003191e-01
  3.034238e+01    7.984508e-01
  3.035825e+01    7.882423e-01
  3.037413e+01    7.638968e-01
  3.039000e+01    7.874149e-01
  3.040588e+01    7.894815e-01
  3.042176e+01    7.706897e-01
  3.043763e+01    7.829897e-01
  3.045351e+01    7.738720e-01
  3.046938e+01    7.910275e-01
  3.048526e+01    7.822502e-01
  3.050113e+01    7.760008e-01
  3.051701e+01    7.754903e-01
  3.053288e+01    7.989460e-01
  3.054876e+01    7.785361e-01
  3.056464e+01    7.765740e-01
  3.058051e+01    7.872133e-01
  3.059639e+01    7.703907e-01
  3.061226e+01    7.920787e-01
  3.062814e+01    7.811761e-01
  3.064401e+01    7.891773e-01
  3.065989e+01    7.927499e-01
  3.067577e+01    7.965623e-01
  3.069164e+01    7.890806e-01
  3.070752e+01    7.814202e-01
  3.072339e+01    8.053896e-01
  3.073927e+01    7.971938e-01
  3.075514e+01    7.883760e-01
  3.077102e+01    7.610123e-01
  3.078689e+01    7.821985e-01
  3.080277e+01    8.006051e-01
  3.081865e+01    7.937118e-01
  3.083452e+01    8.133684e-01
  3.085040e+01    8.011670e-01
  3.086627e+01    7.652597e-01
  3.088215e+01    7.685582e-01
  3.089802e+01    7.705883e-01
  3.091390e+01    7.752776e-01
  3.092977e+01    7.846063e-01
  3.094565e+01    7.772366e-01
  3.096153e+01    7.611620e-01
  3.097740e+01    7.631444e-01
  3.099328e+01    7.776025e-01
  3.100915e+01    7.937061e-01
  3.102503e+01    7.980288e-01
  3.104090e+01    8.134565e-01
  3.105678e+01    7.890870e-01
  3.107265e+01    8.061306e-01
  3.108853e+01    7.851669e-01
  3.110441e+01    8.065468e-01
  3.112028e+01    8.207026e-01
  3.113616e+01    7.887886e-01
  3.115203e+01    7.810975e-01
  3.116791e+01    7.907243e-01
  3.118378e+01    8.070862e-01
  3.119966e+01    8.097237e-01
  3.121553e+01    8.077404e-01
  3.123141e+01    8.008274e-01
  3.124729e+01    7.905926e-01
  3.126316e+01    7.979180e-01
  3.127904e+01    7.887662e-01
  3.129491e+01    8.073129e-01
  3.131079e+01    7.999735e-01
  3.132666e+01    8.083965e-01
  3.134254e+01    8.103097e-01
  3.135841e+01    8.056573e-01
  3.137429e+01    8.132367e-01
  3.139017e+01    8.086278e-01
  3.140604e+01    8.127277e-01
  3.142192e+01    8.220040e-01
  3.143779e+01    8.051188e-01
  3.145367e+01    8.030837e-01
  3.146954e+01    8.044041e-01
  3.148542e+01    8.174090e-01
  3.150129e+01    8.362793e-01
  3.151717e+01    8.560193e-01
  3.153305e+01    8.414084e-01
  3.154892e+01    8.377631e-01
  3.156480e+01    8.498252e-01
  3.158067e+01    8.519135e-01
  3.159655e+01    8.952564e-01
  3.161242e+01    9.181474e-01
  3.162830e+01    9.160684e-01
  3.164418e+01    9.075383e-01
  3.166005e+01    9.389607e-01
  3.167593e+01    9.844241e-01
  3.169180e+01    9.824598e-01
  3.170768e+01    9.946789e-01
  3.172355e+01    1.075686e+00
  3.173943e+01    1.125985e+00
  3.175530e+01    1.198422e+00
  3.177118e+01    1.248770e+00
  3.178706e+01    1.370306e+00
  3.180293e+01    1.470114e+00
  3.181881e+01    1.573848e+00
  3.183468e+01    1.722783e+00
  3.185056e+01    1.827419e+00
  3.186643e+01    1.939038e+00
  3.188231e+01    2.072607e+00
  3.189818e+01    2.101008e+00
  3.191406e+01    2.076124e+00
  3.192994e+01    2.019431e+00
  3.194581e+01    1.943641e+00
  3.196169e+01    1.798359e+00
  3.197756e+01    1.667461e+00
  3.199344e+01    1.558025e+00
  3.200931e+01    1.408423e+00
  3.202519e+01    1.298594e+00
  3.204106e+01    1.212963e+00
  3.205694e+01    1.145045e+00
  3.207282e+01    1.088831e+00
  3.208869e+01    1.033087e+00
  3.210457e+01    9.860365e-01
  3.212044e+01    9.590353e-01
  3.213632e+01    9.240280e-01
  3.215219e+01    9.230134e-01
  3.216807e+01    8.881761e-01
  3.218394e+01    8.740080e-01
  3.219982e+01    8.709447e-01
  3.221570e+01    8.581255e-01
  3.223157e+01    8.224456e-01
  3.224745e+01    8.450732e-01
  3.226332e+01    8.097543e-01
  3.227920e+01    8.235913e-01
  3.229507e+01    8.090784e-01
  3.231095e+01    8.015947e-01
  3.232682e+01    8.006759e-01
  3.234270e+01    7.828868e-01
  3.235858e+01    7.784478e-01
  3.237445e+01    7.577903e-01
  3.239033e+01    7.724750e-01
  3.240620e+01    8.126915e-01
  3.242208e+01    7.895792e-01
  3.243795e+01    7.939149e-01
  3.245383e+01    8.143321e-01
  3.246970e+01    7.925218e-01
  3.248558e+01    7.878721e-01
  3.250146e+01    7.701430e-01
  3.251733e+01    7.836328e-01
  3.253321e+01    7.662331e-01
  3.254908e+01    7.641236e-01
