# == pyFAI calibration ==
# Distance Sample to Detector: 0.3999999939076516 m
# PONI: 9.750e-02, 1.135e-01 m
# Rotations: -0.000175 0.000000 -0.000000 rad
# 
# == Fit2d calibration ==
# Distance Sample-beamCenter: 400.000 mm
# Center: x=1514.000, y=1300.000 pix
# Tilt: 0.010 deg  TiltPlanRot: 0.010 deg
# 
# Detector Detector	 Spline= None	 PixelSize= 7.500e-05, 7.500e-05 m
#    Detector has a mask: False 
#    Detector has a dark current: False 
#    detector has a flat field: False 
# 
# Wavelength: 6.888e-11 m
# Mask applied: user provided
# Dark current applied: False
# Flat field applied: False
# Polarization factor: 0.99
# Normalization factor: 1.0
# --> /home/myspot/data/2024_07_Rosario/Ru-CGO-ex/2024-07-27_003_Ru-CGO-ex_Reaction_dwell_000023_data_000160.dat
#       q_nm^-1             I 
  2.003187e-02    0.000000e+00
  3.590745e-02    7.159096e-02
  5.178302e-02    1.504038e-01
  6.765859e-02    3.264066e-01
  8.353417e-02    3.720976e-01
  9.940974e-02    1.430541e-01
  1.152853e-01    3.617050e-02
  1.311609e-01    2.854345e-02
  1.470365e-01    1.301396e-02
  1.629120e-01    1.389385e-02
  1.787876e-01    7.046156e-02
  1.946632e-01    4.211847e-02
  2.105388e-01    5.190888e-02
  2.264143e-01    3.803531e-02
  2.422899e-01    5.417816e-02
  2.581655e-01    4.176765e-02
  2.740411e-01    5.151414e-02
  2.899166e-01    6.300466e-02
  3.057922e-01    3.325991e-02
  3.216678e-01    4.248078e-02
  3.375433e-01    9.607295e-02
  3.534189e-01    1.348392e-01
  3.692945e-01    4.536062e-02
  3.851701e-01    2.675390e-02
  4.010456e-01    2.450954e-02
  4.169212e-01    2.217118e-02
  4.327968e-01    4.253744e-02
  4.486724e-01    6.516071e-02
  4.645479e-01    9.134736e-02
  4.804235e-01    4.818996e-02
  4.962991e-01    7.081749e-02
  5.121747e-01    7.418138e-02
  5.280502e-01    4.613955e-02
  5.439258e-01    2.269942e-02
  5.598014e-01    4.025304e-02
  5.756770e-01    6.330368e-02
  5.915525e-01    5.740973e-02
  6.074281e-01    3.746413e-02
  6.233037e-01    2.548917e-02
  6.391793e-01    3.569981e-02
  6.550548e-01    4.078143e-02
  6.709304e-01    3.676122e-02
  6.868060e-01    6.668001e-02
  7.026815e-01    7.272478e-02
  7.185571e-01    6.649666e-02
  7.344327e-01    5.835922e-02
  7.503083e-01    7.046936e-02
  7.661838e-01    9.341735e-02
  7.820594e-01    1.281598e-01
  7.979350e-01    1.447523e-01
  8.138106e-01    2.501797e-01
  8.296861e-01    2.937868e-01
  8.455617e-01    3.346292e-01
  8.614373e-01    3.886104e-01
  8.773129e-01    5.004674e-01
  8.931884e-01    6.048738e-01
  9.090640e-01    6.555253e-01
  9.249396e-01    7.483174e-01
  9.408152e-01    8.662329e-01
  9.566907e-01    8.498005e-01
  9.725663e-01    1.050007e+00
  9.884419e-01    1.146959e+00
  1.004317e+00    1.131150e+00
  1.020193e+00    1.201475e+00
  1.036069e+00    1.300351e+00
  1.051944e+00    1.357989e+00
  1.067820e+00    1.465745e+00
  1.083695e+00    1.572924e+00
  1.099571e+00    1.481855e+00
  1.115446e+00    1.493832e+00
  1.131322e+00    1.575216e+00
  1.147198e+00    1.660135e+00
  1.163073e+00    1.703571e+00
  1.178949e+00    1.834489e+00
  1.194824e+00    1.896949e+00
  1.210700e+00    2.078802e+00
  1.226575e+00    2.253912e+00
  1.242451e+00    2.325537e+00
  1.258327e+00    2.329816e+00
  1.274202e+00    2.433901e+00
  1.290078e+00    2.640043e+00
  1.305953e+00    2.636448e+00
  1.321829e+00    2.653215e+00
  1.337705e+00    2.678344e+00
  1.353580e+00    2.726764e+00
  1.369456e+00    2.765953e+00
  1.385331e+00    2.878527e+00
  1.401207e+00    2.784847e+00
  1.417082e+00    2.845139e+00
  1.432958e+00    3.016286e+00
  1.448834e+00    3.021145e+00
  1.464709e+00    2.924164e+00
  1.480585e+00    3.043664e+00
  1.496460e+00    2.998748e+00
  1.512336e+00    3.140464e+00
  1.528211e+00    3.169729e+00
  1.544087e+00    3.237795e+00
  1.559963e+00    3.330049e+00
  1.575838e+00    3.179530e+00
  1.591714e+00    3.134693e+00
  1.607589e+00    3.156932e+00
  1.623465e+00    3.021589e+00
  1.639340e+00    3.144515e+00
  1.655216e+00    3.025887e+00
  1.671092e+00    3.064272e+00
  1.686967e+00    3.090328e+00
  1.702843e+00    3.094525e+00
  1.718718e+00    3.110225e+00
  1.734594e+00    3.142293e+00
  1.750469e+00    3.154855e+00
  1.766345e+00    3.167505e+00
  1.782221e+00    3.141142e+00
  1.798096e+00    3.023225e+00
  1.813972e+00    3.043968e+00
  1.829847e+00    3.065306e+00
  1.845723e+00    3.122720e+00
  1.861598e+00    3.070468e+00
  1.877474e+00    2.988160e+00
  1.893350e+00    3.047214e+00
  1.909225e+00    3.053791e+00
  1.925101e+00    3.072165e+00
  1.940976e+00    3.141514e+00
  1.956852e+00    3.105599e+00
  1.972727e+00    2.979760e+00
  1.988603e+00    3.061189e+00
  2.004479e+00    3.045356e+00
  2.020354e+00    3.090966e+00
  2.036230e+00    3.106827e+00
  2.052105e+00    3.157960e+00
  2.067981e+00    3.018082e+00
  2.083856e+00    3.031696e+00
  2.099732e+00    3.069932e+00
  2.115608e+00    3.040211e+00
  2.131483e+00    3.093949e+00
  2.147359e+00    3.068854e+00
  2.163234e+00    3.132257e+00
  2.179110e+00    3.137111e+00
  2.194985e+00    3.137103e+00
  2.210861e+00    3.070545e+00
  2.226737e+00    3.029937e+00
  2.242612e+00    3.057787e+00
  2.258488e+00    3.136843e+00
  2.274363e+00    3.052768e+00
  2.290239e+00    3.030763e+00
  2.306115e+00    3.185663e+00
  2.321990e+00    3.213967e+00
  2.337866e+00    3.032058e+00
  2.353741e+00    3.066267e+00
  2.369617e+00    3.109791e+00
  2.385492e+00    3.076733e+00
  2.401368e+00    3.116308e+00
  2.417244e+00    3.169470e+00
  2.433119e+00    3.223873e+00
  2.448995e+00    3.208188e+00
  2.464870e+00    3.264210e+00
  2.480746e+00    3.149474e+00
  2.496621e+00    3.120618e+00
  2.512497e+00    3.101274e+00
  2.528373e+00    3.174633e+00
  2.544248e+00    3.172265e+00
  2.560124e+00    3.257193e+00
  2.575999e+00    3.282105e+00
  2.591875e+00    3.233095e+00
  2.607750e+00    3.211442e+00
  2.623626e+00    3.145138e+00
  2.639502e+00    3.084084e+00
  2.655377e+00    3.145347e+00
  2.671253e+00    3.254303e+00
  2.687128e+00    3.177692e+00
  2.703004e+00    3.187219e+00
  2.718879e+00    3.245161e+00
  2.734755e+00    3.237975e+00
  2.750631e+00    3.148360e+00
  2.766506e+00    3.192076e+00
  2.782382e+00    3.224533e+00
  2.798257e+00    3.320354e+00
  2.814133e+00    3.269797e+00
  2.830008e+00    3.134344e+00
  2.845884e+00    3.235700e+00
  2.861760e+00    3.244421e+00
  2.877635e+00    3.279976e+00
  2.893511e+00    3.295827e+00
  2.909386e+00    3.336745e+00
  2.925262e+00    3.307263e+00
  2.941137e+00    3.291272e+00
  2.957013e+00    3.360893e+00
  2.972889e+00    3.255713e+00
  2.988764e+00    3.188089e+00
  3.004640e+00    3.326034e+00
  3.020515e+00    3.371620e+00
  3.036391e+00    3.346921e+00
  3.052266e+00    3.245277e+00
  3.068142e+00    3.273691e+00
  3.084018e+00    3.296326e+00
  3.099893e+00    3.286021e+00
  3.115769e+00    3.348475e+00
  3.131644e+00    3.280859e+00
  3.147520e+00    3.368197e+00
  3.163395e+00    3.369925e+00
  3.179271e+00    3.352216e+00
  3.195147e+00    3.373597e+00
  3.211022e+00    3.322186e+00
  3.226898e+00    3.384149e+00
  3.242773e+00    3.380713e+00
  3.258649e+00    3.354823e+00
  3.274525e+00    3.471496e+00
  3.290400e+00    3.400940e+00
  3.306276e+00    3.354603e+00
  3.322151e+00    3.351627e+00
  3.338027e+00    3.368212e+00
  3.353902e+00    3.397993e+00
  3.369778e+00    3.334575e+00
  3.385654e+00    3.361921e+00
  3.401529e+00    3.380378e+00
  3.417405e+00    3.482311e+00
  3.433280e+00    3.429729e+00
  3.449156e+00    3.416932e+00
  3.465031e+00    3.366925e+00
  3.480907e+00    3.410793e+00
  3.496783e+00    3.332172e+00
  3.512658e+00    3.366674e+00
  3.528534e+00    3.408401e+00
  3.544409e+00    3.382326e+00
  3.560285e+00    3.389389e+00
  3.576160e+00    3.412537e+00
  3.592036e+00    3.458219e+00
  3.607912e+00    3.501818e+00
  3.623787e+00    3.502330e+00
  3.639663e+00    3.469387e+00
  3.655538e+00    3.510536e+00
  3.671414e+00    3.424809e+00
  3.687289e+00    3.383257e+00
  3.703165e+00    3.356111e+00
  3.719041e+00    3.385988e+00
  3.734916e+00    3.455531e+00
  3.750792e+00    3.435735e+00
  3.766667e+00    3.393969e+00
  3.782543e+00    3.463705e+00
  3.798418e+00    3.484575e+00
  3.814294e+00    3.359877e+00
  3.830170e+00    3.379731e+00
  3.846045e+00    3.444731e+00
  3.861921e+00    3.395722e+00
  3.877796e+00    3.388042e+00
  3.893672e+00    3.437112e+00
  3.909547e+00    3.429955e+00
  3.925423e+00    3.444153e+00
  3.941299e+00    3.511323e+00
  3.957174e+00    3.515209e+00
  3.973050e+00    3.465059e+00
  3.988925e+00    3.408579e+00
  4.004801e+00    3.488395e+00
  4.020676e+00    3.511543e+00
  4.036552e+00    3.518223e+00
  4.052428e+00    3.664695e+00
  4.068303e+00    3.571510e+00
  4.084179e+00    3.544415e+00
  4.100054e+00    3.485441e+00
  4.115930e+00    3.458482e+00
  4.131806e+00    3.484048e+00
  4.147681e+00    3.480574e+00
  4.163557e+00    3.502940e+00
  4.179432e+00    3.550079e+00
  4.195308e+00    3.491427e+00
  4.211183e+00    3.496848e+00
  4.227059e+00    3.586409e+00
  4.242935e+00    3.551739e+00
  4.258810e+00    3.428982e+00
  4.274686e+00    3.478716e+00
  4.290561e+00    3.531339e+00
  4.306437e+00    3.448891e+00
  4.322312e+00    3.473107e+00
  4.338188e+00    3.594830e+00
  4.354064e+00    3.596600e+00
  4.369939e+00    3.512823e+00
  4.385815e+00    3.549277e+00
  4.401690e+00    3.456700e+00
  4.417566e+00    3.528259e+00
  4.433441e+00    3.617528e+00
  4.449317e+00    3.583269e+00
  4.465193e+00    3.522617e+00
  4.481068e+00    3.594365e+00
  4.496944e+00    3.533797e+00
  4.512819e+00    3.514809e+00
  4.528695e+00    3.538242e+00
  4.544570e+00    3.513167e+00
  4.560446e+00    3.651122e+00
  4.576322e+00    3.625223e+00
  4.592197e+00    3.520162e+00
  4.608073e+00    3.614945e+00
  4.623948e+00    3.713108e+00
  4.639824e+00    3.643878e+00
  4.655699e+00    3.628509e+00
  4.671575e+00    3.585358e+00
  4.687451e+00    3.565508e+00
  4.703326e+00    3.533140e+00
  4.719202e+00    3.575640e+00
  4.735077e+00    3.587779e+00
  4.750953e+00    3.556765e+00
  4.766828e+00    3.578794e+00
  4.782704e+00    3.560018e+00
  4.798580e+00    3.462920e+00
  4.814455e+00    3.600003e+00
  4.830331e+00    3.625144e+00
  4.846206e+00    3.615255e+00
  4.862082e+00    3.613353e+00
  4.877957e+00    3.643721e+00
  4.893833e+00    3.587453e+00
  4.909709e+00    3.617449e+00
  4.925584e+00    3.621030e+00
  4.941460e+00    3.622983e+00
  4.957335e+00    3.621611e+00
  4.973211e+00    3.600488e+00
  4.989086e+00    3.541410e+00
  5.004962e+00    3.659632e+00
  5.020838e+00    3.745197e+00
  5.036713e+00    3.652024e+00
  5.052589e+00    3.641491e+00
  5.068464e+00    3.690424e+00
  5.084340e+00    3.634737e+00
  5.100216e+00    3.633483e+00
  5.116091e+00    3.580439e+00
  5.131967e+00    3.584719e+00
  5.147842e+00    3.674982e+00
  5.163718e+00    3.665425e+00
  5.179593e+00    3.598661e+00
  5.195469e+00    3.609802e+00
  5.211345e+00    3.611108e+00
  5.227220e+00    3.598755e+00
  5.243096e+00    3.554308e+00
  5.258971e+00    3.595119e+00
  5.274847e+00    3.630742e+00
  5.290722e+00    3.635523e+00
  5.306598e+00    3.640523e+00
  5.322474e+00    3.645272e+00
  5.338349e+00    3.627409e+00
  5.354225e+00    3.689508e+00
  5.370100e+00    3.668033e+00
  5.385976e+00    3.649083e+00
  5.401851e+00    3.622060e+00
  5.417727e+00    3.617588e+00
  5.433603e+00    3.674215e+00
  5.449478e+00    3.587523e+00
  5.465354e+00    3.619194e+00
  5.481229e+00    3.560522e+00
  5.497105e+00    3.565754e+00
  5.512980e+00    3.534842e+00
  5.528856e+00    3.567400e+00
  5.544732e+00    3.561774e+00
  5.560607e+00    3.479046e+00
  5.576483e+00    3.471654e+00
  5.592358e+00    3.586585e+00
  5.608234e+00    3.579873e+00
  5.624109e+00    3.585632e+00
  5.639985e+00    3.522618e+00
  5.655861e+00    3.499764e+00
  5.671736e+00    3.569598e+00
  5.687612e+00    3.530673e+00
  5.703487e+00    3.514811e+00
  5.719363e+00    3.452745e+00
  5.735238e+00    3.425803e+00
  5.751114e+00    3.516910e+00
  5.766990e+00    3.619011e+00
  5.782865e+00    3.635019e+00
  5.798741e+00    3.600883e+00
  5.814616e+00    3.506646e+00
  5.830492e+00    3.522630e+00
  5.846367e+00    3.519930e+00
  5.862243e+00    3.603115e+00
  5.878119e+00    3.561627e+00
  5.893994e+00    3.488698e+00
  5.909870e+00    3.585449e+00
  5.925745e+00    3.517348e+00
  5.941621e+00    3.528513e+00
  5.957497e+00    3.484422e+00
  5.973372e+00    3.474967e+00
  5.989248e+00    3.470371e+00
  6.005123e+00    3.520827e+00
  6.020999e+00    3.546406e+00
  6.036874e+00    3.575261e+00
  6.052750e+00    3.545326e+00
  6.068626e+00    3.489457e+00
  6.084501e+00    3.538333e+00
  6.100377e+00    3.503799e+00
  6.116252e+00    3.530971e+00
  6.132128e+00    3.538845e+00
  6.148003e+00    3.475053e+00
  6.163879e+00    3.480178e+00
  6.179755e+00    3.439738e+00
  6.195630e+00    3.556050e+00
  6.211506e+00    3.683939e+00
  6.227381e+00    3.599742e+00
  6.243257e+00    3.532921e+00
  6.259132e+00    3.532256e+00
  6.275008e+00    3.529108e+00
  6.290884e+00    3.482017e+00
  6.306759e+00    3.483675e+00
  6.322635e+00    3.475317e+00
  6.338510e+00    3.461129e+00
  6.354386e+00    3.412547e+00
  6.370261e+00    3.502882e+00
  6.386137e+00    3.510944e+00
  6.402013e+00    3.594385e+00
  6.417888e+00    3.553260e+00
  6.433764e+00    3.514475e+00
  6.449639e+00    3.582555e+00
  6.465515e+00    3.538153e+00
  6.481390e+00    3.504033e+00
  6.497266e+00    3.478548e+00
  6.513142e+00    3.519381e+00
  6.529017e+00    3.477933e+00
  6.544893e+00    3.544714e+00
  6.560768e+00    3.565093e+00
  6.576644e+00    3.533432e+00
  6.592519e+00    3.543819e+00
  6.608395e+00    3.538239e+00
  6.624271e+00    3.577772e+00
  6.640146e+00    3.663166e+00
  6.656022e+00    3.535498e+00
  6.671897e+00    3.413975e+00
  6.687773e+00    3.455515e+00
  6.703648e+00    3.546312e+00
  6.719524e+00    3.494592e+00
  6.735400e+00    3.498902e+00
  6.751275e+00    3.526426e+00
  6.767151e+00    3.535187e+00
  6.783026e+00    3.514288e+00
  6.798902e+00    3.540310e+00
  6.814777e+00    3.539420e+00
  6.830653e+00    3.510796e+00
  6.846529e+00    3.452902e+00
  6.862404e+00    3.495566e+00
  6.878280e+00    3.475064e+00
  6.894155e+00    3.490451e+00
  6.910031e+00    3.573019e+00
  6.925907e+00    3.611094e+00
  6.941782e+00    3.566445e+00
  6.957658e+00    3.564430e+00
  6.973533e+00    3.561931e+00
  6.989409e+00    3.428035e+00
  7.005284e+00    3.542444e+00
  7.021160e+00    3.589980e+00
  7.037036e+00    3.509595e+00
  7.052911e+00    3.548556e+00
  7.068787e+00    3.504472e+00
  7.084662e+00    3.476994e+00
  7.100538e+00    3.455571e+00
  7.116413e+00    3.438090e+00
  7.132289e+00    3.517848e+00
  7.148165e+00    3.473235e+00
  7.164040e+00    3.448550e+00
  7.179916e+00    3.473491e+00
  7.195791e+00    3.506069e+00
  7.211667e+00    3.606767e+00
  7.227542e+00    3.498556e+00
  7.243418e+00    3.462744e+00
  7.259294e+00    3.469402e+00
  7.275169e+00    3.523446e+00
  7.291045e+00    3.492426e+00
  7.306920e+00    3.485626e+00
  7.322796e+00    3.470719e+00
  7.338671e+00    3.543571e+00
  7.354547e+00    3.483944e+00
  7.370423e+00    3.381654e+00
  7.386298e+00    3.388942e+00
  7.402174e+00    3.496237e+00
  7.418049e+00    3.500077e+00
  7.433925e+00    3.466050e+00
  7.449800e+00    3.434456e+00
  7.465676e+00    3.464971e+00
  7.481552e+00    3.571036e+00
  7.497427e+00    3.511486e+00
  7.513303e+00    3.461269e+00
  7.529178e+00    3.431335e+00
  7.545054e+00    3.488537e+00
  7.560929e+00    3.432917e+00
  7.576805e+00    3.422279e+00
  7.592681e+00    3.434209e+00
  7.608556e+00    3.406522e+00
  7.624432e+00    3.430941e+00
  7.640307e+00    3.448107e+00
  7.656183e+00    3.489463e+00
  7.672058e+00    3.424078e+00
  7.687934e+00    3.457434e+00
  7.703810e+00    3.510744e+00
  7.719685e+00    3.481852e+00
  7.735561e+00    3.546430e+00
  7.751436e+00    3.522481e+00
  7.767312e+00    3.464036e+00
  7.783187e+00    3.381421e+00
  7.799063e+00    3.445402e+00
  7.814939e+00    3.472927e+00
  7.830814e+00    3.438087e+00
  7.846690e+00    3.437654e+00
  7.862565e+00    3.409325e+00
  7.878441e+00    3.428148e+00
  7.894317e+00    3.383119e+00
  7.910192e+00    3.378241e+00
  7.926068e+00    3.471865e+00
  7.941943e+00    3.469238e+00
  7.957819e+00    3.434568e+00
  7.973694e+00    3.453822e+00
  7.989570e+00    3.385067e+00
  8.005446e+00    3.360406e+00
  8.021321e+00    3.408643e+00
  8.037197e+00    3.307096e+00
  8.053072e+00    3.335659e+00
  8.068948e+00    3.370433e+00
  8.084823e+00    3.442877e+00
  8.100699e+00    3.429041e+00
  8.116575e+00    3.516035e+00
  8.132450e+00    3.461776e+00
  8.148326e+00    3.417136e+00
  8.164201e+00    3.423397e+00
  8.180077e+00    3.456337e+00
  8.195952e+00    3.440133e+00
  8.211828e+00    3.442040e+00
  8.227704e+00    3.439034e+00
  8.243579e+00    3.462493e+00
  8.259455e+00    3.479708e+00
  8.275330e+00    3.420569e+00
  8.291206e+00    3.411617e+00
  8.307081e+00    3.412741e+00
  8.322957e+00    3.443156e+00
  8.338833e+00    3.403610e+00
  8.354708e+00    3.386284e+00
  8.370584e+00    3.302242e+00
  8.386459e+00    3.286426e+00
  8.402335e+00    3.315137e+00
  8.418210e+00    3.336240e+00
  8.434086e+00    3.322084e+00
  8.449962e+00    3.331438e+00
  8.465837e+00    3.299721e+00
  8.481713e+00    3.281138e+00
  8.497588e+00    3.324500e+00
  8.513464e+00    3.352209e+00
  8.529339e+00    3.324141e+00
  8.545215e+00    3.330922e+00
  8.561091e+00    3.363897e+00
  8.576966e+00    3.364805e+00
  8.592842e+00    3.404086e+00
  8.608717e+00    3.299361e+00
  8.624593e+00    3.275005e+00
  8.640468e+00    3.286541e+00
  8.656344e+00    3.310944e+00
  8.672220e+00    3.351187e+00
  8.688095e+00    3.294996e+00
  8.703971e+00    3.259587e+00
  8.719846e+00    3.295276e+00
  8.735722e+00    3.321817e+00
  8.751598e+00    3.311345e+00
  8.767473e+00    3.325382e+00
  8.783349e+00    3.299922e+00
  8.799224e+00    3.240909e+00
  8.815100e+00    3.261112e+00
  8.830975e+00    3.299337e+00
  8.846851e+00    3.323503e+00
  8.862727e+00    3.300819e+00
  8.878602e+00    3.285365e+00
  8.894478e+00    3.228582e+00
  8.910353e+00    3.211266e+00
  8.926229e+00    3.268102e+00
  8.942104e+00    3.266155e+00
  8.957980e+00    3.237203e+00
  8.973856e+00    3.328281e+00
  8.989731e+00    3.314378e+00
  9.005607e+00    3.229959e+00
  9.021482e+00    3.213900e+00
  9.037358e+00    3.238088e+00
  9.053233e+00    3.243266e+00
  9.069109e+00    3.187281e+00
  9.084985e+00    3.219085e+00
  9.100860e+00    3.237950e+00
  9.116736e+00    3.227678e+00
  9.132611e+00    3.283107e+00
  9.148487e+00    3.261735e+00
  9.164362e+00    3.212870e+00
  9.180238e+00    3.253382e+00
  9.196114e+00    3.204047e+00
  9.211989e+00    3.145074e+00
  9.227865e+00    3.200423e+00
  9.243740e+00    3.217521e+00
  9.259616e+00    3.151431e+00
  9.275491e+00    3.208989e+00
  9.291367e+00    3.165374e+00
  9.307243e+00    3.195808e+00
  9.323118e+00    3.220517e+00
  9.338994e+00    3.249157e+00
  9.354869e+00    3.237926e+00
  9.370745e+00    3.220726e+00
  9.386620e+00    3.153111e+00
  9.402496e+00    3.135646e+00
  9.418372e+00    3.144711e+00
  9.434247e+00    3.185450e+00
  9.450123e+00    3.237322e+00
  9.465998e+00    3.177781e+00
  9.481874e+00    3.177043e+00
  9.497749e+00    3.147316e+00
  9.513625e+00    3.151061e+00
  9.529501e+00    3.218161e+00
  9.545376e+00    3.212543e+00
  9.561252e+00    3.181354e+00
  9.577127e+00    3.233533e+00
  9.593003e+00    3.249111e+00
  9.608878e+00    3.231588e+00
  9.624754e+00    3.199590e+00
  9.640630e+00    3.242958e+00
  9.656505e+00    3.220284e+00
  9.672381e+00    3.188719e+00
  9.688256e+00    3.167672e+00
  9.704132e+00    3.180729e+00
  9.720008e+00    3.150269e+00
  9.735883e+00    3.187884e+00
  9.751759e+00    3.192245e+00
  9.767634e+00    3.114700e+00
  9.783510e+00    3.136863e+00
  9.799385e+00    3.163265e+00
  9.815261e+00    3.082391e+00
  9.831137e+00    3.067380e+00
  9.847012e+00    3.129369e+00
  9.862888e+00    3.171774e+00
  9.878763e+00    3.165857e+00
  9.894639e+00    3.121883e+00
  9.910514e+00    3.125054e+00
  9.926390e+00    3.115449e+00
  9.942266e+00    3.173565e+00
  9.958141e+00    3.128429e+00
  9.974017e+00    3.135626e+00
  9.989892e+00    3.097760e+00
  1.000577e+01    3.133339e+00
  1.002164e+01    3.099491e+00
  1.003752e+01    3.109504e+00
  1.005339e+01    3.156788e+00
  1.006927e+01    3.130453e+00
  1.008515e+01    3.081078e+00
  1.010102e+01    3.084438e+00
  1.011690e+01    3.075316e+00
  1.013277e+01    3.044917e+00
  1.014865e+01    3.079029e+00
  1.016452e+01    3.028608e+00
  1.018040e+01    3.015517e+00
  1.019627e+01    3.036253e+00
  1.021215e+01    3.026487e+00
  1.022803e+01    3.011455e+00
  1.024390e+01    3.059491e+00
  1.025978e+01    3.093868e+00
  1.027565e+01    3.022428e+00
  1.029153e+01    3.031475e+00
  1.030740e+01    2.995846e+00
  1.032328e+01    3.003490e+00
  1.033915e+01    3.025105e+00
  1.035503e+01    2.985456e+00
  1.037091e+01    2.960448e+00
  1.038678e+01    3.010627e+00
  1.040266e+01    3.061888e+00
  1.041853e+01    3.027229e+00
  1.043441e+01    3.005495e+00
  1.045028e+01    3.054381e+00
  1.046616e+01    3.062566e+00
  1.048204e+01    2.997529e+00
  1.049791e+01    2.998146e+00
  1.051379e+01    3.011124e+00
  1.052966e+01    2.996653e+00
  1.054554e+01    3.068547e+00
  1.056141e+01    3.012314e+00
  1.057729e+01    2.976736e+00
  1.059316e+01    2.957820e+00
  1.060904e+01    2.958830e+00
  1.062492e+01    2.999757e+00
  1.064079e+01    3.002729e+00
  1.065667e+01    2.945490e+00
  1.067254e+01    2.920888e+00
  1.068842e+01    2.988669e+00
  1.070429e+01    3.051951e+00
  1.072017e+01    2.999628e+00
  1.073604e+01    2.926973e+00
  1.075192e+01    2.968400e+00
  1.076780e+01    2.952477e+00
  1.078367e+01    2.900818e+00
  1.079955e+01    2.935110e+00
  1.081542e+01    2.906580e+00
  1.083130e+01    2.953231e+00
  1.084717e+01    2.921648e+00
  1.086305e+01    2.875530e+00
  1.087892e+01    2.860018e+00
  1.089480e+01    2.896203e+00
  1.091068e+01    2.926991e+00
  1.092655e+01    2.894630e+00
  1.094243e+01    2.937289e+00
  1.095830e+01    2.945264e+00
  1.097418e+01    2.896899e+00
  1.099005e+01    2.880257e+00
  1.100593e+01    2.889078e+00
  1.102180e+01    2.888577e+00
  1.103768e+01    2.845311e+00
  1.105356e+01    2.870456e+00
  1.106943e+01    2.868118e+00
  1.108531e+01    2.861862e+00
  1.110118e+01    2.885538e+00
  1.111706e+01    2.927131e+00
  1.113293e+01    2.846093e+00
  1.114881e+01    2.806714e+00
  1.116468e+01    2.832579e+00
  1.118056e+01    2.885618e+00
  1.119644e+01    2.928256e+00
  1.121231e+01    2.822005e+00
  1.122819e+01    2.765521e+00
  1.124406e+01    2.879590e+00
  1.125994e+01    2.882177e+00
  1.127581e+01    2.877358e+00
  1.129169e+01    2.830434e+00
  1.130756e+01    2.825485e+00
  1.132344e+01    2.801614e+00
  1.133932e+01    2.775341e+00
  1.135519e+01    2.797488e+00
  1.137107e+01    2.757147e+00
  1.138694e+01    2.764953e+00
  1.140282e+01    2.796641e+00
  1.141869e+01    2.812381e+00
  1.143457e+01    2.791157e+00
  1.145045e+01    2.767973e+00
  1.146632e+01    2.814499e+00
  1.148220e+01    2.775620e+00
  1.149807e+01    2.775400e+00
  1.151395e+01    2.758158e+00
  1.152982e+01    2.770623e+00
  1.154570e+01    2.775038e+00
  1.156157e+01    2.843600e+00
  1.157745e+01    2.766412e+00
  1.159333e+01    2.730908e+00
  1.160920e+01    2.772026e+00
  1.162508e+01    2.784836e+00
  1.164095e+01    2.794864e+00
  1.165683e+01    2.751458e+00
  1.167270e+01    2.759685e+00
  1.168858e+01    2.778627e+00
  1.170445e+01    2.764809e+00
  1.172033e+01    2.761809e+00
  1.173621e+01    2.720819e+00
  1.175208e+01    2.748676e+00
  1.176796e+01    2.737046e+00
  1.178383e+01    2.738737e+00
  1.179971e+01    2.739182e+00
  1.181558e+01    2.789590e+00
  1.183146e+01    2.740826e+00
  1.184733e+01    2.689156e+00
  1.186321e+01    2.695940e+00
  1.187909e+01    2.750048e+00
  1.189496e+01    2.722806e+00
  1.191084e+01    2.693403e+00
  1.192671e+01    2.718231e+00
  1.194259e+01    2.744357e+00
  1.195846e+01    2.757965e+00
  1.197434e+01    2.727442e+00
  1.199021e+01    2.724384e+00
  1.200609e+01    2.708010e+00
  1.202197e+01    2.696859e+00
  1.203784e+01    2.731025e+00
  1.205372e+01    2.690239e+00
  1.206959e+01    2.656030e+00
  1.208547e+01    2.700953e+00
  1.210134e+01    2.685385e+00
  1.211722e+01    2.643458e+00
  1.213309e+01    2.666372e+00
  1.214897e+01    2.694442e+00
  1.216485e+01    2.679096e+00
  1.218072e+01    2.684995e+00
  1.219660e+01    2.736054e+00
  1.221247e+01    2.690861e+00
  1.222835e+01    2.696037e+00
  1.224422e+01    2.665680e+00
  1.226010e+01    2.683529e+00
  1.227597e+01    2.682405e+00
  1.229185e+01    2.677955e+00
  1.230773e+01    2.701885e+00
  1.232360e+01    2.643940e+00
  1.233948e+01    2.673072e+00
  1.235535e+01    2.648524e+00
  1.237123e+01    2.696299e+00
  1.238710e+01    2.661035e+00
  1.240298e+01    2.668225e+00
  1.241886e+01    2.656270e+00
  1.243473e+01    2.700352e+00
  1.245061e+01    2.709761e+00
  1.246648e+01    2.724393e+00
  1.248236e+01    2.718340e+00
  1.249823e+01    2.680288e+00
  1.251411e+01    2.723625e+00
  1.252998e+01    2.702449e+00
  1.254586e+01    2.696314e+00
  1.256174e+01    2.687260e+00
  1.257761e+01    2.710141e+00
  1.259349e+01    2.758586e+00
  1.260936e+01    2.787810e+00
  1.262524e+01    2.754651e+00
  1.264111e+01    2.749474e+00
  1.265699e+01    2.796444e+00
  1.267286e+01    2.788958e+00
  1.268874e+01    2.787844e+00
  1.270462e+01    2.791828e+00
  1.272049e+01    2.833985e+00
  1.273637e+01    2.867888e+00
  1.275224e+01    2.867194e+00
  1.276812e+01    2.896994e+00
  1.278399e+01    2.934610e+00
  1.279987e+01    3.011061e+00
  1.281574e+01    3.077960e+00
  1.283162e+01    3.097688e+00
  1.284750e+01    3.156008e+00
  1.286337e+01    3.215038e+00
  1.287925e+01    3.299756e+00
  1.289512e+01    3.451463e+00
  1.291100e+01    3.633201e+00
  1.292687e+01    3.795389e+00
  1.294275e+01    4.068702e+00
  1.295862e+01    4.288606e+00
  1.297450e+01    4.678071e+00
  1.299038e+01    5.197437e+00
  1.300625e+01    5.822200e+00
  1.302213e+01    6.593878e+00
  1.303800e+01    7.611143e+00
  1.305388e+01    8.836713e+00
  1.306975e+01    1.001453e+01
  1.308563e+01    1.130825e+01
  1.310150e+01    1.251296e+01
  1.311738e+01    1.369894e+01
  1.313326e+01    1.462413e+01
  1.314913e+01    1.540240e+01
  1.316501e+01    1.600976e+01
  1.318088e+01    1.601129e+01
  1.319676e+01    1.548615e+01
  1.321263e+01    1.420833e+01
  1.322851e+01    1.243369e+01
  1.324438e+01    1.059523e+01
  1.326026e+01    9.136201e+00
  1.327614e+01    7.789759e+00
  1.329201e+01    6.749797e+00
  1.330789e+01    5.882689e+00
  1.332376e+01    5.294668e+00
  1.333964e+01    4.855278e+00
  1.335551e+01    4.450153e+00
  1.337139e+01    4.100245e+00
  1.338727e+01    3.814435e+00
  1.340314e+01    3.676461e+00
  1.341902e+01    3.500676e+00
  1.343489e+01    3.359453e+00
  1.345077e+01    3.245142e+00
  1.346664e+01    3.107572e+00
  1.348252e+01    2.942737e+00
  1.349839e+01    2.919155e+00
  1.351427e+01    2.894087e+00
  1.353015e+01    2.832000e+00
  1.354602e+01    2.781680e+00
  1.356190e+01    2.727610e+00
  1.357777e+01    2.695153e+00
  1.359365e+01    2.642085e+00
  1.360952e+01    2.636025e+00
  1.362540e+01    2.646786e+00
  1.364127e+01    2.625079e+00
  1.365715e+01    2.560602e+00
  1.367303e+01    2.542349e+00
  1.368890e+01    2.531984e+00
  1.370478e+01    2.552095e+00
  1.372065e+01    2.556783e+00
  1.373653e+01    2.490541e+00
  1.375240e+01    2.475173e+00
  1.376828e+01    2.458602e+00
  1.378415e+01    2.443572e+00
  1.380003e+01    2.463043e+00
  1.381591e+01    2.409165e+00
  1.383178e+01    2.408434e+00
  1.384766e+01    2.418527e+00
  1.386353e+01    2.399424e+00
  1.387941e+01    2.421336e+00
  1.389528e+01    2.421173e+00
  1.391116e+01    2.427759e+00
  1.392703e+01    2.383455e+00
  1.394291e+01    2.374031e+00
  1.395879e+01    2.368722e+00
  1.397466e+01    2.369106e+00
  1.399054e+01    2.394457e+00
  1.400641e+01    2.376041e+00
  1.402229e+01    2.341191e+00
  1.403816e+01    2.393083e+00
  1.405404e+01    2.354408e+00
  1.406991e+01    2.341751e+00
  1.408579e+01    2.334450e+00
  1.410167e+01    2.352526e+00
  1.411754e+01    2.323858e+00
  1.413342e+01    2.285038e+00
  1.414929e+01    2.334615e+00
  1.416517e+01    2.314463e+00
  1.418104e+01    2.299867e+00
  1.419692e+01    2.269216e+00
  1.421279e+01    2.275492e+00
  1.422867e+01    2.265057e+00
  1.424455e+01    2.232949e+00
  1.426042e+01    2.232380e+00
  1.427630e+01    2.269549e+00
  1.429217e+01    2.320216e+00
  1.430805e+01    2.301522e+00
  1.432392e+01    2.253694e+00
  1.433980e+01    2.282462e+00
  1.435568e+01    2.253630e+00
  1.437155e+01    2.230660e+00
  1.438743e+01    2.220275e+00
  1.440330e+01    2.223024e+00
  1.441918e+01    2.222817e+00
  1.443505e+01    2.203598e+00
  1.445093e+01    2.255206e+00
  1.446680e+01    2.229918e+00
  1.448268e+01    2.199377e+00
  1.449856e+01    2.210015e+00
  1.451443e+01    2.198912e+00
  1.453031e+01    2.163709e+00
  1.454618e+01    2.198482e+00
  1.456206e+01    2.198245e+00
  1.457793e+01    2.188286e+00
  1.459381e+01    2.144537e+00
  1.460968e+01    2.188815e+00
  1.462556e+01    2.204319e+00
  1.464144e+01    2.204592e+00
  1.465731e+01    2.219259e+00
  1.467319e+01    2.196506e+00
  1.468906e+01    2.209388e+00
  1.470494e+01    2.162444e+00
  1.472081e+01    2.126154e+00
  1.473669e+01    2.139067e+00
  1.475256e+01    2.176606e+00
  1.476844e+01    2.248499e+00
  1.478432e+01    2.196096e+00
  1.480019e+01    2.152879e+00
  1.481607e+01    2.169982e+00
  1.483194e+01    2.205775e+00
  1.484782e+01    2.212803e+00
  1.486369e+01    2.181022e+00
  1.487957e+01    2.208157e+00
  1.489544e+01    2.206343e+00
  1.491132e+01    2.218116e+00
  1.492720e+01    2.273732e+00
  1.494307e+01    2.283367e+00
  1.495895e+01    2.293357e+00
  1.497482e+01    2.313211e+00
  1.499070e+01    2.398833e+00
  1.500657e+01    2.470712e+00
  1.502245e+01    2.500650e+00
  1.503832e+01    2.568663e+00
  1.505420e+01    2.655349e+00
  1.507008e+01    2.798875e+00
  1.508595e+01    2.981225e+00
  1.510183e+01    3.155193e+00
  1.511770e+01    3.411134e+00
  1.513358e+01    3.772777e+00
  1.514945e+01    4.154026e+00
  1.516533e+01    4.470839e+00
  1.518120e+01    4.768257e+00
  1.519708e+01    5.113253e+00
  1.521296e+01    5.368707e+00
  1.522883e+01    5.515583e+00
  1.524471e+01    5.669013e+00
  1.526058e+01    5.740532e+00
  1.527646e+01    5.710421e+00
  1.529233e+01    5.479716e+00
  1.530821e+01    5.099838e+00
  1.532409e+01    4.671974e+00
  1.533996e+01    4.194198e+00
  1.535584e+01    3.735882e+00
  1.537171e+01    3.425859e+00
  1.538759e+01    3.172864e+00
  1.540346e+01    2.928606e+00
  1.541934e+01    2.729454e+00
  1.543521e+01    2.622318e+00
  1.545109e+01    2.518106e+00
  1.546697e+01    2.445159e+00
  1.548284e+01    2.341266e+00
  1.549872e+01    2.260098e+00
  1.551459e+01    2.234232e+00
  1.553047e+01    2.177708e+00
  1.554634e+01    2.165103e+00
  1.556222e+01    2.115837e+00
  1.557809e+01    2.115164e+00
  1.559397e+01    2.091218e+00
  1.560985e+01    2.065336e+00
  1.562572e+01    2.072033e+00
  1.564160e+01    2.023791e+00
  1.565747e+01    2.024339e+00
  1.567335e+01    2.025590e+00
  1.568922e+01    1.989769e+00
  1.570510e+01    1.978678e+00
  1.572097e+01    1.998083e+00
  1.573685e+01    1.972242e+00
  1.575273e+01    1.944283e+00
  1.576860e+01    1.942042e+00
  1.578448e+01    1.933013e+00
  1.580035e+01    1.926543e+00
  1.581623e+01    1.886018e+00
  1.583210e+01    1.897926e+00
  1.584798e+01    1.898469e+00
  1.586385e+01    1.906380e+00
  1.587973e+01    1.877369e+00
  1.589561e+01    1.924983e+00
  1.591148e+01    1.913262e+00
  1.592736e+01    1.905666e+00
  1.594323e+01    1.888442e+00
  1.595911e+01    1.842527e+00
  1.597498e+01    1.884761e+00
  1.599086e+01    1.878115e+00
  1.600673e+01    1.871461e+00
  1.602261e+01    1.875078e+00
  1.603849e+01    1.845525e+00
  1.605436e+01    1.847825e+00
  1.607024e+01    1.837711e+00
  1.608611e+01    1.831170e+00
  1.610199e+01    1.855415e+00
  1.611786e+01    1.852363e+00
  1.613374e+01    1.841979e+00
  1.614961e+01    1.817162e+00
  1.616549e+01    1.814748e+00
  1.618137e+01    1.826321e+00
  1.619724e+01    1.812998e+00
  1.621312e+01    1.792716e+00
  1.622899e+01    1.806012e+00
  1.624487e+01    1.793643e+00
  1.626074e+01    1.799393e+00
  1.627662e+01    1.792656e+00
  1.629250e+01    1.796881e+00
  1.630837e+01    1.792516e+00
  1.632425e+01    1.781303e+00
  1.634012e+01    1.765987e+00
  1.635600e+01    1.760016e+00
  1.637187e+01    1.814831e+00
  1.638775e+01    1.797680e+00
  1.640362e+01    1.783662e+00
  1.641950e+01    1.756496e+00
  1.643538e+01    1.746793e+00
  1.645125e+01    1.737669e+00
  1.646713e+01    1.749501e+00
  1.648300e+01    1.775020e+00
  1.649888e+01    1.743883e+00
  1.651475e+01    1.688070e+00
  1.653063e+01    1.705395e+00
  1.654650e+01    1.737540e+00
  1.656238e+01    1.763938e+00
  1.657826e+01    1.729147e+00
  1.659413e+01    1.766541e+00
  1.661001e+01    1.718548e+00
  1.662588e+01    1.714007e+00
  1.664176e+01    1.730209e+00
  1.665763e+01    1.739957e+00
  1.667351e+01    1.734734e+00
  1.668938e+01    1.762268e+00
  1.670526e+01    1.746599e+00
  1.672114e+01    1.689057e+00
  1.673701e+01    1.670953e+00
  1.675289e+01    1.698678e+00
  1.676876e+01    1.696930e+00
  1.678464e+01    1.702713e+00
  1.680051e+01    1.708152e+00
  1.681639e+01    1.706974e+00
  1.683226e+01    1.712771e+00
  1.684814e+01    1.730256e+00
  1.686402e+01    1.702001e+00
  1.687989e+01    1.660859e+00
  1.689577e+01    1.651918e+00
  1.691164e+01    1.669774e+00
  1.692752e+01    1.669326e+00
  1.694339e+01    1.656875e+00
  1.695927e+01    1.669041e+00
  1.697514e+01    1.662214e+00
  1.699102e+01    1.648945e+00
  1.700690e+01    1.674707e+00
  1.702277e+01    1.628806e+00
  1.703865e+01    1.644527e+00
  1.705452e+01    1.668285e+00
  1.707040e+01    1.664248e+00
  1.708627e+01    1.647543e+00
  1.710215e+01    1.622683e+00
  1.711802e+01    1.604906e+00
  1.713390e+01    1.644566e+00
  1.714978e+01    1.633055e+00
  1.716565e+01    1.629950e+00
  1.718153e+01    1.639606e+00
  1.719740e+01    1.618364e+00
  1.721328e+01    1.603230e+00
  1.722915e+01    1.639992e+00
  1.724503e+01    1.662369e+00
  1.726091e+01    1.641300e+00
  1.727678e+01    1.596946e+00
  1.729266e+01    1.615072e+00
  1.730853e+01    1.611275e+00
  1.732441e+01    1.642712e+00
  1.734028e+01    1.609533e+00
  1.735616e+01    1.602465e+00
  1.737203e+01    1.602105e+00
  1.738791e+01    1.599382e+00
  1.740379e+01    1.612326e+00
  1.741966e+01    1.572005e+00
  1.743554e+01    1.559308e+00
  1.745141e+01    1.589304e+00
  1.746729e+01    1.551486e+00
  1.748316e+01    1.541531e+00
  1.749904e+01    1.560745e+00
  1.751491e+01    1.580087e+00
  1.753079e+01    1.547083e+00
  1.754667e+01    1.589248e+00
  1.756254e+01    1.565342e+00
  1.757842e+01    1.551961e+00
  1.759429e+01    1.527396e+00
  1.761017e+01    1.549546e+00
  1.762604e+01    1.558135e+00
  1.764192e+01    1.553823e+00
  1.765779e+01    1.579048e+00
  1.767367e+01    1.555113e+00
  1.768955e+01    1.535048e+00
  1.770542e+01    1.527571e+00
  1.772130e+01    1.524416e+00
  1.773717e+01    1.522324e+00
  1.775305e+01    1.531379e+00
  1.776892e+01    1.535347e+00
  1.778480e+01    1.511386e+00
  1.780067e+01    1.510769e+00
  1.781655e+01    1.518426e+00
  1.783243e+01    1.517646e+00
  1.784830e+01    1.531469e+00
  1.786418e+01    1.531586e+00
  1.788005e+01    1.527190e+00
  1.789593e+01    1.520565e+00
  1.791180e+01    1.539359e+00
  1.792768e+01    1.521759e+00
  1.794355e+01    1.526866e+00
  1.795943e+01    1.482334e+00
  1.797531e+01    1.490283e+00
  1.799118e+01    1.498574e+00
  1.800706e+01    1.495968e+00
  1.802293e+01    1.483229e+00
  1.803881e+01    1.491462e+00
  1.805468e+01    1.505486e+00
  1.807056e+01    1.482174e+00
  1.808643e+01    1.460907e+00
  1.810231e+01    1.479927e+00
  1.811819e+01    1.481524e+00
  1.813406e+01    1.492762e+00
  1.814994e+01    1.490245e+00
  1.816581e+01    1.498944e+00
  1.818169e+01    1.481774e+00
  1.819756e+01    1.472553e+00
  1.821344e+01    1.439970e+00
  1.822932e+01    1.463365e+00
  1.824519e+01    1.478264e+00
  1.826107e+01    1.453015e+00
  1.827694e+01    1.455888e+00
  1.829282e+01    1.473257e+00
  1.830869e+01    1.457684e+00
  1.832457e+01    1.461633e+00
  1.834044e+01    1.480970e+00
  1.835632e+01    1.452957e+00
  1.837220e+01    1.435341e+00
  1.838807e+01    1.438819e+00
  1.840395e+01    1.446041e+00
  1.841982e+01    1.435384e+00
  1.843570e+01    1.465032e+00
  1.845157e+01    1.455821e+00
  1.846745e+01    1.421090e+00
  1.848332e+01    1.415754e+00
  1.849920e+01    1.459128e+00
  1.851508e+01    1.456345e+00
  1.853095e+01    1.440216e+00
  1.854683e+01    1.465949e+00
  1.856270e+01    1.431003e+00
  1.857858e+01    1.411869e+00
  1.859445e+01    1.430210e+00
  1.861033e+01    1.431381e+00
  1.862620e+01    1.466468e+00
  1.864208e+01    1.404747e+00
  1.865796e+01    1.407376e+00
  1.867383e+01    1.421697e+00
  1.868971e+01    1.392331e+00
  1.870558e+01    1.381183e+00
  1.872146e+01    1.383823e+00
  1.873733e+01    1.390038e+00
  1.875321e+01    1.412643e+00
  1.876908e+01    1.403917e+00
  1.878496e+01    1.409077e+00
  1.880084e+01    1.379045e+00
  1.881671e+01    1.359472e+00
  1.883259e+01    1.386976e+00
  1.884846e+01    1.393654e+00
  1.886434e+01    1.404685e+00
  1.888021e+01    1.399346e+00
  1.889609e+01    1.381961e+00
  1.891196e+01    1.399979e+00
  1.892784e+01    1.414024e+00
  1.894372e+01    1.391676e+00
  1.895959e+01    1.363889e+00
  1.897547e+01    1.377552e+00
  1.899134e+01    1.349265e+00
  1.900722e+01    1.363278e+00
  1.902309e+01    1.393105e+00
  1.903897e+01    1.376102e+00
  1.905484e+01    1.337744e+00
  1.907072e+01    1.376254e+00
  1.908660e+01    1.387147e+00
  1.910247e+01    1.363846e+00
  1.911835e+01    1.345725e+00
  1.913422e+01    1.347310e+00
  1.915010e+01    1.333828e+00
  1.916597e+01    1.345415e+00
  1.918185e+01    1.342730e+00
  1.919773e+01    1.349716e+00
  1.921360e+01    1.340777e+00
  1.922948e+01    1.362280e+00
  1.924535e+01    1.335165e+00
  1.926123e+01    1.323698e+00
  1.927710e+01    1.333874e+00
  1.929298e+01    1.334059e+00
  1.930885e+01    1.361831e+00
  1.932473e+01    1.357683e+00
  1.934061e+01    1.321892e+00
  1.935648e+01    1.328762e+00
  1.937236e+01    1.340755e+00
  1.938823e+01    1.365284e+00
  1.940411e+01    1.348539e+00
  1.941998e+01    1.348342e+00
  1.943586e+01    1.305409e+00
  1.945173e+01    1.316083e+00
  1.946761e+01    1.335394e+00
  1.948349e+01    1.325305e+00
  1.949936e+01    1.311725e+00
  1.951524e+01    1.287155e+00
  1.953111e+01    1.325167e+00
  1.954699e+01    1.324967e+00
  1.956286e+01    1.326135e+00
  1.957874e+01    1.310221e+00
  1.959461e+01    1.291103e+00
  1.961049e+01    1.320150e+00
  1.962637e+01    1.345390e+00
  1.964224e+01    1.338525e+00
  1.965812e+01    1.322764e+00
  1.967399e+01    1.307775e+00
  1.968987e+01    1.320178e+00
  1.970574e+01    1.286987e+00
  1.972162e+01    1.275305e+00
  1.973749e+01    1.320436e+00
  1.975337e+01    1.298771e+00
  1.976925e+01    1.301473e+00
  1.978512e+01    1.317604e+00
  1.980100e+01    1.303975e+00
  1.981687e+01    1.322169e+00
  1.983275e+01    1.311909e+00
  1.984862e+01    1.322128e+00
  1.986450e+01    1.290408e+00
  1.988037e+01    1.305124e+00
  1.989625e+01    1.303370e+00
  1.991213e+01    1.296775e+00
  1.992800e+01    1.304859e+00
  1.994388e+01    1.281238e+00
  1.995975e+01    1.258320e+00
  1.997563e+01    1.263162e+00
  1.999150e+01    1.290605e+00
  2.000738e+01    1.285079e+00
  2.002325e+01    1.266891e+00
  2.003913e+01    1.255718e+00
  2.005501e+01    1.285594e+00
  2.007088e+01    1.253514e+00
  2.008676e+01    1.261020e+00
  2.010263e+01    1.280122e+00
  2.011851e+01    1.251022e+00
  2.013438e+01    1.259901e+00
  2.015026e+01    1.264055e+00
  2.016614e+01    1.263235e+00
  2.018201e+01    1.260117e+00
  2.019789e+01    1.252570e+00
  2.021376e+01    1.268933e+00
  2.022964e+01    1.256701e+00
  2.024551e+01    1.271712e+00
  2.026139e+01    1.263198e+00
  2.027726e+01    1.246745e+00
  2.029314e+01    1.245580e+00
  2.030902e+01    1.239899e+00
  2.032489e+01    1.225069e+00
  2.034077e+01    1.236377e+00
  2.035664e+01    1.245307e+00
  2.037252e+01    1.227397e+00
  2.038839e+01    1.257519e+00
  2.040427e+01    1.255796e+00
  2.042014e+01    1.222482e+00
  2.043602e+01    1.227904e+00
  2.045190e+01    1.214460e+00
  2.046777e+01    1.198063e+00
  2.048365e+01    1.200733e+00
  2.049952e+01    1.221350e+00
  2.051540e+01    1.225654e+00
  2.053127e+01    1.219079e+00
  2.054715e+01    1.232073e+00
  2.056302e+01    1.236012e+00
  2.057890e+01    1.236475e+00
  2.059478e+01    1.228094e+00
  2.061065e+01    1.209135e+00
  2.062653e+01    1.218674e+00
  2.064240e+01    1.243478e+00
  2.065828e+01    1.216821e+00
  2.067415e+01    1.245499e+00
  2.069003e+01    1.233120e+00
  2.070590e+01    1.236549e+00
  2.072178e+01    1.224291e+00
  2.073766e+01    1.236081e+00
  2.075353e+01    1.236526e+00
  2.076941e+01    1.219518e+00
  2.078528e+01    1.219234e+00
  2.080116e+01    1.200079e+00
  2.081703e+01    1.197498e+00
  2.083291e+01    1.222937e+00
  2.084878e+01    1.253746e+00
  2.086466e+01    1.233174e+00
  2.088054e+01    1.223106e+00
  2.089641e+01    1.226930e+00
  2.091229e+01    1.236920e+00
  2.092816e+01    1.246513e+00
  2.094404e+01    1.236821e+00
  2.095991e+01    1.235010e+00
  2.097579e+01    1.234848e+00
  2.099166e+01    1.237191e+00
  2.100754e+01    1.233434e+00
  2.102342e+01    1.237501e+00
  2.103929e+01    1.216626e+00
  2.105517e+01    1.225564e+00
  2.107104e+01    1.229887e+00
  2.108692e+01    1.233659e+00
  2.110279e+01    1.227001e+00
  2.111867e+01    1.212745e+00
  2.113455e+01    1.239538e+00
  2.115042e+01    1.237138e+00
  2.116630e+01    1.239290e+00
  2.118217e+01    1.202017e+00
  2.119805e+01    1.214304e+00
  2.121392e+01    1.218154e+00
  2.122980e+01    1.228285e+00
  2.124567e+01    1.251392e+00
  2.126155e+01    1.258916e+00
  2.127743e+01    1.258972e+00
  2.129330e+01    1.230659e+00
  2.130918e+01    1.262601e+00
  2.132505e+01    1.263059e+00
  2.134093e+01    1.251997e+00
  2.135680e+01    1.279666e+00
  2.137268e+01    1.274956e+00
  2.138855e+01    1.297504e+00
  2.140443e+01    1.324386e+00
  2.142031e+01    1.335940e+00
  2.143618e+01    1.332033e+00
  2.145206e+01    1.320245e+00
  2.146793e+01    1.349999e+00
  2.148381e+01    1.375391e+00
  2.149968e+01    1.376770e+00
  2.151556e+01    1.426749e+00
  2.153143e+01    1.443845e+00
  2.154731e+01    1.490244e+00
  2.156319e+01    1.524487e+00
  2.157906e+01    1.596187e+00
  2.159494e+01    1.667196e+00
  2.161081e+01    1.730644e+00
  2.162669e+01    1.827008e+00
  2.164256e+01    1.972692e+00
  2.165844e+01    2.081920e+00
  2.167431e+01    2.248640e+00
  2.169019e+01    2.448464e+00
  2.170607e+01    2.709859e+00
  2.172194e+01    3.056103e+00
  2.173782e+01    3.519095e+00
  2.175369e+01    3.964486e+00
  2.176957e+01    4.491183e+00
  2.178544e+01    5.121160e+00
  2.180132e+01    5.761187e+00
  2.181719e+01    6.434843e+00
  2.183307e+01    7.110409e+00
  2.184895e+01    7.691536e+00
  2.186482e+01    8.253696e+00
  2.188070e+01    8.652081e+00
  2.189657e+01    8.869277e+00
  2.191245e+01    8.730933e+00
  2.192832e+01    8.255898e+00
  2.194420e+01    7.469039e+00
  2.196007e+01    6.567452e+00
  2.197595e+01    5.698397e+00
  2.199183e+01    4.854302e+00
  2.200770e+01    4.167860e+00
  2.202358e+01    3.624662e+00
  2.203945e+01    3.172340e+00
  2.205533e+01    2.833383e+00
  2.207120e+01    2.551483e+00
  2.208708e+01    2.343160e+00
  2.210296e+01    2.158131e+00
  2.211883e+01    1.999869e+00
  2.213471e+01    1.869384e+00
  2.215058e+01    1.761321e+00
  2.216646e+01    1.665577e+00
  2.218233e+01    1.576244e+00
  2.219821e+01    1.527063e+00
  2.221408e+01    1.474682e+00
  2.222996e+01    1.459048e+00
  2.224584e+01    1.431280e+00
  2.226171e+01    1.384907e+00
  2.227759e+01    1.347664e+00
  2.229346e+01    1.315011e+00
  2.230934e+01    1.313648e+00
  2.232521e+01    1.269741e+00
  2.234109e+01    1.243482e+00
  2.235696e+01    1.232539e+00
  2.237284e+01    1.219976e+00
  2.238872e+01    1.209144e+00
  2.240459e+01    1.204711e+00
  2.242047e+01    1.183386e+00
  2.243634e+01    1.168318e+00
  2.245222e+01    1.148065e+00
  2.246809e+01    1.133596e+00
  2.248397e+01    1.152812e+00
  2.249984e+01    1.140522e+00
  2.251572e+01    1.139036e+00
  2.253160e+01    1.138174e+00
  2.254747e+01    1.117458e+00
  2.256335e+01    1.128775e+00
  2.257922e+01    1.119014e+00
  2.259510e+01    1.095337e+00
  2.261097e+01    1.094604e+00
  2.262685e+01    1.112759e+00
  2.264272e+01    1.103273e+00
  2.265860e+01    1.114605e+00
  2.267448e+01    1.084343e+00
  2.269035e+01    1.080224e+00
  2.270623e+01    1.055029e+00
  2.272210e+01    1.074842e+00
  2.273798e+01    1.057289e+00
  2.275385e+01    1.046789e+00
  2.276973e+01    1.046051e+00
  2.278560e+01    1.034089e+00
  2.280148e+01    1.061126e+00
  2.281736e+01    1.055822e+00
  2.283323e+01    1.038850e+00
  2.284911e+01    1.028462e+00
  2.286498e+01    1.031114e+00
  2.288086e+01    1.041975e+00
  2.289673e+01    1.025804e+00
  2.291261e+01    1.020453e+00
  2.292848e+01    1.038674e+00
  2.294436e+01    1.023001e+00
  2.296024e+01    1.035240e+00
  2.297611e+01    1.033137e+00
  2.299199e+01    1.025576e+00
  2.300786e+01    1.002057e+00
  2.302374e+01    1.003816e+00
  2.303961e+01    1.002380e+00
  2.305549e+01    1.011094e+00
  2.307137e+01    9.843579e-01
  2.308724e+01    1.000743e+00
  2.310312e+01    1.016008e+00
  2.311899e+01    1.026496e+00
  2.313487e+01    1.021591e+00
  2.315074e+01    1.007766e+00
  2.316662e+01    1.011152e+00
  2.318249e+01    9.816035e-01
  2.319837e+01    9.886964e-01
  2.321425e+01    9.765849e-01
  2.323012e+01    9.790743e-01
  2.324600e+01    9.710408e-01
  2.326187e+01    9.784528e-01
  2.327775e+01    1.009837e+00
  2.329362e+01    9.753518e-01
  2.330950e+01    9.644237e-01
  2.332537e+01    9.646804e-01
  2.334125e+01    9.811060e-01
  2.335713e+01    9.703137e-01
  2.337300e+01    9.576328e-01
  2.338888e+01    9.572556e-01
  2.340475e+01    9.543543e-01
  2.342063e+01    9.583796e-01
  2.343650e+01    9.326746e-01
  2.345238e+01    9.340249e-01
  2.346825e+01    9.598258e-01
  2.348413e+01    9.573588e-01
  2.350001e+01    9.445893e-01
  2.351588e+01    9.526321e-01
  2.353176e+01    9.626030e-01
  2.354763e+01    9.535375e-01
  2.356351e+01    9.458420e-01
  2.357938e+01    9.670925e-01
  2.359526e+01    9.530906e-01
  2.361113e+01    9.543579e-01
  2.362701e+01    9.330061e-01
  2.364289e+01    9.300627e-01
  2.365876e+01    9.243704e-01
  2.367464e+01    9.253053e-01
  2.369051e+01    9.521496e-01
  2.370639e+01    9.621694e-01
  2.372226e+01    9.357395e-01
  2.373814e+01    9.181963e-01
  2.375401e+01    9.075703e-01
  2.376989e+01    9.223042e-01
  2.378577e+01    9.094270e-01
  2.380164e+01    9.319077e-01
  2.381752e+01    9.121811e-01
  2.383339e+01    9.020943e-01
  2.384927e+01    9.225593e-01
  2.386514e+01    9.024749e-01
  2.388102e+01    9.152759e-01
  2.389689e+01    9.227560e-01
  2.391277e+01    9.018348e-01
  2.392865e+01    8.935640e-01
  2.394452e+01    9.028755e-01
  2.396040e+01    8.920100e-01
  2.397627e+01    8.875659e-01
  2.399215e+01    9.040025e-01
  2.400802e+01    9.056653e-01
  2.402390e+01    8.947453e-01
  2.403978e+01    8.757058e-01
  2.405565e+01    8.792315e-01
  2.407153e+01    8.969027e-01
  2.408740e+01    8.913861e-01
  2.410328e+01    8.840907e-01
  2.411915e+01    8.688388e-01
  2.413503e+01    8.769004e-01
  2.415090e+01    8.807147e-01
  2.416678e+01    8.668846e-01
  2.418266e+01    8.856292e-01
  2.419853e+01    8.906357e-01
  2.421441e+01    8.702812e-01
  2.423028e+01    8.745762e-01
  2.424616e+01    8.708918e-01
  2.426203e+01    8.704844e-01
  2.427791e+01    8.871216e-01
  2.429378e+01    8.630113e-01
  2.430966e+01    8.909132e-01
  2.432554e+01    8.974038e-01
  2.434141e+01    8.946378e-01
  2.435729e+01    8.915780e-01
  2.437316e+01    8.944416e-01
  2.438904e+01    8.943924e-01
  2.440491e+01    8.987170e-01
  2.442079e+01    8.910137e-01
  2.443666e+01    8.909969e-01
  2.445254e+01    9.110432e-01
  2.446842e+01    8.923773e-01
  2.448429e+01    8.754696e-01
  2.450017e+01    8.677176e-01
  2.451604e+01    8.742596e-01
  2.453192e+01    8.948777e-01
  2.454779e+01    8.937661e-01
  2.456367e+01    8.836202e-01
  2.457954e+01    8.897851e-01
  2.459542e+01    8.924694e-01
  2.461130e+01    9.027907e-01
  2.462717e+01    8.925563e-01
  2.464305e+01    8.638292e-01
  2.465892e+01    8.690820e-01
  2.467480e+01    8.868807e-01
  2.469067e+01    9.017530e-01
  2.470655e+01    9.016889e-01
  2.472242e+01    8.754687e-01
  2.473830e+01    8.786190e-01
  2.475418e+01    8.760006e-01
  2.477005e+01    8.884038e-01
  2.478593e+01    8.942170e-01
  2.480180e+01    8.619019e-01
  2.481768e+01    8.674942e-01
  2.483355e+01    8.685772e-01
  2.484943e+01    8.726742e-01
  2.486530e+01    8.940897e-01
  2.488118e+01    8.739303e-01
  2.489706e+01    8.900557e-01
  2.491293e+01    8.872368e-01
  2.492881e+01    8.913376e-01
  2.494468e+01    8.819314e-01
  2.496056e+01    8.752332e-01
  2.497643e+01    8.894000e-01
  2.499231e+01    8.954265e-01
  2.500819e+01    8.964400e-01
  2.502406e+01    8.804411e-01
  2.503994e+01    8.964942e-01
  2.505581e+01    8.848819e-01
  2.507169e+01    8.721332e-01
  2.508756e+01    8.922559e-01
  2.510344e+01    9.197904e-01
  2.511931e+01    9.075550e-01
  2.513519e+01    9.042678e-01
  2.515107e+01    8.994497e-01
  2.516694e+01    9.052079e-01
  2.518282e+01    9.044113e-01
  2.519869e+01    9.100568e-01
  2.521457e+01    9.218814e-01
  2.523044e+01    9.149618e-01
  2.524632e+01    9.207040e-01
  2.526219e+01    9.195880e-01
  2.527807e+01    9.271277e-01
  2.529395e+01    9.307689e-01
  2.530982e+01    9.452165e-01
  2.532570e+01    9.652166e-01
  2.534157e+01    9.867266e-01
  2.535745e+01    9.700671e-01
  2.537332e+01    9.685653e-01
  2.538920e+01    9.706976e-01
  2.540507e+01    9.762131e-01
  2.542095e+01    9.974262e-01
  2.543683e+01    9.886561e-01
  2.545270e+01    1.028473e+00
  2.546858e+01    1.035212e+00
  2.548445e+01    1.025314e+00
  2.550033e+01    1.031877e+00
  2.551620e+01    1.060603e+00
  2.553208e+01    1.083352e+00
  2.554795e+01    1.097709e+00
  2.556383e+01    1.112418e+00
  2.557971e+01    1.150774e+00
  2.559558e+01    1.173547e+00
  2.561146e+01    1.195234e+00
  2.562733e+01    1.246506e+00
  2.564321e+01    1.324584e+00
  2.565908e+01    1.369193e+00
  2.567496e+01    1.409326e+00
  2.569083e+01    1.493338e+00
  2.570671e+01    1.543320e+00
  2.572259e+01    1.683365e+00
  2.573846e+01    1.838532e+00
  2.575434e+01    1.973325e+00
  2.577021e+01    2.166297e+00
  2.578609e+01    2.435165e+00
  2.580196e+01    2.740444e+00
  2.581784e+01    3.084137e+00
  2.583371e+01    3.533330e+00
  2.584959e+01    4.029088e+00
  2.586547e+01    4.580369e+00
  2.588134e+01    5.153464e+00
  2.589722e+01    5.715950e+00
  2.591309e+01    6.271240e+00
  2.592897e+01    6.685945e+00
  2.594484e+01    6.960436e+00
  2.596072e+01    7.075904e+00
  2.597660e+01    6.924771e+00
  2.599247e+01    6.520774e+00
  2.600835e+01    5.917204e+00
  2.602422e+01    5.274922e+00
  2.604010e+01    4.611820e+00
  2.605597e+01    3.989110e+00
  2.607185e+01    3.442606e+00
  2.608772e+01    3.010091e+00
  2.610360e+01    2.660396e+00
  2.611948e+01    2.382256e+00
  2.613535e+01    2.139874e+00
  2.615123e+01    1.924957e+00
  2.616710e+01    1.775452e+00
  2.618298e+01    1.663180e+00
  2.619885e+01    1.574339e+00
  2.621473e+01    1.447573e+00
  2.623060e+01    1.378218e+00
  2.624648e+01    1.333456e+00
  2.626236e+01    1.279081e+00
  2.627823e+01    1.251162e+00
  2.629411e+01    1.234454e+00
  2.630998e+01    1.172969e+00
  2.632586e+01    1.146709e+00
  2.634173e+01    1.130880e+00
  2.635761e+01    1.101400e+00
  2.637348e+01    1.098064e+00
  2.638936e+01    1.078534e+00
  2.640524e+01    1.052969e+00
  2.642111e+01    1.035845e+00
  2.643699e+01    1.018075e+00
  2.645286e+01    1.034285e+00
  2.646874e+01    1.024448e+00
  2.648461e+01    1.020662e+00
  2.650049e+01    9.873276e-01
  2.651636e+01    1.004207e+00
  2.653224e+01    9.902378e-01
  2.654812e+01    9.856687e-01
  2.656399e+01    9.638479e-01
  2.657987e+01    9.579235e-01
  2.659574e+01    9.778948e-01
  2.661162e+01    9.718047e-01
  2.662749e+01    9.824117e-01
  2.664337e+01    9.679015e-01
  2.665924e+01    9.803440e-01
  2.667512e+01    9.729424e-01
  2.669100e+01    9.651036e-01
  2.670687e+01    9.618546e-01
  2.672275e+01    9.492536e-01
  2.673862e+01    9.665291e-01
  2.675450e+01    9.536904e-01
  2.677037e+01    9.786851e-01
  2.678625e+01    1.001785e+00
  2.680212e+01    9.847074e-01
  2.681800e+01    9.610251e-01
  2.683388e+01    9.497163e-01
  2.684975e+01    9.381531e-01
  2.686563e+01    9.740403e-01
  2.688150e+01    9.761447e-01
  2.689738e+01    9.912789e-01
  2.691325e+01    1.000194e+00
  2.692913e+01    1.021136e+00
  2.694501e+01    1.008157e+00
  2.696088e+01    1.033058e+00
  2.697676e+01    1.073353e+00
  2.699263e+01    1.070718e+00
  2.700851e+01    1.127691e+00
  2.702438e+01    1.156840e+00
  2.704026e+01    1.200755e+00
  2.705613e+01    1.237102e+00
  2.707201e+01    1.316441e+00
  2.708789e+01    1.375102e+00
  2.710376e+01    1.456304e+00
  2.711964e+01    1.582534e+00
  2.713551e+01    1.713120e+00
  2.715139e+01    1.826457e+00
  2.716726e+01    1.959681e+00
  2.718314e+01    2.064481e+00
  2.719901e+01    2.107964e+00
  2.721489e+01    2.158438e+00
  2.723077e+01    2.151394e+00
  2.724664e+01    2.089195e+00
  2.726252e+01    1.961605e+00
  2.727839e+01    1.814476e+00
  2.729427e+01    1.691685e+00
  2.731014e+01    1.565314e+00
  2.732602e+01    1.436913e+00
  2.734189e+01    1.372341e+00
  2.735777e+01    1.282261e+00
  2.737365e+01    1.219325e+00
  2.738952e+01    1.139281e+00
  2.740540e+01    1.130412e+00
  2.742127e+01    1.065221e+00
  2.743715e+01    1.044295e+00
  2.745302e+01    1.038770e+00
  2.746890e+01    1.035191e+00
  2.748477e+01    9.897107e-01
  2.750065e+01    9.793172e-01
  2.751653e+01    9.944718e-01
  2.753240e+01    9.535918e-01
  2.754828e+01    9.294785e-01
  2.756415e+01    9.468799e-01
  2.758003e+01    9.367058e-01
  2.759590e+01    9.169729e-01
  2.761178e+01    9.186292e-01
  2.762765e+01    9.190791e-01
  2.764353e+01    9.076508e-01
  2.765941e+01    9.289172e-01
  2.767528e+01    9.091249e-01
  2.769116e+01    8.970975e-01
  2.770703e+01    8.974008e-01
  2.772291e+01    9.030434e-01
  2.773878e+01    9.118074e-01
  2.775466e+01    8.869037e-01
  2.777054e+01    8.733649e-01
  2.778641e+01    8.852926e-01
  2.780229e+01    8.819516e-01
  2.781816e+01    8.646992e-01
  2.783404e+01    8.580481e-01
  2.784991e+01    8.734301e-01
  2.786579e+01    8.715683e-01
  2.788166e+01    8.870448e-01
  2.789754e+01    8.850301e-01
  2.791342e+01    8.719823e-01
  2.792929e+01    8.656662e-01
  2.794517e+01    8.523487e-01
  2.796104e+01    8.728642e-01
  2.797692e+01    8.710901e-01
  2.799279e+01    8.632239e-01
  2.800867e+01    8.839379e-01
  2.802454e+01    8.714762e-01
  2.804042e+01    8.505142e-01
  2.805630e+01    8.484176e-01
  2.807217e+01    8.686363e-01
  2.808805e+01    8.458598e-01
  2.810392e+01    8.331344e-01
  2.811980e+01    8.547538e-01
  2.813567e+01    8.737757e-01
  2.815155e+01    8.653910e-01
  2.816742e+01    8.249684e-01
  2.818330e+01    8.406629e-01
  2.819918e+01    8.482963e-01
  2.821505e+01    8.511188e-01
  2.823093e+01    8.732877e-01
  2.824680e+01    8.690099e-01
  2.826268e+01    8.639650e-01
  2.827855e+01    8.469144e-01
  2.829443e+01    8.256817e-01
  2.831030e+01    8.394185e-01
  2.832618e+01    8.471214e-01
  2.834206e+01    8.308819e-01
  2.835793e+01    8.506480e-01
  2.837381e+01    8.312609e-01
  2.838968e+01    8.230150e-01
  2.840556e+01    8.348237e-01
  2.842143e+01    8.452511e-01
  2.843731e+01    8.482316e-01
  2.845318e+01    8.385463e-01
  2.846906e+01    8.521833e-01
  2.848494e+01    8.318447e-01
  2.850081e+01    8.294163e-01
  2.851669e+01    8.407982e-01
  2.853256e+01    8.546743e-01
  2.854844e+01    8.457752e-01
  2.856431e+01    8.225595e-01
  2.858019e+01    8.508456e-01
  2.859606e+01    8.286554e-01
  2.861194e+01    8.344089e-01
  2.862782e+01    8.252910e-01
  2.864369e+01    8.206695e-01
  2.865957e+01    8.183919e-01
  2.867544e+01    8.328451e-01
  2.869132e+01    8.313878e-01
  2.870719e+01    8.150703e-01
  2.872307e+01    8.051871e-01
  2.873895e+01    8.192620e-01
  2.875482e+01    8.208355e-01
  2.877070e+01    8.200001e-01
  2.878657e+01    8.206170e-01
  2.880245e+01    8.162020e-01
  2.881832e+01    8.054330e-01
  2.883420e+01    8.230040e-01
  2.885007e+01    8.297783e-01
  2.886595e+01    8.217612e-01
  2.888183e+01    8.414265e-01
  2.889770e+01    8.055937e-01
  2.891358e+01    8.175240e-01
  2.892945e+01    8.034782e-01
  2.894533e+01    8.198474e-01
  2.896120e+01    8.324759e-01
  2.897708e+01    8.386117e-01
  2.899295e+01    7.995861e-01
  2.900883e+01    7.982782e-01
  2.902471e+01    8.108540e-01
  2.904058e+01    8.101175e-01
  2.905646e+01    7.845137e-01
  2.907233e+01    7.807550e-01
  2.908821e+01    8.002405e-01
  2.910408e+01    8.091147e-01
  2.911996e+01    8.166139e-01
  2.913583e+01    8.204969e-01
  2.915171e+01    8.213416e-01
  2.916759e+01    8.206900e-01
  2.918346e+01    8.273479e-01
  2.919934e+01    7.977780e-01
  2.921521e+01    8.010589e-01
  2.923109e+01    8.210212e-01
  2.924696e+01    8.132372e-01
  2.926284e+01    7.993200e-01
  2.927871e+01    8.011813e-01
  2.929459e+01    8.136362e-01
  2.931047e+01    8.058113e-01
  2.932634e+01    7.873359e-01
  2.934222e+01    8.045220e-01
  2.935809e+01    8.094856e-01
  2.937397e+01    8.020591e-01
  2.938984e+01    7.912309e-01
  2.940572e+01    8.122279e-01
  2.942159e+01    8.108380e-01
  2.943747e+01    7.922742e-01
  2.945335e+01    8.185366e-01
  2.946922e+01    7.934601e-01
  2.948510e+01    7.809064e-01
  2.950097e+01    8.080046e-01
  2.951685e+01    8.044114e-01
  2.953272e+01    7.944291e-01
  2.954860e+01    7.991065e-01
  2.956447e+01    7.993385e-01
  2.958035e+01    8.041167e-01
  2.959623e+01    7.957458e-01
  2.961210e+01    7.817571e-01
  2.962798e+01    7.882759e-01
  2.964385e+01    8.021058e-01
  2.965973e+01    7.835419e-01
  2.967560e+01    7.701301e-01
  2.969148e+01    7.943885e-01
  2.970736e+01    7.929359e-01
  2.972323e+01    8.147883e-01
  2.973911e+01    8.127349e-01
  2.975498e+01    8.078678e-01
  2.977086e+01    8.037457e-01
  2.978673e+01    7.912714e-01
  2.980261e+01    8.020690e-01
  2.981848e+01    7.971896e-01
  2.983436e+01    8.062664e-01
  2.985024e+01    7.924719e-01
  2.986611e+01    7.955633e-01
  2.988199e+01    7.930490e-01
  2.989786e+01    7.595887e-01
  2.991374e+01    7.817083e-01
  2.992961e+01    8.026729e-01
  2.994549e+01    7.871034e-01
  2.996136e+01    7.733085e-01
  2.997724e+01    7.974560e-01
  2.999312e+01    8.272313e-01
  3.000899e+01    8.094205e-01
  3.002487e+01    7.966524e-01
  3.004074e+01    7.880957e-01
  3.005662e+01    7.880569e-01
  3.007249e+01    8.299057e-01
  3.008837e+01    8.170958e-01
  3.010424e+01    7.911503e-01
  3.012012e+01    7.957562e-01
  3.013600e+01    7.987646e-01
  3.015187e+01    8.001260e-01
  3.016775e+01    7.981309e-01
  3.018362e+01    7.852480e-01
  3.019950e+01    7.711098e-01
  3.021537e+01    7.873540e-01
  3.023125e+01    7.768458e-01
  3.024712e+01    7.769688e-01
  3.026300e+01    7.742834e-01
  3.027888e+01    7.796236e-01
  3.029475e+01    7.733899e-01
  3.031063e+01    7.514859e-01
  3.032650e+01    7.502611e-01
  3.034238e+01    7.779098e-01
  3.035825e+01    7.977269e-01
  3.037413e+01    7.801577e-01
  3.039000e+01    7.775220e-01
  3.040588e+01    7.587149e-01
  3.042176e+01    7.500041e-01
  3.043763e+01    7.904542e-01
  3.045351e+01    7.999586e-01
  3.046938e+01    7.658956e-01
  3.048526e+01    7.653145e-01
  3.050113e+01    7.585745e-01
  3.051701e+01    7.535748e-01
  3.053288e+01    7.800087e-01
  3.054876e+01    7.728117e-01
  3.056464e+01    7.577314e-01
  3.058051e+01    7.370775e-01
  3.059639e+01    7.721122e-01
  3.061226e+01    7.763268e-01
  3.062814e+01    7.643634e-01
  3.064401e+01    7.755696e-01
  3.065989e+01    7.804136e-01
  3.067577e+01    7.634346e-01
  3.069164e+01    7.696744e-01
  3.070752e+01    7.715076e-01
  3.072339e+01    7.642404e-01
  3.073927e+01    7.808648e-01
  3.075514e+01    7.943342e-01
  3.077102e+01    7.918512e-01
  3.078689e+01    7.850620e-01
  3.080277e+01    7.904540e-01
  3.081865e+01    7.886867e-01
  3.083452e+01    7.839449e-01
  3.085040e+01    7.740344e-01
  3.086627e+01    7.777979e-01
  3.088215e+01    7.695507e-01
  3.089802e+01    7.716324e-01
  3.091390e+01    7.900710e-01
  3.092977e+01    7.812512e-01
  3.094565e+01    7.922456e-01
  3.096153e+01    7.914489e-01
  3.097740e+01    7.574712e-01
  3.099328e+01    7.641293e-01
  3.100915e+01    7.739800e-01
  3.102503e+01    7.524986e-01
  3.104090e+01    7.737768e-01
  3.105678e+01    7.791722e-01
  3.107265e+01    7.788494e-01
  3.108853e+01    7.763169e-01
  3.110441e+01    7.750421e-01
  3.112028e+01    7.816903e-01
  3.113616e+01    7.713759e-01
  3.115203e+01    7.764055e-01
  3.116791e+01    7.844283e-01
  3.118378e+01    7.831438e-01
  3.119966e+01    7.800270e-01
  3.121553e+01    7.723026e-01
  3.123141e+01    7.821992e-01
  3.124729e+01    7.778370e-01
  3.126316e+01    7.900262e-01
  3.127904e+01    7.898827e-01
  3.129491e+01    7.883328e-01
  3.131079e+01    7.999301e-01
  3.132666e+01    7.829236e-01
  3.134254e+01    7.647437e-01
  3.135841e+01    7.836679e-01
  3.137429e+01    7.889082e-01
  3.139017e+01    8.252270e-01
  3.140604e+01    8.034983e-01
  3.142192e+01    7.991772e-01
  3.143779e+01    8.034170e-01
  3.145367e+01    8.044777e-01
  3.146954e+01    8.082739e-01
  3.148542e+01    8.129536e-01
  3.150129e+01    8.313029e-01
  3.151717e+01    8.240235e-01
  3.153305e+01    8.283347e-01
  3.154892e+01    8.304486e-01
  3.156480e+01    8.346493e-01
  3.158067e+01    8.683728e-01
  3.159655e+01    8.719761e-01
  3.161242e+01    8.700157e-01
  3.162830e+01    8.937894e-01
  3.164418e+01    9.032323e-01
  3.166005e+01    9.345403e-01
  3.167593e+01    9.605699e-01
  3.169180e+01    9.601929e-01
  3.170768e+01    9.965212e-01
  3.172355e+01    1.062877e+00
  3.173943e+01    1.126703e+00
  3.175530e+01    1.178961e+00
  3.177118e+01    1.222103e+00
  3.178706e+01    1.317984e+00
  3.180293e+01    1.442326e+00
  3.181881e+01    1.570275e+00
  3.183468e+01    1.686645e+00
  3.185056e+01    1.811637e+00
  3.186643e+01    1.918694e+00
  3.188231e+01    2.007117e+00
  3.189818e+01    2.052455e+00
  3.191406e+01    2.050931e+00
  3.192994e+01    1.998475e+00
  3.194581e+01    1.917467e+00
  3.196169e+01    1.830830e+00
  3.197756e+01    1.690048e+00
  3.199344e+01    1.576513e+00
  3.200931e+01    1.423346e+00
  3.202519e+01    1.319451e+00
  3.204106e+01    1.236684e+00
  3.205694e+01    1.155550e+00
  3.207282e+01    1.136598e+00
  3.208869e+01    1.053813e+00
  3.210457e+01    1.005308e+00
  3.212044e+01    9.784285e-01
  3.213632e+01    9.214678e-01
  3.215219e+01    9.128383e-01
  3.216807e+01    9.037788e-01
  3.218394e+01    8.895739e-01
  3.219982e+01    8.726012e-01
  3.221570e+01    8.192145e-01
  3.223157e+01    8.373638e-01
  3.224745e+01    8.566676e-01
  3.226332e+01    8.373501e-01
  3.227920e+01    8.245535e-01
  3.229507e+01    8.161725e-01
  3.231095e+01    8.031341e-01
  3.232682e+01    7.933449e-01
  3.234270e+01    7.723342e-01
  3.235858e+01    7.932976e-01
  3.237445e+01    7.805590e-01
  3.239033e+01    7.917229e-01
  3.240620e+01    7.829548e-01
  3.242208e+01    7.805161e-01
  3.243795e+01    8.002066e-01
  3.245383e+01    8.002633e-01
  3.246970e+01    7.825792e-01
  3.248558e+01    7.660244e-01
  3.250146e+01    7.731107e-01
  3.251733e+01    7.549679e-01
  3.253321e+01    7.689165e-01
  3.254908e+01    7.568893e-01
