# == pyFAI calibration ==
# Distance Sample to Detector: 0.3999999939076516 m
# PONI: 9.750e-02, 1.135e-01 m
# Rotations: -0.000175 0.000000 -0.000000 rad
# 
# == Fit2d calibration ==
# Distance Sample-beamCenter: 400.000 mm
# Center: x=1514.000, y=1300.000 pix
# Tilt: 0.010 deg  TiltPlanRot: 0.010 deg
# 
# Detector Detector	 Spline= None	 PixelSize= 7.500e-05, 7.500e-05 m
#    Detector has a mask: False 
#    Detector has a dark current: False 
#    detector has a flat field: False 
# 
# Wavelength: 6.888e-11 m
# Mask applied: user provided
# Dark current applied: False
# Flat field applied: False
# Polarization factor: 0.99
# Normalization factor: 1.0
# --> /home/myspot/data/2024_07_Rosario/Ru-CGO-ex/2024-07-27_003_Ru-CGO-ex_Reaction_dwell_000023_data_000179.dat
#       q_nm^-1             I 
  2.003187e-02    2.195834e-01
  3.590745e-02    6.421851e-02
  5.178302e-02    7.387637e-02
  6.765859e-02    1.657315e-01
  8.353417e-02    1.202899e-01
  9.940974e-02    5.527439e-02
  1.152853e-01    7.400521e-02
  1.311609e-01    3.364512e-02
  1.470365e-01    1.713731e-02
  1.629120e-01    5.141698e-02
  1.787876e-01    5.961713e-03
  1.946632e-01    0.000000e+00
  2.105388e-01    0.000000e+00
  2.264143e-01    5.076120e-02
  2.422899e-01    5.901079e-02
  2.581655e-01    3.319002e-02
  2.740411e-01    2.183491e-02
  2.899166e-01    5.055868e-02
  3.057922e-01    4.489198e-02
  3.216678e-01    9.548353e-03
  3.375433e-01    6.830246e-02
  3.534189e-01    8.451911e-02
  3.692945e-01    2.998097e-02
  3.851701e-01    2.037254e-02
  4.010456e-01    2.699693e-02
  4.169212e-01    8.738626e-02
  4.327968e-01    7.504305e-02
  4.486724e-01    3.244811e-02
  4.645479e-01    2.752776e-02
  4.804235e-01    2.512622e-02
  4.962991e-01    1.590376e-02
  5.121747e-01    3.918802e-02
  5.280502e-01    2.244188e-02
  5.439258e-01    2.527081e-02
  5.598014e-01    2.239550e-02
  5.756770e-01    4.273563e-02
  5.915525e-01    4.560129e-02
  6.074281e-01    2.722113e-02
  6.233037e-01    3.271072e-02
  6.391793e-01    4.525655e-02
  6.550548e-01    4.270554e-02
  6.709304e-01    3.834528e-02
  6.868060e-01    3.823638e-02
  7.026815e-01    2.848725e-02
  7.185571e-01    5.246908e-02
  7.344327e-01    3.258260e-02
  7.503083e-01    5.897210e-02
  7.661838e-01    7.976016e-02
  7.820594e-01    1.421943e-01
  7.979350e-01    1.837189e-01
  8.138106e-01    2.700157e-01
  8.296861e-01    2.965642e-01
  8.455617e-01    3.227494e-01
  8.614373e-01    4.154933e-01
  8.773129e-01    4.686699e-01
  8.931884e-01    5.299041e-01
  9.090640e-01    6.365455e-01
  9.249396e-01    7.527760e-01
  9.408152e-01    8.548959e-01
  9.566907e-01    9.119763e-01
  9.725663e-01    1.017313e+00
  9.884419e-01    1.075881e+00
  1.004317e+00    1.247196e+00
  1.020193e+00    1.290419e+00
  1.036069e+00    1.384391e+00
  1.051944e+00    1.402176e+00
  1.067820e+00    1.426016e+00
  1.083695e+00    1.511818e+00
  1.099571e+00    1.612218e+00
  1.115446e+00    1.563257e+00
  1.131322e+00    1.529659e+00
  1.147198e+00    1.637194e+00
  1.163073e+00    1.684272e+00
  1.178949e+00    1.729079e+00
  1.194824e+00    1.855085e+00
  1.210700e+00    2.097801e+00
  1.226575e+00    2.236676e+00
  1.242451e+00    2.206240e+00
  1.258327e+00    2.287462e+00
  1.274202e+00    2.512113e+00
  1.290078e+00    2.554625e+00
  1.305953e+00    2.495560e+00
  1.321829e+00    2.695167e+00
  1.337705e+00    2.649149e+00
  1.353580e+00    2.659073e+00
  1.369456e+00    2.833688e+00
  1.385331e+00    2.808808e+00
  1.401207e+00    2.968210e+00
  1.417082e+00    2.992639e+00
  1.432958e+00    2.932453e+00
  1.448834e+00    2.808354e+00
  1.464709e+00    2.872868e+00
  1.480585e+00    2.989840e+00
  1.496460e+00    3.107546e+00
  1.512336e+00    3.178358e+00
  1.528211e+00    3.287325e+00
  1.544087e+00    3.157527e+00
  1.559963e+00    3.180016e+00
  1.575838e+00    3.247137e+00
  1.591714e+00    3.144322e+00
  1.607589e+00    3.112099e+00
  1.623465e+00    3.040629e+00
  1.639340e+00    3.139387e+00
  1.655216e+00    3.057969e+00
  1.671092e+00    3.024101e+00
  1.686967e+00    3.027304e+00
  1.702843e+00    2.959453e+00
  1.718718e+00    3.079426e+00
  1.734594e+00    3.079483e+00
  1.750469e+00    3.032500e+00
  1.766345e+00    3.150589e+00
  1.782221e+00    2.982732e+00
  1.798096e+00    2.904975e+00
  1.813972e+00    2.879815e+00
  1.829847e+00    2.968396e+00
  1.845723e+00    2.923824e+00
  1.861598e+00    3.034819e+00
  1.877474e+00    2.996949e+00
  1.893350e+00    3.006500e+00
  1.909225e+00    3.087709e+00
  1.925101e+00    2.933605e+00
  1.940976e+00    2.945540e+00
  1.956852e+00    2.991519e+00
  1.972727e+00    2.959051e+00
  1.988603e+00    2.989416e+00
  2.004479e+00    2.990460e+00
  2.020354e+00    2.941373e+00
  2.036230e+00    2.949713e+00
  2.052105e+00    3.061330e+00
  2.067981e+00    3.185307e+00
  2.083856e+00    3.117430e+00
  2.099732e+00    3.142918e+00
  2.115608e+00    2.982620e+00
  2.131483e+00    2.958120e+00
  2.147359e+00    3.027408e+00
  2.163234e+00    3.043580e+00
  2.179110e+00    3.053896e+00
  2.194985e+00    2.958874e+00
  2.210861e+00    3.015286e+00
  2.226737e+00    3.090518e+00
  2.242612e+00    3.138144e+00
  2.258488e+00    3.102896e+00
  2.274363e+00    3.094855e+00
  2.290239e+00    3.164739e+00
  2.306115e+00    3.143776e+00
  2.321990e+00    3.090916e+00
  2.337866e+00    3.098372e+00
  2.353741e+00    3.121221e+00
  2.369617e+00    3.056848e+00
  2.385492e+00    3.132862e+00
  2.401368e+00    3.235416e+00
  2.417244e+00    3.152032e+00
  2.433119e+00    3.147117e+00
  2.448995e+00    3.101856e+00
  2.464870e+00    3.078737e+00
  2.480746e+00    3.145257e+00
  2.496621e+00    3.061178e+00
  2.512497e+00    3.105380e+00
  2.528373e+00    3.129953e+00
  2.544248e+00    3.082653e+00
  2.560124e+00    3.060568e+00
  2.575999e+00    3.123262e+00
  2.591875e+00    3.094093e+00
  2.607750e+00    3.134473e+00
  2.623626e+00    3.261668e+00
  2.639502e+00    3.130451e+00
  2.655377e+00    3.199445e+00
  2.671253e+00    3.156063e+00
  2.687128e+00    3.187598e+00
  2.703004e+00    3.299999e+00
  2.718879e+00    3.246733e+00
  2.734755e+00    3.193635e+00
  2.750631e+00    3.173671e+00
  2.766506e+00    3.179463e+00
  2.782382e+00    3.175695e+00
  2.798257e+00    3.167384e+00
  2.814133e+00    3.189760e+00
  2.830008e+00    3.202497e+00
  2.845884e+00    3.182445e+00
  2.861760e+00    3.147006e+00
  2.877635e+00    3.231980e+00
  2.893511e+00    3.317208e+00
  2.909386e+00    3.240820e+00
  2.925262e+00    3.253732e+00
  2.941137e+00    3.357592e+00
  2.957013e+00    3.340183e+00
  2.972889e+00    3.185846e+00
  2.988764e+00    3.213539e+00
  3.004640e+00    3.286857e+00
  3.020515e+00    3.277078e+00
  3.036391e+00    3.263046e+00
  3.052266e+00    3.243847e+00
  3.068142e+00    3.271646e+00
  3.084018e+00    3.383174e+00
  3.099893e+00    3.415995e+00
  3.115769e+00    3.339688e+00
  3.131644e+00    3.246616e+00
  3.147520e+00    3.266954e+00
  3.163395e+00    3.304606e+00
  3.179271e+00    3.374593e+00
  3.195147e+00    3.313460e+00
  3.211022e+00    3.267598e+00
  3.226898e+00    3.272302e+00
  3.242773e+00    3.322041e+00
  3.258649e+00    3.327576e+00
  3.274525e+00    3.381622e+00
  3.290400e+00    3.376639e+00
  3.306276e+00    3.393783e+00
  3.322151e+00    3.396074e+00
  3.338027e+00    3.355482e+00
  3.353902e+00    3.389997e+00
  3.369778e+00    3.460622e+00
  3.385654e+00    3.409949e+00
  3.401529e+00    3.394211e+00
  3.417405e+00    3.413609e+00
  3.433280e+00    3.386665e+00
  3.449156e+00    3.354359e+00
  3.465031e+00    3.392799e+00
  3.480907e+00    3.397916e+00
  3.496783e+00    3.460320e+00
  3.512658e+00    3.423736e+00
  3.528534e+00    3.435568e+00
  3.544409e+00    3.460548e+00
  3.560285e+00    3.430601e+00
  3.576160e+00    3.345949e+00
  3.592036e+00    3.395993e+00
  3.607912e+00    3.479025e+00
  3.623787e+00    3.529120e+00
  3.639663e+00    3.477868e+00
  3.655538e+00    3.445844e+00
  3.671414e+00    3.399903e+00
  3.687289e+00    3.343764e+00
  3.703165e+00    3.423459e+00
  3.719041e+00    3.476890e+00
  3.734916e+00    3.470433e+00
  3.750792e+00    3.436671e+00
  3.766667e+00    3.313174e+00
  3.782543e+00    3.357246e+00
  3.798418e+00    3.432193e+00
  3.814294e+00    3.456983e+00
  3.830170e+00    3.419872e+00
  3.846045e+00    3.424546e+00
  3.861921e+00    3.528482e+00
  3.877796e+00    3.536109e+00
  3.893672e+00    3.412899e+00
  3.909547e+00    3.453290e+00
  3.925423e+00    3.431736e+00
  3.941299e+00    3.445895e+00
  3.957174e+00    3.374388e+00
  3.973050e+00    3.419650e+00
  3.988925e+00    3.504998e+00
  4.004801e+00    3.386232e+00
  4.020676e+00    3.443412e+00
  4.036552e+00    3.473353e+00
  4.052428e+00    3.528431e+00
  4.068303e+00    3.492306e+00
  4.084179e+00    3.560986e+00
  4.100054e+00    3.468807e+00
  4.115930e+00    3.458301e+00
  4.131806e+00    3.486944e+00
  4.147681e+00    3.478103e+00
  4.163557e+00    3.455097e+00
  4.179432e+00    3.534713e+00
  4.195308e+00    3.505931e+00
  4.211183e+00    3.480398e+00
  4.227059e+00    3.492559e+00
  4.242935e+00    3.499824e+00
  4.258810e+00    3.508372e+00
  4.274686e+00    3.533076e+00
  4.290561e+00    3.549845e+00
  4.306437e+00    3.584818e+00
  4.322312e+00    3.461422e+00
  4.338188e+00    3.471526e+00
  4.354064e+00    3.501945e+00
  4.369939e+00    3.510001e+00
  4.385815e+00    3.474278e+00
  4.401690e+00    3.494209e+00
  4.417566e+00    3.496266e+00
  4.433441e+00    3.536236e+00
  4.449317e+00    3.557081e+00
  4.465193e+00    3.542583e+00
  4.481068e+00    3.564528e+00
  4.496944e+00    3.581062e+00
  4.512819e+00    3.601547e+00
  4.528695e+00    3.633065e+00
  4.544570e+00    3.610249e+00
  4.560446e+00    3.573958e+00
  4.576322e+00    3.547851e+00
  4.592197e+00    3.564411e+00
  4.608073e+00    3.558267e+00
  4.623948e+00    3.543312e+00
  4.639824e+00    3.533309e+00
  4.655699e+00    3.631263e+00
  4.671575e+00    3.530050e+00
  4.687451e+00    3.498130e+00
  4.703326e+00    3.540744e+00
  4.719202e+00    3.610993e+00
  4.735077e+00    3.622625e+00
  4.750953e+00    3.590489e+00
  4.766828e+00    3.532771e+00
  4.782704e+00    3.508773e+00
  4.798580e+00    3.515282e+00
  4.814455e+00    3.497680e+00
  4.830331e+00    3.585253e+00
  4.846206e+00    3.606445e+00
  4.862082e+00    3.500333e+00
  4.877957e+00    3.609548e+00
  4.893833e+00    3.618681e+00
  4.909709e+00    3.527212e+00
  4.925584e+00    3.517585e+00
  4.941460e+00    3.565164e+00
  4.957335e+00    3.582607e+00
  4.973211e+00    3.636060e+00
  4.989086e+00    3.636577e+00
  5.004962e+00    3.606819e+00
  5.020838e+00    3.636726e+00
  5.036713e+00    3.601387e+00
  5.052589e+00    3.583013e+00
  5.068464e+00    3.513413e+00
  5.084340e+00    3.542508e+00
  5.100216e+00    3.578220e+00
  5.116091e+00    3.586414e+00
  5.131967e+00    3.541619e+00
  5.147842e+00    3.553567e+00
  5.163718e+00    3.663269e+00
  5.179593e+00    3.612318e+00
  5.195469e+00    3.566006e+00
  5.211345e+00    3.572588e+00
  5.227220e+00    3.588337e+00
  5.243096e+00    3.658500e+00
  5.258971e+00    3.610179e+00
  5.274847e+00    3.637709e+00
  5.290722e+00    3.669089e+00
  5.306598e+00    3.549118e+00
  5.322474e+00    3.611591e+00
  5.338349e+00    3.566367e+00
  5.354225e+00    3.645020e+00
  5.370100e+00    3.694784e+00
  5.385976e+00    3.575221e+00
  5.401851e+00    3.500972e+00
  5.417727e+00    3.503589e+00
  5.433603e+00    3.566836e+00
  5.449478e+00    3.558646e+00
  5.465354e+00    3.591244e+00
  5.481229e+00    3.604503e+00
  5.497105e+00    3.574099e+00
  5.512980e+00    3.526694e+00
  5.528856e+00    3.546069e+00
  5.544732e+00    3.661152e+00
  5.560607e+00    3.647108e+00
  5.576483e+00    3.639457e+00
  5.592358e+00    3.587168e+00
  5.608234e+00    3.591784e+00
  5.624109e+00    3.597717e+00
  5.639985e+00    3.557414e+00
  5.655861e+00    3.547376e+00
  5.671736e+00    3.500669e+00
  5.687612e+00    3.553708e+00
  5.703487e+00    3.614462e+00
  5.719363e+00    3.560364e+00
  5.735238e+00    3.520768e+00
  5.751114e+00    3.552125e+00
  5.766990e+00    3.552463e+00
  5.782865e+00    3.565564e+00
  5.798741e+00    3.474752e+00
  5.814616e+00    3.460633e+00
  5.830492e+00    3.547850e+00
  5.846367e+00    3.563436e+00
  5.862243e+00    3.592701e+00
  5.878119e+00    3.513199e+00
  5.893994e+00    3.485601e+00
  5.909870e+00    3.501784e+00
  5.925745e+00    3.504966e+00
  5.941621e+00    3.440404e+00
  5.957497e+00    3.416288e+00
  5.973372e+00    3.456442e+00
  5.989248e+00    3.478187e+00
  6.005123e+00    3.470226e+00
  6.020999e+00    3.551836e+00
  6.036874e+00    3.533808e+00
  6.052750e+00    3.468601e+00
  6.068626e+00    3.578179e+00
  6.084501e+00    3.629709e+00
  6.100377e+00    3.576728e+00
  6.116252e+00    3.574444e+00
  6.132128e+00    3.585348e+00
  6.148003e+00    3.543514e+00
  6.163879e+00    3.562777e+00
  6.179755e+00    3.480271e+00
  6.195630e+00    3.497983e+00
  6.211506e+00    3.549196e+00
  6.227381e+00    3.468029e+00
  6.243257e+00    3.463414e+00
  6.259132e+00    3.494756e+00
  6.275008e+00    3.512781e+00
  6.290884e+00    3.501961e+00
  6.306759e+00    3.515438e+00
  6.322635e+00    3.491102e+00
  6.338510e+00    3.454786e+00
  6.354386e+00    3.500001e+00
  6.370261e+00    3.480252e+00
  6.386137e+00    3.486156e+00
  6.402013e+00    3.517197e+00
  6.417888e+00    3.560368e+00
  6.433764e+00    3.530529e+00
  6.449639e+00    3.444369e+00
  6.465515e+00    3.501166e+00
  6.481390e+00    3.507341e+00
  6.497266e+00    3.581467e+00
  6.513142e+00    3.568507e+00
  6.529017e+00    3.530421e+00
  6.544893e+00    3.480891e+00
  6.560768e+00    3.520890e+00
  6.576644e+00    3.487966e+00
  6.592519e+00    3.480244e+00
  6.608395e+00    3.432918e+00
  6.624271e+00    3.400352e+00
  6.640146e+00    3.456217e+00
  6.656022e+00    3.528212e+00
  6.671897e+00    3.505689e+00
  6.687773e+00    3.502056e+00
  6.703648e+00    3.518828e+00
  6.719524e+00    3.443033e+00
  6.735400e+00    3.494133e+00
  6.751275e+00    3.537329e+00
  6.767151e+00    3.483070e+00
  6.783026e+00    3.433544e+00
  6.798902e+00    3.404646e+00
  6.814777e+00    3.484270e+00
  6.830653e+00    3.502325e+00
  6.846529e+00    3.486813e+00
  6.862404e+00    3.458305e+00
  6.878280e+00    3.470923e+00
  6.894155e+00    3.494817e+00
  6.910031e+00    3.506688e+00
  6.925907e+00    3.489434e+00
  6.941782e+00    3.473063e+00
  6.957658e+00    3.520681e+00
  6.973533e+00    3.452362e+00
  6.989409e+00    3.454604e+00
  7.005284e+00    3.494016e+00
  7.021160e+00    3.500797e+00
  7.037036e+00    3.472814e+00
  7.052911e+00    3.444932e+00
  7.068787e+00    3.470785e+00
  7.084662e+00    3.459973e+00
  7.100538e+00    3.433929e+00
  7.116413e+00    3.475313e+00
  7.132289e+00    3.519780e+00
  7.148165e+00    3.487808e+00
  7.164040e+00    3.493613e+00
  7.179916e+00    3.486414e+00
  7.195791e+00    3.426165e+00
  7.211667e+00    3.492056e+00
  7.227542e+00    3.442464e+00
  7.243418e+00    3.498566e+00
  7.259294e+00    3.483779e+00
  7.275169e+00    3.499353e+00
  7.291045e+00    3.474739e+00
  7.306920e+00    3.440958e+00
  7.322796e+00    3.429062e+00
  7.338671e+00    3.466754e+00
  7.354547e+00    3.456681e+00
  7.370423e+00    3.442326e+00
  7.386298e+00    3.409386e+00
  7.402174e+00    3.383906e+00
  7.418049e+00    3.417538e+00
  7.433925e+00    3.494821e+00
  7.449800e+00    3.467826e+00
  7.465676e+00    3.439048e+00
  7.481552e+00    3.416017e+00
  7.497427e+00    3.389321e+00
  7.513303e+00    3.385221e+00
  7.529178e+00    3.418129e+00
  7.545054e+00    3.435307e+00
  7.560929e+00    3.467317e+00
  7.576805e+00    3.422781e+00
  7.592681e+00    3.437203e+00
  7.608556e+00    3.408201e+00
  7.624432e+00    3.308380e+00
  7.640307e+00    3.342598e+00
  7.656183e+00    3.399161e+00
  7.672058e+00    3.448972e+00
  7.687934e+00    3.426778e+00
  7.703810e+00    3.398329e+00
  7.719685e+00    3.418633e+00
  7.735561e+00    3.442412e+00
  7.751436e+00    3.384694e+00
  7.767312e+00    3.422822e+00
  7.783187e+00    3.410540e+00
  7.799063e+00    3.382095e+00
  7.814939e+00    3.381493e+00
  7.830814e+00    3.395249e+00
  7.846690e+00    3.381332e+00
  7.862565e+00    3.375645e+00
  7.878441e+00    3.337224e+00
  7.894317e+00    3.324500e+00
  7.910192e+00    3.358829e+00
  7.926068e+00    3.374807e+00
  7.941943e+00    3.391157e+00
  7.957819e+00    3.407807e+00
  7.973694e+00    3.335012e+00
  7.989570e+00    3.387280e+00
  8.005446e+00    3.453758e+00
  8.021321e+00    3.364238e+00
  8.037197e+00    3.388913e+00
  8.053072e+00    3.415627e+00
  8.068948e+00    3.360467e+00
  8.084823e+00    3.354345e+00
  8.100699e+00    3.342675e+00
  8.116575e+00    3.396012e+00
  8.132450e+00    3.404091e+00
  8.148326e+00    3.460757e+00
  8.164201e+00    3.445833e+00
  8.180077e+00    3.394040e+00
  8.195952e+00    3.418675e+00
  8.211828e+00    3.445616e+00
  8.227704e+00    3.426454e+00
  8.243579e+00    3.367537e+00
  8.259455e+00    3.382982e+00
  8.275330e+00    3.410000e+00
  8.291206e+00    3.396551e+00
  8.307081e+00    3.395824e+00
  8.322957e+00    3.360722e+00
  8.338833e+00    3.359414e+00
  8.354708e+00    3.329283e+00
  8.370584e+00    3.322021e+00
  8.386459e+00    3.423184e+00
  8.402335e+00    3.396313e+00
  8.418210e+00    3.322186e+00
  8.434086e+00    3.313863e+00
  8.449962e+00    3.381761e+00
  8.465837e+00    3.360029e+00
  8.481713e+00    3.358310e+00
  8.497588e+00    3.345242e+00
  8.513464e+00    3.311731e+00
  8.529339e+00    3.288833e+00
  8.545215e+00    3.264294e+00
  8.561091e+00    3.283223e+00
  8.576966e+00    3.273903e+00
  8.592842e+00    3.302972e+00
  8.608717e+00    3.290100e+00
  8.624593e+00    3.239603e+00
  8.640468e+00    3.295516e+00
  8.656344e+00    3.364112e+00
  8.672220e+00    3.316284e+00
  8.688095e+00    3.249942e+00
  8.703971e+00    3.245270e+00
  8.719846e+00    3.235058e+00
  8.735722e+00    3.264355e+00
  8.751598e+00    3.286922e+00
  8.767473e+00    3.244716e+00
  8.783349e+00    3.265063e+00
  8.799224e+00    3.307941e+00
  8.815100e+00    3.294377e+00
  8.830975e+00    3.303585e+00
  8.846851e+00    3.299691e+00
  8.862727e+00    3.242582e+00
  8.878602e+00    3.195864e+00
  8.894478e+00    3.183617e+00
  8.910353e+00    3.293693e+00
  8.926229e+00    3.253658e+00
  8.942104e+00    3.201215e+00
  8.957980e+00    3.216233e+00
  8.973856e+00    3.226358e+00
  8.989731e+00    3.283178e+00
  9.005607e+00    3.260442e+00
  9.021482e+00    3.249544e+00
  9.037358e+00    3.296154e+00
  9.053233e+00    3.313602e+00
  9.069109e+00    3.281774e+00
  9.084985e+00    3.331896e+00
  9.100860e+00    3.308192e+00
  9.116736e+00    3.249941e+00
  9.132611e+00    3.269974e+00
  9.148487e+00    3.194689e+00
  9.164362e+00    3.196199e+00
  9.180238e+00    3.246798e+00
  9.196114e+00    3.196959e+00
  9.211989e+00    3.197213e+00
  9.227865e+00    3.205237e+00
  9.243740e+00    3.191334e+00
  9.259616e+00    3.212267e+00
  9.275491e+00    3.244894e+00
  9.291367e+00    3.298004e+00
  9.307243e+00    3.228062e+00
  9.323118e+00    3.136860e+00
  9.338994e+00    3.146720e+00
  9.354869e+00    3.214848e+00
  9.370745e+00    3.219649e+00
  9.386620e+00    3.241432e+00
  9.402496e+00    3.215754e+00
  9.418372e+00    3.152169e+00
  9.434247e+00    3.170623e+00
  9.450123e+00    3.153034e+00
  9.465998e+00    3.085216e+00
  9.481874e+00    3.135443e+00
  9.497749e+00    3.136055e+00
  9.513625e+00    3.205604e+00
  9.529501e+00    3.188588e+00
  9.545376e+00    3.193120e+00
  9.561252e+00    3.115186e+00
  9.577127e+00    3.162696e+00
  9.593003e+00    3.206264e+00
  9.608878e+00    3.155385e+00
  9.624754e+00    3.165596e+00
  9.640630e+00    3.196605e+00
  9.656505e+00    3.218354e+00
  9.672381e+00    3.199288e+00
  9.688256e+00    3.184085e+00
  9.704132e+00    3.081622e+00
  9.720008e+00    3.150962e+00
  9.735883e+00    3.117679e+00
  9.751759e+00    3.113383e+00
  9.767634e+00    3.133534e+00
  9.783510e+00    3.075042e+00
  9.799385e+00    3.091285e+00
  9.815261e+00    3.158596e+00
  9.831137e+00    3.208355e+00
  9.847012e+00    3.093194e+00
  9.862888e+00    3.098955e+00
  9.878763e+00    3.090814e+00
  9.894639e+00    3.089023e+00
  9.910514e+00    3.045207e+00
  9.926390e+00    3.070375e+00
  9.942266e+00    3.059855e+00
  9.958141e+00    3.075185e+00
  9.974017e+00    3.079321e+00
  9.989892e+00    3.110865e+00
  1.000577e+01    3.146963e+00
  1.002164e+01    3.096758e+00
  1.003752e+01    3.070647e+00
  1.005339e+01    3.080888e+00
  1.006927e+01    3.033556e+00
  1.008515e+01    2.998895e+00
  1.010102e+01    2.998848e+00
  1.011690e+01    3.031582e+00
  1.013277e+01    3.008778e+00
  1.014865e+01    2.994767e+00
  1.016452e+01    3.019494e+00
  1.018040e+01    3.065840e+00
  1.019627e+01    2.957601e+00
  1.021215e+01    3.013599e+00
  1.022803e+01    3.007955e+00
  1.024390e+01    2.972884e+00
  1.025978e+01    2.991904e+00
  1.027565e+01    2.981126e+00
  1.029153e+01    2.999580e+00
  1.030740e+01    3.005379e+00
  1.032328e+01    3.044802e+00
  1.033915e+01    2.973199e+00
  1.035503e+01    3.005161e+00
  1.037091e+01    2.985470e+00
  1.038678e+01    2.993592e+00
  1.040266e+01    3.011636e+00
  1.041853e+01    2.984022e+00
  1.043441e+01    3.012480e+00
  1.045028e+01    2.972297e+00
  1.046616e+01    2.953828e+00
  1.048204e+01    2.990257e+00
  1.049791e+01    2.993091e+00
  1.051379e+01    2.987109e+00
  1.052966e+01    2.975317e+00
  1.054554e+01    2.984566e+00
  1.056141e+01    2.991713e+00
  1.057729e+01    2.975064e+00
  1.059316e+01    2.992194e+00
  1.060904e+01    2.990124e+00
  1.062492e+01    2.961072e+00
  1.064079e+01    2.915488e+00
  1.065667e+01    2.909751e+00
  1.067254e+01    2.945845e+00
  1.068842e+01    2.965301e+00
  1.070429e+01    2.912190e+00
  1.072017e+01    2.898378e+00
  1.073604e+01    2.895911e+00
  1.075192e+01    2.951295e+00
  1.076780e+01    2.940955e+00
  1.078367e+01    2.864504e+00
  1.079955e+01    2.879487e+00
  1.081542e+01    2.933396e+00
  1.083130e+01    2.909523e+00
  1.084717e+01    2.879882e+00
  1.086305e+01    2.883106e+00
  1.087892e+01    2.835325e+00
  1.089480e+01    2.836921e+00
  1.091068e+01    2.830053e+00
  1.092655e+01    2.884055e+00
  1.094243e+01    2.845989e+00
  1.095830e+01    2.864386e+00
  1.097418e+01    2.885858e+00
  1.099005e+01    2.874272e+00
  1.100593e+01    2.834890e+00
  1.102180e+01    2.849533e+00
  1.103768e+01    2.919908e+00
  1.105356e+01    2.887328e+00
  1.106943e+01    2.863933e+00
  1.108531e+01    2.852799e+00
  1.110118e+01    2.851176e+00
  1.111706e+01    2.887382e+00
  1.113293e+01    2.837404e+00
  1.114881e+01    2.796191e+00
  1.116468e+01    2.792605e+00
  1.118056e+01    2.843778e+00
  1.119644e+01    2.840035e+00
  1.121231e+01    2.862495e+00
  1.122819e+01    2.876346e+00
  1.124406e+01    2.833747e+00
  1.125994e+01    2.813088e+00
  1.127581e+01    2.809034e+00
  1.129169e+01    2.788306e+00
  1.130756e+01    2.791371e+00
  1.132344e+01    2.842583e+00
  1.133932e+01    2.813572e+00
  1.135519e+01    2.793461e+00
  1.137107e+01    2.823309e+00
  1.138694e+01    2.785863e+00
  1.140282e+01    2.753236e+00
  1.141869e+01    2.756930e+00
  1.143457e+01    2.768070e+00
  1.145045e+01    2.767213e+00
  1.146632e+01    2.745284e+00
  1.148220e+01    2.726432e+00
  1.149807e+01    2.719550e+00
  1.151395e+01    2.780954e+00
  1.152982e+01    2.786992e+00
  1.154570e+01    2.729269e+00
  1.156157e+01    2.765682e+00
  1.157745e+01    2.741506e+00
  1.159333e+01    2.723763e+00
  1.160920e+01    2.770294e+00
  1.162508e+01    2.736925e+00
  1.164095e+01    2.744911e+00
  1.165683e+01    2.749751e+00
  1.167270e+01    2.709348e+00
  1.168858e+01    2.701374e+00
  1.170445e+01    2.723098e+00
  1.172033e+01    2.710346e+00
  1.173621e+01    2.700795e+00
  1.175208e+01    2.738705e+00
  1.176796e+01    2.725663e+00
  1.178383e+01    2.683619e+00
  1.179971e+01    2.719545e+00
  1.181558e+01    2.739137e+00
  1.183146e+01    2.671751e+00
  1.184733e+01    2.722807e+00
  1.186321e+01    2.722608e+00
  1.187909e+01    2.723392e+00
  1.189496e+01    2.732945e+00
  1.191084e+01    2.729794e+00
  1.192671e+01    2.732494e+00
  1.194259e+01    2.742477e+00
  1.195846e+01    2.744383e+00
  1.197434e+01    2.730305e+00
  1.199021e+01    2.706708e+00
  1.200609e+01    2.669490e+00
  1.202197e+01    2.677095e+00
  1.203784e+01    2.663305e+00
  1.205372e+01    2.662296e+00
  1.206959e+01    2.667602e+00
  1.208547e+01    2.650376e+00
  1.210134e+01    2.660582e+00
  1.211722e+01    2.640563e+00
  1.213309e+01    2.659424e+00
  1.214897e+01    2.727703e+00
  1.216485e+01    2.667562e+00
  1.218072e+01    2.602264e+00
  1.219660e+01    2.602694e+00
  1.221247e+01    2.673488e+00
  1.222835e+01    2.692163e+00
  1.224422e+01    2.660523e+00
  1.226010e+01    2.622182e+00
  1.227597e+01    2.655739e+00
  1.229185e+01    2.670475e+00
  1.230773e+01    2.650336e+00
  1.232360e+01    2.644235e+00
  1.233948e+01    2.624527e+00
  1.235535e+01    2.614647e+00
  1.237123e+01    2.681589e+00
  1.238710e+01    2.677459e+00
  1.240298e+01    2.655313e+00
  1.241886e+01    2.608390e+00
  1.243473e+01    2.610039e+00
  1.245061e+01    2.628968e+00
  1.246648e+01    2.633587e+00
  1.248236e+01    2.626103e+00
  1.249823e+01    2.650907e+00
  1.251411e+01    2.656708e+00
  1.252998e+01    2.631870e+00
  1.254586e+01    2.686148e+00
  1.256174e+01    2.708757e+00
  1.257761e+01    2.744155e+00
  1.259349e+01    2.692317e+00
  1.260936e+01    2.667765e+00
  1.262524e+01    2.690424e+00
  1.264111e+01    2.762525e+00
  1.265699e+01    2.760013e+00
  1.267286e+01    2.752464e+00
  1.268874e+01    2.730010e+00
  1.270462e+01    2.780662e+00
  1.272049e+01    2.802875e+00
  1.273637e+01    2.815228e+00
  1.275224e+01    2.883043e+00
  1.276812e+01    2.901870e+00
  1.278399e+01    2.937515e+00
  1.279987e+01    2.934566e+00
  1.281574e+01    2.961264e+00
  1.283162e+01    3.060680e+00
  1.284750e+01    3.183731e+00
  1.286337e+01    3.282234e+00
  1.287925e+01    3.337364e+00
  1.289512e+01    3.499949e+00
  1.291100e+01    3.599367e+00
  1.292687e+01    3.792557e+00
  1.294275e+01    4.023701e+00
  1.295862e+01    4.309557e+00
  1.297450e+01    4.664310e+00
  1.299038e+01    5.136975e+00
  1.300625e+01    5.820105e+00
  1.302213e+01    6.563154e+00
  1.303800e+01    7.561929e+00
  1.305388e+01    8.803808e+00
  1.306975e+01    9.980679e+00
  1.308563e+01    1.121196e+01
  1.310150e+01    1.247619e+01
  1.311738e+01    1.356097e+01
  1.313326e+01    1.453639e+01
  1.314913e+01    1.543104e+01
  1.316501e+01    1.618748e+01
  1.318088e+01    1.619738e+01
  1.319676e+01    1.556710e+01
  1.321263e+01    1.410426e+01
  1.322851e+01    1.237128e+01
  1.324438e+01    1.059183e+01
  1.326026e+01    9.011830e+00
  1.327614e+01    7.632497e+00
  1.329201e+01    6.671029e+00
  1.330789e+01    5.889758e+00
  1.332376e+01    5.282331e+00
  1.333964e+01    4.781485e+00
  1.335551e+01    4.397114e+00
  1.337139e+01    4.074917e+00
  1.338727e+01    3.795873e+00
  1.340314e+01    3.594605e+00
  1.341902e+01    3.425978e+00
  1.343489e+01    3.255707e+00
  1.345077e+01    3.172906e+00
  1.346664e+01    3.096320e+00
  1.348252e+01    3.036727e+00
  1.349839e+01    2.955574e+00
  1.351427e+01    2.896302e+00
  1.353015e+01    2.833162e+00
  1.354602e+01    2.808249e+00
  1.356190e+01    2.725186e+00
  1.357777e+01    2.701434e+00
  1.359365e+01    2.670952e+00
  1.360952e+01    2.629097e+00
  1.362540e+01    2.625260e+00
  1.364127e+01    2.574812e+00
  1.365715e+01    2.578974e+00
  1.367303e+01    2.563215e+00
  1.368890e+01    2.554036e+00
  1.370478e+01    2.510084e+00
  1.372065e+01    2.531142e+00
  1.373653e+01    2.500612e+00
  1.375240e+01    2.461145e+00
  1.376828e+01    2.452792e+00
  1.378415e+01    2.461317e+00
  1.380003e+01    2.431086e+00
  1.381591e+01    2.433509e+00
  1.383178e+01    2.427550e+00
  1.384766e+01    2.435586e+00
  1.386353e+01    2.437709e+00
  1.387941e+01    2.396831e+00
  1.389528e+01    2.378333e+00
  1.391116e+01    2.374030e+00
  1.392703e+01    2.380003e+00
  1.394291e+01    2.367707e+00
  1.395879e+01    2.349744e+00
  1.397466e+01    2.365015e+00
  1.399054e+01    2.395971e+00
  1.400641e+01    2.340590e+00
  1.402229e+01    2.325633e+00
  1.403816e+01    2.322054e+00
  1.405404e+01    2.326498e+00
  1.406991e+01    2.332229e+00
  1.408579e+01    2.321102e+00
  1.410167e+01    2.284194e+00
  1.411754e+01    2.268619e+00
  1.413342e+01    2.280891e+00
  1.414929e+01    2.222145e+00
  1.416517e+01    2.250279e+00
  1.418104e+01    2.292114e+00
  1.419692e+01    2.282247e+00
  1.421279e+01    2.301228e+00
  1.422867e+01    2.265725e+00
  1.424455e+01    2.247331e+00
  1.426042e+01    2.277375e+00
  1.427630e+01    2.283865e+00
  1.429217e+01    2.227599e+00
  1.430805e+01    2.236537e+00
  1.432392e+01    2.235325e+00
  1.433980e+01    2.236944e+00
  1.435568e+01    2.254665e+00
  1.437155e+01    2.233911e+00
  1.438743e+01    2.201023e+00
  1.440330e+01    2.185728e+00
  1.441918e+01    2.212127e+00
  1.443505e+01    2.185071e+00
  1.445093e+01    2.166618e+00
  1.446680e+01    2.188688e+00
  1.448268e+01    2.187240e+00
  1.449856e+01    2.184510e+00
  1.451443e+01    2.201459e+00
  1.453031e+01    2.233628e+00
  1.454618e+01    2.182213e+00
  1.456206e+01    2.144199e+00
  1.457793e+01    2.192310e+00
  1.459381e+01    2.196008e+00
  1.460968e+01    2.193039e+00
  1.462556e+01    2.198344e+00
  1.464144e+01    2.204473e+00
  1.465731e+01    2.187568e+00
  1.467319e+01    2.211545e+00
  1.468906e+01    2.194225e+00
  1.470494e+01    2.174702e+00
  1.472081e+01    2.165884e+00
  1.473669e+01    2.182863e+00
  1.475256e+01    2.163546e+00
  1.476844e+01    2.140981e+00
  1.478432e+01    2.186334e+00
  1.480019e+01    2.197390e+00
  1.481607e+01    2.148575e+00
  1.483194e+01    2.161166e+00
  1.484782e+01    2.190290e+00
  1.486369e+01    2.190155e+00
  1.487957e+01    2.202196e+00
  1.489544e+01    2.225265e+00
  1.491132e+01    2.222010e+00
  1.492720e+01    2.228376e+00
  1.494307e+01    2.269623e+00
  1.495895e+01    2.279074e+00
  1.497482e+01    2.318496e+00
  1.499070e+01    2.363953e+00
  1.500657e+01    2.395845e+00
  1.502245e+01    2.496528e+00
  1.503832e+01    2.543133e+00
  1.505420e+01    2.620977e+00
  1.507008e+01    2.789849e+00
  1.508595e+01    2.949837e+00
  1.510183e+01    3.138524e+00
  1.511770e+01    3.488708e+00
  1.513358e+01    3.803110e+00
  1.514945e+01    4.141596e+00
  1.516533e+01    4.493222e+00
  1.518120e+01    4.857940e+00
  1.519708e+01    5.183259e+00
  1.521296e+01    5.403139e+00
  1.522883e+01    5.513861e+00
  1.524471e+01    5.703486e+00
  1.526058e+01    5.721035e+00
  1.527646e+01    5.649926e+00
  1.529233e+01    5.416115e+00
  1.530821e+01    5.051112e+00
  1.532409e+01    4.591209e+00
  1.533996e+01    4.135669e+00
  1.535584e+01    3.700001e+00
  1.537171e+01    3.352880e+00
  1.538759e+01    3.110387e+00
  1.540346e+01    2.902626e+00
  1.541934e+01    2.736336e+00
  1.543521e+01    2.558635e+00
  1.545109e+01    2.434881e+00
  1.546697e+01    2.404372e+00
  1.548284e+01    2.327886e+00
  1.549872e+01    2.285995e+00
  1.551459e+01    2.204028e+00
  1.553047e+01    2.175418e+00
  1.554634e+01    2.156266e+00
  1.556222e+01    2.134849e+00
  1.557809e+01    2.133482e+00
  1.559397e+01    2.035389e+00
  1.560985e+01    2.026387e+00
  1.562572e+01    2.027973e+00
  1.564160e+01    2.053546e+00
  1.565747e+01    1.985242e+00
  1.567335e+01    1.964334e+00
  1.568922e+01    1.962333e+00
  1.570510e+01    1.949457e+00
  1.572097e+01    1.954273e+00
  1.573685e+01    1.955442e+00
  1.575273e+01    1.973985e+00
  1.576860e+01    1.937016e+00
  1.578448e+01    1.929878e+00
  1.580035e+01    1.910765e+00
  1.581623e+01    1.886000e+00
  1.583210e+01    1.885005e+00
  1.584798e+01    1.870067e+00
  1.586385e+01    1.904166e+00
  1.587973e+01    1.897292e+00
  1.589561e+01    1.881186e+00
  1.591148e+01    1.910345e+00
  1.592736e+01    1.880296e+00
  1.594323e+01    1.848311e+00
  1.595911e+01    1.851871e+00
  1.597498e+01    1.847180e+00
  1.599086e+01    1.843097e+00
  1.600673e+01    1.838735e+00
  1.602261e+01    1.820365e+00
  1.603849e+01    1.815061e+00
  1.605436e+01    1.826236e+00
  1.607024e+01    1.791138e+00
  1.608611e+01    1.800212e+00
  1.610199e+01    1.820461e+00
  1.611786e+01    1.838293e+00
  1.613374e+01    1.845252e+00
  1.614961e+01    1.812307e+00
  1.616549e+01    1.790363e+00
  1.618137e+01    1.811548e+00
  1.619724e+01    1.813101e+00
  1.621312e+01    1.767567e+00
  1.622899e+01    1.776695e+00
  1.624487e+01    1.788361e+00
  1.626074e+01    1.795268e+00
  1.627662e+01    1.787508e+00
  1.629250e+01    1.789783e+00
  1.630837e+01    1.790909e+00
  1.632425e+01    1.797179e+00
  1.634012e+01    1.787465e+00
  1.635600e+01    1.757785e+00
  1.637187e+01    1.749012e+00
  1.638775e+01    1.730570e+00
  1.640362e+01    1.717239e+00
  1.641950e+01    1.745329e+00
  1.643538e+01    1.731673e+00
  1.645125e+01    1.730785e+00
  1.646713e+01    1.706875e+00
  1.648300e+01    1.737037e+00
  1.649888e+01    1.736208e+00
  1.651475e+01    1.695780e+00
  1.653063e+01    1.699771e+00
  1.654650e+01    1.705501e+00
  1.656238e+01    1.668178e+00
  1.657826e+01    1.690411e+00
  1.659413e+01    1.749326e+00
  1.661001e+01    1.743794e+00
  1.662588e+01    1.722558e+00
  1.664176e+01    1.736220e+00
  1.665763e+01    1.744735e+00
  1.667351e+01    1.699371e+00
  1.668938e+01    1.684922e+00
  1.670526e+01    1.728092e+00
  1.672114e+01    1.718553e+00
  1.673701e+01    1.682616e+00
  1.675289e+01    1.652543e+00
  1.676876e+01    1.667484e+00
  1.678464e+01    1.669874e+00
  1.680051e+01    1.718136e+00
  1.681639e+01    1.681161e+00
  1.683226e+01    1.663581e+00
  1.684814e+01    1.671184e+00
  1.686402e+01    1.661751e+00
  1.687989e+01    1.693729e+00
  1.689577e+01    1.662314e+00
  1.691164e+01    1.650103e+00
  1.692752e+01    1.646473e+00
  1.694339e+01    1.677397e+00
  1.695927e+01    1.665508e+00
  1.697514e+01    1.636639e+00
  1.699102e+01    1.628300e+00
  1.700690e+01    1.643311e+00
  1.702277e+01    1.656989e+00
  1.703865e+01    1.655109e+00
  1.705452e+01    1.647813e+00
  1.707040e+01    1.652063e+00
  1.708627e+01    1.664050e+00
  1.710215e+01    1.620946e+00
  1.711802e+01    1.626880e+00
  1.713390e+01    1.612297e+00
  1.714978e+01    1.611593e+00
  1.716565e+01    1.598121e+00
  1.718153e+01    1.619259e+00
  1.719740e+01    1.598059e+00
  1.721328e+01    1.594931e+00
  1.722915e+01    1.602634e+00
  1.724503e+01    1.626393e+00
  1.726091e+01    1.631890e+00
  1.727678e+01    1.601973e+00
  1.729266e+01    1.570474e+00
  1.730853e+01    1.592818e+00
  1.732441e+01    1.565706e+00
  1.734028e+01    1.592822e+00
  1.735616e+01    1.590205e+00
  1.737203e+01    1.577109e+00
  1.738791e+01    1.569038e+00
  1.740379e+01    1.564968e+00
  1.741966e+01    1.577716e+00
  1.743554e+01    1.557140e+00
  1.745141e+01    1.563859e+00
  1.746729e+01    1.597073e+00
  1.748316e+01    1.568530e+00
  1.749904e+01    1.555348e+00
  1.751491e+01    1.549768e+00
  1.753079e+01    1.537582e+00
  1.754667e+01    1.566471e+00
  1.756254e+01    1.546390e+00
  1.757842e+01    1.588330e+00
  1.759429e+01    1.579027e+00
  1.761017e+01    1.558944e+00
  1.762604e+01    1.537974e+00
  1.764192e+01    1.541131e+00
  1.765779e+01    1.583816e+00
  1.767367e+01    1.554512e+00
  1.768955e+01    1.529861e+00
  1.770542e+01    1.561744e+00
  1.772130e+01    1.544450e+00
  1.773717e+01    1.561113e+00
  1.775305e+01    1.550930e+00
  1.776892e+01    1.536062e+00
  1.778480e+01    1.504947e+00
  1.780067e+01    1.550679e+00
  1.781655e+01    1.539372e+00
  1.783243e+01    1.511427e+00
  1.784830e+01    1.516201e+00
  1.786418e+01    1.479416e+00
  1.788005e+01    1.513099e+00
  1.789593e+01    1.515470e+00
  1.791180e+01    1.479621e+00
  1.792768e+01    1.481919e+00
  1.794355e+01    1.509922e+00
  1.795943e+01    1.491658e+00
  1.797531e+01    1.487071e+00
  1.799118e+01    1.449983e+00
  1.800706e+01    1.482239e+00
  1.802293e+01    1.456006e+00
  1.803881e+01    1.488345e+00
  1.805468e+01    1.476617e+00
  1.807056e+01    1.498731e+00
  1.808643e+01    1.498520e+00
  1.810231e+01    1.488564e+00
  1.811819e+01    1.460482e+00
  1.813406e+01    1.494594e+00
  1.814994e+01    1.472148e+00
  1.816581e+01    1.441479e+00
  1.818169e+01    1.454869e+00
  1.819756e+01    1.465777e+00
  1.821344e+01    1.454401e+00
  1.822932e+01    1.484027e+00
  1.824519e+01    1.450747e+00
  1.826107e+01    1.469118e+00
  1.827694e+01    1.468916e+00
  1.829282e+01    1.468485e+00
  1.830869e+01    1.465294e+00
  1.832457e+01    1.442714e+00
  1.834044e+01    1.424539e+00
  1.835632e+01    1.420535e+00
  1.837220e+01    1.428245e+00
  1.838807e+01    1.459793e+00
  1.840395e+01    1.443735e+00
  1.841982e+01    1.432611e+00
  1.843570e+01    1.452347e+00
  1.845157e+01    1.439018e+00
  1.846745e+01    1.415473e+00
  1.848332e+01    1.429847e+00
  1.849920e+01    1.413730e+00
  1.851508e+01    1.414797e+00
  1.853095e+01    1.431082e+00
  1.854683e+01    1.413695e+00
  1.856270e+01    1.410380e+00
  1.857858e+01    1.437124e+00
  1.859445e+01    1.411856e+00
  1.861033e+01    1.398799e+00
  1.862620e+01    1.432813e+00
  1.864208e+01    1.423953e+00
  1.865796e+01    1.401246e+00
  1.867383e+01    1.381937e+00
  1.868971e+01    1.395897e+00
  1.870558e+01    1.381439e+00
  1.872146e+01    1.394666e+00
  1.873733e+01    1.424354e+00
  1.875321e+01    1.427617e+00
  1.876908e+01    1.391088e+00
  1.878496e+01    1.383101e+00
  1.880084e+01    1.380590e+00
  1.881671e+01    1.400110e+00
  1.883259e+01    1.409497e+00
  1.884846e+01    1.408868e+00
  1.886434e+01    1.411934e+00
  1.888021e+01    1.371222e+00
  1.889609e+01    1.350495e+00
  1.891196e+01    1.369289e+00
  1.892784e+01    1.367670e+00
  1.894372e+01    1.386072e+00
  1.895959e+01    1.394099e+00
  1.897547e+01    1.383392e+00
  1.899134e+01    1.395315e+00
  1.900722e+01    1.385480e+00
  1.902309e+01    1.341958e+00
  1.903897e+01    1.337479e+00
  1.905484e+01    1.363740e+00
  1.907072e+01    1.364005e+00
  1.908660e+01    1.364511e+00
  1.910247e+01    1.375786e+00
  1.911835e+01    1.354674e+00
  1.913422e+01    1.335199e+00
  1.915010e+01    1.387272e+00
  1.916597e+01    1.369128e+00
  1.918185e+01    1.317938e+00
  1.919773e+01    1.338962e+00
  1.921360e+01    1.357167e+00
  1.922948e+01    1.373506e+00
  1.924535e+01    1.318989e+00
  1.926123e+01    1.359758e+00
  1.927710e+01    1.346211e+00
  1.929298e+01    1.333109e+00
  1.930885e+01    1.340483e+00
  1.932473e+01    1.331414e+00
  1.934061e+01    1.331962e+00
  1.935648e+01    1.322845e+00
  1.937236e+01    1.331740e+00
  1.938823e+01    1.358031e+00
  1.940411e+01    1.319781e+00
  1.941998e+01    1.312039e+00
  1.943586e+01    1.320889e+00
  1.945173e+01    1.359765e+00
  1.946761e+01    1.352353e+00
  1.948349e+01    1.311613e+00
  1.949936e+01    1.313700e+00
  1.951524e+01    1.335909e+00
  1.953111e+01    1.326335e+00
  1.954699e+01    1.294946e+00
  1.956286e+01    1.294163e+00
  1.957874e+01    1.286393e+00
  1.959461e+01    1.299375e+00
  1.961049e+01    1.303098e+00
  1.962637e+01    1.285263e+00
  1.964224e+01    1.296884e+00
  1.965812e+01    1.276565e+00
  1.967399e+01    1.267457e+00
  1.968987e+01    1.320856e+00
  1.970574e+01    1.281440e+00
  1.972162e+01    1.294165e+00
  1.973749e+01    1.320984e+00
  1.975337e+01    1.291968e+00
  1.976925e+01    1.292966e+00
  1.978512e+01    1.283716e+00
  1.980100e+01    1.269615e+00
  1.981687e+01    1.279146e+00
  1.983275e+01    1.290260e+00
  1.984862e+01    1.268287e+00
  1.986450e+01    1.280387e+00
  1.988037e+01    1.282418e+00
  1.989625e+01    1.274837e+00
  1.991213e+01    1.264092e+00
  1.992800e+01    1.282083e+00
  1.994388e+01    1.266180e+00
  1.995975e+01    1.256874e+00
  1.997563e+01    1.253624e+00
  1.999150e+01    1.265351e+00
  2.000738e+01    1.295410e+00
  2.002325e+01    1.268381e+00
  2.003913e+01    1.275133e+00
  2.005501e+01    1.289132e+00
  2.007088e+01    1.264277e+00
  2.008676e+01    1.236477e+00
  2.010263e+01    1.236673e+00
  2.011851e+01    1.247765e+00
  2.013438e+01    1.259758e+00
  2.015026e+01    1.261364e+00
  2.016614e+01    1.279080e+00
  2.018201e+01    1.265504e+00
  2.019789e+01    1.244465e+00
  2.021376e+01    1.244060e+00
  2.022964e+01    1.239669e+00
  2.024551e+01    1.254565e+00
  2.026139e+01    1.242793e+00
  2.027726e+01    1.221489e+00
  2.029314e+01    1.231030e+00
  2.030902e+01    1.230860e+00
  2.032489e+01    1.247700e+00
  2.034077e+01    1.236547e+00
  2.035664e+01    1.239102e+00
  2.037252e+01    1.218402e+00
  2.038839e+01    1.229837e+00
  2.040427e+01    1.252918e+00
  2.042014e+01    1.230313e+00
  2.043602e+01    1.220362e+00
  2.045190e+01    1.223593e+00
  2.046777e+01    1.216878e+00
  2.048365e+01    1.245833e+00
  2.049952e+01    1.225675e+00
  2.051540e+01    1.197074e+00
  2.053127e+01    1.219808e+00
  2.054715e+01    1.217710e+00
  2.056302e+01    1.220239e+00
  2.057890e+01    1.222692e+00
  2.059478e+01    1.216387e+00
  2.061065e+01    1.223400e+00
  2.062653e+01    1.227621e+00
  2.064240e+01    1.232589e+00
  2.065828e+01    1.213730e+00
  2.067415e+01    1.242123e+00
  2.069003e+01    1.243969e+00
  2.070590e+01    1.211958e+00
  2.072178e+01    1.193130e+00
  2.073766e+01    1.203990e+00
  2.075353e+01    1.194519e+00
  2.076941e+01    1.197511e+00
  2.078528e+01    1.207508e+00
  2.080116e+01    1.210822e+00
  2.081703e+01    1.216754e+00
  2.083291e+01    1.203124e+00
  2.084878e+01    1.184627e+00
  2.086466e+01    1.207922e+00
  2.088054e+01    1.238450e+00
  2.089641e+01    1.195618e+00
  2.091229e+01    1.204789e+00
  2.092816e+01    1.227933e+00
  2.094404e+01    1.214586e+00
  2.095991e+01    1.213875e+00
  2.097579e+01    1.198286e+00
  2.099166e+01    1.179568e+00
  2.100754e+01    1.194385e+00
  2.102342e+01    1.199460e+00
  2.103929e+01    1.217962e+00
  2.105517e+01    1.214335e+00
  2.107104e+01    1.219367e+00
  2.108692e+01    1.194615e+00
  2.110279e+01    1.229782e+00
  2.111867e+01    1.214643e+00
  2.113455e+01    1.223610e+00
  2.115042e+01    1.239056e+00
  2.116630e+01    1.240301e+00
  2.118217e+01    1.199769e+00
  2.119805e+01    1.211637e+00
  2.121392e+01    1.220260e+00
  2.122980e+01    1.245893e+00
  2.124567e+01    1.246559e+00
  2.126155e+01    1.227083e+00
  2.127743e+01    1.218419e+00
  2.129330e+01    1.260468e+00
  2.130918e+01    1.249549e+00
  2.132505e+01    1.232533e+00
  2.134093e+01    1.258944e+00
  2.135680e+01    1.282977e+00
  2.137268e+01    1.274475e+00
  2.138855e+01    1.271232e+00
  2.140443e+01    1.286402e+00
  2.142031e+01    1.296571e+00
  2.143618e+01    1.326976e+00
  2.145206e+01    1.349238e+00
  2.146793e+01    1.361656e+00
  2.148381e+01    1.386822e+00
  2.149968e+01    1.383558e+00
  2.151556e+01    1.409584e+00
  2.153143e+01    1.440083e+00
  2.154731e+01    1.503322e+00
  2.156319e+01    1.553524e+00
  2.157906e+01    1.598510e+00
  2.159494e+01    1.665486e+00
  2.161081e+01    1.745756e+00
  2.162669e+01    1.794949e+00
  2.164256e+01    1.904606e+00
  2.165844e+01    2.048222e+00
  2.167431e+01    2.253268e+00
  2.169019e+01    2.455165e+00
  2.170607e+01    2.739207e+00
  2.172194e+01    3.050028e+00
  2.173782e+01    3.462254e+00
  2.175369e+01    3.939375e+00
  2.176957e+01    4.550070e+00
  2.178544e+01    5.131837e+00
  2.180132e+01    5.780159e+00
  2.181719e+01    6.441176e+00
  2.183307e+01    7.089060e+00
  2.184895e+01    7.702853e+00
  2.186482e+01    8.241710e+00
  2.188070e+01    8.643572e+00
  2.189657e+01    8.804239e+00
  2.191245e+01    8.636725e+00
  2.192832e+01    8.165708e+00
  2.194420e+01    7.391449e+00
  2.196007e+01    6.534389e+00
  2.197595e+01    5.582662e+00
  2.199183e+01    4.776091e+00
  2.200770e+01    4.076385e+00
  2.202358e+01    3.544451e+00
  2.203945e+01    3.133878e+00
  2.205533e+01    2.776184e+00
  2.207120e+01    2.502598e+00
  2.208708e+01    2.294053e+00
  2.210296e+01    2.114616e+00
  2.211883e+01    1.960943e+00
  2.213471e+01    1.839160e+00
  2.215058e+01    1.755310e+00
  2.216646e+01    1.666173e+00
  2.218233e+01    1.578234e+00
  2.219821e+01    1.516818e+00
  2.221408e+01    1.470446e+00
  2.222996e+01    1.394356e+00
  2.224584e+01    1.378558e+00
  2.226171e+01    1.359406e+00
  2.227759e+01    1.335298e+00
  2.229346e+01    1.303501e+00
  2.230934e+01    1.283958e+00
  2.232521e+01    1.233551e+00
  2.234109e+01    1.224299e+00
  2.235696e+01    1.220726e+00
  2.237284e+01    1.210027e+00
  2.238872e+01    1.196833e+00
  2.240459e+01    1.187240e+00
  2.242047e+01    1.187088e+00
  2.243634e+01    1.177632e+00
  2.245222e+01    1.130568e+00
  2.246809e+01    1.144599e+00
  2.248397e+01    1.137446e+00
  2.249984e+01    1.138185e+00
  2.251572e+01    1.135090e+00
  2.253160e+01    1.111635e+00
  2.254747e+01    1.131935e+00
  2.256335e+01    1.134536e+00
  2.257922e+01    1.075144e+00
  2.259510e+01    1.097334e+00
  2.261097e+01    1.102119e+00
  2.262685e+01    1.109500e+00
  2.264272e+01    1.098342e+00
  2.265860e+01    1.085133e+00
  2.267448e+01    1.066250e+00
  2.269035e+01    1.070337e+00
  2.270623e+01    1.067389e+00
  2.272210e+01    1.063384e+00
  2.273798e+01    1.048828e+00
  2.275385e+01    1.045609e+00
  2.276973e+01    1.038268e+00
  2.278560e+01    1.042244e+00
  2.280148e+01    1.032983e+00
  2.281736e+01    1.047448e+00
  2.283323e+01    1.041330e+00
  2.284911e+01    1.052547e+00
  2.286498e+01    1.030129e+00
  2.288086e+01    1.044191e+00
  2.289673e+01    1.028136e+00
  2.291261e+01    1.013668e+00
  2.292848e+01    1.013603e+00
  2.294436e+01    1.007898e+00
  2.296024e+01    9.991941e-01
  2.297611e+01    1.017431e+00
  2.299199e+01    1.036715e+00
  2.300786e+01    1.001488e+00
  2.302374e+01    9.942173e-01
  2.303961e+01    9.922911e-01
  2.305549e+01    1.002588e+00
  2.307137e+01    1.019390e+00
  2.308724e+01    1.016327e+00
  2.310312e+01    9.883907e-01
  2.311899e+01    9.783227e-01
  2.313487e+01    9.816367e-01
  2.315074e+01    1.008594e+00
  2.316662e+01    9.996524e-01
  2.318249e+01    9.754373e-01
  2.319837e+01    9.812526e-01
  2.321425e+01    9.948553e-01
  2.323012e+01    9.638701e-01
  2.324600e+01    9.710155e-01
  2.326187e+01    9.707488e-01
  2.327775e+01    9.788392e-01
  2.329362e+01    9.914931e-01
  2.330950e+01    9.684671e-01
  2.332537e+01    9.668148e-01
  2.334125e+01    9.926391e-01
  2.335713e+01    9.680389e-01
  2.337300e+01    9.733524e-01
  2.338888e+01    9.764462e-01
  2.340475e+01    9.646443e-01
  2.342063e+01    9.720129e-01
  2.343650e+01    9.568161e-01
  2.345238e+01    9.311878e-01
  2.346825e+01    9.472367e-01
  2.348413e+01    9.540451e-01
  2.350001e+01    9.631802e-01
  2.351588e+01    9.511349e-01
  2.353176e+01    9.434155e-01
  2.354763e+01    9.538737e-01
  2.356351e+01    9.577744e-01
  2.357938e+01    9.453683e-01
  2.359526e+01    9.538978e-01
  2.361113e+01    9.596431e-01
  2.362701e+01    9.741147e-01
  2.364289e+01    9.432029e-01
  2.365876e+01    9.205666e-01
  2.367464e+01    9.385117e-01
  2.369051e+01    9.341356e-01
  2.370639e+01    9.317815e-01
  2.372226e+01    9.441462e-01
  2.373814e+01    9.128976e-01
  2.375401e+01    9.144669e-01
  2.376989e+01    9.120372e-01
  2.378577e+01    9.069883e-01
  2.380164e+01    8.954999e-01
  2.381752e+01    9.060889e-01
  2.383339e+01    9.082758e-01
  2.384927e+01    9.132512e-01
  2.386514e+01    9.061258e-01
  2.388102e+01    9.100705e-01
  2.389689e+01    8.979116e-01
  2.391277e+01    8.892272e-01
  2.392865e+01    8.908888e-01
  2.394452e+01    8.772900e-01
  2.396040e+01    9.054480e-01
  2.397627e+01    8.874505e-01
  2.399215e+01    8.781704e-01
  2.400802e+01    8.941906e-01
  2.402390e+01    9.010999e-01
  2.403978e+01    8.961551e-01
  2.405565e+01    8.939657e-01
  2.407153e+01    8.764144e-01
  2.408740e+01    8.689984e-01
  2.410328e+01    8.579332e-01
  2.411915e+01    8.783184e-01
  2.413503e+01    8.723358e-01
  2.415090e+01    8.810460e-01
  2.416678e+01    8.919830e-01
  2.418266e+01    8.816432e-01
  2.419853e+01    8.801527e-01
  2.421441e+01    8.785509e-01
  2.423028e+01    8.568761e-01
  2.424616e+01    8.628737e-01
  2.426203e+01    8.767028e-01
  2.427791e+01    8.872039e-01
  2.429378e+01    8.760610e-01
  2.430966e+01    8.770990e-01
  2.432554e+01    8.864516e-01
  2.434141e+01    8.770681e-01
  2.435729e+01    8.766276e-01
  2.437316e+01    8.957075e-01
  2.438904e+01    8.807943e-01
  2.440491e+01    8.913820e-01
  2.442079e+01    8.816652e-01
  2.443666e+01    8.843938e-01
  2.445254e+01    8.865818e-01
  2.446842e+01    8.767354e-01
  2.448429e+01    8.936649e-01
  2.450017e+01    8.829299e-01
  2.451604e+01    8.827283e-01
  2.453192e+01    8.940869e-01
  2.454779e+01    9.062677e-01
  2.456367e+01    8.834820e-01
  2.457954e+01    8.739744e-01
  2.459542e+01    8.805625e-01
  2.461130e+01    8.704144e-01
  2.462717e+01    8.757156e-01
  2.464305e+01    8.655952e-01
  2.465892e+01    8.651506e-01
  2.467480e+01    8.622897e-01
  2.469067e+01    8.769092e-01
  2.470655e+01    8.780723e-01
  2.472242e+01    8.667896e-01
  2.473830e+01    8.707431e-01
  2.475418e+01    8.641210e-01
  2.477005e+01    8.561947e-01
  2.478593e+01    8.642733e-01
  2.480180e+01    8.828105e-01
  2.481768e+01    8.790696e-01
  2.483355e+01    8.902436e-01
  2.484943e+01    8.798328e-01
  2.486530e+01    8.783567e-01
  2.488118e+01    8.960493e-01
  2.489706e+01    8.981528e-01
  2.491293e+01    8.834849e-01
  2.492881e+01    9.032691e-01
  2.494468e+01    8.757961e-01
  2.496056e+01    8.829519e-01
  2.497643e+01    9.002956e-01
  2.499231e+01    8.959376e-01
  2.500819e+01    8.960928e-01
  2.502406e+01    8.782766e-01
  2.503994e+01    8.877770e-01
  2.505581e+01    8.743261e-01
  2.507169e+01    8.690832e-01
  2.508756e+01    8.774828e-01
  2.510344e+01    8.944404e-01
  2.511931e+01    8.816110e-01
  2.513519e+01    8.891935e-01
  2.515107e+01    9.021579e-01
  2.516694e+01    9.108416e-01
  2.518282e+01    8.990676e-01
  2.519869e+01    9.031006e-01
  2.521457e+01    9.113194e-01
  2.523044e+01    8.964450e-01
  2.524632e+01    9.102703e-01
  2.526219e+01    9.303744e-01
  2.527807e+01    9.458699e-01
  2.529395e+01    9.344194e-01
  2.530982e+01    9.441769e-01
  2.532570e+01    9.588671e-01
  2.534157e+01    9.422348e-01
  2.535745e+01    9.445031e-01
  2.537332e+01    9.359531e-01
  2.538920e+01    9.760931e-01
  2.540507e+01    1.009722e+00
  2.542095e+01    1.001495e+00
  2.543683e+01    9.973675e-01
  2.545270e+01    1.004765e+00
  2.546858e+01    1.003199e+00
  2.548445e+01    1.031782e+00
  2.550033e+01    1.039449e+00
  2.551620e+01    1.041905e+00
  2.553208e+01    1.066588e+00
  2.554795e+01    1.101080e+00
  2.556383e+01    1.120743e+00
  2.557971e+01    1.154839e+00
  2.559558e+01    1.177526e+00
  2.561146e+01    1.187441e+00
  2.562733e+01    1.240401e+00
  2.564321e+01    1.283959e+00
  2.565908e+01    1.340553e+00
  2.567496e+01    1.375951e+00
  2.569083e+01    1.473216e+00
  2.570671e+01    1.555474e+00
  2.572259e+01    1.682089e+00
  2.573846e+01    1.838014e+00
  2.575434e+01    1.982635e+00
  2.577021e+01    2.177649e+00
  2.578609e+01    2.448199e+00
  2.580196e+01    2.762327e+00
  2.581784e+01    3.086364e+00
  2.583371e+01    3.574291e+00
  2.584959e+01    4.084342e+00
  2.586547e+01    4.626135e+00
  2.588134e+01    5.171736e+00
  2.589722e+01    5.732654e+00
  2.591309e+01    6.257878e+00
  2.592897e+01    6.689682e+00
  2.594484e+01    6.910962e+00
  2.596072e+01    6.995914e+00
  2.597660e+01    6.829082e+00
  2.599247e+01    6.466557e+00
  2.600835e+01    5.908655e+00
  2.602422e+01    5.272102e+00
  2.604010e+01    4.541153e+00
  2.605597e+01    3.898604e+00
  2.607185e+01    3.405955e+00
  2.608772e+01    2.953900e+00
  2.610360e+01    2.614769e+00
  2.611948e+01    2.337235e+00
  2.613535e+01    2.141645e+00
  2.615123e+01    1.938510e+00
  2.616710e+01    1.790907e+00
  2.618298e+01    1.651557e+00
  2.619885e+01    1.583775e+00
  2.621473e+01    1.461734e+00
  2.623060e+01    1.394911e+00
  2.624648e+01    1.337998e+00
  2.626236e+01    1.294167e+00
  2.627823e+01    1.249685e+00
  2.629411e+01    1.203288e+00
  2.630998e+01    1.161037e+00
  2.632586e+01    1.127253e+00
  2.634173e+01    1.104620e+00
  2.635761e+01    1.086992e+00
  2.637348e+01    1.065620e+00
  2.638936e+01    1.029365e+00
  2.640524e+01    1.042624e+00
  2.642111e+01    1.039124e+00
  2.643699e+01    1.033648e+00
  2.645286e+01    1.014439e+00
  2.646874e+01    1.006316e+00
  2.648461e+01    1.006606e+00
  2.650049e+01    9.786595e-01
  2.651636e+01    9.745408e-01
  2.653224e+01    9.789945e-01
  2.654812e+01    1.000082e+00
  2.656399e+01    9.723441e-01
  2.657987e+01    9.820626e-01
  2.659574e+01    9.732803e-01
  2.661162e+01    9.606372e-01
  2.662749e+01    9.633463e-01
  2.664337e+01    9.685414e-01
  2.665924e+01    9.773020e-01
  2.667512e+01    9.523211e-01
  2.669100e+01    9.668099e-01
  2.670687e+01    9.701432e-01
  2.672275e+01    9.699333e-01
  2.673862e+01    9.537657e-01
  2.675450e+01    9.529055e-01
  2.677037e+01    9.448016e-01
  2.678625e+01    9.612721e-01
  2.680212e+01    9.587033e-01
  2.681800e+01    9.697758e-01
  2.683388e+01    9.840403e-01
  2.684975e+01    9.901550e-01
  2.686563e+01    9.914163e-01
  2.688150e+01    9.904997e-01
  2.689738e+01    9.943091e-01
  2.691325e+01    9.864947e-01
  2.692913e+01    1.008224e+00
  2.694501e+01    1.007444e+00
  2.696088e+01    1.038026e+00
  2.697676e+01    1.057251e+00
  2.699263e+01    1.116971e+00
  2.700851e+01    1.123165e+00
  2.702438e+01    1.138848e+00
  2.704026e+01    1.190273e+00
  2.705613e+01    1.241237e+00
  2.707201e+01    1.283655e+00
  2.708789e+01    1.371044e+00
  2.710376e+01    1.475214e+00
  2.711964e+01    1.574229e+00
  2.713551e+01    1.699594e+00
  2.715139e+01    1.819426e+00
  2.716726e+01    1.945506e+00
  2.718314e+01    2.038351e+00
  2.719901e+01    2.057105e+00
  2.721489e+01    2.109363e+00
  2.723077e+01    2.120056e+00
  2.724664e+01    2.056700e+00
  2.726252e+01    1.950384e+00
  2.727839e+01    1.831622e+00
  2.729427e+01    1.679129e+00
  2.731014e+01    1.557192e+00
  2.732602e+01    1.464290e+00
  2.734189e+01    1.367133e+00
  2.735777e+01    1.289032e+00
  2.737365e+01    1.233509e+00
  2.738952e+01    1.177716e+00
  2.740540e+01    1.129417e+00
  2.742127e+01    1.071002e+00
  2.743715e+01    1.043322e+00
  2.745302e+01    1.051249e+00
  2.746890e+01    1.035359e+00
  2.748477e+01    9.991922e-01
  2.750065e+01    9.921652e-01
  2.751653e+01    9.680847e-01
  2.753240e+01    9.491740e-01
  2.754828e+01    9.110604e-01
  2.756415e+01    9.130744e-01
  2.758003e+01    9.200768e-01
  2.759590e+01    9.274371e-01
  2.761178e+01    9.151556e-01
  2.762765e+01    9.016401e-01
  2.764353e+01    9.152834e-01
  2.765941e+01    9.085071e-01
  2.767528e+01    9.015974e-01
  2.769116e+01    8.997308e-01
  2.770703e+01    8.747891e-01
  2.772291e+01    8.783643e-01
  2.773878e+01    8.904338e-01
  2.775466e+01    8.693440e-01
  2.777054e+01    8.888226e-01
  2.778641e+01    8.759074e-01
  2.780229e+01    8.653848e-01
  2.781816e+01    8.721297e-01
  2.783404e+01    8.641019e-01
  2.784991e+01    8.812419e-01
  2.786579e+01    8.586465e-01
  2.788166e+01    8.492604e-01
  2.789754e+01    8.682771e-01
  2.791342e+01    8.717265e-01
  2.792929e+01    8.675107e-01
  2.794517e+01    8.506118e-01
  2.796104e+01    8.721772e-01
  2.797692e+01    8.450699e-01
  2.799279e+01    8.681362e-01
  2.800867e+01    8.605427e-01
  2.802454e+01    8.635505e-01
  2.804042e+01    8.594639e-01
  2.805630e+01    8.525636e-01
  2.807217e+01    8.631698e-01
  2.808805e+01    8.438352e-01
  2.810392e+01    8.419235e-01
  2.811980e+01    8.405959e-01
  2.813567e+01    8.426787e-01
  2.815155e+01    8.523425e-01
  2.816742e+01    8.491246e-01
  2.818330e+01    8.218559e-01
  2.819918e+01    8.386816e-01
  2.821505e+01    8.455557e-01
  2.823093e+01    8.199593e-01
  2.824680e+01    8.199344e-01
  2.826268e+01    8.331034e-01
  2.827855e+01    8.402522e-01
  2.829443e+01    8.516585e-01
  2.831030e+01    8.516092e-01
  2.832618e+01    8.409565e-01
  2.834206e+01    8.308667e-01
  2.835793e+01    8.376424e-01
  2.837381e+01    8.523867e-01
  2.838968e+01    8.434261e-01
  2.840556e+01    8.244447e-01
  2.842143e+01    8.258898e-01
  2.843731e+01    8.419831e-01
  2.845318e+01    8.286347e-01
  2.846906e+01    8.110800e-01
  2.848494e+01    8.155006e-01
  2.850081e+01    8.364671e-01
  2.851669e+01    8.371414e-01
  2.853256e+01    8.207059e-01
  2.854844e+01    8.283346e-01
  2.856431e+01    8.199356e-01
  2.858019e+01    8.246308e-01
  2.859606e+01    8.171290e-01
  2.861194e+01    8.097962e-01
  2.862782e+01    8.143642e-01
  2.864369e+01    8.238965e-01
  2.865957e+01    8.063632e-01
  2.867544e+01    8.089406e-01
  2.869132e+01    8.125476e-01
  2.870719e+01    8.336498e-01
  2.872307e+01    8.296356e-01
  2.873895e+01    8.228971e-01
  2.875482e+01    8.117303e-01
  2.877070e+01    8.095825e-01
  2.878657e+01    8.162616e-01
  2.880245e+01    8.151671e-01
  2.881832e+01    8.013538e-01
  2.883420e+01    8.087084e-01
  2.885007e+01    8.287547e-01
  2.886595e+01    8.172036e-01
  2.888183e+01    8.124540e-01
  2.889770e+01    8.384813e-01
  2.891358e+01    8.337737e-01
  2.892945e+01    8.126289e-01
  2.894533e+01    8.220764e-01
  2.896120e+01    7.972255e-01
  2.897708e+01    8.138466e-01
  2.899295e+01    8.198366e-01
  2.900883e+01    8.207443e-01
  2.902471e+01    7.955160e-01
  2.904058e+01    7.934826e-01
  2.905646e+01    7.998905e-01
  2.907233e+01    8.050615e-01
  2.908821e+01    8.044032e-01
  2.910408e+01    8.045561e-01
  2.911996e+01    8.100455e-01
  2.913583e+01    8.229636e-01
  2.915171e+01    7.933847e-01
  2.916759e+01    7.955666e-01
  2.918346e+01    7.917030e-01
  2.919934e+01    7.992537e-01
  2.921521e+01    8.081751e-01
  2.923109e+01    7.825540e-01
  2.924696e+01    7.928464e-01
  2.926284e+01    8.104100e-01
  2.927871e+01    8.197874e-01
  2.929459e+01    7.922043e-01
  2.931047e+01    7.937483e-01
  2.932634e+01    7.985494e-01
  2.934222e+01    7.969191e-01
  2.935809e+01    8.102326e-01
  2.937397e+01    7.956229e-01
  2.938984e+01    7.923213e-01
  2.940572e+01    7.884195e-01
  2.942159e+01    7.844526e-01
  2.943747e+01    7.872413e-01
  2.945335e+01    7.877964e-01
  2.946922e+01    7.979153e-01
  2.948510e+01    8.156685e-01
  2.950097e+01    7.865804e-01
  2.951685e+01    7.801385e-01
  2.953272e+01    7.791712e-01
  2.954860e+01    7.939731e-01
  2.956447e+01    7.975869e-01
  2.958035e+01    8.010986e-01
  2.959623e+01    8.047395e-01
  2.961210e+01    8.008421e-01
  2.962798e+01    7.818521e-01
  2.964385e+01    7.651582e-01
  2.965973e+01    7.803618e-01
  2.967560e+01    7.933221e-01
  2.969148e+01    7.772554e-01
  2.970736e+01    7.805456e-01
  2.972323e+01    7.731153e-01
  2.973911e+01    7.796911e-01
  2.975498e+01    7.881476e-01
  2.977086e+01    7.614473e-01
  2.978673e+01    7.860001e-01
  2.980261e+01    7.733263e-01
  2.981848e+01    7.581742e-01
  2.983436e+01    7.864627e-01
  2.985024e+01    7.786141e-01
  2.986611e+01    7.650616e-01
  2.988199e+01    7.680308e-01
  2.989786e+01    7.908498e-01
  2.991374e+01    7.908230e-01
  2.992961e+01    7.810584e-01
  2.994549e+01    7.780811e-01
  2.996136e+01    7.724204e-01
  2.997724e+01    7.840707e-01
  2.999312e+01    7.713991e-01
  3.000899e+01    7.973360e-01
  3.002487e+01    8.063397e-01
  3.004074e+01    7.996418e-01
  3.005662e+01    8.106637e-01
  3.007249e+01    8.150561e-01
  3.008837e+01    8.030089e-01
  3.010424e+01    7.770787e-01
  3.012012e+01    7.906998e-01
  3.013600e+01    7.766092e-01
  3.015187e+01    7.887787e-01
  3.016775e+01    7.787290e-01
  3.018362e+01    7.839417e-01
  3.019950e+01    7.777666e-01
  3.021537e+01    7.800713e-01
  3.023125e+01    7.823128e-01
  3.024712e+01    7.795201e-01
  3.026300e+01    7.769611e-01
  3.027888e+01    7.918899e-01
  3.029475e+01    7.583126e-01
  3.031063e+01    7.588348e-01
  3.032650e+01    7.557304e-01
  3.034238e+01    7.564186e-01
  3.035825e+01    7.712380e-01
  3.037413e+01    7.791487e-01
  3.039000e+01    7.673842e-01
  3.040588e+01    7.711840e-01
  3.042176e+01    7.774556e-01
  3.043763e+01    7.556082e-01
  3.045351e+01    7.826602e-01
  3.046938e+01    7.915210e-01
  3.048526e+01    7.884505e-01
  3.050113e+01    7.704837e-01
  3.051701e+01    7.807959e-01
  3.053288e+01    7.691256e-01
  3.054876e+01    7.790793e-01
  3.056464e+01    7.835279e-01
  3.058051e+01    7.932928e-01
  3.059639e+01    7.766742e-01
  3.061226e+01    7.791566e-01
  3.062814e+01    7.866060e-01
  3.064401e+01    7.931507e-01
  3.065989e+01    7.664398e-01
  3.067577e+01    7.533792e-01
  3.069164e+01    7.710790e-01
  3.070752e+01    7.762530e-01
  3.072339e+01    7.629059e-01
  3.073927e+01    7.758924e-01
  3.075514e+01    7.781153e-01
  3.077102e+01    7.578096e-01
  3.078689e+01    7.691757e-01
  3.080277e+01    7.925355e-01
  3.081865e+01    7.720391e-01
  3.083452e+01    7.579377e-01
  3.085040e+01    7.724281e-01
  3.086627e+01    7.861032e-01
  3.088215e+01    7.725931e-01
  3.089802e+01    7.817242e-01
  3.091390e+01    7.787045e-01
  3.092977e+01    7.648536e-01
  3.094565e+01    7.680711e-01
  3.096153e+01    7.868627e-01
  3.097740e+01    7.795776e-01
  3.099328e+01    7.829769e-01
  3.100915e+01    7.883750e-01
  3.102503e+01    7.770689e-01
  3.104090e+01    7.582965e-01
  3.105678e+01    7.447394e-01
  3.107265e+01    7.511414e-01
  3.108853e+01    7.848997e-01
  3.110441e+01    8.021303e-01
  3.112028e+01    7.886295e-01
  3.113616e+01    7.706984e-01
  3.115203e+01    7.592199e-01
  3.116791e+01    7.782772e-01
  3.118378e+01    7.804688e-01
  3.119966e+01    7.892579e-01
  3.121553e+01    7.557618e-01
  3.123141e+01    7.575775e-01
  3.124729e+01    7.561921e-01
  3.126316e+01    7.690196e-01
  3.127904e+01    7.820402e-01
  3.129491e+01    7.822667e-01
  3.131079e+01    7.923269e-01
  3.132666e+01    7.889783e-01
  3.134254e+01    7.935150e-01
  3.135841e+01    7.953136e-01
  3.137429e+01    7.887799e-01
  3.139017e+01    7.810690e-01
  3.140604e+01    7.914034e-01
  3.142192e+01    7.997198e-01
  3.143779e+01    7.914383e-01
  3.145367e+01    8.087155e-01
  3.146954e+01    8.310474e-01
  3.148542e+01    8.351366e-01
  3.150129e+01    8.217494e-01
  3.151717e+01    8.383800e-01
  3.153305e+01    8.225128e-01
  3.154892e+01    8.255739e-01
  3.156480e+01    8.276902e-01
  3.158067e+01    8.488631e-01
  3.159655e+01    8.566317e-01
  3.161242e+01    8.906088e-01
  3.162830e+01    8.664277e-01
  3.164418e+01    9.010249e-01
  3.166005e+01    9.025381e-01
  3.167593e+01    9.565060e-01
  3.169180e+01    1.001192e+00
  3.170768e+01    1.015850e+00
  3.172355e+01    1.065635e+00
  3.173943e+01    1.091798e+00
  3.175530e+01    1.190289e+00
  3.177118e+01    1.251228e+00
  3.178706e+01    1.313193e+00
  3.180293e+01    1.433805e+00
  3.181881e+01    1.552253e+00
  3.183468e+01    1.649777e+00
  3.185056e+01    1.794088e+00
  3.186643e+01    1.926985e+00
  3.188231e+01    2.007186e+00
  3.189818e+01    2.051956e+00
  3.191406e+01    2.042983e+00
  3.192994e+01    1.989820e+00
  3.194581e+01    1.919676e+00
  3.196169e+01    1.781791e+00
  3.197756e+01    1.645592e+00
  3.199344e+01    1.538624e+00
  3.200931e+01    1.420977e+00
  3.202519e+01    1.297686e+00
  3.204106e+01    1.232098e+00
  3.205694e+01    1.158391e+00
  3.207282e+01    1.081306e+00
  3.208869e+01    1.027857e+00
  3.210457e+01    9.905409e-01
  3.212044e+01    9.532562e-01
  3.213632e+01    9.178415e-01
  3.215219e+01    8.804641e-01
  3.216807e+01    8.833010e-01
  3.218394e+01    8.544825e-01
  3.219982e+01    8.613597e-01
  3.221570e+01    8.555375e-01
  3.223157e+01    8.455398e-01
  3.224745e+01    8.212433e-01
  3.226332e+01    8.199633e-01
  3.227920e+01    8.071021e-01
  3.229507e+01    7.914650e-01
  3.231095e+01    8.015705e-01
  3.232682e+01    7.966284e-01
  3.234270e+01    8.010280e-01
  3.235858e+01    7.786195e-01
  3.237445e+01    7.983310e-01
  3.239033e+01    7.928492e-01
  3.240620e+01    7.577147e-01
  3.242208e+01    7.748159e-01
  3.243795e+01    7.759544e-01
  3.245383e+01    7.738689e-01
  3.246970e+01    7.946766e-01
  3.248558e+01    7.787378e-01
  3.250146e+01    7.741750e-01
  3.251733e+01    7.838921e-01
  3.253321e+01    7.750469e-01
  3.254908e+01    7.613631e-01
