# == pyFAI calibration ==
# Distance Sample to Detector: 0.3999999939076516 m
# PONI: 9.750e-02, 1.135e-01 m
# Rotations: -0.000175 0.000000 -0.000000 rad
# 
# == Fit2d calibration ==
# Distance Sample-beamCenter: 400.000 mm
# Center: x=1514.000, y=1300.000 pix
# Tilt: 0.010 deg  TiltPlanRot: 0.010 deg
# 
# Detector Detector	 Spline= None	 PixelSize= 7.500e-05, 7.500e-05 m
#    Detector has a mask: False 
#    Detector has a dark current: False 
#    detector has a flat field: False 
# 
# Wavelength: 6.888e-11 m
# Mask applied: user provided
# Dark current applied: False
# Flat field applied: False
# Polarization factor: 0.99
# Normalization factor: 1.0
# --> /home/myspot/data/2024_07_Rosario/Ru-CGO-ex/2024-07-27_003_Ru-CGO-ex_Reaction_dwell_000023_data_000129.dat
#       q_nm^-1             I 
  2.003187e-02    0.000000e+00
  3.590745e-02    0.000000e+00
  5.178302e-02    0.000000e+00
  6.765859e-02    8.938882e-02
  8.353417e-02    1.524704e-01
  9.940974e-02    4.772193e-02
  1.152853e-01    8.365171e-02
  1.311609e-01    8.623125e-02
  1.470365e-01    1.268832e-02
  1.629120e-01    2.331609e-02
  1.787876e-01    1.472907e-02
  1.946632e-01    3.970066e-02
  2.105388e-01    2.530363e-02
  2.264143e-01    2.606529e-02
  2.422899e-01    4.112427e-02
  2.581655e-01    5.667309e-02
  2.740411e-01    7.297698e-02
  2.899166e-01    2.881553e-02
  3.057922e-01    5.130026e-02
  3.216678e-01    4.367444e-02
  3.375433e-01    2.438130e-02
  3.534189e-01    7.836833e-02
  3.692945e-01    3.653817e-02
  3.851701e-01    1.295865e-02
  4.010456e-01    1.790947e-02
  4.169212e-01    4.299437e-02
  4.327968e-01    5.024914e-02
  4.486724e-01    4.790231e-02
  4.645479e-01    3.923258e-02
  4.804235e-01    3.249052e-02
  4.962991e-01    4.069296e-02
  5.121747e-01    3.524756e-02
  5.280502e-01    3.714324e-02
  5.439258e-01    5.062676e-02
  5.598014e-01    3.793848e-02
  5.756770e-01    3.244224e-02
  5.915525e-01    4.939209e-02
  6.074281e-01    4.682571e-02
  6.233037e-01    3.140724e-02
  6.391793e-01    5.123110e-02
  6.550548e-01    8.092941e-02
  6.709304e-01    5.631473e-02
  6.868060e-01    5.956382e-02
  7.026815e-01    3.739363e-02
  7.185571e-01    4.784238e-02
  7.344327e-01    4.482896e-02
  7.503083e-01    7.127478e-02
  7.661838e-01    9.261786e-02
  7.820594e-01    1.098570e-01
  7.979350e-01    1.329586e-01
  8.138106e-01    2.125033e-01
  8.296861e-01    2.880885e-01
  8.455617e-01    3.893267e-01
  8.614373e-01    5.056716e-01
  8.773129e-01    5.257740e-01
  8.931884e-01    5.559766e-01
  9.090640e-01    5.724440e-01
  9.249396e-01    6.712444e-01
  9.408152e-01    8.139557e-01
  9.566907e-01    8.726990e-01
  9.725663e-01    1.051161e+00
  9.884419e-01    1.174142e+00
  1.004317e+00    1.202986e+00
  1.020193e+00    1.290062e+00
  1.036069e+00    1.343606e+00
  1.051944e+00    1.417998e+00
  1.067820e+00    1.461191e+00
  1.083695e+00    1.478192e+00
  1.099571e+00    1.636992e+00
  1.115446e+00    1.643922e+00
  1.131322e+00    1.658133e+00
  1.147198e+00    1.634751e+00
  1.163073e+00    1.664026e+00
  1.178949e+00    1.680487e+00
  1.194824e+00    1.712069e+00
  1.210700e+00    1.968829e+00
  1.226575e+00    2.350995e+00
  1.242451e+00    2.509787e+00
  1.258327e+00    2.444412e+00
  1.274202e+00    2.592597e+00
  1.290078e+00    2.606228e+00
  1.305953e+00    2.523500e+00
  1.321829e+00    2.677907e+00
  1.337705e+00    2.689725e+00
  1.353580e+00    2.763693e+00
  1.369456e+00    2.802068e+00
  1.385331e+00    2.815418e+00
  1.401207e+00    2.837245e+00
  1.417082e+00    2.919288e+00
  1.432958e+00    2.853733e+00
  1.448834e+00    2.927692e+00
  1.464709e+00    3.154433e+00
  1.480585e+00    3.055801e+00
  1.496460e+00    3.036139e+00
  1.512336e+00    3.169947e+00
  1.528211e+00    3.063083e+00
  1.544087e+00    3.100280e+00
  1.559963e+00    3.226748e+00
  1.575838e+00    3.220042e+00
  1.591714e+00    3.311279e+00
  1.607589e+00    3.279746e+00
  1.623465e+00    3.267275e+00
  1.639340e+00    3.127239e+00
  1.655216e+00    3.065439e+00
  1.671092e+00    3.072190e+00
  1.686967e+00    3.076224e+00
  1.702843e+00    3.115086e+00
  1.718718e+00    3.060292e+00
  1.734594e+00    3.054525e+00
  1.750469e+00    3.072773e+00
  1.766345e+00    3.199353e+00
  1.782221e+00    3.146971e+00
  1.798096e+00    3.009273e+00
  1.813972e+00    3.007668e+00
  1.829847e+00    2.948786e+00
  1.845723e+00    2.933573e+00
  1.861598e+00    2.849718e+00
  1.877474e+00    2.948285e+00
  1.893350e+00    2.969846e+00
  1.909225e+00    3.047872e+00
  1.925101e+00    3.134150e+00
  1.940976e+00    3.100351e+00
  1.956852e+00    3.039756e+00
  1.972727e+00    2.888432e+00
  1.988603e+00    3.084603e+00
  2.004479e+00    3.173017e+00
  2.020354e+00    3.048657e+00
  2.036230e+00    3.071500e+00
  2.052105e+00    3.027479e+00
  2.067981e+00    2.909146e+00
  2.083856e+00    3.003527e+00
  2.099732e+00    3.086257e+00
  2.115608e+00    3.140049e+00
  2.131483e+00    3.115685e+00
  2.147359e+00    3.171708e+00
  2.163234e+00    3.209890e+00
  2.179110e+00    3.153659e+00
  2.194985e+00    3.071333e+00
  2.210861e+00    3.070903e+00
  2.226737e+00    3.116331e+00
  2.242612e+00    3.138291e+00
  2.258488e+00    3.158926e+00
  2.274363e+00    3.119555e+00
  2.290239e+00    3.092948e+00
  2.306115e+00    3.103711e+00
  2.321990e+00    3.088778e+00
  2.337866e+00    3.067209e+00
  2.353741e+00    3.121124e+00
  2.369617e+00    3.127898e+00
  2.385492e+00    3.007712e+00
  2.401368e+00    3.085506e+00
  2.417244e+00    3.238898e+00
  2.433119e+00    3.249192e+00
  2.448995e+00    3.207818e+00
  2.464870e+00    3.115228e+00
  2.480746e+00    3.080756e+00
  2.496621e+00    3.130048e+00
  2.512497e+00    3.268451e+00
  2.528373e+00    3.279018e+00
  2.544248e+00    3.282871e+00
  2.560124e+00    3.334230e+00
  2.575999e+00    3.253346e+00
  2.591875e+00    3.167617e+00
  2.607750e+00    3.191050e+00
  2.623626e+00    3.294130e+00
  2.639502e+00    3.324300e+00
  2.655377e+00    3.263935e+00
  2.671253e+00    3.287271e+00
  2.687128e+00    3.239350e+00
  2.703004e+00    3.088386e+00
  2.718879e+00    3.103449e+00
  2.734755e+00    3.203984e+00
  2.750631e+00    3.272506e+00
  2.766506e+00    3.307874e+00
  2.782382e+00    3.303457e+00
  2.798257e+00    3.254083e+00
  2.814133e+00    3.292937e+00
  2.830008e+00    3.368351e+00
  2.845884e+00    3.330913e+00
  2.861760e+00    3.281367e+00
  2.877635e+00    3.335798e+00
  2.893511e+00    3.342364e+00
  2.909386e+00    3.328730e+00
  2.925262e+00    3.320145e+00
  2.941137e+00    3.381570e+00
  2.957013e+00    3.407728e+00
  2.972889e+00    3.287258e+00
  2.988764e+00    3.280171e+00
  3.004640e+00    3.246534e+00
  3.020515e+00    3.316064e+00
  3.036391e+00    3.410300e+00
  3.052266e+00    3.467860e+00
  3.068142e+00    3.360166e+00
  3.084018e+00    3.299200e+00
  3.099893e+00    3.316058e+00
  3.115769e+00    3.348009e+00
  3.131644e+00    3.307972e+00
  3.147520e+00    3.373574e+00
  3.163395e+00    3.420525e+00
  3.179271e+00    3.349779e+00
  3.195147e+00    3.432223e+00
  3.211022e+00    3.348932e+00
  3.226898e+00    3.293819e+00
  3.242773e+00    3.320921e+00
  3.258649e+00    3.426158e+00
  3.274525e+00    3.354073e+00
  3.290400e+00    3.268318e+00
  3.306276e+00    3.340502e+00
  3.322151e+00    3.348135e+00
  3.338027e+00    3.390447e+00
  3.353902e+00    3.411923e+00
  3.369778e+00    3.382886e+00
  3.385654e+00    3.423518e+00
  3.401529e+00    3.458898e+00
  3.417405e+00    3.433541e+00
  3.433280e+00    3.453445e+00
  3.449156e+00    3.604111e+00
  3.465031e+00    3.458761e+00
  3.480907e+00    3.462599e+00
  3.496783e+00    3.463556e+00
  3.512658e+00    3.419497e+00
  3.528534e+00    3.390504e+00
  3.544409e+00    3.367711e+00
  3.560285e+00    3.434713e+00
  3.576160e+00    3.394075e+00
  3.592036e+00    3.418137e+00
  3.607912e+00    3.485658e+00
  3.623787e+00    3.389674e+00
  3.639663e+00    3.423462e+00
  3.655538e+00    3.489301e+00
  3.671414e+00    3.498977e+00
  3.687289e+00    3.404714e+00
  3.703165e+00    3.417331e+00
  3.719041e+00    3.395932e+00
  3.734916e+00    3.383324e+00
  3.750792e+00    3.430309e+00
  3.766667e+00    3.391168e+00
  3.782543e+00    3.468730e+00
  3.798418e+00    3.458861e+00
  3.814294e+00    3.470531e+00
  3.830170e+00    3.431181e+00
  3.846045e+00    3.442828e+00
  3.861921e+00    3.499293e+00
  3.877796e+00    3.602643e+00
  3.893672e+00    3.518476e+00
  3.909547e+00    3.483063e+00
  3.925423e+00    3.557650e+00
  3.941299e+00    3.551135e+00
  3.957174e+00    3.524583e+00
  3.973050e+00    3.514000e+00
  3.988925e+00    3.477016e+00
  4.004801e+00    3.490929e+00
  4.020676e+00    3.595126e+00
  4.036552e+00    3.552263e+00
  4.052428e+00    3.532885e+00
  4.068303e+00    3.498093e+00
  4.084179e+00    3.549785e+00
  4.100054e+00    3.547352e+00
  4.115930e+00    3.513947e+00
  4.131806e+00    3.531842e+00
  4.147681e+00    3.527573e+00
  4.163557e+00    3.549167e+00
  4.179432e+00    3.587383e+00
  4.195308e+00    3.587648e+00
  4.211183e+00    3.528556e+00
  4.227059e+00    3.541949e+00
  4.242935e+00    3.593278e+00
  4.258810e+00    3.592564e+00
  4.274686e+00    3.476365e+00
  4.290561e+00    3.512392e+00
  4.306437e+00    3.611056e+00
  4.322312e+00    3.657248e+00
  4.338188e+00    3.638622e+00
  4.354064e+00    3.492459e+00
  4.369939e+00    3.441536e+00
  4.385815e+00    3.577605e+00
  4.401690e+00    3.584118e+00
  4.417566e+00    3.601778e+00
  4.433441e+00    3.601026e+00
  4.449317e+00    3.617145e+00
  4.465193e+00    3.650253e+00
  4.481068e+00    3.616180e+00
  4.496944e+00    3.603071e+00
  4.512819e+00    3.609205e+00
  4.528695e+00    3.547656e+00
  4.544570e+00    3.621129e+00
  4.560446e+00    3.590502e+00
  4.576322e+00    3.662237e+00
  4.592197e+00    3.659572e+00
  4.608073e+00    3.683468e+00
  4.623948e+00    3.612618e+00
  4.639824e+00    3.555612e+00
  4.655699e+00    3.566928e+00
  4.671575e+00    3.596238e+00
  4.687451e+00    3.653757e+00
  4.703326e+00    3.644785e+00
  4.719202e+00    3.678516e+00
  4.735077e+00    3.649051e+00
  4.750953e+00    3.618786e+00
  4.766828e+00    3.683007e+00
  4.782704e+00    3.665132e+00
  4.798580e+00    3.653079e+00
  4.814455e+00    3.595554e+00
  4.830331e+00    3.682491e+00
  4.846206e+00    3.547489e+00
  4.862082e+00    3.542768e+00
  4.877957e+00    3.672698e+00
  4.893833e+00    3.661049e+00
  4.909709e+00    3.604198e+00
  4.925584e+00    3.719400e+00
  4.941460e+00    3.674552e+00
  4.957335e+00    3.626219e+00
  4.973211e+00    3.661680e+00
  4.989086e+00    3.739192e+00
  5.004962e+00    3.753372e+00
  5.020838e+00    3.660131e+00
  5.036713e+00    3.680774e+00
  5.052589e+00    3.712802e+00
  5.068464e+00    3.660207e+00
  5.084340e+00    3.700861e+00
  5.100216e+00    3.673455e+00
  5.116091e+00    3.659082e+00
  5.131967e+00    3.642436e+00
  5.147842e+00    3.664021e+00
  5.163718e+00    3.720965e+00
  5.179593e+00    3.644734e+00
  5.195469e+00    3.604602e+00
  5.211345e+00    3.578829e+00
  5.227220e+00    3.544796e+00
  5.243096e+00    3.625737e+00
  5.258971e+00    3.616015e+00
  5.274847e+00    3.607789e+00
  5.290722e+00    3.611038e+00
  5.306598e+00    3.634137e+00
  5.322474e+00    3.651861e+00
  5.338349e+00    3.746334e+00
  5.354225e+00    3.751321e+00
  5.370100e+00    3.655850e+00
  5.385976e+00    3.686239e+00
  5.401851e+00    3.670619e+00
  5.417727e+00    3.669376e+00
  5.433603e+00    3.548604e+00
  5.449478e+00    3.533221e+00
  5.465354e+00    3.576445e+00
  5.481229e+00    3.581557e+00
  5.497105e+00    3.572781e+00
  5.512980e+00    3.610206e+00
  5.528856e+00    3.585155e+00
  5.544732e+00    3.641798e+00
  5.560607e+00    3.607030e+00
  5.576483e+00    3.630343e+00
  5.592358e+00    3.640303e+00
  5.608234e+00    3.502960e+00
  5.624109e+00    3.508713e+00
  5.639985e+00    3.560763e+00
  5.655861e+00    3.633751e+00
  5.671736e+00    3.707334e+00
  5.687612e+00    3.636640e+00
  5.703487e+00    3.629993e+00
  5.719363e+00    3.529864e+00
  5.735238e+00    3.489927e+00
  5.751114e+00    3.531607e+00
  5.766990e+00    3.479508e+00
  5.782865e+00    3.490964e+00
  5.798741e+00    3.547050e+00
  5.814616e+00    3.539976e+00
  5.830492e+00    3.489200e+00
  5.846367e+00    3.513638e+00
  5.862243e+00    3.545329e+00
  5.878119e+00    3.543251e+00
  5.893994e+00    3.507062e+00
  5.909870e+00    3.494152e+00
  5.925745e+00    3.533595e+00
  5.941621e+00    3.542933e+00
  5.957497e+00    3.540896e+00
  5.973372e+00    3.602277e+00
  5.989248e+00    3.538495e+00
  6.005123e+00    3.483878e+00
  6.020999e+00    3.456333e+00
  6.036874e+00    3.485138e+00
  6.052750e+00    3.619558e+00
  6.068626e+00    3.616894e+00
  6.084501e+00    3.520579e+00
  6.100377e+00    3.570419e+00
  6.116252e+00    3.648603e+00
  6.132128e+00    3.646075e+00
  6.148003e+00    3.610655e+00
  6.163879e+00    3.630195e+00
  6.179755e+00    3.599211e+00
  6.195630e+00    3.555982e+00
  6.211506e+00    3.522326e+00
  6.227381e+00    3.525193e+00
  6.243257e+00    3.632975e+00
  6.259132e+00    3.631078e+00
  6.275008e+00    3.606660e+00
  6.290884e+00    3.585876e+00
  6.306759e+00    3.568487e+00
  6.322635e+00    3.577379e+00
  6.338510e+00    3.486454e+00
  6.354386e+00    3.512666e+00
  6.370261e+00    3.596910e+00
  6.386137e+00    3.627495e+00
  6.402013e+00    3.627119e+00
  6.417888e+00    3.571467e+00
  6.433764e+00    3.565562e+00
  6.449639e+00    3.545048e+00
  6.465515e+00    3.528866e+00
  6.481390e+00    3.585382e+00
  6.497266e+00    3.584386e+00
  6.513142e+00    3.575243e+00
  6.529017e+00    3.512821e+00
  6.544893e+00    3.513062e+00
  6.560768e+00    3.520756e+00
  6.576644e+00    3.543261e+00
  6.592519e+00    3.556651e+00
  6.608395e+00    3.546622e+00
  6.624271e+00    3.458951e+00
  6.640146e+00    3.531381e+00
  6.656022e+00    3.590430e+00
  6.671897e+00    3.483318e+00
  6.687773e+00    3.533788e+00
  6.703648e+00    3.546383e+00
  6.719524e+00    3.581500e+00
  6.735400e+00    3.565480e+00
  6.751275e+00    3.492234e+00
  6.767151e+00    3.509635e+00
  6.783026e+00    3.524438e+00
  6.798902e+00    3.549540e+00
  6.814777e+00    3.552171e+00
  6.830653e+00    3.565652e+00
  6.846529e+00    3.552989e+00
  6.862404e+00    3.546817e+00
  6.878280e+00    3.596066e+00
  6.894155e+00    3.589404e+00
  6.910031e+00    3.539657e+00
  6.925907e+00    3.516570e+00
  6.941782e+00    3.556034e+00
  6.957658e+00    3.590364e+00
  6.973533e+00    3.596889e+00
  6.989409e+00    3.589942e+00
  7.005284e+00    3.526528e+00
  7.021160e+00    3.564084e+00
  7.037036e+00    3.531213e+00
  7.052911e+00    3.457633e+00
  7.068787e+00    3.461000e+00
  7.084662e+00    3.464781e+00
  7.100538e+00    3.521792e+00
  7.116413e+00    3.497766e+00
  7.132289e+00    3.521924e+00
  7.148165e+00    3.445093e+00
  7.164040e+00    3.431428e+00
  7.179916e+00    3.427969e+00
  7.195791e+00    3.511877e+00
  7.211667e+00    3.514936e+00
  7.227542e+00    3.439535e+00
  7.243418e+00    3.494678e+00
  7.259294e+00    3.460660e+00
  7.275169e+00    3.464169e+00
  7.291045e+00    3.508230e+00
  7.306920e+00    3.465158e+00
  7.322796e+00    3.488669e+00
  7.338671e+00    3.524616e+00
  7.354547e+00    3.565967e+00
  7.370423e+00    3.486216e+00
  7.386298e+00    3.460669e+00
  7.402174e+00    3.466005e+00
  7.418049e+00    3.508391e+00
  7.433925e+00    3.495969e+00
  7.449800e+00    3.525721e+00
  7.465676e+00    3.502889e+00
  7.481552e+00    3.435679e+00
  7.497427e+00    3.397594e+00
  7.513303e+00    3.421636e+00
  7.529178e+00    3.511410e+00
  7.545054e+00    3.526102e+00
  7.560929e+00    3.534329e+00
  7.576805e+00    3.438733e+00
  7.592681e+00    3.445017e+00
  7.608556e+00    3.518426e+00
  7.624432e+00    3.509456e+00
  7.640307e+00    3.493282e+00
  7.656183e+00    3.506335e+00
  7.672058e+00    3.505102e+00
  7.687934e+00    3.477941e+00
  7.703810e+00    3.458248e+00
  7.719685e+00    3.448035e+00
  7.735561e+00    3.463707e+00
  7.751436e+00    3.466196e+00
  7.767312e+00    3.401742e+00
  7.783187e+00    3.453237e+00
  7.799063e+00    3.393860e+00
  7.814939e+00    3.378486e+00
  7.830814e+00    3.445337e+00
  7.846690e+00    3.464421e+00
  7.862565e+00    3.438974e+00
  7.878441e+00    3.421346e+00
  7.894317e+00    3.461291e+00
  7.910192e+00    3.458583e+00
  7.926068e+00    3.389941e+00
  7.941943e+00    3.391052e+00
  7.957819e+00    3.420517e+00
  7.973694e+00    3.436741e+00
  7.989570e+00    3.405584e+00
  8.005446e+00    3.429800e+00
  8.021321e+00    3.449550e+00
  8.037197e+00    3.458950e+00
  8.053072e+00    3.380303e+00
  8.068948e+00    3.425633e+00
  8.084823e+00    3.385076e+00
  8.100699e+00    3.406019e+00
  8.116575e+00    3.445732e+00
  8.132450e+00    3.371730e+00
  8.148326e+00    3.425958e+00
  8.164201e+00    3.437634e+00
  8.180077e+00    3.410726e+00
  8.195952e+00    3.435956e+00
  8.211828e+00    3.485819e+00
  8.227704e+00    3.483441e+00
  8.243579e+00    3.507935e+00
  8.259455e+00    3.434149e+00
  8.275330e+00    3.345385e+00
  8.291206e+00    3.394020e+00
  8.307081e+00    3.382396e+00
  8.322957e+00    3.396265e+00
  8.338833e+00    3.354019e+00
  8.354708e+00    3.354981e+00
  8.370584e+00    3.287470e+00
  8.386459e+00    3.390095e+00
  8.402335e+00    3.416052e+00
  8.418210e+00    3.393127e+00
  8.434086e+00    3.354464e+00
  8.449962e+00    3.311238e+00
  8.465837e+00    3.307591e+00
  8.481713e+00    3.340490e+00
  8.497588e+00    3.319485e+00
  8.513464e+00    3.344865e+00
  8.529339e+00    3.396171e+00
  8.545215e+00    3.374237e+00
  8.561091e+00    3.346200e+00
  8.576966e+00    3.337484e+00
  8.592842e+00    3.366547e+00
  8.608717e+00    3.401256e+00
  8.624593e+00    3.374074e+00
  8.640468e+00    3.356184e+00
  8.656344e+00    3.309403e+00
  8.672220e+00    3.269472e+00
  8.688095e+00    3.300455e+00
  8.703971e+00    3.343812e+00
  8.719846e+00    3.306898e+00
  8.735722e+00    3.265459e+00
  8.751598e+00    3.268389e+00
  8.767473e+00    3.316130e+00
  8.783349e+00    3.309413e+00
  8.799224e+00    3.335861e+00
  8.815100e+00    3.341305e+00
  8.830975e+00    3.324750e+00
  8.846851e+00    3.243501e+00
  8.862727e+00    3.325659e+00
  8.878602e+00    3.288349e+00
  8.894478e+00    3.239308e+00
  8.910353e+00    3.332105e+00
  8.926229e+00    3.353293e+00
  8.942104e+00    3.293779e+00
  8.957980e+00    3.264808e+00
  8.973856e+00    3.249600e+00
  8.989731e+00    3.314975e+00
  9.005607e+00    3.258709e+00
  9.021482e+00    3.243666e+00
  9.037358e+00    3.301115e+00
  9.053233e+00    3.298098e+00
  9.069109e+00    3.229661e+00
  9.084985e+00    3.277143e+00
  9.100860e+00    3.326701e+00
  9.116736e+00    3.299556e+00
  9.132611e+00    3.254054e+00
  9.148487e+00    3.209157e+00
  9.164362e+00    3.193153e+00
  9.180238e+00    3.244722e+00
  9.196114e+00    3.220773e+00
  9.211989e+00    3.210520e+00
  9.227865e+00    3.215637e+00
  9.243740e+00    3.217629e+00
  9.259616e+00    3.176823e+00
  9.275491e+00    3.168755e+00
  9.291367e+00    3.201052e+00
  9.307243e+00    3.157578e+00
  9.323118e+00    3.238785e+00
  9.338994e+00    3.247491e+00
  9.354869e+00    3.247479e+00
  9.370745e+00    3.255382e+00
  9.386620e+00    3.145877e+00
  9.402496e+00    3.171932e+00
  9.418372e+00    3.238256e+00
  9.434247e+00    3.258819e+00
  9.450123e+00    3.233088e+00
  9.465998e+00    3.210221e+00
  9.481874e+00    3.228939e+00
  9.497749e+00    3.266268e+00
  9.513625e+00    3.289204e+00
  9.529501e+00    3.216143e+00
  9.545376e+00    3.150200e+00
  9.561252e+00    3.233714e+00
  9.577127e+00    3.135353e+00
  9.593003e+00    3.156474e+00
  9.608878e+00    3.170438e+00
  9.624754e+00    3.192100e+00
  9.640630e+00    3.186346e+00
  9.656505e+00    3.178046e+00
  9.672381e+00    3.136847e+00
  9.688256e+00    3.073971e+00
  9.704132e+00    3.104115e+00
  9.720008e+00    3.156906e+00
  9.735883e+00    3.141515e+00
  9.751759e+00    3.185051e+00
  9.767634e+00    3.134429e+00
  9.783510e+00    3.112372e+00
  9.799385e+00    3.158621e+00
  9.815261e+00    3.164797e+00
  9.831137e+00    3.155295e+00
  9.847012e+00    3.118440e+00
  9.862888e+00    3.174316e+00
  9.878763e+00    3.187549e+00
  9.894639e+00    3.140755e+00
  9.910514e+00    3.082281e+00
  9.926390e+00    3.098966e+00
  9.942266e+00    3.091551e+00
  9.958141e+00    3.108408e+00
  9.974017e+00    3.127280e+00
  9.989892e+00    3.075061e+00
  1.000577e+01    3.091226e+00
  1.002164e+01    3.098995e+00
  1.003752e+01    3.103910e+00
  1.005339e+01    3.125217e+00
  1.006927e+01    3.115122e+00
  1.008515e+01    3.054031e+00
  1.010102e+01    3.050318e+00
  1.011690e+01    3.129858e+00
  1.013277e+01    3.148568e+00
  1.014865e+01    3.119864e+00
  1.016452e+01    3.130664e+00
  1.018040e+01    3.081620e+00
  1.019627e+01    3.074498e+00
  1.021215e+01    3.034781e+00
  1.022803e+01    3.011266e+00
  1.024390e+01    3.042213e+00
  1.025978e+01    3.086188e+00
  1.027565e+01    3.019414e+00
  1.029153e+01    2.996523e+00
  1.030740e+01    2.990141e+00
  1.032328e+01    3.039285e+00
  1.033915e+01    3.021669e+00
  1.035503e+01    3.012084e+00
  1.037091e+01    3.022331e+00
  1.038678e+01    3.091576e+00
  1.040266e+01    3.057484e+00
  1.041853e+01    3.056050e+00
  1.043441e+01    3.045657e+00
  1.045028e+01    3.066137e+00
  1.046616e+01    3.110107e+00
  1.048204e+01    3.075557e+00
  1.049791e+01    3.048616e+00
  1.051379e+01    2.986534e+00
  1.052966e+01    3.021976e+00
  1.054554e+01    3.009437e+00
  1.056141e+01    2.991720e+00
  1.057729e+01    3.033343e+00
  1.059316e+01    2.966244e+00
  1.060904e+01    2.965374e+00
  1.062492e+01    2.992529e+00
  1.064079e+01    2.990284e+00
  1.065667e+01    2.939730e+00
  1.067254e+01    2.975302e+00
  1.068842e+01    2.976304e+00
  1.070429e+01    2.974138e+00
  1.072017e+01    2.944164e+00
  1.073604e+01    2.966111e+00
  1.075192e+01    2.940088e+00
  1.076780e+01    2.873785e+00
  1.078367e+01    2.944194e+00
  1.079955e+01    2.937996e+00
  1.081542e+01    2.939877e+00
  1.083130e+01    2.957273e+00
  1.084717e+01    2.979351e+00
  1.086305e+01    3.042966e+00
  1.087892e+01    2.936951e+00
  1.089480e+01    2.884482e+00
  1.091068e+01    2.910154e+00
  1.092655e+01    2.971191e+00
  1.094243e+01    2.998676e+00
  1.095830e+01    2.922305e+00
  1.097418e+01    2.844535e+00
  1.099005e+01    2.829029e+00
  1.100593e+01    2.869487e+00
  1.102180e+01    2.837274e+00
  1.103768e+01    2.852194e+00
  1.105356e+01    2.929379e+00
  1.106943e+01    2.884840e+00
  1.108531e+01    2.882371e+00
  1.110118e+01    2.917128e+00
  1.111706e+01    2.892534e+00
  1.113293e+01    2.906430e+00
  1.114881e+01    2.897168e+00
  1.116468e+01    2.854528e+00
  1.118056e+01    2.884936e+00
  1.119644e+01    2.877423e+00
  1.121231e+01    2.825895e+00
  1.122819e+01    2.899392e+00
  1.124406e+01    2.939863e+00
  1.125994e+01    2.869494e+00
  1.127581e+01    2.861469e+00
  1.129169e+01    2.864164e+00
  1.130756e+01    2.884394e+00
  1.132344e+01    2.853995e+00
  1.133932e+01    2.860382e+00
  1.135519e+01    2.866742e+00
  1.137107e+01    2.800508e+00
  1.138694e+01    2.828635e+00
  1.140282e+01    2.866048e+00
  1.141869e+01    2.865884e+00
  1.143457e+01    2.786547e+00
  1.145045e+01    2.780993e+00
  1.146632e+01    2.814485e+00
  1.148220e+01    2.792045e+00
  1.149807e+01    2.795016e+00
  1.151395e+01    2.850805e+00
  1.152982e+01    2.827558e+00
  1.154570e+01    2.785095e+00
  1.156157e+01    2.777617e+00
  1.157745e+01    2.781490e+00
  1.159333e+01    2.813406e+00
  1.160920e+01    2.781352e+00
  1.162508e+01    2.752638e+00
  1.164095e+01    2.748149e+00
  1.165683e+01    2.717084e+00
  1.167270e+01    2.701181e+00
  1.168858e+01    2.742306e+00
  1.170445e+01    2.755223e+00
  1.172033e+01    2.733267e+00
  1.173621e+01    2.738717e+00
  1.175208e+01    2.782336e+00
  1.176796e+01    2.744659e+00
  1.178383e+01    2.733963e+00
  1.179971e+01    2.741889e+00
  1.181558e+01    2.768360e+00
  1.183146e+01    2.707838e+00
  1.184733e+01    2.678961e+00
  1.186321e+01    2.703130e+00
  1.187909e+01    2.712576e+00
  1.189496e+01    2.743317e+00
  1.191084e+01    2.716852e+00
  1.192671e+01    2.686038e+00
  1.194259e+01    2.762893e+00
  1.195846e+01    2.798707e+00
  1.197434e+01    2.766406e+00
  1.199021e+01    2.752732e+00
  1.200609e+01    2.725611e+00
  1.202197e+01    2.739594e+00
  1.203784e+01    2.715491e+00
  1.205372e+01    2.681621e+00
  1.206959e+01    2.665401e+00
  1.208547e+01    2.720845e+00
  1.210134e+01    2.734768e+00
  1.211722e+01    2.719690e+00
  1.213309e+01    2.708463e+00
  1.214897e+01    2.692754e+00
  1.216485e+01    2.694938e+00
  1.218072e+01    2.692049e+00
  1.219660e+01    2.695307e+00
  1.221247e+01    2.681237e+00
  1.222835e+01    2.652633e+00
  1.224422e+01    2.688518e+00
  1.226010e+01    2.749328e+00
  1.227597e+01    2.754209e+00
  1.229185e+01    2.678528e+00
  1.230773e+01    2.655746e+00
  1.232360e+01    2.663914e+00
  1.233948e+01    2.634144e+00
  1.235535e+01    2.651893e+00
  1.237123e+01    2.680790e+00
  1.238710e+01    2.696323e+00
  1.240298e+01    2.693048e+00
  1.241886e+01    2.692387e+00
  1.243473e+01    2.710045e+00
  1.245061e+01    2.685626e+00
  1.246648e+01    2.690094e+00
  1.248236e+01    2.717916e+00
  1.249823e+01    2.700652e+00
  1.251411e+01    2.689845e+00
  1.252998e+01    2.736979e+00
  1.254586e+01    2.750355e+00
  1.256174e+01    2.779863e+00
  1.257761e+01    2.728120e+00
  1.259349e+01    2.708785e+00
  1.260936e+01    2.777418e+00
  1.262524e+01    2.773557e+00
  1.264111e+01    2.770214e+00
  1.265699e+01    2.738434e+00
  1.267286e+01    2.761171e+00
  1.268874e+01    2.781907e+00
  1.270462e+01    2.806924e+00
  1.272049e+01    2.834548e+00
  1.273637e+01    2.850994e+00
  1.275224e+01    2.887293e+00
  1.276812e+01    2.918833e+00
  1.278399e+01    2.953717e+00
  1.279987e+01    2.991899e+00
  1.281574e+01    3.076028e+00
  1.283162e+01    3.069047e+00
  1.284750e+01    3.130972e+00
  1.286337e+01    3.250716e+00
  1.287925e+01    3.353981e+00
  1.289512e+01    3.500228e+00
  1.291100e+01    3.636042e+00
  1.292687e+01    3.855967e+00
  1.294275e+01    4.060409e+00
  1.295862e+01    4.306879e+00
  1.297450e+01    4.723862e+00
  1.299038e+01    5.266222e+00
  1.300625e+01    5.905329e+00
  1.302213e+01    6.666986e+00
  1.303800e+01    7.596185e+00
  1.305388e+01    8.814436e+00
  1.306975e+01    1.012125e+01
  1.308563e+01    1.149589e+01
  1.310150e+01    1.273430e+01
  1.311738e+01    1.382006e+01
  1.313326e+01    1.476436e+01
  1.314913e+01    1.562472e+01
  1.316501e+01    1.615123e+01
  1.318088e+01    1.634145e+01
  1.319676e+01    1.576988e+01
  1.321263e+01    1.439201e+01
  1.322851e+01    1.249608e+01
  1.324438e+01    1.063534e+01
  1.326026e+01    9.126250e+00
  1.327614e+01    7.732157e+00
  1.329201e+01    6.778617e+00
  1.330789e+01    6.006898e+00
  1.332376e+01    5.378030e+00
  1.333964e+01    4.926288e+00
  1.335551e+01    4.483841e+00
  1.337139e+01    4.142651e+00
  1.338727e+01    3.852345e+00
  1.340314e+01    3.650513e+00
  1.341902e+01    3.479153e+00
  1.343489e+01    3.352870e+00
  1.345077e+01    3.258364e+00
  1.346664e+01    3.131258e+00
  1.348252e+01    3.002347e+00
  1.349839e+01    2.917034e+00
  1.351427e+01    2.843938e+00
  1.353015e+01    2.828543e+00
  1.354602e+01    2.774928e+00
  1.356190e+01    2.778646e+00
  1.357777e+01    2.731045e+00
  1.359365e+01    2.765083e+00
  1.360952e+01    2.721125e+00
  1.362540e+01    2.658924e+00
  1.364127e+01    2.593851e+00
  1.365715e+01    2.604523e+00
  1.367303e+01    2.568363e+00
  1.368890e+01    2.607754e+00
  1.370478e+01    2.562732e+00
  1.372065e+01    2.540875e+00
  1.373653e+01    2.503730e+00
  1.375240e+01    2.503507e+00
  1.376828e+01    2.499171e+00
  1.378415e+01    2.515336e+00
  1.380003e+01    2.508871e+00
  1.381591e+01    2.515529e+00
  1.383178e+01    2.505219e+00
  1.384766e+01    2.437619e+00
  1.386353e+01    2.406243e+00
  1.387941e+01    2.422445e+00
  1.389528e+01    2.420186e+00
  1.391116e+01    2.447287e+00
  1.392703e+01    2.448006e+00
  1.394291e+01    2.422643e+00
  1.395879e+01    2.366949e+00
  1.397466e+01    2.381504e+00
  1.399054e+01    2.372522e+00
  1.400641e+01    2.336647e+00
  1.402229e+01    2.362669e+00
  1.403816e+01    2.325791e+00
  1.405404e+01    2.341940e+00
  1.406991e+01    2.374973e+00
  1.408579e+01    2.307925e+00
  1.410167e+01    2.288558e+00
  1.411754e+01    2.316453e+00
  1.413342e+01    2.343064e+00
  1.414929e+01    2.300763e+00
  1.416517e+01    2.336555e+00
  1.418104e+01    2.323988e+00
  1.419692e+01    2.259204e+00
  1.421279e+01    2.311044e+00
  1.422867e+01    2.300140e+00
  1.424455e+01    2.258559e+00
  1.426042e+01    2.240923e+00
  1.427630e+01    2.272373e+00
  1.429217e+01    2.309697e+00
  1.430805e+01    2.270875e+00
  1.432392e+01    2.233532e+00
  1.433980e+01    2.201090e+00
  1.435568e+01    2.248742e+00
  1.437155e+01    2.264991e+00
  1.438743e+01    2.218983e+00
  1.440330e+01    2.225319e+00
  1.441918e+01    2.255253e+00
  1.443505e+01    2.247867e+00
  1.445093e+01    2.211018e+00
  1.446680e+01    2.246240e+00
  1.448268e+01    2.222161e+00
  1.449856e+01    2.203090e+00
  1.451443e+01    2.214603e+00
  1.453031e+01    2.213953e+00
  1.454618e+01    2.234918e+00
  1.456206e+01    2.244410e+00
  1.457793e+01    2.210616e+00
  1.459381e+01    2.210865e+00
  1.460968e+01    2.206157e+00
  1.462556e+01    2.196823e+00
  1.464144e+01    2.179010e+00
  1.465731e+01    2.190870e+00
  1.467319e+01    2.220041e+00
  1.468906e+01    2.191965e+00
  1.470494e+01    2.177945e+00
  1.472081e+01    2.173431e+00
  1.473669e+01    2.162767e+00
  1.475256e+01    2.171474e+00
  1.476844e+01    2.176022e+00
  1.478432e+01    2.183418e+00
  1.480019e+01    2.193540e+00
  1.481607e+01    2.222874e+00
  1.483194e+01    2.224808e+00
  1.484782e+01    2.220345e+00
  1.486369e+01    2.213426e+00
  1.487957e+01    2.225023e+00
  1.489544e+01    2.259785e+00
  1.491132e+01    2.252695e+00
  1.492720e+01    2.236572e+00
  1.494307e+01    2.277754e+00
  1.495895e+01    2.293491e+00
  1.497482e+01    2.354584e+00
  1.499070e+01    2.398663e+00
  1.500657e+01    2.428150e+00
  1.502245e+01    2.471647e+00
  1.503832e+01    2.592030e+00
  1.505420e+01    2.686298e+00
  1.507008e+01    2.794389e+00
  1.508595e+01    2.953886e+00
  1.510183e+01    3.134485e+00
  1.511770e+01    3.476445e+00
  1.513358e+01    3.807169e+00
  1.514945e+01    4.209785e+00
  1.516533e+01    4.564301e+00
  1.518120e+01    4.906145e+00
  1.519708e+01    5.193921e+00
  1.521296e+01    5.415495e+00
  1.522883e+01    5.501497e+00
  1.524471e+01    5.609239e+00
  1.526058e+01    5.708050e+00
  1.527646e+01    5.702925e+00
  1.529233e+01    5.478393e+00
  1.530821e+01    5.125816e+00
  1.532409e+01    4.628892e+00
  1.533996e+01    4.258108e+00
  1.535584e+01    3.834987e+00
  1.537171e+01    3.454231e+00
  1.538759e+01    3.143397e+00
  1.540346e+01    2.915010e+00
  1.541934e+01    2.740252e+00
  1.543521e+01    2.619784e+00
  1.545109e+01    2.509810e+00
  1.546697e+01    2.426548e+00
  1.548284e+01    2.340133e+00
  1.549872e+01    2.345964e+00
  1.551459e+01    2.253720e+00
  1.553047e+01    2.205411e+00
  1.554634e+01    2.173046e+00
  1.556222e+01    2.136744e+00
  1.557809e+01    2.119581e+00
  1.559397e+01    2.131723e+00
  1.560985e+01    2.123948e+00
  1.562572e+01    2.036885e+00
  1.564160e+01    2.057761e+00
  1.565747e+01    2.036552e+00
  1.567335e+01    1.997067e+00
  1.568922e+01    1.964999e+00
  1.570510e+01    2.019949e+00
  1.572097e+01    2.021157e+00
  1.573685e+01    1.998927e+00
  1.575273e+01    1.966443e+00
  1.576860e+01    1.975217e+00
  1.578448e+01    1.949396e+00
  1.580035e+01    1.960608e+00
  1.581623e+01    1.923770e+00
  1.583210e+01    1.919588e+00
  1.584798e+01    1.921401e+00
  1.586385e+01    1.871414e+00
  1.587973e+01    1.906799e+00
  1.589561e+01    1.919919e+00
  1.591148e+01    1.901802e+00
  1.592736e+01    1.911511e+00
  1.594323e+01    1.921711e+00
  1.595911e+01    1.881247e+00
  1.597498e+01    1.858708e+00
  1.599086e+01    1.877715e+00
  1.600673e+01    1.864782e+00
  1.602261e+01    1.874041e+00
  1.603849e+01    1.847876e+00
  1.605436e+01    1.835419e+00
  1.607024e+01    1.839266e+00
  1.608611e+01    1.849776e+00
  1.610199e+01    1.864727e+00
  1.611786e+01    1.837309e+00
  1.613374e+01    1.842735e+00
  1.614961e+01    1.791187e+00
  1.616549e+01    1.791927e+00
  1.618137e+01    1.838781e+00
  1.619724e+01    1.833975e+00
  1.621312e+01    1.818907e+00
  1.622899e+01    1.807991e+00
  1.624487e+01    1.808923e+00
  1.626074e+01    1.813846e+00
  1.627662e+01    1.796340e+00
  1.629250e+01    1.799289e+00
  1.630837e+01    1.795158e+00
  1.632425e+01    1.792849e+00
  1.634012e+01    1.779927e+00
  1.635600e+01    1.834035e+00
  1.637187e+01    1.811268e+00
  1.638775e+01    1.797856e+00
  1.640362e+01    1.814894e+00
  1.641950e+01    1.773524e+00
  1.643538e+01    1.748929e+00
  1.645125e+01    1.771137e+00
  1.646713e+01    1.747045e+00
  1.648300e+01    1.729562e+00
  1.649888e+01    1.771017e+00
  1.651475e+01    1.775561e+00
  1.653063e+01    1.812518e+00
  1.654650e+01    1.762300e+00
  1.656238e+01    1.777611e+00
  1.657826e+01    1.751521e+00
  1.659413e+01    1.753681e+00
  1.661001e+01    1.761094e+00
  1.662588e+01    1.736971e+00
  1.664176e+01    1.718571e+00
  1.665763e+01    1.742500e+00
  1.667351e+01    1.759670e+00
  1.668938e+01    1.720342e+00
  1.670526e+01    1.714274e+00
  1.672114e+01    1.726680e+00
  1.673701e+01    1.725845e+00
  1.675289e+01    1.736984e+00
  1.676876e+01    1.694641e+00
  1.678464e+01    1.687235e+00
  1.680051e+01    1.683205e+00
  1.681639e+01    1.691533e+00
  1.683226e+01    1.729369e+00
  1.684814e+01    1.725116e+00
  1.686402e+01    1.702259e+00
  1.687989e+01    1.718298e+00
  1.689577e+01    1.693962e+00
  1.691164e+01    1.682899e+00
  1.692752e+01    1.662982e+00
  1.694339e+01    1.661179e+00
  1.695927e+01    1.656498e+00
  1.697514e+01    1.680457e+00
  1.699102e+01    1.678360e+00
  1.700690e+01    1.674561e+00
  1.702277e+01    1.688602e+00
  1.703865e+01    1.695786e+00
  1.705452e+01    1.644854e+00
  1.707040e+01    1.633175e+00
  1.708627e+01    1.642926e+00
  1.710215e+01    1.642330e+00
  1.711802e+01    1.650801e+00
  1.713390e+01    1.633826e+00
  1.714978e+01    1.627663e+00
  1.716565e+01    1.632732e+00
  1.718153e+01    1.621151e+00
  1.719740e+01    1.624371e+00
  1.721328e+01    1.622558e+00
  1.722915e+01    1.626757e+00
  1.724503e+01    1.626205e+00
  1.726091e+01    1.632228e+00
  1.727678e+01    1.635715e+00
  1.729266e+01    1.587322e+00
  1.730853e+01    1.591216e+00
  1.732441e+01    1.602333e+00
  1.734028e+01    1.612337e+00
  1.735616e+01    1.594520e+00
  1.737203e+01    1.613748e+00
  1.738791e+01    1.620377e+00
  1.740379e+01    1.590943e+00
  1.741966e+01    1.593625e+00
  1.743554e+01    1.605532e+00
  1.745141e+01    1.590455e+00
  1.746729e+01    1.588821e+00
  1.748316e+01    1.599388e+00
  1.749904e+01    1.586458e+00
  1.751491e+01    1.588853e+00
  1.753079e+01    1.566940e+00
  1.754667e+01    1.574799e+00
  1.756254e+01    1.584475e+00
  1.757842e+01    1.600792e+00
  1.759429e+01    1.584185e+00
  1.761017e+01    1.570101e+00
  1.762604e+01    1.565456e+00
  1.764192e+01    1.548584e+00
  1.765779e+01    1.589242e+00
  1.767367e+01    1.571755e+00
  1.768955e+01    1.525407e+00
  1.770542e+01    1.547312e+00
  1.772130e+01    1.565862e+00
  1.773717e+01    1.550194e+00
  1.775305e+01    1.535347e+00
  1.776892e+01    1.518608e+00
  1.778480e+01    1.547654e+00
  1.780067e+01    1.533053e+00
  1.781655e+01    1.553474e+00
  1.783243e+01    1.555600e+00
  1.784830e+01    1.540785e+00
  1.786418e+01    1.520672e+00
  1.788005e+01    1.501499e+00
  1.789593e+01    1.493695e+00
  1.791180e+01    1.498964e+00
  1.792768e+01    1.505416e+00
  1.794355e+01    1.510535e+00
  1.795943e+01    1.490122e+00
  1.797531e+01    1.521476e+00
  1.799118e+01    1.534302e+00
  1.800706e+01    1.493869e+00
  1.802293e+01    1.514919e+00
  1.803881e+01    1.492409e+00
  1.805468e+01    1.518316e+00
  1.807056e+01    1.526377e+00
  1.808643e+01    1.487063e+00
  1.810231e+01    1.490626e+00
  1.811819e+01    1.494345e+00
  1.813406e+01    1.476140e+00
  1.814994e+01    1.494931e+00
  1.816581e+01    1.510795e+00
  1.818169e+01    1.504099e+00
  1.819756e+01    1.502003e+00
  1.821344e+01    1.500723e+00
  1.822932e+01    1.512745e+00
  1.824519e+01    1.473205e+00
  1.826107e+01    1.467799e+00
  1.827694e+01    1.500712e+00
  1.829282e+01    1.473255e+00
  1.830869e+01    1.473683e+00
  1.832457e+01    1.500110e+00
  1.834044e+01    1.476577e+00
  1.835632e+01    1.488405e+00
  1.837220e+01    1.471002e+00
  1.838807e+01    1.436555e+00
  1.840395e+01    1.446373e+00
  1.841982e+01    1.444350e+00
  1.843570e+01    1.443901e+00
  1.845157e+01    1.442850e+00
  1.846745e+01    1.438042e+00
  1.848332e+01    1.468020e+00
  1.849920e+01    1.440856e+00
  1.851508e+01    1.441991e+00
  1.853095e+01    1.420693e+00
  1.854683e+01    1.408833e+00
  1.856270e+01    1.416801e+00
  1.857858e+01    1.424220e+00
  1.859445e+01    1.401446e+00
  1.861033e+01    1.465089e+00
  1.862620e+01    1.432517e+00
  1.864208e+01    1.417121e+00
  1.865796e+01    1.409777e+00
  1.867383e+01    1.411749e+00
  1.868971e+01    1.420133e+00
  1.870558e+01    1.421292e+00
  1.872146e+01    1.415842e+00
  1.873733e+01    1.415316e+00
  1.875321e+01    1.399289e+00
  1.876908e+01    1.407491e+00
  1.878496e+01    1.414107e+00
  1.880084e+01    1.427444e+00
  1.881671e+01    1.380044e+00
  1.883259e+01    1.405868e+00
  1.884846e+01    1.413735e+00
  1.886434e+01    1.387370e+00
  1.888021e+01    1.375820e+00
  1.889609e+01    1.404680e+00
  1.891196e+01    1.408036e+00
  1.892784e+01    1.395373e+00
  1.894372e+01    1.389385e+00
  1.895959e+01    1.360987e+00
  1.897547e+01    1.392393e+00
  1.899134e+01    1.372506e+00
  1.900722e+01    1.419957e+00
  1.902309e+01    1.416388e+00
  1.903897e+01    1.404917e+00
  1.905484e+01    1.367248e+00
  1.907072e+01    1.402957e+00
  1.908660e+01    1.414239e+00
  1.910247e+01    1.368461e+00
  1.911835e+01    1.351403e+00
  1.913422e+01    1.370752e+00
  1.915010e+01    1.379983e+00
  1.916597e+01    1.354137e+00
  1.918185e+01    1.339272e+00
  1.919773e+01    1.339965e+00
  1.921360e+01    1.332737e+00
  1.922948e+01    1.336908e+00
  1.924535e+01    1.348496e+00
  1.926123e+01    1.337878e+00
  1.927710e+01    1.357335e+00
  1.929298e+01    1.372156e+00
  1.930885e+01    1.379164e+00
  1.932473e+01    1.348131e+00
  1.934061e+01    1.358125e+00
  1.935648e+01    1.331269e+00
  1.937236e+01    1.310605e+00
  1.938823e+01    1.316102e+00
  1.940411e+01    1.345769e+00
  1.941998e+01    1.339957e+00
  1.943586e+01    1.341575e+00
  1.945173e+01    1.335842e+00
  1.946761e+01    1.336932e+00
  1.948349e+01    1.325394e+00
  1.949936e+01    1.329111e+00
  1.951524e+01    1.337149e+00
  1.953111e+01    1.345191e+00
  1.954699e+01    1.313751e+00
  1.956286e+01    1.300038e+00
  1.957874e+01    1.308829e+00
  1.959461e+01    1.359621e+00
  1.961049e+01    1.354965e+00
  1.962637e+01    1.313407e+00
  1.964224e+01    1.311780e+00
  1.965812e+01    1.301298e+00
  1.967399e+01    1.294730e+00
  1.968987e+01    1.346951e+00
  1.970574e+01    1.361674e+00
  1.972162e+01    1.317914e+00
  1.973749e+01    1.297486e+00
  1.975337e+01    1.298755e+00
  1.976925e+01    1.320561e+00
  1.978512e+01    1.312240e+00
  1.980100e+01    1.292557e+00
  1.981687e+01    1.267483e+00
  1.983275e+01    1.289372e+00
  1.984862e+01    1.332227e+00
  1.986450e+01    1.313084e+00
  1.988037e+01    1.322878e+00
  1.989625e+01    1.288676e+00
  1.991213e+01    1.297946e+00
  1.992800e+01    1.274588e+00
  1.994388e+01    1.269725e+00
  1.995975e+01    1.275936e+00
  1.997563e+01    1.297569e+00
  1.999150e+01    1.293647e+00
  2.000738e+01    1.283761e+00
  2.002325e+01    1.292381e+00
  2.003913e+01    1.288324e+00
  2.005501e+01    1.255544e+00
  2.007088e+01    1.279478e+00
  2.008676e+01    1.263171e+00
  2.010263e+01    1.302451e+00
  2.011851e+01    1.269595e+00
  2.013438e+01    1.247612e+00
  2.015026e+01    1.276335e+00
  2.016614e+01    1.261163e+00
  2.018201e+01    1.256531e+00
  2.019789e+01    1.250006e+00
  2.021376e+01    1.260134e+00
  2.022964e+01    1.271417e+00
  2.024551e+01    1.275087e+00
  2.026139e+01    1.267845e+00
  2.027726e+01    1.284742e+00
  2.029314e+01    1.267750e+00
  2.030902e+01    1.256511e+00
  2.032489e+01    1.256301e+00
  2.034077e+01    1.262089e+00
  2.035664e+01    1.249445e+00
  2.037252e+01    1.246482e+00
  2.038839e+01    1.247206e+00
  2.040427e+01    1.235865e+00
  2.042014e+01    1.244673e+00
  2.043602e+01    1.240918e+00
  2.045190e+01    1.245610e+00
  2.046777e+01    1.260900e+00
  2.048365e+01    1.247629e+00
  2.049952e+01    1.245828e+00
  2.051540e+01    1.227991e+00
  2.053127e+01    1.229406e+00
  2.054715e+01    1.242196e+00
  2.056302e+01    1.236250e+00
  2.057890e+01    1.242902e+00
  2.059478e+01    1.243470e+00
  2.061065e+01    1.246936e+00
  2.062653e+01    1.223087e+00
  2.064240e+01    1.213405e+00
  2.065828e+01    1.239750e+00
  2.067415e+01    1.241414e+00
  2.069003e+01    1.237839e+00
  2.070590e+01    1.220858e+00
  2.072178e+01    1.196786e+00
  2.073766e+01    1.220331e+00
  2.075353e+01    1.223768e+00
  2.076941e+01    1.205496e+00
  2.078528e+01    1.208195e+00
  2.080116e+01    1.208481e+00
  2.081703e+01    1.238152e+00
  2.083291e+01    1.227019e+00
  2.084878e+01    1.253006e+00
  2.086466e+01    1.230793e+00
  2.088054e+01    1.226217e+00
  2.089641e+01    1.243351e+00
  2.091229e+01    1.225719e+00
  2.092816e+01    1.212393e+00
  2.094404e+01    1.208120e+00
  2.095991e+01    1.235215e+00
  2.097579e+01    1.235270e+00
  2.099166e+01    1.236100e+00
  2.100754e+01    1.228722e+00
  2.102342e+01    1.226751e+00
  2.103929e+01    1.211439e+00
  2.105517e+01    1.214384e+00
  2.107104e+01    1.219946e+00
  2.108692e+01    1.232931e+00
  2.110279e+01    1.231507e+00
  2.111867e+01    1.230344e+00
  2.113455e+01    1.230298e+00
  2.115042e+01    1.247877e+00
  2.116630e+01    1.205030e+00
  2.118217e+01    1.226325e+00
  2.119805e+01    1.248009e+00
  2.121392e+01    1.244441e+00
  2.122980e+01    1.230586e+00
  2.124567e+01    1.241446e+00
  2.126155e+01    1.238946e+00
  2.127743e+01    1.225850e+00
  2.129330e+01    1.235809e+00
  2.130918e+01    1.273877e+00
  2.132505e+01    1.267926e+00
  2.134093e+01    1.256912e+00
  2.135680e+01    1.274115e+00
  2.137268e+01    1.279594e+00
  2.138855e+01    1.294200e+00
  2.140443e+01    1.334870e+00
  2.142031e+01    1.335130e+00
  2.143618e+01    1.318967e+00
  2.145206e+01    1.354530e+00
  2.146793e+01    1.383386e+00
  2.148381e+01    1.390488e+00
  2.149968e+01    1.418948e+00
  2.151556e+01    1.453633e+00
  2.153143e+01    1.488655e+00
  2.154731e+01    1.509229e+00
  2.156319e+01    1.570963e+00
  2.157906e+01    1.608243e+00
  2.159494e+01    1.672908e+00
  2.161081e+01    1.729972e+00
  2.162669e+01    1.851521e+00
  2.164256e+01    1.943443e+00
  2.165844e+01    2.090698e+00
  2.167431e+01    2.261469e+00
  2.169019e+01    2.464122e+00
  2.170607e+01    2.726390e+00
  2.172194e+01    3.062061e+00
  2.173782e+01    3.477709e+00
  2.175369e+01    3.998254e+00
  2.176957e+01    4.559055e+00
  2.178544e+01    5.123783e+00
  2.180132e+01    5.823436e+00
  2.181719e+01    6.522369e+00
  2.183307e+01    7.074935e+00
  2.184895e+01    7.825236e+00
  2.186482e+01    8.357500e+00
  2.188070e+01    8.781901e+00
  2.189657e+01    8.928071e+00
  2.191245e+01    8.775103e+00
  2.192832e+01    8.283765e+00
  2.194420e+01    7.513573e+00
  2.196007e+01    6.664204e+00
  2.197595e+01    5.691268e+00
  2.199183e+01    4.843407e+00
  2.200770e+01    4.213476e+00
  2.202358e+01    3.688281e+00
  2.203945e+01    3.196297e+00
  2.205533e+01    2.873565e+00
  2.207120e+01    2.605632e+00
  2.208708e+01    2.327689e+00
  2.210296e+01    2.138671e+00
  2.211883e+01    2.004832e+00
  2.213471e+01    1.874258e+00
  2.215058e+01    1.795242e+00
  2.216646e+01    1.697356e+00
  2.218233e+01    1.587481e+00
  2.219821e+01    1.557081e+00
  2.221408e+01    1.488939e+00
  2.222996e+01    1.461430e+00
  2.224584e+01    1.409327e+00
  2.226171e+01    1.360570e+00
  2.227759e+01    1.346119e+00
  2.229346e+01    1.341221e+00
  2.230934e+01    1.328910e+00
  2.232521e+01    1.296383e+00
  2.234109e+01    1.253840e+00
  2.235696e+01    1.235578e+00
  2.237284e+01    1.227068e+00
  2.238872e+01    1.225696e+00
  2.240459e+01    1.218396e+00
  2.242047e+01    1.215278e+00
  2.243634e+01    1.194105e+00
  2.245222e+01    1.157807e+00
  2.246809e+01    1.146531e+00
  2.248397e+01    1.154480e+00
  2.249984e+01    1.125973e+00
  2.251572e+01    1.137041e+00
  2.253160e+01    1.129963e+00
  2.254747e+01    1.109899e+00
  2.256335e+01    1.103226e+00
  2.257922e+01    1.099525e+00
  2.259510e+01    1.116878e+00
  2.261097e+01    1.108703e+00
  2.262685e+01    1.109222e+00
  2.264272e+01    1.096272e+00
  2.265860e+01    1.069733e+00
  2.267448e+01    1.095003e+00
  2.269035e+01    1.090538e+00
  2.270623e+01    1.074201e+00
  2.272210e+01    1.067576e+00
  2.273798e+01    1.065258e+00
  2.275385e+01    1.062331e+00
  2.276973e+01    1.064314e+00
  2.278560e+01    1.040863e+00
  2.280148e+01    1.048062e+00
  2.281736e+01    1.040380e+00
  2.283323e+01    1.021412e+00
  2.284911e+01    1.013902e+00
  2.286498e+01    1.043396e+00
  2.288086e+01    1.031803e+00
  2.289673e+01    1.021802e+00
  2.291261e+01    1.014872e+00
  2.292848e+01    1.022420e+00
  2.294436e+01    1.036902e+00
  2.296024e+01    1.028740e+00
  2.297611e+01    1.026512e+00
  2.299199e+01    9.984678e-01
  2.300786e+01    1.002136e+00
  2.302374e+01    9.959623e-01
  2.303961e+01    9.947022e-01
  2.305549e+01    1.010674e+00
  2.307137e+01    1.010217e+00
  2.308724e+01    9.962173e-01
  2.310312e+01    9.873810e-01
  2.311899e+01    9.824980e-01
  2.313487e+01    9.938188e-01
  2.315074e+01    9.917670e-01
  2.316662e+01    9.875419e-01
  2.318249e+01    1.003118e+00
  2.319837e+01    1.002024e+00
  2.321425e+01    9.858346e-01
  2.323012e+01    9.660497e-01
  2.324600e+01    9.514393e-01
  2.326187e+01    9.867132e-01
  2.327775e+01    9.792242e-01
  2.329362e+01    9.782063e-01
  2.330950e+01    9.796413e-01
  2.332537e+01    9.735965e-01
  2.334125e+01    9.741772e-01
  2.335713e+01    9.899020e-01
  2.337300e+01    9.728397e-01
  2.338888e+01    9.448257e-01
  2.340475e+01    9.647924e-01
  2.342063e+01    9.953775e-01
  2.343650e+01    9.853151e-01
  2.345238e+01    9.816360e-01
  2.346825e+01    9.492240e-01
  2.348413e+01    9.513319e-01
  2.350001e+01    9.743910e-01
  2.351588e+01    9.680911e-01
  2.353176e+01    9.719078e-01
  2.354763e+01    9.698030e-01
  2.356351e+01    9.554686e-01
  2.357938e+01    9.419184e-01
  2.359526e+01    9.645364e-01
  2.361113e+01    9.800856e-01
  2.362701e+01    9.608198e-01
  2.364289e+01    9.495513e-01
  2.365876e+01    9.504115e-01
  2.367464e+01    9.364074e-01
  2.369051e+01    9.374864e-01
  2.370639e+01    9.225621e-01
  2.372226e+01    9.091745e-01
  2.373814e+01    9.162034e-01
  2.375401e+01    9.158750e-01
  2.376989e+01    9.190083e-01
  2.378577e+01    9.292443e-01
  2.380164e+01    9.253875e-01
  2.381752e+01    9.182395e-01
  2.383339e+01    9.276728e-01
  2.384927e+01    9.317892e-01
  2.386514e+01    9.206637e-01
  2.388102e+01    9.070094e-01
  2.389689e+01    9.130176e-01
  2.391277e+01    9.079155e-01
  2.392865e+01    8.974124e-01
  2.394452e+01    8.986346e-01
  2.396040e+01    9.066751e-01
  2.397627e+01    8.846101e-01
  2.399215e+01    9.011198e-01
  2.400802e+01    9.016070e-01
  2.402390e+01    9.006650e-01
  2.403978e+01    9.138572e-01
  2.405565e+01    9.229732e-01
  2.407153e+01    8.956000e-01
  2.408740e+01    8.990131e-01
  2.410328e+01    9.032142e-01
  2.411915e+01    9.134435e-01
  2.413503e+01    8.886590e-01
  2.415090e+01    8.862543e-01
  2.416678e+01    8.797282e-01
  2.418266e+01    8.765529e-01
  2.419853e+01    8.798834e-01
  2.421441e+01    8.770180e-01
  2.423028e+01    8.934369e-01
  2.424616e+01    8.997499e-01
  2.426203e+01    8.828689e-01
  2.427791e+01    8.922978e-01
  2.429378e+01    8.985883e-01
  2.430966e+01    8.920352e-01
  2.432554e+01    9.084435e-01
  2.434141e+01    8.916859e-01
  2.435729e+01    8.736746e-01
  2.437316e+01    8.782546e-01
  2.438904e+01    8.882070e-01
  2.440491e+01    8.878345e-01
  2.442079e+01    8.971931e-01
  2.443666e+01    9.055626e-01
  2.445254e+01    8.917563e-01
  2.446842e+01    8.766832e-01
  2.448429e+01    8.970055e-01
  2.450017e+01    8.743182e-01
  2.451604e+01    8.780929e-01
  2.453192e+01    8.811713e-01
  2.454779e+01    8.756772e-01
  2.456367e+01    8.819048e-01
  2.457954e+01    8.988546e-01
  2.459542e+01    8.910195e-01
  2.461130e+01    8.829331e-01
  2.462717e+01    8.794903e-01
  2.464305e+01    8.968878e-01
  2.465892e+01    9.016380e-01
  2.467480e+01    8.928059e-01
  2.469067e+01    9.034649e-01
  2.470655e+01    8.980098e-01
  2.472242e+01    9.178384e-01
  2.473830e+01    9.063230e-01
  2.475418e+01    8.969411e-01
  2.477005e+01    8.908351e-01
  2.478593e+01    8.986819e-01
  2.480180e+01    8.874115e-01
  2.481768e+01    9.085190e-01
  2.483355e+01    8.965304e-01
  2.484943e+01    8.889045e-01
  2.486530e+01    8.684149e-01
  2.488118e+01    8.739461e-01
  2.489706e+01    8.975794e-01
  2.491293e+01    8.925731e-01
  2.492881e+01    8.773809e-01
  2.494468e+01    8.843042e-01
  2.496056e+01    8.825701e-01
  2.497643e+01    8.943138e-01
  2.499231e+01    8.830068e-01
  2.500819e+01    8.897600e-01
  2.502406e+01    8.945706e-01
  2.503994e+01    9.030695e-01
  2.505581e+01    9.069197e-01
  2.507169e+01    9.117109e-01
  2.508756e+01    9.063916e-01
  2.510344e+01    9.026930e-01
  2.511931e+01    9.083606e-01
  2.513519e+01    9.023315e-01
  2.515107e+01    9.184670e-01
  2.516694e+01    9.042857e-01
  2.518282e+01    9.243540e-01
  2.519869e+01    9.065167e-01
  2.521457e+01    9.237410e-01
  2.523044e+01    9.238883e-01
  2.524632e+01    9.266586e-01
  2.526219e+01    9.614091e-01
  2.527807e+01    9.643981e-01
  2.529395e+01    9.540685e-01
  2.530982e+01    9.501300e-01
  2.532570e+01    9.535666e-01
  2.534157e+01    9.674740e-01
  2.535745e+01    9.510703e-01
  2.537332e+01    9.738700e-01
  2.538920e+01    9.953890e-01
  2.540507e+01    1.011669e+00
  2.542095e+01    9.999869e-01
  2.543683e+01    9.950553e-01
  2.545270e+01    1.025160e+00
  2.546858e+01    1.036893e+00
  2.548445e+01    1.053380e+00
  2.550033e+01    1.071663e+00
  2.551620e+01    1.054685e+00
  2.553208e+01    1.052994e+00
  2.554795e+01    1.068591e+00
  2.556383e+01    1.108531e+00
  2.557971e+01    1.153666e+00
  2.559558e+01    1.189708e+00
  2.561146e+01    1.197126e+00
  2.562733e+01    1.248700e+00
  2.564321e+01    1.312989e+00
  2.565908e+01    1.344577e+00
  2.567496e+01    1.439071e+00
  2.569083e+01    1.496499e+00
  2.570671e+01    1.547592e+00
  2.572259e+01    1.697065e+00
  2.573846e+01    1.846275e+00
  2.575434e+01    1.974959e+00
  2.577021e+01    2.212343e+00
  2.578609e+01    2.484658e+00
  2.580196e+01    2.761475e+00
  2.581784e+01    3.147607e+00
  2.583371e+01    3.607957e+00
  2.584959e+01    4.089594e+00
  2.586547e+01    4.602463e+00
  2.588134e+01    5.210409e+00
  2.589722e+01    5.781899e+00
  2.591309e+01    6.350224e+00
  2.592897e+01    6.690597e+00
  2.594484e+01    7.021596e+00
  2.596072e+01    7.101068e+00
  2.597660e+01    6.937586e+00
  2.599247e+01    6.556592e+00
  2.600835e+01    6.018457e+00
  2.602422e+01    5.322581e+00
  2.604010e+01    4.648695e+00
  2.605597e+01    3.997696e+00
  2.607185e+01    3.485734e+00
  2.608772e+01    3.033217e+00
  2.610360e+01    2.649302e+00
  2.611948e+01    2.370990e+00
  2.613535e+01    2.155643e+00
  2.615123e+01    1.960060e+00
  2.616710e+01    1.812533e+00
  2.618298e+01    1.649442e+00
  2.619885e+01    1.559364e+00
  2.621473e+01    1.481204e+00
  2.623060e+01    1.388814e+00
  2.624648e+01    1.335348e+00
  2.626236e+01    1.310205e+00
  2.627823e+01    1.249787e+00
  2.629411e+01    1.192472e+00
  2.630998e+01    1.168525e+00
  2.632586e+01    1.157095e+00
  2.634173e+01    1.127314e+00
  2.635761e+01    1.103511e+00
  2.637348e+01    1.099938e+00
  2.638936e+01    1.065556e+00
  2.640524e+01    1.044391e+00
  2.642111e+01    1.048963e+00
  2.643699e+01    1.023419e+00
  2.645286e+01    1.020535e+00
  2.646874e+01    1.018718e+00
  2.648461e+01    1.021602e+00
  2.650049e+01    1.015968e+00
  2.651636e+01    1.016781e+00
  2.653224e+01    1.009355e+00
  2.654812e+01    9.846392e-01
  2.656399e+01    9.711994e-01
  2.657987e+01    9.829286e-01
  2.659574e+01    9.976609e-01
  2.661162e+01    9.937968e-01
  2.662749e+01    9.902331e-01
  2.664337e+01    9.776680e-01
  2.665924e+01    9.877541e-01
  2.667512e+01    9.868256e-01
  2.669100e+01    9.842309e-01
  2.670687e+01    9.573538e-01
  2.672275e+01    9.594032e-01
  2.673862e+01    9.735591e-01
  2.675450e+01    9.909172e-01
  2.677037e+01    9.824963e-01
  2.678625e+01    9.794292e-01
  2.680212e+01    9.805021e-01
  2.681800e+01    9.789246e-01
  2.683388e+01    9.673392e-01
  2.684975e+01    9.755688e-01
  2.686563e+01    9.891592e-01
  2.688150e+01    9.978767e-01
  2.689738e+01    9.862837e-01
  2.691325e+01    1.007344e+00
  2.692913e+01    1.010750e+00
  2.694501e+01    1.034653e+00
  2.696088e+01    1.027435e+00
  2.697676e+01    1.066134e+00
  2.699263e+01    1.094341e+00
  2.700851e+01    1.102884e+00
  2.702438e+01    1.139057e+00
  2.704026e+01    1.175272e+00
  2.705613e+01    1.234245e+00
  2.707201e+01    1.278309e+00
  2.708789e+01    1.402271e+00
  2.710376e+01    1.506008e+00
  2.711964e+01    1.566670e+00
  2.713551e+01    1.727760e+00
  2.715139e+01    1.850163e+00
  2.716726e+01    1.993928e+00
  2.718314e+01    2.076685e+00
  2.719901e+01    2.134726e+00
  2.721489e+01    2.162647e+00
  2.723077e+01    2.156204e+00
  2.724664e+01    2.083359e+00
  2.726252e+01    1.992630e+00
  2.727839e+01    1.863213e+00
  2.729427e+01    1.700134e+00
  2.731014e+01    1.571613e+00
  2.732602e+01    1.480255e+00
  2.734189e+01    1.376494e+00
  2.735777e+01    1.260862e+00
  2.737365e+01    1.222324e+00
  2.738952e+01    1.188314e+00
  2.740540e+01    1.109182e+00
  2.742127e+01    1.086787e+00
  2.743715e+01    1.063347e+00
  2.745302e+01    1.039590e+00
  2.746890e+01    1.023369e+00
  2.748477e+01    1.018030e+00
  2.750065e+01    9.862664e-01
  2.751653e+01    9.661372e-01
  2.753240e+01    9.569105e-01
  2.754828e+01    9.502789e-01
  2.756415e+01    9.508030e-01
  2.758003e+01    9.465808e-01
  2.759590e+01    9.317994e-01
  2.761178e+01    9.112984e-01
  2.762765e+01    8.989077e-01
  2.764353e+01    9.024817e-01
  2.765941e+01    8.889277e-01
  2.767528e+01    8.845786e-01
  2.769116e+01    8.888835e-01
  2.770703e+01    8.901999e-01
  2.772291e+01    8.884329e-01
  2.773878e+01    8.804426e-01
  2.775466e+01    8.643410e-01
  2.777054e+01    8.695566e-01
  2.778641e+01    8.932110e-01
  2.780229e+01    8.930823e-01
  2.781816e+01    8.761379e-01
  2.783404e+01    8.646224e-01
  2.784991e+01    8.626014e-01
  2.786579e+01    8.602824e-01
  2.788166e+01    8.727667e-01
  2.789754e+01    8.764141e-01
  2.791342e+01    8.654701e-01
  2.792929e+01    8.810167e-01
  2.794517e+01    9.094477e-01
  2.796104e+01    9.011852e-01
  2.797692e+01    8.780377e-01
  2.799279e+01    8.689964e-01
  2.800867e+01    8.655129e-01
  2.802454e+01    8.540318e-01
  2.804042e+01    8.388894e-01
  2.805630e+01    8.479681e-01
  2.807217e+01    8.687046e-01
  2.808805e+01    8.672872e-01
  2.810392e+01    8.561261e-01
  2.811980e+01    8.336087e-01
  2.813567e+01    8.512058e-01
  2.815155e+01    8.609253e-01
  2.816742e+01    8.654069e-01
  2.818330e+01    8.518333e-01
  2.819918e+01    8.719702e-01
  2.821505e+01    8.435947e-01
  2.823093e+01    8.482769e-01
  2.824680e+01    8.774506e-01
  2.826268e+01    8.647929e-01
  2.827855e+01    8.300977e-01
  2.829443e+01    8.362727e-01
  2.831030e+01    8.553909e-01
  2.832618e+01    8.441147e-01
  2.834206e+01    8.314913e-01
  2.835793e+01    8.504326e-01
  2.837381e+01    8.488395e-01
  2.838968e+01    8.403549e-01
  2.840556e+01    8.450526e-01
  2.842143e+01    8.422124e-01
  2.843731e+01    8.370128e-01
  2.845318e+01    8.619475e-01
  2.846906e+01    8.685008e-01
  2.848494e+01    8.620126e-01
  2.850081e+01    8.499749e-01
  2.851669e+01    8.375935e-01
  2.853256e+01    8.331708e-01
  2.854844e+01    8.475036e-01
  2.856431e+01    8.246984e-01
  2.858019e+01    8.379704e-01
  2.859606e+01    8.456675e-01
  2.861194e+01    8.526270e-01
  2.862782e+01    8.225189e-01
  2.864369e+01    8.276351e-01
  2.865957e+01    8.323724e-01
  2.867544e+01    8.311860e-01
  2.869132e+01    8.316919e-01
  2.870719e+01    8.168232e-01
  2.872307e+01    8.333949e-01
  2.873895e+01    8.211017e-01
  2.875482e+01    8.242220e-01
  2.877070e+01    8.267267e-01
  2.878657e+01    8.348912e-01
  2.880245e+01    8.326994e-01
  2.881832e+01    8.337630e-01
  2.883420e+01    8.085344e-01
  2.885007e+01    8.395092e-01
  2.886595e+01    8.200454e-01
  2.888183e+01    8.094868e-01
  2.889770e+01    8.229092e-01
  2.891358e+01    8.350562e-01
  2.892945e+01    8.091958e-01
  2.894533e+01    8.145698e-01
  2.896120e+01    8.270200e-01
  2.897708e+01    8.172724e-01
  2.899295e+01    8.058788e-01
  2.900883e+01    8.182389e-01
  2.902471e+01    8.129441e-01
  2.904058e+01    8.311825e-01
  2.905646e+01    8.227749e-01
  2.907233e+01    8.055401e-01
  2.908821e+01    8.243270e-01
  2.910408e+01    8.277928e-01
  2.911996e+01    8.117838e-01
  2.913583e+01    8.200092e-01
  2.915171e+01    8.268705e-01
  2.916759e+01    8.271516e-01
  2.918346e+01    8.164448e-01
  2.919934e+01    8.136684e-01
  2.921521e+01    7.877035e-01
  2.923109e+01    7.997814e-01
  2.924696e+01    8.066513e-01
  2.926284e+01    8.073155e-01
  2.927871e+01    8.055107e-01
  2.929459e+01    8.217818e-01
  2.931047e+01    8.180445e-01
  2.932634e+01    8.128981e-01
  2.934222e+01    7.994973e-01
  2.935809e+01    7.971413e-01
  2.937397e+01    8.164439e-01
  2.938984e+01    8.042293e-01
  2.940572e+01    7.972575e-01
  2.942159e+01    8.089187e-01
  2.943747e+01    8.057098e-01
  2.945335e+01    7.995489e-01
  2.946922e+01    7.940214e-01
  2.948510e+01    8.081246e-01
  2.950097e+01    7.911534e-01
  2.951685e+01    7.885382e-01
  2.953272e+01    7.942200e-01
  2.954860e+01    7.871553e-01
  2.956447e+01    7.809823e-01
  2.958035e+01    7.946910e-01
  2.959623e+01    8.025970e-01
  2.961210e+01    7.965671e-01
  2.962798e+01    7.906772e-01
  2.964385e+01    7.963643e-01
  2.965973e+01    7.993211e-01
  2.967560e+01    8.040839e-01
  2.969148e+01    8.123462e-01
  2.970736e+01    7.836609e-01
  2.972323e+01    7.904409e-01
  2.973911e+01    7.977927e-01
  2.975498e+01    7.806877e-01
  2.977086e+01    7.911740e-01
  2.978673e+01    7.846581e-01
  2.980261e+01    7.901067e-01
  2.981848e+01    7.826857e-01
  2.983436e+01    7.939791e-01
  2.985024e+01    7.864411e-01
  2.986611e+01    7.720823e-01
  2.988199e+01    7.824074e-01
  2.989786e+01    7.958038e-01
  2.991374e+01    8.090886e-01
  2.992961e+01    8.278627e-01
  2.994549e+01    7.960226e-01
  2.996136e+01    8.146815e-01
  2.997724e+01    8.049224e-01
  2.999312e+01    8.163140e-01
  3.000899e+01    7.976112e-01
  3.002487e+01    8.141139e-01
  3.004074e+01    7.870589e-01
  3.005662e+01    8.243761e-01
  3.007249e+01    8.262203e-01
  3.008837e+01    8.139720e-01
  3.010424e+01    7.835395e-01
  3.012012e+01    7.824939e-01
  3.013600e+01    7.865485e-01
  3.015187e+01    8.090444e-01
  3.016775e+01    8.029677e-01
  3.018362e+01    8.039309e-01
  3.019950e+01    8.075066e-01
  3.021537e+01    7.921011e-01
  3.023125e+01    7.795765e-01
  3.024712e+01    7.810606e-01
  3.026300e+01    7.869415e-01
  3.027888e+01    8.291111e-01
  3.029475e+01    7.961794e-01
  3.031063e+01    7.666051e-01
  3.032650e+01    7.845743e-01
  3.034238e+01    7.759908e-01
  3.035825e+01    7.778875e-01
  3.037413e+01    7.792529e-01
  3.039000e+01    7.811094e-01
  3.040588e+01    7.879310e-01
  3.042176e+01    7.819935e-01
  3.043763e+01    7.880558e-01
  3.045351e+01    7.771097e-01
  3.046938e+01    7.528733e-01
  3.048526e+01    7.765400e-01
  3.050113e+01    7.930237e-01
  3.051701e+01    7.758119e-01
  3.053288e+01    7.912695e-01
  3.054876e+01    7.848211e-01
  3.056464e+01    7.858179e-01
  3.058051e+01    7.617720e-01
  3.059639e+01    7.766673e-01
  3.061226e+01    7.974552e-01
  3.062814e+01    7.723108e-01
  3.064401e+01    7.775245e-01
  3.065989e+01    7.823560e-01
  3.067577e+01    7.704387e-01
  3.069164e+01    7.924561e-01
  3.070752e+01    7.991789e-01
  3.072339e+01    8.014621e-01
  3.073927e+01    7.696375e-01
  3.075514e+01    7.863191e-01
  3.077102e+01    8.044177e-01
  3.078689e+01    7.809964e-01
  3.080277e+01    7.790809e-01
  3.081865e+01    7.890330e-01
  3.083452e+01    7.908077e-01
  3.085040e+01    7.854000e-01
  3.086627e+01    7.944512e-01
  3.088215e+01    8.103098e-01
  3.089802e+01    8.049258e-01
  3.091390e+01    7.749397e-01
  3.092977e+01    7.908608e-01
  3.094565e+01    7.907803e-01
  3.096153e+01    7.754096e-01
  3.097740e+01    7.645527e-01
  3.099328e+01    7.742854e-01
  3.100915e+01    7.710474e-01
  3.102503e+01    7.667497e-01
  3.104090e+01    7.788958e-01
  3.105678e+01    7.852458e-01
  3.107265e+01    7.977583e-01
  3.108853e+01    7.996901e-01
  3.110441e+01    8.210133e-01
  3.112028e+01    7.981332e-01
  3.113616e+01    7.914742e-01
  3.115203e+01    7.964640e-01
  3.116791e+01    7.918543e-01
  3.118378e+01    7.633569e-01
  3.119966e+01    7.812310e-01
  3.121553e+01    7.811015e-01
  3.123141e+01    7.838191e-01
  3.124729e+01    7.712306e-01
  3.126316e+01    7.837101e-01
  3.127904e+01    8.285975e-01
  3.129491e+01    7.996363e-01
  3.131079e+01    7.819734e-01
  3.132666e+01    8.105541e-01
  3.134254e+01    8.119886e-01
  3.135841e+01    8.054363e-01
  3.137429e+01    8.027870e-01
  3.139017e+01    7.969511e-01
  3.140604e+01    7.970788e-01
  3.142192e+01    7.889311e-01
  3.143779e+01    8.095481e-01
  3.145367e+01    7.832045e-01
  3.146954e+01    8.064803e-01
  3.148542e+01    8.332043e-01
  3.150129e+01    8.284616e-01
  3.151717e+01    8.148447e-01
  3.153305e+01    8.349033e-01
  3.154892e+01    8.538613e-01
  3.156480e+01    8.538004e-01
  3.158067e+01    8.898895e-01
  3.159655e+01    8.953969e-01
  3.161242e+01    8.725528e-01
  3.162830e+01    8.913033e-01
  3.164418e+01    9.108344e-01
  3.166005e+01    9.278561e-01
  3.167593e+01    9.369984e-01
  3.169180e+01    9.667989e-01
  3.170768e+01    1.018808e+00
  3.172355e+01    1.076496e+00
  3.173943e+01    1.131543e+00
  3.175530e+01    1.167600e+00
  3.177118e+01    1.236947e+00
  3.178706e+01    1.331429e+00
  3.180293e+01    1.431086e+00
  3.181881e+01    1.547930e+00
  3.183468e+01    1.687540e+00
  3.185056e+01    1.837917e+00
  3.186643e+01    1.922188e+00
  3.188231e+01    1.983279e+00
  3.189818e+01    2.082713e+00
  3.191406e+01    2.077744e+00
  3.192994e+01    2.032230e+00
  3.194581e+01    1.983841e+00
  3.196169e+01    1.820806e+00
  3.197756e+01    1.665305e+00
  3.199344e+01    1.565432e+00
  3.200931e+01    1.426281e+00
  3.202519e+01    1.300603e+00
  3.204106e+01    1.217572e+00
  3.205694e+01    1.175210e+00
  3.207282e+01    1.116686e+00
  3.208869e+01    1.057438e+00
  3.210457e+01    9.972890e-01
  3.212044e+01    9.618216e-01
  3.213632e+01    9.233639e-01
  3.215219e+01    9.060676e-01
  3.216807e+01    8.926538e-01
  3.218394e+01    8.845357e-01
  3.219982e+01    8.581595e-01
  3.221570e+01    8.447482e-01
  3.223157e+01    8.370590e-01
  3.224745e+01    8.392990e-01
  3.226332e+01    8.038993e-01
  3.227920e+01    8.182251e-01
  3.229507e+01    8.427062e-01
  3.231095e+01    8.505957e-01
  3.232682e+01    8.297235e-01
  3.234270e+01    8.243276e-01
  3.235858e+01    7.976794e-01
  3.237445e+01    8.099158e-01
  3.239033e+01    8.269638e-01
  3.240620e+01    8.071551e-01
  3.242208e+01    8.191721e-01
  3.243795e+01    8.076493e-01
  3.245383e+01    8.189721e-01
  3.246970e+01    7.957507e-01
  3.248558e+01    7.839850e-01
  3.250146e+01    7.932996e-01
  3.251733e+01    7.996658e-01
  3.253321e+01    7.951343e-01
  3.254908e+01    7.788363e-01
