# == pyFAI calibration ==
# Distance Sample to Detector: 0.3999999939076516 m
# PONI: 9.750e-02, 1.135e-01 m
# Rotations: -0.000175 0.000000 -0.000000 rad
# 
# == Fit2d calibration ==
# Distance Sample-beamCenter: 400.000 mm
# Center: x=1514.000, y=1300.000 pix
# Tilt: 0.010 deg  TiltPlanRot: 0.010 deg
# 
# Detector Detector	 Spline= None	 PixelSize= 7.500e-05, 7.500e-05 m
#    Detector has a mask: False 
#    Detector has a dark current: False 
#    detector has a flat field: False 
# 
# Wavelength: 6.888e-11 m
# Mask applied: user provided
# Dark current applied: False
# Flat field applied: False
# Polarization factor: 0.99
# Normalization factor: 1.0
# --> /home/myspot/data/2024_07_Rosario/Ru-CGO-ex/2024-07-27_003_Ru-CGO-ex_Reaction_dwell_000023_data_000138.dat
#       q_nm^-1             I 
  2.003187e-02    0.000000e+00
  3.590745e-02    0.000000e+00
  5.178302e-02    2.670345e-02
  6.765859e-02    1.028307e-01
  8.353417e-02    6.068722e-02
  9.940974e-02    9.440424e-02
  1.152853e-01    1.126254e-01
  1.311609e-01    5.543765e-02
  1.470365e-01    9.624198e-03
  1.629120e-01    2.522984e-02
  1.787876e-01    7.808249e-02
  1.946632e-01    2.402509e-02
  2.105388e-01    3.434169e-02
  2.264143e-01    2.030602e-02
  2.422899e-01    2.985434e-02
  2.581655e-01    4.474846e-02
  2.740411e-01    5.082726e-02
  2.899166e-01    6.395242e-02
  3.057922e-01    4.674361e-02
  3.216678e-01    6.040888e-02
  3.375433e-01    5.114147e-02
  3.534189e-01    2.294182e-02
  3.692945e-01    1.251291e-02
  3.851701e-01    4.567694e-02
  4.010456e-01    8.552524e-02
  4.169212e-01    7.383355e-02
  4.327968e-01    3.896952e-02
  4.486724e-01    2.695804e-02
  4.645479e-01    4.522070e-02
  4.804235e-01    3.614106e-02
  4.962991e-01    5.524397e-02
  5.121747e-01    8.153857e-02
  5.280502e-01    6.382284e-02
  5.439258e-01    5.677183e-02
  5.598014e-01    4.920215e-02
  5.756770e-01    5.899037e-02
  5.915525e-01    5.239787e-02
  6.074281e-01    2.724602e-02
  6.233037e-01    6.494777e-02
  6.391793e-01    4.884749e-02
  6.550548e-01    2.689433e-02
  6.709304e-01    2.366890e-02
  6.868060e-01    3.808383e-02
  7.026815e-01    4.837883e-02
  7.185571e-01    3.527782e-02
  7.344327e-01    3.523137e-02
  7.503083e-01    4.846747e-02
  7.661838e-01    1.002816e-01
  7.820594e-01    1.581696e-01
  7.979350e-01    1.590506e-01
  8.138106e-01    2.363505e-01
  8.296861e-01    2.710306e-01
  8.455617e-01    3.008580e-01
  8.614373e-01    4.146216e-01
  8.773129e-01    5.334734e-01
  8.931884e-01    6.130127e-01
  9.090640e-01    6.023473e-01
  9.249396e-01    7.150071e-01
  9.408152e-01    7.771478e-01
  9.566907e-01    8.863681e-01
  9.725663e-01    1.082537e+00
  9.884419e-01    1.274853e+00
  1.004317e+00    1.407504e+00
  1.020193e+00    1.427432e+00
  1.036069e+00    1.436364e+00
  1.051944e+00    1.526982e+00
  1.067820e+00    1.529968e+00
  1.083695e+00    1.480113e+00
  1.099571e+00    1.614231e+00
  1.115446e+00    1.673200e+00
  1.131322e+00    1.641881e+00
  1.147198e+00    1.672565e+00
  1.163073e+00    1.666937e+00
  1.178949e+00    1.745658e+00
  1.194824e+00    1.817728e+00
  1.210700e+00    2.049109e+00
  1.226575e+00    2.197269e+00
  1.242451e+00    2.379859e+00
  1.258327e+00    2.455122e+00
  1.274202e+00    2.450202e+00
  1.290078e+00    2.317799e+00
  1.305953e+00    2.530349e+00
  1.321829e+00    2.770857e+00
  1.337705e+00    2.767265e+00
  1.353580e+00    2.737904e+00
  1.369456e+00    2.740897e+00
  1.385331e+00    2.814250e+00
  1.401207e+00    2.991952e+00
  1.417082e+00    2.895569e+00
  1.432958e+00    3.026897e+00
  1.448834e+00    2.909599e+00
  1.464709e+00    3.045089e+00
  1.480585e+00    3.201000e+00
  1.496460e+00    2.915495e+00
  1.512336e+00    3.008355e+00
  1.528211e+00    3.205981e+00
  1.544087e+00    3.153232e+00
  1.559963e+00    3.081640e+00
  1.575838e+00    3.087739e+00
  1.591714e+00    3.283537e+00
  1.607589e+00    3.223357e+00
  1.623465e+00    3.133231e+00
  1.639340e+00    3.142683e+00
  1.655216e+00    3.187716e+00
  1.671092e+00    3.201434e+00
  1.686967e+00    3.108356e+00
  1.702843e+00    3.169539e+00
  1.718718e+00    3.035424e+00
  1.734594e+00    3.086029e+00
  1.750469e+00    2.976651e+00
  1.766345e+00    3.043442e+00
  1.782221e+00    3.142362e+00
  1.798096e+00    3.165925e+00
  1.813972e+00    3.112479e+00
  1.829847e+00    3.145891e+00
  1.845723e+00    3.119196e+00
  1.861598e+00    3.020042e+00
  1.877474e+00    3.012043e+00
  1.893350e+00    3.107550e+00
  1.909225e+00    3.084764e+00
  1.925101e+00    3.077739e+00
  1.940976e+00    3.106109e+00
  1.956852e+00    3.163996e+00
  1.972727e+00    3.166833e+00
  1.988603e+00    3.070953e+00
  2.004479e+00    3.032603e+00
  2.020354e+00    3.042495e+00
  2.036230e+00    3.085650e+00
  2.052105e+00    3.061411e+00
  2.067981e+00    3.120442e+00
  2.083856e+00    3.134688e+00
  2.099732e+00    3.015781e+00
  2.115608e+00    3.056197e+00
  2.131483e+00    2.964309e+00
  2.147359e+00    3.064493e+00
  2.163234e+00    3.064279e+00
  2.179110e+00    3.065409e+00
  2.194985e+00    3.099639e+00
  2.210861e+00    3.149568e+00
  2.226737e+00    3.186566e+00
  2.242612e+00    3.173700e+00
  2.258488e+00    3.094211e+00
  2.274363e+00    3.099160e+00
  2.290239e+00    3.114784e+00
  2.306115e+00    2.979182e+00
  2.321990e+00    3.078415e+00
  2.337866e+00    3.159784e+00
  2.353741e+00    3.127476e+00
  2.369617e+00    3.143009e+00
  2.385492e+00    3.120009e+00
  2.401368e+00    3.110512e+00
  2.417244e+00    3.157102e+00
  2.433119e+00    3.130089e+00
  2.448995e+00    3.129538e+00
  2.464870e+00    3.108148e+00
  2.480746e+00    3.173464e+00
  2.496621e+00    3.227885e+00
  2.512497e+00    3.199994e+00
  2.528373e+00    3.136512e+00
  2.544248e+00    3.271267e+00
  2.560124e+00    3.191569e+00
  2.575999e+00    3.037366e+00
  2.591875e+00    3.060288e+00
  2.607750e+00    3.125888e+00
  2.623626e+00    3.170226e+00
  2.639502e+00    3.308527e+00
  2.655377e+00    3.219141e+00
  2.671253e+00    3.166346e+00
  2.687128e+00    3.236658e+00
  2.703004e+00    3.327797e+00
  2.718879e+00    3.225343e+00
  2.734755e+00    3.186688e+00
  2.750631e+00    3.255231e+00
  2.766506e+00    3.331422e+00
  2.782382e+00    3.400741e+00
  2.798257e+00    3.217716e+00
  2.814133e+00    3.300062e+00
  2.830008e+00    3.279965e+00
  2.845884e+00    3.262427e+00
  2.861760e+00    3.235091e+00
  2.877635e+00    3.272146e+00
  2.893511e+00    3.219946e+00
  2.909386e+00    3.160748e+00
  2.925262e+00    3.320774e+00
  2.941137e+00    3.373564e+00
  2.957013e+00    3.387505e+00
  2.972889e+00    3.352957e+00
  2.988764e+00    3.279050e+00
  3.004640e+00    3.280255e+00
  3.020515e+00    3.301877e+00
  3.036391e+00    3.251851e+00
  3.052266e+00    3.379539e+00
  3.068142e+00    3.434758e+00
  3.084018e+00    3.403247e+00
  3.099893e+00    3.427278e+00
  3.115769e+00    3.437591e+00
  3.131644e+00    3.373992e+00
  3.147520e+00    3.337591e+00
  3.163395e+00    3.255659e+00
  3.179271e+00    3.399026e+00
  3.195147e+00    3.500532e+00
  3.211022e+00    3.398994e+00
  3.226898e+00    3.336198e+00
  3.242773e+00    3.361016e+00
  3.258649e+00    3.452618e+00
  3.274525e+00    3.472905e+00
  3.290400e+00    3.476187e+00
  3.306276e+00    3.496557e+00
  3.322151e+00    3.371523e+00
  3.338027e+00    3.402691e+00
  3.353902e+00    3.336561e+00
  3.369778e+00    3.274226e+00
  3.385654e+00    3.321521e+00
  3.401529e+00    3.409783e+00
  3.417405e+00    3.448147e+00
  3.433280e+00    3.435222e+00
  3.449156e+00    3.391944e+00
  3.465031e+00    3.381191e+00
  3.480907e+00    3.441880e+00
  3.496783e+00    3.481390e+00
  3.512658e+00    3.403728e+00
  3.528534e+00    3.353942e+00
  3.544409e+00    3.416402e+00
  3.560285e+00    3.492322e+00
  3.576160e+00    3.480259e+00
  3.592036e+00    3.534798e+00
  3.607912e+00    3.456151e+00
  3.623787e+00    3.497282e+00
  3.639663e+00    3.476731e+00
  3.655538e+00    3.419870e+00
  3.671414e+00    3.397254e+00
  3.687289e+00    3.482767e+00
  3.703165e+00    3.508630e+00
  3.719041e+00    3.416506e+00
  3.734916e+00    3.358715e+00
  3.750792e+00    3.483680e+00
  3.766667e+00    3.404573e+00
  3.782543e+00    3.469496e+00
  3.798418e+00    3.445530e+00
  3.814294e+00    3.524769e+00
  3.830170e+00    3.532829e+00
  3.846045e+00    3.504511e+00
  3.861921e+00    3.511768e+00
  3.877796e+00    3.461288e+00
  3.893672e+00    3.485619e+00
  3.909547e+00    3.614496e+00
  3.925423e+00    3.551361e+00
  3.941299e+00    3.562056e+00
  3.957174e+00    3.473607e+00
  3.973050e+00    3.451595e+00
  3.988925e+00    3.523434e+00
  4.004801e+00    3.582662e+00
  4.020676e+00    3.571572e+00
  4.036552e+00    3.489910e+00
  4.052428e+00    3.453063e+00
  4.068303e+00    3.559035e+00
  4.084179e+00    3.536805e+00
  4.100054e+00    3.516525e+00
  4.115930e+00    3.502576e+00
  4.131806e+00    3.535947e+00
  4.147681e+00    3.575213e+00
  4.163557e+00    3.517185e+00
  4.179432e+00    3.534578e+00
  4.195308e+00    3.542686e+00
  4.211183e+00    3.564415e+00
  4.227059e+00    3.555820e+00
  4.242935e+00    3.524016e+00
  4.258810e+00    3.477457e+00
  4.274686e+00    3.541559e+00
  4.290561e+00    3.561473e+00
  4.306437e+00    3.547199e+00
  4.322312e+00    3.519082e+00
  4.338188e+00    3.551695e+00
  4.354064e+00    3.553785e+00
  4.369939e+00    3.612541e+00
  4.385815e+00    3.516774e+00
  4.401690e+00    3.550925e+00
  4.417566e+00    3.598034e+00
  4.433441e+00    3.566632e+00
  4.449317e+00    3.565866e+00
  4.465193e+00    3.545923e+00
  4.481068e+00    3.557347e+00
  4.496944e+00    3.593973e+00
  4.512819e+00    3.571611e+00
  4.528695e+00    3.568088e+00
  4.544570e+00    3.623313e+00
  4.560446e+00    3.544600e+00
  4.576322e+00    3.537355e+00
  4.592197e+00    3.612139e+00
  4.608073e+00    3.661090e+00
  4.623948e+00    3.626509e+00
  4.639824e+00    3.611027e+00
  4.655699e+00    3.604497e+00
  4.671575e+00    3.645090e+00
  4.687451e+00    3.626673e+00
  4.703326e+00    3.592021e+00
  4.719202e+00    3.578948e+00
  4.735077e+00    3.605055e+00
  4.750953e+00    3.641017e+00
  4.766828e+00    3.679511e+00
  4.782704e+00    3.610276e+00
  4.798580e+00    3.676792e+00
  4.814455e+00    3.654698e+00
  4.830331e+00    3.570673e+00
  4.846206e+00    3.666338e+00
  4.862082e+00    3.649107e+00
  4.877957e+00    3.624974e+00
  4.893833e+00    3.638648e+00
  4.909709e+00    3.617351e+00
  4.925584e+00    3.654348e+00
  4.941460e+00    3.717484e+00
  4.957335e+00    3.696355e+00
  4.973211e+00    3.629662e+00
  4.989086e+00    3.602708e+00
  5.004962e+00    3.642956e+00
  5.020838e+00    3.679357e+00
  5.036713e+00    3.662420e+00
  5.052589e+00    3.652479e+00
  5.068464e+00    3.618848e+00
  5.084340e+00    3.555893e+00
  5.100216e+00    3.682406e+00
  5.116091e+00    3.705804e+00
  5.131967e+00    3.727731e+00
  5.147842e+00    3.778251e+00
  5.163718e+00    3.654956e+00
  5.179593e+00    3.633206e+00
  5.195469e+00    3.674829e+00
  5.211345e+00    3.654271e+00
  5.227220e+00    3.684832e+00
  5.243096e+00    3.743817e+00
  5.258971e+00    3.681719e+00
  5.274847e+00    3.670955e+00
  5.290722e+00    3.604773e+00
  5.306598e+00    3.652010e+00
  5.322474e+00    3.670280e+00
  5.338349e+00    3.703932e+00
  5.354225e+00    3.694116e+00
  5.370100e+00    3.648741e+00
  5.385976e+00    3.621480e+00
  5.401851e+00    3.619962e+00
  5.417727e+00    3.648545e+00
  5.433603e+00    3.657663e+00
  5.449478e+00    3.661143e+00
  5.465354e+00    3.590581e+00
  5.481229e+00    3.525366e+00
  5.497105e+00    3.554644e+00
  5.512980e+00    3.612278e+00
  5.528856e+00    3.690059e+00
  5.544732e+00    3.652890e+00
  5.560607e+00    3.527756e+00
  5.576483e+00    3.600713e+00
  5.592358e+00    3.639794e+00
  5.608234e+00    3.631222e+00
  5.624109e+00    3.578017e+00
  5.639985e+00    3.549637e+00
  5.655861e+00    3.580718e+00
  5.671736e+00    3.519909e+00
  5.687612e+00    3.545916e+00
  5.703487e+00    3.553323e+00
  5.719363e+00    3.589670e+00
  5.735238e+00    3.570560e+00
  5.751114e+00    3.584532e+00
  5.766990e+00    3.567170e+00
  5.782865e+00    3.537864e+00
  5.798741e+00    3.517692e+00
  5.814616e+00    3.594799e+00
  5.830492e+00    3.606571e+00
  5.846367e+00    3.512640e+00
  5.862243e+00    3.567771e+00
  5.878119e+00    3.527644e+00
  5.893994e+00    3.522217e+00
  5.909870e+00    3.513294e+00
  5.925745e+00    3.553333e+00
  5.941621e+00    3.446743e+00
  5.957497e+00    3.475435e+00
  5.973372e+00    3.554816e+00
  5.989248e+00    3.604513e+00
  6.005123e+00    3.550971e+00
  6.020999e+00    3.507104e+00
  6.036874e+00    3.480367e+00
  6.052750e+00    3.513264e+00
  6.068626e+00    3.608793e+00
  6.084501e+00    3.567410e+00
  6.100377e+00    3.611920e+00
  6.116252e+00    3.638185e+00
  6.132128e+00    3.647738e+00
  6.148003e+00    3.547634e+00
  6.163879e+00    3.569215e+00
  6.179755e+00    3.584416e+00
  6.195630e+00    3.576051e+00
  6.211506e+00    3.615705e+00
  6.227381e+00    3.636154e+00
  6.243257e+00    3.655399e+00
  6.259132e+00    3.603416e+00
  6.275008e+00    3.523765e+00
  6.290884e+00    3.568835e+00
  6.306759e+00    3.580922e+00
  6.322635e+00    3.570774e+00
  6.338510e+00    3.578922e+00
  6.354386e+00    3.575487e+00
  6.370261e+00    3.568866e+00
  6.386137e+00    3.544858e+00
  6.402013e+00    3.563885e+00
  6.417888e+00    3.563339e+00
  6.433764e+00    3.551803e+00
  6.449639e+00    3.564785e+00
  6.465515e+00    3.553520e+00
  6.481390e+00    3.498999e+00
  6.497266e+00    3.495167e+00
  6.513142e+00    3.598373e+00
  6.529017e+00    3.632012e+00
  6.544893e+00    3.616282e+00
  6.560768e+00    3.539269e+00
  6.576644e+00    3.589780e+00
  6.592519e+00    3.626968e+00
  6.608395e+00    3.503427e+00
  6.624271e+00    3.555418e+00
  6.640146e+00    3.572747e+00
  6.656022e+00    3.544632e+00
  6.671897e+00    3.612537e+00
  6.687773e+00    3.592157e+00
  6.703648e+00    3.576089e+00
  6.719524e+00    3.559259e+00
  6.735400e+00    3.562816e+00
  6.751275e+00    3.541944e+00
  6.767151e+00    3.558518e+00
  6.783026e+00    3.574104e+00
  6.798902e+00    3.589151e+00
  6.814777e+00    3.589559e+00
  6.830653e+00    3.562330e+00
  6.846529e+00    3.548588e+00
  6.862404e+00    3.523391e+00
  6.878280e+00    3.523453e+00
  6.894155e+00    3.576765e+00
  6.910031e+00    3.556224e+00
  6.925907e+00    3.522673e+00
  6.941782e+00    3.534439e+00
  6.957658e+00    3.518948e+00
  6.973533e+00    3.516655e+00
  6.989409e+00    3.573560e+00
  7.005284e+00    3.564602e+00
  7.021160e+00    3.525766e+00
  7.037036e+00    3.454782e+00
  7.052911e+00    3.477363e+00
  7.068787e+00    3.528107e+00
  7.084662e+00    3.451678e+00
  7.100538e+00    3.476817e+00
  7.116413e+00    3.478836e+00
  7.132289e+00    3.486348e+00
  7.148165e+00    3.496895e+00
  7.164040e+00    3.545944e+00
  7.179916e+00    3.482744e+00
  7.195791e+00    3.478391e+00
  7.211667e+00    3.479902e+00
  7.227542e+00    3.510320e+00
  7.243418e+00    3.537365e+00
  7.259294e+00    3.569687e+00
  7.275169e+00    3.520479e+00
  7.291045e+00    3.463473e+00
  7.306920e+00    3.443066e+00
  7.322796e+00    3.472795e+00
  7.338671e+00    3.501982e+00
  7.354547e+00    3.539534e+00
  7.370423e+00    3.562100e+00
  7.386298e+00    3.512941e+00
  7.402174e+00    3.535411e+00
  7.418049e+00    3.542785e+00
  7.433925e+00    3.523243e+00
  7.449800e+00    3.545983e+00
  7.465676e+00    3.596235e+00
  7.481552e+00    3.507182e+00
  7.497427e+00    3.379650e+00
  7.513303e+00    3.473311e+00
  7.529178e+00    3.539974e+00
  7.545054e+00    3.532921e+00
  7.560929e+00    3.476176e+00
  7.576805e+00    3.520646e+00
  7.592681e+00    3.540812e+00
  7.608556e+00    3.470956e+00
  7.624432e+00    3.512550e+00
  7.640307e+00    3.521329e+00
  7.656183e+00    3.491603e+00
  7.672058e+00    3.494872e+00
  7.687934e+00    3.502326e+00
  7.703810e+00    3.504725e+00
  7.719685e+00    3.330830e+00
  7.735561e+00    3.365552e+00
  7.751436e+00    3.527053e+00
  7.767312e+00    3.483704e+00
  7.783187e+00    3.467408e+00
  7.799063e+00    3.478322e+00
  7.814939e+00    3.406285e+00
  7.830814e+00    3.430779e+00
  7.846690e+00    3.359317e+00
  7.862565e+00    3.407014e+00
  7.878441e+00    3.451369e+00
  7.894317e+00    3.426930e+00
  7.910192e+00    3.395476e+00
  7.926068e+00    3.410168e+00
  7.941943e+00    3.410277e+00
  7.957819e+00    3.431743e+00
  7.973694e+00    3.407694e+00
  7.989570e+00    3.405418e+00
  8.005446e+00    3.409881e+00
  8.021321e+00    3.407338e+00
  8.037197e+00    3.402542e+00
  8.053072e+00    3.322857e+00
  8.068948e+00    3.376317e+00
  8.084823e+00    3.437199e+00
  8.100699e+00    3.440065e+00
  8.116575e+00    3.483123e+00
  8.132450e+00    3.480470e+00
  8.148326e+00    3.481777e+00
  8.164201e+00    3.453948e+00
  8.180077e+00    3.460484e+00
  8.195952e+00    3.475422e+00
  8.211828e+00    3.482270e+00
  8.227704e+00    3.501859e+00
  8.243579e+00    3.477585e+00
  8.259455e+00    3.586280e+00
  8.275330e+00    3.504253e+00
  8.291206e+00    3.367502e+00
  8.307081e+00    3.421226e+00
  8.322957e+00    3.438630e+00
  8.338833e+00    3.347834e+00
  8.354708e+00    3.365974e+00
  8.370584e+00    3.401542e+00
  8.386459e+00    3.426651e+00
  8.402335e+00    3.451846e+00
  8.418210e+00    3.336668e+00
  8.434086e+00    3.331511e+00
  8.449962e+00    3.371738e+00
  8.465837e+00    3.363374e+00
  8.481713e+00    3.343823e+00
  8.497588e+00    3.303077e+00
  8.513464e+00    3.377428e+00
  8.529339e+00    3.445706e+00
  8.545215e+00    3.451829e+00
  8.561091e+00    3.327064e+00
  8.576966e+00    3.337111e+00
  8.592842e+00    3.336158e+00
  8.608717e+00    3.357791e+00
  8.624593e+00    3.346226e+00
  8.640468e+00    3.371244e+00
  8.656344e+00    3.292343e+00
  8.672220e+00    3.232930e+00
  8.688095e+00    3.246283e+00
  8.703971e+00    3.329529e+00
  8.719846e+00    3.297796e+00
  8.735722e+00    3.314342e+00
  8.751598e+00    3.341185e+00
  8.767473e+00    3.319281e+00
  8.783349e+00    3.304991e+00
  8.799224e+00    3.325115e+00
  8.815100e+00    3.306473e+00
  8.830975e+00    3.301505e+00
  8.846851e+00    3.262801e+00
  8.862727e+00    3.291065e+00
  8.878602e+00    3.321976e+00
  8.894478e+00    3.371097e+00
  8.910353e+00    3.310568e+00
  8.926229e+00    3.254165e+00
  8.942104e+00    3.241805e+00
  8.957980e+00    3.275597e+00
  8.973856e+00    3.253931e+00
  8.989731e+00    3.242938e+00
  9.005607e+00    3.344066e+00
  9.021482e+00    3.310276e+00
  9.037358e+00    3.212556e+00
  9.053233e+00    3.220544e+00
  9.069109e+00    3.239965e+00
  9.084985e+00    3.276674e+00
  9.100860e+00    3.315466e+00
  9.116736e+00    3.257811e+00
  9.132611e+00    3.303059e+00
  9.148487e+00    3.315331e+00
  9.164362e+00    3.281293e+00
  9.180238e+00    3.247077e+00
  9.196114e+00    3.204853e+00
  9.211989e+00    3.230467e+00
  9.227865e+00    3.262071e+00
  9.243740e+00    3.271562e+00
  9.259616e+00    3.252665e+00
  9.275491e+00    3.229376e+00
  9.291367e+00    3.203591e+00
  9.307243e+00    3.255563e+00
  9.323118e+00    3.209327e+00
  9.338994e+00    3.231191e+00
  9.354869e+00    3.271374e+00
  9.370745e+00    3.243416e+00
  9.386620e+00    3.244826e+00
  9.402496e+00    3.197703e+00
  9.418372e+00    3.159881e+00
  9.434247e+00    3.206227e+00
  9.450123e+00    3.190879e+00
  9.465998e+00    3.208462e+00
  9.481874e+00    3.199690e+00
  9.497749e+00    3.196918e+00
  9.513625e+00    3.237652e+00
  9.529501e+00    3.277830e+00
  9.545376e+00    3.251778e+00
  9.561252e+00    3.213328e+00
  9.577127e+00    3.167012e+00
  9.593003e+00    3.144793e+00
  9.608878e+00    3.211410e+00
  9.624754e+00    3.259454e+00
  9.640630e+00    3.219364e+00
  9.656505e+00    3.155845e+00
  9.672381e+00    3.205195e+00
  9.688256e+00    3.201046e+00
  9.704132e+00    3.160125e+00
  9.720008e+00    3.118830e+00
  9.735883e+00    3.145112e+00
  9.751759e+00    3.140680e+00
  9.767634e+00    3.176351e+00
  9.783510e+00    3.145117e+00
  9.799385e+00    3.091964e+00
  9.815261e+00    3.146399e+00
  9.831137e+00    3.105686e+00
  9.847012e+00    3.177289e+00
  9.862888e+00    3.165531e+00
  9.878763e+00    3.114635e+00
  9.894639e+00    3.104438e+00
  9.910514e+00    3.081566e+00
  9.926390e+00    3.168393e+00
  9.942266e+00    3.084095e+00
  9.958141e+00    3.120790e+00
  9.974017e+00    3.096427e+00
  9.989892e+00    3.098022e+00
  1.000577e+01    3.113164e+00
  1.002164e+01    3.040867e+00
  1.003752e+01    3.079709e+00
  1.005339e+01    3.043545e+00
  1.006927e+01    3.148588e+00
  1.008515e+01    3.111012e+00
  1.010102e+01    3.084950e+00
  1.011690e+01    3.059473e+00
  1.013277e+01    3.019056e+00
  1.014865e+01    3.056191e+00
  1.016452e+01    3.110452e+00
  1.018040e+01    3.089097e+00
  1.019627e+01    3.052203e+00
  1.021215e+01    2.992831e+00
  1.022803e+01    3.052521e+00
  1.024390e+01    3.118637e+00
  1.025978e+01    3.027118e+00
  1.027565e+01    3.050216e+00
  1.029153e+01    3.114683e+00
  1.030740e+01    3.066194e+00
  1.032328e+01    3.011913e+00
  1.033915e+01    3.033060e+00
  1.035503e+01    3.082250e+00
  1.037091e+01    3.055058e+00
  1.038678e+01    3.015701e+00
  1.040266e+01    3.011744e+00
  1.041853e+01    3.073597e+00
  1.043441e+01    3.052443e+00
  1.045028e+01    2.988931e+00
  1.046616e+01    2.981966e+00
  1.048204e+01    3.010801e+00
  1.049791e+01    3.027779e+00
  1.051379e+01    3.003769e+00
  1.052966e+01    2.981344e+00
  1.054554e+01    2.999292e+00
  1.056141e+01    3.004765e+00
  1.057729e+01    3.040438e+00
  1.059316e+01    3.088098e+00
  1.060904e+01    3.036026e+00
  1.062492e+01    2.959610e+00
  1.064079e+01    2.959740e+00
  1.065667e+01    2.950196e+00
  1.067254e+01    2.957851e+00
  1.068842e+01    2.963936e+00
  1.070429e+01    2.996484e+00
  1.072017e+01    2.977915e+00
  1.073604e+01    2.951391e+00
  1.075192e+01    2.947725e+00
  1.076780e+01    2.934097e+00
  1.078367e+01    2.991677e+00
  1.079955e+01    2.993791e+00
  1.081542e+01    2.938014e+00
  1.083130e+01    2.981436e+00
  1.084717e+01    2.946592e+00
  1.086305e+01    2.943494e+00
  1.087892e+01    2.920210e+00
  1.089480e+01    2.958803e+00
  1.091068e+01    2.964212e+00
  1.092655e+01    2.948465e+00
  1.094243e+01    2.915576e+00
  1.095830e+01    2.940645e+00
  1.097418e+01    2.934159e+00
  1.099005e+01    2.909210e+00
  1.100593e+01    2.889223e+00
  1.102180e+01    2.894453e+00
  1.103768e+01    2.953312e+00
  1.105356e+01    2.961596e+00
  1.106943e+01    2.894660e+00
  1.108531e+01    2.898432e+00
  1.110118e+01    2.868435e+00
  1.111706e+01    2.890514e+00
  1.113293e+01    2.903240e+00
  1.114881e+01    2.875305e+00
  1.116468e+01    2.860496e+00
  1.118056e+01    2.859017e+00
  1.119644e+01    2.854807e+00
  1.121231e+01    2.872332e+00
  1.122819e+01    2.846715e+00
  1.124406e+01    2.869523e+00
  1.125994e+01    2.882234e+00
  1.127581e+01    2.864998e+00
  1.129169e+01    2.838411e+00
  1.130756e+01    2.843076e+00
  1.132344e+01    2.846130e+00
  1.133932e+01    2.794863e+00
  1.135519e+01    2.820923e+00
  1.137107e+01    2.832085e+00
  1.138694e+01    2.820587e+00
  1.140282e+01    2.812279e+00
  1.141869e+01    2.810806e+00
  1.143457e+01    2.842348e+00
  1.145045e+01    2.871088e+00
  1.146632e+01    2.842673e+00
  1.148220e+01    2.796549e+00
  1.149807e+01    2.779493e+00
  1.151395e+01    2.769114e+00
  1.152982e+01    2.759140e+00
  1.154570e+01    2.756933e+00
  1.156157e+01    2.784675e+00
  1.157745e+01    2.810291e+00
  1.159333e+01    2.766545e+00
  1.160920e+01    2.758980e+00
  1.162508e+01    2.741713e+00
  1.164095e+01    2.741836e+00
  1.165683e+01    2.772233e+00
  1.167270e+01    2.799104e+00
  1.168858e+01    2.855746e+00
  1.170445e+01    2.817611e+00
  1.172033e+01    2.738685e+00
  1.173621e+01    2.762055e+00
  1.175208e+01    2.778110e+00
  1.176796e+01    2.742218e+00
  1.178383e+01    2.714461e+00
  1.179971e+01    2.735012e+00
  1.181558e+01    2.759279e+00
  1.183146e+01    2.717257e+00
  1.184733e+01    2.709182e+00
  1.186321e+01    2.726068e+00
  1.187909e+01    2.722670e+00
  1.189496e+01    2.725327e+00
  1.191084e+01    2.760978e+00
  1.192671e+01    2.729264e+00
  1.194259e+01    2.712336e+00
  1.195846e+01    2.715963e+00
  1.197434e+01    2.696159e+00
  1.199021e+01    2.712467e+00
  1.200609e+01    2.750009e+00
  1.202197e+01    2.746989e+00
  1.203784e+01    2.742660e+00
  1.205372e+01    2.722128e+00
  1.206959e+01    2.670027e+00
  1.208547e+01    2.687616e+00
  1.210134e+01    2.634146e+00
  1.211722e+01    2.631919e+00
  1.213309e+01    2.706352e+00
  1.214897e+01    2.728100e+00
  1.216485e+01    2.716820e+00
  1.218072e+01    2.678386e+00
  1.219660e+01    2.658720e+00
  1.221247e+01    2.690445e+00
  1.222835e+01    2.708652e+00
  1.224422e+01    2.713464e+00
  1.226010e+01    2.653870e+00
  1.227597e+01    2.669249e+00
  1.229185e+01    2.668374e+00
  1.230773e+01    2.649340e+00
  1.232360e+01    2.672519e+00
  1.233948e+01    2.705721e+00
  1.235535e+01    2.690459e+00
  1.237123e+01    2.687073e+00
  1.238710e+01    2.679145e+00
  1.240298e+01    2.694703e+00
  1.241886e+01    2.704646e+00
  1.243473e+01    2.713586e+00
  1.245061e+01    2.697381e+00
  1.246648e+01    2.703105e+00
  1.248236e+01    2.675294e+00
  1.249823e+01    2.662446e+00
  1.251411e+01    2.681379e+00
  1.252998e+01    2.719671e+00
  1.254586e+01    2.748357e+00
  1.256174e+01    2.752869e+00
  1.257761e+01    2.729527e+00
  1.259349e+01    2.722875e+00
  1.260936e+01    2.764950e+00
  1.262524e+01    2.798911e+00
  1.264111e+01    2.778652e+00
  1.265699e+01    2.794199e+00
  1.267286e+01    2.809611e+00
  1.268874e+01    2.847008e+00
  1.270462e+01    2.796384e+00
  1.272049e+01    2.821682e+00
  1.273637e+01    2.858175e+00
  1.275224e+01    2.930680e+00
  1.276812e+01    2.937020e+00
  1.278399e+01    2.929650e+00
  1.279987e+01    3.017004e+00
  1.281574e+01    3.091825e+00
  1.283162e+01    3.103624e+00
  1.284750e+01    3.220640e+00
  1.286337e+01    3.291767e+00
  1.287925e+01    3.359262e+00
  1.289512e+01    3.438452e+00
  1.291100e+01    3.608075e+00
  1.292687e+01    3.877293e+00
  1.294275e+01    4.141033e+00
  1.295862e+01    4.405088e+00
  1.297450e+01    4.788122e+00
  1.299038e+01    5.314145e+00
  1.300625e+01    5.935005e+00
  1.302213e+01    6.806464e+00
  1.303800e+01    7.755964e+00
  1.305388e+01    8.959910e+00
  1.306975e+01    1.023453e+01
  1.308563e+01    1.159595e+01
  1.310150e+01    1.286633e+01
  1.311738e+01    1.385193e+01
  1.313326e+01    1.492315e+01
  1.314913e+01    1.572962e+01
  1.316501e+01    1.616732e+01
  1.318088e+01    1.632015e+01
  1.319676e+01    1.571651e+01
  1.321263e+01    1.438663e+01
  1.322851e+01    1.251732e+01
  1.324438e+01    1.071803e+01
  1.326026e+01    9.184484e+00
  1.327614e+01    7.816346e+00
  1.329201e+01    6.754155e+00
  1.330789e+01    5.993325e+00
  1.332376e+01    5.346981e+00
  1.333964e+01    4.835367e+00
  1.335551e+01    4.452757e+00
  1.337139e+01    4.149592e+00
  1.338727e+01    3.869337e+00
  1.340314e+01    3.702149e+00
  1.341902e+01    3.424771e+00
  1.343489e+01    3.301287e+00
  1.345077e+01    3.188830e+00
  1.346664e+01    3.116163e+00
  1.348252e+01    3.016372e+00
  1.349839e+01    2.917952e+00
  1.351427e+01    2.902949e+00
  1.353015e+01    2.882798e+00
  1.354602e+01    2.841920e+00
  1.356190e+01    2.745085e+00
  1.357777e+01    2.726202e+00
  1.359365e+01    2.696571e+00
  1.360952e+01    2.685599e+00
  1.362540e+01    2.656074e+00
  1.364127e+01    2.611483e+00
  1.365715e+01    2.601860e+00
  1.367303e+01    2.609992e+00
  1.368890e+01    2.578788e+00
  1.370478e+01    2.535591e+00
  1.372065e+01    2.569463e+00
  1.373653e+01    2.530255e+00
  1.375240e+01    2.507640e+00
  1.376828e+01    2.445017e+00
  1.378415e+01    2.466092e+00
  1.380003e+01    2.472629e+00
  1.381591e+01    2.432240e+00
  1.383178e+01    2.473311e+00
  1.384766e+01    2.510196e+00
  1.386353e+01    2.438780e+00
  1.387941e+01    2.430671e+00
  1.389528e+01    2.406016e+00
  1.391116e+01    2.385999e+00
  1.392703e+01    2.339593e+00
  1.394291e+01    2.385908e+00
  1.395879e+01    2.397908e+00
  1.397466e+01    2.380542e+00
  1.399054e+01    2.399015e+00
  1.400641e+01    2.373195e+00
  1.402229e+01    2.356742e+00
  1.403816e+01    2.362889e+00
  1.405404e+01    2.341556e+00
  1.406991e+01    2.330391e+00
  1.408579e+01    2.317454e+00
  1.410167e+01    2.302247e+00
  1.411754e+01    2.308165e+00
  1.413342e+01    2.314486e+00
  1.414929e+01    2.340873e+00
  1.416517e+01    2.327312e+00
  1.418104e+01    2.295492e+00
  1.419692e+01    2.317948e+00
  1.421279e+01    2.273207e+00
  1.422867e+01    2.233069e+00
  1.424455e+01    2.280361e+00
  1.426042e+01    2.319854e+00
  1.427630e+01    2.309820e+00
  1.429217e+01    2.287858e+00
  1.430805e+01    2.250712e+00
  1.432392e+01    2.234702e+00
  1.433980e+01    2.268305e+00
  1.435568e+01    2.268952e+00
  1.437155e+01    2.250400e+00
  1.438743e+01    2.247364e+00
  1.440330e+01    2.258306e+00
  1.441918e+01    2.214437e+00
  1.443505e+01    2.238085e+00
  1.445093e+01    2.224628e+00
  1.446680e+01    2.201327e+00
  1.448268e+01    2.244271e+00
  1.449856e+01    2.203887e+00
  1.451443e+01    2.215032e+00
  1.453031e+01    2.228966e+00
  1.454618e+01    2.228867e+00
  1.456206e+01    2.201837e+00
  1.457793e+01    2.173117e+00
  1.459381e+01    2.181997e+00
  1.460968e+01    2.269951e+00
  1.462556e+01    2.231201e+00
  1.464144e+01    2.232984e+00
  1.465731e+01    2.246493e+00
  1.467319e+01    2.213055e+00
  1.468906e+01    2.160016e+00
  1.470494e+01    2.155388e+00
  1.472081e+01    2.187953e+00
  1.473669e+01    2.218359e+00
  1.475256e+01    2.181052e+00
  1.476844e+01    2.185614e+00
  1.478432e+01    2.195891e+00
  1.480019e+01    2.238836e+00
  1.481607e+01    2.230768e+00
  1.483194e+01    2.216649e+00
  1.484782e+01    2.244351e+00
  1.486369e+01    2.222334e+00
  1.487957e+01    2.215251e+00
  1.489544e+01    2.262967e+00
  1.491132e+01    2.273380e+00
  1.492720e+01    2.284867e+00
  1.494307e+01    2.272136e+00
  1.495895e+01    2.297235e+00
  1.497482e+01    2.314336e+00
  1.499070e+01    2.377944e+00
  1.500657e+01    2.426391e+00
  1.502245e+01    2.497573e+00
  1.503832e+01    2.624360e+00
  1.505420e+01    2.730581e+00
  1.507008e+01    2.848521e+00
  1.508595e+01    3.040406e+00
  1.510183e+01    3.242581e+00
  1.511770e+01    3.508847e+00
  1.513358e+01    3.837818e+00
  1.514945e+01    4.148746e+00
  1.516533e+01    4.491671e+00
  1.518120e+01    4.883811e+00
  1.519708e+01    5.195299e+00
  1.521296e+01    5.420082e+00
  1.522883e+01    5.626151e+00
  1.524471e+01    5.799325e+00
  1.526058e+01    5.755814e+00
  1.527646e+01    5.667671e+00
  1.529233e+01    5.482583e+00
  1.530821e+01    5.097126e+00
  1.532409e+01    4.669191e+00
  1.533996e+01    4.198178e+00
  1.535584e+01    3.774635e+00
  1.537171e+01    3.474512e+00
  1.538759e+01    3.137369e+00
  1.540346e+01    2.920616e+00
  1.541934e+01    2.733543e+00
  1.543521e+01    2.581242e+00
  1.545109e+01    2.501601e+00
  1.546697e+01    2.433625e+00
  1.548284e+01    2.329740e+00
  1.549872e+01    2.275609e+00
  1.551459e+01    2.210998e+00
  1.553047e+01    2.201702e+00
  1.554634e+01    2.177207e+00
  1.556222e+01    2.179708e+00
  1.557809e+01    2.123541e+00
  1.559397e+01    2.123928e+00
  1.560985e+01    2.097984e+00
  1.562572e+01    2.075831e+00
  1.564160e+01    2.032673e+00
  1.565747e+01    2.023180e+00
  1.567335e+01    2.001631e+00
  1.568922e+01    1.993272e+00
  1.570510e+01    1.976691e+00
  1.572097e+01    1.999161e+00
  1.573685e+01    1.950791e+00
  1.575273e+01    1.914121e+00
  1.576860e+01    1.968118e+00
  1.578448e+01    1.966756e+00
  1.580035e+01    1.963418e+00
  1.581623e+01    1.959515e+00
  1.583210e+01    1.925796e+00
  1.584798e+01    1.899197e+00
  1.586385e+01    1.911923e+00
  1.587973e+01    1.920833e+00
  1.589561e+01    1.906430e+00
  1.591148e+01    1.876621e+00
  1.592736e+01    1.852977e+00
  1.594323e+01    1.881042e+00
  1.595911e+01    1.906440e+00
  1.597498e+01    1.879808e+00
  1.599086e+01    1.864434e+00
  1.600673e+01    1.849160e+00
  1.602261e+01    1.843065e+00
  1.603849e+01    1.871940e+00
  1.605436e+01    1.867224e+00
  1.607024e+01    1.861039e+00
  1.608611e+01    1.833978e+00
  1.610199e+01    1.812403e+00
  1.611786e+01    1.803928e+00
  1.613374e+01    1.860849e+00
  1.614961e+01    1.858099e+00
  1.616549e+01    1.842040e+00
  1.618137e+01    1.802418e+00
  1.619724e+01    1.813457e+00
  1.621312e+01    1.841346e+00
  1.622899e+01    1.808862e+00
  1.624487e+01    1.793576e+00
  1.626074e+01    1.800812e+00
  1.627662e+01    1.780867e+00
  1.629250e+01    1.807698e+00
  1.630837e+01    1.800759e+00
  1.632425e+01    1.771888e+00
  1.634012e+01    1.819699e+00
  1.635600e+01    1.839574e+00
  1.637187e+01    1.795465e+00
  1.638775e+01    1.777139e+00
  1.640362e+01    1.766758e+00
  1.641950e+01    1.769082e+00
  1.643538e+01    1.765939e+00
  1.645125e+01    1.759256e+00
  1.646713e+01    1.784381e+00
  1.648300e+01    1.793285e+00
  1.649888e+01    1.781767e+00
  1.651475e+01    1.764252e+00
  1.653063e+01    1.751739e+00
  1.654650e+01    1.752827e+00
  1.656238e+01    1.768295e+00
  1.657826e+01    1.754640e+00
  1.659413e+01    1.727588e+00
  1.661001e+01    1.738447e+00
  1.662588e+01    1.723719e+00
  1.664176e+01    1.722859e+00
  1.665763e+01    1.725257e+00
  1.667351e+01    1.703478e+00
  1.668938e+01    1.711755e+00
  1.670526e+01    1.737832e+00
  1.672114e+01    1.707331e+00
  1.673701e+01    1.726139e+00
  1.675289e+01    1.725078e+00
  1.676876e+01    1.689837e+00
  1.678464e+01    1.688581e+00
  1.680051e+01    1.696180e+00
  1.681639e+01    1.703452e+00
  1.683226e+01    1.694801e+00
  1.684814e+01    1.686049e+00
  1.686402e+01    1.709652e+00
  1.687989e+01    1.670940e+00
  1.689577e+01    1.677305e+00
  1.691164e+01    1.675900e+00
  1.692752e+01    1.666576e+00
  1.694339e+01    1.706552e+00
  1.695927e+01    1.676909e+00
  1.697514e+01    1.694533e+00
  1.699102e+01    1.665600e+00
  1.700690e+01    1.674517e+00
  1.702277e+01    1.684930e+00
  1.703865e+01    1.675738e+00
  1.705452e+01    1.643531e+00
  1.707040e+01    1.617493e+00
  1.708627e+01    1.651708e+00
  1.710215e+01    1.646683e+00
  1.711802e+01    1.663970e+00
  1.713390e+01    1.686910e+00
  1.714978e+01    1.650960e+00
  1.716565e+01    1.609757e+00
  1.718153e+01    1.627490e+00
  1.719740e+01    1.606164e+00
  1.721328e+01    1.632291e+00
  1.722915e+01    1.624143e+00
  1.724503e+01    1.608404e+00
  1.726091e+01    1.576733e+00
  1.727678e+01    1.601980e+00
  1.729266e+01    1.602024e+00
  1.730853e+01    1.583269e+00
  1.732441e+01    1.622631e+00
  1.734028e+01    1.613288e+00
  1.735616e+01    1.623432e+00
  1.737203e+01    1.640616e+00
  1.738791e+01    1.603759e+00
  1.740379e+01    1.630498e+00
  1.741966e+01    1.625614e+00
  1.743554e+01    1.619177e+00
  1.745141e+01    1.609847e+00
  1.746729e+01    1.586164e+00
  1.748316e+01    1.577927e+00
  1.749904e+01    1.545844e+00
  1.751491e+01    1.586424e+00
  1.753079e+01    1.610244e+00
  1.754667e+01    1.579094e+00
  1.756254e+01    1.562791e+00
  1.757842e+01    1.563392e+00
  1.759429e+01    1.605778e+00
  1.761017e+01    1.575557e+00
  1.762604e+01    1.559075e+00
  1.764192e+01    1.580941e+00
  1.765779e+01    1.534533e+00
  1.767367e+01    1.532599e+00
  1.768955e+01    1.537022e+00
  1.770542e+01    1.573190e+00
  1.772130e+01    1.560901e+00
  1.773717e+01    1.580212e+00
  1.775305e+01    1.585093e+00
  1.776892e+01    1.564570e+00
  1.778480e+01    1.535917e+00
  1.780067e+01    1.517322e+00
  1.781655e+01    1.524515e+00
  1.783243e+01    1.516525e+00
  1.784830e+01    1.525982e+00
  1.786418e+01    1.542899e+00
  1.788005e+01    1.538284e+00
  1.789593e+01    1.531567e+00
  1.791180e+01    1.508797e+00
  1.792768e+01    1.501403e+00
  1.794355e+01    1.523855e+00
  1.795943e+01    1.544827e+00
  1.797531e+01    1.532620e+00
  1.799118e+01    1.522060e+00
  1.800706e+01    1.480603e+00
  1.802293e+01    1.480572e+00
  1.803881e+01    1.502358e+00
  1.805468e+01    1.501695e+00
  1.807056e+01    1.492841e+00
  1.808643e+01    1.512484e+00
  1.810231e+01    1.496176e+00
  1.811819e+01    1.470377e+00
  1.813406e+01    1.498705e+00
  1.814994e+01    1.513458e+00
  1.816581e+01    1.489431e+00
  1.818169e+01    1.501755e+00
  1.819756e+01    1.475353e+00
  1.821344e+01    1.435898e+00
  1.822932e+01    1.450120e+00
  1.824519e+01    1.467542e+00
  1.826107e+01    1.439822e+00
  1.827694e+01    1.466525e+00
  1.829282e+01    1.497138e+00
  1.830869e+01    1.485392e+00
  1.832457e+01    1.487355e+00
  1.834044e+01    1.458178e+00
  1.835632e+01    1.426652e+00
  1.837220e+01    1.432238e+00
  1.838807e+01    1.450895e+00
  1.840395e+01    1.510366e+00
  1.841982e+01    1.480976e+00
  1.843570e+01    1.462459e+00
  1.845157e+01    1.478134e+00
  1.846745e+01    1.492005e+00
  1.848332e+01    1.465900e+00
  1.849920e+01    1.469629e+00
  1.851508e+01    1.461853e+00
  1.853095e+01    1.432743e+00
  1.854683e+01    1.430364e+00
  1.856270e+01    1.447964e+00
  1.857858e+01    1.438341e+00
  1.859445e+01    1.423404e+00
  1.861033e+01    1.421314e+00
  1.862620e+01    1.427712e+00
  1.864208e+01    1.436299e+00
  1.865796e+01    1.431142e+00
  1.867383e+01    1.417405e+00
  1.868971e+01    1.420627e+00
  1.870558e+01    1.418366e+00
  1.872146e+01    1.404773e+00
  1.873733e+01    1.396322e+00
  1.875321e+01    1.413755e+00
  1.876908e+01    1.423452e+00
  1.878496e+01    1.402476e+00
  1.880084e+01    1.399146e+00
  1.881671e+01    1.426208e+00
  1.883259e+01    1.429940e+00
  1.884846e+01    1.439758e+00
  1.886434e+01    1.432844e+00
  1.888021e+01    1.393922e+00
  1.889609e+01    1.403619e+00
  1.891196e+01    1.372228e+00
  1.892784e+01    1.357015e+00
  1.894372e+01    1.379071e+00
  1.895959e+01    1.403827e+00
  1.897547e+01    1.420312e+00
  1.899134e+01    1.406542e+00
  1.900722e+01    1.363565e+00
  1.902309e+01    1.368005e+00
  1.903897e+01    1.380618e+00
  1.905484e+01    1.372356e+00
  1.907072e+01    1.348411e+00
  1.908660e+01    1.369722e+00
  1.910247e+01    1.373709e+00
  1.911835e+01    1.382980e+00
  1.913422e+01    1.344236e+00
  1.915010e+01    1.346470e+00
  1.916597e+01    1.352383e+00
  1.918185e+01    1.387607e+00
  1.919773e+01    1.376712e+00
  1.921360e+01    1.331633e+00
  1.922948e+01    1.378847e+00
  1.924535e+01    1.376001e+00
  1.926123e+01    1.360556e+00
  1.927710e+01    1.372971e+00
  1.929298e+01    1.336650e+00
  1.930885e+01    1.329567e+00
  1.932473e+01    1.311662e+00
  1.934061e+01    1.320948e+00
  1.935648e+01    1.356403e+00
  1.937236e+01    1.349140e+00
  1.938823e+01    1.344754e+00
  1.940411e+01    1.340713e+00
  1.941998e+01    1.343041e+00
  1.943586e+01    1.315693e+00
  1.945173e+01    1.339298e+00
  1.946761e+01    1.345025e+00
  1.948349e+01    1.329204e+00
  1.949936e+01    1.333878e+00
  1.951524e+01    1.341533e+00
  1.953111e+01    1.337592e+00
  1.954699e+01    1.349534e+00
  1.956286e+01    1.365081e+00
  1.957874e+01    1.322070e+00
  1.959461e+01    1.323416e+00
  1.961049e+01    1.292243e+00
  1.962637e+01    1.310224e+00
  1.964224e+01    1.286055e+00
  1.965812e+01    1.281103e+00
  1.967399e+01    1.281535e+00
  1.968987e+01    1.278504e+00
  1.970574e+01    1.297257e+00
  1.972162e+01    1.298987e+00
  1.973749e+01    1.278100e+00
  1.975337e+01    1.273989e+00
  1.976925e+01    1.297321e+00
  1.978512e+01    1.312981e+00
  1.980100e+01    1.320349e+00
  1.981687e+01    1.286571e+00
  1.983275e+01    1.288169e+00
  1.984862e+01    1.297053e+00
  1.986450e+01    1.298141e+00
  1.988037e+01    1.289486e+00
  1.989625e+01    1.297794e+00
  1.991213e+01    1.292980e+00
  1.992800e+01    1.306149e+00
  1.994388e+01    1.297864e+00
  1.995975e+01    1.275966e+00
  1.997563e+01    1.290183e+00
  1.999150e+01    1.275984e+00
  2.000738e+01    1.320547e+00
  2.002325e+01    1.302851e+00
  2.003913e+01    1.282939e+00
  2.005501e+01    1.262548e+00
  2.007088e+01    1.268225e+00
  2.008676e+01    1.280239e+00
  2.010263e+01    1.264683e+00
  2.011851e+01    1.255037e+00
  2.013438e+01    1.285619e+00
  2.015026e+01    1.257070e+00
  2.016614e+01    1.256425e+00
  2.018201e+01    1.251988e+00
  2.019789e+01    1.251048e+00
  2.021376e+01    1.263442e+00
  2.022964e+01    1.265125e+00
  2.024551e+01    1.272899e+00
  2.026139e+01    1.251127e+00
  2.027726e+01    1.263585e+00
  2.029314e+01    1.265809e+00
  2.030902e+01    1.253648e+00
  2.032489e+01    1.239742e+00
  2.034077e+01    1.255384e+00
  2.035664e+01    1.226259e+00
  2.037252e+01    1.222799e+00
  2.038839e+01    1.232625e+00
  2.040427e+01    1.229434e+00
  2.042014e+01    1.242526e+00
  2.043602e+01    1.230811e+00
  2.045190e+01    1.226725e+00
  2.046777e+01    1.233166e+00
  2.048365e+01    1.225436e+00
  2.049952e+01    1.219625e+00
  2.051540e+01    1.243906e+00
  2.053127e+01    1.228151e+00
  2.054715e+01    1.239799e+00
  2.056302e+01    1.229956e+00
  2.057890e+01    1.239905e+00
  2.059478e+01    1.234466e+00
  2.061065e+01    1.220029e+00
  2.062653e+01    1.224106e+00
  2.064240e+01    1.242695e+00
  2.065828e+01    1.234162e+00
  2.067415e+01    1.227052e+00
  2.069003e+01    1.230286e+00
  2.070590e+01    1.228582e+00
  2.072178e+01    1.226862e+00
  2.073766e+01    1.227670e+00
  2.075353e+01    1.216462e+00
  2.076941e+01    1.214866e+00
  2.078528e+01    1.210094e+00
  2.080116e+01    1.229476e+00
  2.081703e+01    1.244315e+00
  2.083291e+01    1.232436e+00
  2.084878e+01    1.210065e+00
  2.086466e+01    1.218784e+00
  2.088054e+01    1.199327e+00
  2.089641e+01    1.223714e+00
  2.091229e+01    1.228348e+00
  2.092816e+01    1.246582e+00
  2.094404e+01    1.217932e+00
  2.095991e+01    1.202141e+00
  2.097579e+01    1.224610e+00
  2.099166e+01    1.236381e+00
  2.100754e+01    1.231991e+00
  2.102342e+01    1.205848e+00
  2.103929e+01    1.224525e+00
  2.105517e+01    1.224904e+00
  2.107104e+01    1.217734e+00
  2.108692e+01    1.227652e+00
  2.110279e+01    1.218116e+00
  2.111867e+01    1.191316e+00
  2.113455e+01    1.198748e+00
  2.115042e+01    1.230461e+00
  2.116630e+01    1.254570e+00
  2.118217e+01    1.265380e+00
  2.119805e+01    1.243051e+00
  2.121392e+01    1.222196e+00
  2.122980e+01    1.245530e+00
  2.124567e+01    1.240520e+00
  2.126155e+01    1.265491e+00
  2.127743e+01    1.266615e+00
  2.129330e+01    1.255180e+00
  2.130918e+01    1.237961e+00
  2.132505e+01    1.285541e+00
  2.134093e+01    1.273426e+00
  2.135680e+01    1.293774e+00
  2.137268e+01    1.312836e+00
  2.138855e+01    1.301040e+00
  2.140443e+01    1.319636e+00
  2.142031e+01    1.334484e+00
  2.143618e+01    1.340665e+00
  2.145206e+01    1.346151e+00
  2.146793e+01    1.390252e+00
  2.148381e+01    1.406490e+00
  2.149968e+01    1.426054e+00
  2.151556e+01    1.445748e+00
  2.153143e+01    1.477542e+00
  2.154731e+01    1.527481e+00
  2.156319e+01    1.605284e+00
  2.157906e+01    1.625907e+00
  2.159494e+01    1.680377e+00
  2.161081e+01    1.754889e+00
  2.162669e+01    1.846619e+00
  2.164256e+01    1.957960e+00
  2.165844e+01    2.094433e+00
  2.167431e+01    2.266091e+00
  2.169019e+01    2.507503e+00
  2.170607e+01    2.828835e+00
  2.172194e+01    3.135889e+00
  2.173782e+01    3.524561e+00
  2.175369e+01    4.010384e+00
  2.176957e+01    4.634153e+00
  2.178544e+01    5.214869e+00
  2.180132e+01    5.875332e+00
  2.181719e+01    6.546790e+00
  2.183307e+01    7.171231e+00
  2.184895e+01    7.791547e+00
  2.186482e+01    8.412512e+00
  2.188070e+01    8.804548e+00
  2.189657e+01    8.944498e+00
  2.191245e+01    8.683309e+00
  2.192832e+01    8.258183e+00
  2.194420e+01    7.496697e+00
  2.196007e+01    6.542329e+00
  2.197595e+01    5.697472e+00
  2.199183e+01    4.877218e+00
  2.200770e+01    4.159032e+00
  2.202358e+01    3.626062e+00
  2.203945e+01    3.185091e+00
  2.205533e+01    2.842129e+00
  2.207120e+01    2.541533e+00
  2.208708e+01    2.303851e+00
  2.210296e+01    2.106875e+00
  2.211883e+01    1.980518e+00
  2.213471e+01    1.850643e+00
  2.215058e+01    1.738955e+00
  2.216646e+01    1.681036e+00
  2.218233e+01    1.616189e+00
  2.219821e+01    1.558503e+00
  2.221408e+01    1.468844e+00
  2.222996e+01    1.450796e+00
  2.224584e+01    1.399712e+00
  2.226171e+01    1.371785e+00
  2.227759e+01    1.344259e+00
  2.229346e+01    1.327656e+00
  2.230934e+01    1.302936e+00
  2.232521e+01    1.293474e+00
  2.234109e+01    1.271429e+00
  2.235696e+01    1.256086e+00
  2.237284e+01    1.213518e+00
  2.238872e+01    1.208530e+00
  2.240459e+01    1.201088e+00
  2.242047e+01    1.186538e+00
  2.243634e+01    1.164317e+00
  2.245222e+01    1.151313e+00
  2.246809e+01    1.148440e+00
  2.248397e+01    1.151841e+00
  2.249984e+01    1.157366e+00
  2.251572e+01    1.132001e+00
  2.253160e+01    1.135332e+00
  2.254747e+01    1.118074e+00
  2.256335e+01    1.117822e+00
  2.257922e+01    1.123417e+00
  2.259510e+01    1.127218e+00
  2.261097e+01    1.126965e+00
  2.262685e+01    1.099801e+00
  2.264272e+01    1.097901e+00
  2.265860e+01    1.105149e+00
  2.267448e+01    1.103581e+00
  2.269035e+01    1.089780e+00
  2.270623e+01    1.085025e+00
  2.272210e+01    1.082430e+00
  2.273798e+01    1.074969e+00
  2.275385e+01    1.069150e+00
  2.276973e+01    1.063987e+00
  2.278560e+01    1.047891e+00
  2.280148e+01    1.066600e+00
  2.281736e+01    1.049252e+00
  2.283323e+01    1.022712e+00
  2.284911e+01    1.043361e+00
  2.286498e+01    1.035975e+00
  2.288086e+01    1.033073e+00
  2.289673e+01    1.038875e+00
  2.291261e+01    1.018598e+00
  2.292848e+01    1.027831e+00
  2.294436e+01    1.031480e+00
  2.296024e+01    1.023124e+00
  2.297611e+01    1.023014e+00
  2.299199e+01    9.936396e-01
  2.300786e+01    1.004164e+00
  2.302374e+01    1.021978e+00
  2.303961e+01    1.023331e+00
  2.305549e+01    1.016536e+00
  2.307137e+01    1.015531e+00
  2.308724e+01    1.011171e+00
  2.310312e+01    9.997315e-01
  2.311899e+01    1.013565e+00
  2.313487e+01    1.011603e+00
  2.315074e+01    1.015146e+00
  2.316662e+01    1.011484e+00
  2.318249e+01    1.023832e+00
  2.319837e+01    1.010736e+00
  2.321425e+01    9.917862e-01
  2.323012e+01    9.882874e-01
  2.324600e+01    9.935356e-01
  2.326187e+01    9.864705e-01
  2.327775e+01    1.000083e+00
  2.329362e+01    9.835436e-01
  2.330950e+01    9.741685e-01
  2.332537e+01    9.790217e-01
  2.334125e+01    9.775238e-01
  2.335713e+01    9.842370e-01
  2.337300e+01    9.725688e-01
  2.338888e+01    9.726348e-01
  2.340475e+01    9.903441e-01
  2.342063e+01    9.874511e-01
  2.343650e+01    9.925675e-01
  2.345238e+01    9.953117e-01
  2.346825e+01    9.552601e-01
  2.348413e+01    9.607171e-01
  2.350001e+01    9.886972e-01
  2.351588e+01    9.653059e-01
  2.353176e+01    9.706849e-01
  2.354763e+01    9.836434e-01
  2.356351e+01    9.687777e-01
  2.357938e+01    9.492687e-01
  2.359526e+01    9.550164e-01
  2.361113e+01    9.379268e-01
  2.362701e+01    9.479221e-01
  2.364289e+01    9.622974e-01
  2.365876e+01    9.545259e-01
  2.367464e+01    9.375559e-01
  2.369051e+01    9.404909e-01
  2.370639e+01    9.297726e-01
  2.372226e+01    9.243039e-01
  2.373814e+01    9.258134e-01
  2.375401e+01    9.422256e-01
  2.376989e+01    9.490616e-01
  2.378577e+01    9.414529e-01
  2.380164e+01    9.146693e-01
  2.381752e+01    9.139138e-01
  2.383339e+01    9.228778e-01
  2.384927e+01    9.295124e-01
  2.386514e+01    9.412529e-01
  2.388102e+01    9.326066e-01
  2.389689e+01    9.292233e-01
  2.391277e+01    9.024899e-01
  2.392865e+01    8.950812e-01
  2.394452e+01    8.991653e-01
  2.396040e+01    8.831509e-01
  2.397627e+01    8.881152e-01
  2.399215e+01    9.133033e-01
  2.400802e+01    8.906462e-01
  2.402390e+01    8.936463e-01
  2.403978e+01    9.025545e-01
  2.405565e+01    8.709015e-01
  2.407153e+01    8.825858e-01
  2.408740e+01    8.859364e-01
  2.410328e+01    8.873301e-01
  2.411915e+01    8.718995e-01
  2.413503e+01    8.662958e-01
  2.415090e+01    8.663538e-01
  2.416678e+01    8.849527e-01
  2.418266e+01    8.992360e-01
  2.419853e+01    8.885510e-01
  2.421441e+01    8.623849e-01
  2.423028e+01    8.578655e-01
  2.424616e+01    8.843001e-01
  2.426203e+01    8.925931e-01
  2.427791e+01    8.882586e-01
  2.429378e+01    8.899331e-01
  2.430966e+01    8.826783e-01
  2.432554e+01    8.907040e-01
  2.434141e+01    9.089370e-01
  2.435729e+01    9.136652e-01
  2.437316e+01    8.936520e-01
  2.438904e+01    8.896137e-01
  2.440491e+01    9.064956e-01
  2.442079e+01    9.070656e-01
  2.443666e+01    9.053276e-01
  2.445254e+01    8.802564e-01
  2.446842e+01    8.925557e-01
  2.448429e+01    8.789046e-01
  2.450017e+01    8.729160e-01
  2.451604e+01    8.942021e-01
  2.453192e+01    8.862284e-01
  2.454779e+01    8.897204e-01
  2.456367e+01    8.951269e-01
  2.457954e+01    8.998470e-01
  2.459542e+01    8.859333e-01
  2.461130e+01    8.987495e-01
  2.462717e+01    8.923874e-01
  2.464305e+01    9.088143e-01
  2.465892e+01    8.878055e-01
  2.467480e+01    8.832564e-01
  2.469067e+01    9.060448e-01
  2.470655e+01    8.921239e-01
  2.472242e+01    8.644244e-01
  2.473830e+01    8.807580e-01
  2.475418e+01    9.049489e-01
  2.477005e+01    8.886645e-01
  2.478593e+01    8.921307e-01
  2.480180e+01    8.950785e-01
  2.481768e+01    8.944121e-01
  2.483355e+01    8.849375e-01
  2.484943e+01    8.734286e-01
  2.486530e+01    8.883445e-01
  2.488118e+01    8.883614e-01
  2.489706e+01    9.111615e-01
  2.491293e+01    9.024504e-01
  2.492881e+01    8.724999e-01
  2.494468e+01    8.781943e-01
  2.496056e+01    8.931332e-01
  2.497643e+01    8.776091e-01
  2.499231e+01    8.927420e-01
  2.500819e+01    8.790091e-01
  2.502406e+01    9.022104e-01
  2.503994e+01    8.980171e-01
  2.505581e+01    9.105769e-01
  2.507169e+01    9.112383e-01
  2.508756e+01    9.211211e-01
  2.510344e+01    9.223809e-01
  2.511931e+01    9.119246e-01
  2.513519e+01    9.127257e-01
  2.515107e+01    9.008631e-01
  2.516694e+01    9.124133e-01
  2.518282e+01    9.023205e-01
  2.519869e+01    9.274744e-01
  2.521457e+01    9.369832e-01
  2.523044e+01    9.422684e-01
  2.524632e+01    9.319959e-01
  2.526219e+01    9.285486e-01
  2.527807e+01    9.326550e-01
  2.529395e+01    9.440742e-01
  2.530982e+01    9.599627e-01
  2.532570e+01    9.729804e-01
  2.534157e+01    9.754642e-01
  2.535745e+01    9.658071e-01
  2.537332e+01    9.899904e-01
  2.538920e+01    9.870333e-01
  2.540507e+01    9.799089e-01
  2.542095e+01    1.001946e+00
  2.543683e+01    1.019032e+00
  2.545270e+01    1.021121e+00
  2.546858e+01    1.007688e+00
  2.548445e+01    1.025843e+00
  2.550033e+01    1.079105e+00
  2.551620e+01    1.100536e+00
  2.553208e+01    1.103301e+00
  2.554795e+01    1.128133e+00
  2.556383e+01    1.139168e+00
  2.557971e+01    1.161273e+00
  2.559558e+01    1.192034e+00
  2.561146e+01    1.222146e+00
  2.562733e+01    1.239409e+00
  2.564321e+01    1.323441e+00
  2.565908e+01    1.365521e+00
  2.567496e+01    1.442242e+00
  2.569083e+01    1.534425e+00
  2.570671e+01    1.618555e+00
  2.572259e+01    1.711947e+00
  2.573846e+01    1.855579e+00
  2.575434e+01    2.035842e+00
  2.577021e+01    2.233351e+00
  2.578609e+01    2.506802e+00
  2.580196e+01    2.779618e+00
  2.581784e+01    3.161730e+00
  2.583371e+01    3.655711e+00
  2.584959e+01    4.175997e+00
  2.586547e+01    4.731777e+00
  2.588134e+01    5.312376e+00
  2.589722e+01    5.853585e+00
  2.591309e+01    6.348330e+00
  2.592897e+01    6.824914e+00
  2.594484e+01    7.099752e+00
  2.596072e+01    7.175238e+00
  2.597660e+01    6.970583e+00
  2.599247e+01    6.553860e+00
  2.600835e+01    5.920573e+00
  2.602422e+01    5.276428e+00
  2.604010e+01    4.592871e+00
  2.605597e+01    3.936715e+00
  2.607185e+01    3.422358e+00
  2.608772e+01    2.966477e+00
  2.610360e+01    2.600208e+00
  2.611948e+01    2.352473e+00
  2.613535e+01    2.172941e+00
  2.615123e+01    1.947731e+00
  2.616710e+01    1.748361e+00
  2.618298e+01    1.659439e+00
  2.619885e+01    1.551158e+00
  2.621473e+01    1.447794e+00
  2.623060e+01    1.403074e+00
  2.624648e+01    1.352651e+00
  2.626236e+01    1.299834e+00
  2.627823e+01    1.250141e+00
  2.629411e+01    1.182543e+00
  2.630998e+01    1.173704e+00
  2.632586e+01    1.191451e+00
  2.634173e+01    1.111544e+00
  2.635761e+01    1.076914e+00
  2.637348e+01    1.065734e+00
  2.638936e+01    1.062796e+00
  2.640524e+01    1.060893e+00
  2.642111e+01    1.040977e+00
  2.643699e+01    1.053192e+00
  2.645286e+01    1.037962e+00
  2.646874e+01    1.028327e+00
  2.648461e+01    1.000580e+00
  2.650049e+01    1.012499e+00
  2.651636e+01    1.007165e+00
  2.653224e+01    9.918135e-01
  2.654812e+01    1.014465e+00
  2.656399e+01    9.915398e-01
  2.657987e+01    9.758413e-01
  2.659574e+01    9.597005e-01
  2.661162e+01    9.711238e-01
  2.662749e+01    9.580472e-01
  2.664337e+01    9.667039e-01
  2.665924e+01    9.764556e-01
  2.667512e+01    9.732887e-01
  2.669100e+01    9.822801e-01
  2.670687e+01    9.927341e-01
  2.672275e+01    9.667365e-01
  2.673862e+01    9.701136e-01
  2.675450e+01    9.836585e-01
  2.677037e+01    9.834327e-01
  2.678625e+01    9.632912e-01
  2.680212e+01    9.673014e-01
  2.681800e+01    9.616316e-01
  2.683388e+01    9.778808e-01
  2.684975e+01    9.777238e-01
  2.686563e+01    9.846010e-01
  2.688150e+01    9.943261e-01
  2.689738e+01    1.002993e+00
  2.691325e+01    1.011073e+00
  2.692913e+01    1.022415e+00
  2.694501e+01    1.030626e+00
  2.696088e+01    1.060934e+00
  2.697676e+01    1.083712e+00
  2.699263e+01    1.092438e+00
  2.700851e+01    1.096900e+00
  2.702438e+01    1.140982e+00
  2.704026e+01    1.193916e+00
  2.705613e+01    1.251251e+00
  2.707201e+01    1.304664e+00
  2.708789e+01    1.380463e+00
  2.710376e+01    1.501140e+00
  2.711964e+01    1.605308e+00
  2.713551e+01    1.719579e+00
  2.715139e+01    1.830126e+00
  2.716726e+01    1.982210e+00
  2.718314e+01    2.057451e+00
  2.719901e+01    2.159608e+00
  2.721489e+01    2.183821e+00
  2.723077e+01    2.134376e+00
  2.724664e+01    2.096933e+00
  2.726252e+01    1.974736e+00
  2.727839e+01    1.873749e+00
  2.729427e+01    1.696050e+00
  2.731014e+01    1.561621e+00
  2.732602e+01    1.439711e+00
  2.734189e+01    1.352138e+00
  2.735777e+01    1.295558e+00
  2.737365e+01    1.237689e+00
  2.738952e+01    1.151137e+00
  2.740540e+01    1.108674e+00
  2.742127e+01    1.087536e+00
  2.743715e+01    1.054797e+00
  2.745302e+01    1.040856e+00
  2.746890e+01    1.006070e+00
  2.748477e+01    9.971950e-01
  2.750065e+01    9.953895e-01
  2.751653e+01    9.681321e-01
  2.753240e+01    9.710662e-01
  2.754828e+01    9.519602e-01
  2.756415e+01    9.379266e-01
  2.758003e+01    9.241338e-01
  2.759590e+01    9.190345e-01
  2.761178e+01    9.016882e-01
  2.762765e+01    8.987617e-01
  2.764353e+01    9.044305e-01
  2.765941e+01    9.199784e-01
  2.767528e+01    9.223123e-01
  2.769116e+01    9.159126e-01
  2.770703e+01    8.941225e-01
  2.772291e+01    8.941640e-01
  2.773878e+01    9.114327e-01
  2.775466e+01    9.054589e-01
  2.777054e+01    9.032347e-01
  2.778641e+01    9.094683e-01
  2.780229e+01    8.862002e-01
  2.781816e+01    8.809134e-01
  2.783404e+01    8.894871e-01
  2.784991e+01    8.913996e-01
  2.786579e+01    8.922992e-01
  2.788166e+01    8.914578e-01
  2.789754e+01    8.759088e-01
  2.791342e+01    8.921229e-01
  2.792929e+01    8.929699e-01
  2.794517e+01    8.636885e-01
  2.796104e+01    8.575997e-01
  2.797692e+01    8.701041e-01
  2.799279e+01    8.636584e-01
  2.800867e+01    8.864372e-01
  2.802454e+01    8.780739e-01
  2.804042e+01    8.844302e-01
  2.805630e+01    8.612963e-01
  2.807217e+01    8.470348e-01
  2.808805e+01    8.586338e-01
  2.810392e+01    8.743616e-01
  2.811980e+01    8.576955e-01
  2.813567e+01    8.597274e-01
  2.815155e+01    8.708118e-01
  2.816742e+01    8.602006e-01
  2.818330e+01    8.479667e-01
  2.819918e+01    8.320433e-01
  2.821505e+01    8.443772e-01
  2.823093e+01    8.700435e-01
  2.824680e+01    8.571312e-01
  2.826268e+01    8.401899e-01
  2.827855e+01    8.377841e-01
  2.829443e+01    8.361659e-01
  2.831030e+01    8.500586e-01
  2.832618e+01    8.386054e-01
  2.834206e+01    8.461245e-01
  2.835793e+01    8.333888e-01
  2.837381e+01    8.426759e-01
  2.838968e+01    8.548320e-01
  2.840556e+01    8.496468e-01
  2.842143e+01    8.382694e-01
  2.843731e+01    8.416400e-01
  2.845318e+01    8.323222e-01
  2.846906e+01    8.327335e-01
  2.848494e+01    8.418395e-01
  2.850081e+01    8.219615e-01
  2.851669e+01    8.262523e-01
  2.853256e+01    8.431386e-01
  2.854844e+01    8.567620e-01
  2.856431e+01    8.459436e-01
  2.858019e+01    8.447105e-01
  2.859606e+01    8.519507e-01
  2.861194e+01    8.460350e-01
  2.862782e+01    8.452729e-01
  2.864369e+01    8.386663e-01
  2.865957e+01    8.206893e-01
  2.867544e+01    8.150783e-01
  2.869132e+01    8.244486e-01
  2.870719e+01    8.244081e-01
  2.872307e+01    8.235680e-01
  2.873895e+01    8.115271e-01
  2.875482e+01    8.225500e-01
  2.877070e+01    8.239979e-01
  2.878657e+01    8.272284e-01
  2.880245e+01    8.301375e-01
  2.881832e+01    8.196831e-01
  2.883420e+01    8.103091e-01
  2.885007e+01    8.067654e-01
  2.886595e+01    8.187207e-01
  2.888183e+01    8.091535e-01
  2.889770e+01    8.240418e-01
  2.891358e+01    8.249161e-01
  2.892945e+01    8.369275e-01
  2.894533e+01    8.275996e-01
  2.896120e+01    8.207926e-01
  2.897708e+01    8.266785e-01
  2.899295e+01    8.331992e-01
  2.900883e+01    8.298891e-01
  2.902471e+01    7.967191e-01
  2.904058e+01    8.095119e-01
  2.905646e+01    8.141233e-01
  2.907233e+01    8.282899e-01
  2.908821e+01    8.063878e-01
  2.910408e+01    8.005470e-01
  2.911996e+01    7.922972e-01
  2.913583e+01    8.144988e-01
  2.915171e+01    8.217641e-01
  2.916759e+01    8.261876e-01
  2.918346e+01    8.257949e-01
  2.919934e+01    8.033646e-01
  2.921521e+01    8.175535e-01
  2.923109e+01    8.057012e-01
  2.924696e+01    8.378066e-01
  2.926284e+01    8.523116e-01
  2.927871e+01    8.032112e-01
  2.929459e+01    7.912068e-01
  2.931047e+01    8.233824e-01
  2.932634e+01    7.900184e-01
  2.934222e+01    7.821698e-01
  2.935809e+01    8.093017e-01
  2.937397e+01    7.937572e-01
  2.938984e+01    8.059828e-01
  2.940572e+01    7.848014e-01
  2.942159e+01    7.875441e-01
  2.943747e+01    7.805205e-01
  2.945335e+01    7.948303e-01
  2.946922e+01    7.855082e-01
  2.948510e+01    8.131626e-01
  2.950097e+01    7.990993e-01
  2.951685e+01    7.827590e-01
  2.953272e+01    7.874910e-01
  2.954860e+01    8.037605e-01
  2.956447e+01    8.137007e-01
  2.958035e+01    8.059666e-01
  2.959623e+01    8.152424e-01
  2.961210e+01    7.934731e-01
  2.962798e+01    7.668094e-01
  2.964385e+01    7.928030e-01
  2.965973e+01    7.962176e-01
  2.967560e+01    8.058149e-01
  2.969148e+01    7.998772e-01
  2.970736e+01    7.995938e-01
  2.972323e+01    7.883686e-01
  2.973911e+01    7.954950e-01
  2.975498e+01    7.956693e-01
  2.977086e+01    7.962376e-01
  2.978673e+01    8.041987e-01
  2.980261e+01    7.878590e-01
  2.981848e+01    7.887710e-01
  2.983436e+01    7.923526e-01
  2.985024e+01    7.864268e-01
  2.986611e+01    7.951854e-01
  2.988199e+01    7.957634e-01
  2.989786e+01    7.961023e-01
  2.991374e+01    7.823077e-01
  2.992961e+01    7.819422e-01
  2.994549e+01    7.798293e-01
  2.996136e+01    7.707587e-01
  2.997724e+01    8.123437e-01
  2.999312e+01    8.058146e-01
  3.000899e+01    7.908018e-01
  3.002487e+01    8.147810e-01
  3.004074e+01    8.389659e-01
  3.005662e+01    8.266691e-01
  3.007249e+01    8.040860e-01
  3.008837e+01    8.085760e-01
  3.010424e+01    8.115068e-01
  3.012012e+01    8.045853e-01
  3.013600e+01    7.651893e-01
  3.015187e+01    7.821124e-01
  3.016775e+01    7.727053e-01
  3.018362e+01    7.977840e-01
  3.019950e+01    7.937137e-01
  3.021537e+01    7.813569e-01
  3.023125e+01    7.867242e-01
  3.024712e+01    7.754967e-01
  3.026300e+01    7.713776e-01
  3.027888e+01    7.612439e-01
  3.029475e+01    7.763591e-01
  3.031063e+01    7.942680e-01
  3.032650e+01    7.659358e-01
  3.034238e+01    7.667358e-01
  3.035825e+01    7.856829e-01
  3.037413e+01    7.965658e-01
  3.039000e+01    7.833987e-01
  3.040588e+01    7.858861e-01
  3.042176e+01    7.877893e-01
  3.043763e+01    7.813484e-01
  3.045351e+01    7.647910e-01
  3.046938e+01    7.865037e-01
  3.048526e+01    7.814226e-01
  3.050113e+01    7.685710e-01
  3.051701e+01    7.679759e-01
  3.053288e+01    7.542029e-01
  3.054876e+01    7.508146e-01
  3.056464e+01    7.914184e-01
  3.058051e+01    7.839803e-01
  3.059639e+01    7.902599e-01
  3.061226e+01    7.615956e-01
  3.062814e+01    7.802910e-01
  3.064401e+01    7.994991e-01
  3.065989e+01    7.890396e-01
  3.067577e+01    7.760165e-01
  3.069164e+01    7.595355e-01
  3.070752e+01    7.781586e-01
  3.072339e+01    7.745898e-01
  3.073927e+01    7.763487e-01
  3.075514e+01    7.759185e-01
  3.077102e+01    7.893218e-01
  3.078689e+01    8.051862e-01
  3.080277e+01    8.108426e-01
  3.081865e+01    7.962446e-01
  3.083452e+01    8.016123e-01
  3.085040e+01    7.908386e-01
  3.086627e+01    8.001794e-01
  3.088215e+01    8.117974e-01
  3.089802e+01    7.956808e-01
  3.091390e+01    7.709876e-01
  3.092977e+01    7.656158e-01
  3.094565e+01    7.815446e-01
  3.096153e+01    7.777057e-01
  3.097740e+01    7.670716e-01
  3.099328e+01    7.676390e-01
  3.100915e+01    8.022877e-01
  3.102503e+01    8.142660e-01
  3.104090e+01    7.924143e-01
  3.105678e+01    7.890550e-01
  3.107265e+01    7.617199e-01
  3.108853e+01    7.644590e-01
  3.110441e+01    7.921409e-01
  3.112028e+01    7.923915e-01
  3.113616e+01    7.866641e-01
  3.115203e+01    7.932166e-01
  3.116791e+01    8.039195e-01
  3.118378e+01    7.952562e-01
  3.119966e+01    7.911410e-01
  3.121553e+01    8.027174e-01
  3.123141e+01    7.915012e-01
  3.124729e+01    7.882819e-01
  3.126316e+01    7.896888e-01
  3.127904e+01    7.925152e-01
  3.129491e+01    8.152571e-01
  3.131079e+01    8.045160e-01
  3.132666e+01    7.978000e-01
  3.134254e+01    8.000801e-01
  3.135841e+01    7.955407e-01
  3.137429e+01    7.927303e-01
  3.139017e+01    8.132539e-01
  3.140604e+01    7.960255e-01
  3.142192e+01    8.141900e-01
  3.143779e+01    8.116746e-01
  3.145367e+01    8.133480e-01
  3.146954e+01    8.188869e-01
  3.148542e+01    8.278930e-01
  3.150129e+01    8.411427e-01
  3.151717e+01    8.259025e-01
  3.153305e+01    8.223417e-01
  3.154892e+01    8.375715e-01
  3.156480e+01    8.382735e-01
  3.158067e+01    8.732793e-01
  3.159655e+01    8.912268e-01
  3.161242e+01    8.993564e-01
  3.162830e+01    9.154106e-01
  3.164418e+01    9.203985e-01
  3.166005e+01    9.325495e-01
  3.167593e+01    9.286690e-01
  3.169180e+01    9.893054e-01
  3.170768e+01    1.018251e+00
  3.172355e+01    1.063125e+00
  3.173943e+01    1.118314e+00
  3.175530e+01    1.204833e+00
  3.177118e+01    1.279927e+00
  3.178706e+01    1.375312e+00
  3.180293e+01    1.471371e+00
  3.181881e+01    1.565130e+00
  3.183468e+01    1.675301e+00
  3.185056e+01    1.834856e+00
  3.186643e+01    1.933867e+00
  3.188231e+01    2.041920e+00
  3.189818e+01    2.113317e+00
  3.191406e+01    2.133580e+00
  3.192994e+01    2.082029e+00
  3.194581e+01    1.939620e+00
  3.196169e+01    1.836902e+00
  3.197756e+01    1.688277e+00
  3.199344e+01    1.584536e+00
  3.200931e+01    1.433304e+00
  3.202519e+01    1.323337e+00
  3.204106e+01    1.204769e+00
  3.205694e+01    1.136070e+00
  3.207282e+01    1.086220e+00
  3.208869e+01    1.026403e+00
  3.210457e+01    1.010947e+00
  3.212044e+01    9.816875e-01
  3.213632e+01    9.199597e-01
  3.215219e+01    8.859231e-01
  3.216807e+01    8.658787e-01
  3.218394e+01    8.622477e-01
  3.219982e+01    8.428015e-01
  3.221570e+01    8.617477e-01
  3.223157e+01    8.697972e-01
  3.224745e+01    8.367704e-01
  3.226332e+01    8.334281e-01
  3.227920e+01    7.926002e-01
  3.229507e+01    7.765704e-01
  3.231095e+01    8.263945e-01
  3.232682e+01    8.236980e-01
  3.234270e+01    8.210799e-01
  3.235858e+01    7.913317e-01
  3.237445e+01    7.926162e-01
  3.239033e+01    7.841721e-01
  3.240620e+01    7.985454e-01
  3.242208e+01    7.877054e-01
  3.243795e+01    7.858841e-01
  3.245383e+01    7.612122e-01
  3.246970e+01    7.573531e-01
  3.248558e+01    7.786095e-01
  3.250146e+01    7.893241e-01
  3.251733e+01    7.546386e-01
  3.253321e+01    7.469255e-01
  3.254908e+01    7.577115e-01
