# == pyFAI calibration ==
# Distance Sample to Detector: 0.3999999939076516 m
# PONI: 9.750e-02, 1.135e-01 m
# Rotations: -0.000175 0.000000 -0.000000 rad
# 
# == Fit2d calibration ==
# Distance Sample-beamCenter: 400.000 mm
# Center: x=1514.000, y=1300.000 pix
# Tilt: 0.010 deg  TiltPlanRot: 0.010 deg
# 
# Detector Detector	 Spline= None	 PixelSize= 7.500e-05, 7.500e-05 m
#    Detector has a mask: False 
#    Detector has a dark current: False 
#    detector has a flat field: False 
# 
# Wavelength: 6.888e-11 m
# Mask applied: user provided
# Dark current applied: False
# Flat field applied: False
# Polarization factor: 0.99
# Normalization factor: 1.0
# --> /home/myspot/data/2024_07_Rosario/Ru-CGO-ex/2024-07-27_003_Ru-CGO-ex_Reaction_dwell_000023_data_000168.dat
#       q_nm^-1             I 
  2.003187e-02    0.000000e+00
  3.590745e-02    0.000000e+00
  5.178302e-02    2.670345e-02
  6.765859e-02    2.092524e-01
  8.353417e-02    2.004095e-01
  9.940974e-02    2.939339e-02
  1.152853e-01    5.577515e-02
  1.311609e-01    9.019329e-02
  1.470365e-01    4.782688e-02
  1.629120e-01    1.136014e-01
  1.787876e-01    7.571593e-02
  1.946632e-01    3.457836e-02
  2.105388e-01    4.172035e-02
  2.264143e-01    5.694247e-02
  2.422899e-01    3.901599e-02
  2.581655e-01    3.128470e-02
  2.740411e-01    4.537906e-02
  2.899166e-01    2.812014e-02
  3.057922e-01    1.252654e-02
  3.216678e-01    3.396802e-02
  3.375433e-01    6.226616e-02
  3.534189e-01    2.555340e-02
  3.692945e-01    1.403091e-02
  3.851701e-01    2.680234e-02
  4.010456e-01    7.129736e-02
  4.169212e-01    8.532782e-02
  4.327968e-01    6.278903e-02
  4.486724e-01    7.570677e-02
  4.645479e-01    5.348338e-02
  4.804235e-01    7.570892e-03
  4.962991e-01    8.362560e-03
  5.121747e-01    1.754693e-02
  5.280502e-01    3.148757e-02
  5.439258e-01    4.217035e-02
  5.598014e-01    2.071904e-02
  5.756770e-01    2.399684e-02
  5.915525e-01    3.665875e-02
  6.074281e-01    2.860906e-02
  6.233037e-01    3.274965e-02
  6.391793e-01    2.982814e-02
  6.550548e-01    3.995382e-02
  6.709304e-01    3.960571e-02
  6.868060e-01    4.183586e-02
  7.026815e-01    5.082279e-02
  7.185571e-01    4.868599e-02
  7.344327e-01    4.842303e-02
  7.503083e-01    6.611635e-02
  7.661838e-01    8.438254e-02
  7.820594e-01    1.090267e-01
  7.979350e-01    1.904964e-01
  8.138106e-01    2.315399e-01
  8.296861e-01    2.464799e-01
  8.455617e-01    2.984136e-01
  8.614373e-01    3.789710e-01
  8.773129e-01    4.617304e-01
  8.931884e-01    6.003407e-01
  9.090640e-01    6.746286e-01
  9.249396e-01    7.141469e-01
  9.408152e-01    8.212242e-01
  9.566907e-01    9.252354e-01
  9.725663e-01    9.829869e-01
  9.884419e-01    1.059183e+00
  1.004317e+00    1.200724e+00
  1.020193e+00    1.386158e+00
  1.036069e+00    1.372592e+00
  1.051944e+00    1.351179e+00
  1.067820e+00    1.428147e+00
  1.083695e+00    1.396440e+00
  1.099571e+00    1.551482e+00
  1.115446e+00    1.622648e+00
  1.131322e+00    1.517181e+00
  1.147198e+00    1.594497e+00
  1.163073e+00    1.718769e+00
  1.178949e+00    1.664013e+00
  1.194824e+00    1.811510e+00
  1.210700e+00    1.989514e+00
  1.226575e+00    2.305084e+00
  1.242451e+00    2.432501e+00
  1.258327e+00    2.400817e+00
  1.274202e+00    2.462379e+00
  1.290078e+00    2.522951e+00
  1.305953e+00    2.771889e+00
  1.321829e+00    2.700219e+00
  1.337705e+00    2.639392e+00
  1.353580e+00    2.695721e+00
  1.369456e+00    2.684457e+00
  1.385331e+00    2.767899e+00
  1.401207e+00    2.692284e+00
  1.417082e+00    2.708059e+00
  1.432958e+00    2.867613e+00
  1.448834e+00    2.907069e+00
  1.464709e+00    3.098370e+00
  1.480585e+00    3.209442e+00
  1.496460e+00    3.160127e+00
  1.512336e+00    3.173725e+00
  1.528211e+00    3.153563e+00
  1.544087e+00    3.126814e+00
  1.559963e+00    3.340628e+00
  1.575838e+00    3.305699e+00
  1.591714e+00    3.135782e+00
  1.607589e+00    3.108016e+00
  1.623465e+00    3.083722e+00
  1.639340e+00    3.144549e+00
  1.655216e+00    3.009689e+00
  1.671092e+00    2.939480e+00
  1.686967e+00    2.931633e+00
  1.702843e+00    2.983973e+00
  1.718718e+00    3.086091e+00
  1.734594e+00    3.113219e+00
  1.750469e+00    3.128183e+00
  1.766345e+00    3.106666e+00
  1.782221e+00    3.130527e+00
  1.798096e+00    3.002620e+00
  1.813972e+00    3.067548e+00
  1.829847e+00    3.061204e+00
  1.845723e+00    3.137148e+00
  1.861598e+00    3.020012e+00
  1.877474e+00    3.044529e+00
  1.893350e+00    2.914160e+00
  1.909225e+00    2.955237e+00
  1.925101e+00    3.097119e+00
  1.940976e+00    3.076230e+00
  1.956852e+00    3.004253e+00
  1.972727e+00    3.020586e+00
  1.988603e+00    3.150487e+00
  2.004479e+00    3.038159e+00
  2.020354e+00    3.001796e+00
  2.036230e+00    3.124513e+00
  2.052105e+00    3.125891e+00
  2.067981e+00    3.136111e+00
  2.083856e+00    3.119399e+00
  2.099732e+00    3.096892e+00
  2.115608e+00    3.132062e+00
  2.131483e+00    3.085320e+00
  2.147359e+00    3.057021e+00
  2.163234e+00    3.147458e+00
  2.179110e+00    2.933710e+00
  2.194985e+00    3.084564e+00
  2.210861e+00    3.003006e+00
  2.226737e+00    3.120211e+00
  2.242612e+00    3.139169e+00
  2.258488e+00    3.060283e+00
  2.274363e+00    3.043142e+00
  2.290239e+00    3.074868e+00
  2.306115e+00    3.111365e+00
  2.321990e+00    3.132892e+00
  2.337866e+00    3.148869e+00
  2.353741e+00    2.997810e+00
  2.369617e+00    2.989011e+00
  2.385492e+00    3.067376e+00
  2.401368e+00    3.032259e+00
  2.417244e+00    3.043270e+00
  2.433119e+00    3.156265e+00
  2.448995e+00    3.194242e+00
  2.464870e+00    3.072014e+00
  2.480746e+00    3.052939e+00
  2.496621e+00    2.991635e+00
  2.512497e+00    3.038596e+00
  2.528373e+00    3.084945e+00
  2.544248e+00    3.187868e+00
  2.560124e+00    3.215131e+00
  2.575999e+00    3.187691e+00
  2.591875e+00    3.117043e+00
  2.607750e+00    3.099140e+00
  2.623626e+00    3.160902e+00
  2.639502e+00    3.190321e+00
  2.655377e+00    3.209877e+00
  2.671253e+00    3.103527e+00
  2.687128e+00    3.152203e+00
  2.703004e+00    3.226742e+00
  2.718879e+00    3.284646e+00
  2.734755e+00    3.270871e+00
  2.750631e+00    3.322105e+00
  2.766506e+00    3.390325e+00
  2.782382e+00    3.381642e+00
  2.798257e+00    3.192399e+00
  2.814133e+00    3.233978e+00
  2.830008e+00    3.295834e+00
  2.845884e+00    3.331271e+00
  2.861760e+00    3.293977e+00
  2.877635e+00    3.361449e+00
  2.893511e+00    3.306898e+00
  2.909386e+00    3.251286e+00
  2.925262e+00    3.254239e+00
  2.941137e+00    3.284081e+00
  2.957013e+00    3.392132e+00
  2.972889e+00    3.390048e+00
  2.988764e+00    3.333972e+00
  3.004640e+00    3.305546e+00
  3.020515e+00    3.291492e+00
  3.036391e+00    3.278806e+00
  3.052266e+00    3.294805e+00
  3.068142e+00    3.307952e+00
  3.084018e+00    3.296629e+00
  3.099893e+00    3.337087e+00
  3.115769e+00    3.304273e+00
  3.131644e+00    3.220996e+00
  3.147520e+00    3.307809e+00
  3.163395e+00    3.397406e+00
  3.179271e+00    3.372446e+00
  3.195147e+00    3.326773e+00
  3.211022e+00    3.284760e+00
  3.226898e+00    3.353700e+00
  3.242773e+00    3.303953e+00
  3.258649e+00    3.370380e+00
  3.274525e+00    3.420667e+00
  3.290400e+00    3.319034e+00
  3.306276e+00    3.403462e+00
  3.322151e+00    3.346535e+00
  3.338027e+00    3.301224e+00
  3.353902e+00    3.243538e+00
  3.369778e+00    3.361863e+00
  3.385654e+00    3.451848e+00
  3.401529e+00    3.420993e+00
  3.417405e+00    3.289412e+00
  3.433280e+00    3.267892e+00
  3.449156e+00    3.303146e+00
  3.465031e+00    3.387112e+00
  3.480907e+00    3.415962e+00
  3.496783e+00    3.364122e+00
  3.512658e+00    3.354716e+00
  3.528534e+00    3.415763e+00
  3.544409e+00    3.385504e+00
  3.560285e+00    3.339203e+00
  3.576160e+00    3.372348e+00
  3.592036e+00    3.431435e+00
  3.607912e+00    3.401335e+00
  3.623787e+00    3.431676e+00
  3.639663e+00    3.505266e+00
  3.655538e+00    3.545401e+00
  3.671414e+00    3.489592e+00
  3.687289e+00    3.421273e+00
  3.703165e+00    3.406521e+00
  3.719041e+00    3.528762e+00
  3.734916e+00    3.563975e+00
  3.750792e+00    3.486176e+00
  3.766667e+00    3.431571e+00
  3.782543e+00    3.414927e+00
  3.798418e+00    3.386742e+00
  3.814294e+00    3.402376e+00
  3.830170e+00    3.487820e+00
  3.846045e+00    3.492738e+00
  3.861921e+00    3.463478e+00
  3.877796e+00    3.437608e+00
  3.893672e+00    3.377911e+00
  3.909547e+00    3.438444e+00
  3.925423e+00    3.453769e+00
  3.941299e+00    3.516483e+00
  3.957174e+00    3.494424e+00
  3.973050e+00    3.459400e+00
  3.988925e+00    3.325762e+00
  4.004801e+00    3.419883e+00
  4.020676e+00    3.474783e+00
  4.036552e+00    3.527472e+00
  4.052428e+00    3.469586e+00
  4.068303e+00    3.463344e+00
  4.084179e+00    3.571468e+00
  4.100054e+00    3.547627e+00
  4.115930e+00    3.467170e+00
  4.131806e+00    3.410509e+00
  4.147681e+00    3.447671e+00
  4.163557e+00    3.514542e+00
  4.179432e+00    3.598988e+00
  4.195308e+00    3.569997e+00
  4.211183e+00    3.518739e+00
  4.227059e+00    3.427853e+00
  4.242935e+00    3.309279e+00
  4.258810e+00    3.389749e+00
  4.274686e+00    3.469979e+00
  4.290561e+00    3.480037e+00
  4.306437e+00    3.470053e+00
  4.322312e+00    3.425847e+00
  4.338188e+00    3.537230e+00
  4.354064e+00    3.563093e+00
  4.369939e+00    3.549332e+00
  4.385815e+00    3.536553e+00
  4.401690e+00    3.561607e+00
  4.417566e+00    3.543294e+00
  4.433441e+00    3.541253e+00
  4.449317e+00    3.533828e+00
  4.465193e+00    3.528720e+00
  4.481068e+00    3.562543e+00
  4.496944e+00    3.539278e+00
  4.512819e+00    3.486482e+00
  4.528695e+00    3.511418e+00
  4.544570e+00    3.602349e+00
  4.560446e+00    3.585504e+00
  4.576322e+00    3.514765e+00
  4.592197e+00    3.527102e+00
  4.608073e+00    3.578112e+00
  4.623948e+00    3.565886e+00
  4.639824e+00    3.553340e+00
  4.655699e+00    3.579875e+00
  4.671575e+00    3.581198e+00
  4.687451e+00    3.551843e+00
  4.703326e+00    3.542060e+00
  4.719202e+00    3.520335e+00
  4.735077e+00    3.519895e+00
  4.750953e+00    3.542912e+00
  4.766828e+00    3.596921e+00
  4.782704e+00    3.611871e+00
  4.798580e+00    3.564823e+00
  4.814455e+00    3.579381e+00
  4.830331e+00    3.655414e+00
  4.846206e+00    3.662894e+00
  4.862082e+00    3.577069e+00
  4.877957e+00    3.552107e+00
  4.893833e+00    3.577619e+00
  4.909709e+00    3.562105e+00
  4.925584e+00    3.593553e+00
  4.941460e+00    3.680816e+00
  4.957335e+00    3.730410e+00
  4.973211e+00    3.667069e+00
  4.989086e+00    3.651667e+00
  5.004962e+00    3.625069e+00
  5.020838e+00    3.651866e+00
  5.036713e+00    3.671215e+00
  5.052589e+00    3.630701e+00
  5.068464e+00    3.622538e+00
  5.084340e+00    3.653385e+00
  5.100216e+00    3.564933e+00
  5.116091e+00    3.616022e+00
  5.131967e+00    3.647445e+00
  5.147842e+00    3.560703e+00
  5.163718e+00    3.601221e+00
  5.179593e+00    3.642445e+00
  5.195469e+00    3.672441e+00
  5.211345e+00    3.619181e+00
  5.227220e+00    3.607786e+00
  5.243096e+00    3.596205e+00
  5.258971e+00    3.590894e+00
  5.274847e+00    3.637939e+00
  5.290722e+00    3.669324e+00
  5.306598e+00    3.684159e+00
  5.322474e+00    3.609647e+00
  5.338349e+00    3.622091e+00
  5.354225e+00    3.618556e+00
  5.370100e+00    3.624537e+00
  5.385976e+00    3.652338e+00
  5.401851e+00    3.583844e+00
  5.417727e+00    3.580411e+00
  5.433603e+00    3.551811e+00
  5.449478e+00    3.510525e+00
  5.465354e+00    3.571856e+00
  5.481229e+00    3.532040e+00
  5.497105e+00    3.592013e+00
  5.512980e+00    3.510005e+00
  5.528856e+00    3.540266e+00
  5.544732e+00    3.526155e+00
  5.560607e+00    3.531853e+00
  5.576483e+00    3.560794e+00
  5.592358e+00    3.587267e+00
  5.608234e+00    3.572235e+00
  5.624109e+00    3.632857e+00
  5.639985e+00    3.602955e+00
  5.655861e+00    3.538596e+00
  5.671736e+00    3.514360e+00
  5.687612e+00    3.509566e+00
  5.703487e+00    3.504826e+00
  5.719363e+00    3.547007e+00
  5.735238e+00    3.568903e+00
  5.751114e+00    3.539452e+00
  5.766990e+00    3.597315e+00
  5.782865e+00    3.589087e+00
  5.798741e+00    3.549519e+00
  5.814616e+00    3.541236e+00
  5.830492e+00    3.510478e+00
  5.846367e+00    3.553501e+00
  5.862243e+00    3.592056e+00
  5.878119e+00    3.602510e+00
  5.893994e+00    3.523226e+00
  5.909870e+00    3.392783e+00
  5.925745e+00    3.486489e+00
  5.941621e+00    3.509046e+00
  5.957497e+00    3.486707e+00
  5.973372e+00    3.478312e+00
  5.989248e+00    3.429782e+00
  6.005123e+00    3.459308e+00
  6.020999e+00    3.511211e+00
  6.036874e+00    3.518914e+00
  6.052750e+00    3.548696e+00
  6.068626e+00    3.517953e+00
  6.084501e+00    3.585674e+00
  6.100377e+00    3.543686e+00
  6.116252e+00    3.563208e+00
  6.132128e+00    3.595737e+00
  6.148003e+00    3.601459e+00
  6.163879e+00    3.491933e+00
  6.179755e+00    3.454725e+00
  6.195630e+00    3.512647e+00
  6.211506e+00    3.533336e+00
  6.227381e+00    3.539620e+00
  6.243257e+00    3.531662e+00
  6.259132e+00    3.451952e+00
  6.275008e+00    3.557797e+00
  6.290884e+00    3.502908e+00
  6.306759e+00    3.446971e+00
  6.322635e+00    3.495339e+00
  6.338510e+00    3.516172e+00
  6.354386e+00    3.500107e+00
  6.370261e+00    3.533480e+00
  6.386137e+00    3.513234e+00
  6.402013e+00    3.504679e+00
  6.417888e+00    3.618009e+00
  6.433764e+00    3.640499e+00
  6.449639e+00    3.529603e+00
  6.465515e+00    3.482560e+00
  6.481390e+00    3.487585e+00
  6.497266e+00    3.543694e+00
  6.513142e+00    3.606219e+00
  6.529017e+00    3.552578e+00
  6.544893e+00    3.587662e+00
  6.560768e+00    3.535976e+00
  6.576644e+00    3.529277e+00
  6.592519e+00    3.545857e+00
  6.608395e+00    3.540632e+00
  6.624271e+00    3.463874e+00
  6.640146e+00    3.515323e+00
  6.656022e+00    3.473866e+00
  6.671897e+00    3.464137e+00
  6.687773e+00    3.528270e+00
  6.703648e+00    3.473129e+00
  6.719524e+00    3.437610e+00
  6.735400e+00    3.546435e+00
  6.751275e+00    3.483202e+00
  6.767151e+00    3.485306e+00
  6.783026e+00    3.499029e+00
  6.798902e+00    3.466594e+00
  6.814777e+00    3.544630e+00
  6.830653e+00    3.522967e+00
  6.846529e+00    3.501785e+00
  6.862404e+00    3.463180e+00
  6.878280e+00    3.504019e+00
  6.894155e+00    3.521797e+00
  6.910031e+00    3.519838e+00
  6.925907e+00    3.523692e+00
  6.941782e+00    3.517258e+00
  6.957658e+00    3.563559e+00
  6.973533e+00    3.490119e+00
  6.989409e+00    3.495583e+00
  7.005284e+00    3.449959e+00
  7.021160e+00    3.460335e+00
  7.037036e+00    3.449342e+00
  7.052911e+00    3.432635e+00
  7.068787e+00    3.520617e+00
  7.084662e+00    3.494268e+00
  7.100538e+00    3.440745e+00
  7.116413e+00    3.488223e+00
  7.132289e+00    3.508696e+00
  7.148165e+00    3.495001e+00
  7.164040e+00    3.411287e+00
  7.179916e+00    3.451361e+00
  7.195791e+00    3.469367e+00
  7.211667e+00    3.416481e+00
  7.227542e+00    3.427505e+00
  7.243418e+00    3.502710e+00
  7.259294e+00    3.489795e+00
  7.275169e+00    3.471053e+00
  7.291045e+00    3.459038e+00
  7.306920e+00    3.481816e+00
  7.322796e+00    3.506581e+00
  7.338671e+00    3.451219e+00
  7.354547e+00    3.460572e+00
  7.370423e+00    3.462400e+00
  7.386298e+00    3.379977e+00
  7.402174e+00    3.503699e+00
  7.418049e+00    3.525293e+00
  7.433925e+00    3.474117e+00
  7.449800e+00    3.429719e+00
  7.465676e+00    3.434991e+00
  7.481552e+00    3.460867e+00
  7.497427e+00    3.461906e+00
  7.513303e+00    3.431302e+00
  7.529178e+00    3.407937e+00
  7.545054e+00    3.383675e+00
  7.560929e+00    3.398655e+00
  7.576805e+00    3.375257e+00
  7.592681e+00    3.420464e+00
  7.608556e+00    3.433050e+00
  7.624432e+00    3.414811e+00
  7.640307e+00    3.441131e+00
  7.656183e+00    3.422559e+00
  7.672058e+00    3.506186e+00
  7.687934e+00    3.452735e+00
  7.703810e+00    3.393473e+00
  7.719685e+00    3.381385e+00
  7.735561e+00    3.403343e+00
  7.751436e+00    3.409334e+00
  7.767312e+00    3.454640e+00
  7.783187e+00    3.414464e+00
  7.799063e+00    3.325172e+00
  7.814939e+00    3.359335e+00
  7.830814e+00    3.416794e+00
  7.846690e+00    3.361281e+00
  7.862565e+00    3.373955e+00
  7.878441e+00    3.432728e+00
  7.894317e+00    3.481580e+00
  7.910192e+00    3.430279e+00
  7.926068e+00    3.421275e+00
  7.941943e+00    3.422339e+00
  7.957819e+00    3.389061e+00
  7.973694e+00    3.321936e+00
  7.989570e+00    3.371818e+00
  8.005446e+00    3.401875e+00
  8.021321e+00    3.414187e+00
  8.037197e+00    3.328695e+00
  8.053072e+00    3.360659e+00
  8.068948e+00    3.322780e+00
  8.084823e+00    3.376973e+00
  8.100699e+00    3.455606e+00
  8.116575e+00    3.454825e+00
  8.132450e+00    3.506260e+00
  8.148326e+00    3.430960e+00
  8.164201e+00    3.375983e+00
  8.180077e+00    3.377500e+00
  8.195952e+00    3.413091e+00
  8.211828e+00    3.472769e+00
  8.227704e+00    3.445168e+00
  8.243579e+00    3.487312e+00
  8.259455e+00    3.477465e+00
  8.275330e+00    3.467783e+00
  8.291206e+00    3.446565e+00
  8.307081e+00    3.337601e+00
  8.322957e+00    3.381442e+00
  8.338833e+00    3.416973e+00
  8.354708e+00    3.341600e+00
  8.370584e+00    3.384135e+00
  8.386459e+00    3.375810e+00
  8.402335e+00    3.368182e+00
  8.418210e+00    3.346180e+00
  8.434086e+00    3.315346e+00
  8.449962e+00    3.357811e+00
  8.465837e+00    3.361031e+00
  8.481713e+00    3.320886e+00
  8.497588e+00    3.274307e+00
  8.513464e+00    3.315303e+00
  8.529339e+00    3.320136e+00
  8.545215e+00    3.299132e+00
  8.561091e+00    3.275379e+00
  8.576966e+00    3.329476e+00
  8.592842e+00    3.350586e+00
  8.608717e+00    3.296218e+00
  8.624593e+00    3.228101e+00
  8.640468e+00    3.286690e+00
  8.656344e+00    3.320283e+00
  8.672220e+00    3.296144e+00
  8.688095e+00    3.275069e+00
  8.703971e+00    3.242213e+00
  8.719846e+00    3.311295e+00
  8.735722e+00    3.299486e+00
  8.751598e+00    3.338293e+00
  8.767473e+00    3.313979e+00
  8.783349e+00    3.341740e+00
  8.799224e+00    3.281957e+00
  8.815100e+00    3.210117e+00
  8.830975e+00    3.261426e+00
  8.846851e+00    3.229417e+00
  8.862727e+00    3.234020e+00
  8.878602e+00    3.357145e+00
  8.894478e+00    3.327559e+00
  8.910353e+00    3.241369e+00
  8.926229e+00    3.265912e+00
  8.942104e+00    3.303629e+00
  8.957980e+00    3.335256e+00
  8.973856e+00    3.349411e+00
  8.989731e+00    3.290709e+00
  9.005607e+00    3.296676e+00
  9.021482e+00    3.284583e+00
  9.037358e+00    3.267156e+00
  9.053233e+00    3.246872e+00
  9.069109e+00    3.190905e+00
  9.084985e+00    3.215082e+00
  9.100860e+00    3.282938e+00
  9.116736e+00    3.250351e+00
  9.132611e+00    3.254951e+00
  9.148487e+00    3.290617e+00
  9.164362e+00    3.263907e+00
  9.180238e+00    3.261768e+00
  9.196114e+00    3.254850e+00
  9.211989e+00    3.205877e+00
  9.227865e+00    3.241596e+00
  9.243740e+00    3.245147e+00
  9.259616e+00    3.234314e+00
  9.275491e+00    3.235547e+00
  9.291367e+00    3.291085e+00
  9.307243e+00    3.183239e+00
  9.323118e+00    3.219642e+00
  9.338994e+00    3.226085e+00
  9.354869e+00    3.213160e+00
  9.370745e+00    3.171709e+00
  9.386620e+00    3.192805e+00
  9.402496e+00    3.203830e+00
  9.418372e+00    3.204839e+00
  9.434247e+00    3.147015e+00
  9.450123e+00    3.143059e+00
  9.465998e+00    3.175568e+00
  9.481874e+00    3.203888e+00
  9.497749e+00    3.140363e+00
  9.513625e+00    3.169740e+00
  9.529501e+00    3.201899e+00
  9.545376e+00    3.159464e+00
  9.561252e+00    3.170943e+00
  9.577127e+00    3.159323e+00
  9.593003e+00    3.158788e+00
  9.608878e+00    3.235650e+00
  9.624754e+00    3.183536e+00
  9.640630e+00    3.151966e+00
  9.656505e+00    3.167269e+00
  9.672381e+00    3.168908e+00
  9.688256e+00    3.117224e+00
  9.704132e+00    3.163885e+00
  9.720008e+00    3.181759e+00
  9.735883e+00    3.204211e+00
  9.751759e+00    3.158562e+00
  9.767634e+00    3.149755e+00
  9.783510e+00    3.149462e+00
  9.799385e+00    3.107119e+00
  9.815261e+00    3.123260e+00
  9.831137e+00    3.131164e+00
  9.847012e+00    3.087226e+00
  9.862888e+00    3.107019e+00
  9.878763e+00    3.133458e+00
  9.894639e+00    3.148507e+00
  9.910514e+00    3.127057e+00
  9.926390e+00    3.097088e+00
  9.942266e+00    3.116344e+00
  9.958141e+00    3.103439e+00
  9.974017e+00    3.086639e+00
  9.989892e+00    3.106979e+00
  1.000577e+01    3.105070e+00
  1.002164e+01    3.116806e+00
  1.003752e+01    3.120598e+00
  1.005339e+01    3.092167e+00
  1.006927e+01    3.076874e+00
  1.008515e+01    3.049625e+00
  1.010102e+01    3.053466e+00
  1.011690e+01    3.117937e+00
  1.013277e+01    3.071217e+00
  1.014865e+01    3.033971e+00
  1.016452e+01    3.086401e+00
  1.018040e+01    3.087080e+00
  1.019627e+01    3.073030e+00
  1.021215e+01    3.071860e+00
  1.022803e+01    3.031166e+00
  1.024390e+01    3.004205e+00
  1.025978e+01    3.092261e+00
  1.027565e+01    3.092047e+00
  1.029153e+01    2.990094e+00
  1.030740e+01    2.970720e+00
  1.032328e+01    3.010399e+00
  1.033915e+01    3.050972e+00
  1.035503e+01    3.057005e+00
  1.037091e+01    2.997124e+00
  1.038678e+01    2.975277e+00
  1.040266e+01    2.966260e+00
  1.041853e+01    3.016608e+00
  1.043441e+01    3.017435e+00
  1.045028e+01    2.982932e+00
  1.046616e+01    2.967160e+00
  1.048204e+01    3.004702e+00
  1.049791e+01    2.986943e+00
  1.051379e+01    3.001035e+00
  1.052966e+01    3.041330e+00
  1.054554e+01    3.003215e+00
  1.056141e+01    2.996302e+00
  1.057729e+01    2.998839e+00
  1.059316e+01    2.966389e+00
  1.060904e+01    2.971736e+00
  1.062492e+01    3.008806e+00
  1.064079e+01    2.978377e+00
  1.065667e+01    2.953598e+00
  1.067254e+01    2.943764e+00
  1.068842e+01    2.946085e+00
  1.070429e+01    2.900219e+00
  1.072017e+01    2.897357e+00
  1.073604e+01    2.962720e+00
  1.075192e+01    2.979623e+00
  1.076780e+01    2.949417e+00
  1.078367e+01    2.934176e+00
  1.079955e+01    2.927598e+00
  1.081542e+01    2.956620e+00
  1.083130e+01    2.938492e+00
  1.084717e+01    2.881738e+00
  1.086305e+01    2.813055e+00
  1.087892e+01    2.864461e+00
  1.089480e+01    2.903473e+00
  1.091068e+01    2.857231e+00
  1.092655e+01    2.889316e+00
  1.094243e+01    2.888071e+00
  1.095830e+01    2.921603e+00
  1.097418e+01    2.905762e+00
  1.099005e+01    2.847404e+00
  1.100593e+01    2.883586e+00
  1.102180e+01    2.918465e+00
  1.103768e+01    2.881298e+00
  1.105356e+01    2.871125e+00
  1.106943e+01    2.875934e+00
  1.108531e+01    2.846663e+00
  1.110118e+01    2.874613e+00
  1.111706e+01    2.870704e+00
  1.113293e+01    2.866661e+00
  1.114881e+01    2.845984e+00
  1.116468e+01    2.830644e+00
  1.118056e+01    2.815246e+00
  1.119644e+01    2.814737e+00
  1.121231e+01    2.805137e+00
  1.122819e+01    2.807013e+00
  1.124406e+01    2.848762e+00
  1.125994e+01    2.802796e+00
  1.127581e+01    2.797468e+00
  1.129169e+01    2.842616e+00
  1.130756e+01    2.816029e+00
  1.132344e+01    2.793852e+00
  1.133932e+01    2.790959e+00
  1.135519e+01    2.792973e+00
  1.137107e+01    2.763399e+00
  1.138694e+01    2.789955e+00
  1.140282e+01    2.779783e+00
  1.141869e+01    2.790937e+00
  1.143457e+01    2.815335e+00
  1.145045e+01    2.760894e+00
  1.146632e+01    2.766128e+00
  1.148220e+01    2.781835e+00
  1.149807e+01    2.813862e+00
  1.151395e+01    2.772008e+00
  1.152982e+01    2.753713e+00
  1.154570e+01    2.728999e+00
  1.156157e+01    2.703994e+00
  1.157745e+01    2.717723e+00
  1.159333e+01    2.756510e+00
  1.160920e+01    2.801845e+00
  1.162508e+01    2.775640e+00
  1.164095e+01    2.716029e+00
  1.165683e+01    2.722685e+00
  1.167270e+01    2.763468e+00
  1.168858e+01    2.735194e+00
  1.170445e+01    2.723118e+00
  1.172033e+01    2.751789e+00
  1.173621e+01    2.792996e+00
  1.175208e+01    2.771295e+00
  1.176796e+01    2.749020e+00
  1.178383e+01    2.749741e+00
  1.179971e+01    2.713238e+00
  1.181558e+01    2.659798e+00
  1.183146e+01    2.706659e+00
  1.184733e+01    2.691807e+00
  1.186321e+01    2.686074e+00
  1.187909e+01    2.663723e+00
  1.189496e+01    2.677024e+00
  1.191084e+01    2.709042e+00
  1.192671e+01    2.737214e+00
  1.194259e+01    2.715771e+00
  1.195846e+01    2.658483e+00
  1.197434e+01    2.691807e+00
  1.199021e+01    2.661663e+00
  1.200609e+01    2.645520e+00
  1.202197e+01    2.670167e+00
  1.203784e+01    2.668027e+00
  1.205372e+01    2.696872e+00
  1.206959e+01    2.658241e+00
  1.208547e+01    2.702804e+00
  1.210134e+01    2.683218e+00
  1.211722e+01    2.720052e+00
  1.213309e+01    2.673018e+00
  1.214897e+01    2.642698e+00
  1.216485e+01    2.680524e+00
  1.218072e+01    2.672747e+00
  1.219660e+01    2.678173e+00
  1.221247e+01    2.697139e+00
  1.222835e+01    2.670576e+00
  1.224422e+01    2.667243e+00
  1.226010e+01    2.633457e+00
  1.227597e+01    2.646106e+00
  1.229185e+01    2.645739e+00
  1.230773e+01    2.677591e+00
  1.232360e+01    2.667577e+00
  1.233948e+01    2.660917e+00
  1.235535e+01    2.629205e+00
  1.237123e+01    2.648765e+00
  1.238710e+01    2.694014e+00
  1.240298e+01    2.699555e+00
  1.241886e+01    2.694598e+00
  1.243473e+01    2.675706e+00
  1.245061e+01    2.660212e+00
  1.246648e+01    2.649912e+00
  1.248236e+01    2.640103e+00
  1.249823e+01    2.667403e+00
  1.251411e+01    2.706843e+00
  1.252998e+01    2.681378e+00
  1.254586e+01    2.698593e+00
  1.256174e+01    2.659662e+00
  1.257761e+01    2.679721e+00
  1.259349e+01    2.693730e+00
  1.260936e+01    2.710596e+00
  1.262524e+01    2.773776e+00
  1.264111e+01    2.761301e+00
  1.265699e+01    2.732973e+00
  1.267286e+01    2.791859e+00
  1.268874e+01    2.777061e+00
  1.270462e+01    2.789967e+00
  1.272049e+01    2.845581e+00
  1.273637e+01    2.834328e+00
  1.275224e+01    2.835997e+00
  1.276812e+01    2.862331e+00
  1.278399e+01    2.928430e+00
  1.279987e+01    2.935920e+00
  1.281574e+01    2.989240e+00
  1.283162e+01    3.080647e+00
  1.284750e+01    3.203437e+00
  1.286337e+01    3.321684e+00
  1.287925e+01    3.408672e+00
  1.289512e+01    3.505814e+00
  1.291100e+01    3.613168e+00
  1.292687e+01    3.816089e+00
  1.294275e+01    4.040032e+00
  1.295862e+01    4.296518e+00
  1.297450e+01    4.658807e+00
  1.299038e+01    5.217846e+00
  1.300625e+01    5.825468e+00
  1.302213e+01    6.650567e+00
  1.303800e+01    7.665035e+00
  1.305388e+01    8.799664e+00
  1.306975e+01    1.005209e+01
  1.308563e+01    1.137281e+01
  1.310150e+01    1.256334e+01
  1.311738e+01    1.361097e+01
  1.313326e+01    1.470768e+01
  1.314913e+01    1.569080e+01
  1.316501e+01    1.615214e+01
  1.318088e+01    1.611228e+01
  1.319676e+01    1.546556e+01
  1.321263e+01    1.415170e+01
  1.322851e+01    1.233619e+01
  1.324438e+01    1.055189e+01
  1.326026e+01    8.975201e+00
  1.327614e+01    7.737916e+00
  1.329201e+01    6.686885e+00
  1.330789e+01    5.877415e+00
  1.332376e+01    5.320517e+00
  1.333964e+01    4.738945e+00
  1.335551e+01    4.417040e+00
  1.337139e+01    4.132308e+00
  1.338727e+01    3.869051e+00
  1.340314e+01    3.597063e+00
  1.341902e+01    3.441366e+00
  1.343489e+01    3.284708e+00
  1.345077e+01    3.173715e+00
  1.346664e+01    3.075686e+00
  1.348252e+01    3.017160e+00
  1.349839e+01    2.921455e+00
  1.351427e+01    2.872293e+00
  1.353015e+01    2.813964e+00
  1.354602e+01    2.763569e+00
  1.356190e+01    2.772383e+00
  1.357777e+01    2.729980e+00
  1.359365e+01    2.698317e+00
  1.360952e+01    2.637807e+00
  1.362540e+01    2.620894e+00
  1.364127e+01    2.578554e+00
  1.365715e+01    2.531841e+00
  1.367303e+01    2.514533e+00
  1.368890e+01    2.516719e+00
  1.370478e+01    2.505692e+00
  1.372065e+01    2.480596e+00
  1.373653e+01    2.493280e+00
  1.375240e+01    2.477586e+00
  1.376828e+01    2.454879e+00
  1.378415e+01    2.455535e+00
  1.380003e+01    2.461732e+00
  1.381591e+01    2.416205e+00
  1.383178e+01    2.433786e+00
  1.384766e+01    2.413634e+00
  1.386353e+01    2.395708e+00
  1.387941e+01    2.385991e+00
  1.389528e+01    2.394515e+00
  1.391116e+01    2.385617e+00
  1.392703e+01    2.384934e+00
  1.394291e+01    2.376737e+00
  1.395879e+01    2.310759e+00
  1.397466e+01    2.305289e+00
  1.399054e+01    2.323665e+00
  1.400641e+01    2.321500e+00
  1.402229e+01    2.304575e+00
  1.403816e+01    2.304583e+00
  1.405404e+01    2.319420e+00
  1.406991e+01    2.266818e+00
  1.408579e+01    2.295023e+00
  1.410167e+01    2.295902e+00
  1.411754e+01    2.330047e+00
  1.413342e+01    2.304504e+00
  1.414929e+01    2.285792e+00
  1.416517e+01    2.308741e+00
  1.418104e+01    2.316494e+00
  1.419692e+01    2.252648e+00
  1.421279e+01    2.289951e+00
  1.422867e+01    2.263565e+00
  1.424455e+01    2.249799e+00
  1.426042e+01    2.290256e+00
  1.427630e+01    2.243840e+00
  1.429217e+01    2.256221e+00
  1.430805e+01    2.232258e+00
  1.432392e+01    2.240754e+00
  1.433980e+01    2.217648e+00
  1.435568e+01    2.237799e+00
  1.437155e+01    2.261504e+00
  1.438743e+01    2.240558e+00
  1.440330e+01    2.215574e+00
  1.441918e+01    2.209821e+00
  1.443505e+01    2.221117e+00
  1.445093e+01    2.229453e+00
  1.446680e+01    2.207325e+00
  1.448268e+01    2.181008e+00
  1.449856e+01    2.182761e+00
  1.451443e+01    2.224461e+00
  1.453031e+01    2.207216e+00
  1.454618e+01    2.178667e+00
  1.456206e+01    2.201899e+00
  1.457793e+01    2.208982e+00
  1.459381e+01    2.163347e+00
  1.460968e+01    2.211462e+00
  1.462556e+01    2.194752e+00
  1.464144e+01    2.205524e+00
  1.465731e+01    2.235469e+00
  1.467319e+01    2.198931e+00
  1.468906e+01    2.174845e+00
  1.470494e+01    2.195675e+00
  1.472081e+01    2.178562e+00
  1.473669e+01    2.203149e+00
  1.475256e+01    2.171167e+00
  1.476844e+01    2.184015e+00
  1.478432e+01    2.184853e+00
  1.480019e+01    2.182176e+00
  1.481607e+01    2.179627e+00
  1.483194e+01    2.156817e+00
  1.484782e+01    2.207983e+00
  1.486369e+01    2.215552e+00
  1.487957e+01    2.186006e+00
  1.489544e+01    2.190641e+00
  1.491132e+01    2.201157e+00
  1.492720e+01    2.235020e+00
  1.494307e+01    2.239611e+00
  1.495895e+01    2.285588e+00
  1.497482e+01    2.329104e+00
  1.499070e+01    2.408691e+00
  1.500657e+01    2.398899e+00
  1.502245e+01    2.455243e+00
  1.503832e+01    2.582110e+00
  1.505420e+01    2.662252e+00
  1.507008e+01    2.755202e+00
  1.508595e+01    2.918043e+00
  1.510183e+01    3.185617e+00
  1.511770e+01    3.443513e+00
  1.513358e+01    3.739524e+00
  1.514945e+01    4.129545e+00
  1.516533e+01    4.535708e+00
  1.518120e+01    4.862833e+00
  1.519708e+01    5.111402e+00
  1.521296e+01    5.380759e+00
  1.522883e+01    5.487510e+00
  1.524471e+01    5.592106e+00
  1.526058e+01    5.704770e+00
  1.527646e+01    5.635259e+00
  1.529233e+01    5.356726e+00
  1.530821e+01    5.082870e+00
  1.532409e+01    4.565312e+00
  1.533996e+01    4.074040e+00
  1.535584e+01    3.703594e+00
  1.537171e+01    3.391894e+00
  1.538759e+01    3.136817e+00
  1.540346e+01    2.901726e+00
  1.541934e+01    2.713194e+00
  1.543521e+01    2.560856e+00
  1.545109e+01    2.479103e+00
  1.546697e+01    2.422635e+00
  1.548284e+01    2.336124e+00
  1.549872e+01    2.240672e+00
  1.551459e+01    2.174129e+00
  1.553047e+01    2.171348e+00
  1.554634e+01    2.163009e+00
  1.556222e+01    2.173028e+00
  1.557809e+01    2.140626e+00
  1.559397e+01    2.101356e+00
  1.560985e+01    2.054420e+00
  1.562572e+01    2.046822e+00
  1.564160e+01    2.044796e+00
  1.565747e+01    2.057955e+00
  1.567335e+01    2.025644e+00
  1.568922e+01    1.998775e+00
  1.570510e+01    1.981262e+00
  1.572097e+01    1.973198e+00
  1.573685e+01    1.920214e+00
  1.575273e+01    1.924123e+00
  1.576860e+01    1.921770e+00
  1.578448e+01    1.899517e+00
  1.580035e+01    1.922361e+00
  1.581623e+01    1.905946e+00
  1.583210e+01    1.940527e+00
  1.584798e+01    1.925412e+00
  1.586385e+01    1.909427e+00
  1.587973e+01    1.910290e+00
  1.589561e+01    1.898228e+00
  1.591148e+01    1.887203e+00
  1.592736e+01    1.900725e+00
  1.594323e+01    1.862256e+00
  1.595911e+01    1.857370e+00
  1.597498e+01    1.876665e+00
  1.599086e+01    1.904745e+00
  1.600673e+01    1.890705e+00
  1.602261e+01    1.844884e+00
  1.603849e+01    1.827053e+00
  1.605436e+01    1.836884e+00
  1.607024e+01    1.823689e+00
  1.608611e+01    1.829897e+00
  1.610199e+01    1.830081e+00
  1.611786e+01    1.858080e+00
  1.613374e+01    1.835143e+00
  1.614961e+01    1.832529e+00
  1.616549e+01    1.827972e+00
  1.618137e+01    1.773836e+00
  1.619724e+01    1.743336e+00
  1.621312e+01    1.754611e+00
  1.622899e+01    1.777476e+00
  1.624487e+01    1.795769e+00
  1.626074e+01    1.787684e+00
  1.627662e+01    1.794852e+00
  1.629250e+01    1.777315e+00
  1.630837e+01    1.763000e+00
  1.632425e+01    1.758611e+00
  1.634012e+01    1.744145e+00
  1.635600e+01    1.801273e+00
  1.637187e+01    1.797457e+00
  1.638775e+01    1.755906e+00
  1.640362e+01    1.731097e+00
  1.641950e+01    1.715109e+00
  1.643538e+01    1.750568e+00
  1.645125e+01    1.768702e+00
  1.646713e+01    1.754996e+00
  1.648300e+01    1.736664e+00
  1.649888e+01    1.718441e+00
  1.651475e+01    1.730858e+00
  1.653063e+01    1.725158e+00
  1.654650e+01    1.715933e+00
  1.656238e+01    1.720794e+00
  1.657826e+01    1.721763e+00
  1.659413e+01    1.696990e+00
  1.661001e+01    1.687589e+00
  1.662588e+01    1.683107e+00
  1.664176e+01    1.689860e+00
  1.665763e+01    1.717051e+00
  1.667351e+01    1.726264e+00
  1.668938e+01    1.747119e+00
  1.670526e+01    1.739635e+00
  1.672114e+01    1.710548e+00
  1.673701e+01    1.703444e+00
  1.675289e+01    1.682067e+00
  1.676876e+01    1.714759e+00
  1.678464e+01    1.710860e+00
  1.680051e+01    1.715270e+00
  1.681639e+01    1.693971e+00
  1.683226e+01    1.683059e+00
  1.684814e+01    1.685236e+00
  1.686402e+01    1.680726e+00
  1.687989e+01    1.687743e+00
  1.689577e+01    1.671949e+00
  1.691164e+01    1.666588e+00
  1.692752e+01    1.672109e+00
  1.694339e+01    1.682690e+00
  1.695927e+01    1.682456e+00
  1.697514e+01    1.626770e+00
  1.699102e+01    1.615058e+00
  1.700690e+01    1.647561e+00
  1.702277e+01    1.664212e+00
  1.703865e+01    1.656972e+00
  1.705452e+01    1.633634e+00
  1.707040e+01    1.619919e+00
  1.708627e+01    1.606944e+00
  1.710215e+01    1.604503e+00
  1.711802e+01    1.612412e+00
  1.713390e+01    1.635360e+00
  1.714978e+01    1.649003e+00
  1.716565e+01    1.640198e+00
  1.718153e+01    1.611750e+00
  1.719740e+01    1.615815e+00
  1.721328e+01    1.610954e+00
  1.722915e+01    1.614462e+00
  1.724503e+01    1.611360e+00
  1.726091e+01    1.591696e+00
  1.727678e+01    1.608105e+00
  1.729266e+01    1.606995e+00
  1.730853e+01    1.583543e+00
  1.732441e+01    1.576564e+00
  1.734028e+01    1.586240e+00
  1.735616e+01    1.584324e+00
  1.737203e+01    1.589535e+00
  1.738791e+01    1.618192e+00
  1.740379e+01    1.609604e+00
  1.741966e+01    1.573995e+00
  1.743554e+01    1.576956e+00
  1.745141e+01    1.595895e+00
  1.746729e+01    1.578948e+00
  1.748316e+01    1.573371e+00
  1.749904e+01    1.580862e+00
  1.751491e+01    1.598355e+00
  1.753079e+01    1.604201e+00
  1.754667e+01    1.600092e+00
  1.756254e+01    1.546200e+00
  1.757842e+01    1.568584e+00
  1.759429e+01    1.534445e+00
  1.761017e+01    1.545487e+00
  1.762604e+01    1.530735e+00
  1.764192e+01    1.555242e+00
  1.765779e+01    1.557414e+00
  1.767367e+01    1.567790e+00
  1.768955e+01    1.560583e+00
  1.770542e+01    1.509224e+00
  1.772130e+01    1.518212e+00
  1.773717e+01    1.544111e+00
  1.775305e+01    1.537639e+00
  1.776892e+01    1.501316e+00
  1.778480e+01    1.518603e+00
  1.780067e+01    1.525554e+00
  1.781655e+01    1.541029e+00
  1.783243e+01    1.538115e+00
  1.784830e+01    1.507357e+00
  1.786418e+01    1.516278e+00
  1.788005e+01    1.523325e+00
  1.789593e+01    1.535823e+00
  1.791180e+01    1.527512e+00
  1.792768e+01    1.511110e+00
  1.794355e+01    1.485053e+00
  1.795943e+01    1.496282e+00
  1.797531e+01    1.482127e+00
  1.799118e+01    1.481060e+00
  1.800706e+01    1.479129e+00
  1.802293e+01    1.498094e+00
  1.803881e+01    1.483295e+00
  1.805468e+01    1.452964e+00
  1.807056e+01    1.481450e+00
  1.808643e+01    1.491970e+00
  1.810231e+01    1.484419e+00
  1.811819e+01    1.481598e+00
  1.813406e+01    1.469103e+00
  1.814994e+01    1.458612e+00
  1.816581e+01    1.465458e+00
  1.818169e+01    1.458941e+00
  1.819756e+01    1.450451e+00
  1.821344e+01    1.448933e+00
  1.822932e+01    1.497059e+00
  1.824519e+01    1.518511e+00
  1.826107e+01    1.464241e+00
  1.827694e+01    1.477842e+00
  1.829282e+01    1.460719e+00
  1.830869e+01    1.437617e+00
  1.832457e+01    1.434831e+00
  1.834044e+01    1.428484e+00
  1.835632e+01    1.434386e+00
  1.837220e+01    1.458393e+00
  1.838807e+01    1.455287e+00
  1.840395e+01    1.434716e+00
  1.841982e+01    1.444464e+00
  1.843570e+01    1.445376e+00
  1.845157e+01    1.425152e+00
  1.846745e+01    1.443798e+00
  1.848332e+01    1.441229e+00
  1.849920e+01    1.436696e+00
  1.851508e+01    1.434135e+00
  1.853095e+01    1.411587e+00
  1.854683e+01    1.417613e+00
  1.856270e+01    1.419971e+00
  1.857858e+01    1.413693e+00
  1.859445e+01    1.407486e+00
  1.861033e+01    1.388561e+00
  1.862620e+01    1.411221e+00
  1.864208e+01    1.434666e+00
  1.865796e+01    1.435198e+00
  1.867383e+01    1.398398e+00
  1.868971e+01    1.410623e+00
  1.870558e+01    1.412446e+00
  1.872146e+01    1.407930e+00
  1.873733e+01    1.414488e+00
  1.875321e+01    1.416996e+00
  1.876908e+01    1.407520e+00
  1.878496e+01    1.411488e+00
  1.880084e+01    1.406073e+00
  1.881671e+01    1.391554e+00
  1.883259e+01    1.376487e+00
  1.884846e+01    1.401218e+00
  1.886434e+01    1.364410e+00
  1.888021e+01    1.371486e+00
  1.889609e+01    1.371629e+00
  1.891196e+01    1.336594e+00
  1.892784e+01    1.392933e+00
  1.894372e+01    1.404257e+00
  1.895959e+01    1.395857e+00
  1.897547e+01    1.379914e+00
  1.899134e+01    1.381511e+00
  1.900722e+01    1.354127e+00
  1.902309e+01    1.349517e+00
  1.903897e+01    1.339957e+00
  1.905484e+01    1.344647e+00
  1.907072e+01    1.353244e+00
  1.908660e+01    1.379588e+00
  1.910247e+01    1.399004e+00
  1.911835e+01    1.386045e+00
  1.913422e+01    1.372039e+00
  1.915010e+01    1.346751e+00
  1.916597e+01    1.340434e+00
  1.918185e+01    1.365168e+00
  1.919773e+01    1.320789e+00
  1.921360e+01    1.325707e+00
  1.922948e+01    1.358125e+00
  1.924535e+01    1.345217e+00
  1.926123e+01    1.349371e+00
  1.927710e+01    1.336073e+00
  1.929298e+01    1.348017e+00
  1.930885e+01    1.345505e+00
  1.932473e+01    1.337059e+00
  1.934061e+01    1.310256e+00
  1.935648e+01    1.315045e+00
  1.937236e+01    1.344443e+00
  1.938823e+01    1.308942e+00
  1.940411e+01    1.322238e+00
  1.941998e+01    1.304164e+00
  1.943586e+01    1.327800e+00
  1.945173e+01    1.311692e+00
  1.946761e+01    1.328095e+00
  1.948349e+01    1.306703e+00
  1.949936e+01    1.313493e+00
  1.951524e+01    1.339325e+00
  1.953111e+01    1.341281e+00
  1.954699e+01    1.319914e+00
  1.956286e+01    1.305733e+00
  1.957874e+01    1.314838e+00
  1.959461e+01    1.296980e+00
  1.961049e+01    1.309652e+00
  1.962637e+01    1.328659e+00
  1.964224e+01    1.309767e+00
  1.965812e+01    1.310242e+00
  1.967399e+01    1.279613e+00
  1.968987e+01    1.303400e+00
  1.970574e+01    1.291980e+00
  1.972162e+01    1.298813e+00
  1.973749e+01    1.288257e+00
  1.975337e+01    1.288887e+00
  1.976925e+01    1.272819e+00
  1.978512e+01    1.274132e+00
  1.980100e+01    1.305119e+00
  1.981687e+01    1.296582e+00
  1.983275e+01    1.273723e+00
  1.984862e+01    1.297266e+00
  1.986450e+01    1.274522e+00
  1.988037e+01    1.275574e+00
  1.989625e+01    1.278747e+00
  1.991213e+01    1.295483e+00
  1.992800e+01    1.308521e+00
  1.994388e+01    1.320880e+00
  1.995975e+01    1.287080e+00
  1.997563e+01    1.268114e+00
  1.999150e+01    1.260331e+00
  2.000738e+01    1.266769e+00
  2.002325e+01    1.246501e+00
  2.003913e+01    1.275025e+00
  2.005501e+01    1.257801e+00
  2.007088e+01    1.284828e+00
  2.008676e+01    1.279941e+00
  2.010263e+01    1.267583e+00
  2.011851e+01    1.252250e+00
  2.013438e+01    1.246756e+00
  2.015026e+01    1.238555e+00
  2.016614e+01    1.258624e+00
  2.018201e+01    1.243292e+00
  2.019789e+01    1.244682e+00
  2.021376e+01    1.238646e+00
  2.022964e+01    1.254188e+00
  2.024551e+01    1.240892e+00
  2.026139e+01    1.215048e+00
  2.027726e+01    1.234327e+00
  2.029314e+01    1.242951e+00
  2.030902e+01    1.218752e+00
  2.032489e+01    1.236866e+00
  2.034077e+01    1.232290e+00
  2.035664e+01    1.240624e+00
  2.037252e+01    1.238928e+00
  2.038839e+01    1.218595e+00
  2.040427e+01    1.237962e+00
  2.042014e+01    1.237631e+00
  2.043602e+01    1.257483e+00
  2.045190e+01    1.261587e+00
  2.046777e+01    1.243009e+00
  2.048365e+01    1.216016e+00
  2.049952e+01    1.213011e+00
  2.051540e+01    1.198112e+00
  2.053127e+01    1.218134e+00
  2.054715e+01    1.212056e+00
  2.056302e+01    1.213097e+00
  2.057890e+01    1.212717e+00
  2.059478e+01    1.218374e+00
  2.061065e+01    1.226047e+00
  2.062653e+01    1.220764e+00
  2.064240e+01    1.220635e+00
  2.065828e+01    1.224648e+00
  2.067415e+01    1.229473e+00
  2.069003e+01    1.242778e+00
  2.070590e+01    1.225081e+00
  2.072178e+01    1.225973e+00
  2.073766e+01    1.228764e+00
  2.075353e+01    1.204929e+00
  2.076941e+01    1.197474e+00
  2.078528e+01    1.194121e+00
  2.080116e+01    1.202699e+00
  2.081703e+01    1.218668e+00
  2.083291e+01    1.234050e+00
  2.084878e+01    1.222919e+00
  2.086466e+01    1.226477e+00
  2.088054e+01    1.218557e+00
  2.089641e+01    1.189999e+00
  2.091229e+01    1.188346e+00
  2.092816e+01    1.210533e+00
  2.094404e+01    1.214142e+00
  2.095991e+01    1.197871e+00
  2.097579e+01    1.205010e+00
  2.099166e+01    1.219090e+00
  2.100754e+01    1.239004e+00
  2.102342e+01    1.221434e+00
  2.103929e+01    1.208762e+00
  2.105517e+01    1.201687e+00
  2.107104e+01    1.201848e+00
  2.108692e+01    1.192070e+00
  2.110279e+01    1.213999e+00
  2.111867e+01    1.218307e+00
  2.113455e+01    1.209140e+00
  2.115042e+01    1.220043e+00
  2.116630e+01    1.211777e+00
  2.118217e+01    1.187050e+00
  2.119805e+01    1.177035e+00
  2.121392e+01    1.207145e+00
  2.122980e+01    1.250804e+00
  2.124567e+01    1.230272e+00
  2.126155e+01    1.236046e+00
  2.127743e+01    1.228703e+00
  2.129330e+01    1.217815e+00
  2.130918e+01    1.238814e+00
  2.132505e+01    1.253374e+00
  2.134093e+01    1.280093e+00
  2.135680e+01    1.286303e+00
  2.137268e+01    1.250015e+00
  2.138855e+01    1.256221e+00
  2.140443e+01    1.309436e+00
  2.142031e+01    1.326172e+00
  2.143618e+01    1.335965e+00
  2.145206e+01    1.357371e+00
  2.146793e+01    1.369361e+00
  2.148381e+01    1.379424e+00
  2.149968e+01    1.416690e+00
  2.151556e+01    1.436591e+00
  2.153143e+01    1.482625e+00
  2.154731e+01    1.526381e+00
  2.156319e+01    1.553358e+00
  2.157906e+01    1.602051e+00
  2.159494e+01    1.645995e+00
  2.161081e+01    1.739651e+00
  2.162669e+01    1.865751e+00
  2.164256e+01    1.949379e+00
  2.165844e+01    2.068579e+00
  2.167431e+01    2.277751e+00
  2.169019e+01    2.470482e+00
  2.170607e+01    2.738965e+00
  2.172194e+01    3.057955e+00
  2.173782e+01    3.493066e+00
  2.175369e+01    4.024960e+00
  2.176957e+01    4.550812e+00
  2.178544e+01    5.135499e+00
  2.180132e+01    5.782517e+00
  2.181719e+01    6.409686e+00
  2.183307e+01    7.047280e+00
  2.184895e+01    7.665995e+00
  2.186482e+01    8.251080e+00
  2.188070e+01    8.645013e+00
  2.189657e+01    8.787916e+00
  2.191245e+01    8.674832e+00
  2.192832e+01    8.184777e+00
  2.194420e+01    7.432722e+00
  2.196007e+01    6.529717e+00
  2.197595e+01    5.597663e+00
  2.199183e+01    4.786248e+00
  2.200770e+01    4.102108e+00
  2.202358e+01    3.534543e+00
  2.203945e+01    3.103977e+00
  2.205533e+01    2.798331e+00
  2.207120e+01    2.530709e+00
  2.208708e+01    2.276087e+00
  2.210296e+01    2.100266e+00
  2.211883e+01    1.981369e+00
  2.213471e+01    1.866326e+00
  2.215058e+01    1.730811e+00
  2.216646e+01    1.640552e+00
  2.218233e+01    1.596330e+00
  2.219821e+01    1.535723e+00
  2.221408e+01    1.471601e+00
  2.222996e+01    1.446946e+00
  2.224584e+01    1.408553e+00
  2.226171e+01    1.369560e+00
  2.227759e+01    1.336961e+00
  2.229346e+01    1.312889e+00
  2.230934e+01    1.295271e+00
  2.232521e+01    1.271268e+00
  2.234109e+01    1.255339e+00
  2.235696e+01    1.209011e+00
  2.237284e+01    1.223499e+00
  2.238872e+01    1.209324e+00
  2.240459e+01    1.188355e+00
  2.242047e+01    1.176190e+00
  2.243634e+01    1.178724e+00
  2.245222e+01    1.144394e+00
  2.246809e+01    1.147493e+00
  2.248397e+01    1.111551e+00
  2.249984e+01    1.132941e+00
  2.251572e+01    1.155670e+00
  2.253160e+01    1.146756e+00
  2.254747e+01    1.115571e+00
  2.256335e+01    1.072902e+00
  2.257922e+01    1.083539e+00
  2.259510e+01    1.080518e+00
  2.261097e+01    1.084826e+00
  2.262685e+01    1.091847e+00
  2.264272e+01    1.088897e+00
  2.265860e+01    1.088197e+00
  2.267448e+01    1.080889e+00
  2.269035e+01    1.072191e+00
  2.270623e+01    1.068888e+00
  2.272210e+01    1.048624e+00
  2.273798e+01    1.067044e+00
  2.275385e+01    1.050080e+00
  2.276973e+01    1.065350e+00
  2.278560e+01    1.051397e+00
  2.280148e+01    1.050947e+00
  2.281736e+01    1.045582e+00
  2.283323e+01    1.046816e+00
  2.284911e+01    1.049760e+00
  2.286498e+01    1.039333e+00
  2.288086e+01    1.029407e+00
  2.289673e+01    1.040567e+00
  2.291261e+01    1.048726e+00
  2.292848e+01    1.042527e+00
  2.294436e+01    1.023921e+00
  2.296024e+01    1.014624e+00
  2.297611e+01    1.014395e+00
  2.299199e+01    1.019062e+00
  2.300786e+01    1.013365e+00
  2.302374e+01    1.009783e+00
  2.303961e+01    1.014099e+00
  2.305549e+01    1.000302e+00
  2.307137e+01    9.975139e-01
  2.308724e+01    1.016819e+00
  2.310312e+01    1.015741e+00
  2.311899e+01    1.018627e+00
  2.313487e+01    1.013646e+00
  2.315074e+01    9.915550e-01
  2.316662e+01    9.866453e-01
  2.318249e+01    9.865842e-01
  2.319837e+01    9.864156e-01
  2.321425e+01    9.818333e-01
  2.323012e+01    9.683759e-01
  2.324600e+01    9.554188e-01
  2.326187e+01    9.650249e-01
  2.327775e+01    9.692817e-01
  2.329362e+01    9.830782e-01
  2.330950e+01    9.809870e-01
  2.332537e+01    9.737255e-01
  2.334125e+01    9.696033e-01
  2.335713e+01    9.556933e-01
  2.337300e+01    9.713713e-01
  2.338888e+01    9.820106e-01
  2.340475e+01    9.738404e-01
  2.342063e+01    9.671052e-01
  2.343650e+01    9.572950e-01
  2.345238e+01    9.719976e-01
  2.346825e+01    9.652689e-01
  2.348413e+01    9.583268e-01
  2.350001e+01    9.689690e-01
  2.351588e+01    9.563897e-01
  2.353176e+01    9.437457e-01
  2.354763e+01    9.572813e-01
  2.356351e+01    9.510773e-01
  2.357938e+01    9.422948e-01
  2.359526e+01    9.336928e-01
  2.361113e+01    9.445225e-01
  2.362701e+01    9.616932e-01
  2.364289e+01    9.649986e-01
  2.365876e+01    9.244344e-01
  2.367464e+01    9.336426e-01
  2.369051e+01    9.493641e-01
  2.370639e+01    9.381432e-01
  2.372226e+01    9.184176e-01
  2.373814e+01    9.046954e-01
  2.375401e+01    9.014103e-01
  2.376989e+01    8.981398e-01
  2.378577e+01    9.097047e-01
  2.380164e+01    8.928254e-01
  2.381752e+01    9.035944e-01
  2.383339e+01    9.092990e-01
  2.384927e+01    9.184467e-01
  2.386514e+01    9.315785e-01
  2.388102e+01    9.163671e-01
  2.389689e+01    9.139445e-01
  2.391277e+01    9.046602e-01
  2.392865e+01    8.910904e-01
  2.394452e+01    9.021506e-01
  2.396040e+01    8.886281e-01
  2.397627e+01    8.844281e-01
  2.399215e+01    9.149731e-01
  2.400802e+01    8.987784e-01
  2.402390e+01    8.923577e-01
  2.403978e+01    8.985571e-01
  2.405565e+01    8.790246e-01
  2.407153e+01    8.747051e-01
  2.408740e+01    8.888645e-01
  2.410328e+01    8.717569e-01
  2.411915e+01    8.661798e-01
  2.413503e+01    8.690311e-01
  2.415090e+01    8.607427e-01
  2.416678e+01    8.632547e-01
  2.418266e+01    8.511882e-01
  2.419853e+01    8.379505e-01
  2.421441e+01    8.619754e-01
  2.423028e+01    8.620884e-01
  2.424616e+01    8.734064e-01
  2.426203e+01    8.892666e-01
  2.427791e+01    8.946988e-01
  2.429378e+01    8.805450e-01
  2.430966e+01    8.893164e-01
  2.432554e+01    8.728807e-01
  2.434141e+01    8.794749e-01
  2.435729e+01    8.797445e-01
  2.437316e+01    8.857499e-01
  2.438904e+01    8.991221e-01
  2.440491e+01    8.697343e-01
  2.442079e+01    8.691813e-01
  2.443666e+01    8.994315e-01
  2.445254e+01    8.910062e-01
  2.446842e+01    8.914899e-01
  2.448429e+01    8.973224e-01
  2.450017e+01    8.852164e-01
  2.451604e+01    8.924233e-01
  2.453192e+01    8.812812e-01
  2.454779e+01    8.876650e-01
  2.456367e+01    8.847521e-01
  2.457954e+01    8.682582e-01
  2.459542e+01    8.584501e-01
  2.461130e+01    8.933083e-01
  2.462717e+01    8.870588e-01
  2.464305e+01    8.630670e-01
  2.465892e+01    8.589236e-01
  2.467480e+01    8.546579e-01
  2.469067e+01    8.864530e-01
  2.470655e+01    8.781909e-01
  2.472242e+01    8.885277e-01
  2.473830e+01    8.913846e-01
  2.475418e+01    8.740695e-01
  2.477005e+01    9.037864e-01
  2.478593e+01    9.068002e-01
  2.480180e+01    8.877695e-01
  2.481768e+01    8.670505e-01
  2.483355e+01    8.820593e-01
  2.484943e+01    8.778294e-01
  2.486530e+01    8.955607e-01
  2.488118e+01    8.763582e-01
  2.489706e+01    8.598946e-01
  2.491293e+01    8.841541e-01
  2.492881e+01    8.824652e-01
  2.494468e+01    8.914491e-01
  2.496056e+01    8.668777e-01
  2.497643e+01    8.680068e-01
  2.499231e+01    8.946177e-01
  2.500819e+01    8.911349e-01
  2.502406e+01    8.823236e-01
  2.503994e+01    8.905705e-01
  2.505581e+01    9.013060e-01
  2.507169e+01    8.892034e-01
  2.508756e+01    8.793328e-01
  2.510344e+01    9.057238e-01
  2.511931e+01    9.129793e-01
  2.513519e+01    8.812747e-01
  2.515107e+01    8.948964e-01
  2.516694e+01    9.193740e-01
  2.518282e+01    9.146087e-01
  2.519869e+01    9.127937e-01
  2.521457e+01    9.312526e-01
  2.523044e+01    9.420334e-01
  2.524632e+01    9.154235e-01
  2.526219e+01    9.085761e-01
  2.527807e+01    9.321410e-01
  2.529395e+01    9.327080e-01
  2.530982e+01    9.405221e-01
  2.532570e+01    9.523226e-01
  2.534157e+01    9.551684e-01
  2.535745e+01    9.690130e-01
  2.537332e+01    9.650619e-01
  2.538920e+01    9.853824e-01
  2.540507e+01    9.828972e-01
  2.542095e+01    9.799890e-01
  2.543683e+01    9.989345e-01
  2.545270e+01    9.949366e-01
  2.546858e+01    1.005045e+00
  2.548445e+01    1.025953e+00
  2.550033e+01    1.044582e+00
  2.551620e+01    1.062707e+00
  2.553208e+01    1.085998e+00
  2.554795e+01    1.093951e+00
  2.556383e+01    1.120757e+00
  2.557971e+01    1.151021e+00
  2.559558e+01    1.171035e+00
  2.561146e+01    1.232013e+00
  2.562733e+01    1.249922e+00
  2.564321e+01    1.304283e+00
  2.565908e+01    1.330471e+00
  2.567496e+01    1.391410e+00
  2.569083e+01    1.449044e+00
  2.570671e+01    1.560663e+00
  2.572259e+01    1.660276e+00
  2.573846e+01    1.811309e+00
  2.575434e+01    1.990051e+00
  2.577021e+01    2.178960e+00
  2.578609e+01    2.467425e+00
  2.580196e+01    2.770783e+00
  2.581784e+01    3.153257e+00
  2.583371e+01    3.632131e+00
  2.584959e+01    4.110851e+00
  2.586547e+01    4.642405e+00
  2.588134e+01    5.221572e+00
  2.589722e+01    5.740333e+00
  2.591309e+01    6.255593e+00
  2.592897e+01    6.680274e+00
  2.594484e+01    6.959885e+00
  2.596072e+01    7.030835e+00
  2.597660e+01    6.858691e+00
  2.599247e+01    6.485193e+00
  2.600835e+01    5.882675e+00
  2.602422e+01    5.230412e+00
  2.604010e+01    4.566827e+00
  2.605597e+01    3.937551e+00
  2.607185e+01    3.393940e+00
  2.608772e+01    2.982175e+00
  2.610360e+01    2.614683e+00
  2.611948e+01    2.344936e+00
  2.613535e+01    2.091882e+00
  2.615123e+01    1.911918e+00
  2.616710e+01    1.763916e+00
  2.618298e+01    1.638371e+00
  2.619885e+01    1.540777e+00
  2.621473e+01    1.466838e+00
  2.623060e+01    1.404214e+00
  2.624648e+01    1.345311e+00
  2.626236e+01    1.286704e+00
  2.627823e+01    1.238217e+00
  2.629411e+01    1.214878e+00
  2.630998e+01    1.163275e+00
  2.632586e+01    1.130482e+00
  2.634173e+01    1.103341e+00
  2.635761e+01    1.089434e+00
  2.637348e+01    1.061859e+00
  2.638936e+01    1.052115e+00
  2.640524e+01    1.027879e+00
  2.642111e+01    1.020308e+00
  2.643699e+01    1.023270e+00
  2.645286e+01    1.022782e+00
  2.646874e+01    1.000626e+00
  2.648461e+01    1.010489e+00
  2.650049e+01    9.956031e-01
  2.651636e+01    9.819409e-01
  2.653224e+01    9.870036e-01
  2.654812e+01    9.909987e-01
  2.656399e+01    9.808392e-01
  2.657987e+01    9.836685e-01
  2.659574e+01    9.834846e-01
  2.661162e+01    9.703160e-01
  2.662749e+01    9.633895e-01
  2.664337e+01    9.548330e-01
  2.665924e+01    9.657022e-01
  2.667512e+01    9.494889e-01
  2.669100e+01    9.320886e-01
  2.670687e+01    9.382349e-01
  2.672275e+01    9.365488e-01
  2.673862e+01    9.467771e-01
  2.675450e+01    9.655964e-01
  2.677037e+01    9.594367e-01
  2.678625e+01    9.729565e-01
  2.680212e+01    9.510563e-01
  2.681800e+01    9.559177e-01
  2.683388e+01    9.345908e-01
  2.684975e+01    9.532166e-01
  2.686563e+01    9.648993e-01
  2.688150e+01    9.984047e-01
  2.689738e+01    9.962794e-01
  2.691325e+01    9.899132e-01
  2.692913e+01    1.005674e+00
  2.694501e+01    1.036026e+00
  2.696088e+01    1.033994e+00
  2.697676e+01    1.040342e+00
  2.699263e+01    1.076803e+00
  2.700851e+01    1.114859e+00
  2.702438e+01    1.146898e+00
  2.704026e+01    1.171258e+00
  2.705613e+01    1.235875e+00
  2.707201e+01    1.306791e+00
  2.708789e+01    1.366253e+00
  2.710376e+01    1.481881e+00
  2.711964e+01    1.595008e+00
  2.713551e+01    1.681419e+00
  2.715139e+01    1.842509e+00
  2.716726e+01    1.938333e+00
  2.718314e+01    2.055997e+00
  2.719901e+01    2.108104e+00
  2.721489e+01    2.119394e+00
  2.723077e+01    2.129251e+00
  2.724664e+01    2.073150e+00
  2.726252e+01    1.954158e+00
  2.727839e+01    1.812093e+00
  2.729427e+01    1.661720e+00
  2.731014e+01    1.561813e+00
  2.732602e+01    1.471343e+00
  2.734189e+01    1.356813e+00
  2.735777e+01    1.263846e+00
  2.737365e+01    1.199388e+00
  2.738952e+01    1.163534e+00
  2.740540e+01    1.120844e+00
  2.742127e+01    1.070015e+00
  2.743715e+01    1.037209e+00
  2.745302e+01    1.023223e+00
  2.746890e+01    1.018008e+00
  2.748477e+01    1.012921e+00
  2.750065e+01    9.627779e-01
  2.751653e+01    9.534672e-01
  2.753240e+01    9.458315e-01
  2.754828e+01    9.547237e-01
  2.756415e+01    9.432417e-01
  2.758003e+01    9.286939e-01
  2.759590e+01    9.422680e-01
  2.761178e+01    9.325104e-01
  2.762765e+01    9.303741e-01
  2.764353e+01    9.028217e-01
  2.765941e+01    9.071228e-01
  2.767528e+01    8.806059e-01
  2.769116e+01    8.959209e-01
  2.770703e+01    8.931057e-01
  2.772291e+01    8.725093e-01
  2.773878e+01    8.662388e-01
  2.775466e+01    8.872024e-01
  2.777054e+01    8.778538e-01
  2.778641e+01    8.832733e-01
  2.780229e+01    8.823928e-01
  2.781816e+01    9.064653e-01
  2.783404e+01    8.758770e-01
  2.784991e+01    8.715312e-01
  2.786579e+01    8.682542e-01
  2.788166e+01    8.570686e-01
  2.789754e+01    8.690782e-01
  2.791342e+01    8.787048e-01
  2.792929e+01    8.574244e-01
  2.794517e+01    8.635607e-01
  2.796104e+01    8.615769e-01
  2.797692e+01    8.804854e-01
  2.799279e+01    8.631487e-01
  2.800867e+01    8.736713e-01
  2.802454e+01    8.539842e-01
  2.804042e+01    8.527275e-01
  2.805630e+01    8.600523e-01
  2.807217e+01    8.538007e-01
  2.808805e+01    8.568792e-01
  2.810392e+01    8.438544e-01
  2.811980e+01    8.302617e-01
  2.813567e+01    8.715356e-01
  2.815155e+01    8.605754e-01
  2.816742e+01    8.471147e-01
  2.818330e+01    8.395106e-01
  2.819918e+01    8.562948e-01
  2.821505e+01    8.583800e-01
  2.823093e+01    8.431563e-01
  2.824680e+01    8.413584e-01
  2.826268e+01    8.649000e-01
  2.827855e+01    8.437023e-01
  2.829443e+01    8.255784e-01
  2.831030e+01    8.256475e-01
  2.832618e+01    8.288353e-01
  2.834206e+01    8.222535e-01
  2.835793e+01    8.320730e-01
  2.837381e+01    8.537263e-01
  2.838968e+01    8.431556e-01
  2.840556e+01    8.231434e-01
  2.842143e+01    8.317300e-01
  2.843731e+01    8.197745e-01
  2.845318e+01    8.103472e-01
  2.846906e+01    8.279877e-01
  2.848494e+01    8.312115e-01
  2.850081e+01    8.270197e-01
  2.851669e+01    8.188010e-01
  2.853256e+01    8.213316e-01
  2.854844e+01    8.351592e-01
  2.856431e+01    8.253938e-01
  2.858019e+01    8.293427e-01
  2.859606e+01    8.380793e-01
  2.861194e+01    8.258259e-01
  2.862782e+01    8.224938e-01
  2.864369e+01    8.171254e-01
  2.865957e+01    8.292598e-01
  2.867544e+01    8.363487e-01
  2.869132e+01    8.354216e-01
  2.870719e+01    8.486415e-01
  2.872307e+01    8.282570e-01
  2.873895e+01    8.124470e-01
  2.875482e+01    8.069482e-01
  2.877070e+01    8.152159e-01
  2.878657e+01    8.191826e-01
  2.880245e+01    8.141698e-01
  2.881832e+01    7.868963e-01
  2.883420e+01    8.239856e-01
  2.885007e+01    8.254673e-01
  2.886595e+01    8.182533e-01
  2.888183e+01    8.232767e-01
  2.889770e+01    8.345661e-01
  2.891358e+01    8.258883e-01
  2.892945e+01    8.336669e-01
  2.894533e+01    8.177826e-01
  2.896120e+01    8.337423e-01
  2.897708e+01    8.307213e-01
  2.899295e+01    8.096582e-01
  2.900883e+01    8.320643e-01
  2.902471e+01    8.133351e-01
  2.904058e+01    7.954419e-01
  2.905646e+01    8.049976e-01
  2.907233e+01    7.950138e-01
  2.908821e+01    7.952123e-01
  2.910408e+01    8.173452e-01
  2.911996e+01    8.011209e-01
  2.913583e+01    8.111094e-01
  2.915171e+01    8.017663e-01
  2.916759e+01    7.848867e-01
  2.918346e+01    7.950504e-01
  2.919934e+01    7.979611e-01
  2.921521e+01    8.033001e-01
  2.923109e+01    8.151591e-01
  2.924696e+01    7.862480e-01
  2.926284e+01    7.774699e-01
  2.927871e+01    7.943376e-01
  2.929459e+01    7.923710e-01
  2.931047e+01    7.939878e-01
  2.932634e+01    8.055860e-01
  2.934222e+01    8.116980e-01
  2.935809e+01    8.063837e-01
  2.937397e+01    8.009812e-01
  2.938984e+01    7.839887e-01
  2.940572e+01    7.926226e-01
  2.942159e+01    7.882560e-01
  2.943747e+01    7.602153e-01
  2.945335e+01    7.928573e-01
  2.946922e+01    7.775867e-01
  2.948510e+01    7.927039e-01
  2.950097e+01    7.950351e-01
  2.951685e+01    8.032231e-01
  2.953272e+01    8.026204e-01
  2.954860e+01    7.929584e-01
  2.956447e+01    7.932367e-01
  2.958035e+01    7.970973e-01
  2.959623e+01    7.965066e-01
  2.961210e+01    7.883097e-01
  2.962798e+01    8.108775e-01
  2.964385e+01    7.889161e-01
  2.965973e+01    8.044009e-01
  2.967560e+01    8.050666e-01
  2.969148e+01    7.840722e-01
  2.970736e+01    7.746184e-01
  2.972323e+01    7.958795e-01
  2.973911e+01    7.908857e-01
  2.975498e+01    8.024798e-01
  2.977086e+01    8.007796e-01
  2.978673e+01    7.931049e-01
  2.980261e+01    7.891494e-01
  2.981848e+01    7.698612e-01
  2.983436e+01    8.075783e-01
  2.985024e+01    7.982643e-01
  2.986611e+01    7.657989e-01
  2.988199e+01    7.701592e-01
  2.989786e+01    7.849374e-01
  2.991374e+01    7.840901e-01
  2.992961e+01    7.766343e-01
  2.994549e+01    7.854112e-01
  2.996136e+01    7.973039e-01
  2.997724e+01    7.908931e-01
  2.999312e+01    7.760518e-01
  3.000899e+01    7.935336e-01
  3.002487e+01    7.902395e-01
  3.004074e+01    7.903607e-01
  3.005662e+01    8.128763e-01
  3.007249e+01    7.936059e-01
  3.008837e+01    7.957738e-01
  3.010424e+01    8.038227e-01
  3.012012e+01    7.898977e-01
  3.013600e+01    7.995577e-01
  3.015187e+01    7.800860e-01
  3.016775e+01    7.767193e-01
  3.018362e+01    7.612146e-01
  3.019950e+01    7.528968e-01
  3.021537e+01    7.730061e-01
  3.023125e+01    7.834668e-01
  3.024712e+01    7.944978e-01
  3.026300e+01    7.828596e-01
  3.027888e+01    7.644336e-01
  3.029475e+01    7.939586e-01
  3.031063e+01    7.883894e-01
  3.032650e+01    7.761397e-01
  3.034238e+01    7.740357e-01
  3.035825e+01    7.817478e-01
  3.037413e+01    7.737619e-01
  3.039000e+01    7.644885e-01
  3.040588e+01    7.727094e-01
  3.042176e+01    7.675006e-01
  3.043763e+01    7.817474e-01
  3.045351e+01    7.811376e-01
  3.046938e+01    7.815638e-01
  3.048526e+01    7.778664e-01
  3.050113e+01    7.538859e-01
  3.051701e+01    7.816521e-01
  3.053288e+01    7.960326e-01
  3.054876e+01    7.823617e-01
  3.056464e+01    7.957865e-01
  3.058051e+01    7.746678e-01
  3.059639e+01    7.759373e-01
  3.061226e+01    7.912148e-01
  3.062814e+01    7.843848e-01
  3.064401e+01    7.619528e-01
  3.065989e+01    7.716942e-01
  3.067577e+01    8.061829e-01
  3.069164e+01    7.861542e-01
  3.070752e+01    7.845088e-01
  3.072339e+01    7.751999e-01
  3.073927e+01    7.734436e-01
  3.075514e+01    7.448252e-01
  3.077102e+01    7.704914e-01
  3.078689e+01    7.665560e-01
  3.080277e+01    7.685099e-01
  3.081865e+01    7.731751e-01
  3.083452e+01    7.653289e-01
  3.085040e+01    7.927794e-01
  3.086627e+01    7.729815e-01
  3.088215e+01    7.747725e-01
  3.089802e+01    7.688560e-01
  3.091390e+01    7.592531e-01
  3.092977e+01    7.575567e-01
  3.094565e+01    7.527877e-01
  3.096153e+01    7.912948e-01
  3.097740e+01    7.879553e-01
  3.099328e+01    7.616850e-01
  3.100915e+01    7.447039e-01
  3.102503e+01    7.650065e-01
  3.104090e+01    7.788605e-01
  3.105678e+01    7.807986e-01
  3.107265e+01    7.652030e-01
  3.108853e+01    7.596878e-01
  3.110441e+01    7.693305e-01
  3.112028e+01    7.608470e-01
  3.113616e+01    7.729505e-01
  3.115203e+01    8.019487e-01
  3.116791e+01    7.935722e-01
  3.118378e+01    7.995144e-01
  3.119966e+01    7.810416e-01
  3.121553e+01    7.839695e-01
  3.123141e+01    7.869931e-01
  3.124729e+01    7.701203e-01
  3.126316e+01    7.844905e-01
  3.127904e+01    7.787548e-01
  3.129491e+01    7.898374e-01
  3.131079e+01    8.069609e-01
  3.132666e+01    8.055335e-01
  3.134254e+01    8.013601e-01
  3.135841e+01    8.188924e-01
  3.137429e+01    8.000560e-01
  3.139017e+01    7.932787e-01
  3.140604e+01    7.950656e-01
  3.142192e+01    7.749125e-01
  3.143779e+01    7.930711e-01
  3.145367e+01    8.072033e-01
  3.146954e+01    8.272971e-01
  3.148542e+01    8.212599e-01
  3.150129e+01    8.197752e-01
  3.151717e+01    8.213272e-01
  3.153305e+01    8.172851e-01
  3.154892e+01    8.284861e-01
  3.156480e+01    8.423008e-01
  3.158067e+01    8.707088e-01
  3.159655e+01    8.839710e-01
  3.161242e+01    8.652529e-01
  3.162830e+01    8.636783e-01
  3.164418e+01    9.076864e-01
  3.166005e+01    9.026685e-01
  3.167593e+01    9.379336e-01
  3.169180e+01    9.482574e-01
  3.170768e+01    9.977614e-01
  3.172355e+01    1.053879e+00
  3.173943e+01    1.121964e+00
  3.175530e+01    1.175596e+00
  3.177118e+01    1.239252e+00
  3.178706e+01    1.336098e+00
  3.180293e+01    1.461258e+00
  3.181881e+01    1.555007e+00
  3.183468e+01    1.704619e+00
  3.185056e+01    1.846407e+00
  3.186643e+01    1.955241e+00
  3.188231e+01    2.045200e+00
  3.189818e+01    2.028826e+00
  3.191406e+01    2.003557e+00
  3.192994e+01    2.017846e+00
  3.194581e+01    1.935556e+00
  3.196169e+01    1.806969e+00
  3.197756e+01    1.668110e+00
  3.199344e+01    1.531971e+00
  3.200931e+01    1.439236e+00
  3.202519e+01    1.321900e+00
  3.204106e+01    1.243034e+00
  3.205694e+01    1.160447e+00
  3.207282e+01    1.087726e+00
  3.208869e+01    1.008773e+00
  3.210457e+01    9.798099e-01
  3.212044e+01    9.661385e-01
  3.213632e+01    9.002757e-01
  3.215219e+01    8.851491e-01
  3.216807e+01    9.006041e-01
  3.218394e+01    8.552167e-01
  3.219982e+01    8.443353e-01
  3.221570e+01    8.330230e-01
  3.223157e+01    8.167249e-01
  3.224745e+01    8.189691e-01
  3.226332e+01    8.348126e-01
  3.227920e+01    8.354120e-01
  3.229507e+01    7.974523e-01
  3.231095e+01    8.098507e-01
  3.232682e+01    7.881466e-01
  3.234270e+01    7.884472e-01
  3.235858e+01    7.765176e-01
  3.237445e+01    7.853383e-01
  3.239033e+01    7.821016e-01
  3.240620e+01    7.667717e-01
  3.242208e+01    7.849439e-01
  3.243795e+01    7.934420e-01
  3.245383e+01    7.938023e-01
  3.246970e+01    7.513939e-01
  3.248558e+01    7.693623e-01
  3.250146e+01    7.582206e-01
  3.251733e+01    7.769358e-01
  3.253321e+01    7.820675e-01
  3.254908e+01    7.730933e-01
