# == pyFAI calibration ==
# Distance Sample to Detector: 0.3999999939076516 m
# PONI: 9.750e-02, 1.135e-01 m
# Rotations: -0.000175 0.000000 -0.000000 rad
# 
# == Fit2d calibration ==
# Distance Sample-beamCenter: 400.000 mm
# Center: x=1514.000, y=1300.000 pix
# Tilt: 0.010 deg  TiltPlanRot: 0.010 deg
# 
# Detector Detector	 Spline= None	 PixelSize= 7.500e-05, 7.500e-05 m
#    Detector has a mask: False 
#    Detector has a dark current: False 
#    detector has a flat field: False 
# 
# Wavelength: 6.888e-11 m
# Mask applied: user provided
# Dark current applied: False
# Flat field applied: False
# Polarization factor: 0.99
# Normalization factor: 1.0
# --> /home/myspot/data/2024_07_Rosario/Ru-CGO-ex/2024-07-27_003_Ru-CGO-ex_Reaction_dwell_000023_data_000184.dat
#       q_nm^-1             I 
  2.003187e-02    0.000000e+00
  3.590745e-02    0.000000e+00
  5.178302e-02    2.671360e-02
  6.765859e-02    5.596884e-02
  8.353417e-02    2.592442e-03
  9.940974e-02    1.002923e-01
  1.152853e-01    5.893251e-02
  1.311609e-01    6.323750e-03
  1.470365e-01    3.293488e-02
  1.629120e-01    4.755363e-02
  1.787876e-01    9.601318e-02
  1.946632e-01    4.874054e-02
  2.105388e-01    4.838620e-02
  2.264143e-01    2.776881e-02
  2.422899e-01    4.647994e-02
  2.581655e-01    4.035499e-02
  2.740411e-01    4.545454e-02
  2.899166e-01    4.832260e-02
  3.057922e-01    7.533058e-02
  3.216678e-01    5.289179e-02
  3.375433e-01    1.863575e-02
  3.534189e-01    4.602027e-02
  3.692945e-01    5.207658e-02
  3.851701e-01    4.443192e-02
  4.010456e-01    3.024675e-02
  4.169212e-01    3.884189e-02
  4.327968e-01    2.882937e-02
  4.486724e-01    1.800648e-02
  4.645479e-01    3.650566e-02
  4.804235e-01    3.815672e-02
  4.962991e-01    2.006069e-02
  5.121747e-01    3.114527e-02
  5.280502e-01    3.606227e-02
  5.439258e-01    3.417580e-02
  5.598014e-01    2.481732e-02
  5.756770e-01    2.571194e-02
  5.915525e-01    3.376871e-02
  6.074281e-01    4.610171e-02
  6.233037e-01    3.777603e-02
  6.391793e-01    3.248395e-02
  6.550548e-01    3.605295e-02
  6.709304e-01    5.228667e-02
  6.868060e-01    3.561966e-02
  7.026815e-01    2.085484e-02
  7.185571e-01    3.179117e-02
  7.344327e-01    2.528413e-02
  7.503083e-01    1.414323e-02
  7.661838e-01    6.300478e-02
  7.820594e-01    1.216161e-01
  7.979350e-01    1.580586e-01
  8.138106e-01    2.338301e-01
  8.296861e-01    3.151432e-01
  8.455617e-01    3.841097e-01
  8.614373e-01    4.983113e-01
  8.773129e-01    5.682710e-01
  8.931884e-01    6.137785e-01
  9.090640e-01    6.976254e-01
  9.249396e-01    8.388537e-01
  9.408152e-01    9.144769e-01
  9.566907e-01    9.220457e-01
  9.725663e-01    9.759999e-01
  9.884419e-01    1.208395e+00
  1.004317e+00    1.284460e+00
  1.020193e+00    1.347908e+00
  1.036069e+00    1.397344e+00
  1.051944e+00    1.468396e+00
  1.067820e+00    1.387962e+00
  1.083695e+00    1.520469e+00
  1.099571e+00    1.634694e+00
  1.115446e+00    1.582568e+00
  1.131322e+00    1.394088e+00
  1.147198e+00    1.541337e+00
  1.163073e+00    1.566448e+00
  1.178949e+00    1.555823e+00
  1.194824e+00    1.661279e+00
  1.210700e+00    2.052492e+00
  1.226575e+00    2.123949e+00
  1.242451e+00    2.392722e+00
  1.258327e+00    2.535485e+00
  1.274202e+00    2.591800e+00
  1.290078e+00    2.675246e+00
  1.305953e+00    2.720465e+00
  1.321829e+00    2.751245e+00
  1.337705e+00    2.794241e+00
  1.353580e+00    2.835362e+00
  1.369456e+00    2.680098e+00
  1.385331e+00    2.728418e+00
  1.401207e+00    2.789045e+00
  1.417082e+00    2.873464e+00
  1.432958e+00    2.922754e+00
  1.448834e+00    2.887975e+00
  1.464709e+00    3.194133e+00
  1.480585e+00    3.132698e+00
  1.496460e+00    3.091159e+00
  1.512336e+00    3.114699e+00
  1.528211e+00    3.075858e+00
  1.544087e+00    3.310555e+00
  1.559963e+00    3.345901e+00
  1.575838e+00    3.109670e+00
  1.591714e+00    3.200014e+00
  1.607589e+00    3.361892e+00
  1.623465e+00    3.247194e+00
  1.639340e+00    3.099512e+00
  1.655216e+00    3.144125e+00
  1.671092e+00    2.841939e+00
  1.686967e+00    3.016108e+00
  1.702843e+00    3.100857e+00
  1.718718e+00    3.123756e+00
  1.734594e+00    2.968295e+00
  1.750469e+00    2.945236e+00
  1.766345e+00    3.040024e+00
  1.782221e+00    2.986734e+00
  1.798096e+00    3.013426e+00
  1.813972e+00    3.013415e+00
  1.829847e+00    3.047650e+00
  1.845723e+00    3.032277e+00
  1.861598e+00    3.132211e+00
  1.877474e+00    3.101607e+00
  1.893350e+00    3.057782e+00
  1.909225e+00    2.978696e+00
  1.925101e+00    3.067385e+00
  1.940976e+00    3.039657e+00
  1.956852e+00    3.260781e+00
  1.972727e+00    3.114515e+00
  1.988603e+00    2.971206e+00
  2.004479e+00    3.089989e+00
  2.020354e+00    3.119776e+00
  2.036230e+00    3.051974e+00
  2.052105e+00    3.009973e+00
  2.067981e+00    2.960111e+00
  2.083856e+00    3.119085e+00
  2.099732e+00    3.047588e+00
  2.115608e+00    3.025248e+00
  2.131483e+00    3.024463e+00
  2.147359e+00    3.113204e+00
  2.163234e+00    3.086083e+00
  2.179110e+00    3.031685e+00
  2.194985e+00    3.149383e+00
  2.210861e+00    3.090951e+00
  2.226737e+00    3.057062e+00
  2.242612e+00    3.063957e+00
  2.258488e+00    3.106676e+00
  2.274363e+00    3.217828e+00
  2.290239e+00    3.112878e+00
  2.306115e+00    3.171541e+00
  2.321990e+00    3.113963e+00
  2.337866e+00    3.087736e+00
  2.353741e+00    2.975580e+00
  2.369617e+00    3.008196e+00
  2.385492e+00    3.175844e+00
  2.401368e+00    3.148559e+00
  2.417244e+00    3.107588e+00
  2.433119e+00    3.076820e+00
  2.448995e+00    3.137450e+00
  2.464870e+00    3.253577e+00
  2.480746e+00    3.215197e+00
  2.496621e+00    3.230480e+00
  2.512497e+00    3.139301e+00
  2.528373e+00    3.100180e+00
  2.544248e+00    3.112273e+00
  2.560124e+00    3.075865e+00
  2.575999e+00    2.913045e+00
  2.591875e+00    3.005818e+00
  2.607750e+00    3.194438e+00
  2.623626e+00    3.125362e+00
  2.639502e+00    3.145733e+00
  2.655377e+00    3.178990e+00
  2.671253e+00    3.067005e+00
  2.687128e+00    3.157808e+00
  2.703004e+00    3.283844e+00
  2.718879e+00    3.159117e+00
  2.734755e+00    3.161938e+00
  2.750631e+00    3.261315e+00
  2.766506e+00    3.280277e+00
  2.782382e+00    3.233366e+00
  2.798257e+00    3.258650e+00
  2.814133e+00    3.367729e+00
  2.830008e+00    3.306582e+00
  2.845884e+00    3.235073e+00
  2.861760e+00    3.241633e+00
  2.877635e+00    3.220500e+00
  2.893511e+00    3.199478e+00
  2.909386e+00    3.328460e+00
  2.925262e+00    3.242829e+00
  2.941137e+00    3.199970e+00
  2.957013e+00    3.268177e+00
  2.972889e+00    3.327020e+00
  2.988764e+00    3.339213e+00
  3.004640e+00    3.314848e+00
  3.020515e+00    3.297745e+00
  3.036391e+00    3.375388e+00
  3.052266e+00    3.335526e+00
  3.068142e+00    3.218219e+00
  3.084018e+00    3.271438e+00
  3.099893e+00    3.240831e+00
  3.115769e+00    3.310107e+00
  3.131644e+00    3.341544e+00
  3.147520e+00    3.257836e+00
  3.163395e+00    3.212287e+00
  3.179271e+00    3.219155e+00
  3.195147e+00    3.266065e+00
  3.211022e+00    3.376316e+00
  3.226898e+00    3.308509e+00
  3.242773e+00    3.402621e+00
  3.258649e+00    3.367583e+00
  3.274525e+00    3.376033e+00
  3.290400e+00    3.318700e+00
  3.306276e+00    3.382125e+00
  3.322151e+00    3.412787e+00
  3.338027e+00    3.396422e+00
  3.353902e+00    3.427467e+00
  3.369778e+00    3.361078e+00
  3.385654e+00    3.380065e+00
  3.401529e+00    3.414848e+00
  3.417405e+00    3.426561e+00
  3.433280e+00    3.423928e+00
  3.449156e+00    3.473224e+00
  3.465031e+00    3.429226e+00
  3.480907e+00    3.286282e+00
  3.496783e+00    3.294448e+00
  3.512658e+00    3.383523e+00
  3.528534e+00    3.377922e+00
  3.544409e+00    3.403992e+00
  3.560285e+00    3.440365e+00
  3.576160e+00    3.454582e+00
  3.592036e+00    3.390193e+00
  3.607912e+00    3.360313e+00
  3.623787e+00    3.382866e+00
  3.639663e+00    3.377565e+00
  3.655538e+00    3.386309e+00
  3.671414e+00    3.489195e+00
  3.687289e+00    3.413246e+00
  3.703165e+00    3.461685e+00
  3.719041e+00    3.523382e+00
  3.734916e+00    3.499854e+00
  3.750792e+00    3.457668e+00
  3.766667e+00    3.297854e+00
  3.782543e+00    3.413526e+00
  3.798418e+00    3.466808e+00
  3.814294e+00    3.481044e+00
  3.830170e+00    3.436817e+00
  3.846045e+00    3.411590e+00
  3.861921e+00    3.442936e+00
  3.877796e+00    3.433457e+00
  3.893672e+00    3.460697e+00
  3.909547e+00    3.406521e+00
  3.925423e+00    3.433084e+00
  3.941299e+00    3.460734e+00
  3.957174e+00    3.406839e+00
  3.973050e+00    3.459919e+00
  3.988925e+00    3.457501e+00
  4.004801e+00    3.437395e+00
  4.020676e+00    3.519584e+00
  4.036552e+00    3.532589e+00
  4.052428e+00    3.518317e+00
  4.068303e+00    3.411871e+00
  4.084179e+00    3.432552e+00
  4.100054e+00    3.544503e+00
  4.115930e+00    3.531968e+00
  4.131806e+00    3.453065e+00
  4.147681e+00    3.533439e+00
  4.163557e+00    3.549174e+00
  4.179432e+00    3.640815e+00
  4.195308e+00    3.539294e+00
  4.211183e+00    3.475462e+00
  4.227059e+00    3.491633e+00
  4.242935e+00    3.490114e+00
  4.258810e+00    3.534422e+00
  4.274686e+00    3.543115e+00
  4.290561e+00    3.475860e+00
  4.306437e+00    3.488492e+00
  4.322312e+00    3.492498e+00
  4.338188e+00    3.491902e+00
  4.354064e+00    3.586678e+00
  4.369939e+00    3.607687e+00
  4.385815e+00    3.561630e+00
  4.401690e+00    3.558262e+00
  4.417566e+00    3.622768e+00
  4.433441e+00    3.526251e+00
  4.449317e+00    3.472276e+00
  4.465193e+00    3.457463e+00
  4.481068e+00    3.504610e+00
  4.496944e+00    3.579350e+00
  4.512819e+00    3.565075e+00
  4.528695e+00    3.567745e+00
  4.544570e+00    3.542757e+00
  4.560446e+00    3.484652e+00
  4.576322e+00    3.530498e+00
  4.592197e+00    3.611020e+00
  4.608073e+00    3.602212e+00
  4.623948e+00    3.595051e+00
  4.639824e+00    3.550197e+00
  4.655699e+00    3.548090e+00
  4.671575e+00    3.544500e+00
  4.687451e+00    3.611445e+00
  4.703326e+00    3.537932e+00
  4.719202e+00    3.571613e+00
  4.735077e+00    3.610328e+00
  4.750953e+00    3.622827e+00
  4.766828e+00    3.593291e+00
  4.782704e+00    3.630222e+00
  4.798580e+00    3.564529e+00
  4.814455e+00    3.673549e+00
  4.830331e+00    3.657270e+00
  4.846206e+00    3.563304e+00
  4.862082e+00    3.644784e+00
  4.877957e+00    3.598903e+00
  4.893833e+00    3.552796e+00
  4.909709e+00    3.600887e+00
  4.925584e+00    3.575677e+00
  4.941460e+00    3.606566e+00
  4.957335e+00    3.630133e+00
  4.973211e+00    3.557914e+00
  4.989086e+00    3.629058e+00
  5.004962e+00    3.638458e+00
  5.020838e+00    3.621252e+00
  5.036713e+00    3.570601e+00
  5.052589e+00    3.629450e+00
  5.068464e+00    3.556158e+00
  5.084340e+00    3.547170e+00
  5.100216e+00    3.613451e+00
  5.116091e+00    3.674746e+00
  5.131967e+00    3.683248e+00
  5.147842e+00    3.622950e+00
  5.163718e+00    3.657171e+00
  5.179593e+00    3.641243e+00
  5.195469e+00    3.598693e+00
  5.211345e+00    3.583952e+00
  5.227220e+00    3.639432e+00
  5.243096e+00    3.646511e+00
  5.258971e+00    3.648904e+00
  5.274847e+00    3.496699e+00
  5.290722e+00    3.611512e+00
  5.306598e+00    3.615464e+00
  5.322474e+00    3.569153e+00
  5.338349e+00    3.645095e+00
  5.354225e+00    3.724537e+00
  5.370100e+00    3.631066e+00
  5.385976e+00    3.649292e+00
  5.401851e+00    3.606387e+00
  5.417727e+00    3.593465e+00
  5.433603e+00    3.579189e+00
  5.449478e+00    3.581673e+00
  5.465354e+00    3.588222e+00
  5.481229e+00    3.551337e+00
  5.497105e+00    3.558527e+00
  5.512980e+00    3.568941e+00
  5.528856e+00    3.551924e+00
  5.544732e+00    3.605925e+00
  5.560607e+00    3.688933e+00
  5.576483e+00    3.674239e+00
  5.592358e+00    3.564970e+00
  5.608234e+00    3.488065e+00
  5.624109e+00    3.480550e+00
  5.639985e+00    3.486679e+00
  5.655861e+00    3.480423e+00
  5.671736e+00    3.487724e+00
  5.687612e+00    3.520101e+00
  5.703487e+00    3.496000e+00
  5.719363e+00    3.537961e+00
  5.735238e+00    3.624575e+00
  5.751114e+00    3.643531e+00
  5.766990e+00    3.556319e+00
  5.782865e+00    3.536139e+00
  5.798741e+00    3.565092e+00
  5.814616e+00    3.543697e+00
  5.830492e+00    3.523649e+00
  5.846367e+00    3.545645e+00
  5.862243e+00    3.597595e+00
  5.878119e+00    3.614368e+00
  5.893994e+00    3.550784e+00
  5.909870e+00    3.527408e+00
  5.925745e+00    3.499451e+00
  5.941621e+00    3.547697e+00
  5.957497e+00    3.559315e+00
  5.973372e+00    3.444886e+00
  5.989248e+00    3.456965e+00
  6.005123e+00    3.503572e+00
  6.020999e+00    3.395582e+00
  6.036874e+00    3.470575e+00
  6.052750e+00    3.525614e+00
  6.068626e+00    3.548236e+00
  6.084501e+00    3.426567e+00
  6.100377e+00    3.448035e+00
  6.116252e+00    3.553761e+00
  6.132128e+00    3.550860e+00
  6.148003e+00    3.513728e+00
  6.163879e+00    3.423376e+00
  6.179755e+00    3.389518e+00
  6.195630e+00    3.525241e+00
  6.211506e+00    3.526869e+00
  6.227381e+00    3.595375e+00
  6.243257e+00    3.555174e+00
  6.259132e+00    3.480359e+00
  6.275008e+00    3.482123e+00
  6.290884e+00    3.483826e+00
  6.306759e+00    3.487120e+00
  6.322635e+00    3.503661e+00
  6.338510e+00    3.510766e+00
  6.354386e+00    3.460586e+00
  6.370261e+00    3.451024e+00
  6.386137e+00    3.482400e+00
  6.402013e+00    3.489839e+00
  6.417888e+00    3.501033e+00
  6.433764e+00    3.467610e+00
  6.449639e+00    3.477857e+00
  6.465515e+00    3.596319e+00
  6.481390e+00    3.590161e+00
  6.497266e+00    3.515813e+00
  6.513142e+00    3.510388e+00
  6.529017e+00    3.537111e+00
  6.544893e+00    3.557693e+00
  6.560768e+00    3.570062e+00
  6.576644e+00    3.538280e+00
  6.592519e+00    3.474622e+00
  6.608395e+00    3.449123e+00
  6.624271e+00    3.494076e+00
  6.640146e+00    3.471735e+00
  6.656022e+00    3.515033e+00
  6.671897e+00    3.511467e+00
  6.687773e+00    3.499607e+00
  6.703648e+00    3.552662e+00
  6.719524e+00    3.484287e+00
  6.735400e+00    3.460637e+00
  6.751275e+00    3.489120e+00
  6.767151e+00    3.554874e+00
  6.783026e+00    3.458185e+00
  6.798902e+00    3.491776e+00
  6.814777e+00    3.510387e+00
  6.830653e+00    3.506704e+00
  6.846529e+00    3.496295e+00
  6.862404e+00    3.531688e+00
  6.878280e+00    3.513323e+00
  6.894155e+00    3.527305e+00
  6.910031e+00    3.524246e+00
  6.925907e+00    3.446299e+00
  6.941782e+00    3.469714e+00
  6.957658e+00    3.492600e+00
  6.973533e+00    3.515511e+00
  6.989409e+00    3.472528e+00
  7.005284e+00    3.514716e+00
  7.021160e+00    3.599061e+00
  7.037036e+00    3.531969e+00
  7.052911e+00    3.556155e+00
  7.068787e+00    3.432580e+00
  7.084662e+00    3.481752e+00
  7.100538e+00    3.489924e+00
  7.116413e+00    3.474895e+00
  7.132289e+00    3.435521e+00
  7.148165e+00    3.443321e+00
  7.164040e+00    3.447186e+00
  7.179916e+00    3.439158e+00
  7.195791e+00    3.424891e+00
  7.211667e+00    3.461686e+00
  7.227542e+00    3.463611e+00
  7.243418e+00    3.439987e+00
  7.259294e+00    3.388774e+00
  7.275169e+00    3.453088e+00
  7.291045e+00    3.477139e+00
  7.306920e+00    3.497679e+00
  7.322796e+00    3.547784e+00
  7.338671e+00    3.486658e+00
  7.354547e+00    3.452050e+00
  7.370423e+00    3.406292e+00
  7.386298e+00    3.437439e+00
  7.402174e+00    3.402843e+00
  7.418049e+00    3.452958e+00
  7.433925e+00    3.409888e+00
  7.449800e+00    3.427843e+00
  7.465676e+00    3.487227e+00
  7.481552e+00    3.511217e+00
  7.497427e+00    3.416286e+00
  7.513303e+00    3.470329e+00
  7.529178e+00    3.447016e+00
  7.545054e+00    3.390357e+00
  7.560929e+00    3.389091e+00
  7.576805e+00    3.394583e+00
  7.592681e+00    3.420757e+00
  7.608556e+00    3.437726e+00
  7.624432e+00    3.451177e+00
  7.640307e+00    3.406865e+00
  7.656183e+00    3.374813e+00
  7.672058e+00    3.356904e+00
  7.687934e+00    3.416968e+00
  7.703810e+00    3.478678e+00
  7.719685e+00    3.429334e+00
  7.735561e+00    3.432983e+00
  7.751436e+00    3.396716e+00
  7.767312e+00    3.357258e+00
  7.783187e+00    3.351573e+00
  7.799063e+00    3.403373e+00
  7.814939e+00    3.427263e+00
  7.830814e+00    3.384057e+00
  7.846690e+00    3.356790e+00
  7.862565e+00    3.388893e+00
  7.878441e+00    3.403558e+00
  7.894317e+00    3.348603e+00
  7.910192e+00    3.337588e+00
  7.926068e+00    3.377955e+00
  7.941943e+00    3.359701e+00
  7.957819e+00    3.323038e+00
  7.973694e+00    3.323500e+00
  7.989570e+00    3.398515e+00
  8.005446e+00    3.359542e+00
  8.021321e+00    3.347986e+00
  8.037197e+00    3.336662e+00
  8.053072e+00    3.267539e+00
  8.068948e+00    3.240920e+00
  8.084823e+00    3.342749e+00
  8.100699e+00    3.358132e+00
  8.116575e+00    3.391189e+00
  8.132450e+00    3.353112e+00
  8.148326e+00    3.262620e+00
  8.164201e+00    3.357515e+00
  8.180077e+00    3.431941e+00
  8.195952e+00    3.485902e+00
  8.211828e+00    3.450128e+00
  8.227704e+00    3.437273e+00
  8.243579e+00    3.417852e+00
  8.259455e+00    3.432154e+00
  8.275330e+00    3.364545e+00
  8.291206e+00    3.400095e+00
  8.307081e+00    3.338390e+00
  8.322957e+00    3.288676e+00
  8.338833e+00    3.299218e+00
  8.354708e+00    3.302595e+00
  8.370584e+00    3.338109e+00
  8.386459e+00    3.367703e+00
  8.402335e+00    3.354053e+00
  8.418210e+00    3.320975e+00
  8.434086e+00    3.337199e+00
  8.449962e+00    3.305919e+00
  8.465837e+00    3.347460e+00
  8.481713e+00    3.314688e+00
  8.497588e+00    3.261763e+00
  8.513464e+00    3.276244e+00
  8.529339e+00    3.258146e+00
  8.545215e+00    3.237537e+00
  8.561091e+00    3.331203e+00
  8.576966e+00    3.296439e+00
  8.592842e+00    3.268247e+00
  8.608717e+00    3.362178e+00
  8.624593e+00    3.322372e+00
  8.640468e+00    3.308554e+00
  8.656344e+00    3.349788e+00
  8.672220e+00    3.333279e+00
  8.688095e+00    3.305220e+00
  8.703971e+00    3.285713e+00
  8.719846e+00    3.265849e+00
  8.735722e+00    3.299742e+00
  8.751598e+00    3.329945e+00
  8.767473e+00    3.282116e+00
  8.783349e+00    3.286742e+00
  8.799224e+00    3.250526e+00
  8.815100e+00    3.218069e+00
  8.830975e+00    3.269896e+00
  8.846851e+00    3.254860e+00
  8.862727e+00    3.223425e+00
  8.878602e+00    3.184113e+00
  8.894478e+00    3.245230e+00
  8.910353e+00    3.235412e+00
  8.926229e+00    3.269332e+00
  8.942104e+00    3.290742e+00
  8.957980e+00    3.254158e+00
  8.973856e+00    3.263525e+00
  8.989731e+00    3.222955e+00
  9.005607e+00    3.255699e+00
  9.021482e+00    3.276328e+00
  9.037358e+00    3.244953e+00
  9.053233e+00    3.228507e+00
  9.069109e+00    3.257966e+00
  9.084985e+00    3.241358e+00
  9.100860e+00    3.238904e+00
  9.116736e+00    3.234538e+00
  9.132611e+00    3.245866e+00
  9.148487e+00    3.201573e+00
  9.164362e+00    3.162830e+00
  9.180238e+00    3.222974e+00
  9.196114e+00    3.213942e+00
  9.211989e+00    3.252994e+00
  9.227865e+00    3.231760e+00
  9.243740e+00    3.197687e+00
  9.259616e+00    3.163452e+00
  9.275491e+00    3.180314e+00
  9.291367e+00    3.215039e+00
  9.307243e+00    3.198989e+00
  9.323118e+00    3.169953e+00
  9.338994e+00    3.168233e+00
  9.354869e+00    3.177830e+00
  9.370745e+00    3.167857e+00
  9.386620e+00    3.182105e+00
  9.402496e+00    3.197250e+00
  9.418372e+00    3.178289e+00
  9.434247e+00    3.156063e+00
  9.450123e+00    3.212885e+00
  9.465998e+00    3.183867e+00
  9.481874e+00    3.169840e+00
  9.497749e+00    3.200492e+00
  9.513625e+00    3.162610e+00
  9.529501e+00    3.117502e+00
  9.545376e+00    3.148546e+00
  9.561252e+00    3.156704e+00
  9.577127e+00    3.209716e+00
  9.593003e+00    3.136219e+00
  9.608878e+00    3.051477e+00
  9.624754e+00    3.050402e+00
  9.640630e+00    3.108066e+00
  9.656505e+00    3.132907e+00
  9.672381e+00    3.087486e+00
  9.688256e+00    3.102431e+00
  9.704132e+00    3.113814e+00
  9.720008e+00    3.113248e+00
  9.735883e+00    3.161959e+00
  9.751759e+00    3.205516e+00
  9.767634e+00    3.194332e+00
  9.783510e+00    3.134354e+00
  9.799385e+00    3.129648e+00
  9.815261e+00    3.156019e+00
  9.831137e+00    3.105651e+00
  9.847012e+00    3.075654e+00
  9.862888e+00    3.142514e+00
  9.878763e+00    3.121495e+00
  9.894639e+00    3.069672e+00
  9.910514e+00    3.071217e+00
  9.926390e+00    3.081507e+00
  9.942266e+00    3.059544e+00
  9.958141e+00    3.074159e+00
  9.974017e+00    3.071571e+00
  9.989892e+00    3.116230e+00
  1.000577e+01    3.107948e+00
  1.002164e+01    3.062124e+00
  1.003752e+01    3.022131e+00
  1.005339e+01    3.064470e+00
  1.006927e+01    2.987131e+00
  1.008515e+01    3.040599e+00
  1.010102e+01    3.073237e+00
  1.011690e+01    3.060704e+00
  1.013277e+01    3.057469e+00
  1.014865e+01    3.067588e+00
  1.016452e+01    3.044433e+00
  1.018040e+01    3.040109e+00
  1.019627e+01    3.061351e+00
  1.021215e+01    3.011972e+00
  1.022803e+01    3.027244e+00
  1.024390e+01    3.046155e+00
  1.025978e+01    2.987874e+00
  1.027565e+01    3.063588e+00
  1.029153e+01    3.071574e+00
  1.030740e+01    3.044902e+00
  1.032328e+01    3.064227e+00
  1.033915e+01    3.038393e+00
  1.035503e+01    2.985206e+00
  1.037091e+01    2.928181e+00
  1.038678e+01    2.923367e+00
  1.040266e+01    2.982800e+00
  1.041853e+01    2.993339e+00
  1.043441e+01    2.999431e+00
  1.045028e+01    2.992583e+00
  1.046616e+01    2.988327e+00
  1.048204e+01    2.971233e+00
  1.049791e+01    2.960564e+00
  1.051379e+01    2.963607e+00
  1.052966e+01    3.005754e+00
  1.054554e+01    3.001190e+00
  1.056141e+01    2.977309e+00
  1.057729e+01    2.999640e+00
  1.059316e+01    2.940725e+00
  1.060904e+01    2.891759e+00
  1.062492e+01    2.927272e+00
  1.064079e+01    2.889505e+00
  1.065667e+01    2.939395e+00
  1.067254e+01    2.922220e+00
  1.068842e+01    2.945347e+00
  1.070429e+01    2.924021e+00
  1.072017e+01    2.931099e+00
  1.073604e+01    2.908357e+00
  1.075192e+01    2.878874e+00
  1.076780e+01    2.942202e+00
  1.078367e+01    2.919914e+00
  1.079955e+01    2.876353e+00
  1.081542e+01    2.842326e+00
  1.083130e+01    2.913532e+00
  1.084717e+01    2.926289e+00
  1.086305e+01    2.868124e+00
  1.087892e+01    2.881664e+00
  1.089480e+01    2.885031e+00
  1.091068e+01    2.860450e+00
  1.092655e+01    2.877059e+00
  1.094243e+01    2.903618e+00
  1.095830e+01    2.900351e+00
  1.097418e+01    2.902017e+00
  1.099005e+01    2.831151e+00
  1.100593e+01    2.841296e+00
  1.102180e+01    2.843409e+00
  1.103768e+01    2.894477e+00
  1.105356e+01    2.828541e+00
  1.106943e+01    2.754991e+00
  1.108531e+01    2.779673e+00
  1.110118e+01    2.867935e+00
  1.111706e+01    2.843661e+00
  1.113293e+01    2.861233e+00
  1.114881e+01    2.817923e+00
  1.116468e+01    2.812645e+00
  1.118056e+01    2.802032e+00
  1.119644e+01    2.821414e+00
  1.121231e+01    2.831304e+00
  1.122819e+01    2.788007e+00
  1.124406e+01    2.800498e+00
  1.125994e+01    2.824137e+00
  1.127581e+01    2.831959e+00
  1.129169e+01    2.836406e+00
  1.130756e+01    2.801273e+00
  1.132344e+01    2.774277e+00
  1.133932e+01    2.780993e+00
  1.135519e+01    2.776408e+00
  1.137107e+01    2.775219e+00
  1.138694e+01    2.815540e+00
  1.140282e+01    2.795197e+00
  1.141869e+01    2.775923e+00
  1.143457e+01    2.777269e+00
  1.145045e+01    2.782137e+00
  1.146632e+01    2.768336e+00
  1.148220e+01    2.792659e+00
  1.149807e+01    2.787956e+00
  1.151395e+01    2.757137e+00
  1.152982e+01    2.726680e+00
  1.154570e+01    2.728394e+00
  1.156157e+01    2.728441e+00
  1.157745e+01    2.728496e+00
  1.159333e+01    2.754693e+00
  1.160920e+01    2.791465e+00
  1.162508e+01    2.730009e+00
  1.164095e+01    2.777158e+00
  1.165683e+01    2.732388e+00
  1.167270e+01    2.703973e+00
  1.168858e+01    2.718325e+00
  1.170445e+01    2.695480e+00
  1.172033e+01    2.712499e+00
  1.173621e+01    2.732553e+00
  1.175208e+01    2.697552e+00
  1.176796e+01    2.721223e+00
  1.178383e+01    2.739043e+00
  1.179971e+01    2.720606e+00
  1.181558e+01    2.672555e+00
  1.183146e+01    2.717504e+00
  1.184733e+01    2.698712e+00
  1.186321e+01    2.683397e+00
  1.187909e+01    2.677194e+00
  1.189496e+01    2.723189e+00
  1.191084e+01    2.701322e+00
  1.192671e+01    2.655356e+00
  1.194259e+01    2.621030e+00
  1.195846e+01    2.675693e+00
  1.197434e+01    2.650472e+00
  1.199021e+01    2.634317e+00
  1.200609e+01    2.660828e+00
  1.202197e+01    2.677199e+00
  1.203784e+01    2.690139e+00
  1.205372e+01    2.699890e+00
  1.206959e+01    2.673633e+00
  1.208547e+01    2.625382e+00
  1.210134e+01    2.666818e+00
  1.211722e+01    2.639482e+00
  1.213309e+01    2.677200e+00
  1.214897e+01    2.678427e+00
  1.216485e+01    2.694985e+00
  1.218072e+01    2.683043e+00
  1.219660e+01    2.653844e+00
  1.221247e+01    2.711702e+00
  1.222835e+01    2.661017e+00
  1.224422e+01    2.650956e+00
  1.226010e+01    2.670314e+00
  1.227597e+01    2.666230e+00
  1.229185e+01    2.681080e+00
  1.230773e+01    2.658326e+00
  1.232360e+01    2.681015e+00
  1.233948e+01    2.668640e+00
  1.235535e+01    2.601700e+00
  1.237123e+01    2.648570e+00
  1.238710e+01    2.694851e+00
  1.240298e+01    2.689520e+00
  1.241886e+01    2.632933e+00
  1.243473e+01    2.622553e+00
  1.245061e+01    2.678236e+00
  1.246648e+01    2.682377e+00
  1.248236e+01    2.691528e+00
  1.249823e+01    2.716029e+00
  1.251411e+01    2.698612e+00
  1.252998e+01    2.624947e+00
  1.254586e+01    2.642956e+00
  1.256174e+01    2.684148e+00
  1.257761e+01    2.672389e+00
  1.259349e+01    2.727693e+00
  1.260936e+01    2.733239e+00
  1.262524e+01    2.695925e+00
  1.264111e+01    2.678921e+00
  1.265699e+01    2.700166e+00
  1.267286e+01    2.741328e+00
  1.268874e+01    2.789598e+00
  1.270462e+01    2.789366e+00
  1.272049e+01    2.829504e+00
  1.273637e+01    2.841363e+00
  1.275224e+01    2.845235e+00
  1.276812e+01    2.892154e+00
  1.278399e+01    2.911795e+00
  1.279987e+01    2.951439e+00
  1.281574e+01    3.005664e+00
  1.283162e+01    3.110528e+00
  1.284750e+01    3.166199e+00
  1.286337e+01    3.257496e+00
  1.287925e+01    3.324210e+00
  1.289512e+01    3.470425e+00
  1.291100e+01    3.565345e+00
  1.292687e+01    3.767733e+00
  1.294275e+01    4.017416e+00
  1.295862e+01    4.377608e+00
  1.297450e+01    4.679944e+00
  1.299038e+01    5.216107e+00
  1.300625e+01    5.823198e+00
  1.302213e+01    6.567206e+00
  1.303800e+01    7.596629e+00
  1.305388e+01    8.730124e+00
  1.306975e+01    1.000524e+01
  1.308563e+01    1.126840e+01
  1.310150e+01    1.243904e+01
  1.311738e+01    1.349824e+01
  1.313326e+01    1.458121e+01
  1.314913e+01    1.542550e+01
  1.316501e+01    1.599134e+01
  1.318088e+01    1.612462e+01
  1.319676e+01    1.540307e+01
  1.321263e+01    1.404849e+01
  1.322851e+01    1.229187e+01
  1.324438e+01    1.062092e+01
  1.326026e+01    8.959133e+00
  1.327614e+01    7.683959e+00
  1.329201e+01    6.617650e+00
  1.330789e+01    5.837623e+00
  1.332376e+01    5.209661e+00
  1.333964e+01    4.735673e+00
  1.335551e+01    4.325383e+00
  1.337139e+01    4.098506e+00
  1.338727e+01    3.873010e+00
  1.340314e+01    3.624640e+00
  1.341902e+01    3.495009e+00
  1.343489e+01    3.324368e+00
  1.345077e+01    3.150167e+00
  1.346664e+01    3.083882e+00
  1.348252e+01    2.954174e+00
  1.349839e+01    2.924519e+00
  1.351427e+01    2.895315e+00
  1.353015e+01    2.839287e+00
  1.354602e+01    2.822914e+00
  1.356190e+01    2.770983e+00
  1.357777e+01    2.730755e+00
  1.359365e+01    2.685912e+00
  1.360952e+01    2.608450e+00
  1.362540e+01    2.614434e+00
  1.364127e+01    2.603742e+00
  1.365715e+01    2.586495e+00
  1.367303e+01    2.577038e+00
  1.368890e+01    2.516893e+00
  1.370478e+01    2.492605e+00
  1.372065e+01    2.508816e+00
  1.373653e+01    2.490938e+00
  1.375240e+01    2.489153e+00
  1.376828e+01    2.474621e+00
  1.378415e+01    2.457195e+00
  1.380003e+01    2.419939e+00
  1.381591e+01    2.386917e+00
  1.383178e+01    2.362112e+00
  1.384766e+01    2.375116e+00
  1.386353e+01    2.435360e+00
  1.387941e+01    2.438691e+00
  1.389528e+01    2.358773e+00
  1.391116e+01    2.333341e+00
  1.392703e+01    2.324538e+00
  1.394291e+01    2.335446e+00
  1.395879e+01    2.345279e+00
  1.397466e+01    2.366204e+00
  1.399054e+01    2.323656e+00
  1.400641e+01    2.324596e+00
  1.402229e+01    2.317998e+00
  1.403816e+01    2.302442e+00
  1.405404e+01    2.312118e+00
  1.406991e+01    2.313297e+00
  1.408579e+01    2.318275e+00
  1.410167e+01    2.337601e+00
  1.411754e+01    2.327175e+00
  1.413342e+01    2.287201e+00
  1.414929e+01    2.286961e+00
  1.416517e+01    2.279682e+00
  1.418104e+01    2.287219e+00
  1.419692e+01    2.266204e+00
  1.421279e+01    2.307114e+00
  1.422867e+01    2.250936e+00
  1.424455e+01    2.260805e+00
  1.426042e+01    2.247033e+00
  1.427630e+01    2.233488e+00
  1.429217e+01    2.239468e+00
  1.430805e+01    2.210855e+00
  1.432392e+01    2.232106e+00
  1.433980e+01    2.235520e+00
  1.435568e+01    2.232355e+00
  1.437155e+01    2.227710e+00
  1.438743e+01    2.207435e+00
  1.440330e+01    2.244090e+00
  1.441918e+01    2.212980e+00
  1.443505e+01    2.203160e+00
  1.445093e+01    2.186308e+00
  1.446680e+01    2.203758e+00
  1.448268e+01    2.184048e+00
  1.449856e+01    2.174206e+00
  1.451443e+01    2.221026e+00
  1.453031e+01    2.185566e+00
  1.454618e+01    2.202112e+00
  1.456206e+01    2.248554e+00
  1.457793e+01    2.181733e+00
  1.459381e+01    2.170731e+00
  1.460968e+01    2.192274e+00
  1.462556e+01    2.176531e+00
  1.464144e+01    2.163630e+00
  1.465731e+01    2.178645e+00
  1.467319e+01    2.197077e+00
  1.468906e+01    2.191078e+00
  1.470494e+01    2.155253e+00
  1.472081e+01    2.140930e+00
  1.473669e+01    2.181914e+00
  1.475256e+01    2.163659e+00
  1.476844e+01    2.126268e+00
  1.478432e+01    2.145198e+00
  1.480019e+01    2.156883e+00
  1.481607e+01    2.179516e+00
  1.483194e+01    2.198162e+00
  1.484782e+01    2.158647e+00
  1.486369e+01    2.134503e+00
  1.487957e+01    2.187737e+00
  1.489544e+01    2.193087e+00
  1.491132e+01    2.251523e+00
  1.492720e+01    2.243170e+00
  1.494307e+01    2.241958e+00
  1.495895e+01    2.286953e+00
  1.497482e+01    2.333037e+00
  1.499070e+01    2.349152e+00
  1.500657e+01    2.400347e+00
  1.502245e+01    2.500904e+00
  1.503832e+01    2.584570e+00
  1.505420e+01    2.639685e+00
  1.507008e+01    2.796299e+00
  1.508595e+01    2.958541e+00
  1.510183e+01    3.119457e+00
  1.511770e+01    3.392279e+00
  1.513358e+01    3.681131e+00
  1.514945e+01    4.041908e+00
  1.516533e+01    4.445883e+00
  1.518120e+01    4.835733e+00
  1.519708e+01    5.069161e+00
  1.521296e+01    5.344316e+00
  1.522883e+01    5.530254e+00
  1.524471e+01    5.656006e+00
  1.526058e+01    5.690987e+00
  1.527646e+01    5.636599e+00
  1.529233e+01    5.362124e+00
  1.530821e+01    5.033582e+00
  1.532409e+01    4.579530e+00
  1.533996e+01    4.121834e+00
  1.535584e+01    3.728834e+00
  1.537171e+01    3.393148e+00
  1.538759e+01    3.088743e+00
  1.540346e+01    2.894473e+00
  1.541934e+01    2.719772e+00
  1.543521e+01    2.545686e+00
  1.545109e+01    2.453309e+00
  1.546697e+01    2.416364e+00
  1.548284e+01    2.333678e+00
  1.549872e+01    2.314605e+00
  1.551459e+01    2.244317e+00
  1.553047e+01    2.169942e+00
  1.554634e+01    2.119223e+00
  1.556222e+01    2.127046e+00
  1.557809e+01    2.118771e+00
  1.559397e+01    2.072829e+00
  1.560985e+01    2.045667e+00
  1.562572e+01    2.037450e+00
  1.564160e+01    2.069894e+00
  1.565747e+01    2.046564e+00
  1.567335e+01    2.005020e+00
  1.568922e+01    1.970958e+00
  1.570510e+01    1.970303e+00
  1.572097e+01    1.955281e+00
  1.573685e+01    1.927100e+00
  1.575273e+01    1.976233e+00
  1.576860e+01    1.961573e+00
  1.578448e+01    1.920097e+00
  1.580035e+01    1.884040e+00
  1.581623e+01    1.878562e+00
  1.583210e+01    1.881373e+00
  1.584798e+01    1.914056e+00
  1.586385e+01    1.888663e+00
  1.587973e+01    1.877059e+00
  1.589561e+01    1.860688e+00
  1.591148e+01    1.852050e+00
  1.592736e+01    1.846862e+00
  1.594323e+01    1.843306e+00
  1.595911e+01    1.848295e+00
  1.597498e+01    1.845175e+00
  1.599086e+01    1.844580e+00
  1.600673e+01    1.845151e+00
  1.602261e+01    1.839193e+00
  1.603849e+01    1.846810e+00
  1.605436e+01    1.857549e+00
  1.607024e+01    1.863539e+00
  1.608611e+01    1.816509e+00
  1.610199e+01    1.794526e+00
  1.611786e+01    1.759698e+00
  1.613374e+01    1.792866e+00
  1.614961e+01    1.781402e+00
  1.616549e+01    1.817500e+00
  1.618137e+01    1.791051e+00
  1.619724e+01    1.804614e+00
  1.621312e+01    1.806285e+00
  1.622899e+01    1.812981e+00
  1.624487e+01    1.823598e+00
  1.626074e+01    1.779144e+00
  1.627662e+01    1.761730e+00
  1.629250e+01    1.784197e+00
  1.630837e+01    1.816738e+00
  1.632425e+01    1.767710e+00
  1.634012e+01    1.730391e+00
  1.635600e+01    1.741837e+00
  1.637187e+01    1.742995e+00
  1.638775e+01    1.736477e+00
  1.640362e+01    1.758294e+00
  1.641950e+01    1.729689e+00
  1.643538e+01    1.711251e+00
  1.645125e+01    1.746860e+00
  1.646713e+01    1.726581e+00
  1.648300e+01    1.731781e+00
  1.649888e+01    1.721790e+00
  1.651475e+01    1.736028e+00
  1.653063e+01    1.700562e+00
  1.654650e+01    1.720130e+00
  1.656238e+01    1.712372e+00
  1.657826e+01    1.734208e+00
  1.659413e+01    1.734469e+00
  1.661001e+01    1.723267e+00
  1.662588e+01    1.709159e+00
  1.664176e+01    1.713677e+00
  1.665763e+01    1.678725e+00
  1.667351e+01    1.700470e+00
  1.668938e+01    1.698548e+00
  1.670526e+01    1.681361e+00
  1.672114e+01    1.679001e+00
  1.673701e+01    1.697414e+00
  1.675289e+01    1.687200e+00
  1.676876e+01    1.706414e+00
  1.678464e+01    1.701442e+00
  1.680051e+01    1.688621e+00
  1.681639e+01    1.707615e+00
  1.683226e+01    1.703028e+00
  1.684814e+01    1.652354e+00
  1.686402e+01    1.654142e+00
  1.687989e+01    1.649060e+00
  1.689577e+01    1.673413e+00
  1.691164e+01    1.674101e+00
  1.692752e+01    1.658160e+00
  1.694339e+01    1.663482e+00
  1.695927e+01    1.670385e+00
  1.697514e+01    1.644243e+00
  1.699102e+01    1.629177e+00
  1.700690e+01    1.616251e+00
  1.702277e+01    1.643097e+00
  1.703865e+01    1.612777e+00
  1.705452e+01    1.632894e+00
  1.707040e+01    1.646728e+00
  1.708627e+01    1.624380e+00
  1.710215e+01    1.621013e+00
  1.711802e+01    1.629753e+00
  1.713390e+01    1.655902e+00
  1.714978e+01    1.640876e+00
  1.716565e+01    1.641980e+00
  1.718153e+01    1.624781e+00
  1.719740e+01    1.632631e+00
  1.721328e+01    1.614187e+00
  1.722915e+01    1.583151e+00
  1.724503e+01    1.588482e+00
  1.726091e+01    1.579059e+00
  1.727678e+01    1.574346e+00
  1.729266e+01    1.583290e+00
  1.730853e+01    1.572758e+00
  1.732441e+01    1.561464e+00
  1.734028e+01    1.570469e+00
  1.735616e+01    1.570705e+00
  1.737203e+01    1.556987e+00
  1.738791e+01    1.566486e+00
  1.740379e+01    1.576917e+00
  1.741966e+01    1.590294e+00
  1.743554e+01    1.598143e+00
  1.745141e+01    1.566910e+00
  1.746729e+01    1.559482e+00
  1.748316e+01    1.553414e+00
  1.749904e+01    1.565841e+00
  1.751491e+01    1.563155e+00
  1.753079e+01    1.546708e+00
  1.754667e+01    1.551718e+00
  1.756254e+01    1.564371e+00
  1.757842e+01    1.562268e+00
  1.759429e+01    1.571080e+00
  1.761017e+01    1.553131e+00
  1.762604e+01    1.560686e+00
  1.764192e+01    1.528090e+00
  1.765779e+01    1.519308e+00
  1.767367e+01    1.516026e+00
  1.768955e+01    1.512913e+00
  1.770542e+01    1.543232e+00
  1.772130e+01    1.551811e+00
  1.773717e+01    1.523032e+00
  1.775305e+01    1.523496e+00
  1.776892e+01    1.554274e+00
  1.778480e+01    1.537575e+00
  1.780067e+01    1.505585e+00
  1.781655e+01    1.509862e+00
  1.783243e+01    1.495783e+00
  1.784830e+01    1.470439e+00
  1.786418e+01    1.509974e+00
  1.788005e+01    1.514239e+00
  1.789593e+01    1.510645e+00
  1.791180e+01    1.491168e+00
  1.792768e+01    1.527283e+00
  1.794355e+01    1.528820e+00
  1.795943e+01    1.471890e+00
  1.797531e+01    1.470180e+00
  1.799118e+01    1.498977e+00
  1.800706e+01    1.490228e+00
  1.802293e+01    1.493993e+00
  1.803881e+01    1.487451e+00
  1.805468e+01    1.458743e+00
  1.807056e+01    1.467922e+00
  1.808643e+01    1.469543e+00
  1.810231e+01    1.446691e+00
  1.811819e+01    1.457549e+00
  1.813406e+01    1.475291e+00
  1.814994e+01    1.472038e+00
  1.816581e+01    1.487960e+00
  1.818169e+01    1.460070e+00
  1.819756e+01    1.457113e+00
  1.821344e+01    1.471914e+00
  1.822932e+01    1.459701e+00
  1.824519e+01    1.471745e+00
  1.826107e+01    1.491322e+00
  1.827694e+01    1.461633e+00
  1.829282e+01    1.457518e+00
  1.830869e+01    1.449974e+00
  1.832457e+01    1.439831e+00
  1.834044e+01    1.451288e+00
  1.835632e+01    1.446273e+00
  1.837220e+01    1.454586e+00
  1.838807e+01    1.453420e+00
  1.840395e+01    1.448210e+00
  1.841982e+01    1.457995e+00
  1.843570e+01    1.452253e+00
  1.845157e+01    1.416407e+00
  1.846745e+01    1.405632e+00
  1.848332e+01    1.441293e+00
  1.849920e+01    1.431572e+00
  1.851508e+01    1.447954e+00
  1.853095e+01    1.442347e+00
  1.854683e+01    1.434901e+00
  1.856270e+01    1.420866e+00
  1.857858e+01    1.420053e+00
  1.859445e+01    1.420891e+00
  1.861033e+01    1.434041e+00
  1.862620e+01    1.397797e+00
  1.864208e+01    1.385940e+00
  1.865796e+01    1.399067e+00
  1.867383e+01    1.381753e+00
  1.868971e+01    1.385996e+00
  1.870558e+01    1.360080e+00
  1.872146e+01    1.368122e+00
  1.873733e+01    1.406730e+00
  1.875321e+01    1.385749e+00
  1.876908e+01    1.368545e+00
  1.878496e+01    1.375557e+00
  1.880084e+01    1.371888e+00
  1.881671e+01    1.414590e+00
  1.883259e+01    1.383936e+00
  1.884846e+01    1.371463e+00
  1.886434e+01    1.342698e+00
  1.888021e+01    1.354521e+00
  1.889609e+01    1.370177e+00
  1.891196e+01    1.376787e+00
  1.892784e+01    1.383520e+00
  1.894372e+01    1.379936e+00
  1.895959e+01    1.390237e+00
  1.897547e+01    1.389105e+00
  1.899134e+01    1.383529e+00
  1.900722e+01    1.388248e+00
  1.902309e+01    1.370352e+00
  1.903897e+01    1.335271e+00
  1.905484e+01    1.354227e+00
  1.907072e+01    1.391616e+00
  1.908660e+01    1.371423e+00
  1.910247e+01    1.348522e+00
  1.911835e+01    1.389018e+00
  1.913422e+01    1.370705e+00
  1.915010e+01    1.359028e+00
  1.916597e+01    1.371328e+00
  1.918185e+01    1.375918e+00
  1.919773e+01    1.346110e+00
  1.921360e+01    1.334349e+00
  1.922948e+01    1.315449e+00
  1.924535e+01    1.315726e+00
  1.926123e+01    1.341418e+00
  1.927710e+01    1.345612e+00
  1.929298e+01    1.320651e+00
  1.930885e+01    1.348972e+00
  1.932473e+01    1.336158e+00
  1.934061e+01    1.336784e+00
  1.935648e+01    1.368399e+00
  1.937236e+01    1.352544e+00
  1.938823e+01    1.326468e+00
  1.940411e+01    1.329455e+00
  1.941998e+01    1.302440e+00
  1.943586e+01    1.292473e+00
  1.945173e+01    1.300864e+00
  1.946761e+01    1.338249e+00
  1.948349e+01    1.319107e+00
  1.949936e+01    1.322738e+00
  1.951524e+01    1.322783e+00
  1.953111e+01    1.323295e+00
  1.954699e+01    1.321325e+00
  1.956286e+01    1.293199e+00
  1.957874e+01    1.296545e+00
  1.959461e+01    1.293179e+00
  1.961049e+01    1.301347e+00
  1.962637e+01    1.299219e+00
  1.964224e+01    1.277413e+00
  1.965812e+01    1.275664e+00
  1.967399e+01    1.291484e+00
  1.968987e+01    1.256467e+00
  1.970574e+01    1.293392e+00
  1.972162e+01    1.317384e+00
  1.973749e+01    1.309475e+00
  1.975337e+01    1.299004e+00
  1.976925e+01    1.286946e+00
  1.978512e+01    1.285342e+00
  1.980100e+01    1.295141e+00
  1.981687e+01    1.282798e+00
  1.983275e+01    1.285809e+00
  1.984862e+01    1.274607e+00
  1.986450e+01    1.273077e+00
  1.988037e+01    1.276615e+00
  1.989625e+01    1.263325e+00
  1.991213e+01    1.279440e+00
  1.992800e+01    1.264316e+00
  1.994388e+01    1.268043e+00
  1.995975e+01    1.247313e+00
  1.997563e+01    1.280010e+00
  1.999150e+01    1.254904e+00
  2.000738e+01    1.249639e+00
  2.002325e+01    1.231658e+00
  2.003913e+01    1.263491e+00
  2.005501e+01    1.267415e+00
  2.007088e+01    1.249537e+00
  2.008676e+01    1.284791e+00
  2.010263e+01    1.260709e+00
  2.011851e+01    1.234989e+00
  2.013438e+01    1.234759e+00
  2.015026e+01    1.251238e+00
  2.016614e+01    1.258301e+00
  2.018201e+01    1.234513e+00
  2.019789e+01    1.237146e+00
  2.021376e+01    1.227134e+00
  2.022964e+01    1.240028e+00
  2.024551e+01    1.245035e+00
  2.026139e+01    1.238661e+00
  2.027726e+01    1.221992e+00
  2.029314e+01    1.232852e+00
  2.030902e+01    1.247338e+00
  2.032489e+01    1.231164e+00
  2.034077e+01    1.221939e+00
  2.035664e+01    1.230323e+00
  2.037252e+01    1.227190e+00
  2.038839e+01    1.243067e+00
  2.040427e+01    1.238231e+00
  2.042014e+01    1.215440e+00
  2.043602e+01    1.204676e+00
  2.045190e+01    1.224558e+00
  2.046777e+01    1.219409e+00
  2.048365e+01    1.214158e+00
  2.049952e+01    1.222048e+00
  2.051540e+01    1.225011e+00
  2.053127e+01    1.232770e+00
  2.054715e+01    1.226676e+00
  2.056302e+01    1.221595e+00
  2.057890e+01    1.210484e+00
  2.059478e+01    1.228932e+00
  2.061065e+01    1.211365e+00
  2.062653e+01    1.197059e+00
  2.064240e+01    1.209461e+00
  2.065828e+01    1.196823e+00
  2.067415e+01    1.217753e+00
  2.069003e+01    1.244436e+00
  2.070590e+01    1.223740e+00
  2.072178e+01    1.229089e+00
  2.073766e+01    1.221443e+00
  2.075353e+01    1.203352e+00
  2.076941e+01    1.199175e+00
  2.078528e+01    1.195080e+00
  2.080116e+01    1.190842e+00
  2.081703e+01    1.238799e+00
  2.083291e+01    1.228584e+00
  2.084878e+01    1.238005e+00
  2.086466e+01    1.224975e+00
  2.088054e+01    1.202033e+00
  2.089641e+01    1.190549e+00
  2.091229e+01    1.202566e+00
  2.092816e+01    1.214412e+00
  2.094404e+01    1.211833e+00
  2.095991e+01    1.216752e+00
  2.097579e+01    1.225662e+00
  2.099166e+01    1.216004e+00
  2.100754e+01    1.213905e+00
  2.102342e+01    1.211220e+00
  2.103929e+01    1.208503e+00
  2.105517e+01    1.195768e+00
  2.107104e+01    1.206961e+00
  2.108692e+01    1.220914e+00
  2.110279e+01    1.208315e+00
  2.111867e+01    1.206965e+00
  2.113455e+01    1.195420e+00
  2.115042e+01    1.218872e+00
  2.116630e+01    1.231016e+00
  2.118217e+01    1.220488e+00
  2.119805e+01    1.225117e+00
  2.121392e+01    1.222757e+00
  2.122980e+01    1.221856e+00
  2.124567e+01    1.216683e+00
  2.126155e+01    1.244565e+00
  2.127743e+01    1.252171e+00
  2.129330e+01    1.257392e+00
  2.130918e+01    1.256199e+00
  2.132505e+01    1.254228e+00
  2.134093e+01    1.266738e+00
  2.135680e+01    1.270560e+00
  2.137268e+01    1.272719e+00
  2.138855e+01    1.278268e+00
  2.140443e+01    1.307373e+00
  2.142031e+01    1.320955e+00
  2.143618e+01    1.308403e+00
  2.145206e+01    1.318981e+00
  2.146793e+01    1.338119e+00
  2.148381e+01    1.368074e+00
  2.149968e+01    1.390562e+00
  2.151556e+01    1.413027e+00
  2.153143e+01    1.460959e+00
  2.154731e+01    1.502541e+00
  2.156319e+01    1.544115e+00
  2.157906e+01    1.617520e+00
  2.159494e+01    1.689585e+00
  2.161081e+01    1.731145e+00
  2.162669e+01    1.826684e+00
  2.164256e+01    1.949312e+00
  2.165844e+01    2.055774e+00
  2.167431e+01    2.274435e+00
  2.169019e+01    2.442772e+00
  2.170607e+01    2.708370e+00
  2.172194e+01    3.014534e+00
  2.173782e+01    3.428279e+00
  2.175369e+01    3.923522e+00
  2.176957e+01    4.462465e+00
  2.178544e+01    5.108230e+00
  2.180132e+01    5.742710e+00
  2.181719e+01    6.426496e+00
  2.183307e+01    7.034140e+00
  2.184895e+01    7.696614e+00
  2.186482e+01    8.244534e+00
  2.188070e+01    8.595082e+00
  2.189657e+01    8.716378e+00
  2.191245e+01    8.568834e+00
  2.192832e+01    8.138582e+00
  2.194420e+01    7.336975e+00
  2.196007e+01    6.472480e+00
  2.197595e+01    5.571202e+00
  2.199183e+01    4.750057e+00
  2.200770e+01    4.137886e+00
  2.202358e+01    3.565762e+00
  2.203945e+01    3.141677e+00
  2.205533e+01    2.819270e+00
  2.207120e+01    2.504515e+00
  2.208708e+01    2.260566e+00
  2.210296e+01    2.138800e+00
  2.211883e+01    2.011990e+00
  2.213471e+01    1.880337e+00
  2.215058e+01    1.732267e+00
  2.216646e+01    1.656249e+00
  2.218233e+01    1.576915e+00
  2.219821e+01    1.508747e+00
  2.221408e+01    1.475230e+00
  2.222996e+01    1.414834e+00
  2.224584e+01    1.394243e+00
  2.226171e+01    1.377301e+00
  2.227759e+01    1.309969e+00
  2.229346e+01    1.275076e+00
  2.230934e+01    1.287024e+00
  2.232521e+01    1.250567e+00
  2.234109e+01    1.242759e+00
  2.235696e+01    1.220739e+00
  2.237284e+01    1.213525e+00
  2.238872e+01    1.201787e+00
  2.240459e+01    1.197919e+00
  2.242047e+01    1.170564e+00
  2.243634e+01    1.179675e+00
  2.245222e+01    1.184275e+00
  2.246809e+01    1.188628e+00
  2.248397e+01    1.132373e+00
  2.249984e+01    1.108300e+00
  2.251572e+01    1.124993e+00
  2.253160e+01    1.104048e+00
  2.254747e+01    1.096850e+00
  2.256335e+01    1.130143e+00
  2.257922e+01    1.110368e+00
  2.259510e+01    1.092669e+00
  2.261097e+01    1.101576e+00
  2.262685e+01    1.095902e+00
  2.264272e+01    1.091269e+00
  2.265860e+01    1.075141e+00
  2.267448e+01    1.063154e+00
  2.269035e+01    1.067425e+00
  2.270623e+01    1.056677e+00
  2.272210e+01    1.059773e+00
  2.273798e+01    1.046301e+00
  2.275385e+01    1.049746e+00
  2.276973e+01    1.047393e+00
  2.278560e+01    1.059916e+00
  2.280148e+01    1.040403e+00
  2.281736e+01    1.029640e+00
  2.283323e+01    1.037477e+00
  2.284911e+01    1.041526e+00
  2.286498e+01    1.022781e+00
  2.288086e+01    1.025309e+00
  2.289673e+01    1.020024e+00
  2.291261e+01    1.025752e+00
  2.292848e+01    1.021943e+00
  2.294436e+01    1.000390e+00
  2.296024e+01    9.877453e-01
  2.297611e+01    9.760614e-01
  2.299199e+01    9.873002e-01
  2.300786e+01    9.752980e-01
  2.302374e+01    9.887308e-01
  2.303961e+01    1.007698e+00
  2.305549e+01    9.947120e-01
  2.307137e+01    9.978684e-01
  2.308724e+01    9.951153e-01
  2.310312e+01    9.971416e-01
  2.311899e+01    9.952365e-01
  2.313487e+01    1.005697e+00
  2.315074e+01    9.938737e-01
  2.316662e+01    9.900972e-01
  2.318249e+01    9.809749e-01
  2.319837e+01    9.751539e-01
  2.321425e+01    9.787962e-01
  2.323012e+01    9.824262e-01
  2.324600e+01    9.786360e-01
  2.326187e+01    9.888037e-01
  2.327775e+01    9.748145e-01
  2.329362e+01    9.735367e-01
  2.330950e+01    9.758831e-01
  2.332537e+01    9.803852e-01
  2.334125e+01    9.750560e-01
  2.335713e+01    9.721775e-01
  2.337300e+01    9.723547e-01
  2.338888e+01    9.402351e-01
  2.340475e+01    9.453384e-01
  2.342063e+01    9.571565e-01
  2.343650e+01    9.651834e-01
  2.345238e+01    9.745002e-01
  2.346825e+01    9.663870e-01
  2.348413e+01    9.382783e-01
  2.350001e+01    9.572226e-01
  2.351588e+01    9.493921e-01
  2.353176e+01    9.336240e-01
  2.354763e+01    9.511617e-01
  2.356351e+01    9.474235e-01
  2.357938e+01    9.224072e-01
  2.359526e+01    9.202158e-01
  2.361113e+01    9.243062e-01
  2.362701e+01    9.452903e-01
  2.364289e+01    9.207595e-01
  2.365876e+01    9.281783e-01
  2.367464e+01    9.373378e-01
  2.369051e+01    9.173917e-01
  2.370639e+01    9.031503e-01
  2.372226e+01    9.148148e-01
  2.373814e+01    9.068694e-01
  2.375401e+01    9.128187e-01
  2.376989e+01    9.128458e-01
  2.378577e+01    9.444429e-01
  2.380164e+01    9.158500e-01
  2.381752e+01    9.055125e-01
  2.383339e+01    8.963928e-01
  2.384927e+01    9.130046e-01
  2.386514e+01    9.150068e-01
  2.388102e+01    9.073209e-01
  2.389689e+01    9.206359e-01
  2.391277e+01    9.094892e-01
  2.392865e+01    9.065805e-01
  2.394452e+01    8.908167e-01
  2.396040e+01    8.864383e-01
  2.397627e+01    8.807195e-01
  2.399215e+01    8.966215e-01
  2.400802e+01    8.867315e-01
  2.402390e+01    8.833424e-01
  2.403978e+01    9.065318e-01
  2.405565e+01    8.976863e-01
  2.407153e+01    8.792878e-01
  2.408740e+01    8.837091e-01
  2.410328e+01    8.784395e-01
  2.411915e+01    8.681873e-01
  2.413503e+01    8.587588e-01
  2.415090e+01    8.696448e-01
  2.416678e+01    8.597407e-01
  2.418266e+01    8.539379e-01
  2.419853e+01    8.529472e-01
  2.421441e+01    8.426715e-01
  2.423028e+01    8.777569e-01
  2.424616e+01    8.816035e-01
  2.426203e+01    8.717465e-01
  2.427791e+01    8.749481e-01
  2.429378e+01    8.784202e-01
  2.430966e+01    8.842165e-01
  2.432554e+01    8.815309e-01
  2.434141e+01    8.802913e-01
  2.435729e+01    8.859279e-01
  2.437316e+01    8.655709e-01
  2.438904e+01    8.741996e-01
  2.440491e+01    8.918244e-01
  2.442079e+01    8.703533e-01
  2.443666e+01    8.725967e-01
  2.445254e+01    8.675712e-01
  2.446842e+01    8.666956e-01
  2.448429e+01    8.622521e-01
  2.450017e+01    8.601424e-01
  2.451604e+01    8.806037e-01
  2.453192e+01    8.984925e-01
  2.454779e+01    9.008160e-01
  2.456367e+01    8.764532e-01
  2.457954e+01    8.779734e-01
  2.459542e+01    8.936796e-01
  2.461130e+01    8.943611e-01
  2.462717e+01    8.941709e-01
  2.464305e+01    9.099576e-01
  2.465892e+01    8.511475e-01
  2.467480e+01    8.657378e-01
  2.469067e+01    8.675593e-01
  2.470655e+01    8.789002e-01
  2.472242e+01    8.751835e-01
  2.473830e+01    8.741631e-01
  2.475418e+01    8.667231e-01
  2.477005e+01    8.824388e-01
  2.478593e+01    8.837640e-01
  2.480180e+01    8.839769e-01
  2.481768e+01    8.859150e-01
  2.483355e+01    8.869611e-01
  2.484943e+01    8.811634e-01
  2.486530e+01    8.740101e-01
  2.488118e+01    8.940199e-01
  2.489706e+01    9.049202e-01
  2.491293e+01    8.961560e-01
  2.492881e+01    8.793700e-01
  2.494468e+01    8.735191e-01
  2.496056e+01    8.830236e-01
  2.497643e+01    8.654984e-01
  2.499231e+01    8.899538e-01
  2.500819e+01    8.744281e-01
  2.502406e+01    8.749680e-01
  2.503994e+01    8.803813e-01
  2.505581e+01    8.931841e-01
  2.507169e+01    9.063597e-01
  2.508756e+01    8.866348e-01
  2.510344e+01    8.803474e-01
  2.511931e+01    8.916748e-01
  2.513519e+01    9.104184e-01
  2.515107e+01    9.059097e-01
  2.516694e+01    8.891383e-01
  2.518282e+01    9.018562e-01
  2.519869e+01    8.938995e-01
  2.521457e+01    9.049332e-01
  2.523044e+01    9.097095e-01
  2.524632e+01    9.083425e-01
  2.526219e+01    9.285848e-01
  2.527807e+01    9.160144e-01
  2.529395e+01    9.215824e-01
  2.530982e+01    9.476640e-01
  2.532570e+01    9.490521e-01
  2.534157e+01    9.686866e-01
  2.535745e+01    9.645268e-01
  2.537332e+01    9.583293e-01
  2.538920e+01    9.696757e-01
  2.540507e+01    9.920141e-01
  2.542095e+01    9.697997e-01
  2.543683e+01    9.865709e-01
  2.545270e+01    9.985295e-01
  2.546858e+01    1.005310e+00
  2.548445e+01    1.027951e+00
  2.550033e+01    1.033930e+00
  2.551620e+01    1.043690e+00
  2.553208e+01    1.065925e+00
  2.554795e+01    1.088775e+00
  2.556383e+01    1.146942e+00
  2.557971e+01    1.152502e+00
  2.559558e+01    1.154948e+00
  2.561146e+01    1.230110e+00
  2.562733e+01    1.253327e+00
  2.564321e+01    1.293557e+00
  2.565908e+01    1.335682e+00
  2.567496e+01    1.413940e+00
  2.569083e+01    1.485909e+00
  2.570671e+01    1.582865e+00
  2.572259e+01    1.661468e+00
  2.573846e+01    1.807718e+00
  2.575434e+01    1.954008e+00
  2.577021e+01    2.163990e+00
  2.578609e+01    2.382287e+00
  2.580196e+01    2.708074e+00
  2.581784e+01    3.124403e+00
  2.583371e+01    3.586071e+00
  2.584959e+01    4.052197e+00
  2.586547e+01    4.553596e+00
  2.588134e+01    5.157789e+00
  2.589722e+01    5.743498e+00
  2.591309e+01    6.287139e+00
  2.592897e+01    6.736843e+00
  2.594484e+01    6.921178e+00
  2.596072e+01    6.969025e+00
  2.597660e+01    6.824192e+00
  2.599247e+01    6.478447e+00
  2.600835e+01    5.920826e+00
  2.602422e+01    5.255195e+00
  2.604010e+01    4.505442e+00
  2.605597e+01    3.912518e+00
  2.607185e+01    3.374997e+00
  2.608772e+01    2.956173e+00
  2.610360e+01    2.615641e+00
  2.611948e+01    2.326273e+00
  2.613535e+01    2.130899e+00
  2.615123e+01    1.926022e+00
  2.616710e+01    1.756593e+00
  2.618298e+01    1.615906e+00
  2.619885e+01    1.544673e+00
  2.621473e+01    1.457933e+00
  2.623060e+01    1.381667e+00
  2.624648e+01    1.323697e+00
  2.626236e+01    1.259783e+00
  2.627823e+01    1.219239e+00
  2.629411e+01    1.195265e+00
  2.630998e+01    1.179320e+00
  2.632586e+01    1.154517e+00
  2.634173e+01    1.110683e+00
  2.635761e+01    1.079667e+00
  2.637348e+01    1.085221e+00
  2.638936e+01    1.073511e+00
  2.640524e+01    1.039955e+00
  2.642111e+01    1.040384e+00
  2.643699e+01    1.012933e+00
  2.645286e+01    1.027226e+00
  2.646874e+01    9.892862e-01
  2.648461e+01    9.794761e-01
  2.650049e+01    1.017266e+00
  2.651636e+01    9.924418e-01
  2.653224e+01    9.856519e-01
  2.654812e+01    9.806780e-01
  2.656399e+01    9.856676e-01
  2.657987e+01    1.001420e+00
  2.659574e+01    9.785038e-01
  2.661162e+01    9.625103e-01
  2.662749e+01    9.798154e-01
  2.664337e+01    9.757453e-01
  2.665924e+01    9.668769e-01
  2.667512e+01    9.574779e-01
  2.669100e+01    9.780850e-01
  2.670687e+01    9.634590e-01
  2.672275e+01    9.420205e-01
  2.673862e+01    9.545844e-01
  2.675450e+01    9.497826e-01
  2.677037e+01    9.701824e-01
  2.678625e+01    9.433568e-01
  2.680212e+01    9.491320e-01
  2.681800e+01    9.529877e-01
  2.683388e+01    9.692392e-01
  2.684975e+01    9.680636e-01
  2.686563e+01    9.752843e-01
  2.688150e+01    9.857545e-01
  2.689738e+01    9.696087e-01
  2.691325e+01    9.835030e-01
  2.692913e+01    1.009669e+00
  2.694501e+01    1.024651e+00
  2.696088e+01    1.031846e+00
  2.697676e+01    1.044021e+00
  2.699263e+01    1.071482e+00
  2.700851e+01    1.103442e+00
  2.702438e+01    1.143283e+00
  2.704026e+01    1.183366e+00
  2.705613e+01    1.226360e+00
  2.707201e+01    1.305385e+00
  2.708789e+01    1.443301e+00
  2.710376e+01    1.500403e+00
  2.711964e+01    1.568538e+00
  2.713551e+01    1.704073e+00
  2.715139e+01    1.800328e+00
  2.716726e+01    1.904142e+00
  2.718314e+01    2.055653e+00
  2.719901e+01    2.121356e+00
  2.721489e+01    2.124213e+00
  2.723077e+01    2.101777e+00
  2.724664e+01    2.065664e+00
  2.726252e+01    1.938879e+00
  2.727839e+01    1.809439e+00
  2.729427e+01    1.673742e+00
  2.731014e+01    1.543109e+00
  2.732602e+01    1.426569e+00
  2.734189e+01    1.330115e+00
  2.735777e+01    1.251439e+00
  2.737365e+01    1.183171e+00
  2.738952e+01    1.143129e+00
  2.740540e+01    1.127047e+00
  2.742127e+01    1.075225e+00
  2.743715e+01    1.045570e+00
  2.745302e+01    1.029777e+00
  2.746890e+01    1.008378e+00
  2.748477e+01    9.788773e-01
  2.750065e+01    9.799359e-01
  2.751653e+01    9.581208e-01
  2.753240e+01    9.587463e-01
  2.754828e+01    9.444517e-01
  2.756415e+01    9.254107e-01
  2.758003e+01    9.232166e-01
  2.759590e+01    9.173266e-01
  2.761178e+01    9.061269e-01
  2.762765e+01    9.225205e-01
  2.764353e+01    9.166812e-01
  2.765941e+01    8.982471e-01
  2.767528e+01    9.060000e-01
  2.769116e+01    8.970177e-01
  2.770703e+01    8.925972e-01
  2.772291e+01    9.007168e-01
  2.773878e+01    9.120774e-01
  2.775466e+01    8.834515e-01
  2.777054e+01    8.715414e-01
  2.778641e+01    8.805460e-01
  2.780229e+01    8.620111e-01
  2.781816e+01    8.699236e-01
  2.783404e+01    8.852854e-01
  2.784991e+01    8.690407e-01
  2.786579e+01    8.518832e-01
  2.788166e+01    8.566065e-01
  2.789754e+01    8.744396e-01
  2.791342e+01    8.670452e-01
  2.792929e+01    8.763230e-01
  2.794517e+01    8.764410e-01
  2.796104e+01    8.494653e-01
  2.797692e+01    8.593023e-01
  2.799279e+01    8.537414e-01
  2.800867e+01    8.545075e-01
  2.802454e+01    8.703429e-01
  2.804042e+01    8.844240e-01
  2.805630e+01    8.581195e-01
  2.807217e+01    8.470939e-01
  2.808805e+01    8.404518e-01
  2.810392e+01    8.429761e-01
  2.811980e+01    8.540053e-01
  2.813567e+01    8.368071e-01
  2.815155e+01    8.665912e-01
  2.816742e+01    8.418121e-01
  2.818330e+01    8.378608e-01
  2.819918e+01    8.313000e-01
  2.821505e+01    8.329263e-01
  2.823093e+01    8.398901e-01
  2.824680e+01    8.446729e-01
  2.826268e+01    8.311297e-01
  2.827855e+01    8.220928e-01
  2.829443e+01    8.402529e-01
  2.831030e+01    8.368974e-01
  2.832618e+01    8.232839e-01
  2.834206e+01    8.150179e-01
  2.835793e+01    8.422969e-01
  2.837381e+01    8.233616e-01
  2.838968e+01    8.348610e-01
  2.840556e+01    8.324379e-01
  2.842143e+01    8.056908e-01
  2.843731e+01    8.275747e-01
  2.845318e+01    8.133054e-01
  2.846906e+01    8.194999e-01
  2.848494e+01    8.389156e-01
  2.850081e+01    8.489610e-01
  2.851669e+01    8.262041e-01
  2.853256e+01    8.194082e-01
  2.854844e+01    8.127418e-01
  2.856431e+01    8.266739e-01
  2.858019e+01    8.389135e-01
  2.859606e+01    8.477549e-01
  2.861194e+01    8.269640e-01
  2.862782e+01    8.033386e-01
  2.864369e+01    8.067758e-01
  2.865957e+01    8.115931e-01
  2.867544e+01    8.208098e-01
  2.869132e+01    8.225425e-01
  2.870719e+01    8.026139e-01
  2.872307e+01    8.077534e-01
  2.873895e+01    8.197903e-01
  2.875482e+01    8.091916e-01
  2.877070e+01    8.233141e-01
  2.878657e+01    8.304101e-01
  2.880245e+01    8.010149e-01
  2.881832e+01    8.077067e-01
  2.883420e+01    8.166578e-01
  2.885007e+01    8.223370e-01
  2.886595e+01    8.316736e-01
  2.888183e+01    8.173384e-01
  2.889770e+01    8.256304e-01
  2.891358e+01    8.236603e-01
  2.892945e+01    7.962962e-01
  2.894533e+01    8.064223e-01
  2.896120e+01    8.191732e-01
  2.897708e+01    8.013072e-01
  2.899295e+01    8.115364e-01
  2.900883e+01    8.118349e-01
  2.902471e+01    8.054394e-01
  2.904058e+01    7.990902e-01
  2.905646e+01    8.076612e-01
  2.907233e+01    7.978643e-01
  2.908821e+01    7.966331e-01
  2.910408e+01    7.703277e-01
  2.911996e+01    7.879217e-01
  2.913583e+01    7.986487e-01
  2.915171e+01    7.981007e-01
  2.916759e+01    7.993834e-01
  2.918346e+01    7.927748e-01
  2.919934e+01    7.969950e-01
  2.921521e+01    8.048382e-01
  2.923109e+01    7.892075e-01
  2.924696e+01    8.130224e-01
  2.926284e+01    8.194342e-01
  2.927871e+01    8.023899e-01
  2.929459e+01    8.033801e-01
  2.931047e+01    7.983490e-01
  2.932634e+01    7.767589e-01
  2.934222e+01    8.031259e-01
  2.935809e+01    8.073532e-01
  2.937397e+01    7.878084e-01
  2.938984e+01    7.878767e-01
  2.940572e+01    8.061082e-01
  2.942159e+01    8.075078e-01
  2.943747e+01    7.940111e-01
  2.945335e+01    7.648389e-01
  2.946922e+01    7.746007e-01
  2.948510e+01    8.008308e-01
  2.950097e+01    8.022198e-01
  2.951685e+01    7.908068e-01
  2.953272e+01    7.872533e-01
  2.954860e+01    7.846343e-01
  2.956447e+01    8.032517e-01
  2.958035e+01    8.024558e-01
  2.959623e+01    7.750711e-01
  2.961210e+01    7.843913e-01
  2.962798e+01    7.951296e-01
  2.964385e+01    7.640336e-01
  2.965973e+01    7.940995e-01
  2.967560e+01    7.681584e-01
  2.969148e+01    7.679335e-01
  2.970736e+01    7.832462e-01
  2.972323e+01    7.867256e-01
  2.973911e+01    7.815576e-01
  2.975498e+01    8.035817e-01
  2.977086e+01    7.953140e-01
  2.978673e+01    7.897292e-01
  2.980261e+01    8.042781e-01
  2.981848e+01    8.031291e-01
  2.983436e+01    7.810177e-01
  2.985024e+01    7.782114e-01
  2.986611e+01    7.652999e-01
  2.988199e+01    7.784082e-01
  2.989786e+01    7.925161e-01
  2.991374e+01    7.853899e-01
  2.992961e+01    8.055468e-01
  2.994549e+01    7.737374e-01
  2.996136e+01    7.706648e-01
  2.997724e+01    8.026947e-01
  2.999312e+01    8.107525e-01
  3.000899e+01    8.210248e-01
  3.002487e+01    8.196180e-01
  3.004074e+01    7.999185e-01
  3.005662e+01    7.772037e-01
  3.007249e+01    7.961336e-01
  3.008837e+01    7.911217e-01
  3.010424e+01    8.050916e-01
  3.012012e+01    7.855219e-01
  3.013600e+01    7.838582e-01
  3.015187e+01    7.616187e-01
  3.016775e+01    7.734240e-01
  3.018362e+01    7.899545e-01
  3.019950e+01    7.946822e-01
  3.021537e+01    7.866591e-01
  3.023125e+01    7.734120e-01
  3.024712e+01    7.567592e-01
  3.026300e+01    7.618182e-01
  3.027888e+01    7.818276e-01
  3.029475e+01    7.736261e-01
  3.031063e+01    7.909707e-01
  3.032650e+01    7.691069e-01
  3.034238e+01    7.730286e-01
  3.035825e+01    7.603152e-01
  3.037413e+01    7.670317e-01
  3.039000e+01    7.873541e-01
  3.040588e+01    7.952594e-01
  3.042176e+01    7.777160e-01
  3.043763e+01    7.665718e-01
  3.045351e+01    7.806680e-01
  3.046938e+01    7.686222e-01
  3.048526e+01    7.744434e-01
  3.050113e+01    8.095878e-01
  3.051701e+01    7.854264e-01
  3.053288e+01    7.775465e-01
  3.054876e+01    7.488570e-01
  3.056464e+01    7.499611e-01
  3.058051e+01    7.679781e-01
  3.059639e+01    7.593350e-01
  3.061226e+01    7.554315e-01
  3.062814e+01    7.723227e-01
  3.064401e+01    7.520773e-01
  3.065989e+01    7.696061e-01
  3.067577e+01    7.727584e-01
  3.069164e+01    7.702560e-01
  3.070752e+01    7.872872e-01
  3.072339e+01    7.651629e-01
  3.073927e+01    7.730487e-01
  3.075514e+01    7.796298e-01
  3.077102e+01    7.766265e-01
  3.078689e+01    7.683296e-01
  3.080277e+01    7.629153e-01
  3.081865e+01    7.651492e-01
  3.083452e+01    7.494622e-01
  3.085040e+01    7.737830e-01
  3.086627e+01    7.659358e-01
  3.088215e+01    7.510628e-01
  3.089802e+01    7.758864e-01
  3.091390e+01    7.969039e-01
  3.092977e+01    7.763311e-01
  3.094565e+01    7.902079e-01
  3.096153e+01    7.821307e-01
  3.097740e+01    7.714371e-01
  3.099328e+01    7.804080e-01
  3.100915e+01    7.731948e-01
  3.102503e+01    7.817183e-01
  3.104090e+01    7.755007e-01
  3.105678e+01    7.748898e-01
  3.107265e+01    7.853668e-01
  3.108853e+01    7.906447e-01
  3.110441e+01    7.847247e-01
  3.112028e+01    7.711329e-01
  3.113616e+01    7.815710e-01
  3.115203e+01    7.892500e-01
  3.116791e+01    7.912740e-01
  3.118378e+01    7.557255e-01
  3.119966e+01    7.720425e-01
  3.121553e+01    8.043252e-01
  3.123141e+01    7.885628e-01
  3.124729e+01    7.719265e-01
  3.126316e+01    7.767183e-01
  3.127904e+01    7.828364e-01
  3.129491e+01    7.842739e-01
  3.131079e+01    7.972641e-01
  3.132666e+01    7.940867e-01
  3.134254e+01    7.915233e-01
  3.135841e+01    7.910718e-01
  3.137429e+01    7.865800e-01
  3.139017e+01    7.831121e-01
  3.140604e+01    7.959414e-01
  3.142192e+01    8.062076e-01
  3.143779e+01    7.849766e-01
  3.145367e+01    7.900496e-01
  3.146954e+01    8.126720e-01
  3.148542e+01    8.110127e-01
  3.150129e+01    8.218752e-01
  3.151717e+01    8.071567e-01
  3.153305e+01    8.185878e-01
  3.154892e+01    8.393625e-01
  3.156480e+01    8.459130e-01
  3.158067e+01    8.521731e-01
  3.159655e+01    8.715280e-01
  3.161242e+01    8.888499e-01
  3.162830e+01    8.840190e-01
  3.164418e+01    9.007853e-01
  3.166005e+01    9.091624e-01
  3.167593e+01    9.572406e-01
  3.169180e+01    9.717753e-01
  3.170768e+01    1.027928e+00
  3.172355e+01    1.060442e+00
  3.173943e+01    1.110436e+00
  3.175530e+01    1.183048e+00
  3.177118e+01    1.237356e+00
  3.178706e+01    1.348034e+00
  3.180293e+01    1.425443e+00
  3.181881e+01    1.570147e+00
  3.183468e+01    1.681079e+00
  3.185056e+01    1.799205e+00
  3.186643e+01    1.920804e+00
  3.188231e+01    1.982425e+00
  3.189818e+01    2.033232e+00
  3.191406e+01    2.045322e+00
  3.192994e+01    2.006699e+00
  3.194581e+01    1.887851e+00
  3.196169e+01    1.776336e+00
  3.197756e+01    1.651555e+00
  3.199344e+01    1.514220e+00
  3.200931e+01    1.393922e+00
  3.202519e+01    1.329326e+00
  3.204106e+01    1.214819e+00
  3.205694e+01    1.117548e+00
  3.207282e+01    1.078590e+00
  3.208869e+01    9.992988e-01
  3.210457e+01    9.704829e-01
  3.212044e+01    9.725302e-01
  3.213632e+01    9.584558e-01
  3.215219e+01    9.049960e-01
  3.216807e+01    8.936138e-01
  3.218394e+01    8.596841e-01
  3.219982e+01    8.645508e-01
  3.221570e+01    8.416179e-01
  3.223157e+01    8.527173e-01
  3.224745e+01    8.288085e-01
  3.226332e+01    8.032793e-01
  3.227920e+01    7.989091e-01
  3.229507e+01    8.167946e-01
  3.231095e+01    7.933176e-01
  3.232682e+01    7.740552e-01
  3.234270e+01    7.836778e-01
  3.235858e+01    7.941365e-01
  3.237445e+01    7.939115e-01
  3.239033e+01    7.734457e-01
  3.240620e+01    7.600909e-01
  3.242208e+01    7.785978e-01
  3.243795e+01    7.615800e-01
  3.245383e+01    7.773681e-01
  3.246970e+01    7.837857e-01
  3.248558e+01    7.569671e-01
  3.250146e+01    7.688349e-01
  3.251733e+01    7.520504e-01
  3.253321e+01    7.685589e-01
  3.254908e+01    7.825648e-01
