# == pyFAI calibration ==
# Distance Sample to Detector: 0.3999999939076516 m
# PONI: 9.750e-02, 1.135e-01 m
# Rotations: -0.000175 0.000000 -0.000000 rad
# 
# == Fit2d calibration ==
# Distance Sample-beamCenter: 400.000 mm
# Center: x=1514.000, y=1300.000 pix
# Tilt: 0.010 deg  TiltPlanRot: 0.010 deg
# 
# Detector Detector	 Spline= None	 PixelSize= 7.500e-05, 7.500e-05 m
#    Detector has a mask: False 
#    Detector has a dark current: False 
#    detector has a flat field: False 
# 
# Wavelength: 6.888e-11 m
# Mask applied: user provided
# Dark current applied: False
# Flat field applied: False
# Polarization factor: 0.99
# Normalization factor: 1.0
# --> /home/myspot/data/2024_07_Rosario/Ru-CGO-ex/2024-07-27_003_Ru-CGO-ex_Reaction_dwell_000023_data_000095.dat
#       q_nm^-1             I 
  2.003187e-02    2.226973e-02
  3.590745e-02    2.350680e-01
  5.178302e-02    1.659433e-01
  6.765859e-02    8.988760e-02
  8.353417e-02    5.005689e-02
  9.940974e-02    3.675246e-02
  1.152853e-01    1.798156e-02
  1.311609e-01    4.405557e-02
  1.470365e-01    2.769839e-02
  1.629120e-01    5.215107e-02
  1.787876e-01    1.522264e-02
  1.946632e-01    2.342154e-02
  2.105388e-01    2.526130e-02
  2.264143e-01    9.284407e-03
  2.422899e-01    3.184851e-02
  2.581655e-01    8.059275e-02
  2.740411e-01    5.185358e-02
  2.899166e-01    1.833248e-02
  3.057922e-01    6.590253e-02
  3.216678e-01    6.364019e-02
  3.375433e-01    1.850997e-02
  3.534189e-01    5.817780e-02
  3.692945e-01    4.615647e-02
  3.851701e-01    6.099615e-02
  4.010456e-01    4.631381e-02
  4.169212e-01    3.643496e-02
  4.327968e-01    2.592941e-02
  4.486724e-01    1.003544e-02
  4.645479e-01    6.224196e-02
  4.804235e-01    4.319744e-02
  4.962991e-01    1.498209e-02
  5.121747e-01    5.688188e-03
  5.280502e-01    1.978365e-02
  5.439258e-01    3.421408e-02
  5.598014e-01    6.992694e-02
  5.756770e-01    6.118777e-02
  5.915525e-01    7.191934e-02
  6.074281e-01    3.527585e-02
  6.233037e-01    3.711136e-02
  6.391793e-01    5.506048e-02
  6.550548e-01    6.148944e-02
  6.709304e-01    3.720801e-02
  6.868060e-01    3.487468e-02
  7.026815e-01    3.869997e-02
  7.185571e-01    2.371921e-02
  7.344327e-01    4.602676e-02
  7.503083e-01    6.885870e-02
  7.661838e-01    1.003158e-01
  7.820594e-01    1.127304e-01
  7.979350e-01    1.684296e-01
  8.138106e-01    2.753633e-01
  8.296861e-01    2.915581e-01
  8.455617e-01    3.708733e-01
  8.614373e-01    4.235853e-01
  8.773129e-01    4.881426e-01
  8.931884e-01    5.734675e-01
  9.090640e-01    6.839046e-01
  9.249396e-01    7.509409e-01
  9.408152e-01    8.478083e-01
  9.566907e-01    9.122234e-01
  9.725663e-01    1.049120e+00
  9.884419e-01    1.078399e+00
  1.004317e+00    1.195102e+00
  1.020193e+00    1.353005e+00
  1.036069e+00    1.398909e+00
  1.051944e+00    1.485576e+00
  1.067820e+00    1.589903e+00
  1.083695e+00    1.618002e+00
  1.099571e+00    1.563205e+00
  1.115446e+00    1.638807e+00
  1.131322e+00    1.657939e+00
  1.147198e+00    1.460229e+00
  1.163073e+00    1.534762e+00
  1.178949e+00    1.650049e+00
  1.194824e+00    1.873129e+00
  1.210700e+00    2.149884e+00
  1.226575e+00    2.276706e+00
  1.242451e+00    2.323954e+00
  1.258327e+00    2.421756e+00
  1.274202e+00    2.582790e+00
  1.290078e+00    2.645123e+00
  1.305953e+00    2.789405e+00
  1.321829e+00    2.786374e+00
  1.337705e+00    2.653641e+00
  1.353580e+00    2.701225e+00
  1.369456e+00    2.747051e+00
  1.385331e+00    2.643528e+00
  1.401207e+00    2.733775e+00
  1.417082e+00    2.914409e+00
  1.432958e+00    3.045546e+00
  1.448834e+00    2.929126e+00
  1.464709e+00    2.913265e+00
  1.480585e+00    3.172010e+00
  1.496460e+00    3.058342e+00
  1.512336e+00    2.945875e+00
  1.528211e+00    3.203209e+00
  1.544087e+00    3.134191e+00
  1.559963e+00    2.962006e+00
  1.575838e+00    3.071127e+00
  1.591714e+00    3.149765e+00
  1.607589e+00    3.199381e+00
  1.623465e+00    3.001690e+00
  1.639340e+00    3.136235e+00
  1.655216e+00    3.150064e+00
  1.671092e+00    2.995677e+00
  1.686967e+00    3.027549e+00
  1.702843e+00    3.207440e+00
  1.718718e+00    3.213029e+00
  1.734594e+00    3.121147e+00
  1.750469e+00    3.080763e+00
  1.766345e+00    3.043339e+00
  1.782221e+00    2.994607e+00
  1.798096e+00    3.005107e+00
  1.813972e+00    3.082373e+00
  1.829847e+00    3.176961e+00
  1.845723e+00    3.108805e+00
  1.861598e+00    3.102179e+00
  1.877474e+00    3.063373e+00
  1.893350e+00    3.030656e+00
  1.909225e+00    3.030588e+00
  1.925101e+00    3.081239e+00
  1.940976e+00    3.088583e+00
  1.956852e+00    3.097766e+00
  1.972727e+00    3.224146e+00
  1.988603e+00    3.052548e+00
  2.004479e+00    3.004917e+00
  2.020354e+00    3.039150e+00
  2.036230e+00    3.090772e+00
  2.052105e+00    3.156730e+00
  2.067981e+00    3.172611e+00
  2.083856e+00    3.116312e+00
  2.099732e+00    3.042133e+00
  2.115608e+00    3.087690e+00
  2.131483e+00    3.089034e+00
  2.147359e+00    3.111811e+00
  2.163234e+00    3.179421e+00
  2.179110e+00    3.196670e+00
  2.194985e+00    3.172578e+00
  2.210861e+00    3.118036e+00
  2.226737e+00    3.074369e+00
  2.242612e+00    3.174713e+00
  2.258488e+00    3.121022e+00
  2.274363e+00    3.079369e+00
  2.290239e+00    3.124090e+00
  2.306115e+00    3.198925e+00
  2.321990e+00    3.263464e+00
  2.337866e+00    3.144843e+00
  2.353741e+00    3.262728e+00
  2.369617e+00    3.256804e+00
  2.385492e+00    3.145388e+00
  2.401368e+00    3.105965e+00
  2.417244e+00    3.184278e+00
  2.433119e+00    3.193583e+00
  2.448995e+00    3.192308e+00
  2.464870e+00    3.173431e+00
  2.480746e+00    3.204500e+00
  2.496621e+00    3.251700e+00
  2.512497e+00    3.309487e+00
  2.528373e+00    3.323277e+00
  2.544248e+00    3.247640e+00
  2.560124e+00    3.142046e+00
  2.575999e+00    3.234074e+00
  2.591875e+00    3.185372e+00
  2.607750e+00    3.217234e+00
  2.623626e+00    3.221117e+00
  2.639502e+00    3.129381e+00
  2.655377e+00    3.268989e+00
  2.671253e+00    3.267814e+00
  2.687128e+00    3.238977e+00
  2.703004e+00    3.258131e+00
  2.718879e+00    3.241445e+00
  2.734755e+00    3.299425e+00
  2.750631e+00    3.318331e+00
  2.766506e+00    3.250327e+00
  2.782382e+00    3.225144e+00
  2.798257e+00    3.185577e+00
  2.814133e+00    3.260675e+00
  2.830008e+00    3.222679e+00
  2.845884e+00    3.224412e+00
  2.861760e+00    3.347785e+00
  2.877635e+00    3.295556e+00
  2.893511e+00    3.344646e+00
  2.909386e+00    3.223869e+00
  2.925262e+00    3.252119e+00
  2.941137e+00    3.220729e+00
  2.957013e+00    3.281440e+00
  2.972889e+00    3.383133e+00
  2.988764e+00    3.367645e+00
  3.004640e+00    3.422430e+00
  3.020515e+00    3.393656e+00
  3.036391e+00    3.400200e+00
  3.052266e+00    3.361954e+00
  3.068142e+00    3.358654e+00
  3.084018e+00    3.393754e+00
  3.099893e+00    3.278802e+00
  3.115769e+00    3.249526e+00
  3.131644e+00    3.270590e+00
  3.147520e+00    3.470725e+00
  3.163395e+00    3.462078e+00
  3.179271e+00    3.401143e+00
  3.195147e+00    3.301078e+00
  3.211022e+00    3.396705e+00
  3.226898e+00    3.432276e+00
  3.242773e+00    3.460172e+00
  3.258649e+00    3.388199e+00
  3.274525e+00    3.414524e+00
  3.290400e+00    3.401021e+00
  3.306276e+00    3.378360e+00
  3.322151e+00    3.325276e+00
  3.338027e+00    3.219527e+00
  3.353902e+00    3.298652e+00
  3.369778e+00    3.303336e+00
  3.385654e+00    3.295312e+00
  3.401529e+00    3.429152e+00
  3.417405e+00    3.451844e+00
  3.433280e+00    3.464997e+00
  3.449156e+00    3.429940e+00
  3.465031e+00    3.415732e+00
  3.480907e+00    3.391160e+00
  3.496783e+00    3.432462e+00
  3.512658e+00    3.431747e+00
  3.528534e+00    3.486894e+00
  3.544409e+00    3.485908e+00
  3.560285e+00    3.410195e+00
  3.576160e+00    3.533437e+00
  3.592036e+00    3.587591e+00
  3.607912e+00    3.397732e+00
  3.623787e+00    3.395285e+00
  3.639663e+00    3.403991e+00
  3.655538e+00    3.460883e+00
  3.671414e+00    3.531858e+00
  3.687289e+00    3.528160e+00
  3.703165e+00    3.530657e+00
  3.719041e+00    3.466043e+00
  3.734916e+00    3.384991e+00
  3.750792e+00    3.466225e+00
  3.766667e+00    3.523954e+00
  3.782543e+00    3.471279e+00
  3.798418e+00    3.509485e+00
  3.814294e+00    3.535207e+00
  3.830170e+00    3.483156e+00
  3.846045e+00    3.452719e+00
  3.861921e+00    3.440097e+00
  3.877796e+00    3.534877e+00
  3.893672e+00    3.506606e+00
  3.909547e+00    3.534051e+00
  3.925423e+00    3.582578e+00
  3.941299e+00    3.615060e+00
  3.957174e+00    3.566939e+00
  3.973050e+00    3.562521e+00
  3.988925e+00    3.510472e+00
  4.004801e+00    3.462206e+00
  4.020676e+00    3.555782e+00
  4.036552e+00    3.603054e+00
  4.052428e+00    3.601919e+00
  4.068303e+00    3.496844e+00
  4.084179e+00    3.457441e+00
  4.100054e+00    3.470956e+00
  4.115930e+00    3.506361e+00
  4.131806e+00    3.524867e+00
  4.147681e+00    3.489735e+00
  4.163557e+00    3.559101e+00
  4.179432e+00    3.601807e+00
  4.195308e+00    3.524602e+00
  4.211183e+00    3.520669e+00
  4.227059e+00    3.597744e+00
  4.242935e+00    3.585456e+00
  4.258810e+00    3.584671e+00
  4.274686e+00    3.580450e+00
  4.290561e+00    3.543539e+00
  4.306437e+00    3.572742e+00
  4.322312e+00    3.496785e+00
  4.338188e+00    3.510823e+00
  4.354064e+00    3.503953e+00
  4.369939e+00    3.574655e+00
  4.385815e+00    3.515651e+00
  4.401690e+00    3.585077e+00
  4.417566e+00    3.575830e+00
  4.433441e+00    3.576933e+00
  4.449317e+00    3.497000e+00
  4.465193e+00    3.508841e+00
  4.481068e+00    3.524062e+00
  4.496944e+00    3.602729e+00
  4.512819e+00    3.618317e+00
  4.528695e+00    3.652822e+00
  4.544570e+00    3.616319e+00
  4.560446e+00    3.682213e+00
  4.576322e+00    3.690497e+00
  4.592197e+00    3.653259e+00
  4.608073e+00    3.582636e+00
  4.623948e+00    3.592350e+00
  4.639824e+00    3.591482e+00
  4.655699e+00    3.603339e+00
  4.671575e+00    3.620818e+00
  4.687451e+00    3.635938e+00
  4.703326e+00    3.603565e+00
  4.719202e+00    3.617853e+00
  4.735077e+00    3.663081e+00
  4.750953e+00    3.663324e+00
  4.766828e+00    3.550794e+00
  4.782704e+00    3.625859e+00
  4.798580e+00    3.689753e+00
  4.814455e+00    3.710367e+00
  4.830331e+00    3.665961e+00
  4.846206e+00    3.624228e+00
  4.862082e+00    3.582404e+00
  4.877957e+00    3.603899e+00
  4.893833e+00    3.670261e+00
  4.909709e+00    3.601841e+00
  4.925584e+00    3.577132e+00
  4.941460e+00    3.561080e+00
  4.957335e+00    3.633591e+00
  4.973211e+00    3.644653e+00
  4.989086e+00    3.667023e+00
  5.004962e+00    3.618670e+00
  5.020838e+00    3.649411e+00
  5.036713e+00    3.692622e+00
  5.052589e+00    3.669785e+00
  5.068464e+00    3.581851e+00
  5.084340e+00    3.658517e+00
  5.100216e+00    3.746922e+00
  5.116091e+00    3.647554e+00
  5.131967e+00    3.675856e+00
  5.147842e+00    3.627953e+00
  5.163718e+00    3.691930e+00
  5.179593e+00    3.749118e+00
  5.195469e+00    3.664352e+00
  5.211345e+00    3.652470e+00
  5.227220e+00    3.663876e+00
  5.243096e+00    3.655771e+00
  5.258971e+00    3.670674e+00
  5.274847e+00    3.655618e+00
  5.290722e+00    3.637998e+00
  5.306598e+00    3.664584e+00
  5.322474e+00    3.688396e+00
  5.338349e+00    3.748406e+00
  5.354225e+00    3.674484e+00
  5.370100e+00    3.626690e+00
  5.385976e+00    3.652265e+00
  5.401851e+00    3.638987e+00
  5.417727e+00    3.623239e+00
  5.433603e+00    3.563432e+00
  5.449478e+00    3.670449e+00
  5.465354e+00    3.630775e+00
  5.481229e+00    3.567846e+00
  5.497105e+00    3.522748e+00
  5.512980e+00    3.595327e+00
  5.528856e+00    3.581655e+00
  5.544732e+00    3.564396e+00
  5.560607e+00    3.607805e+00
  5.576483e+00    3.609561e+00
  5.592358e+00    3.619758e+00
  5.608234e+00    3.642520e+00
  5.624109e+00    3.627132e+00
  5.639985e+00    3.650536e+00
  5.655861e+00    3.596461e+00
  5.671736e+00    3.647667e+00
  5.687612e+00    3.643847e+00
  5.703487e+00    3.629754e+00
  5.719363e+00    3.556338e+00
  5.735238e+00    3.588187e+00
  5.751114e+00    3.623382e+00
  5.766990e+00    3.613009e+00
  5.782865e+00    3.607973e+00
  5.798741e+00    3.619352e+00
  5.814616e+00    3.564756e+00
  5.830492e+00    3.543525e+00
  5.846367e+00    3.558341e+00
  5.862243e+00    3.581910e+00
  5.878119e+00    3.581617e+00
  5.893994e+00    3.496958e+00
  5.909870e+00    3.544778e+00
  5.925745e+00    3.600725e+00
  5.941621e+00    3.582699e+00
  5.957497e+00    3.509618e+00
  5.973372e+00    3.534083e+00
  5.989248e+00    3.570380e+00
  6.005123e+00    3.576854e+00
  6.020999e+00    3.613121e+00
  6.036874e+00    3.619876e+00
  6.052750e+00    3.519344e+00
  6.068626e+00    3.572458e+00
  6.084501e+00    3.588347e+00
  6.100377e+00    3.614644e+00
  6.116252e+00    3.572755e+00
  6.132128e+00    3.608325e+00
  6.148003e+00    3.602301e+00
  6.163879e+00    3.670378e+00
  6.179755e+00    3.568099e+00
  6.195630e+00    3.515980e+00
  6.211506e+00    3.504053e+00
  6.227381e+00    3.498233e+00
  6.243257e+00    3.562395e+00
  6.259132e+00    3.559677e+00
  6.275008e+00    3.541243e+00
  6.290884e+00    3.531771e+00
  6.306759e+00    3.541908e+00
  6.322635e+00    3.576989e+00
  6.338510e+00    3.590367e+00
  6.354386e+00    3.574334e+00
  6.370261e+00    3.573218e+00
  6.386137e+00    3.555119e+00
  6.402013e+00    3.569826e+00
  6.417888e+00    3.592758e+00
  6.433764e+00    3.531989e+00
  6.449639e+00    3.489110e+00
  6.465515e+00    3.590862e+00
  6.481390e+00    3.687453e+00
  6.497266e+00    3.684409e+00
  6.513142e+00    3.545453e+00
  6.529017e+00    3.506518e+00
  6.544893e+00    3.619471e+00
  6.560768e+00    3.620416e+00
  6.576644e+00    3.627074e+00
  6.592519e+00    3.613633e+00
  6.608395e+00    3.566207e+00
  6.624271e+00    3.564909e+00
  6.640146e+00    3.630641e+00
  6.656022e+00    3.620981e+00
  6.671897e+00    3.548903e+00
  6.687773e+00    3.528506e+00
  6.703648e+00    3.518004e+00
  6.719524e+00    3.528867e+00
  6.735400e+00    3.560698e+00
  6.751275e+00    3.570206e+00
  6.767151e+00    3.521215e+00
  6.783026e+00    3.519519e+00
  6.798902e+00    3.551609e+00
  6.814777e+00    3.549282e+00
  6.830653e+00    3.509677e+00
  6.846529e+00    3.579846e+00
  6.862404e+00    3.566937e+00
  6.878280e+00    3.532749e+00
  6.894155e+00    3.566760e+00
  6.910031e+00    3.550966e+00
  6.925907e+00    3.562628e+00
  6.941782e+00    3.521819e+00
  6.957658e+00    3.481095e+00
  6.973533e+00    3.519313e+00
  6.989409e+00    3.519243e+00
  7.005284e+00    3.560109e+00
  7.021160e+00    3.587876e+00
  7.037036e+00    3.626362e+00
  7.052911e+00    3.598542e+00
  7.068787e+00    3.498835e+00
  7.084662e+00    3.469659e+00
  7.100538e+00    3.459201e+00
  7.116413e+00    3.488322e+00
  7.132289e+00    3.497363e+00
  7.148165e+00    3.522255e+00
  7.164040e+00    3.546543e+00
  7.179916e+00    3.574996e+00
  7.195791e+00    3.557209e+00
  7.211667e+00    3.590795e+00
  7.227542e+00    3.508024e+00
  7.243418e+00    3.500977e+00
  7.259294e+00    3.592742e+00
  7.275169e+00    3.537896e+00
  7.291045e+00    3.508218e+00
  7.306920e+00    3.549889e+00
  7.322796e+00    3.524446e+00
  7.338671e+00    3.503165e+00
  7.354547e+00    3.487116e+00
  7.370423e+00    3.515674e+00
  7.386298e+00    3.465566e+00
  7.402174e+00    3.441625e+00
  7.418049e+00    3.474208e+00
  7.433925e+00    3.531832e+00
  7.449800e+00    3.540047e+00
  7.465676e+00    3.423251e+00
  7.481552e+00    3.418266e+00
  7.497427e+00    3.446572e+00
  7.513303e+00    3.469656e+00
  7.529178e+00    3.514854e+00
  7.545054e+00    3.512743e+00
  7.560929e+00    3.513498e+00
  7.576805e+00    3.545409e+00
  7.592681e+00    3.517756e+00
  7.608556e+00    3.466778e+00
  7.624432e+00    3.484330e+00
  7.640307e+00    3.438908e+00
  7.656183e+00    3.534144e+00
  7.672058e+00    3.474673e+00
  7.687934e+00    3.420373e+00
  7.703810e+00    3.409632e+00
  7.719685e+00    3.471246e+00
  7.735561e+00    3.426388e+00
  7.751436e+00    3.508928e+00
  7.767312e+00    3.575411e+00
  7.783187e+00    3.491524e+00
  7.799063e+00    3.468475e+00
  7.814939e+00    3.459143e+00
  7.830814e+00    3.443120e+00
  7.846690e+00    3.369431e+00
  7.862565e+00    3.370915e+00
  7.878441e+00    3.370440e+00
  7.894317e+00    3.425810e+00
  7.910192e+00    3.464349e+00
  7.926068e+00    3.472949e+00
  7.941943e+00    3.399632e+00
  7.957819e+00    3.433339e+00
  7.973694e+00    3.438272e+00
  7.989570e+00    3.431436e+00
  8.005446e+00    3.404199e+00
  8.021321e+00    3.388125e+00
  8.037197e+00    3.405022e+00
  8.053072e+00    3.412367e+00
  8.068948e+00    3.387317e+00
  8.084823e+00    3.469608e+00
  8.100699e+00    3.397356e+00
  8.116575e+00    3.476819e+00
  8.132450e+00    3.504118e+00
  8.148326e+00    3.446028e+00
  8.164201e+00    3.444621e+00
  8.180077e+00    3.452465e+00
  8.195952e+00    3.489086e+00
  8.211828e+00    3.497125e+00
  8.227704e+00    3.442271e+00
  8.243579e+00    3.457309e+00
  8.259455e+00    3.385831e+00
  8.275330e+00    3.392674e+00
  8.291206e+00    3.400294e+00
  8.307081e+00    3.354124e+00
  8.322957e+00    3.408250e+00
  8.338833e+00    3.409991e+00
  8.354708e+00    3.411667e+00
  8.370584e+00    3.425337e+00
  8.386459e+00    3.420092e+00
  8.402335e+00    3.420425e+00
  8.418210e+00    3.447407e+00
  8.434086e+00    3.380141e+00
  8.449962e+00    3.302782e+00
  8.465837e+00    3.376638e+00
  8.481713e+00    3.351018e+00
  8.497588e+00    3.396184e+00
  8.513464e+00    3.411509e+00
  8.529339e+00    3.391672e+00
  8.545215e+00    3.435654e+00
  8.561091e+00    3.356420e+00
  8.576966e+00    3.325277e+00
  8.592842e+00    3.406870e+00
  8.608717e+00    3.392061e+00
  8.624593e+00    3.374279e+00
  8.640468e+00    3.342764e+00
  8.656344e+00    3.378460e+00
  8.672220e+00    3.382450e+00
  8.688095e+00    3.350181e+00
  8.703971e+00    3.407178e+00
  8.719846e+00    3.402504e+00
  8.735722e+00    3.376686e+00
  8.751598e+00    3.326863e+00
  8.767473e+00    3.276625e+00
  8.783349e+00    3.346970e+00
  8.799224e+00    3.319167e+00
  8.815100e+00    3.311522e+00
  8.830975e+00    3.316815e+00
  8.846851e+00    3.337385e+00
  8.862727e+00    3.271120e+00
  8.878602e+00    3.293080e+00
  8.894478e+00    3.273935e+00
  8.910353e+00    3.325318e+00
  8.926229e+00    3.314194e+00
  8.942104e+00    3.257325e+00
  8.957980e+00    3.294485e+00
  8.973856e+00    3.259972e+00
  8.989731e+00    3.274686e+00
  9.005607e+00    3.299390e+00
  9.021482e+00    3.318266e+00
  9.037358e+00    3.319988e+00
  9.053233e+00    3.258293e+00
  9.069109e+00    3.266013e+00
  9.084985e+00    3.303262e+00
  9.100860e+00    3.276234e+00
  9.116736e+00    3.275620e+00
  9.132611e+00    3.266411e+00
  9.148487e+00    3.236687e+00
  9.164362e+00    3.203939e+00
  9.180238e+00    3.222318e+00
  9.196114e+00    3.327217e+00
  9.211989e+00    3.278455e+00
  9.227865e+00    3.282892e+00
  9.243740e+00    3.238518e+00
  9.259616e+00    3.275873e+00
  9.275491e+00    3.270180e+00
  9.291367e+00    3.273463e+00
  9.307243e+00    3.266812e+00
  9.323118e+00    3.196932e+00
  9.338994e+00    3.201731e+00
  9.354869e+00    3.183827e+00
  9.370745e+00    3.211749e+00
  9.386620e+00    3.236905e+00
  9.402496e+00    3.215086e+00
  9.418372e+00    3.144097e+00
  9.434247e+00    3.207101e+00
  9.450123e+00    3.210883e+00
  9.465998e+00    3.199807e+00
  9.481874e+00    3.178224e+00
  9.497749e+00    3.210440e+00
  9.513625e+00    3.216664e+00
  9.529501e+00    3.153550e+00
  9.545376e+00    3.189862e+00
  9.561252e+00    3.198404e+00
  9.577127e+00    3.159452e+00
  9.593003e+00    3.213323e+00
  9.608878e+00    3.228329e+00
  9.624754e+00    3.218416e+00
  9.640630e+00    3.230868e+00
  9.656505e+00    3.219616e+00
  9.672381e+00    3.198592e+00
  9.688256e+00    3.216972e+00
  9.704132e+00    3.169363e+00
  9.720008e+00    3.157247e+00
  9.735883e+00    3.179570e+00
  9.751759e+00    3.149840e+00
  9.767634e+00    3.159406e+00
  9.783510e+00    3.140900e+00
  9.799385e+00    3.146033e+00
  9.815261e+00    3.147938e+00
  9.831137e+00    3.162428e+00
  9.847012e+00    3.210323e+00
  9.862888e+00    3.213846e+00
  9.878763e+00    3.114048e+00
  9.894639e+00    3.109671e+00
  9.910514e+00    3.150563e+00
  9.926390e+00    3.175253e+00
  9.942266e+00    3.104167e+00
  9.958141e+00    3.073095e+00
  9.974017e+00    3.128076e+00
  9.989892e+00    3.180278e+00
  1.000577e+01    3.149984e+00
  1.002164e+01    3.073181e+00
  1.003752e+01    3.109122e+00
  1.005339e+01    3.139317e+00
  1.006927e+01    3.122664e+00
  1.008515e+01    3.096856e+00
  1.010102e+01    2.980502e+00
  1.011690e+01    3.042627e+00
  1.013277e+01    3.093872e+00
  1.014865e+01    3.097992e+00
  1.016452e+01    3.020394e+00
  1.018040e+01    3.082181e+00
  1.019627e+01    3.151445e+00
  1.021215e+01    3.076667e+00
  1.022803e+01    3.079603e+00
  1.024390e+01    3.043007e+00
  1.025978e+01    3.036890e+00
  1.027565e+01    2.999810e+00
  1.029153e+01    2.974320e+00
  1.030740e+01    2.972064e+00
  1.032328e+01    2.983577e+00
  1.033915e+01    3.010632e+00
  1.035503e+01    3.069515e+00
  1.037091e+01    3.071720e+00
  1.038678e+01    3.038605e+00
  1.040266e+01    3.009840e+00
  1.041853e+01    3.079930e+00
  1.043441e+01    3.114317e+00
  1.045028e+01    2.998409e+00
  1.046616e+01    2.977246e+00
  1.048204e+01    2.983627e+00
  1.049791e+01    3.001686e+00
  1.051379e+01    3.007999e+00
  1.052966e+01    3.002446e+00
  1.054554e+01    2.979257e+00
  1.056141e+01    3.001848e+00
  1.057729e+01    2.995158e+00
  1.059316e+01    3.007673e+00
  1.060904e+01    2.977502e+00
  1.062492e+01    2.999959e+00
  1.064079e+01    3.042904e+00
  1.065667e+01    2.980272e+00
  1.067254e+01    2.952193e+00
  1.068842e+01    2.941214e+00
  1.070429e+01    2.915749e+00
  1.072017e+01    2.949294e+00
  1.073604e+01    2.982384e+00
  1.075192e+01    2.928668e+00
  1.076780e+01    2.969030e+00
  1.078367e+01    2.970863e+00
  1.079955e+01    2.945034e+00
  1.081542e+01    2.874868e+00
  1.083130e+01    2.935759e+00
  1.084717e+01    2.934158e+00
  1.086305e+01    2.917295e+00
  1.087892e+01    2.853032e+00
  1.089480e+01    2.892598e+00
  1.091068e+01    2.873506e+00
  1.092655e+01    2.890203e+00
  1.094243e+01    2.908961e+00
  1.095830e+01    2.933399e+00
  1.097418e+01    2.972223e+00
  1.099005e+01    2.945002e+00
  1.100593e+01    2.916812e+00
  1.102180e+01    2.893730e+00
  1.103768e+01    2.888654e+00
  1.105356e+01    2.907334e+00
  1.106943e+01    2.912652e+00
  1.108531e+01    2.903424e+00
  1.110118e+01    2.904762e+00
  1.111706e+01    2.890563e+00
  1.113293e+01    2.879240e+00
  1.114881e+01    2.887620e+00
  1.116468e+01    2.872030e+00
  1.118056e+01    2.858833e+00
  1.119644e+01    2.837698e+00
  1.121231e+01    2.803225e+00
  1.122819e+01    2.837405e+00
  1.124406e+01    2.849058e+00
  1.125994e+01    2.854868e+00
  1.127581e+01    2.879381e+00
  1.129169e+01    2.898756e+00
  1.130756e+01    2.876477e+00
  1.132344e+01    2.837640e+00
  1.133932e+01    2.818041e+00
  1.135519e+01    2.849628e+00
  1.137107e+01    2.862615e+00
  1.138694e+01    2.847148e+00
  1.140282e+01    2.824649e+00
  1.141869e+01    2.830179e+00
  1.143457e+01    2.799511e+00
  1.145045e+01    2.799969e+00
  1.146632e+01    2.751813e+00
  1.148220e+01    2.735827e+00
  1.149807e+01    2.796821e+00
  1.151395e+01    2.822140e+00
  1.152982e+01    2.776373e+00
  1.154570e+01    2.752813e+00
  1.156157e+01    2.770627e+00
  1.157745e+01    2.792924e+00
  1.159333e+01    2.828127e+00
  1.160920e+01    2.813605e+00
  1.162508e+01    2.786896e+00
  1.164095e+01    2.772187e+00
  1.165683e+01    2.844429e+00
  1.167270e+01    2.763675e+00
  1.168858e+01    2.749491e+00
  1.170445e+01    2.759818e+00
  1.172033e+01    2.819045e+00
  1.173621e+01    2.819535e+00
  1.175208e+01    2.755818e+00
  1.176796e+01    2.751863e+00
  1.178383e+01    2.674585e+00
  1.179971e+01    2.720250e+00
  1.181558e+01    2.754015e+00
  1.183146e+01    2.738884e+00
  1.184733e+01    2.782265e+00
  1.186321e+01    2.736913e+00
  1.187909e+01    2.706920e+00
  1.189496e+01    2.741302e+00
  1.191084e+01    2.724552e+00
  1.192671e+01    2.673031e+00
  1.194259e+01    2.654029e+00
  1.195846e+01    2.711511e+00
  1.197434e+01    2.745238e+00
  1.199021e+01    2.690556e+00
  1.200609e+01    2.686970e+00
  1.202197e+01    2.708908e+00
  1.203784e+01    2.749815e+00
  1.205372e+01    2.743340e+00
  1.206959e+01    2.722635e+00
  1.208547e+01    2.681746e+00
  1.210134e+01    2.671056e+00
  1.211722e+01    2.682860e+00
  1.213309e+01    2.707828e+00
  1.214897e+01    2.691916e+00
  1.216485e+01    2.687225e+00
  1.218072e+01    2.703317e+00
  1.219660e+01    2.666109e+00
  1.221247e+01    2.697674e+00
  1.222835e+01    2.703429e+00
  1.224422e+01    2.711864e+00
  1.226010e+01    2.683452e+00
  1.227597e+01    2.696560e+00
  1.229185e+01    2.669427e+00
  1.230773e+01    2.701426e+00
  1.232360e+01    2.729444e+00
  1.233948e+01    2.648644e+00
  1.235535e+01    2.666719e+00
  1.237123e+01    2.743556e+00
  1.238710e+01    2.730966e+00
  1.240298e+01    2.679000e+00
  1.241886e+01    2.710185e+00
  1.243473e+01    2.730542e+00
  1.245061e+01    2.686613e+00
  1.246648e+01    2.685821e+00
  1.248236e+01    2.712087e+00
  1.249823e+01    2.701195e+00
  1.251411e+01    2.684799e+00
  1.252998e+01    2.698138e+00
  1.254586e+01    2.687510e+00
  1.256174e+01    2.678220e+00
  1.257761e+01    2.762226e+00
  1.259349e+01    2.795219e+00
  1.260936e+01    2.778673e+00
  1.262524e+01    2.706284e+00
  1.264111e+01    2.719451e+00
  1.265699e+01    2.789674e+00
  1.267286e+01    2.803423e+00
  1.268874e+01    2.830614e+00
  1.270462e+01    2.823387e+00
  1.272049e+01    2.864769e+00
  1.273637e+01    2.841043e+00
  1.275224e+01    2.875491e+00
  1.276812e+01    2.911271e+00
  1.278399e+01    2.941575e+00
  1.279987e+01    2.988219e+00
  1.281574e+01    2.996742e+00
  1.283162e+01    3.085273e+00
  1.284750e+01    3.188923e+00
  1.286337e+01    3.247896e+00
  1.287925e+01    3.363672e+00
  1.289512e+01    3.527871e+00
  1.291100e+01    3.593749e+00
  1.292687e+01    3.812464e+00
  1.294275e+01    4.096205e+00
  1.295862e+01    4.450871e+00
  1.297450e+01    4.783155e+00
  1.299038e+01    5.216699e+00
  1.300625e+01    5.820184e+00
  1.302213e+01    6.602854e+00
  1.303800e+01    7.595421e+00
  1.305388e+01    8.716964e+00
  1.306975e+01    1.006842e+01
  1.308563e+01    1.141035e+01
  1.310150e+01    1.261473e+01
  1.311738e+01    1.371194e+01
  1.313326e+01    1.472973e+01
  1.314913e+01    1.557879e+01
  1.316501e+01    1.619755e+01
  1.318088e+01    1.623890e+01
  1.319676e+01    1.546496e+01
  1.321263e+01    1.418838e+01
  1.322851e+01    1.246878e+01
  1.324438e+01    1.071677e+01
  1.326026e+01    9.110519e+00
  1.327614e+01    7.851354e+00
  1.329201e+01    6.775192e+00
  1.330789e+01    5.892545e+00
  1.332376e+01    5.341893e+00
  1.333964e+01    4.848895e+00
  1.335551e+01    4.420866e+00
  1.337139e+01    4.109601e+00
  1.338727e+01    3.862799e+00
  1.340314e+01    3.610251e+00
  1.341902e+01    3.458511e+00
  1.343489e+01    3.334414e+00
  1.345077e+01    3.200446e+00
  1.346664e+01    3.140458e+00
  1.348252e+01    3.136715e+00
  1.349839e+01    2.979511e+00
  1.351427e+01    2.893109e+00
  1.353015e+01    2.830249e+00
  1.354602e+01    2.802477e+00
  1.356190e+01    2.780412e+00
  1.357777e+01    2.721106e+00
  1.359365e+01    2.706162e+00
  1.360952e+01    2.686060e+00
  1.362540e+01    2.669479e+00
  1.364127e+01    2.612672e+00
  1.365715e+01    2.612415e+00
  1.367303e+01    2.583439e+00
  1.368890e+01    2.583516e+00
  1.370478e+01    2.538986e+00
  1.372065e+01    2.510631e+00
  1.373653e+01    2.550751e+00
  1.375240e+01    2.538242e+00
  1.376828e+01    2.502253e+00
  1.378415e+01    2.469261e+00
  1.380003e+01    2.469786e+00
  1.381591e+01    2.469054e+00
  1.383178e+01    2.496136e+00
  1.384766e+01    2.434439e+00
  1.386353e+01    2.400677e+00
  1.387941e+01    2.428716e+00
  1.389528e+01    2.409482e+00
  1.391116e+01    2.363337e+00
  1.392703e+01    2.358995e+00
  1.394291e+01    2.365033e+00
  1.395879e+01    2.393791e+00
  1.397466e+01    2.379366e+00
  1.399054e+01    2.412339e+00
  1.400641e+01    2.399042e+00
  1.402229e+01    2.414273e+00
  1.403816e+01    2.345080e+00
  1.405404e+01    2.350511e+00
  1.406991e+01    2.309736e+00
  1.408579e+01    2.314497e+00
  1.410167e+01    2.323584e+00
  1.411754e+01    2.293820e+00
  1.413342e+01    2.295512e+00
  1.414929e+01    2.322259e+00
  1.416517e+01    2.327449e+00
  1.418104e+01    2.377044e+00
  1.419692e+01    2.333456e+00
  1.421279e+01    2.287683e+00
  1.422867e+01    2.267670e+00
  1.424455e+01    2.278199e+00
  1.426042e+01    2.267498e+00
  1.427630e+01    2.298181e+00
  1.429217e+01    2.262343e+00
  1.430805e+01    2.271589e+00
  1.432392e+01    2.280444e+00
  1.433980e+01    2.254782e+00
  1.435568e+01    2.216188e+00
  1.437155e+01    2.215634e+00
  1.438743e+01    2.241132e+00
  1.440330e+01    2.230093e+00
  1.441918e+01    2.237172e+00
  1.443505e+01    2.216096e+00
  1.445093e+01    2.264003e+00
  1.446680e+01    2.252829e+00
  1.448268e+01    2.212660e+00
  1.449856e+01    2.235971e+00
  1.451443e+01    2.253509e+00
  1.453031e+01    2.239902e+00
  1.454618e+01    2.243605e+00
  1.456206e+01    2.221070e+00
  1.457793e+01    2.250177e+00
  1.459381e+01    2.258753e+00
  1.460968e+01    2.253037e+00
  1.462556e+01    2.220561e+00
  1.464144e+01    2.192014e+00
  1.465731e+01    2.198493e+00
  1.467319e+01    2.196724e+00
  1.468906e+01    2.197050e+00
  1.470494e+01    2.236455e+00
  1.472081e+01    2.226472e+00
  1.473669e+01    2.223369e+00
  1.475256e+01    2.231009e+00
  1.476844e+01    2.201924e+00
  1.478432e+01    2.206676e+00
  1.480019e+01    2.180879e+00
  1.481607e+01    2.207336e+00
  1.483194e+01    2.227746e+00
  1.484782e+01    2.174744e+00
  1.486369e+01    2.185957e+00
  1.487957e+01    2.219551e+00
  1.489544e+01    2.235236e+00
  1.491132e+01    2.223909e+00
  1.492720e+01    2.266927e+00
  1.494307e+01    2.321314e+00
  1.495895e+01    2.311138e+00
  1.497482e+01    2.328440e+00
  1.499070e+01    2.402328e+00
  1.500657e+01    2.468278e+00
  1.502245e+01    2.525047e+00
  1.503832e+01    2.612095e+00
  1.505420e+01    2.703598e+00
  1.507008e+01    2.787048e+00
  1.508595e+01    2.960127e+00
  1.510183e+01    3.220490e+00
  1.511770e+01    3.541603e+00
  1.513358e+01    3.834628e+00
  1.514945e+01    4.188282e+00
  1.516533e+01    4.532352e+00
  1.518120e+01    4.893037e+00
  1.519708e+01    5.195653e+00
  1.521296e+01    5.398609e+00
  1.522883e+01    5.593173e+00
  1.524471e+01    5.781930e+00
  1.526058e+01    5.837111e+00
  1.527646e+01    5.707315e+00
  1.529233e+01    5.441309e+00
  1.530821e+01    5.078838e+00
  1.532409e+01    4.582987e+00
  1.533996e+01    4.156023e+00
  1.535584e+01    3.760947e+00
  1.537171e+01    3.440454e+00
  1.538759e+01    3.163917e+00
  1.540346e+01    2.991418e+00
  1.541934e+01    2.784170e+00
  1.543521e+01    2.633725e+00
  1.545109e+01    2.513558e+00
  1.546697e+01    2.365726e+00
  1.548284e+01    2.335821e+00
  1.549872e+01    2.342481e+00
  1.551459e+01    2.296724e+00
  1.553047e+01    2.222612e+00
  1.554634e+01    2.144521e+00
  1.556222e+01    2.141463e+00
  1.557809e+01    2.131747e+00
  1.559397e+01    2.120595e+00
  1.560985e+01    2.084856e+00
  1.562572e+01    2.084919e+00
  1.564160e+01    2.055241e+00
  1.565747e+01    2.035930e+00
  1.567335e+01    2.009131e+00
  1.568922e+01    1.992637e+00
  1.570510e+01    1.992349e+00
  1.572097e+01    1.986360e+00
  1.573685e+01    1.973333e+00
  1.575273e+01    1.934922e+00
  1.576860e+01    1.927899e+00
  1.578448e+01    1.971719e+00
  1.580035e+01    1.905792e+00
  1.581623e+01    1.890263e+00
  1.583210e+01    1.920735e+00
  1.584798e+01    1.923116e+00
  1.586385e+01    1.894136e+00
  1.587973e+01    1.909615e+00
  1.589561e+01    1.941205e+00
  1.591148e+01    1.889151e+00
  1.592736e+01    1.879683e+00
  1.594323e+01    1.896928e+00
  1.595911e+01    1.886540e+00
  1.597498e+01    1.902918e+00
  1.599086e+01    1.899903e+00
  1.600673e+01    1.893402e+00
  1.602261e+01    1.904137e+00
  1.603849e+01    1.876440e+00
  1.605436e+01    1.873405e+00
  1.607024e+01    1.861098e+00
  1.608611e+01    1.875678e+00
  1.610199e+01    1.853501e+00
  1.611786e+01    1.854836e+00
  1.613374e+01    1.853644e+00
  1.614961e+01    1.839414e+00
  1.616549e+01    1.801026e+00
  1.618137e+01    1.831012e+00
  1.619724e+01    1.832249e+00
  1.621312e+01    1.815105e+00
  1.622899e+01    1.824517e+00
  1.624487e+01    1.820347e+00
  1.626074e+01    1.808244e+00
  1.627662e+01    1.786334e+00
  1.629250e+01    1.788682e+00
  1.630837e+01    1.786447e+00
  1.632425e+01    1.802779e+00
  1.634012e+01    1.805898e+00
  1.635600e+01    1.784183e+00
  1.637187e+01    1.779803e+00
  1.638775e+01    1.771109e+00
  1.640362e+01    1.753951e+00
  1.641950e+01    1.766981e+00
  1.643538e+01    1.786582e+00
  1.645125e+01    1.743826e+00
  1.646713e+01    1.748373e+00
  1.648300e+01    1.766867e+00
  1.649888e+01    1.761412e+00
  1.651475e+01    1.774861e+00
  1.653063e+01    1.745497e+00
  1.654650e+01    1.719135e+00
  1.656238e+01    1.720845e+00
  1.657826e+01    1.742616e+00
  1.659413e+01    1.729394e+00
  1.661001e+01    1.704071e+00
  1.662588e+01    1.687854e+00
  1.664176e+01    1.711728e+00
  1.665763e+01    1.715300e+00
  1.667351e+01    1.726755e+00
  1.668938e+01    1.692019e+00
  1.670526e+01    1.715312e+00
  1.672114e+01    1.682278e+00
  1.673701e+01    1.710376e+00
  1.675289e+01    1.736230e+00
  1.676876e+01    1.708440e+00
  1.678464e+01    1.706841e+00
  1.680051e+01    1.713203e+00
  1.681639e+01    1.721179e+00
  1.683226e+01    1.692491e+00
  1.684814e+01    1.687110e+00
  1.686402e+01    1.653408e+00
  1.687989e+01    1.660855e+00
  1.689577e+01    1.683782e+00
  1.691164e+01    1.666296e+00
  1.692752e+01    1.671535e+00
  1.694339e+01    1.712607e+00
  1.695927e+01    1.669477e+00
  1.697514e+01    1.694991e+00
  1.699102e+01    1.686920e+00
  1.700690e+01    1.661778e+00
  1.702277e+01    1.690270e+00
  1.703865e+01    1.674703e+00
  1.705452e+01    1.669142e+00
  1.707040e+01    1.678706e+00
  1.708627e+01    1.647943e+00
  1.710215e+01    1.673367e+00
  1.711802e+01    1.637984e+00
  1.713390e+01    1.613074e+00
  1.714978e+01    1.636736e+00
  1.716565e+01    1.672997e+00
  1.718153e+01    1.672434e+00
  1.719740e+01    1.621332e+00
  1.721328e+01    1.641737e+00
  1.722915e+01    1.636721e+00
  1.724503e+01    1.635474e+00
  1.726091e+01    1.600308e+00
  1.727678e+01    1.598952e+00
  1.729266e+01    1.633380e+00
  1.730853e+01    1.621309e+00
  1.732441e+01    1.572181e+00
  1.734028e+01    1.616100e+00
  1.735616e+01    1.612616e+00
  1.737203e+01    1.605221e+00
  1.738791e+01    1.616506e+00
  1.740379e+01    1.587581e+00
  1.741966e+01    1.570434e+00
  1.743554e+01    1.603645e+00
  1.745141e+01    1.600892e+00
  1.746729e+01    1.607536e+00
  1.748316e+01    1.573497e+00
  1.749904e+01    1.583694e+00
  1.751491e+01    1.589063e+00
  1.753079e+01    1.596952e+00
  1.754667e+01    1.564273e+00
  1.756254e+01    1.554983e+00
  1.757842e+01    1.531322e+00
  1.759429e+01    1.586496e+00
  1.761017e+01    1.594924e+00
  1.762604e+01    1.569938e+00
  1.764192e+01    1.543794e+00
  1.765779e+01    1.547264e+00
  1.767367e+01    1.564541e+00
  1.768955e+01    1.553893e+00
  1.770542e+01    1.562136e+00
  1.772130e+01    1.544097e+00
  1.773717e+01    1.548911e+00
  1.775305e+01    1.541877e+00
  1.776892e+01    1.538126e+00
  1.778480e+01    1.562609e+00
  1.780067e+01    1.539349e+00
  1.781655e+01    1.549412e+00
  1.783243e+01    1.582829e+00
  1.784830e+01    1.551475e+00
  1.786418e+01    1.567184e+00
  1.788005e+01    1.544744e+00
  1.789593e+01    1.517083e+00
  1.791180e+01    1.500888e+00
  1.792768e+01    1.493161e+00
  1.794355e+01    1.504401e+00
  1.795943e+01    1.484185e+00
  1.797531e+01    1.505004e+00
  1.799118e+01    1.487867e+00
  1.800706e+01    1.505292e+00
  1.802293e+01    1.503844e+00
  1.803881e+01    1.505925e+00
  1.805468e+01    1.486345e+00
  1.807056e+01    1.524926e+00
  1.808643e+01    1.537281e+00
  1.810231e+01    1.485357e+00
  1.811819e+01    1.471830e+00
  1.813406e+01    1.494038e+00
  1.814994e+01    1.479332e+00
  1.816581e+01    1.483753e+00
  1.818169e+01    1.505959e+00
  1.819756e+01    1.500888e+00
  1.821344e+01    1.480871e+00
  1.822932e+01    1.471123e+00
  1.824519e+01    1.485983e+00
  1.826107e+01    1.494214e+00
  1.827694e+01    1.508700e+00
  1.829282e+01    1.462369e+00
  1.830869e+01    1.484593e+00
  1.832457e+01    1.463738e+00
  1.834044e+01    1.462588e+00
  1.835632e+01    1.450055e+00
  1.837220e+01    1.444181e+00
  1.838807e+01    1.469347e+00
  1.840395e+01    1.479072e+00
  1.841982e+01    1.456025e+00
  1.843570e+01    1.436052e+00
  1.845157e+01    1.446095e+00
  1.846745e+01    1.454962e+00
  1.848332e+01    1.432872e+00
  1.849920e+01    1.442050e+00
  1.851508e+01    1.443557e+00
  1.853095e+01    1.457932e+00
  1.854683e+01    1.460386e+00
  1.856270e+01    1.446153e+00
  1.857858e+01    1.453003e+00
  1.859445e+01    1.477971e+00
  1.861033e+01    1.439689e+00
  1.862620e+01    1.437589e+00
  1.864208e+01    1.410140e+00
  1.865796e+01    1.437873e+00
  1.867383e+01    1.439488e+00
  1.868971e+01    1.441026e+00
  1.870558e+01    1.418344e+00
  1.872146e+01    1.412932e+00
  1.873733e+01    1.418768e+00
  1.875321e+01    1.413884e+00
  1.876908e+01    1.430393e+00
  1.878496e+01    1.412997e+00
  1.880084e+01    1.396877e+00
  1.881671e+01    1.408151e+00
  1.883259e+01    1.407788e+00
  1.884846e+01    1.413140e+00
  1.886434e+01    1.403818e+00
  1.888021e+01    1.418592e+00
  1.889609e+01    1.411361e+00
  1.891196e+01    1.396149e+00
  1.892784e+01    1.374367e+00
  1.894372e+01    1.360882e+00
  1.895959e+01    1.409424e+00
  1.897547e+01    1.386133e+00
  1.899134e+01    1.389900e+00
  1.900722e+01    1.393627e+00
  1.902309e+01    1.373658e+00
  1.903897e+01    1.363567e+00
  1.905484e+01    1.386557e+00
  1.907072e+01    1.352793e+00
  1.908660e+01    1.363926e+00
  1.910247e+01    1.379123e+00
  1.911835e+01    1.373158e+00
  1.913422e+01    1.373140e+00
  1.915010e+01    1.386678e+00
  1.916597e+01    1.366712e+00
  1.918185e+01    1.363389e+00
  1.919773e+01    1.379381e+00
  1.921360e+01    1.357050e+00
  1.922948e+01    1.351493e+00
  1.924535e+01    1.345989e+00
  1.926123e+01    1.359477e+00
  1.927710e+01    1.368895e+00
  1.929298e+01    1.363519e+00
  1.930885e+01    1.356746e+00
  1.932473e+01    1.332028e+00
  1.934061e+01    1.325765e+00
  1.935648e+01    1.313554e+00
  1.937236e+01    1.340008e+00
  1.938823e+01    1.350570e+00
  1.940411e+01    1.326591e+00
  1.941998e+01    1.323802e+00
  1.943586e+01    1.305581e+00
  1.945173e+01    1.344183e+00
  1.946761e+01    1.324415e+00
  1.948349e+01    1.334446e+00
  1.949936e+01    1.342530e+00
  1.951524e+01    1.318327e+00
  1.953111e+01    1.316887e+00
  1.954699e+01    1.329905e+00
  1.956286e+01    1.310783e+00
  1.957874e+01    1.330867e+00
  1.959461e+01    1.323024e+00
  1.961049e+01    1.291244e+00
  1.962637e+01    1.315415e+00
  1.964224e+01    1.349787e+00
  1.965812e+01    1.327472e+00
  1.967399e+01    1.290450e+00
  1.968987e+01    1.291672e+00
  1.970574e+01    1.307325e+00
  1.972162e+01    1.287247e+00
  1.973749e+01    1.325889e+00
  1.975337e+01    1.317330e+00
  1.976925e+01    1.282185e+00
  1.978512e+01    1.310145e+00
  1.980100e+01    1.309785e+00
  1.981687e+01    1.292205e+00
  1.983275e+01    1.286973e+00
  1.984862e+01    1.291512e+00
  1.986450e+01    1.279023e+00
  1.988037e+01    1.279372e+00
  1.989625e+01    1.290751e+00
  1.991213e+01    1.293423e+00
  1.992800e+01    1.268695e+00
  1.994388e+01    1.294039e+00
  1.995975e+01    1.299566e+00
  1.997563e+01    1.287941e+00
  1.999150e+01    1.271001e+00
  2.000738e+01    1.254938e+00
  2.002325e+01    1.277930e+00
  2.003913e+01    1.283468e+00
  2.005501e+01    1.254290e+00
  2.007088e+01    1.258352e+00
  2.008676e+01    1.293376e+00
  2.010263e+01    1.279040e+00
  2.011851e+01    1.268699e+00
  2.013438e+01    1.279883e+00
  2.015026e+01    1.276391e+00
  2.016614e+01    1.279525e+00
  2.018201e+01    1.280245e+00
  2.019789e+01    1.260104e+00
  2.021376e+01    1.268056e+00
  2.022964e+01    1.255014e+00
  2.024551e+01    1.271801e+00
  2.026139e+01    1.291452e+00
  2.027726e+01    1.245722e+00
  2.029314e+01    1.268937e+00
  2.030902e+01    1.273602e+00
  2.032489e+01    1.255965e+00
  2.034077e+01    1.253301e+00
  2.035664e+01    1.245306e+00
  2.037252e+01    1.259931e+00
  2.038839e+01    1.274877e+00
  2.040427e+01    1.270152e+00
  2.042014e+01    1.247228e+00
  2.043602e+01    1.245528e+00
  2.045190e+01    1.242602e+00
  2.046777e+01    1.241631e+00
  2.048365e+01    1.248629e+00
  2.049952e+01    1.240714e+00
  2.051540e+01    1.260697e+00
  2.053127e+01    1.239043e+00
  2.054715e+01    1.243983e+00
  2.056302e+01    1.251761e+00
  2.057890e+01    1.239836e+00
  2.059478e+01    1.235052e+00
  2.061065e+01    1.221376e+00
  2.062653e+01    1.213157e+00
  2.064240e+01    1.233695e+00
  2.065828e+01    1.221158e+00
  2.067415e+01    1.226415e+00
  2.069003e+01    1.214869e+00
  2.070590e+01    1.228315e+00
  2.072178e+01    1.214844e+00
  2.073766e+01    1.219157e+00
  2.075353e+01    1.239542e+00
  2.076941e+01    1.208448e+00
  2.078528e+01    1.203917e+00
  2.080116e+01    1.230773e+00
  2.081703e+01    1.209615e+00
  2.083291e+01    1.228555e+00
  2.084878e+01    1.245103e+00
  2.086466e+01    1.235847e+00
  2.088054e+01    1.227976e+00
  2.089641e+01    1.214909e+00
  2.091229e+01    1.204677e+00
  2.092816e+01    1.229547e+00
  2.094404e+01    1.235150e+00
  2.095991e+01    1.207854e+00
  2.097579e+01    1.221309e+00
  2.099166e+01    1.209278e+00
  2.100754e+01    1.209448e+00
  2.102342e+01    1.193002e+00
  2.103929e+01    1.224305e+00
  2.105517e+01    1.243804e+00
  2.107104e+01    1.243547e+00
  2.108692e+01    1.219100e+00
  2.110279e+01    1.227801e+00
  2.111867e+01    1.230366e+00
  2.113455e+01    1.233657e+00
  2.115042e+01    1.239713e+00
  2.116630e+01    1.229542e+00
  2.118217e+01    1.228182e+00
  2.119805e+01    1.223119e+00
  2.121392e+01    1.271583e+00
  2.122980e+01    1.251819e+00
  2.124567e+01    1.233891e+00
  2.126155e+01    1.227629e+00
  2.127743e+01    1.253366e+00
  2.129330e+01    1.245371e+00
  2.130918e+01    1.253675e+00
  2.132505e+01    1.259115e+00
  2.134093e+01    1.293200e+00
  2.135680e+01    1.282675e+00
  2.137268e+01    1.285213e+00
  2.138855e+01    1.290178e+00
  2.140443e+01    1.316683e+00
  2.142031e+01    1.347417e+00
  2.143618e+01    1.336674e+00
  2.145206e+01    1.331884e+00
  2.146793e+01    1.364237e+00
  2.148381e+01    1.390712e+00
  2.149968e+01    1.430490e+00
  2.151556e+01    1.455346e+00
  2.153143e+01    1.462999e+00
  2.154731e+01    1.498569e+00
  2.156319e+01    1.545325e+00
  2.157906e+01    1.608945e+00
  2.159494e+01    1.697500e+00
  2.161081e+01    1.760070e+00
  2.162669e+01    1.823392e+00
  2.164256e+01    1.960073e+00
  2.165844e+01    2.103661e+00
  2.167431e+01    2.270543e+00
  2.169019e+01    2.472415e+00
  2.170607e+01    2.766003e+00
  2.172194e+01    3.094089e+00
  2.173782e+01    3.521255e+00
  2.175369e+01    4.015975e+00
  2.176957e+01    4.488746e+00
  2.178544e+01    5.118346e+00
  2.180132e+01    5.756064e+00
  2.181719e+01    6.477960e+00
  2.183307e+01    7.015066e+00
  2.184895e+01    7.680005e+00
  2.186482e+01    8.313743e+00
  2.188070e+01    8.691960e+00
  2.189657e+01    8.885251e+00
  2.191245e+01    8.745203e+00
  2.192832e+01    8.275004e+00
  2.194420e+01    7.481351e+00
  2.196007e+01    6.579262e+00
  2.197595e+01    5.675160e+00
  2.199183e+01    4.918514e+00
  2.200770e+01    4.195439e+00
  2.202358e+01    3.606949e+00
  2.203945e+01    3.192568e+00
  2.205533e+01    2.870456e+00
  2.207120e+01    2.584174e+00
  2.208708e+01    2.357546e+00
  2.210296e+01    2.146921e+00
  2.211883e+01    1.965747e+00
  2.213471e+01    1.842713e+00
  2.215058e+01    1.732400e+00
  2.216646e+01    1.692988e+00
  2.218233e+01    1.627704e+00
  2.219821e+01    1.545163e+00
  2.221408e+01    1.499499e+00
  2.222996e+01    1.473426e+00
  2.224584e+01    1.427442e+00
  2.226171e+01    1.400638e+00
  2.227759e+01    1.383440e+00
  2.229346e+01    1.346068e+00
  2.230934e+01    1.294308e+00
  2.232521e+01    1.271989e+00
  2.234109e+01    1.241977e+00
  2.235696e+01    1.239760e+00
  2.237284e+01    1.246963e+00
  2.238872e+01    1.201065e+00
  2.240459e+01    1.204108e+00
  2.242047e+01    1.182839e+00
  2.243634e+01    1.192845e+00
  2.245222e+01    1.209164e+00
  2.246809e+01    1.171689e+00
  2.248397e+01    1.143974e+00
  2.249984e+01    1.141957e+00
  2.251572e+01    1.140843e+00
  2.253160e+01    1.138860e+00
  2.254747e+01    1.140421e+00
  2.256335e+01    1.127540e+00
  2.257922e+01    1.102158e+00
  2.259510e+01    1.091867e+00
  2.261097e+01    1.100809e+00
  2.262685e+01    1.106785e+00
  2.264272e+01    1.077256e+00
  2.265860e+01    1.101448e+00
  2.267448e+01    1.084677e+00
  2.269035e+01    1.089260e+00
  2.270623e+01    1.086549e+00
  2.272210e+01    1.066874e+00
  2.273798e+01    1.055837e+00
  2.275385e+01    1.077386e+00
  2.276973e+01    1.047336e+00
  2.278560e+01    1.051662e+00
  2.280148e+01    1.049877e+00
  2.281736e+01    1.039206e+00
  2.283323e+01    1.054950e+00
  2.284911e+01    1.060124e+00
  2.286498e+01    1.012867e+00
  2.288086e+01    1.019451e+00
  2.289673e+01    1.036593e+00
  2.291261e+01    1.063757e+00
  2.292848e+01    1.055060e+00
  2.294436e+01    1.023776e+00
  2.296024e+01    1.029480e+00
  2.297611e+01    1.020833e+00
  2.299199e+01    1.010430e+00
  2.300786e+01    1.010895e+00
  2.302374e+01    1.021286e+00
  2.303961e+01    1.015701e+00
  2.305549e+01    9.956998e-01
  2.307137e+01    1.003097e+00
  2.308724e+01    1.011965e+00
  2.310312e+01    1.008966e+00
  2.311899e+01    1.022761e+00
  2.313487e+01    1.004709e+00
  2.315074e+01    9.933562e-01
  2.316662e+01    1.015187e+00
  2.318249e+01    1.012968e+00
  2.319837e+01    9.855983e-01
  2.321425e+01    9.755881e-01
  2.323012e+01    9.902272e-01
  2.324600e+01    9.919118e-01
  2.326187e+01    9.825502e-01
  2.327775e+01    9.850651e-01
  2.329362e+01    9.942201e-01
  2.330950e+01    1.000642e+00
  2.332537e+01    9.762702e-01
  2.334125e+01    9.758724e-01
  2.335713e+01    9.725194e-01
  2.337300e+01    9.954780e-01
  2.338888e+01    9.736972e-01
  2.340475e+01    9.693483e-01
  2.342063e+01    9.580733e-01
  2.343650e+01    9.602832e-01
  2.345238e+01    9.576236e-01
  2.346825e+01    9.709351e-01
  2.348413e+01    9.595966e-01
  2.350001e+01    9.547998e-01
  2.351588e+01    9.603769e-01
  2.353176e+01    9.747358e-01
  2.354763e+01    9.750026e-01
  2.356351e+01    9.636958e-01
  2.357938e+01    9.574602e-01
  2.359526e+01    9.580194e-01
  2.361113e+01    9.622952e-01
  2.362701e+01    9.629211e-01
  2.364289e+01    9.466855e-01
  2.365876e+01    9.321697e-01
  2.367464e+01    9.529862e-01
  2.369051e+01    9.638914e-01
  2.370639e+01    9.594485e-01
  2.372226e+01    9.288427e-01
  2.373814e+01    9.539098e-01
  2.375401e+01    9.309662e-01
  2.376989e+01    9.223798e-01
  2.378577e+01    9.457741e-01
  2.380164e+01    9.254081e-01
  2.381752e+01    9.436412e-01
  2.383339e+01    9.096425e-01
  2.384927e+01    8.981961e-01
  2.386514e+01    9.182794e-01
  2.388102e+01    9.003881e-01
  2.389689e+01    8.919857e-01
  2.391277e+01    9.068812e-01
  2.392865e+01    9.198076e-01
  2.394452e+01    9.159128e-01
  2.396040e+01    9.059862e-01
  2.397627e+01    9.002351e-01
  2.399215e+01    9.024816e-01
  2.400802e+01    9.158430e-01
  2.402390e+01    8.961423e-01
  2.403978e+01    8.974132e-01
  2.405565e+01    8.861050e-01
  2.407153e+01    8.984516e-01
  2.408740e+01    9.216524e-01
  2.410328e+01    8.970510e-01
  2.411915e+01    8.762525e-01
  2.413503e+01    8.807189e-01
  2.415090e+01    8.731767e-01
  2.416678e+01    8.656621e-01
  2.418266e+01    8.737778e-01
  2.419853e+01    8.772507e-01
  2.421441e+01    9.043357e-01
  2.423028e+01    9.056611e-01
  2.424616e+01    8.815535e-01
  2.426203e+01    8.886142e-01
  2.427791e+01    8.852150e-01
  2.429378e+01    8.761470e-01
  2.430966e+01    8.996285e-01
  2.432554e+01    9.003139e-01
  2.434141e+01    8.869920e-01
  2.435729e+01    8.931800e-01
  2.437316e+01    9.018007e-01
  2.438904e+01    9.101934e-01
  2.440491e+01    8.751683e-01
  2.442079e+01    8.699774e-01
  2.443666e+01    8.870279e-01
  2.445254e+01    8.988442e-01
  2.446842e+01    8.930544e-01
  2.448429e+01    8.778734e-01
  2.450017e+01    8.863883e-01
  2.451604e+01    8.806791e-01
  2.453192e+01    8.808631e-01
  2.454779e+01    9.055670e-01
  2.456367e+01    8.906571e-01
  2.457954e+01    8.850662e-01
  2.459542e+01    8.819866e-01
  2.461130e+01    8.686670e-01
  2.462717e+01    8.667251e-01
  2.464305e+01    8.709790e-01
  2.465892e+01    8.861387e-01
  2.467480e+01    8.895932e-01
  2.469067e+01    8.846381e-01
  2.470655e+01    8.900111e-01
  2.472242e+01    8.831167e-01
  2.473830e+01    8.767068e-01
  2.475418e+01    9.020520e-01
  2.477005e+01    9.165779e-01
  2.478593e+01    8.683415e-01
  2.480180e+01    8.734571e-01
  2.481768e+01    8.972694e-01
  2.483355e+01    9.031094e-01
  2.484943e+01    8.999433e-01
  2.486530e+01    9.197841e-01
  2.488118e+01    9.044698e-01
  2.489706e+01    8.966192e-01
  2.491293e+01    8.726729e-01
  2.492881e+01    8.765233e-01
  2.494468e+01    9.196327e-01
  2.496056e+01    9.107778e-01
  2.497643e+01    9.054733e-01
  2.499231e+01    8.826156e-01
  2.500819e+01    8.907925e-01
  2.502406e+01    8.890596e-01
  2.503994e+01    8.983631e-01
  2.505581e+01    8.930250e-01
  2.507169e+01    8.857887e-01
  2.508756e+01    9.093655e-01
  2.510344e+01    8.841285e-01
  2.511931e+01    8.758918e-01
  2.513519e+01    8.964254e-01
  2.515107e+01    9.007702e-01
  2.516694e+01    9.180019e-01
  2.518282e+01    9.227656e-01
  2.519869e+01    9.568495e-01
  2.521457e+01    9.515567e-01
  2.523044e+01    9.284563e-01
  2.524632e+01    9.317814e-01
  2.526219e+01    9.456627e-01
  2.527807e+01    9.338513e-01
  2.529395e+01    9.313555e-01
  2.530982e+01    9.436634e-01
  2.532570e+01    9.761850e-01
  2.534157e+01    9.661670e-01
  2.535745e+01    9.599342e-01
  2.537332e+01    9.803292e-01
  2.538920e+01    9.955406e-01
  2.540507e+01    1.017792e+00
  2.542095e+01    1.040532e+00
  2.543683e+01    1.014049e+00
  2.545270e+01    1.027692e+00
  2.546858e+01    1.031866e+00
  2.548445e+01    1.040752e+00
  2.550033e+01    1.053632e+00
  2.551620e+01    1.078908e+00
  2.553208e+01    1.078416e+00
  2.554795e+01    1.117202e+00
  2.556383e+01    1.141012e+00
  2.557971e+01    1.153552e+00
  2.559558e+01    1.182907e+00
  2.561146e+01    1.219481e+00
  2.562733e+01    1.257532e+00
  2.564321e+01    1.315601e+00
  2.565908e+01    1.371616e+00
  2.567496e+01    1.419825e+00
  2.569083e+01    1.489659e+00
  2.570671e+01    1.583570e+00
  2.572259e+01    1.700327e+00
  2.573846e+01    1.821294e+00
  2.575434e+01    2.003264e+00
  2.577021e+01    2.221493e+00
  2.578609e+01    2.462803e+00
  2.580196e+01    2.774922e+00
  2.581784e+01    3.100078e+00
  2.583371e+01    3.572994e+00
  2.584959e+01    4.112097e+00
  2.586547e+01    4.653652e+00
  2.588134e+01    5.250520e+00
  2.589722e+01    5.803938e+00
  2.591309e+01    6.271553e+00
  2.592897e+01    6.691462e+00
  2.594484e+01    7.023043e+00
  2.596072e+01    7.119185e+00
  2.597660e+01    6.929199e+00
  2.599247e+01    6.550819e+00
  2.600835e+01    6.020710e+00
  2.602422e+01    5.340146e+00
  2.604010e+01    4.629404e+00
  2.605597e+01    4.021124e+00
  2.607185e+01    3.497243e+00
  2.608772e+01    3.027315e+00
  2.610360e+01    2.625232e+00
  2.611948e+01    2.377312e+00
  2.613535e+01    2.155174e+00
  2.615123e+01    1.943639e+00
  2.616710e+01    1.797370e+00
  2.618298e+01    1.650829e+00
  2.619885e+01    1.553072e+00
  2.621473e+01    1.490433e+00
  2.623060e+01    1.405642e+00
  2.624648e+01    1.363112e+00
  2.626236e+01    1.304890e+00
  2.627823e+01    1.252714e+00
  2.629411e+01    1.214210e+00
  2.630998e+01    1.181758e+00
  2.632586e+01    1.146239e+00
  2.634173e+01    1.113434e+00
  2.635761e+01    1.112842e+00
  2.637348e+01    1.096053e+00
  2.638936e+01    1.089103e+00
  2.640524e+01    1.055569e+00
  2.642111e+01    1.027209e+00
  2.643699e+01    1.015899e+00
  2.645286e+01    1.011480e+00
  2.646874e+01    1.011304e+00
  2.648461e+01    1.018911e+00
  2.650049e+01    1.010500e+00
  2.651636e+01    1.005105e+00
  2.653224e+01    9.985381e-01
  2.654812e+01    9.779562e-01
  2.656399e+01    9.657237e-01
  2.657987e+01    9.750662e-01
  2.659574e+01    1.001889e+00
  2.661162e+01    9.954649e-01
  2.662749e+01    9.711992e-01
  2.664337e+01    9.529248e-01
  2.665924e+01    9.694161e-01
  2.667512e+01    9.634312e-01
  2.669100e+01    9.665177e-01
  2.670687e+01    9.548666e-01
  2.672275e+01    9.477965e-01
  2.673862e+01    9.623837e-01
  2.675450e+01    9.565699e-01
  2.677037e+01    9.688350e-01
  2.678625e+01    9.823323e-01
  2.680212e+01    9.803114e-01
  2.681800e+01    9.782861e-01
  2.683388e+01    9.970451e-01
  2.684975e+01    9.766762e-01
  2.686563e+01    9.837955e-01
  2.688150e+01    9.754630e-01
  2.689738e+01    9.878654e-01
  2.691325e+01    1.014307e+00
  2.692913e+01    1.015092e+00
  2.694501e+01    1.021918e+00
  2.696088e+01    1.050657e+00
  2.697676e+01    1.069753e+00
  2.699263e+01    1.084499e+00
  2.700851e+01    1.127433e+00
  2.702438e+01    1.144730e+00
  2.704026e+01    1.189849e+00
  2.705613e+01    1.236069e+00
  2.707201e+01    1.343397e+00
  2.708789e+01    1.382043e+00
  2.710376e+01    1.447054e+00
  2.711964e+01    1.588729e+00
  2.713551e+01    1.698845e+00
  2.715139e+01    1.826020e+00
  2.716726e+01    1.948519e+00
  2.718314e+01    2.030220e+00
  2.719901e+01    2.128571e+00
  2.721489e+01    2.176303e+00
  2.723077e+01    2.165090e+00
  2.724664e+01    2.074596e+00
  2.726252e+01    1.956412e+00
  2.727839e+01    1.844662e+00
  2.729427e+01    1.676063e+00
  2.731014e+01    1.558852e+00
  2.732602e+01    1.421479e+00
  2.734189e+01    1.334985e+00
  2.735777e+01    1.279847e+00
  2.737365e+01    1.253146e+00
  2.738952e+01    1.170109e+00
  2.740540e+01    1.130336e+00
  2.742127e+01    1.105628e+00
  2.743715e+01    1.083628e+00
  2.745302e+01    1.035777e+00
  2.746890e+01    1.023394e+00
  2.748477e+01    9.974445e-01
  2.750065e+01    9.548712e-01
  2.751653e+01    9.850067e-01
  2.753240e+01    9.744525e-01
  2.754828e+01    9.527631e-01
  2.756415e+01    9.304742e-01
  2.758003e+01    9.442543e-01
  2.759590e+01    9.619044e-01
  2.761178e+01    9.256281e-01
  2.762765e+01    9.104248e-01
  2.764353e+01    9.172835e-01
  2.765941e+01    9.128028e-01
  2.767528e+01    9.256136e-01
  2.769116e+01    9.082510e-01
  2.770703e+01    8.974051e-01
  2.772291e+01    9.018350e-01
  2.773878e+01    8.752171e-01
  2.775466e+01    8.948228e-01
  2.777054e+01    8.890114e-01
  2.778641e+01    8.867607e-01
  2.780229e+01    8.924299e-01
  2.781816e+01    9.083805e-01
  2.783404e+01    8.783985e-01
  2.784991e+01    8.648097e-01
  2.786579e+01    9.035645e-01
  2.788166e+01    8.959091e-01
  2.789754e+01    8.772377e-01
  2.791342e+01    8.898906e-01
  2.792929e+01    8.638676e-01
  2.794517e+01    8.808058e-01
  2.796104e+01    8.766932e-01
  2.797692e+01    8.730335e-01
  2.799279e+01    8.644281e-01
  2.800867e+01    8.602625e-01
  2.802454e+01    8.563950e-01
  2.804042e+01    8.788112e-01
  2.805630e+01    8.861085e-01
  2.807217e+01    8.774626e-01
  2.808805e+01    8.736429e-01
  2.810392e+01    8.497759e-01
  2.811980e+01    8.393222e-01
  2.813567e+01    8.463830e-01
  2.815155e+01    8.614771e-01
  2.816742e+01    8.369153e-01
  2.818330e+01    8.435931e-01
  2.819918e+01    8.659630e-01
  2.821505e+01    8.581437e-01
  2.823093e+01    8.444999e-01
  2.824680e+01    8.275654e-01
  2.826268e+01    8.492364e-01
  2.827855e+01    8.308980e-01
  2.829443e+01    8.475471e-01
  2.831030e+01    8.545915e-01
  2.832618e+01    8.490812e-01
  2.834206e+01    8.405877e-01
  2.835793e+01    8.411391e-01
  2.837381e+01    8.660030e-01
  2.838968e+01    8.646274e-01
  2.840556e+01    8.577707e-01
  2.842143e+01    8.409721e-01
  2.843731e+01    8.349254e-01
  2.845318e+01    8.359997e-01
  2.846906e+01    8.279667e-01
  2.848494e+01    8.323856e-01
  2.850081e+01    8.290002e-01
  2.851669e+01    8.171265e-01
  2.853256e+01    8.176221e-01
  2.854844e+01    8.197347e-01
  2.856431e+01    8.371774e-01
  2.858019e+01    8.414506e-01
  2.859606e+01    8.430425e-01
  2.861194e+01    8.406847e-01
  2.862782e+01    8.399931e-01
  2.864369e+01    8.354106e-01
  2.865957e+01    8.412111e-01
  2.867544e+01    8.408182e-01
  2.869132e+01    8.377229e-01
  2.870719e+01    8.344847e-01
  2.872307e+01    8.281088e-01
  2.873895e+01    8.278803e-01
  2.875482e+01    8.132372e-01
  2.877070e+01    8.233319e-01
  2.878657e+01    8.437887e-01
  2.880245e+01    8.262585e-01
  2.881832e+01    8.084703e-01
  2.883420e+01    7.936929e-01
  2.885007e+01    8.055476e-01
  2.886595e+01    8.258560e-01
  2.888183e+01    8.079405e-01
  2.889770e+01    8.016578e-01
  2.891358e+01    8.030245e-01
  2.892945e+01    8.169528e-01
  2.894533e+01    8.155337e-01
  2.896120e+01    8.107415e-01
  2.897708e+01    8.119894e-01
  2.899295e+01    8.185230e-01
  2.900883e+01    8.239070e-01
  2.902471e+01    8.087333e-01
  2.904058e+01    7.927755e-01
  2.905646e+01    8.087494e-01
  2.907233e+01    8.142914e-01
  2.908821e+01    8.179393e-01
  2.910408e+01    8.256483e-01
  2.911996e+01    8.267068e-01
  2.913583e+01    8.118647e-01
  2.915171e+01    8.030125e-01
  2.916759e+01    8.217230e-01
  2.918346e+01    8.347429e-01
  2.919934e+01    8.258209e-01
  2.921521e+01    8.357800e-01
  2.923109e+01    8.307028e-01
  2.924696e+01    8.029438e-01
  2.926284e+01    8.059433e-01
  2.927871e+01    7.931371e-01
  2.929459e+01    8.006185e-01
  2.931047e+01    8.013783e-01
  2.932634e+01    8.102917e-01
  2.934222e+01    7.913861e-01
  2.935809e+01    7.778625e-01
  2.937397e+01    7.751053e-01
  2.938984e+01    7.782158e-01
  2.940572e+01    7.860804e-01
  2.942159e+01    8.017871e-01
  2.943747e+01    8.043807e-01
  2.945335e+01    8.121641e-01
  2.946922e+01    8.140524e-01
  2.948510e+01    8.072026e-01
  2.950097e+01    7.912355e-01
  2.951685e+01    8.049870e-01
  2.953272e+01    8.122961e-01
  2.954860e+01    7.825605e-01
  2.956447e+01    7.978883e-01
  2.958035e+01    8.073220e-01
  2.959623e+01    8.068032e-01
  2.961210e+01    8.087278e-01
  2.962798e+01    8.119975e-01
  2.964385e+01    7.944628e-01
  2.965973e+01    7.818480e-01
  2.967560e+01    8.032733e-01
  2.969148e+01    8.056238e-01
  2.970736e+01    8.231645e-01
  2.972323e+01    7.893697e-01
  2.973911e+01    7.870617e-01
  2.975498e+01    7.842171e-01
  2.977086e+01    7.911897e-01
  2.978673e+01    8.057274e-01
  2.980261e+01    7.876939e-01
  2.981848e+01    7.910249e-01
  2.983436e+01    8.062461e-01
  2.985024e+01    8.051890e-01
  2.986611e+01    8.007343e-01
  2.988199e+01    8.127840e-01
  2.989786e+01    8.015618e-01
  2.991374e+01    7.964408e-01
  2.992961e+01    7.931600e-01
  2.994549e+01    7.795337e-01
  2.996136e+01    7.865046e-01
  2.997724e+01    7.993022e-01
  2.999312e+01    7.903832e-01
  3.000899e+01    8.221722e-01
  3.002487e+01    8.396909e-01
  3.004074e+01    8.092200e-01
  3.005662e+01    7.989416e-01
  3.007249e+01    8.131645e-01
  3.008837e+01    8.143460e-01
  3.010424e+01    8.069164e-01
  3.012012e+01    7.969557e-01
  3.013600e+01    7.858110e-01
  3.015187e+01    7.736863e-01
  3.016775e+01    7.873184e-01
  3.018362e+01    7.752815e-01
  3.019950e+01    7.771109e-01
  3.021537e+01    7.759056e-01
  3.023125e+01    7.929938e-01
  3.024712e+01    7.840716e-01
  3.026300e+01    7.836115e-01
  3.027888e+01    7.854395e-01
  3.029475e+01    7.834688e-01
  3.031063e+01    7.869219e-01
  3.032650e+01    7.803201e-01
  3.034238e+01    7.928665e-01
  3.035825e+01    7.932390e-01
  3.037413e+01    7.798768e-01
  3.039000e+01    7.718775e-01
  3.040588e+01    7.875245e-01
  3.042176e+01    8.007861e-01
  3.043763e+01    7.809076e-01
  3.045351e+01    7.729487e-01
  3.046938e+01    7.683882e-01
  3.048526e+01    7.831156e-01
  3.050113e+01    7.852579e-01
  3.051701e+01    7.795159e-01
  3.053288e+01    7.872297e-01
  3.054876e+01    7.795369e-01
  3.056464e+01    7.825410e-01
  3.058051e+01    7.594428e-01
  3.059639e+01    7.866054e-01
  3.061226e+01    7.907537e-01
  3.062814e+01    7.943807e-01
  3.064401e+01    7.859949e-01
  3.065989e+01    7.808052e-01
  3.067577e+01    7.709509e-01
  3.069164e+01    7.498330e-01
  3.070752e+01    7.777237e-01
  3.072339e+01    7.990391e-01
  3.073927e+01    7.958264e-01
  3.075514e+01    7.880078e-01
  3.077102e+01    8.015949e-01
  3.078689e+01    7.838920e-01
  3.080277e+01    7.938375e-01
  3.081865e+01    7.897249e-01
  3.083452e+01    7.868523e-01
  3.085040e+01    7.941020e-01
  3.086627e+01    7.890286e-01
  3.088215e+01    7.842987e-01
  3.089802e+01    7.758050e-01
  3.091390e+01    7.671051e-01
  3.092977e+01    7.716095e-01
  3.094565e+01    7.933113e-01
  3.096153e+01    8.030940e-01
  3.097740e+01    7.965880e-01
  3.099328e+01    7.873449e-01
  3.100915e+01    7.698948e-01
  3.102503e+01    7.714685e-01
  3.104090e+01    7.789505e-01
  3.105678e+01    7.685461e-01
  3.107265e+01    7.836601e-01
  3.108853e+01    7.760260e-01
  3.110441e+01    7.772399e-01
  3.112028e+01    7.784241e-01
  3.113616e+01    7.815914e-01
  3.115203e+01    7.790338e-01
  3.116791e+01    7.805184e-01
  3.118378e+01    8.080463e-01
  3.119966e+01    8.076755e-01
  3.121553e+01    8.167752e-01
  3.123141e+01    8.296733e-01
  3.124729e+01    7.943813e-01
  3.126316e+01    8.109485e-01
  3.127904e+01    7.965028e-01
  3.129491e+01    8.022780e-01
  3.131079e+01    8.143349e-01
  3.132666e+01    8.077274e-01
  3.134254e+01    8.003718e-01
  3.135841e+01    8.360699e-01
  3.137429e+01    7.972762e-01
  3.139017e+01    8.009641e-01
  3.140604e+01    8.172866e-01
  3.142192e+01    7.944789e-01
  3.143779e+01    8.020121e-01
  3.145367e+01    8.237996e-01
  3.146954e+01    8.146885e-01
  3.148542e+01    8.333801e-01
  3.150129e+01    8.386913e-01
  3.151717e+01    8.356194e-01
  3.153305e+01    8.383167e-01
  3.154892e+01    8.687003e-01
  3.156480e+01    8.450443e-01
  3.158067e+01    8.533900e-01
  3.159655e+01    8.831705e-01
  3.161242e+01    8.792155e-01
  3.162830e+01    9.105758e-01
  3.164418e+01    9.291282e-01
  3.166005e+01    9.151878e-01
  3.167593e+01    9.620644e-01
  3.169180e+01    9.829723e-01
  3.170768e+01    9.873787e-01
  3.172355e+01    1.065822e+00
  3.173943e+01    1.127457e+00
  3.175530e+01    1.171059e+00
  3.177118e+01    1.268041e+00
  3.178706e+01    1.367323e+00
  3.180293e+01    1.425929e+00
  3.181881e+01    1.554812e+00
  3.183468e+01    1.668821e+00
  3.185056e+01    1.779089e+00
  3.186643e+01    1.938198e+00
  3.188231e+01    2.012425e+00
  3.189818e+01    2.077566e+00
  3.191406e+01    2.071522e+00
  3.192994e+01    2.049685e+00
  3.194581e+01    1.980742e+00
  3.196169e+01    1.821607e+00
  3.197756e+01    1.651323e+00
  3.199344e+01    1.547937e+00
  3.200931e+01    1.421474e+00
  3.202519e+01    1.304371e+00
  3.204106e+01    1.222392e+00
  3.205694e+01    1.174355e+00
  3.207282e+01    1.104185e+00
  3.208869e+01    1.068910e+00
  3.210457e+01    1.023859e+00
  3.212044e+01    9.779999e-01
  3.213632e+01    9.446228e-01
  3.215219e+01    9.139032e-01
  3.216807e+01    9.044001e-01
  3.218394e+01    8.733777e-01
  3.219982e+01    8.641846e-01
  3.221570e+01    8.530537e-01
  3.223157e+01    8.360274e-01
  3.224745e+01    8.358833e-01
  3.226332e+01    8.526812e-01
  3.227920e+01    8.012363e-01
  3.229507e+01    8.219821e-01
  3.231095e+01    8.367819e-01
  3.232682e+01    8.235134e-01
  3.234270e+01    7.934906e-01
  3.235858e+01    7.730039e-01
  3.237445e+01    7.759098e-01
  3.239033e+01    7.910051e-01
  3.240620e+01    7.989788e-01
  3.242208e+01    7.849688e-01
  3.243795e+01    7.890922e-01
  3.245383e+01    7.940376e-01
  3.246970e+01    7.814546e-01
  3.248558e+01    7.779872e-01
  3.250146e+01    7.759517e-01
  3.251733e+01    7.660173e-01
  3.253321e+01    7.804434e-01
  3.254908e+01    7.855651e-01
