# == pyFAI calibration ==
# Distance Sample to Detector: 0.3999999939076516 m
# PONI: 9.750e-02, 1.135e-01 m
# Rotations: -0.000175 0.000000 -0.000000 rad
# 
# == Fit2d calibration ==
# Distance Sample-beamCenter: 400.000 mm
# Center: x=1514.000, y=1300.000 pix
# Tilt: 0.010 deg  TiltPlanRot: 0.010 deg
# 
# Detector Detector	 Spline= None	 PixelSize= 7.500e-05, 7.500e-05 m
#    Detector has a mask: False 
#    Detector has a dark current: False 
#    detector has a flat field: False 
# 
# Wavelength: 6.888e-11 m
# Mask applied: user provided
# Dark current applied: False
# Flat field applied: False
# Polarization factor: 0.99
# Normalization factor: 1.0
# --> /home/myspot/data/2024_07_Rosario/Ru-CGO-ex/2024-07-27_003_Ru-CGO-ex_Reaction_dwell_000023_data_000104.dat
#       q_nm^-1             I 
  2.003187e-02    0.000000e+00
  3.590745e-02    0.000000e+00
  5.178302e-02    2.670345e-02
  6.765859e-02    1.353240e-01
  8.353417e-02    6.915662e-02
  9.940974e-02    1.150086e-01
  1.152853e-01    1.680433e-01
  1.311609e-01    2.371467e-02
  1.470365e-01    3.254128e-02
  1.629120e-01    7.822315e-02
  1.787876e-01    8.869143e-02
  1.946632e-01    3.165427e-02
  2.105388e-01    2.767756e-03
  2.264143e-01    3.353239e-02
  2.422899e-01    4.983423e-02
  2.581655e-01    3.251985e-02
  2.740411e-01    1.377038e-02
  2.899166e-01    6.798535e-03
  3.057922e-01    4.025237e-02
  3.216678e-01    6.500175e-02
  3.375433e-01    7.327134e-02
  3.534189e-01    5.904954e-02
  3.692945e-01    5.292263e-02
  3.851701e-01    5.696169e-02
  4.010456e-01    4.838382e-02
  4.169212e-01    3.679416e-02
  4.327968e-01    4.675913e-02
  4.486724e-01    3.733489e-02
  4.645479e-01    3.900738e-02
  4.804235e-01    3.604020e-02
  4.962991e-01    3.129706e-02
  5.121747e-01    3.111309e-02
  5.280502e-01    6.611640e-02
  5.439258e-01    3.972336e-02
  5.598014e-01    4.445918e-02
  5.756770e-01    4.538373e-02
  5.915525e-01    4.262581e-02
  6.074281e-01    5.739627e-02
  6.233037e-01    6.667685e-02
  6.391793e-01    3.699304e-02
  6.550548e-01    3.151706e-02
  6.709304e-01    4.064227e-02
  6.868060e-01    4.343649e-02
  7.026815e-01    2.952999e-02
  7.185571e-01    2.276066e-02
  7.344327e-01    6.085084e-02
  7.503083e-01    6.465641e-02
  7.661838e-01    7.544391e-02
  7.820594e-01    1.106341e-01
  7.979350e-01    1.563807e-01
  8.138106e-01    2.105027e-01
  8.296861e-01    2.804588e-01
  8.455617e-01    3.619790e-01
  8.614373e-01    4.571469e-01
  8.773129e-01    4.544507e-01
  8.931884e-01    4.916649e-01
  9.090640e-01    6.527181e-01
  9.249396e-01    7.402824e-01
  9.408152e-01    8.176494e-01
  9.566907e-01    1.043661e+00
  9.725663e-01    1.064025e+00
  9.884419e-01    1.126043e+00
  1.004317e+00    1.158664e+00
  1.020193e+00    1.333573e+00
  1.036069e+00    1.329955e+00
  1.051944e+00    1.415985e+00
  1.067820e+00    1.481906e+00
  1.083695e+00    1.506620e+00
  1.099571e+00    1.522608e+00
  1.115446e+00    1.592815e+00
  1.131322e+00    1.628923e+00
  1.147198e+00    1.549551e+00
  1.163073e+00    1.693131e+00
  1.178949e+00    1.727714e+00
  1.194824e+00    1.802949e+00
  1.210700e+00    1.974829e+00
  1.226575e+00    2.190181e+00
  1.242451e+00    2.352904e+00
  1.258327e+00    2.444416e+00
  1.274202e+00    2.725411e+00
  1.290078e+00    2.800487e+00
  1.305953e+00    2.633766e+00
  1.321829e+00    2.771559e+00
  1.337705e+00    2.754292e+00
  1.353580e+00    2.667893e+00
  1.369456e+00    2.865965e+00
  1.385331e+00    2.903406e+00
  1.401207e+00    2.903569e+00
  1.417082e+00    2.827936e+00
  1.432958e+00    2.965154e+00
  1.448834e+00    3.047390e+00
  1.464709e+00    3.103387e+00
  1.480585e+00    3.151001e+00
  1.496460e+00    2.942827e+00
  1.512336e+00    3.106413e+00
  1.528211e+00    3.124737e+00
  1.544087e+00    3.151982e+00
  1.559963e+00    3.242878e+00
  1.575838e+00    3.294838e+00
  1.591714e+00    3.237292e+00
  1.607589e+00    3.240815e+00
  1.623465e+00    3.162433e+00
  1.639340e+00    3.168974e+00
  1.655216e+00    3.224001e+00
  1.671092e+00    3.268649e+00
  1.686967e+00    3.258168e+00
  1.702843e+00    3.201796e+00
  1.718718e+00    3.012083e+00
  1.734594e+00    3.062248e+00
  1.750469e+00    3.116157e+00
  1.766345e+00    3.110857e+00
  1.782221e+00    3.179491e+00
  1.798096e+00    3.153314e+00
  1.813972e+00    3.149256e+00
  1.829847e+00    3.057850e+00
  1.845723e+00    2.985409e+00
  1.861598e+00    2.973553e+00
  1.877474e+00    3.194660e+00
  1.893350e+00    3.044623e+00
  1.909225e+00    3.081427e+00
  1.925101e+00    3.005454e+00
  1.940976e+00    3.054260e+00
  1.956852e+00    3.075346e+00
  1.972727e+00    2.967699e+00
  1.988603e+00    2.981519e+00
  2.004479e+00    3.078807e+00
  2.020354e+00    3.098731e+00
  2.036230e+00    3.126686e+00
  2.052105e+00    3.169737e+00
  2.067981e+00    3.204798e+00
  2.083856e+00    3.162842e+00
  2.099732e+00    3.145828e+00
  2.115608e+00    3.135733e+00
  2.131483e+00    3.073964e+00
  2.147359e+00    3.143659e+00
  2.163234e+00    3.209200e+00
  2.179110e+00    3.087368e+00
  2.194985e+00    3.144711e+00
  2.210861e+00    3.159412e+00
  2.226737e+00    3.132098e+00
  2.242612e+00    3.135561e+00
  2.258488e+00    3.144711e+00
  2.274363e+00    3.029063e+00
  2.290239e+00    3.147449e+00
  2.306115e+00    3.209051e+00
  2.321990e+00    3.175059e+00
  2.337866e+00    3.032508e+00
  2.353741e+00    3.082944e+00
  2.369617e+00    3.197453e+00
  2.385492e+00    3.035666e+00
  2.401368e+00    3.049858e+00
  2.417244e+00    3.102901e+00
  2.433119e+00    3.097870e+00
  2.448995e+00    3.138318e+00
  2.464870e+00    3.095624e+00
  2.480746e+00    3.239217e+00
  2.496621e+00    3.185089e+00
  2.512497e+00    3.142547e+00
  2.528373e+00    3.101933e+00
  2.544248e+00    3.116368e+00
  2.560124e+00    3.134060e+00
  2.575999e+00    3.078791e+00
  2.591875e+00    3.202662e+00
  2.607750e+00    3.238457e+00
  2.623626e+00    3.270274e+00
  2.639502e+00    3.320065e+00
  2.655377e+00    3.250424e+00
  2.671253e+00    3.304240e+00
  2.687128e+00    3.324893e+00
  2.703004e+00    3.305432e+00
  2.718879e+00    3.204101e+00
  2.734755e+00    3.216832e+00
  2.750631e+00    3.273759e+00
  2.766506e+00    3.322177e+00
  2.782382e+00    3.273513e+00
  2.798257e+00    3.343349e+00
  2.814133e+00    3.261776e+00
  2.830008e+00    3.280404e+00
  2.845884e+00    3.312534e+00
  2.861760e+00    3.420038e+00
  2.877635e+00    3.394401e+00
  2.893511e+00    3.332390e+00
  2.909386e+00    3.260114e+00
  2.925262e+00    3.327777e+00
  2.941137e+00    3.287667e+00
  2.957013e+00    3.291499e+00
  2.972889e+00    3.343556e+00
  2.988764e+00    3.231819e+00
  3.004640e+00    3.286214e+00
  3.020515e+00    3.350206e+00
  3.036391e+00    3.369054e+00
  3.052266e+00    3.375235e+00
  3.068142e+00    3.412932e+00
  3.084018e+00    3.335274e+00
  3.099893e+00    3.420120e+00
  3.115769e+00    3.464265e+00
  3.131644e+00    3.461490e+00
  3.147520e+00    3.340033e+00
  3.163395e+00    3.422358e+00
  3.179271e+00    3.405900e+00
  3.195147e+00    3.356352e+00
  3.211022e+00    3.451152e+00
  3.226898e+00    3.383669e+00
  3.242773e+00    3.378034e+00
  3.258649e+00    3.446202e+00
  3.274525e+00    3.343514e+00
  3.290400e+00    3.373890e+00
  3.306276e+00    3.355672e+00
  3.322151e+00    3.368469e+00
  3.338027e+00    3.462696e+00
  3.353902e+00    3.444517e+00
  3.369778e+00    3.371275e+00
  3.385654e+00    3.341727e+00
  3.401529e+00    3.390680e+00
  3.417405e+00    3.455611e+00
  3.433280e+00    3.412536e+00
  3.449156e+00    3.378942e+00
  3.465031e+00    3.490267e+00
  3.480907e+00    3.398493e+00
  3.496783e+00    3.427608e+00
  3.512658e+00    3.454055e+00
  3.528534e+00    3.578575e+00
  3.544409e+00    3.467439e+00
  3.560285e+00    3.464448e+00
  3.576160e+00    3.489087e+00
  3.592036e+00    3.461776e+00
  3.607912e+00    3.529648e+00
  3.623787e+00    3.487585e+00
  3.639663e+00    3.459583e+00
  3.655538e+00    3.511332e+00
  3.671414e+00    3.482640e+00
  3.687289e+00    3.418389e+00
  3.703165e+00    3.532603e+00
  3.719041e+00    3.603950e+00
  3.734916e+00    3.528324e+00
  3.750792e+00    3.435451e+00
  3.766667e+00    3.535129e+00
  3.782543e+00    3.564091e+00
  3.798418e+00    3.548551e+00
  3.814294e+00    3.590263e+00
  3.830170e+00    3.505203e+00
  3.846045e+00    3.521182e+00
  3.861921e+00    3.523958e+00
  3.877796e+00    3.540521e+00
  3.893672e+00    3.581932e+00
  3.909547e+00    3.529656e+00
  3.925423e+00    3.496963e+00
  3.941299e+00    3.515229e+00
  3.957174e+00    3.401516e+00
  3.973050e+00    3.451866e+00
  3.988925e+00    3.529142e+00
  4.004801e+00    3.517260e+00
  4.020676e+00    3.450811e+00
  4.036552e+00    3.410775e+00
  4.052428e+00    3.460259e+00
  4.068303e+00    3.488047e+00
  4.084179e+00    3.566576e+00
  4.100054e+00    3.548555e+00
  4.115930e+00    3.536613e+00
  4.131806e+00    3.550423e+00
  4.147681e+00    3.556814e+00
  4.163557e+00    3.610748e+00
  4.179432e+00    3.587387e+00
  4.195308e+00    3.574091e+00
  4.211183e+00    3.588666e+00
  4.227059e+00    3.573361e+00
  4.242935e+00    3.579106e+00
  4.258810e+00    3.665095e+00
  4.274686e+00    3.599794e+00
  4.290561e+00    3.582112e+00
  4.306437e+00    3.527153e+00
  4.322312e+00    3.420614e+00
  4.338188e+00    3.587919e+00
  4.354064e+00    3.643276e+00
  4.369939e+00    3.593117e+00
  4.385815e+00    3.622849e+00
  4.401690e+00    3.507329e+00
  4.417566e+00    3.547976e+00
  4.433441e+00    3.612251e+00
  4.449317e+00    3.613661e+00
  4.465193e+00    3.666363e+00
  4.481068e+00    3.613354e+00
  4.496944e+00    3.525918e+00
  4.512819e+00    3.481587e+00
  4.528695e+00    3.579927e+00
  4.544570e+00    3.652363e+00
  4.560446e+00    3.601784e+00
  4.576322e+00    3.608855e+00
  4.592197e+00    3.676263e+00
  4.608073e+00    3.605829e+00
  4.623948e+00    3.628537e+00
  4.639824e+00    3.602383e+00
  4.655699e+00    3.643803e+00
  4.671575e+00    3.673167e+00
  4.687451e+00    3.637256e+00
  4.703326e+00    3.659246e+00
  4.719202e+00    3.616925e+00
  4.735077e+00    3.678295e+00
  4.750953e+00    3.666070e+00
  4.766828e+00    3.468273e+00
  4.782704e+00    3.528969e+00
  4.798580e+00    3.650220e+00
  4.814455e+00    3.638720e+00
  4.830331e+00    3.629318e+00
  4.846206e+00    3.566717e+00
  4.862082e+00    3.655508e+00
  4.877957e+00    3.719676e+00
  4.893833e+00    3.755977e+00
  4.909709e+00    3.738346e+00
  4.925584e+00    3.766160e+00
  4.941460e+00    3.715057e+00
  4.957335e+00    3.689398e+00
  4.973211e+00    3.638800e+00
  4.989086e+00    3.664774e+00
  5.004962e+00    3.652685e+00
  5.020838e+00    3.588987e+00
  5.036713e+00    3.666969e+00
  5.052589e+00    3.702653e+00
  5.068464e+00    3.608592e+00
  5.084340e+00    3.600662e+00
  5.100216e+00    3.621499e+00
  5.116091e+00    3.589536e+00
  5.131967e+00    3.605263e+00
  5.147842e+00    3.668223e+00
  5.163718e+00    3.649219e+00
  5.179593e+00    3.569673e+00
  5.195469e+00    3.681709e+00
  5.211345e+00    3.645466e+00
  5.227220e+00    3.658750e+00
  5.243096e+00    3.704521e+00
  5.258971e+00    3.630840e+00
  5.274847e+00    3.687201e+00
  5.290722e+00    3.716974e+00
  5.306598e+00    3.711676e+00
  5.322474e+00    3.646636e+00
  5.338349e+00    3.668936e+00
  5.354225e+00    3.664129e+00
  5.370100e+00    3.586475e+00
  5.385976e+00    3.632252e+00
  5.401851e+00    3.620398e+00
  5.417727e+00    3.605959e+00
  5.433603e+00    3.583679e+00
  5.449478e+00    3.573544e+00
  5.465354e+00    3.593584e+00
  5.481229e+00    3.590147e+00
  5.497105e+00    3.664224e+00
  5.512980e+00    3.590524e+00
  5.528856e+00    3.525602e+00
  5.544732e+00    3.543234e+00
  5.560607e+00    3.590354e+00
  5.576483e+00    3.589878e+00
  5.592358e+00    3.570970e+00
  5.608234e+00    3.579870e+00
  5.624109e+00    3.590151e+00
  5.639985e+00    3.583625e+00
  5.655861e+00    3.541441e+00
  5.671736e+00    3.558269e+00
  5.687612e+00    3.564077e+00
  5.703487e+00    3.584786e+00
  5.719363e+00    3.584864e+00
  5.735238e+00    3.488523e+00
  5.751114e+00    3.551247e+00
  5.766990e+00    3.598037e+00
  5.782865e+00    3.605942e+00
  5.798741e+00    3.586469e+00
  5.814616e+00    3.557890e+00
  5.830492e+00    3.562205e+00
  5.846367e+00    3.497484e+00
  5.862243e+00    3.561407e+00
  5.878119e+00    3.570492e+00
  5.893994e+00    3.570838e+00
  5.909870e+00    3.561118e+00
  5.925745e+00    3.579123e+00
  5.941621e+00    3.529822e+00
  5.957497e+00    3.477589e+00
  5.973372e+00    3.436724e+00
  5.989248e+00    3.487330e+00
  6.005123e+00    3.500370e+00
  6.020999e+00    3.459054e+00
  6.036874e+00    3.520955e+00
  6.052750e+00    3.562270e+00
  6.068626e+00    3.595306e+00
  6.084501e+00    3.587636e+00
  6.100377e+00    3.645050e+00
  6.116252e+00    3.674890e+00
  6.132128e+00    3.552763e+00
  6.148003e+00    3.557070e+00
  6.163879e+00    3.650986e+00
  6.179755e+00    3.536299e+00
  6.195630e+00    3.462489e+00
  6.211506e+00    3.509946e+00
  6.227381e+00    3.526485e+00
  6.243257e+00    3.599002e+00
  6.259132e+00    3.604662e+00
  6.275008e+00    3.520162e+00
  6.290884e+00    3.592800e+00
  6.306759e+00    3.538845e+00
  6.322635e+00    3.490437e+00
  6.338510e+00    3.537115e+00
  6.354386e+00    3.579675e+00
  6.370261e+00    3.555232e+00
  6.386137e+00    3.581892e+00
  6.402013e+00    3.536518e+00
  6.417888e+00    3.518272e+00
  6.433764e+00    3.554826e+00
  6.449639e+00    3.623670e+00
  6.465515e+00    3.569988e+00
  6.481390e+00    3.535014e+00
  6.497266e+00    3.536616e+00
  6.513142e+00    3.614202e+00
  6.529017e+00    3.552685e+00
  6.544893e+00    3.536259e+00
  6.560768e+00    3.603101e+00
  6.576644e+00    3.502160e+00
  6.592519e+00    3.531862e+00
  6.608395e+00    3.550195e+00
  6.624271e+00    3.589783e+00
  6.640146e+00    3.556156e+00
  6.656022e+00    3.573876e+00
  6.671897e+00    3.542322e+00
  6.687773e+00    3.585401e+00
  6.703648e+00    3.579033e+00
  6.719524e+00    3.676728e+00
  6.735400e+00    3.609439e+00
  6.751275e+00    3.455839e+00
  6.767151e+00    3.520545e+00
  6.783026e+00    3.549856e+00
  6.798902e+00    3.534322e+00
  6.814777e+00    3.489829e+00
  6.830653e+00    3.594516e+00
  6.846529e+00    3.593119e+00
  6.862404e+00    3.579650e+00
  6.878280e+00    3.534037e+00
  6.894155e+00    3.534483e+00
  6.910031e+00    3.542170e+00
  6.925907e+00    3.542927e+00
  6.941782e+00    3.517210e+00
  6.957658e+00    3.543352e+00
  6.973533e+00    3.534222e+00
  6.989409e+00    3.522822e+00
  7.005284e+00    3.543607e+00
  7.021160e+00    3.568967e+00
  7.037036e+00    3.581908e+00
  7.052911e+00    3.617277e+00
  7.068787e+00    3.605224e+00
  7.084662e+00    3.545330e+00
  7.100538e+00    3.573973e+00
  7.116413e+00    3.584999e+00
  7.132289e+00    3.543895e+00
  7.148165e+00    3.551269e+00
  7.164040e+00    3.585091e+00
  7.179916e+00    3.524301e+00
  7.195791e+00    3.501003e+00
  7.211667e+00    3.524358e+00
  7.227542e+00    3.538867e+00
  7.243418e+00    3.495735e+00
  7.259294e+00    3.521168e+00
  7.275169e+00    3.540701e+00
  7.291045e+00    3.515313e+00
  7.306920e+00    3.536849e+00
  7.322796e+00    3.501911e+00
  7.338671e+00    3.515809e+00
  7.354547e+00    3.537840e+00
  7.370423e+00    3.516328e+00
  7.386298e+00    3.514939e+00
  7.402174e+00    3.524993e+00
  7.418049e+00    3.469764e+00
  7.433925e+00    3.467812e+00
  7.449800e+00    3.522983e+00
  7.465676e+00    3.497658e+00
  7.481552e+00    3.419989e+00
  7.497427e+00    3.432039e+00
  7.513303e+00    3.457269e+00
  7.529178e+00    3.486600e+00
  7.545054e+00    3.494216e+00
  7.560929e+00    3.539466e+00
  7.576805e+00    3.508661e+00
  7.592681e+00    3.462268e+00
  7.608556e+00    3.485300e+00
  7.624432e+00    3.477882e+00
  7.640307e+00    3.450301e+00
  7.656183e+00    3.535617e+00
  7.672058e+00    3.510378e+00
  7.687934e+00    3.471131e+00
  7.703810e+00    3.357780e+00
  7.719685e+00    3.421401e+00
  7.735561e+00    3.465515e+00
  7.751436e+00    3.427267e+00
  7.767312e+00    3.486247e+00
  7.783187e+00    3.486042e+00
  7.799063e+00    3.538748e+00
  7.814939e+00    3.416399e+00
  7.830814e+00    3.492854e+00
  7.846690e+00    3.512575e+00
  7.862565e+00    3.459980e+00
  7.878441e+00    3.486819e+00
  7.894317e+00    3.414628e+00
  7.910192e+00    3.426530e+00
  7.926068e+00    3.441169e+00
  7.941943e+00    3.432338e+00
  7.957819e+00    3.449821e+00
  7.973694e+00    3.405988e+00
  7.989570e+00    3.421375e+00
  8.005446e+00    3.403260e+00
  8.021321e+00    3.430107e+00
  8.037197e+00    3.446518e+00
  8.053072e+00    3.416074e+00
  8.068948e+00    3.444429e+00
  8.084823e+00    3.440265e+00
  8.100699e+00    3.432441e+00
  8.116575e+00    3.400569e+00
  8.132450e+00    3.404536e+00
  8.148326e+00    3.454779e+00
  8.164201e+00    3.500240e+00
  8.180077e+00    3.545161e+00
  8.195952e+00    3.454717e+00
  8.211828e+00    3.505902e+00
  8.227704e+00    3.474456e+00
  8.243579e+00    3.538185e+00
  8.259455e+00    3.510476e+00
  8.275330e+00    3.440851e+00
  8.291206e+00    3.383718e+00
  8.307081e+00    3.379304e+00
  8.322957e+00    3.374626e+00
  8.338833e+00    3.372670e+00
  8.354708e+00    3.388214e+00
  8.370584e+00    3.396560e+00
  8.386459e+00    3.327436e+00
  8.402335e+00    3.340708e+00
  8.418210e+00    3.422156e+00
  8.434086e+00    3.393294e+00
  8.449962e+00    3.351903e+00
  8.465837e+00    3.434019e+00
  8.481713e+00    3.372221e+00
  8.497588e+00    3.422011e+00
  8.513464e+00    3.420051e+00
  8.529339e+00    3.358763e+00
  8.545215e+00    3.366612e+00
  8.561091e+00    3.384724e+00
  8.576966e+00    3.403186e+00
  8.592842e+00    3.392662e+00
  8.608717e+00    3.356886e+00
  8.624593e+00    3.343634e+00
  8.640468e+00    3.303350e+00
  8.656344e+00    3.312396e+00
  8.672220e+00    3.396321e+00
  8.688095e+00    3.424108e+00
  8.703971e+00    3.315982e+00
  8.719846e+00    3.301842e+00
  8.735722e+00    3.294073e+00
  8.751598e+00    3.276938e+00
  8.767473e+00    3.326040e+00
  8.783349e+00    3.316066e+00
  8.799224e+00    3.333781e+00
  8.815100e+00    3.256459e+00
  8.830975e+00    3.280300e+00
  8.846851e+00    3.315691e+00
  8.862727e+00    3.316535e+00
  8.878602e+00    3.320716e+00
  8.894478e+00    3.285507e+00
  8.910353e+00    3.248092e+00
  8.926229e+00    3.309428e+00
  8.942104e+00    3.308712e+00
  8.957980e+00    3.325962e+00
  8.973856e+00    3.276898e+00
  8.989731e+00    3.318551e+00
  9.005607e+00    3.346412e+00
  9.021482e+00    3.304841e+00
  9.037358e+00    3.299268e+00
  9.053233e+00    3.312521e+00
  9.069109e+00    3.280224e+00
  9.084985e+00    3.308390e+00
  9.100860e+00    3.256356e+00
  9.116736e+00    3.239858e+00
  9.132611e+00    3.312508e+00
  9.148487e+00    3.292043e+00
  9.164362e+00    3.229122e+00
  9.180238e+00    3.181468e+00
  9.196114e+00    3.187724e+00
  9.211989e+00    3.246421e+00
  9.227865e+00    3.278156e+00
  9.243740e+00    3.268387e+00
  9.259616e+00    3.198206e+00
  9.275491e+00    3.249889e+00
  9.291367e+00    3.222439e+00
  9.307243e+00    3.177442e+00
  9.323118e+00    3.203690e+00
  9.338994e+00    3.251936e+00
  9.354869e+00    3.245447e+00
  9.370745e+00    3.252040e+00
  9.386620e+00    3.245629e+00
  9.402496e+00    3.232086e+00
  9.418372e+00    3.278510e+00
  9.434247e+00    3.266546e+00
  9.450123e+00    3.290116e+00
  9.465998e+00    3.299407e+00
  9.481874e+00    3.225014e+00
  9.497749e+00    3.195824e+00
  9.513625e+00    3.253230e+00
  9.529501e+00    3.235773e+00
  9.545376e+00    3.173834e+00
  9.561252e+00    3.243406e+00
  9.577127e+00    3.263127e+00
  9.593003e+00    3.251829e+00
  9.608878e+00    3.175815e+00
  9.624754e+00    3.164970e+00
  9.640630e+00    3.192408e+00
  9.656505e+00    3.197742e+00
  9.672381e+00    3.159606e+00
  9.688256e+00    3.205497e+00
  9.704132e+00    3.229804e+00
  9.720008e+00    3.218919e+00
  9.735883e+00    3.164885e+00
  9.751759e+00    3.164322e+00
  9.767634e+00    3.216131e+00
  9.783510e+00    3.158854e+00
  9.799385e+00    3.131835e+00
  9.815261e+00    3.162801e+00
  9.831137e+00    3.158337e+00
  9.847012e+00    3.100914e+00
  9.862888e+00    3.125055e+00
  9.878763e+00    3.164712e+00
  9.894639e+00    3.221269e+00
  9.910514e+00    3.145089e+00
  9.926390e+00    3.085805e+00
  9.942266e+00    3.104515e+00
  9.958141e+00    3.153285e+00
  9.974017e+00    3.088328e+00
  9.989892e+00    3.130802e+00
  1.000577e+01    3.123601e+00
  1.002164e+01    3.067730e+00
  1.003752e+01    3.119587e+00
  1.005339e+01    3.126955e+00
  1.006927e+01    3.135137e+00
  1.008515e+01    3.060781e+00
  1.010102e+01    3.075259e+00
  1.011690e+01    3.084834e+00
  1.013277e+01    3.168357e+00
  1.014865e+01    3.125283e+00
  1.016452e+01    3.083812e+00
  1.018040e+01    3.078695e+00
  1.019627e+01    3.047710e+00
  1.021215e+01    3.124600e+00
  1.022803e+01    3.047916e+00
  1.024390e+01    2.993506e+00
  1.025978e+01    3.013977e+00
  1.027565e+01    3.062923e+00
  1.029153e+01    3.119761e+00
  1.030740e+01    3.095553e+00
  1.032328e+01    3.079727e+00
  1.033915e+01    3.072372e+00
  1.035503e+01    2.977281e+00
  1.037091e+01    3.007045e+00
  1.038678e+01    2.989723e+00
  1.040266e+01    2.996409e+00
  1.041853e+01    2.980855e+00
  1.043441e+01    2.983899e+00
  1.045028e+01    3.037982e+00
  1.046616e+01    3.027965e+00
  1.048204e+01    3.045104e+00
  1.049791e+01    3.032368e+00
  1.051379e+01    2.973936e+00
  1.052966e+01    2.982363e+00
  1.054554e+01    3.002557e+00
  1.056141e+01    3.022818e+00
  1.057729e+01    2.983080e+00
  1.059316e+01    2.982397e+00
  1.060904e+01    2.980448e+00
  1.062492e+01    2.975294e+00
  1.064079e+01    3.041255e+00
  1.065667e+01    3.018162e+00
  1.067254e+01    3.007830e+00
  1.068842e+01    2.971678e+00
  1.070429e+01    2.986237e+00
  1.072017e+01    2.983323e+00
  1.073604e+01    2.941699e+00
  1.075192e+01    2.988093e+00
  1.076780e+01    2.990371e+00
  1.078367e+01    2.963430e+00
  1.079955e+01    2.995253e+00
  1.081542e+01    3.020693e+00
  1.083130e+01    2.987517e+00
  1.084717e+01    2.990175e+00
  1.086305e+01    2.935419e+00
  1.087892e+01    2.964296e+00
  1.089480e+01    2.953842e+00
  1.091068e+01    2.955017e+00
  1.092655e+01    2.961689e+00
  1.094243e+01    2.933091e+00
  1.095830e+01    2.929284e+00
  1.097418e+01    2.884694e+00
  1.099005e+01    2.871629e+00
  1.100593e+01    2.886394e+00
  1.102180e+01    2.846351e+00
  1.103768e+01    2.866428e+00
  1.105356e+01    2.862369e+00
  1.106943e+01    2.907098e+00
  1.108531e+01    2.910555e+00
  1.110118e+01    2.902280e+00
  1.111706e+01    2.835174e+00
  1.113293e+01    2.877173e+00
  1.114881e+01    2.911315e+00
  1.116468e+01    2.925257e+00
  1.118056e+01    2.896948e+00
  1.119644e+01    2.835577e+00
  1.121231e+01    2.823435e+00
  1.122819e+01    2.806552e+00
  1.124406e+01    2.837488e+00
  1.125994e+01    2.900272e+00
  1.127581e+01    2.880228e+00
  1.129169e+01    2.799913e+00
  1.130756e+01    2.780468e+00
  1.132344e+01    2.799740e+00
  1.133932e+01    2.825399e+00
  1.135519e+01    2.814350e+00
  1.137107e+01    2.812580e+00
  1.138694e+01    2.827203e+00
  1.140282e+01    2.780774e+00
  1.141869e+01    2.834687e+00
  1.143457e+01    2.871065e+00
  1.145045e+01    2.843034e+00
  1.146632e+01    2.829597e+00
  1.148220e+01    2.814963e+00
  1.149807e+01    2.810452e+00
  1.151395e+01    2.811891e+00
  1.152982e+01    2.772548e+00
  1.154570e+01    2.804147e+00
  1.156157e+01    2.776579e+00
  1.157745e+01    2.759658e+00
  1.159333e+01    2.802585e+00
  1.160920e+01    2.780314e+00
  1.162508e+01    2.750523e+00
  1.164095e+01    2.750586e+00
  1.165683e+01    2.751134e+00
  1.167270e+01    2.755116e+00
  1.168858e+01    2.793153e+00
  1.170445e+01    2.757877e+00
  1.172033e+01    2.736735e+00
  1.173621e+01    2.748977e+00
  1.175208e+01    2.735662e+00
  1.176796e+01    2.756288e+00
  1.178383e+01    2.778267e+00
  1.179971e+01    2.766856e+00
  1.181558e+01    2.730687e+00
  1.183146e+01    2.722184e+00
  1.184733e+01    2.733013e+00
  1.186321e+01    2.741130e+00
  1.187909e+01    2.703083e+00
  1.189496e+01    2.733475e+00
  1.191084e+01    2.789963e+00
  1.192671e+01    2.785943e+00
  1.194259e+01    2.702086e+00
  1.195846e+01    2.691000e+00
  1.197434e+01    2.704860e+00
  1.199021e+01    2.705670e+00
  1.200609e+01    2.748776e+00
  1.202197e+01    2.769978e+00
  1.203784e+01    2.690001e+00
  1.205372e+01    2.666177e+00
  1.206959e+01    2.689518e+00
  1.208547e+01    2.646350e+00
  1.210134e+01    2.709539e+00
  1.211722e+01    2.719847e+00
  1.213309e+01    2.751229e+00
  1.214897e+01    2.718348e+00
  1.216485e+01    2.715033e+00
  1.218072e+01    2.722452e+00
  1.219660e+01    2.654803e+00
  1.221247e+01    2.657347e+00
  1.222835e+01    2.699014e+00
  1.224422e+01    2.698178e+00
  1.226010e+01    2.696987e+00
  1.227597e+01    2.678111e+00
  1.229185e+01    2.641269e+00
  1.230773e+01    2.675139e+00
  1.232360e+01    2.665601e+00
  1.233948e+01    2.680397e+00
  1.235535e+01    2.676439e+00
  1.237123e+01    2.703872e+00
  1.238710e+01    2.697361e+00
  1.240298e+01    2.690706e+00
  1.241886e+01    2.675228e+00
  1.243473e+01    2.721000e+00
  1.245061e+01    2.723388e+00
  1.246648e+01    2.687653e+00
  1.248236e+01    2.678602e+00
  1.249823e+01    2.746261e+00
  1.251411e+01    2.752592e+00
  1.252998e+01    2.747337e+00
  1.254586e+01    2.684854e+00
  1.256174e+01    2.668742e+00
  1.257761e+01    2.695971e+00
  1.259349e+01    2.751245e+00
  1.260936e+01    2.760523e+00
  1.262524e+01    2.758631e+00
  1.264111e+01    2.767097e+00
  1.265699e+01    2.773441e+00
  1.267286e+01    2.790576e+00
  1.268874e+01    2.818271e+00
  1.270462e+01    2.813628e+00
  1.272049e+01    2.850031e+00
  1.273637e+01    2.900964e+00
  1.275224e+01    2.841505e+00
  1.276812e+01    2.903438e+00
  1.278399e+01    2.987355e+00
  1.279987e+01    3.012530e+00
  1.281574e+01    3.047788e+00
  1.283162e+01    3.129803e+00
  1.284750e+01    3.191606e+00
  1.286337e+01    3.276937e+00
  1.287925e+01    3.418574e+00
  1.289512e+01    3.470407e+00
  1.291100e+01    3.685619e+00
  1.292687e+01    3.846596e+00
  1.294275e+01    4.129765e+00
  1.295862e+01    4.407210e+00
  1.297450e+01    4.802312e+00
  1.299038e+01    5.293356e+00
  1.300625e+01    5.952042e+00
  1.302213e+01    6.752502e+00
  1.303800e+01    7.667756e+00
  1.305388e+01    8.906885e+00
  1.306975e+01    1.025893e+01
  1.308563e+01    1.151409e+01
  1.310150e+01    1.276623e+01
  1.311738e+01    1.383491e+01
  1.313326e+01    1.490109e+01
  1.314913e+01    1.576156e+01
  1.316501e+01    1.629011e+01
  1.318088e+01    1.628760e+01
  1.319676e+01    1.558855e+01
  1.321263e+01    1.424271e+01
  1.322851e+01    1.258673e+01
  1.324438e+01    1.070818e+01
  1.326026e+01    9.043486e+00
  1.327614e+01    7.782786e+00
  1.329201e+01    6.795462e+00
  1.330789e+01    5.928267e+00
  1.332376e+01    5.272512e+00
  1.333964e+01    4.796512e+00
  1.335551e+01    4.432753e+00
  1.337139e+01    4.118300e+00
  1.338727e+01    3.841286e+00
  1.340314e+01    3.637591e+00
  1.341902e+01    3.504252e+00
  1.343489e+01    3.365584e+00
  1.345077e+01    3.256645e+00
  1.346664e+01    3.148156e+00
  1.348252e+01    3.023047e+00
  1.349839e+01    2.981236e+00
  1.351427e+01    2.923790e+00
  1.353015e+01    2.845169e+00
  1.354602e+01    2.830724e+00
  1.356190e+01    2.750190e+00
  1.357777e+01    2.687939e+00
  1.359365e+01    2.682676e+00
  1.360952e+01    2.670875e+00
  1.362540e+01    2.684848e+00
  1.364127e+01    2.640109e+00
  1.365715e+01    2.583352e+00
  1.367303e+01    2.536583e+00
  1.368890e+01    2.573609e+00
  1.370478e+01    2.533097e+00
  1.372065e+01    2.523514e+00
  1.373653e+01    2.476395e+00
  1.375240e+01    2.493454e+00
  1.376828e+01    2.491777e+00
  1.378415e+01    2.450461e+00
  1.380003e+01    2.477379e+00
  1.381591e+01    2.449476e+00
  1.383178e+01    2.488590e+00
  1.384766e+01    2.450953e+00
  1.386353e+01    2.443221e+00
  1.387941e+01    2.447361e+00
  1.389528e+01    2.434218e+00
  1.391116e+01    2.410819e+00
  1.392703e+01    2.392855e+00
  1.394291e+01    2.454294e+00
  1.395879e+01    2.401663e+00
  1.397466e+01    2.352962e+00
  1.399054e+01    2.373411e+00
  1.400641e+01    2.335308e+00
  1.402229e+01    2.310144e+00
  1.403816e+01    2.402388e+00
  1.405404e+01    2.359817e+00
  1.406991e+01    2.364059e+00
  1.408579e+01    2.349893e+00
  1.410167e+01    2.346783e+00
  1.411754e+01    2.322196e+00
  1.413342e+01    2.318662e+00
  1.414929e+01    2.334606e+00
  1.416517e+01    2.344534e+00
  1.418104e+01    2.368003e+00
  1.419692e+01    2.337111e+00
  1.421279e+01    2.288521e+00
  1.422867e+01    2.292377e+00
  1.424455e+01    2.285405e+00
  1.426042e+01    2.283989e+00
  1.427630e+01    2.311731e+00
  1.429217e+01    2.271716e+00
  1.430805e+01    2.292882e+00
  1.432392e+01    2.276397e+00
  1.433980e+01    2.249520e+00
  1.435568e+01    2.235274e+00
  1.437155e+01    2.213478e+00
  1.438743e+01    2.206380e+00
  1.440330e+01    2.224851e+00
  1.441918e+01    2.224140e+00
  1.443505e+01    2.198640e+00
  1.445093e+01    2.260413e+00
  1.446680e+01    2.248760e+00
  1.448268e+01    2.206308e+00
  1.449856e+01    2.193862e+00
  1.451443e+01    2.211177e+00
  1.453031e+01    2.201423e+00
  1.454618e+01    2.251679e+00
  1.456206e+01    2.224895e+00
  1.457793e+01    2.217119e+00
  1.459381e+01    2.241094e+00
  1.460968e+01    2.217278e+00
  1.462556e+01    2.206883e+00
  1.464144e+01    2.252059e+00
  1.465731e+01    2.256874e+00
  1.467319e+01    2.216188e+00
  1.468906e+01    2.224355e+00
  1.470494e+01    2.216335e+00
  1.472081e+01    2.216162e+00
  1.473669e+01    2.219361e+00
  1.475256e+01    2.175352e+00
  1.476844e+01    2.176628e+00
  1.478432e+01    2.187701e+00
  1.480019e+01    2.199377e+00
  1.481607e+01    2.223789e+00
  1.483194e+01    2.229273e+00
  1.484782e+01    2.218737e+00
  1.486369e+01    2.222664e+00
  1.487957e+01    2.229899e+00
  1.489544e+01    2.233777e+00
  1.491132e+01    2.232038e+00
  1.492720e+01    2.284550e+00
  1.494307e+01    2.351444e+00
  1.495895e+01    2.323397e+00
  1.497482e+01    2.344788e+00
  1.499070e+01    2.421002e+00
  1.500657e+01    2.409807e+00
  1.502245e+01    2.468146e+00
  1.503832e+01    2.549655e+00
  1.505420e+01    2.693259e+00
  1.507008e+01    2.835915e+00
  1.508595e+01    3.025751e+00
  1.510183e+01    3.231638e+00
  1.511770e+01    3.482751e+00
  1.513358e+01    3.788840e+00
  1.514945e+01    4.165717e+00
  1.516533e+01    4.510652e+00
  1.518120e+01    4.798829e+00
  1.519708e+01    5.104430e+00
  1.521296e+01    5.411828e+00
  1.522883e+01    5.621795e+00
  1.524471e+01    5.784528e+00
  1.526058e+01    5.876815e+00
  1.527646e+01    5.715287e+00
  1.529233e+01    5.437040e+00
  1.530821e+01    5.080224e+00
  1.532409e+01    4.623235e+00
  1.533996e+01    4.180385e+00
  1.535584e+01    3.805491e+00
  1.537171e+01    3.406335e+00
  1.538759e+01    3.110133e+00
  1.540346e+01    2.936915e+00
  1.541934e+01    2.812438e+00
  1.543521e+01    2.674282e+00
  1.545109e+01    2.532063e+00
  1.546697e+01    2.436991e+00
  1.548284e+01    2.372601e+00
  1.549872e+01    2.333601e+00
  1.551459e+01    2.245792e+00
  1.553047e+01    2.161440e+00
  1.554634e+01    2.166125e+00
  1.556222e+01    2.199222e+00
  1.557809e+01    2.130348e+00
  1.559397e+01    2.068530e+00
  1.560985e+01    2.066672e+00
  1.562572e+01    2.106003e+00
  1.564160e+01    2.086703e+00
  1.565747e+01    2.025338e+00
  1.567335e+01    2.024087e+00
  1.568922e+01    2.050001e+00
  1.570510e+01    1.991285e+00
  1.572097e+01    1.974389e+00
  1.573685e+01    1.985274e+00
  1.575273e+01    1.969156e+00
  1.576860e+01    1.973190e+00
  1.578448e+01    1.964167e+00
  1.580035e+01    1.959710e+00
  1.581623e+01    1.940056e+00
  1.583210e+01    1.911467e+00
  1.584798e+01    1.919473e+00
  1.586385e+01    1.929974e+00
  1.587973e+01    1.924339e+00
  1.589561e+01    1.921938e+00
  1.591148e+01    1.916168e+00
  1.592736e+01    1.916028e+00
  1.594323e+01    1.907921e+00
  1.595911e+01    1.891559e+00
  1.597498e+01    1.922572e+00
  1.599086e+01    1.869844e+00
  1.600673e+01    1.910982e+00
  1.602261e+01    1.897219e+00
  1.603849e+01    1.871776e+00
  1.605436e+01    1.866132e+00
  1.607024e+01    1.868304e+00
  1.608611e+01    1.860012e+00
  1.610199e+01    1.876119e+00
  1.611786e+01    1.822790e+00
  1.613374e+01    1.810051e+00
  1.614961e+01    1.827055e+00
  1.616549e+01    1.855677e+00
  1.618137e+01    1.856368e+00
  1.619724e+01    1.842527e+00
  1.621312e+01    1.841711e+00
  1.622899e+01    1.793867e+00
  1.624487e+01    1.787920e+00
  1.626074e+01    1.791610e+00
  1.627662e+01    1.782381e+00
  1.629250e+01    1.801827e+00
  1.630837e+01    1.795389e+00
  1.632425e+01    1.814533e+00
  1.634012e+01    1.791929e+00
  1.635600e+01    1.762448e+00
  1.637187e+01    1.794801e+00
  1.638775e+01    1.765305e+00
  1.640362e+01    1.809664e+00
  1.641950e+01    1.784189e+00
  1.643538e+01    1.751531e+00
  1.645125e+01    1.771644e+00
  1.646713e+01    1.769345e+00
  1.648300e+01    1.775960e+00
  1.649888e+01    1.772794e+00
  1.651475e+01    1.725545e+00
  1.653063e+01    1.731628e+00
  1.654650e+01    1.768593e+00
  1.656238e+01    1.754752e+00
  1.657826e+01    1.735065e+00
  1.659413e+01    1.716041e+00
  1.661001e+01    1.753634e+00
  1.662588e+01    1.752336e+00
  1.664176e+01    1.745442e+00
  1.665763e+01    1.729526e+00
  1.667351e+01    1.722032e+00
  1.668938e+01    1.752485e+00
  1.670526e+01    1.745843e+00
  1.672114e+01    1.702742e+00
  1.673701e+01    1.672677e+00
  1.675289e+01    1.733768e+00
  1.676876e+01    1.723012e+00
  1.678464e+01    1.714304e+00
  1.680051e+01    1.687101e+00
  1.681639e+01    1.713990e+00
  1.683226e+01    1.740714e+00
  1.684814e+01    1.711072e+00
  1.686402e+01    1.718848e+00
  1.687989e+01    1.673673e+00
  1.689577e+01    1.661709e+00
  1.691164e+01    1.659416e+00
  1.692752e+01    1.673470e+00
  1.694339e+01    1.695762e+00
  1.695927e+01    1.657186e+00
  1.697514e+01    1.654814e+00
  1.699102e+01    1.673204e+00
  1.700690e+01    1.678725e+00
  1.702277e+01    1.679934e+00
  1.703865e+01    1.664870e+00
  1.705452e+01    1.642080e+00
  1.707040e+01    1.638823e+00
  1.708627e+01    1.650113e+00
  1.710215e+01    1.658961e+00
  1.711802e+01    1.629202e+00
  1.713390e+01    1.626653e+00
  1.714978e+01    1.636174e+00
  1.716565e+01    1.627009e+00
  1.718153e+01    1.604736e+00
  1.719740e+01    1.634188e+00
  1.721328e+01    1.652640e+00
  1.722915e+01    1.638311e+00
  1.724503e+01    1.655875e+00
  1.726091e+01    1.628075e+00
  1.727678e+01    1.639511e+00
  1.729266e+01    1.614963e+00
  1.730853e+01    1.615390e+00
  1.732441e+01    1.599642e+00
  1.734028e+01    1.587965e+00
  1.735616e+01    1.603168e+00
  1.737203e+01    1.620131e+00
  1.738791e+01    1.606183e+00
  1.740379e+01    1.570638e+00
  1.741966e+01    1.592839e+00
  1.743554e+01    1.593682e+00
  1.745141e+01    1.613938e+00
  1.746729e+01    1.570074e+00
  1.748316e+01    1.581277e+00
  1.749904e+01    1.605918e+00
  1.751491e+01    1.590005e+00
  1.753079e+01    1.579110e+00
  1.754667e+01    1.568762e+00
  1.756254e+01    1.571323e+00
  1.757842e+01    1.577714e+00
  1.759429e+01    1.568313e+00
  1.761017e+01    1.572336e+00
  1.762604e+01    1.597283e+00
  1.764192e+01    1.589893e+00
  1.765779e+01    1.589681e+00
  1.767367e+01    1.560693e+00
  1.768955e+01    1.555059e+00
  1.770542e+01    1.577000e+00
  1.772130e+01    1.553944e+00
  1.773717e+01    1.549706e+00
  1.775305e+01    1.561779e+00
  1.776892e+01    1.566856e+00
  1.778480e+01    1.557706e+00
  1.780067e+01    1.556582e+00
  1.781655e+01    1.551501e+00
  1.783243e+01    1.562982e+00
  1.784830e+01    1.562363e+00
  1.786418e+01    1.546787e+00
  1.788005e+01    1.524522e+00
  1.789593e+01    1.511989e+00
  1.791180e+01    1.548259e+00
  1.792768e+01    1.544941e+00
  1.794355e+01    1.524394e+00
  1.795943e+01    1.551062e+00
  1.797531e+01    1.502672e+00
  1.799118e+01    1.520801e+00
  1.800706e+01    1.514245e+00
  1.802293e+01    1.512684e+00
  1.803881e+01    1.523171e+00
  1.805468e+01    1.514910e+00
  1.807056e+01    1.528237e+00
  1.808643e+01    1.506157e+00
  1.810231e+01    1.482521e+00
  1.811819e+01    1.510289e+00
  1.813406e+01    1.505950e+00
  1.814994e+01    1.501128e+00
  1.816581e+01    1.489025e+00
  1.818169e+01    1.495670e+00
  1.819756e+01    1.478678e+00
  1.821344e+01    1.472195e+00
  1.822932e+01    1.475032e+00
  1.824519e+01    1.476459e+00
  1.826107e+01    1.477054e+00
  1.827694e+01    1.487021e+00
  1.829282e+01    1.479566e+00
  1.830869e+01    1.451827e+00
  1.832457e+01    1.464549e+00
  1.834044e+01    1.485215e+00
  1.835632e+01    1.491997e+00
  1.837220e+01    1.474710e+00
  1.838807e+01    1.453340e+00
  1.840395e+01    1.433807e+00
  1.841982e+01    1.449166e+00
  1.843570e+01    1.473024e+00
  1.845157e+01    1.443944e+00
  1.846745e+01    1.438217e+00
  1.848332e+01    1.457973e+00
  1.849920e+01    1.488942e+00
  1.851508e+01    1.454505e+00
  1.853095e+01    1.451278e+00
  1.854683e+01    1.453860e+00
  1.856270e+01    1.444623e+00
  1.857858e+01    1.464443e+00
  1.859445e+01    1.469172e+00
  1.861033e+01    1.435263e+00
  1.862620e+01    1.431430e+00
  1.864208e+01    1.420022e+00
  1.865796e+01    1.429820e+00
  1.867383e+01    1.421842e+00
  1.868971e+01    1.409209e+00
  1.870558e+01    1.433123e+00
  1.872146e+01    1.423993e+00
  1.873733e+01    1.403721e+00
  1.875321e+01    1.418011e+00
  1.876908e+01    1.412812e+00
  1.878496e+01    1.405524e+00
  1.880084e+01    1.414753e+00
  1.881671e+01    1.415949e+00
  1.883259e+01    1.377943e+00
  1.884846e+01    1.372494e+00
  1.886434e+01    1.381553e+00
  1.888021e+01    1.398342e+00
  1.889609e+01    1.421017e+00
  1.891196e+01    1.400540e+00
  1.892784e+01    1.387597e+00
  1.894372e+01    1.383392e+00
  1.895959e+01    1.379535e+00
  1.897547e+01    1.396209e+00
  1.899134e+01    1.378311e+00
  1.900722e+01    1.386081e+00
  1.902309e+01    1.377807e+00
  1.903897e+01    1.411252e+00
  1.905484e+01    1.382172e+00
  1.907072e+01    1.355231e+00
  1.908660e+01    1.358593e+00
  1.910247e+01    1.387531e+00
  1.911835e+01    1.375496e+00
  1.913422e+01    1.391268e+00
  1.915010e+01    1.360410e+00
  1.916597e+01    1.348459e+00
  1.918185e+01    1.360559e+00
  1.919773e+01    1.371231e+00
  1.921360e+01    1.349161e+00
  1.922948e+01    1.347770e+00
  1.924535e+01    1.365251e+00
  1.926123e+01    1.370113e+00
  1.927710e+01    1.381652e+00
  1.929298e+01    1.396901e+00
  1.930885e+01    1.342376e+00
  1.932473e+01    1.377905e+00
  1.934061e+01    1.339571e+00
  1.935648e+01    1.326709e+00
  1.937236e+01    1.345613e+00
  1.938823e+01    1.344748e+00
  1.940411e+01    1.352203e+00
  1.941998e+01    1.331393e+00
  1.943586e+01    1.329227e+00
  1.945173e+01    1.325942e+00
  1.946761e+01    1.327325e+00
  1.948349e+01    1.335219e+00
  1.949936e+01    1.334382e+00
  1.951524e+01    1.342117e+00
  1.953111e+01    1.349400e+00
  1.954699e+01    1.352570e+00
  1.956286e+01    1.350413e+00
  1.957874e+01    1.320281e+00
  1.959461e+01    1.330435e+00
  1.961049e+01    1.297806e+00
  1.962637e+01    1.305742e+00
  1.964224e+01    1.311753e+00
  1.965812e+01    1.327827e+00
  1.967399e+01    1.319529e+00
  1.968987e+01    1.310896e+00
  1.970574e+01    1.342963e+00
  1.972162e+01    1.314265e+00
  1.973749e+01    1.298796e+00
  1.975337e+01    1.322667e+00
  1.976925e+01    1.299368e+00
  1.978512e+01    1.306733e+00
  1.980100e+01    1.301727e+00
  1.981687e+01    1.309579e+00
  1.983275e+01    1.282499e+00
  1.984862e+01    1.305970e+00
  1.986450e+01    1.308761e+00
  1.988037e+01    1.288033e+00
  1.989625e+01    1.317567e+00
  1.991213e+01    1.307475e+00
  1.992800e+01    1.287429e+00
  1.994388e+01    1.291017e+00
  1.995975e+01    1.291956e+00
  1.997563e+01    1.269833e+00
  1.999150e+01    1.274345e+00
  2.000738e+01    1.289635e+00
  2.002325e+01    1.294190e+00
  2.003913e+01    1.260813e+00
  2.005501e+01    1.286329e+00
  2.007088e+01    1.289265e+00
  2.008676e+01    1.272641e+00
  2.010263e+01    1.264035e+00
  2.011851e+01    1.254004e+00
  2.013438e+01    1.260175e+00
  2.015026e+01    1.283903e+00
  2.016614e+01    1.313962e+00
  2.018201e+01    1.261586e+00
  2.019789e+01    1.264513e+00
  2.021376e+01    1.264838e+00
  2.022964e+01    1.288583e+00
  2.024551e+01    1.286657e+00
  2.026139e+01    1.297113e+00
  2.027726e+01    1.278607e+00
  2.029314e+01    1.247383e+00
  2.030902e+01    1.260441e+00
  2.032489e+01    1.256348e+00
  2.034077e+01    1.215668e+00
  2.035664e+01    1.232359e+00
  2.037252e+01    1.242386e+00
  2.038839e+01    1.255379e+00
  2.040427e+01    1.260669e+00
  2.042014e+01    1.252372e+00
  2.043602e+01    1.253706e+00
  2.045190e+01    1.238361e+00
  2.046777e+01    1.238186e+00
  2.048365e+01    1.244097e+00
  2.049952e+01    1.210658e+00
  2.051540e+01    1.234091e+00
  2.053127e+01    1.260711e+00
  2.054715e+01    1.259708e+00
  2.056302e+01    1.241932e+00
  2.057890e+01    1.236908e+00
  2.059478e+01    1.222391e+00
  2.061065e+01    1.226031e+00
  2.062653e+01    1.234146e+00
  2.064240e+01    1.231131e+00
  2.065828e+01    1.247547e+00
  2.067415e+01    1.241552e+00
  2.069003e+01    1.258803e+00
  2.070590e+01    1.270427e+00
  2.072178e+01    1.245118e+00
  2.073766e+01    1.227975e+00
  2.075353e+01    1.219824e+00
  2.076941e+01    1.231883e+00
  2.078528e+01    1.220099e+00
  2.080116e+01    1.224521e+00
  2.081703e+01    1.240694e+00
  2.083291e+01    1.238424e+00
  2.084878e+01    1.249308e+00
  2.086466e+01    1.239881e+00
  2.088054e+01    1.217272e+00
  2.089641e+01    1.232680e+00
  2.091229e+01    1.243016e+00
  2.092816e+01    1.239075e+00
  2.094404e+01    1.230877e+00
  2.095991e+01    1.216061e+00
  2.097579e+01    1.241305e+00
  2.099166e+01    1.251428e+00
  2.100754e+01    1.237539e+00
  2.102342e+01    1.222907e+00
  2.103929e+01    1.224515e+00
  2.105517e+01    1.238412e+00
  2.107104e+01    1.240830e+00
  2.108692e+01    1.204817e+00
  2.110279e+01    1.226776e+00
  2.111867e+01    1.215133e+00
  2.113455e+01    1.212808e+00
  2.115042e+01    1.227779e+00
  2.116630e+01    1.218111e+00
  2.118217e+01    1.227906e+00
  2.119805e+01    1.233963e+00
  2.121392e+01    1.235760e+00
  2.122980e+01    1.248346e+00
  2.124567e+01    1.257154e+00
  2.126155e+01    1.261131e+00
  2.127743e+01    1.263438e+00
  2.129330e+01    1.290572e+00
  2.130918e+01    1.273164e+00
  2.132505e+01    1.279189e+00
  2.134093e+01    1.275414e+00
  2.135680e+01    1.287256e+00
  2.137268e+01    1.300172e+00
  2.138855e+01    1.267149e+00
  2.140443e+01    1.319991e+00
  2.142031e+01    1.326191e+00
  2.143618e+01    1.358513e+00
  2.145206e+01    1.358563e+00
  2.146793e+01    1.361281e+00
  2.148381e+01    1.402938e+00
  2.149968e+01    1.419172e+00
  2.151556e+01    1.445227e+00
  2.153143e+01    1.476068e+00
  2.154731e+01    1.532974e+00
  2.156319e+01    1.573959e+00
  2.157906e+01    1.615889e+00
  2.159494e+01    1.700415e+00
  2.161081e+01    1.772281e+00
  2.162669e+01    1.850380e+00
  2.164256e+01    1.976671e+00
  2.165844e+01    2.110064e+00
  2.167431e+01    2.302359e+00
  2.169019e+01    2.508818e+00
  2.170607e+01    2.813248e+00
  2.172194e+01    3.163931e+00
  2.173782e+01    3.583854e+00
  2.175369e+01    4.037158e+00
  2.176957e+01    4.637450e+00
  2.178544e+01    5.240832e+00
  2.180132e+01    5.887434e+00
  2.181719e+01    6.498487e+00
  2.183307e+01    7.236589e+00
  2.184895e+01    7.907378e+00
  2.186482e+01    8.446205e+00
  2.188070e+01    8.816273e+00
  2.189657e+01    8.944746e+00
  2.191245e+01    8.752769e+00
  2.192832e+01    8.285984e+00
  2.194420e+01    7.442153e+00
  2.196007e+01    6.589212e+00
  2.197595e+01    5.700849e+00
  2.199183e+01    4.875900e+00
  2.200770e+01    4.145589e+00
  2.202358e+01    3.628027e+00
  2.203945e+01    3.198751e+00
  2.205533e+01    2.823434e+00
  2.207120e+01    2.523002e+00
  2.208708e+01    2.338346e+00
  2.210296e+01    2.164115e+00
  2.211883e+01    2.001285e+00
  2.213471e+01    1.866294e+00
  2.215058e+01    1.755201e+00
  2.216646e+01    1.660501e+00
  2.218233e+01    1.575755e+00
  2.219821e+01    1.521678e+00
  2.221408e+01    1.501153e+00
  2.222996e+01    1.467808e+00
  2.224584e+01    1.414275e+00
  2.226171e+01    1.388248e+00
  2.227759e+01    1.337950e+00
  2.229346e+01    1.301382e+00
  2.230934e+01    1.303203e+00
  2.232521e+01    1.258188e+00
  2.234109e+01    1.233855e+00
  2.235696e+01    1.244186e+00
  2.237284e+01    1.234942e+00
  2.238872e+01    1.202387e+00
  2.240459e+01    1.199517e+00
  2.242047e+01    1.183281e+00
  2.243634e+01    1.191406e+00
  2.245222e+01    1.177092e+00
  2.246809e+01    1.168507e+00
  2.248397e+01    1.174271e+00
  2.249984e+01    1.155633e+00
  2.251572e+01    1.135759e+00
  2.253160e+01    1.150361e+00
  2.254747e+01    1.119850e+00
  2.256335e+01    1.111851e+00
  2.257922e+01    1.120054e+00
  2.259510e+01    1.111908e+00
  2.261097e+01    1.096401e+00
  2.262685e+01    1.089955e+00
  2.264272e+01    1.087109e+00
  2.265860e+01    1.109710e+00
  2.267448e+01    1.078301e+00
  2.269035e+01    1.038337e+00
  2.270623e+01    1.052974e+00
  2.272210e+01    1.078588e+00
  2.273798e+01    1.081646e+00
  2.275385e+01    1.069913e+00
  2.276973e+01    1.060766e+00
  2.278560e+01    1.059816e+00
  2.280148e+01    1.050820e+00
  2.281736e+01    1.051792e+00
  2.283323e+01    1.041075e+00
  2.284911e+01    1.035000e+00
  2.286498e+01    1.032657e+00
  2.288086e+01    1.056379e+00
  2.289673e+01    1.029215e+00
  2.291261e+01    1.034209e+00
  2.292848e+01    1.047619e+00
  2.294436e+01    1.038783e+00
  2.296024e+01    1.027951e+00
  2.297611e+01    1.031450e+00
  2.299199e+01    1.041194e+00
  2.300786e+01    1.031357e+00
  2.302374e+01    1.048666e+00
  2.303961e+01    1.019495e+00
  2.305549e+01    1.005712e+00
  2.307137e+01    9.891510e-01
  2.308724e+01    9.968079e-01
  2.310312e+01    1.013126e+00
  2.311899e+01    1.007314e+00
  2.313487e+01    1.001186e+00
  2.315074e+01    1.014829e+00
  2.316662e+01    1.018352e+00
  2.318249e+01    9.984699e-01
  2.319837e+01    9.980731e-01
  2.321425e+01    9.921610e-01
  2.323012e+01    1.001135e+00
  2.324600e+01    9.972309e-01
  2.326187e+01    9.939924e-01
  2.327775e+01    9.760448e-01
  2.329362e+01    9.693736e-01
  2.330950e+01    9.864636e-01
  2.332537e+01    9.908488e-01
  2.334125e+01    9.657741e-01
  2.335713e+01    9.554294e-01
  2.337300e+01    9.553677e-01
  2.338888e+01    9.773746e-01
  2.340475e+01    9.738501e-01
  2.342063e+01    9.620176e-01
  2.343650e+01    9.762015e-01
  2.345238e+01    9.662066e-01
  2.346825e+01    9.675498e-01
  2.348413e+01    9.751875e-01
  2.350001e+01    9.672377e-01
  2.351588e+01    9.562088e-01
  2.353176e+01    9.718015e-01
  2.354763e+01    9.594574e-01
  2.356351e+01    9.308330e-01
  2.357938e+01    9.405672e-01
  2.359526e+01    9.548709e-01
  2.361113e+01    9.866612e-01
  2.362701e+01    9.948854e-01
  2.364289e+01    9.642723e-01
  2.365876e+01    9.234138e-01
  2.367464e+01    9.260987e-01
  2.369051e+01    9.245687e-01
  2.370639e+01    9.388999e-01
  2.372226e+01    9.389719e-01
  2.373814e+01    9.303806e-01
  2.375401e+01    9.308604e-01
  2.376989e+01    9.425045e-01
  2.378577e+01    9.152725e-01
  2.380164e+01    9.192235e-01
  2.381752e+01    9.260655e-01
  2.383339e+01    9.411957e-01
  2.384927e+01    9.154280e-01
  2.386514e+01    9.195384e-01
  2.388102e+01    9.007728e-01
  2.389689e+01    9.100355e-01
  2.391277e+01    9.051012e-01
  2.392865e+01    9.013562e-01
  2.394452e+01    8.980575e-01
  2.396040e+01    9.007891e-01
  2.397627e+01    9.196628e-01
  2.399215e+01    9.187890e-01
  2.400802e+01    9.113124e-01
  2.402390e+01    9.014165e-01
  2.403978e+01    9.139171e-01
  2.405565e+01    9.008060e-01
  2.407153e+01    8.887310e-01
  2.408740e+01    8.865305e-01
  2.410328e+01    8.691725e-01
  2.411915e+01    8.935782e-01
  2.413503e+01    8.943569e-01
  2.415090e+01    8.741822e-01
  2.416678e+01    8.764169e-01
  2.418266e+01    9.071465e-01
  2.419853e+01    9.006936e-01
  2.421441e+01    8.910397e-01
  2.423028e+01    8.701264e-01
  2.424616e+01    8.716497e-01
  2.426203e+01    8.970031e-01
  2.427791e+01    8.949137e-01
  2.429378e+01    8.920074e-01
  2.430966e+01    8.989058e-01
  2.432554e+01    8.977996e-01
  2.434141e+01    8.900118e-01
  2.435729e+01    8.980728e-01
  2.437316e+01    8.791094e-01
  2.438904e+01    8.902895e-01
  2.440491e+01    9.116247e-01
  2.442079e+01    8.993709e-01
  2.443666e+01    8.974385e-01
  2.445254e+01    8.942627e-01
  2.446842e+01    8.835841e-01
  2.448429e+01    8.963314e-01
  2.450017e+01    8.938272e-01
  2.451604e+01    8.968327e-01
  2.453192e+01    8.899500e-01
  2.454779e+01    8.943450e-01
  2.456367e+01    8.975291e-01
  2.457954e+01    9.008993e-01
  2.459542e+01    9.004406e-01
  2.461130e+01    9.002962e-01
  2.462717e+01    9.003214e-01
  2.464305e+01    9.030831e-01
  2.465892e+01    8.728456e-01
  2.467480e+01    8.990801e-01
  2.469067e+01    9.071432e-01
  2.470655e+01    9.002120e-01
  2.472242e+01    8.948535e-01
  2.473830e+01    8.882864e-01
  2.475418e+01    8.866106e-01
  2.477005e+01    8.940874e-01
  2.478593e+01    8.844424e-01
  2.480180e+01    8.952086e-01
  2.481768e+01    8.908556e-01
  2.483355e+01    8.890094e-01
  2.484943e+01    8.972051e-01
  2.486530e+01    8.865235e-01
  2.488118e+01    8.940532e-01
  2.489706e+01    8.934880e-01
  2.491293e+01    8.801507e-01
  2.492881e+01    8.995873e-01
  2.494468e+01    8.834031e-01
  2.496056e+01    8.866991e-01
  2.497643e+01    8.919056e-01
  2.499231e+01    9.017167e-01
  2.500819e+01    9.054723e-01
  2.502406e+01    9.259481e-01
  2.503994e+01    9.049436e-01
  2.505581e+01    8.980148e-01
  2.507169e+01    9.172406e-01
  2.508756e+01    9.016471e-01
  2.510344e+01    9.183023e-01
  2.511931e+01    9.390820e-01
  2.513519e+01    9.114324e-01
  2.515107e+01    8.979447e-01
  2.516694e+01    9.155487e-01
  2.518282e+01    9.352511e-01
  2.519869e+01    9.397814e-01
  2.521457e+01    9.396353e-01
  2.523044e+01    9.399024e-01
  2.524632e+01    9.431524e-01
  2.526219e+01    9.581710e-01
  2.527807e+01    9.465351e-01
  2.529395e+01    9.468538e-01
  2.530982e+01    9.478210e-01
  2.532570e+01    9.568691e-01
  2.534157e+01    9.508764e-01
  2.535745e+01    9.658659e-01
  2.537332e+01    9.876152e-01
  2.538920e+01    9.821091e-01
  2.540507e+01    9.944170e-01
  2.542095e+01    9.963680e-01
  2.543683e+01    1.010889e+00
  2.545270e+01    1.008977e+00
  2.546858e+01    1.021841e+00
  2.548445e+01    1.030241e+00
  2.550033e+01    1.059442e+00
  2.551620e+01    1.084222e+00
  2.553208e+01    1.108481e+00
  2.554795e+01    1.120732e+00
  2.556383e+01    1.122938e+00
  2.557971e+01    1.139493e+00
  2.559558e+01    1.164436e+00
  2.561146e+01    1.194236e+00
  2.562733e+01    1.247682e+00
  2.564321e+01    1.300947e+00
  2.565908e+01    1.360162e+00
  2.567496e+01    1.415316e+00
  2.569083e+01    1.499411e+00
  2.570671e+01    1.592417e+00
  2.572259e+01    1.692876e+00
  2.573846e+01    1.815495e+00
  2.575434e+01    2.044799e+00
  2.577021e+01    2.249828e+00
  2.578609e+01    2.505445e+00
  2.580196e+01    2.804732e+00
  2.581784e+01    3.228832e+00
  2.583371e+01    3.678924e+00
  2.584959e+01    4.207167e+00
  2.586547e+01    4.710008e+00
  2.588134e+01    5.279208e+00
  2.589722e+01    5.897991e+00
  2.591309e+01    6.393063e+00
  2.592897e+01    6.866356e+00
  2.594484e+01    7.144001e+00
  2.596072e+01    7.095813e+00
  2.597660e+01    6.877687e+00
  2.599247e+01    6.471614e+00
  2.600835e+01    5.924885e+00
  2.602422e+01    5.266837e+00
  2.604010e+01    4.617509e+00
  2.605597e+01    3.966727e+00
  2.607185e+01    3.418860e+00
  2.608772e+01    2.960101e+00
  2.610360e+01    2.635446e+00
  2.611948e+01    2.368809e+00
  2.613535e+01    2.146549e+00
  2.615123e+01    1.936849e+00
  2.616710e+01    1.788671e+00
  2.618298e+01    1.670502e+00
  2.619885e+01    1.561982e+00
  2.621473e+01    1.488393e+00
  2.623060e+01    1.417568e+00
  2.624648e+01    1.347097e+00
  2.626236e+01    1.303631e+00
  2.627823e+01    1.267565e+00
  2.629411e+01    1.219155e+00
  2.630998e+01    1.166804e+00
  2.632586e+01    1.131327e+00
  2.634173e+01    1.089502e+00
  2.635761e+01    1.081268e+00
  2.637348e+01    1.096173e+00
  2.638936e+01    1.063201e+00
  2.640524e+01    1.048483e+00
  2.642111e+01    1.040242e+00
  2.643699e+01    1.026111e+00
  2.645286e+01    1.013060e+00
  2.646874e+01    1.024171e+00
  2.648461e+01    1.030226e+00
  2.650049e+01    9.959913e-01
  2.651636e+01    9.989020e-01
  2.653224e+01    1.010427e+00
  2.654812e+01    1.004717e+00
  2.656399e+01    9.838877e-01
  2.657987e+01    9.778148e-01
  2.659574e+01    9.637001e-01
  2.661162e+01    9.898097e-01
  2.662749e+01    9.832209e-01
  2.664337e+01    1.008943e+00
  2.665924e+01    9.742790e-01
  2.667512e+01    9.651468e-01
  2.669100e+01    9.609578e-01
  2.670687e+01    9.886289e-01
  2.672275e+01    9.688858e-01
  2.673862e+01    9.714794e-01
  2.675450e+01    9.740494e-01
  2.677037e+01    9.564304e-01
  2.678625e+01    9.670665e-01
  2.680212e+01    9.910390e-01
  2.681800e+01    9.760279e-01
  2.683388e+01    9.869226e-01
  2.684975e+01    9.974507e-01
  2.686563e+01    9.838915e-01
  2.688150e+01    9.877550e-01
  2.689738e+01    9.995481e-01
  2.691325e+01    1.019050e+00
  2.692913e+01    1.032099e+00
  2.694501e+01    1.007169e+00
  2.696088e+01    1.012618e+00
  2.697676e+01    1.067607e+00
  2.699263e+01    1.082299e+00
  2.700851e+01    1.092123e+00
  2.702438e+01    1.132910e+00
  2.704026e+01    1.194197e+00
  2.705613e+01    1.241363e+00
  2.707201e+01    1.308414e+00
  2.708789e+01    1.401653e+00
  2.710376e+01    1.519378e+00
  2.711964e+01    1.598321e+00
  2.713551e+01    1.748183e+00
  2.715139e+01    1.888520e+00
  2.716726e+01    1.969420e+00
  2.718314e+01    2.071590e+00
  2.719901e+01    2.188690e+00
  2.721489e+01    2.196318e+00
  2.723077e+01    2.150527e+00
  2.724664e+01    2.100550e+00
  2.726252e+01    1.987196e+00
  2.727839e+01    1.814510e+00
  2.729427e+01    1.702453e+00
  2.731014e+01    1.554784e+00
  2.732602e+01    1.437909e+00
  2.734189e+01    1.341292e+00
  2.735777e+01    1.276324e+00
  2.737365e+01    1.216093e+00
  2.738952e+01    1.166679e+00
  2.740540e+01    1.135795e+00
  2.742127e+01    1.125150e+00
  2.743715e+01    1.092076e+00
  2.745302e+01    1.032478e+00
  2.746890e+01    1.014017e+00
  2.748477e+01    9.919838e-01
  2.750065e+01    9.859888e-01
  2.751653e+01    9.711298e-01
  2.753240e+01    9.629605e-01
  2.754828e+01    9.471694e-01
  2.756415e+01    9.311899e-01
  2.758003e+01    9.276685e-01
  2.759590e+01    9.494828e-01
  2.761178e+01    9.473361e-01
  2.762765e+01    9.452037e-01
  2.764353e+01    9.411122e-01
  2.765941e+01    9.353302e-01
  2.767528e+01    9.175150e-01
  2.769116e+01    9.060781e-01
  2.770703e+01    9.028486e-01
  2.772291e+01    9.165304e-01
  2.773878e+01    8.978340e-01
  2.775466e+01    9.097916e-01
  2.777054e+01    9.022362e-01
  2.778641e+01    8.780935e-01
  2.780229e+01    8.700218e-01
  2.781816e+01    8.865852e-01
  2.783404e+01    8.772938e-01
  2.784991e+01    8.981595e-01
  2.786579e+01    8.798265e-01
  2.788166e+01    8.722897e-01
  2.789754e+01    8.743410e-01
  2.791342e+01    8.670901e-01
  2.792929e+01    8.759576e-01
  2.794517e+01    8.653455e-01
  2.796104e+01    8.544413e-01
  2.797692e+01    8.601798e-01
  2.799279e+01    8.622831e-01
  2.800867e+01    8.737193e-01
  2.802454e+01    8.655975e-01
  2.804042e+01    8.770784e-01
  2.805630e+01    8.770533e-01
  2.807217e+01    8.587593e-01
  2.808805e+01    8.394662e-01
  2.810392e+01    8.467448e-01
  2.811980e+01    8.667182e-01
  2.813567e+01    8.769043e-01
  2.815155e+01    8.634361e-01
  2.816742e+01    8.571247e-01
  2.818330e+01    8.599555e-01
  2.819918e+01    8.644615e-01
  2.821505e+01    8.625846e-01
  2.823093e+01    8.431047e-01
  2.824680e+01    8.581281e-01
  2.826268e+01    8.507106e-01
  2.827855e+01    8.404112e-01
  2.829443e+01    8.584398e-01
  2.831030e+01    8.619891e-01
  2.832618e+01    8.477579e-01
  2.834206e+01    8.634586e-01
  2.835793e+01    8.315551e-01
  2.837381e+01    8.574890e-01
  2.838968e+01    8.469267e-01
  2.840556e+01    8.228964e-01
  2.842143e+01    8.334702e-01
  2.843731e+01    8.417556e-01
  2.845318e+01    8.462127e-01
  2.846906e+01    8.543810e-01
  2.848494e+01    8.422924e-01
  2.850081e+01    8.505936e-01
  2.851669e+01    8.346400e-01
  2.853256e+01    8.338926e-01
  2.854844e+01    8.274827e-01
  2.856431e+01    8.323156e-01
  2.858019e+01    8.344284e-01
  2.859606e+01    8.464789e-01
  2.861194e+01    8.230876e-01
  2.862782e+01    8.480881e-01
  2.864369e+01    8.371207e-01
  2.865957e+01    8.299813e-01
  2.867544e+01    8.207328e-01
  2.869132e+01    8.113219e-01
  2.870719e+01    8.201631e-01
  2.872307e+01    8.382564e-01
  2.873895e+01    8.290378e-01
  2.875482e+01    8.260870e-01
  2.877070e+01    8.376020e-01
  2.878657e+01    8.307701e-01
  2.880245e+01    8.250273e-01
  2.881832e+01    8.588109e-01
  2.883420e+01    8.355643e-01
  2.885007e+01    8.456731e-01
  2.886595e+01    8.318239e-01
  2.888183e+01    8.470671e-01
  2.889770e+01    8.387900e-01
  2.891358e+01    8.168265e-01
  2.892945e+01    8.304731e-01
  2.894533e+01    8.236828e-01
  2.896120e+01    8.263540e-01
  2.897708e+01    8.277060e-01
  2.899295e+01    8.140175e-01
  2.900883e+01    8.181076e-01
  2.902471e+01    8.159186e-01
  2.904058e+01    8.367202e-01
  2.905646e+01    8.274424e-01
  2.907233e+01    8.236908e-01
  2.908821e+01    8.041309e-01
  2.910408e+01    8.192946e-01
  2.911996e+01    8.287166e-01
  2.913583e+01    8.405011e-01
  2.915171e+01    8.320935e-01
  2.916759e+01    8.211973e-01
  2.918346e+01    8.031540e-01
  2.919934e+01    8.332886e-01
  2.921521e+01    8.164839e-01
  2.923109e+01    8.217001e-01
  2.924696e+01    8.121282e-01
  2.926284e+01    8.053875e-01
  2.927871e+01    8.165830e-01
  2.929459e+01    8.274137e-01
  2.931047e+01    8.115987e-01
  2.932634e+01    8.039555e-01
  2.934222e+01    8.050703e-01
  2.935809e+01    8.143911e-01
  2.937397e+01    8.109496e-01
  2.938984e+01    7.973725e-01
  2.940572e+01    7.806472e-01
  2.942159e+01    8.002695e-01
  2.943747e+01    8.044606e-01
  2.945335e+01    7.951694e-01
  2.946922e+01    8.084863e-01
  2.948510e+01    8.364032e-01
  2.950097e+01    8.365481e-01
  2.951685e+01    8.178954e-01
  2.953272e+01    7.912400e-01
  2.954860e+01    8.099990e-01
  2.956447e+01    8.109477e-01
  2.958035e+01    7.944757e-01
  2.959623e+01    7.858720e-01
  2.961210e+01    7.788062e-01
  2.962798e+01    8.001943e-01
  2.964385e+01    7.829149e-01
  2.965973e+01    7.843619e-01
  2.967560e+01    7.944198e-01
  2.969148e+01    8.237996e-01
  2.970736e+01    8.011930e-01
  2.972323e+01    7.894580e-01
  2.973911e+01    7.704414e-01
  2.975498e+01    7.979084e-01
  2.977086e+01    8.204622e-01
  2.978673e+01    8.092949e-01
  2.980261e+01    8.043472e-01
  2.981848e+01    7.867960e-01
  2.983436e+01    7.956145e-01
  2.985024e+01    8.050601e-01
  2.986611e+01    7.903249e-01
  2.988199e+01    7.804012e-01
  2.989786e+01    7.829253e-01
  2.991374e+01    7.931477e-01
  2.992961e+01    7.889103e-01
  2.994549e+01    7.943763e-01
  2.996136e+01    8.050656e-01
  2.997724e+01    8.014565e-01
  2.999312e+01    7.956096e-01
  3.000899e+01    7.927221e-01
  3.002487e+01    8.237821e-01
  3.004074e+01    8.257680e-01
  3.005662e+01    8.152847e-01
  3.007249e+01    8.186653e-01
  3.008837e+01    7.966355e-01
  3.010424e+01    7.945940e-01
  3.012012e+01    7.915539e-01
  3.013600e+01    8.055422e-01
  3.015187e+01    7.966111e-01
  3.016775e+01    8.066355e-01
  3.018362e+01    8.232406e-01
  3.019950e+01    8.127084e-01
  3.021537e+01    8.102742e-01
  3.023125e+01    7.983305e-01
  3.024712e+01    8.040837e-01
  3.026300e+01    7.974369e-01
  3.027888e+01    7.817029e-01
  3.029475e+01    7.859132e-01
  3.031063e+01    8.119161e-01
  3.032650e+01    8.054236e-01
  3.034238e+01    7.821070e-01
  3.035825e+01    7.783645e-01
  3.037413e+01    7.771294e-01
  3.039000e+01    7.939337e-01
  3.040588e+01    7.965627e-01
  3.042176e+01    7.987828e-01
  3.043763e+01    8.006870e-01
  3.045351e+01    7.701958e-01
  3.046938e+01    7.596567e-01
  3.048526e+01    7.712991e-01
  3.050113e+01    7.822880e-01
  3.051701e+01    7.761310e-01
  3.053288e+01    7.684934e-01
  3.054876e+01    7.977141e-01
  3.056464e+01    7.988442e-01
  3.058051e+01    7.665144e-01
  3.059639e+01    7.913418e-01
  3.061226e+01    8.135288e-01
  3.062814e+01    8.011671e-01
  3.064401e+01    7.843643e-01
  3.065989e+01    7.893355e-01
  3.067577e+01    7.947472e-01
  3.069164e+01    7.845521e-01
  3.070752e+01    7.952844e-01
  3.072339e+01    8.064461e-01
  3.073927e+01    8.098240e-01
  3.075514e+01    7.854586e-01
  3.077102e+01    8.045848e-01
  3.078689e+01    8.048683e-01
  3.080277e+01    7.942251e-01
  3.081865e+01    7.742758e-01
  3.083452e+01    8.025863e-01
  3.085040e+01    7.970003e-01
  3.086627e+01    8.030512e-01
  3.088215e+01    7.963794e-01
  3.089802e+01    7.683082e-01
  3.091390e+01    7.879720e-01
  3.092977e+01    7.899453e-01
  3.094565e+01    7.724010e-01
  3.096153e+01    7.749935e-01
  3.097740e+01    7.899570e-01
  3.099328e+01    8.065892e-01
  3.100915e+01    7.773860e-01
  3.102503e+01    7.795420e-01
  3.104090e+01    7.952839e-01
  3.105678e+01    7.852933e-01
  3.107265e+01    7.861768e-01
  3.108853e+01    7.768514e-01
  3.110441e+01    7.744894e-01
  3.112028e+01    8.013233e-01
  3.113616e+01    8.153341e-01
  3.115203e+01    8.004339e-01
  3.116791e+01    8.054188e-01
  3.118378e+01    8.183131e-01
  3.119966e+01    8.035386e-01
  3.121553e+01    7.951134e-01
  3.123141e+01    7.997442e-01
  3.124729e+01    7.794001e-01
  3.126316e+01    7.708532e-01
  3.127904e+01    8.107772e-01
  3.129491e+01    7.844545e-01
  3.131079e+01    7.551011e-01
  3.132666e+01    7.937026e-01
  3.134254e+01    8.020851e-01
  3.135841e+01    7.928784e-01
  3.137429e+01    8.076203e-01
  3.139017e+01    8.145010e-01
  3.140604e+01    7.986693e-01
  3.142192e+01    7.882231e-01
  3.143779e+01    8.314477e-01
  3.145367e+01    8.252339e-01
  3.146954e+01    8.307657e-01
  3.148542e+01    8.123523e-01
  3.150129e+01    8.139747e-01
  3.151717e+01    8.421006e-01
  3.153305e+01    8.579941e-01
  3.154892e+01    8.434904e-01
  3.156480e+01    8.612641e-01
  3.158067e+01    8.504820e-01
  3.159655e+01    8.857224e-01
  3.161242e+01    9.025108e-01
  3.162830e+01    8.923729e-01
  3.164418e+01    9.063450e-01
  3.166005e+01    9.430882e-01
  3.167593e+01    9.549574e-01
  3.169180e+01    9.947800e-01
  3.170768e+01    1.034529e+00
  3.172355e+01    1.066565e+00
  3.173943e+01    1.123350e+00
  3.175530e+01    1.186415e+00
  3.177118e+01    1.253049e+00
  3.178706e+01    1.337489e+00
  3.180293e+01    1.471182e+00
  3.181881e+01    1.616257e+00
  3.183468e+01    1.745887e+00
  3.185056e+01    1.856379e+00
  3.186643e+01    1.982589e+00
  3.188231e+01    2.074922e+00
  3.189818e+01    2.074592e+00
  3.191406e+01    2.067625e+00
  3.192994e+01    2.061927e+00
  3.194581e+01    1.950633e+00
  3.196169e+01    1.813021e+00
  3.197756e+01    1.680492e+00
  3.199344e+01    1.532535e+00
  3.200931e+01    1.413492e+00
  3.202519e+01    1.279865e+00
  3.204106e+01    1.223164e+00
  3.205694e+01    1.188945e+00
  3.207282e+01    1.102749e+00
  3.208869e+01    1.051980e+00
  3.210457e+01    9.955024e-01
  3.212044e+01    9.573235e-01
  3.213632e+01    9.411865e-01
  3.215219e+01    9.192128e-01
  3.216807e+01    9.022519e-01
  3.218394e+01    8.865613e-01
  3.219982e+01    8.643039e-01
  3.221570e+01    8.667145e-01
  3.223157e+01    8.521469e-01
  3.224745e+01    8.254522e-01
  3.226332e+01    8.200513e-01
  3.227920e+01    8.321559e-01
  3.229507e+01    8.058267e-01
  3.231095e+01    8.107131e-01
  3.232682e+01    8.163002e-01
  3.234270e+01    7.945459e-01
  3.235858e+01    8.001871e-01
  3.237445e+01    8.161581e-01
  3.239033e+01    8.132146e-01
  3.240620e+01    7.965065e-01
  3.242208e+01    8.005574e-01
  3.243795e+01    7.929606e-01
  3.245383e+01    8.015321e-01
  3.246970e+01    7.858016e-01
  3.248558e+01    7.778324e-01
  3.250146e+01    7.708264e-01
  3.251733e+01    7.561548e-01
  3.253321e+01    7.539899e-01
  3.254908e+01    7.792428e-01
