# == pyFAI calibration ==
# Distance Sample to Detector: 0.3999999939076516 m
# PONI: 9.750e-02, 1.135e-01 m
# Rotations: -0.000175 0.000000 -0.000000 rad
# 
# == Fit2d calibration ==
# Distance Sample-beamCenter: 400.000 mm
# Center: x=1514.000, y=1300.000 pix
# Tilt: 0.010 deg  TiltPlanRot: 0.010 deg
# 
# Detector Detector	 Spline= None	 PixelSize= 7.500e-05, 7.500e-05 m
#    Detector has a mask: False 
#    Detector has a dark current: False 
#    detector has a flat field: False 
# 
# Wavelength: 6.888e-11 m
# Mask applied: user provided
# Dark current applied: False
# Flat field applied: False
# Polarization factor: 0.99
# Normalization factor: 1.0
# --> /home/myspot/data/2024_07_Rosario/Ru-CGO-ex/2024-07-27_003_Ru-CGO-ex_Reaction_dwell_000023_data_000136.dat
#       q_nm^-1             I 
  2.003187e-02    1.424646e-01
  3.590745e-02    7.159096e-02
  5.178302e-02    4.982497e-02
  6.765859e-02    1.092450e-01
  8.353417e-02    2.818921e-01
  9.940974e-02    1.272376e-01
  1.152853e-01    4.232726e-02
  1.311609e-01    7.103863e-02
  1.470365e-01    2.206131e-02
  1.629120e-01    0.000000e+00
  1.787876e-01    2.078226e-02
  1.946632e-01    2.452666e-02
  2.105388e-01    1.646701e-02
  2.264143e-01    1.821797e-02
  2.422899e-01    1.117430e-02
  2.581655e-01    1.465419e-02
  2.740411e-01    4.017438e-02
  2.899166e-01    6.047560e-02
  3.057922e-01    3.379780e-02
  3.216678e-01    3.739058e-02
  3.375433e-01    2.846784e-02
  3.534189e-01    2.908122e-02
  3.692945e-01    3.297025e-02
  3.851701e-01    5.724923e-02
  4.010456e-01    4.537663e-02
  4.169212e-01    1.639969e-02
  4.327968e-01    3.029495e-02
  4.486724e-01    2.578858e-02
  4.645479e-01    3.060217e-02
  4.804235e-01    4.790625e-02
  4.962991e-01    6.042961e-02
  5.121747e-01    2.699600e-02
  5.280502e-01    2.253277e-02
  5.439258e-01    1.895829e-02
  5.598014e-01    2.617676e-02
  5.756770e-01    3.900434e-02
  5.915525e-01    1.866388e-02
  6.074281e-01    2.005429e-02
  6.233037e-01    3.881088e-02
  6.391793e-01    3.663871e-02
  6.550548e-01    6.562937e-02
  6.709304e-01    6.904286e-02
  6.868060e-01    5.128345e-02
  7.026815e-01    4.604233e-02
  7.185571e-01    6.889370e-02
  7.344327e-01    5.461791e-02
  7.503083e-01    7.128108e-02
  7.661838e-01    9.814846e-02
  7.820594e-01    1.279212e-01
  7.979350e-01    1.410064e-01
  8.138106e-01    1.778210e-01
  8.296861e-01    2.726937e-01
  8.455617e-01    3.523300e-01
  8.614373e-01    3.929180e-01
  8.773129e-01    4.602344e-01
  8.931884e-01    5.059936e-01
  9.090640e-01    5.603951e-01
  9.249396e-01    7.011390e-01
  9.408152e-01    8.288200e-01
  9.566907e-01    8.009944e-01
  9.725663e-01    9.941958e-01
  9.884419e-01    1.112392e+00
  1.004317e+00    1.231308e+00
  1.020193e+00    1.304884e+00
  1.036069e+00    1.320816e+00
  1.051944e+00    1.382639e+00
  1.067820e+00    1.438508e+00
  1.083695e+00    1.416887e+00
  1.099571e+00    1.555069e+00
  1.115446e+00    1.599399e+00
  1.131322e+00    1.579922e+00
  1.147198e+00    1.538752e+00
  1.163073e+00    1.642221e+00
  1.178949e+00    1.745178e+00
  1.194824e+00    1.840363e+00
  1.210700e+00    2.036847e+00
  1.226575e+00    2.135796e+00
  1.242451e+00    2.370256e+00
  1.258327e+00    2.430656e+00
  1.274202e+00    2.630684e+00
  1.290078e+00    2.710021e+00
  1.305953e+00    2.708011e+00
  1.321829e+00    2.860700e+00
  1.337705e+00    2.927099e+00
  1.353580e+00    2.879995e+00
  1.369456e+00    2.721546e+00
  1.385331e+00    2.804135e+00
  1.401207e+00    2.846713e+00
  1.417082e+00    2.886374e+00
  1.432958e+00    2.852952e+00
  1.448834e+00    2.925980e+00
  1.464709e+00    2.993010e+00
  1.480585e+00    3.050665e+00
  1.496460e+00    3.199244e+00
  1.512336e+00    3.142860e+00
  1.528211e+00    3.256988e+00
  1.544087e+00    3.322460e+00
  1.559963e+00    3.123707e+00
  1.575838e+00    3.176995e+00
  1.591714e+00    3.176503e+00
  1.607589e+00    3.105043e+00
  1.623465e+00    3.159360e+00
  1.639340e+00    3.117146e+00
  1.655216e+00    3.059958e+00
  1.671092e+00    3.129640e+00
  1.686967e+00    3.141188e+00
  1.702843e+00    3.265237e+00
  1.718718e+00    3.223125e+00
  1.734594e+00    3.002223e+00
  1.750469e+00    2.895351e+00
  1.766345e+00    2.939261e+00
  1.782221e+00    3.043102e+00
  1.798096e+00    3.066455e+00
  1.813972e+00    2.938786e+00
  1.829847e+00    2.948756e+00
  1.845723e+00    3.086239e+00
  1.861598e+00    3.078912e+00
  1.877474e+00    2.982999e+00
  1.893350e+00    3.107494e+00
  1.909225e+00    3.172365e+00
  1.925101e+00    3.099136e+00
  1.940976e+00    3.068289e+00
  1.956852e+00    3.122444e+00
  1.972727e+00    3.200563e+00
  1.988603e+00    3.102711e+00
  2.004479e+00    3.082635e+00
  2.020354e+00    3.115682e+00
  2.036230e+00    3.163435e+00
  2.052105e+00    3.212157e+00
  2.067981e+00    3.099776e+00
  2.083856e+00    3.123929e+00
  2.099732e+00    3.144551e+00
  2.115608e+00    3.112343e+00
  2.131483e+00    3.091873e+00
  2.147359e+00    3.143499e+00
  2.163234e+00    3.083248e+00
  2.179110e+00    3.036990e+00
  2.194985e+00    2.983062e+00
  2.210861e+00    2.949450e+00
  2.226737e+00    3.014192e+00
  2.242612e+00    3.081813e+00
  2.258488e+00    3.119842e+00
  2.274363e+00    3.062993e+00
  2.290239e+00    3.058135e+00
  2.306115e+00    3.136145e+00
  2.321990e+00    3.161120e+00
  2.337866e+00    3.213458e+00
  2.353741e+00    3.153934e+00
  2.369617e+00    3.172038e+00
  2.385492e+00    3.132933e+00
  2.401368e+00    3.162287e+00
  2.417244e+00    3.188579e+00
  2.433119e+00    3.187392e+00
  2.448995e+00    3.257517e+00
  2.464870e+00    3.221077e+00
  2.480746e+00    3.127051e+00
  2.496621e+00    3.218628e+00
  2.512497e+00    3.221018e+00
  2.528373e+00    3.265053e+00
  2.544248e+00    3.153394e+00
  2.560124e+00    3.192079e+00
  2.575999e+00    3.219373e+00
  2.591875e+00    3.231078e+00
  2.607750e+00    3.190569e+00
  2.623626e+00    3.251196e+00
  2.639502e+00    3.192866e+00
  2.655377e+00    3.268435e+00
  2.671253e+00    3.250423e+00
  2.687128e+00    3.263026e+00
  2.703004e+00    3.253789e+00
  2.718879e+00    3.200773e+00
  2.734755e+00    3.152607e+00
  2.750631e+00    3.175089e+00
  2.766506e+00    3.124144e+00
  2.782382e+00    3.139691e+00
  2.798257e+00    3.198286e+00
  2.814133e+00    3.288243e+00
  2.830008e+00    3.324483e+00
  2.845884e+00    3.252501e+00
  2.861760e+00    3.199021e+00
  2.877635e+00    3.319782e+00
  2.893511e+00    3.289385e+00
  2.909386e+00    3.260835e+00
  2.925262e+00    3.203441e+00
  2.941137e+00    3.320703e+00
  2.957013e+00    3.320103e+00
  2.972889e+00    3.344626e+00
  2.988764e+00    3.344901e+00
  3.004640e+00    3.355005e+00
  3.020515e+00    3.375551e+00
  3.036391e+00    3.357201e+00
  3.052266e+00    3.300641e+00
  3.068142e+00    3.301288e+00
  3.084018e+00    3.337024e+00
  3.099893e+00    3.328846e+00
  3.115769e+00    3.306983e+00
  3.131644e+00    3.373993e+00
  3.147520e+00    3.396878e+00
  3.163395e+00    3.391627e+00
  3.179271e+00    3.377756e+00
  3.195147e+00    3.413423e+00
  3.211022e+00    3.418744e+00
  3.226898e+00    3.471877e+00
  3.242773e+00    3.445096e+00
  3.258649e+00    3.458240e+00
  3.274525e+00    3.366879e+00
  3.290400e+00    3.418003e+00
  3.306276e+00    3.386949e+00
  3.322151e+00    3.388443e+00
  3.338027e+00    3.352981e+00
  3.353902e+00    3.356294e+00
  3.369778e+00    3.385832e+00
  3.385654e+00    3.399691e+00
  3.401529e+00    3.448645e+00
  3.417405e+00    3.476333e+00
  3.433280e+00    3.419246e+00
  3.449156e+00    3.420811e+00
  3.465031e+00    3.462871e+00
  3.480907e+00    3.474043e+00
  3.496783e+00    3.484216e+00
  3.512658e+00    3.492944e+00
  3.528534e+00    3.427402e+00
  3.544409e+00    3.474639e+00
  3.560285e+00    3.507819e+00
  3.576160e+00    3.394698e+00
  3.592036e+00    3.459402e+00
  3.607912e+00    3.517071e+00
  3.623787e+00    3.590928e+00
  3.639663e+00    3.499189e+00
  3.655538e+00    3.428559e+00
  3.671414e+00    3.364787e+00
  3.687289e+00    3.353258e+00
  3.703165e+00    3.367599e+00
  3.719041e+00    3.451228e+00
  3.734916e+00    3.423944e+00
  3.750792e+00    3.461658e+00
  3.766667e+00    3.469456e+00
  3.782543e+00    3.533134e+00
  3.798418e+00    3.434706e+00
  3.814294e+00    3.474351e+00
  3.830170e+00    3.500267e+00
  3.846045e+00    3.485908e+00
  3.861921e+00    3.515697e+00
  3.877796e+00    3.481476e+00
  3.893672e+00    3.472377e+00
  3.909547e+00    3.491624e+00
  3.925423e+00    3.511439e+00
  3.941299e+00    3.474946e+00
  3.957174e+00    3.491426e+00
  3.973050e+00    3.510935e+00
  3.988925e+00    3.563349e+00
  4.004801e+00    3.464708e+00
  4.020676e+00    3.456767e+00
  4.036552e+00    3.525111e+00
  4.052428e+00    3.537235e+00
  4.068303e+00    3.568252e+00
  4.084179e+00    3.518988e+00
  4.100054e+00    3.541365e+00
  4.115930e+00    3.553556e+00
  4.131806e+00    3.554490e+00
  4.147681e+00    3.586865e+00
  4.163557e+00    3.539940e+00
  4.179432e+00    3.565270e+00
  4.195308e+00    3.622556e+00
  4.211183e+00    3.613860e+00
  4.227059e+00    3.464527e+00
  4.242935e+00    3.462689e+00
  4.258810e+00    3.540375e+00
  4.274686e+00    3.574878e+00
  4.290561e+00    3.570091e+00
  4.306437e+00    3.557325e+00
  4.322312e+00    3.469110e+00
  4.338188e+00    3.538057e+00
  4.354064e+00    3.532296e+00
  4.369939e+00    3.510192e+00
  4.385815e+00    3.733135e+00
  4.401690e+00    3.745545e+00
  4.417566e+00    3.631528e+00
  4.433441e+00    3.609425e+00
  4.449317e+00    3.605520e+00
  4.465193e+00    3.576996e+00
  4.481068e+00    3.584660e+00
  4.496944e+00    3.620410e+00
  4.512819e+00    3.711530e+00
  4.528695e+00    3.655467e+00
  4.544570e+00    3.687173e+00
  4.560446e+00    3.571848e+00
  4.576322e+00    3.534082e+00
  4.592197e+00    3.580638e+00
  4.608073e+00    3.588696e+00
  4.623948e+00    3.689481e+00
  4.639824e+00    3.618982e+00
  4.655699e+00    3.529333e+00
  4.671575e+00    3.585913e+00
  4.687451e+00    3.632136e+00
  4.703326e+00    3.690813e+00
  4.719202e+00    3.616420e+00
  4.735077e+00    3.642176e+00
  4.750953e+00    3.703119e+00
  4.766828e+00    3.671022e+00
  4.782704e+00    3.636070e+00
  4.798580e+00    3.655012e+00
  4.814455e+00    3.638220e+00
  4.830331e+00    3.633003e+00
  4.846206e+00    3.663085e+00
  4.862082e+00    3.648918e+00
  4.877957e+00    3.622296e+00
  4.893833e+00    3.691417e+00
  4.909709e+00    3.628286e+00
  4.925584e+00    3.598734e+00
  4.941460e+00    3.619052e+00
  4.957335e+00    3.631090e+00
  4.973211e+00    3.645181e+00
  4.989086e+00    3.578553e+00
  5.004962e+00    3.662149e+00
  5.020838e+00    3.667126e+00
  5.036713e+00    3.659984e+00
  5.052589e+00    3.634661e+00
  5.068464e+00    3.697190e+00
  5.084340e+00    3.663678e+00
  5.100216e+00    3.666590e+00
  5.116091e+00    3.661827e+00
  5.131967e+00    3.650360e+00
  5.147842e+00    3.702944e+00
  5.163718e+00    3.710583e+00
  5.179593e+00    3.663145e+00
  5.195469e+00    3.692058e+00
  5.211345e+00    3.744022e+00
  5.227220e+00    3.656169e+00
  5.243096e+00    3.629562e+00
  5.258971e+00    3.725627e+00
  5.274847e+00    3.659891e+00
  5.290722e+00    3.652087e+00
  5.306598e+00    3.721464e+00
  5.322474e+00    3.715310e+00
  5.338349e+00    3.656350e+00
  5.354225e+00    3.676081e+00
  5.370100e+00    3.627331e+00
  5.385976e+00    3.612029e+00
  5.401851e+00    3.656989e+00
  5.417727e+00    3.660969e+00
  5.433603e+00    3.681803e+00
  5.449478e+00    3.704183e+00
  5.465354e+00    3.668008e+00
  5.481229e+00    3.572769e+00
  5.497105e+00    3.554137e+00
  5.512980e+00    3.590367e+00
  5.528856e+00    3.665391e+00
  5.544732e+00    3.610637e+00
  5.560607e+00    3.663395e+00
  5.576483e+00    3.603652e+00
  5.592358e+00    3.582326e+00
  5.608234e+00    3.523582e+00
  5.624109e+00    3.581591e+00
  5.639985e+00    3.636885e+00
  5.655861e+00    3.601450e+00
  5.671736e+00    3.655295e+00
  5.687612e+00    3.690585e+00
  5.703487e+00    3.629944e+00
  5.719363e+00    3.552433e+00
  5.735238e+00    3.545801e+00
  5.751114e+00    3.621604e+00
  5.766990e+00    3.621994e+00
  5.782865e+00    3.589244e+00
  5.798741e+00    3.580526e+00
  5.814616e+00    3.509559e+00
  5.830492e+00    3.547999e+00
  5.846367e+00    3.563076e+00
  5.862243e+00    3.513926e+00
  5.878119e+00    3.488140e+00
  5.893994e+00    3.556641e+00
  5.909870e+00    3.505949e+00
  5.925745e+00    3.578647e+00
  5.941621e+00    3.643301e+00
  5.957497e+00    3.540339e+00
  5.973372e+00    3.501015e+00
  5.989248e+00    3.497336e+00
  6.005123e+00    3.479174e+00
  6.020999e+00    3.610345e+00
  6.036874e+00    3.586413e+00
  6.052750e+00    3.506770e+00
  6.068626e+00    3.560023e+00
  6.084501e+00    3.558641e+00
  6.100377e+00    3.582767e+00
  6.116252e+00    3.644224e+00
  6.132128e+00    3.649598e+00
  6.148003e+00    3.569219e+00
  6.163879e+00    3.579945e+00
  6.179755e+00    3.614513e+00
  6.195630e+00    3.603814e+00
  6.211506e+00    3.539739e+00
  6.227381e+00    3.568827e+00
  6.243257e+00    3.685248e+00
  6.259132e+00    3.673337e+00
  6.275008e+00    3.577464e+00
  6.290884e+00    3.554581e+00
  6.306759e+00    3.560421e+00
  6.322635e+00    3.584297e+00
  6.338510e+00    3.565753e+00
  6.354386e+00    3.608428e+00
  6.370261e+00    3.522651e+00
  6.386137e+00    3.570766e+00
  6.402013e+00    3.574462e+00
  6.417888e+00    3.640590e+00
  6.433764e+00    3.627496e+00
  6.449639e+00    3.564911e+00
  6.465515e+00    3.487789e+00
  6.481390e+00    3.501960e+00
  6.497266e+00    3.576135e+00
  6.513142e+00    3.484987e+00
  6.529017e+00    3.495996e+00
  6.544893e+00    3.613852e+00
  6.560768e+00    3.627797e+00
  6.576644e+00    3.600245e+00
  6.592519e+00    3.567554e+00
  6.608395e+00    3.507899e+00
  6.624271e+00    3.511777e+00
  6.640146e+00    3.518103e+00
  6.656022e+00    3.526504e+00
  6.671897e+00    3.464412e+00
  6.687773e+00    3.438614e+00
  6.703648e+00    3.485186e+00
  6.719524e+00    3.542857e+00
  6.735400e+00    3.478176e+00
  6.751275e+00    3.501540e+00
  6.767151e+00    3.497955e+00
  6.783026e+00    3.549082e+00
  6.798902e+00    3.509576e+00
  6.814777e+00    3.498932e+00
  6.830653e+00    3.508086e+00
  6.846529e+00    3.546001e+00
  6.862404e+00    3.537700e+00
  6.878280e+00    3.549710e+00
  6.894155e+00    3.561894e+00
  6.910031e+00    3.555750e+00
  6.925907e+00    3.483783e+00
  6.941782e+00    3.562300e+00
  6.957658e+00    3.653141e+00
  6.973533e+00    3.587559e+00
  6.989409e+00    3.632977e+00
  7.005284e+00    3.571391e+00
  7.021160e+00    3.548354e+00
  7.037036e+00    3.568702e+00
  7.052911e+00    3.571602e+00
  7.068787e+00    3.561661e+00
  7.084662e+00    3.480629e+00
  7.100538e+00    3.509850e+00
  7.116413e+00    3.473989e+00
  7.132289e+00    3.455728e+00
  7.148165e+00    3.507945e+00
  7.164040e+00    3.529739e+00
  7.179916e+00    3.516852e+00
  7.195791e+00    3.510444e+00
  7.211667e+00    3.544287e+00
  7.227542e+00    3.554225e+00
  7.243418e+00    3.548339e+00
  7.259294e+00    3.459683e+00
  7.275169e+00    3.472023e+00
  7.291045e+00    3.524559e+00
  7.306920e+00    3.510420e+00
  7.322796e+00    3.515295e+00
  7.338671e+00    3.490319e+00
  7.354547e+00    3.497576e+00
  7.370423e+00    3.434060e+00
  7.386298e+00    3.433455e+00
  7.402174e+00    3.492216e+00
  7.418049e+00    3.529731e+00
  7.433925e+00    3.508005e+00
  7.449800e+00    3.544567e+00
  7.465676e+00    3.472034e+00
  7.481552e+00    3.504801e+00
  7.497427e+00    3.466405e+00
  7.513303e+00    3.434230e+00
  7.529178e+00    3.480413e+00
  7.545054e+00    3.472453e+00
  7.560929e+00    3.464119e+00
  7.576805e+00    3.436227e+00
  7.592681e+00    3.466396e+00
  7.608556e+00    3.450393e+00
  7.624432e+00    3.463810e+00
  7.640307e+00    3.451625e+00
  7.656183e+00    3.440876e+00
  7.672058e+00    3.532469e+00
  7.687934e+00    3.434003e+00
  7.703810e+00    3.441162e+00
  7.719685e+00    3.492281e+00
  7.735561e+00    3.537795e+00
  7.751436e+00    3.404829e+00
  7.767312e+00    3.469344e+00
  7.783187e+00    3.443357e+00
  7.799063e+00    3.491567e+00
  7.814939e+00    3.468801e+00
  7.830814e+00    3.469301e+00
  7.846690e+00    3.490648e+00
  7.862565e+00    3.433888e+00
  7.878441e+00    3.436470e+00
  7.894317e+00    3.541704e+00
  7.910192e+00    3.548127e+00
  7.926068e+00    3.461089e+00
  7.941943e+00    3.460311e+00
  7.957819e+00    3.454186e+00
  7.973694e+00    3.464579e+00
  7.989570e+00    3.455950e+00
  8.005446e+00    3.483595e+00
  8.021321e+00    3.474225e+00
  8.037197e+00    3.404166e+00
  8.053072e+00    3.406859e+00
  8.068948e+00    3.401041e+00
  8.084823e+00    3.332177e+00
  8.100699e+00    3.446212e+00
  8.116575e+00    3.470687e+00
  8.132450e+00    3.422936e+00
  8.148326e+00    3.446388e+00
  8.164201e+00    3.532465e+00
  8.180077e+00    3.502331e+00
  8.195952e+00    3.404176e+00
  8.211828e+00    3.469348e+00
  8.227704e+00    3.506950e+00
  8.243579e+00    3.485937e+00
  8.259455e+00    3.482932e+00
  8.275330e+00    3.386246e+00
  8.291206e+00    3.482910e+00
  8.307081e+00    3.500014e+00
  8.322957e+00    3.468578e+00
  8.338833e+00    3.460493e+00
  8.354708e+00    3.414298e+00
  8.370584e+00    3.426217e+00
  8.386459e+00    3.429320e+00
  8.402335e+00    3.386376e+00
  8.418210e+00    3.411612e+00
  8.434086e+00    3.397782e+00
  8.449962e+00    3.344044e+00
  8.465837e+00    3.356862e+00
  8.481713e+00    3.394432e+00
  8.497588e+00    3.328501e+00
  8.513464e+00    3.316749e+00
  8.529339e+00    3.388290e+00
  8.545215e+00    3.428172e+00
  8.561091e+00    3.399490e+00
  8.576966e+00    3.392769e+00
  8.592842e+00    3.396771e+00
  8.608717e+00    3.335313e+00
  8.624593e+00    3.282339e+00
  8.640468e+00    3.342228e+00
  8.656344e+00    3.330931e+00
  8.672220e+00    3.334171e+00
  8.688095e+00    3.327406e+00
  8.703971e+00    3.322936e+00
  8.719846e+00    3.383076e+00
  8.735722e+00    3.331280e+00
  8.751598e+00    3.332464e+00
  8.767473e+00    3.373523e+00
  8.783349e+00    3.362773e+00
  8.799224e+00    3.354066e+00
  8.815100e+00    3.381338e+00
  8.830975e+00    3.340499e+00
  8.846851e+00    3.362226e+00
  8.862727e+00    3.390797e+00
  8.878602e+00    3.394528e+00
  8.894478e+00    3.285584e+00
  8.910353e+00    3.297763e+00
  8.926229e+00    3.269969e+00
  8.942104e+00    3.281581e+00
  8.957980e+00    3.347807e+00
  8.973856e+00    3.304597e+00
  8.989731e+00    3.283856e+00
  9.005607e+00    3.241816e+00
  9.021482e+00    3.234945e+00
  9.037358e+00    3.241170e+00
  9.053233e+00    3.314649e+00
  9.069109e+00    3.287800e+00
  9.084985e+00    3.306497e+00
  9.100860e+00    3.299303e+00
  9.116736e+00    3.267209e+00
  9.132611e+00    3.338321e+00
  9.148487e+00    3.373680e+00
  9.164362e+00    3.318155e+00
  9.180238e+00    3.237712e+00
  9.196114e+00    3.229960e+00
  9.211989e+00    3.248950e+00
  9.227865e+00    3.277656e+00
  9.243740e+00    3.279312e+00
  9.259616e+00    3.256611e+00
  9.275491e+00    3.235399e+00
  9.291367e+00    3.199760e+00
  9.307243e+00    3.222478e+00
  9.323118e+00    3.188313e+00
  9.338994e+00    3.250862e+00
  9.354869e+00    3.295536e+00
  9.370745e+00    3.293511e+00
  9.386620e+00    3.232001e+00
  9.402496e+00    3.155298e+00
  9.418372e+00    3.181302e+00
  9.434247e+00    3.193164e+00
  9.450123e+00    3.190593e+00
  9.465998e+00    3.240904e+00
  9.481874e+00    3.233299e+00
  9.497749e+00    3.303198e+00
  9.513625e+00    3.251738e+00
  9.529501e+00    3.218428e+00
  9.545376e+00    3.223981e+00
  9.561252e+00    3.277534e+00
  9.577127e+00    3.227632e+00
  9.593003e+00    3.215163e+00
  9.608878e+00    3.228081e+00
  9.624754e+00    3.201836e+00
  9.640630e+00    3.183688e+00
  9.656505e+00    3.157049e+00
  9.672381e+00    3.162462e+00
  9.688256e+00    3.180459e+00
  9.704132e+00    3.168582e+00
  9.720008e+00    3.168840e+00
  9.735883e+00    3.181317e+00
  9.751759e+00    3.173898e+00
  9.767634e+00    3.138071e+00
  9.783510e+00    3.184929e+00
  9.799385e+00    3.139470e+00
  9.815261e+00    3.106289e+00
  9.831137e+00    3.167642e+00
  9.847012e+00    3.166268e+00
  9.862888e+00    3.103640e+00
  9.878763e+00    3.177639e+00
  9.894639e+00    3.241974e+00
  9.910514e+00    3.152068e+00
  9.926390e+00    3.129557e+00
  9.942266e+00    3.168687e+00
  9.958141e+00    3.123016e+00
  9.974017e+00    3.161279e+00
  9.989892e+00    3.150347e+00
  1.000577e+01    3.072033e+00
  1.002164e+01    3.074609e+00
  1.003752e+01    3.140813e+00
  1.005339e+01    3.140193e+00
  1.006927e+01    3.134724e+00
  1.008515e+01    3.110549e+00
  1.010102e+01    3.100643e+00
  1.011690e+01    3.084857e+00
  1.013277e+01    3.108254e+00
  1.014865e+01    3.143530e+00
  1.016452e+01    3.101705e+00
  1.018040e+01    3.089947e+00
  1.019627e+01    3.035147e+00
  1.021215e+01    2.978637e+00
  1.022803e+01    3.063621e+00
  1.024390e+01    3.111646e+00
  1.025978e+01    3.073321e+00
  1.027565e+01    3.055500e+00
  1.029153e+01    3.013060e+00
  1.030740e+01    3.050814e+00
  1.032328e+01    3.067880e+00
  1.033915e+01    3.043596e+00
  1.035503e+01    3.021401e+00
  1.037091e+01    3.028228e+00
  1.038678e+01    3.051454e+00
  1.040266e+01    3.049262e+00
  1.041853e+01    3.061228e+00
  1.043441e+01    3.039989e+00
  1.045028e+01    3.058974e+00
  1.046616e+01    3.079096e+00
  1.048204e+01    3.026258e+00
  1.049791e+01    3.010582e+00
  1.051379e+01    3.016256e+00
  1.052966e+01    3.006884e+00
  1.054554e+01    3.040399e+00
  1.056141e+01    2.995485e+00
  1.057729e+01    2.977821e+00
  1.059316e+01    2.982007e+00
  1.060904e+01    2.989794e+00
  1.062492e+01    3.002042e+00
  1.064079e+01    3.019958e+00
  1.065667e+01    2.965425e+00
  1.067254e+01    2.975984e+00
  1.068842e+01    2.970911e+00
  1.070429e+01    2.992939e+00
  1.072017e+01    2.984918e+00
  1.073604e+01    2.954988e+00
  1.075192e+01    2.962571e+00
  1.076780e+01    2.933670e+00
  1.078367e+01    2.953381e+00
  1.079955e+01    2.968423e+00
  1.081542e+01    2.909047e+00
  1.083130e+01    2.929217e+00
  1.084717e+01    2.903255e+00
  1.086305e+01    2.855276e+00
  1.087892e+01    2.899573e+00
  1.089480e+01    2.998339e+00
  1.091068e+01    2.982352e+00
  1.092655e+01    2.926024e+00
  1.094243e+01    2.951043e+00
  1.095830e+01    2.958189e+00
  1.097418e+01    2.936439e+00
  1.099005e+01    2.941934e+00
  1.100593e+01    2.898080e+00
  1.102180e+01    2.891107e+00
  1.103768e+01    2.927699e+00
  1.105356e+01    2.968066e+00
  1.106943e+01    2.915920e+00
  1.108531e+01    2.914822e+00
  1.110118e+01    2.916505e+00
  1.111706e+01    2.869083e+00
  1.113293e+01    2.846214e+00
  1.114881e+01    2.911497e+00
  1.116468e+01    2.910391e+00
  1.118056e+01    2.864967e+00
  1.119644e+01    2.880337e+00
  1.121231e+01    2.868650e+00
  1.122819e+01    2.816110e+00
  1.124406e+01    2.802271e+00
  1.125994e+01    2.947777e+00
  1.127581e+01    2.873381e+00
  1.129169e+01    2.808625e+00
  1.130756e+01    2.806995e+00
  1.132344e+01    2.797689e+00
  1.133932e+01    2.806980e+00
  1.135519e+01    2.842260e+00
  1.137107e+01    2.797084e+00
  1.138694e+01    2.747968e+00
  1.140282e+01    2.793979e+00
  1.141869e+01    2.784871e+00
  1.143457e+01    2.785631e+00
  1.145045e+01    2.787717e+00
  1.146632e+01    2.765384e+00
  1.148220e+01    2.769572e+00
  1.149807e+01    2.748137e+00
  1.151395e+01    2.755050e+00
  1.152982e+01    2.784126e+00
  1.154570e+01    2.806164e+00
  1.156157e+01    2.828972e+00
  1.157745e+01    2.807125e+00
  1.159333e+01    2.837646e+00
  1.160920e+01    2.774564e+00
  1.162508e+01    2.775486e+00
  1.164095e+01    2.813921e+00
  1.165683e+01    2.770869e+00
  1.167270e+01    2.746746e+00
  1.168858e+01    2.747926e+00
  1.170445e+01    2.743201e+00
  1.172033e+01    2.749985e+00
  1.173621e+01    2.753956e+00
  1.175208e+01    2.750757e+00
  1.176796e+01    2.795634e+00
  1.178383e+01    2.748973e+00
  1.179971e+01    2.716016e+00
  1.181558e+01    2.720675e+00
  1.183146e+01    2.755502e+00
  1.184733e+01    2.763728e+00
  1.186321e+01    2.726001e+00
  1.187909e+01    2.690208e+00
  1.189496e+01    2.712223e+00
  1.191084e+01    2.728739e+00
  1.192671e+01    2.712860e+00
  1.194259e+01    2.717483e+00
  1.195846e+01    2.732777e+00
  1.197434e+01    2.766437e+00
  1.199021e+01    2.752707e+00
  1.200609e+01    2.729238e+00
  1.202197e+01    2.705563e+00
  1.203784e+01    2.716095e+00
  1.205372e+01    2.743380e+00
  1.206959e+01    2.735658e+00
  1.208547e+01    2.740094e+00
  1.210134e+01    2.679680e+00
  1.211722e+01    2.701395e+00
  1.213309e+01    2.701178e+00
  1.214897e+01    2.680992e+00
  1.216485e+01    2.681597e+00
  1.218072e+01    2.727917e+00
  1.219660e+01    2.799328e+00
  1.221247e+01    2.749912e+00
  1.222835e+01    2.677093e+00
  1.224422e+01    2.651332e+00
  1.226010e+01    2.692426e+00
  1.227597e+01    2.717786e+00
  1.229185e+01    2.668845e+00
  1.230773e+01    2.665581e+00
  1.232360e+01    2.656224e+00
  1.233948e+01    2.618176e+00
  1.235535e+01    2.665019e+00
  1.237123e+01    2.687873e+00
  1.238710e+01    2.650270e+00
  1.240298e+01    2.686453e+00
  1.241886e+01    2.696641e+00
  1.243473e+01    2.715814e+00
  1.245061e+01    2.722990e+00
  1.246648e+01    2.724060e+00
  1.248236e+01    2.714429e+00
  1.249823e+01    2.713577e+00
  1.251411e+01    2.736305e+00
  1.252998e+01    2.728543e+00
  1.254586e+01    2.683980e+00
  1.256174e+01    2.689274e+00
  1.257761e+01    2.751010e+00
  1.259349e+01    2.703290e+00
  1.260936e+01    2.743012e+00
  1.262524e+01    2.789645e+00
  1.264111e+01    2.773370e+00
  1.265699e+01    2.779933e+00
  1.267286e+01    2.833212e+00
  1.268874e+01    2.832511e+00
  1.270462e+01    2.818097e+00
  1.272049e+01    2.873060e+00
  1.273637e+01    2.893946e+00
  1.275224e+01    2.864045e+00
  1.276812e+01    2.931453e+00
  1.278399e+01    2.960523e+00
  1.279987e+01    2.965943e+00
  1.281574e+01    3.074240e+00
  1.283162e+01    3.150731e+00
  1.284750e+01    3.173528e+00
  1.286337e+01    3.244246e+00
  1.287925e+01    3.362930e+00
  1.289512e+01    3.508243e+00
  1.291100e+01    3.633641e+00
  1.292687e+01    3.826747e+00
  1.294275e+01    4.103806e+00
  1.295862e+01    4.406844e+00
  1.297450e+01    4.819546e+00
  1.299038e+01    5.332119e+00
  1.300625e+01    5.960651e+00
  1.302213e+01    6.715616e+00
  1.303800e+01    7.746110e+00
  1.305388e+01    8.859813e+00
  1.306975e+01    1.017076e+01
  1.308563e+01    1.144475e+01
  1.310150e+01    1.261554e+01
  1.311738e+01    1.373622e+01
  1.313326e+01    1.483415e+01
  1.314913e+01    1.562207e+01
  1.316501e+01    1.605958e+01
  1.318088e+01    1.623769e+01
  1.319676e+01    1.565543e+01
  1.321263e+01    1.424328e+01
  1.322851e+01    1.247766e+01
  1.324438e+01    1.074400e+01
  1.326026e+01    9.093009e+00
  1.327614e+01    7.786417e+00
  1.329201e+01    6.727633e+00
  1.330789e+01    5.933566e+00
  1.332376e+01    5.293731e+00
  1.333964e+01    4.825494e+00
  1.335551e+01    4.514631e+00
  1.337139e+01    4.172689e+00
  1.338727e+01    3.897409e+00
  1.340314e+01    3.691483e+00
  1.341902e+01    3.496458e+00
  1.343489e+01    3.367461e+00
  1.345077e+01    3.242277e+00
  1.346664e+01    3.168350e+00
  1.348252e+01    3.025107e+00
  1.349839e+01    2.929908e+00
  1.351427e+01    2.949070e+00
  1.353015e+01    2.908213e+00
  1.354602e+01    2.851264e+00
  1.356190e+01    2.806367e+00
  1.357777e+01    2.764918e+00
  1.359365e+01    2.715893e+00
  1.360952e+01    2.671797e+00
  1.362540e+01    2.660417e+00
  1.364127e+01    2.642214e+00
  1.365715e+01    2.641917e+00
  1.367303e+01    2.571186e+00
  1.368890e+01    2.533179e+00
  1.370478e+01    2.564786e+00
  1.372065e+01    2.567582e+00
  1.373653e+01    2.559382e+00
  1.375240e+01    2.539483e+00
  1.376828e+01    2.505598e+00
  1.378415e+01    2.507344e+00
  1.380003e+01    2.481901e+00
  1.381591e+01    2.455301e+00
  1.383178e+01    2.482010e+00
  1.384766e+01    2.466935e+00
  1.386353e+01    2.428208e+00
  1.387941e+01    2.427489e+00
  1.389528e+01    2.415515e+00
  1.391116e+01    2.455215e+00
  1.392703e+01    2.410366e+00
  1.394291e+01    2.420127e+00
  1.395879e+01    2.416887e+00
  1.397466e+01    2.350233e+00
  1.399054e+01    2.313555e+00
  1.400641e+01    2.330220e+00
  1.402229e+01    2.358389e+00
  1.403816e+01    2.350783e+00
  1.405404e+01    2.307031e+00
  1.406991e+01    2.287709e+00
  1.408579e+01    2.312577e+00
  1.410167e+01    2.325521e+00
  1.411754e+01    2.275009e+00
  1.413342e+01    2.273537e+00
  1.414929e+01    2.295094e+00
  1.416517e+01    2.293453e+00
  1.418104e+01    2.277889e+00
  1.419692e+01    2.307648e+00
  1.421279e+01    2.291841e+00
  1.422867e+01    2.302388e+00
  1.424455e+01    2.267534e+00
  1.426042e+01    2.264458e+00
  1.427630e+01    2.264296e+00
  1.429217e+01    2.267814e+00
  1.430805e+01    2.283931e+00
  1.432392e+01    2.268059e+00
  1.433980e+01    2.261509e+00
  1.435568e+01    2.257321e+00
  1.437155e+01    2.256558e+00
  1.438743e+01    2.220161e+00
  1.440330e+01    2.266392e+00
  1.441918e+01    2.244727e+00
  1.443505e+01    2.231456e+00
  1.445093e+01    2.255748e+00
  1.446680e+01    2.229455e+00
  1.448268e+01    2.255098e+00
  1.449856e+01    2.224720e+00
  1.451443e+01    2.195732e+00
  1.453031e+01    2.198445e+00
  1.454618e+01    2.194362e+00
  1.456206e+01    2.194680e+00
  1.457793e+01    2.213843e+00
  1.459381e+01    2.203765e+00
  1.460968e+01    2.222675e+00
  1.462556e+01    2.176808e+00
  1.464144e+01    2.216618e+00
  1.465731e+01    2.230238e+00
  1.467319e+01    2.219840e+00
  1.468906e+01    2.220106e+00
  1.470494e+01    2.205694e+00
  1.472081e+01    2.193279e+00
  1.473669e+01    2.184983e+00
  1.475256e+01    2.193051e+00
  1.476844e+01    2.211241e+00
  1.478432e+01    2.237237e+00
  1.480019e+01    2.218443e+00
  1.481607e+01    2.202852e+00
  1.483194e+01    2.187904e+00
  1.484782e+01    2.199735e+00
  1.486369e+01    2.215626e+00
  1.487957e+01    2.222178e+00
  1.489544e+01    2.251547e+00
  1.491132e+01    2.270469e+00
  1.492720e+01    2.282637e+00
  1.494307e+01    2.266623e+00
  1.495895e+01    2.294763e+00
  1.497482e+01    2.322456e+00
  1.499070e+01    2.384741e+00
  1.500657e+01    2.459973e+00
  1.502245e+01    2.516210e+00
  1.503832e+01    2.605958e+00
  1.505420e+01    2.679440e+00
  1.507008e+01    2.809647e+00
  1.508595e+01    3.005511e+00
  1.510183e+01    3.233895e+00
  1.511770e+01    3.456899e+00
  1.513358e+01    3.771297e+00
  1.514945e+01    4.127569e+00
  1.516533e+01    4.525012e+00
  1.518120e+01    4.878969e+00
  1.519708e+01    5.198418e+00
  1.521296e+01    5.401976e+00
  1.522883e+01    5.568174e+00
  1.524471e+01    5.698857e+00
  1.526058e+01    5.727334e+00
  1.527646e+01    5.691476e+00
  1.529233e+01    5.434099e+00
  1.530821e+01    5.071132e+00
  1.532409e+01    4.626766e+00
  1.533996e+01    4.193299e+00
  1.535584e+01    3.763612e+00
  1.537171e+01    3.450169e+00
  1.538759e+01    3.173095e+00
  1.540346e+01    2.919595e+00
  1.541934e+01    2.796447e+00
  1.543521e+01    2.640294e+00
  1.545109e+01    2.477475e+00
  1.546697e+01    2.412443e+00
  1.548284e+01    2.352866e+00
  1.549872e+01    2.301564e+00
  1.551459e+01    2.254443e+00
  1.553047e+01    2.227381e+00
  1.554634e+01    2.185872e+00
  1.556222e+01    2.128525e+00
  1.557809e+01    2.141843e+00
  1.559397e+01    2.122525e+00
  1.560985e+01    2.047459e+00
  1.562572e+01    2.035691e+00
  1.564160e+01    2.097494e+00
  1.565747e+01    2.025602e+00
  1.567335e+01    2.010534e+00
  1.568922e+01    2.035823e+00
  1.570510e+01    2.006422e+00
  1.572097e+01    2.005439e+00
  1.573685e+01    1.964543e+00
  1.575273e+01    1.958336e+00
  1.576860e+01    1.967599e+00
  1.578448e+01    1.933973e+00
  1.580035e+01    1.925225e+00
  1.581623e+01    1.922610e+00
  1.583210e+01    1.896266e+00
  1.584798e+01    1.875860e+00
  1.586385e+01    1.896406e+00
  1.587973e+01    1.916417e+00
  1.589561e+01    1.915622e+00
  1.591148e+01    1.888843e+00
  1.592736e+01    1.896054e+00
  1.594323e+01    1.935765e+00
  1.595911e+01    1.888700e+00
  1.597498e+01    1.860020e+00
  1.599086e+01    1.890439e+00
  1.600673e+01    1.869746e+00
  1.602261e+01    1.911224e+00
  1.603849e+01    1.884016e+00
  1.605436e+01    1.850170e+00
  1.607024e+01    1.817357e+00
  1.608611e+01    1.825120e+00
  1.610199e+01    1.851717e+00
  1.611786e+01    1.866601e+00
  1.613374e+01    1.851688e+00
  1.614961e+01    1.821155e+00
  1.616549e+01    1.806179e+00
  1.618137e+01    1.836239e+00
  1.619724e+01    1.875428e+00
  1.621312e+01    1.856698e+00
  1.622899e+01    1.841411e+00
  1.624487e+01    1.832919e+00
  1.626074e+01    1.818708e+00
  1.627662e+01    1.798934e+00
  1.629250e+01    1.764650e+00
  1.630837e+01    1.765090e+00
  1.632425e+01    1.798377e+00
  1.634012e+01    1.750396e+00
  1.635600e+01    1.774880e+00
  1.637187e+01    1.766943e+00
  1.638775e+01    1.777132e+00
  1.640362e+01    1.798307e+00
  1.641950e+01    1.811604e+00
  1.643538e+01    1.785418e+00
  1.645125e+01    1.776148e+00
  1.646713e+01    1.735712e+00
  1.648300e+01    1.742893e+00
  1.649888e+01    1.773937e+00
  1.651475e+01    1.751350e+00
  1.653063e+01    1.744621e+00
  1.654650e+01    1.746020e+00
  1.656238e+01    1.738371e+00
  1.657826e+01    1.764246e+00
  1.659413e+01    1.747787e+00
  1.661001e+01    1.710506e+00
  1.662588e+01    1.702783e+00
  1.664176e+01    1.712489e+00
  1.665763e+01    1.716425e+00
  1.667351e+01    1.711299e+00
  1.668938e+01    1.717287e+00
  1.670526e+01    1.709984e+00
  1.672114e+01    1.739031e+00
  1.673701e+01    1.720948e+00
  1.675289e+01    1.718413e+00
  1.676876e+01    1.698333e+00
  1.678464e+01    1.695958e+00
  1.680051e+01    1.698787e+00
  1.681639e+01    1.692275e+00
  1.683226e+01    1.688004e+00
  1.684814e+01    1.703019e+00
  1.686402e+01    1.684325e+00
  1.687989e+01    1.676218e+00
  1.689577e+01    1.720371e+00
  1.691164e+01    1.686912e+00
  1.692752e+01    1.679088e+00
  1.694339e+01    1.684789e+00
  1.695927e+01    1.682414e+00
  1.697514e+01    1.689687e+00
  1.699102e+01    1.677884e+00
  1.700690e+01    1.674806e+00
  1.702277e+01    1.699030e+00
  1.703865e+01    1.683278e+00
  1.705452e+01    1.655429e+00
  1.707040e+01    1.645757e+00
  1.708627e+01    1.632588e+00
  1.710215e+01    1.631567e+00
  1.711802e+01    1.644900e+00
  1.713390e+01    1.644492e+00
  1.714978e+01    1.667401e+00
  1.716565e+01    1.658045e+00
  1.718153e+01    1.641772e+00
  1.719740e+01    1.631176e+00
  1.721328e+01    1.613166e+00
  1.722915e+01    1.606346e+00
  1.724503e+01    1.586953e+00
  1.726091e+01    1.623878e+00
  1.727678e+01    1.612243e+00
  1.729266e+01    1.607160e+00
  1.730853e+01    1.589681e+00
  1.732441e+01    1.613683e+00
  1.734028e+01    1.622453e+00
  1.735616e+01    1.602113e+00
  1.737203e+01    1.600712e+00
  1.738791e+01    1.596699e+00
  1.740379e+01    1.598802e+00
  1.741966e+01    1.574677e+00
  1.743554e+01    1.594422e+00
  1.745141e+01    1.587239e+00
  1.746729e+01    1.596981e+00
  1.748316e+01    1.602532e+00
  1.749904e+01    1.576251e+00
  1.751491e+01    1.562013e+00
  1.753079e+01    1.576258e+00
  1.754667e+01    1.583121e+00
  1.756254e+01    1.578807e+00
  1.757842e+01    1.573243e+00
  1.759429e+01    1.573987e+00
  1.761017e+01    1.562543e+00
  1.762604e+01    1.589193e+00
  1.764192e+01    1.573985e+00
  1.765779e+01    1.552942e+00
  1.767367e+01    1.586767e+00
  1.768955e+01    1.581564e+00
  1.770542e+01    1.588548e+00
  1.772130e+01    1.564472e+00
  1.773717e+01    1.527630e+00
  1.775305e+01    1.540938e+00
  1.776892e+01    1.517019e+00
  1.778480e+01    1.506455e+00
  1.780067e+01    1.560167e+00
  1.781655e+01    1.559479e+00
  1.783243e+01    1.528065e+00
  1.784830e+01    1.548555e+00
  1.786418e+01    1.524593e+00
  1.788005e+01    1.512580e+00
  1.789593e+01    1.547838e+00
  1.791180e+01    1.541162e+00
  1.792768e+01    1.516319e+00
  1.794355e+01    1.483794e+00
  1.795943e+01    1.511057e+00
  1.797531e+01    1.484234e+00
  1.799118e+01    1.519454e+00
  1.800706e+01    1.527162e+00
  1.802293e+01    1.496520e+00
  1.803881e+01    1.503699e+00
  1.805468e+01    1.511836e+00
  1.807056e+01    1.527341e+00
  1.808643e+01    1.506059e+00
  1.810231e+01    1.484227e+00
  1.811819e+01    1.487331e+00
  1.813406e+01    1.504617e+00
  1.814994e+01    1.494627e+00
  1.816581e+01    1.471663e+00
  1.818169e+01    1.465288e+00
  1.819756e+01    1.465000e+00
  1.821344e+01    1.475089e+00
  1.822932e+01    1.483921e+00
  1.824519e+01    1.466199e+00
  1.826107e+01    1.460470e+00
  1.827694e+01    1.507097e+00
  1.829282e+01    1.476222e+00
  1.830869e+01    1.450139e+00
  1.832457e+01    1.458287e+00
  1.834044e+01    1.484615e+00
  1.835632e+01    1.470520e+00
  1.837220e+01    1.473539e+00
  1.838807e+01    1.469522e+00
  1.840395e+01    1.457198e+00
  1.841982e+01    1.471660e+00
  1.843570e+01    1.481972e+00
  1.845157e+01    1.456173e+00
  1.846745e+01    1.441965e+00
  1.848332e+01    1.442702e+00
  1.849920e+01    1.426785e+00
  1.851508e+01    1.412789e+00
  1.853095e+01    1.444435e+00
  1.854683e+01    1.475017e+00
  1.856270e+01    1.467580e+00
  1.857858e+01    1.434289e+00
  1.859445e+01    1.428989e+00
  1.861033e+01    1.442254e+00
  1.862620e+01    1.416467e+00
  1.864208e+01    1.448017e+00
  1.865796e+01    1.449923e+00
  1.867383e+01    1.449082e+00
  1.868971e+01    1.407463e+00
  1.870558e+01    1.421943e+00
  1.872146e+01    1.403563e+00
  1.873733e+01    1.395462e+00
  1.875321e+01    1.419876e+00
  1.876908e+01    1.411935e+00
  1.878496e+01    1.431671e+00
  1.880084e+01    1.405349e+00
  1.881671e+01    1.395865e+00
  1.883259e+01    1.407766e+00
  1.884846e+01    1.416813e+00
  1.886434e+01    1.409239e+00
  1.888021e+01    1.405073e+00
  1.889609e+01    1.386149e+00
  1.891196e+01    1.398255e+00
  1.892784e+01    1.409961e+00
  1.894372e+01    1.402538e+00
  1.895959e+01    1.372785e+00
  1.897547e+01    1.380574e+00
  1.899134e+01    1.402580e+00
  1.900722e+01    1.392027e+00
  1.902309e+01    1.380670e+00
  1.903897e+01    1.398237e+00
  1.905484e+01    1.403993e+00
  1.907072e+01    1.369780e+00
  1.908660e+01    1.401070e+00
  1.910247e+01    1.388769e+00
  1.911835e+01    1.374632e+00
  1.913422e+01    1.392651e+00
  1.915010e+01    1.354410e+00
  1.916597e+01    1.374417e+00
  1.918185e+01    1.377203e+00
  1.919773e+01    1.345120e+00
  1.921360e+01    1.365040e+00
  1.922948e+01    1.365497e+00
  1.924535e+01    1.374577e+00
  1.926123e+01    1.356213e+00
  1.927710e+01    1.380783e+00
  1.929298e+01    1.375892e+00
  1.930885e+01    1.354811e+00
  1.932473e+01    1.363620e+00
  1.934061e+01    1.372297e+00
  1.935648e+01    1.372861e+00
  1.937236e+01    1.361552e+00
  1.938823e+01    1.369322e+00
  1.940411e+01    1.352125e+00
  1.941998e+01    1.329048e+00
  1.943586e+01    1.323244e+00
  1.945173e+01    1.330224e+00
  1.946761e+01    1.332049e+00
  1.948349e+01    1.340582e+00
  1.949936e+01    1.327709e+00
  1.951524e+01    1.332011e+00
  1.953111e+01    1.335153e+00
  1.954699e+01    1.321207e+00
  1.956286e+01    1.347220e+00
  1.957874e+01    1.329811e+00
  1.959461e+01    1.301737e+00
  1.961049e+01    1.295339e+00
  1.962637e+01    1.317261e+00
  1.964224e+01    1.334794e+00
  1.965812e+01    1.338855e+00
  1.967399e+01    1.346214e+00
  1.968987e+01    1.308418e+00
  1.970574e+01    1.293998e+00
  1.972162e+01    1.332017e+00
  1.973749e+01    1.332100e+00
  1.975337e+01    1.313285e+00
  1.976925e+01    1.318732e+00
  1.978512e+01    1.311152e+00
  1.980100e+01    1.300144e+00
  1.981687e+01    1.286603e+00
  1.983275e+01    1.279732e+00
  1.984862e+01    1.277002e+00
  1.986450e+01    1.283984e+00
  1.988037e+01    1.289322e+00
  1.989625e+01    1.282740e+00
  1.991213e+01    1.291788e+00
  1.992800e+01    1.305042e+00
  1.994388e+01    1.278219e+00
  1.995975e+01    1.242411e+00
  1.997563e+01    1.270595e+00
  1.999150e+01    1.294632e+00
  2.000738e+01    1.285969e+00
  2.002325e+01    1.268283e+00
  2.003913e+01    1.281220e+00
  2.005501e+01    1.270113e+00
  2.007088e+01    1.260907e+00
  2.008676e+01    1.265561e+00
  2.010263e+01    1.287252e+00
  2.011851e+01    1.262392e+00
  2.013438e+01    1.271875e+00
  2.015026e+01    1.284071e+00
  2.016614e+01    1.264525e+00
  2.018201e+01    1.249893e+00
  2.019789e+01    1.240928e+00
  2.021376e+01    1.262475e+00
  2.022964e+01    1.269896e+00
  2.024551e+01    1.280060e+00
  2.026139e+01    1.273397e+00
  2.027726e+01    1.249397e+00
  2.029314e+01    1.249113e+00
  2.030902e+01    1.237861e+00
  2.032489e+01    1.255642e+00
  2.034077e+01    1.251971e+00
  2.035664e+01    1.271260e+00
  2.037252e+01    1.249719e+00
  2.038839e+01    1.239287e+00
  2.040427e+01    1.248001e+00
  2.042014e+01    1.230509e+00
  2.043602e+01    1.225648e+00
  2.045190e+01    1.242806e+00
  2.046777e+01    1.243360e+00
  2.048365e+01    1.207826e+00
  2.049952e+01    1.208386e+00
  2.051540e+01    1.239338e+00
  2.053127e+01    1.239105e+00
  2.054715e+01    1.234277e+00
  2.056302e+01    1.228644e+00
  2.057890e+01    1.226395e+00
  2.059478e+01    1.224297e+00
  2.061065e+01    1.251590e+00
  2.062653e+01    1.218991e+00
  2.064240e+01    1.225998e+00
  2.065828e+01    1.232014e+00
  2.067415e+01    1.230160e+00
  2.069003e+01    1.250977e+00
  2.070590e+01    1.232025e+00
  2.072178e+01    1.208375e+00
  2.073766e+01    1.204452e+00
  2.075353e+01    1.213751e+00
  2.076941e+01    1.228561e+00
  2.078528e+01    1.247017e+00
  2.080116e+01    1.248937e+00
  2.081703e+01    1.247966e+00
  2.083291e+01    1.260233e+00
  2.084878e+01    1.249460e+00
  2.086466e+01    1.234735e+00
  2.088054e+01    1.240011e+00
  2.089641e+01    1.222419e+00
  2.091229e+01    1.245365e+00
  2.092816e+01    1.254643e+00
  2.094404e+01    1.214605e+00
  2.095991e+01    1.231775e+00
  2.097579e+01    1.246972e+00
  2.099166e+01    1.230978e+00
  2.100754e+01    1.237969e+00
  2.102342e+01    1.238516e+00
  2.103929e+01    1.247620e+00
  2.105517e+01    1.231513e+00
  2.107104e+01    1.230960e+00
  2.108692e+01    1.226722e+00
  2.110279e+01    1.253682e+00
  2.111867e+01    1.247855e+00
  2.113455e+01    1.219957e+00
  2.115042e+01    1.221293e+00
  2.116630e+01    1.227995e+00
  2.118217e+01    1.222794e+00
  2.119805e+01    1.217443e+00
  2.121392e+01    1.243689e+00
  2.122980e+01    1.236503e+00
  2.124567e+01    1.236264e+00
  2.126155e+01    1.251911e+00
  2.127743e+01    1.259196e+00
  2.129330e+01    1.268692e+00
  2.130918e+01    1.285296e+00
  2.132505e+01    1.282316e+00
  2.134093e+01    1.287062e+00
  2.135680e+01    1.287105e+00
  2.137268e+01    1.291200e+00
  2.138855e+01    1.288517e+00
  2.140443e+01    1.310771e+00
  2.142031e+01    1.324513e+00
  2.143618e+01    1.348886e+00
  2.145206e+01    1.353892e+00
  2.146793e+01    1.372675e+00
  2.148381e+01    1.384386e+00
  2.149968e+01    1.424006e+00
  2.151556e+01    1.445700e+00
  2.153143e+01    1.496364e+00
  2.154731e+01    1.516163e+00
  2.156319e+01    1.567843e+00
  2.157906e+01    1.598993e+00
  2.159494e+01    1.654179e+00
  2.161081e+01    1.747025e+00
  2.162669e+01    1.837853e+00
  2.164256e+01    1.954383e+00
  2.165844e+01    2.109664e+00
  2.167431e+01    2.275698e+00
  2.169019e+01    2.488422e+00
  2.170607e+01    2.771543e+00
  2.172194e+01    3.121584e+00
  2.173782e+01    3.542288e+00
  2.175369e+01    4.037835e+00
  2.176957e+01    4.593731e+00
  2.178544e+01    5.240628e+00
  2.180132e+01    5.820560e+00
  2.181719e+01    6.457613e+00
  2.183307e+01    7.157015e+00
  2.184895e+01    7.712219e+00
  2.186482e+01    8.291273e+00
  2.188070e+01    8.750408e+00
  2.189657e+01    8.849745e+00
  2.191245e+01    8.716698e+00
  2.192832e+01    8.265215e+00
  2.194420e+01    7.540538e+00
  2.196007e+01    6.573503e+00
  2.197595e+01    5.674851e+00
  2.199183e+01    4.846949e+00
  2.200770e+01    4.181318e+00
  2.202358e+01    3.628431e+00
  2.203945e+01    3.169495e+00
  2.205533e+01    2.847689e+00
  2.207120e+01    2.573212e+00
  2.208708e+01    2.319788e+00
  2.210296e+01    2.117645e+00
  2.211883e+01    1.975507e+00
  2.213471e+01    1.873772e+00
  2.215058e+01    1.767563e+00
  2.216646e+01    1.668464e+00
  2.218233e+01    1.587952e+00
  2.219821e+01    1.549634e+00
  2.221408e+01    1.516072e+00
  2.222996e+01    1.453713e+00
  2.224584e+01    1.429668e+00
  2.226171e+01    1.371661e+00
  2.227759e+01    1.346563e+00
  2.229346e+01    1.321701e+00
  2.230934e+01    1.288465e+00
  2.232521e+01    1.264511e+00
  2.234109e+01    1.238532e+00
  2.235696e+01    1.243448e+00
  2.237284e+01    1.218828e+00
  2.238872e+01    1.221614e+00
  2.240459e+01    1.187313e+00
  2.242047e+01    1.189230e+00
  2.243634e+01    1.194553e+00
  2.245222e+01    1.143549e+00
  2.246809e+01    1.161362e+00
  2.248397e+01    1.154449e+00
  2.249984e+01    1.152363e+00
  2.251572e+01    1.136724e+00
  2.253160e+01    1.141611e+00
  2.254747e+01    1.138995e+00
  2.256335e+01    1.120193e+00
  2.257922e+01    1.114671e+00
  2.259510e+01    1.109363e+00
  2.261097e+01    1.113365e+00
  2.262685e+01    1.099457e+00
  2.264272e+01    1.098616e+00
  2.265860e+01    1.085116e+00
  2.267448e+01    1.099241e+00
  2.269035e+01    1.090504e+00
  2.270623e+01    1.080722e+00
  2.272210e+01    1.086706e+00
  2.273798e+01    1.085438e+00
  2.275385e+01    1.066807e+00
  2.276973e+01    1.053419e+00
  2.278560e+01    1.054595e+00
  2.280148e+01    1.046332e+00
  2.281736e+01    1.019459e+00
  2.283323e+01    1.037356e+00
  2.284911e+01    1.037307e+00
  2.286498e+01    1.060272e+00
  2.288086e+01    1.048241e+00
  2.289673e+01    1.032049e+00
  2.291261e+01    1.015241e+00
  2.292848e+01    1.013291e+00
  2.294436e+01    1.021780e+00
  2.296024e+01    1.034177e+00
  2.297611e+01    1.049012e+00
  2.299199e+01    1.038089e+00
  2.300786e+01    1.028705e+00
  2.302374e+01    1.047444e+00
  2.303961e+01    1.033960e+00
  2.305549e+01    1.012518e+00
  2.307137e+01    9.841516e-01
  2.308724e+01    9.863533e-01
  2.310312e+01    9.945056e-01
  2.311899e+01    1.006503e+00
  2.313487e+01    1.009785e+00
  2.315074e+01    1.025578e+00
  2.316662e+01    1.012504e+00
  2.318249e+01    9.900885e-01
  2.319837e+01    1.010244e+00
  2.321425e+01    9.854751e-01
  2.323012e+01    1.009431e+00
  2.324600e+01    1.008535e+00
  2.326187e+01    9.890009e-01
  2.327775e+01    9.839174e-01
  2.329362e+01    9.691749e-01
  2.330950e+01    9.882023e-01
  2.332537e+01    9.759698e-01
  2.334125e+01    9.736143e-01
  2.335713e+01    9.754639e-01
  2.337300e+01    9.773059e-01
  2.338888e+01    9.791161e-01
  2.340475e+01    9.721740e-01
  2.342063e+01    9.499133e-01
  2.343650e+01    9.744799e-01
  2.345238e+01    9.730049e-01
  2.346825e+01    9.519743e-01
  2.348413e+01    9.502167e-01
  2.350001e+01    9.592708e-01
  2.351588e+01    9.571509e-01
  2.353176e+01    9.816554e-01
  2.354763e+01    9.552960e-01
  2.356351e+01    9.660577e-01
  2.357938e+01    9.580780e-01
  2.359526e+01    9.678690e-01
  2.361113e+01    9.528018e-01
  2.362701e+01    9.531796e-01
  2.364289e+01    9.575099e-01
  2.365876e+01    9.370304e-01
  2.367464e+01    9.461338e-01
  2.369051e+01    9.458743e-01
  2.370639e+01    9.535936e-01
  2.372226e+01    9.205803e-01
  2.373814e+01    9.189186e-01
  2.375401e+01    9.225250e-01
  2.376989e+01    9.180607e-01
  2.378577e+01    9.104834e-01
  2.380164e+01    9.278264e-01
  2.381752e+01    9.196841e-01
  2.383339e+01    9.092007e-01
  2.384927e+01    9.271753e-01
  2.386514e+01    9.185790e-01
  2.388102e+01    9.218792e-01
  2.389689e+01    9.261914e-01
  2.391277e+01    9.099272e-01
  2.392865e+01    9.119334e-01
  2.394452e+01    9.175043e-01
  2.396040e+01    9.122783e-01
  2.397627e+01    8.983557e-01
  2.399215e+01    9.067190e-01
  2.400802e+01    8.786453e-01
  2.402390e+01    8.832406e-01
  2.403978e+01    8.970526e-01
  2.405565e+01    8.751862e-01
  2.407153e+01    8.790096e-01
  2.408740e+01    8.555718e-01
  2.410328e+01    8.993340e-01
  2.411915e+01    9.183506e-01
  2.413503e+01    8.868222e-01
  2.415090e+01    8.735650e-01
  2.416678e+01    8.691325e-01
  2.418266e+01    8.878530e-01
  2.419853e+01    9.008543e-01
  2.421441e+01    8.676398e-01
  2.423028e+01    8.905398e-01
  2.424616e+01    8.829219e-01
  2.426203e+01    8.818986e-01
  2.427791e+01    8.966884e-01
  2.429378e+01    9.007923e-01
  2.430966e+01    8.953841e-01
  2.432554e+01    8.931434e-01
  2.434141e+01    8.985473e-01
  2.435729e+01    8.927443e-01
  2.437316e+01    8.951834e-01
  2.438904e+01    9.047666e-01
  2.440491e+01    9.021248e-01
  2.442079e+01    8.876975e-01
  2.443666e+01    9.029327e-01
  2.445254e+01    8.856196e-01
  2.446842e+01    8.835301e-01
  2.448429e+01    8.826035e-01
  2.450017e+01    8.819928e-01
  2.451604e+01    8.894864e-01
  2.453192e+01    9.167077e-01
  2.454779e+01    8.906969e-01
  2.456367e+01    8.763083e-01
  2.457954e+01    8.784657e-01
  2.459542e+01    8.794513e-01
  2.461130e+01    8.799463e-01
  2.462717e+01    8.763760e-01
  2.464305e+01    8.708109e-01
  2.465892e+01    8.867735e-01
  2.467480e+01    8.880049e-01
  2.469067e+01    8.856210e-01
  2.470655e+01    8.659121e-01
  2.472242e+01    8.646970e-01
  2.473830e+01    8.788532e-01
  2.475418e+01    8.704884e-01
  2.477005e+01    8.945080e-01
  2.478593e+01    8.919347e-01
  2.480180e+01    8.908950e-01
  2.481768e+01    9.129519e-01
  2.483355e+01    8.939850e-01
  2.484943e+01    8.879851e-01
  2.486530e+01    8.992912e-01
  2.488118e+01    8.923491e-01
  2.489706e+01    8.872424e-01
  2.491293e+01    8.800077e-01
  2.492881e+01    8.893928e-01
  2.494468e+01    8.862458e-01
  2.496056e+01    8.961583e-01
  2.497643e+01    9.059311e-01
  2.499231e+01    8.986773e-01
  2.500819e+01    9.077871e-01
  2.502406e+01    9.060454e-01
  2.503994e+01    9.152499e-01
  2.505581e+01    8.950792e-01
  2.507169e+01    8.958665e-01
  2.508756e+01    8.809031e-01
  2.510344e+01    9.176892e-01
  2.511931e+01    9.039139e-01
  2.513519e+01    9.058942e-01
  2.515107e+01    9.180342e-01
  2.516694e+01    9.322010e-01
  2.518282e+01    9.355247e-01
  2.519869e+01    9.295835e-01
  2.521457e+01    9.271777e-01
  2.523044e+01    9.171851e-01
  2.524632e+01    9.400311e-01
  2.526219e+01    9.431241e-01
  2.527807e+01    9.374614e-01
  2.529395e+01    9.214169e-01
  2.530982e+01    9.513864e-01
  2.532570e+01    9.545413e-01
  2.534157e+01    9.570882e-01
  2.535745e+01    9.741156e-01
  2.537332e+01    9.634084e-01
  2.538920e+01    9.828705e-01
  2.540507e+01    9.912489e-01
  2.542095e+01    9.994059e-01
  2.543683e+01    1.031591e+00
  2.545270e+01    1.005785e+00
  2.546858e+01    1.014310e+00
  2.548445e+01    1.064764e+00
  2.550033e+01    1.055890e+00
  2.551620e+01    1.095915e+00
  2.553208e+01    1.075796e+00
  2.554795e+01    1.098815e+00
  2.556383e+01    1.147067e+00
  2.557971e+01    1.173378e+00
  2.559558e+01    1.182526e+00
  2.561146e+01    1.236721e+00
  2.562733e+01    1.254858e+00
  2.564321e+01    1.287521e+00
  2.565908e+01    1.360187e+00
  2.567496e+01    1.426208e+00
  2.569083e+01    1.495228e+00
  2.570671e+01    1.583934e+00
  2.572259e+01    1.724354e+00
  2.573846e+01    1.857568e+00
  2.575434e+01    1.994887e+00
  2.577021e+01    2.223713e+00
  2.578609e+01    2.507328e+00
  2.580196e+01    2.821469e+00
  2.581784e+01    3.210674e+00
  2.583371e+01    3.656776e+00
  2.584959e+01    4.131423e+00
  2.586547e+01    4.688041e+00
  2.588134e+01    5.271751e+00
  2.589722e+01    5.787543e+00
  2.591309e+01    6.307973e+00
  2.592897e+01    6.728342e+00
  2.594484e+01    7.060636e+00
  2.596072e+01    7.098086e+00
  2.597660e+01    6.896453e+00
  2.599247e+01    6.501289e+00
  2.600835e+01    5.955610e+00
  2.602422e+01    5.279438e+00
  2.604010e+01    4.585795e+00
  2.605597e+01    3.964294e+00
  2.607185e+01    3.452527e+00
  2.608772e+01    3.039988e+00
  2.610360e+01    2.673467e+00
  2.611948e+01    2.341987e+00
  2.613535e+01    2.099874e+00
  2.615123e+01    1.921457e+00
  2.616710e+01    1.803025e+00
  2.618298e+01    1.670595e+00
  2.619885e+01    1.552100e+00
  2.621473e+01    1.484187e+00
  2.623060e+01    1.401761e+00
  2.624648e+01    1.332166e+00
  2.626236e+01    1.310300e+00
  2.627823e+01    1.257756e+00
  2.629411e+01    1.200035e+00
  2.630998e+01    1.175786e+00
  2.632586e+01    1.156171e+00
  2.634173e+01    1.128821e+00
  2.635761e+01    1.090768e+00
  2.637348e+01    1.101696e+00
  2.638936e+01    1.068905e+00
  2.640524e+01    1.038442e+00
  2.642111e+01    1.046516e+00
  2.643699e+01    1.048253e+00
  2.645286e+01    1.036145e+00
  2.646874e+01    1.010813e+00
  2.648461e+01    1.031127e+00
  2.650049e+01    1.026961e+00
  2.651636e+01    1.019541e+00
  2.653224e+01    9.948030e-01
  2.654812e+01    9.906459e-01
  2.656399e+01    1.003079e+00
  2.657987e+01    1.002265e+00
  2.659574e+01    9.870600e-01
  2.661162e+01    9.929394e-01
  2.662749e+01    9.956423e-01
  2.664337e+01    9.661844e-01
  2.665924e+01    9.690343e-01
  2.667512e+01    9.804085e-01
  2.669100e+01    9.547247e-01
  2.670687e+01    9.704561e-01
  2.672275e+01    9.897529e-01
  2.673862e+01    9.664940e-01
  2.675450e+01    9.580447e-01
  2.677037e+01    9.610147e-01
  2.678625e+01    9.785150e-01
  2.680212e+01    9.915575e-01
  2.681800e+01    9.875255e-01
  2.683388e+01    9.813377e-01
  2.684975e+01    9.692597e-01
  2.686563e+01    9.767126e-01
  2.688150e+01    9.708313e-01
  2.689738e+01    9.763662e-01
  2.691325e+01    1.002511e+00
  2.692913e+01    1.001026e+00
  2.694501e+01    1.032925e+00
  2.696088e+01    1.051196e+00
  2.697676e+01    1.072209e+00
  2.699263e+01    1.097878e+00
  2.700851e+01    1.110065e+00
  2.702438e+01    1.142632e+00
  2.704026e+01    1.199304e+00
  2.705613e+01    1.280158e+00
  2.707201e+01    1.330220e+00
  2.708789e+01    1.399349e+00
  2.710376e+01    1.490357e+00
  2.711964e+01    1.599674e+00
  2.713551e+01    1.749133e+00
  2.715139e+01    1.837381e+00
  2.716726e+01    1.986755e+00
  2.718314e+01    2.074290e+00
  2.719901e+01    2.126928e+00
  2.721489e+01    2.177493e+00
  2.723077e+01    2.168236e+00
  2.724664e+01    2.081998e+00
  2.726252e+01    1.953035e+00
  2.727839e+01    1.832923e+00
  2.729427e+01    1.706548e+00
  2.731014e+01    1.567232e+00
  2.732602e+01    1.497026e+00
  2.734189e+01    1.364452e+00
  2.735777e+01    1.285830e+00
  2.737365e+01    1.238485e+00
  2.738952e+01    1.179060e+00
  2.740540e+01    1.122526e+00
  2.742127e+01    1.058382e+00
  2.743715e+01    1.043666e+00
  2.745302e+01    1.027690e+00
  2.746890e+01    1.002544e+00
  2.748477e+01    1.008701e+00
  2.750065e+01    9.834822e-01
  2.751653e+01    9.922723e-01
  2.753240e+01    9.764605e-01
  2.754828e+01    9.348811e-01
  2.756415e+01    9.240952e-01
  2.758003e+01    9.387302e-01
  2.759590e+01    9.352209e-01
  2.761178e+01    9.254425e-01
  2.762765e+01    9.356650e-01
  2.764353e+01    9.159304e-01
  2.765941e+01    9.061239e-01
  2.767528e+01    9.282653e-01
  2.769116e+01    9.143183e-01
  2.770703e+01    9.134597e-01
  2.772291e+01    9.038793e-01
  2.773878e+01    8.920723e-01
  2.775466e+01    9.020163e-01
  2.777054e+01    8.851597e-01
  2.778641e+01    8.889991e-01
  2.780229e+01    8.916388e-01
  2.781816e+01    8.970014e-01
  2.783404e+01    8.840799e-01
  2.784991e+01    8.778588e-01
  2.786579e+01    8.789415e-01
  2.788166e+01    8.878402e-01
  2.789754e+01    9.024760e-01
  2.791342e+01    8.809971e-01
  2.792929e+01    8.711649e-01
  2.794517e+01    8.454417e-01
  2.796104e+01    8.681692e-01
  2.797692e+01    8.557724e-01
  2.799279e+01    8.564079e-01
  2.800867e+01    8.809967e-01
  2.802454e+01    8.786567e-01
  2.804042e+01    8.671286e-01
  2.805630e+01    8.616857e-01
  2.807217e+01    8.654457e-01
  2.808805e+01    8.660576e-01
  2.810392e+01    8.565230e-01
  2.811980e+01    8.685389e-01
  2.813567e+01    8.678726e-01
  2.815155e+01    8.682091e-01
  2.816742e+01    8.592625e-01
  2.818330e+01    8.357075e-01
  2.819918e+01    8.399250e-01
  2.821505e+01    8.698059e-01
  2.823093e+01    8.705109e-01
  2.824680e+01    8.477881e-01
  2.826268e+01    8.664061e-01
  2.827855e+01    8.575846e-01
  2.829443e+01    8.287944e-01
  2.831030e+01    8.499836e-01
  2.832618e+01    8.601623e-01
  2.834206e+01    8.393905e-01
  2.835793e+01    8.438807e-01
  2.837381e+01    8.512684e-01
  2.838968e+01    8.616828e-01
  2.840556e+01    8.557298e-01
  2.842143e+01    8.338220e-01
  2.843731e+01    8.136265e-01
  2.845318e+01    8.606336e-01
  2.846906e+01    8.667996e-01
  2.848494e+01    8.442509e-01
  2.850081e+01    8.467847e-01
  2.851669e+01    8.638219e-01
  2.853256e+01    8.569959e-01
  2.854844e+01    8.470203e-01
  2.856431e+01    8.220992e-01
  2.858019e+01    8.333985e-01
  2.859606e+01    8.190531e-01
  2.861194e+01    8.036057e-01
  2.862782e+01    8.154065e-01
  2.864369e+01    8.209555e-01
  2.865957e+01    8.292312e-01
  2.867544e+01    8.243471e-01
  2.869132e+01    8.176949e-01
  2.870719e+01    8.306550e-01
  2.872307e+01    8.505586e-01
  2.873895e+01    8.486086e-01
  2.875482e+01    8.383057e-01
  2.877070e+01    8.059220e-01
  2.878657e+01    8.416640e-01
  2.880245e+01    8.305405e-01
  2.881832e+01    8.299614e-01
  2.883420e+01    8.480942e-01
  2.885007e+01    8.393296e-01
  2.886595e+01    8.181478e-01
  2.888183e+01    8.267365e-01
  2.889770e+01    8.004882e-01
  2.891358e+01    8.245705e-01
  2.892945e+01    8.211598e-01
  2.894533e+01    8.052867e-01
  2.896120e+01    8.127421e-01
  2.897708e+01    8.117434e-01
  2.899295e+01    8.072254e-01
  2.900883e+01    8.344626e-01
  2.902471e+01    8.136778e-01
  2.904058e+01    8.424622e-01
  2.905646e+01    8.414075e-01
  2.907233e+01    8.132579e-01
  2.908821e+01    8.144674e-01
  2.910408e+01    8.125011e-01
  2.911996e+01    8.267264e-01
  2.913583e+01    8.173450e-01
  2.915171e+01    8.119649e-01
  2.916759e+01    8.138126e-01
  2.918346e+01    8.242835e-01
  2.919934e+01    8.240938e-01
  2.921521e+01    8.313591e-01
  2.923109e+01    8.210207e-01
  2.924696e+01    7.992609e-01
  2.926284e+01    7.958606e-01
  2.927871e+01    7.930002e-01
  2.929459e+01    8.128245e-01
  2.931047e+01    8.011339e-01
  2.932634e+01    8.190308e-01
  2.934222e+01    8.309795e-01
  2.935809e+01    8.070930e-01
  2.937397e+01    7.946215e-01
  2.938984e+01    8.095985e-01
  2.940572e+01    8.024654e-01
  2.942159e+01    8.082643e-01
  2.943747e+01    8.207564e-01
  2.945335e+01    7.999600e-01
  2.946922e+01    8.061492e-01
  2.948510e+01    8.251637e-01
  2.950097e+01    8.042475e-01
  2.951685e+01    7.953731e-01
  2.953272e+01    8.013186e-01
  2.954860e+01    7.963927e-01
  2.956447e+01    7.779886e-01
  2.958035e+01    7.982014e-01
  2.959623e+01    8.075467e-01
  2.961210e+01    7.891560e-01
  2.962798e+01    8.016185e-01
  2.964385e+01    7.898483e-01
  2.965973e+01    7.765926e-01
  2.967560e+01    7.998547e-01
  2.969148e+01    8.035507e-01
  2.970736e+01    7.982612e-01
  2.972323e+01    8.164322e-01
  2.973911e+01    8.096349e-01
  2.975498e+01    7.868730e-01
  2.977086e+01    7.800980e-01
  2.978673e+01    8.108092e-01
  2.980261e+01    7.986528e-01
  2.981848e+01    7.832788e-01
  2.983436e+01    8.055974e-01
  2.985024e+01    8.123730e-01
  2.986611e+01    8.153465e-01
  2.988199e+01    8.170811e-01
  2.989786e+01    8.021964e-01
  2.991374e+01    8.030062e-01
  2.992961e+01    8.049538e-01
  2.994549e+01    7.928003e-01
  2.996136e+01    7.947523e-01
  2.997724e+01    7.978414e-01
  2.999312e+01    8.098246e-01
  3.000899e+01    8.084630e-01
  3.002487e+01    7.986633e-01
  3.004074e+01    8.103427e-01
  3.005662e+01    8.086210e-01
  3.007249e+01    8.365670e-01
  3.008837e+01    8.073777e-01
  3.010424e+01    7.821727e-01
  3.012012e+01    7.884312e-01
  3.013600e+01    7.946240e-01
  3.015187e+01    7.884647e-01
  3.016775e+01    7.882833e-01
  3.018362e+01    8.045363e-01
  3.019950e+01    7.802830e-01
  3.021537e+01    7.769951e-01
  3.023125e+01    7.775333e-01
  3.024712e+01    7.844877e-01
  3.026300e+01    7.656808e-01
  3.027888e+01    7.823809e-01
  3.029475e+01    7.826170e-01
  3.031063e+01    8.045007e-01
  3.032650e+01    7.924958e-01
  3.034238e+01    8.150803e-01
  3.035825e+01    7.982956e-01
  3.037413e+01    7.975251e-01
  3.039000e+01    8.118185e-01
  3.040588e+01    7.936967e-01
  3.042176e+01    7.865390e-01
  3.043763e+01    7.763359e-01
  3.045351e+01    7.814855e-01
  3.046938e+01    7.899505e-01
  3.048526e+01    7.693184e-01
  3.050113e+01    7.780164e-01
  3.051701e+01    7.870234e-01
  3.053288e+01    7.694739e-01
  3.054876e+01    7.888669e-01
  3.056464e+01    7.988536e-01
  3.058051e+01    7.925693e-01
  3.059639e+01    7.823519e-01
  3.061226e+01    7.834372e-01
  3.062814e+01    7.667755e-01
  3.064401e+01    7.904898e-01
  3.065989e+01    7.897937e-01
  3.067577e+01    7.969201e-01
  3.069164e+01    7.994213e-01
  3.070752e+01    8.230203e-01
  3.072339e+01    7.945172e-01
  3.073927e+01    7.746348e-01
  3.075514e+01    7.761118e-01
  3.077102e+01    7.761442e-01
  3.078689e+01    7.939394e-01
  3.080277e+01    7.902504e-01
  3.081865e+01    7.828286e-01
  3.083452e+01    7.869462e-01
  3.085040e+01    7.761580e-01
  3.086627e+01    7.926611e-01
  3.088215e+01    7.951113e-01
  3.089802e+01    7.853800e-01
  3.091390e+01    7.908989e-01
  3.092977e+01    7.948638e-01
  3.094565e+01    7.920108e-01
  3.096153e+01    7.867973e-01
  3.097740e+01    7.847357e-01
  3.099328e+01    7.842358e-01
  3.100915e+01    7.916917e-01
  3.102503e+01    7.831898e-01
  3.104090e+01    7.712341e-01
  3.105678e+01    7.897837e-01
  3.107265e+01    8.192178e-01
  3.108853e+01    7.868412e-01
  3.110441e+01    8.055514e-01
  3.112028e+01    7.964834e-01
  3.113616e+01    7.986739e-01
  3.115203e+01    7.734112e-01
  3.116791e+01    7.844059e-01
  3.118378e+01    7.925478e-01
  3.119966e+01    7.913659e-01
  3.121553e+01    8.041230e-01
  3.123141e+01    8.004056e-01
  3.124729e+01    7.954304e-01
  3.126316e+01    7.969467e-01
  3.127904e+01    7.927272e-01
  3.129491e+01    8.064807e-01
  3.131079e+01    8.135147e-01
  3.132666e+01    8.005036e-01
  3.134254e+01    7.910752e-01
  3.135841e+01    8.054917e-01
  3.137429e+01    8.334377e-01
  3.139017e+01    8.054092e-01
  3.140604e+01    7.963781e-01
  3.142192e+01    7.936885e-01
  3.143779e+01    8.198946e-01
  3.145367e+01    8.065265e-01
  3.146954e+01    7.855923e-01
  3.148542e+01    8.216759e-01
  3.150129e+01    8.332592e-01
  3.151717e+01    8.517039e-01
  3.153305e+01    8.505380e-01
  3.154892e+01    8.622043e-01
  3.156480e+01    8.518648e-01
  3.158067e+01    8.742689e-01
  3.159655e+01    8.827264e-01
  3.161242e+01    8.953928e-01
  3.162830e+01    8.973411e-01
  3.164418e+01    9.219037e-01
  3.166005e+01    9.410459e-01
  3.167593e+01    9.477288e-01
  3.169180e+01    9.723678e-01
  3.170768e+01    1.007475e+00
  3.172355e+01    1.058590e+00
  3.173943e+01    1.104730e+00
  3.175530e+01    1.160714e+00
  3.177118e+01    1.239593e+00
  3.178706e+01    1.351640e+00
  3.180293e+01    1.460575e+00
  3.181881e+01    1.566093e+00
  3.183468e+01    1.682961e+00
  3.185056e+01    1.794112e+00
  3.186643e+01    1.926025e+00
  3.188231e+01    2.020504e+00
  3.189818e+01    2.093678e+00
  3.191406e+01    2.102061e+00
  3.192994e+01    2.047850e+00
  3.194581e+01    1.956233e+00
  3.196169e+01    1.830188e+00
  3.197756e+01    1.713067e+00
  3.199344e+01    1.569990e+00
  3.200931e+01    1.454051e+00
  3.202519e+01    1.297204e+00
  3.204106e+01    1.235372e+00
  3.205694e+01    1.167508e+00
  3.207282e+01    1.080777e+00
  3.208869e+01    1.041656e+00
  3.210457e+01    1.015339e+00
  3.212044e+01    9.867469e-01
  3.213632e+01    9.488283e-01
  3.215219e+01    9.378543e-01
  3.216807e+01    9.171003e-01
  3.218394e+01    8.971341e-01
  3.219982e+01    8.585457e-01
  3.221570e+01    8.552989e-01
  3.223157e+01    8.486490e-01
  3.224745e+01    8.186445e-01
  3.226332e+01    8.351634e-01
  3.227920e+01    8.108864e-01
  3.229507e+01    8.382492e-01
  3.231095e+01    8.277378e-01
  3.232682e+01    8.157949e-01
  3.234270e+01    8.179654e-01
  3.235858e+01    8.124003e-01
  3.237445e+01    8.026842e-01
  3.239033e+01    7.942769e-01
  3.240620e+01    8.054379e-01
  3.242208e+01    7.836593e-01
  3.243795e+01    7.730825e-01
  3.245383e+01    7.800730e-01
  3.246970e+01    7.711208e-01
  3.248558e+01    7.653828e-01
  3.250146e+01    7.585233e-01
  3.251733e+01    7.798717e-01
  3.253321e+01    8.055116e-01
  3.254908e+01    7.762716e-01
