# == pyFAI calibration ==
# Distance Sample to Detector: 0.3999999939076516 m
# PONI: 9.750e-02, 1.135e-01 m
# Rotations: -0.000175 0.000000 -0.000000 rad
# 
# == Fit2d calibration ==
# Distance Sample-beamCenter: 400.000 mm
# Center: x=1514.000, y=1300.000 pix
# Tilt: 0.010 deg  TiltPlanRot: 0.010 deg
# 
# Detector Detector	 Spline= None	 PixelSize= 7.500e-05, 7.500e-05 m
#    Detector has a mask: False 
#    Detector has a dark current: False 
#    detector has a flat field: False 
# 
# Wavelength: 6.888e-11 m
# Mask applied: user provided
# Dark current applied: False
# Flat field applied: False
# Polarization factor: 0.99
# Normalization factor: 1.0
# --> /home/myspot/data/2024_07_Rosario/Ru-CGO-ex/2024-07-27_003_Ru-CGO-ex_Reaction_dwell_000023_data_000142.dat
#       q_nm^-1             I 
  2.003187e-02    7.712225e-02
  3.590745e-02    6.421505e-02
  5.178302e-02    5.342412e-02
  6.765859e-02    1.544734e-01
  8.353417e-02    1.893199e-01
  9.940974e-02    1.315882e-01
  1.152853e-01    6.444775e-02
  1.311609e-01    2.051313e-04
  1.470365e-01    0.000000e+00
  1.629120e-01    0.000000e+00
  1.787876e-01    8.791097e-03
  1.946632e-01    3.869353e-02
  2.105388e-01    1.079090e-02
  2.264143e-01    1.530458e-02
  2.422899e-01    2.203577e-02
  2.581655e-01    2.325079e-02
  2.740411e-01    4.293775e-02
  2.899166e-01    3.440945e-02
  3.057922e-01    2.806096e-02
  3.216678e-01    5.211531e-02
  3.375433e-01    3.959274e-02
  3.534189e-01    7.572415e-02
  3.692945e-01    7.483111e-02
  3.851701e-01    3.318821e-02
  4.010456e-01    5.305332e-02
  4.169212e-01    4.504491e-02
  4.327968e-01    2.755866e-02
  4.486724e-01    2.902373e-02
  4.645479e-01    4.343291e-02
  4.804235e-01    2.942603e-02
  4.962991e-01    3.052109e-02
  5.121747e-01    1.551775e-02
  5.280502e-01    2.205968e-02
  5.439258e-01    3.172277e-02
  5.598014e-01    4.224500e-02
  5.756770e-01    2.289034e-02
  5.915525e-01    4.283308e-02
  6.074281e-01    2.048117e-02
  6.233037e-01    5.808935e-02
  6.391793e-01    4.609443e-02
  6.550548e-01    5.919120e-02
  6.709304e-01    5.442150e-02
  6.868060e-01    1.883921e-02
  7.026815e-01    1.370082e-02
  7.185571e-01    4.124681e-02
  7.344327e-01    5.044777e-02
  7.503083e-01    5.737646e-02
  7.661838e-01    9.227183e-02
  7.820594e-01    1.237570e-01
  7.979350e-01    1.652303e-01
  8.138106e-01    2.374821e-01
  8.296861e-01    3.001198e-01
  8.455617e-01    3.488936e-01
  8.614373e-01    4.400239e-01
  8.773129e-01    5.502499e-01
  8.931884e-01    5.865457e-01
  9.090640e-01    6.467851e-01
  9.249396e-01    6.827198e-01
  9.408152e-01    7.744560e-01
  9.566907e-01    9.667588e-01
  9.725663e-01    1.039781e+00
  9.884419e-01    1.084349e+00
  1.004317e+00    1.242373e+00
  1.020193e+00    1.372583e+00
  1.036069e+00    1.411680e+00
  1.051944e+00    1.311383e+00
  1.067820e+00    1.411378e+00
  1.083695e+00    1.504618e+00
  1.099571e+00    1.483793e+00
  1.115446e+00    1.484564e+00
  1.131322e+00    1.694725e+00
  1.147198e+00    1.747044e+00
  1.163073e+00    1.665579e+00
  1.178949e+00    1.749907e+00
  1.194824e+00    1.871703e+00
  1.210700e+00    2.086605e+00
  1.226575e+00    2.338732e+00
  1.242451e+00    2.390875e+00
  1.258327e+00    2.343172e+00
  1.274202e+00    2.399220e+00
  1.290078e+00    2.663153e+00
  1.305953e+00    2.591626e+00
  1.321829e+00    2.719552e+00
  1.337705e+00    2.766034e+00
  1.353580e+00    2.927185e+00
  1.369456e+00    2.892346e+00
  1.385331e+00    2.875709e+00
  1.401207e+00    2.775002e+00
  1.417082e+00    2.813253e+00
  1.432958e+00    2.895070e+00
  1.448834e+00    2.937630e+00
  1.464709e+00    2.921520e+00
  1.480585e+00    3.005296e+00
  1.496460e+00    3.121076e+00
  1.512336e+00    3.141486e+00
  1.528211e+00    3.072222e+00
  1.544087e+00    3.209943e+00
  1.559963e+00    3.313407e+00
  1.575838e+00    3.299216e+00
  1.591714e+00    3.199323e+00
  1.607589e+00    3.131624e+00
  1.623465e+00    3.107590e+00
  1.639340e+00    3.163359e+00
  1.655216e+00    3.139523e+00
  1.671092e+00    3.103645e+00
  1.686967e+00    3.013634e+00
  1.702843e+00    2.963266e+00
  1.718718e+00    3.157758e+00
  1.734594e+00    3.152506e+00
  1.750469e+00    3.127114e+00
  1.766345e+00    3.137551e+00
  1.782221e+00    3.136075e+00
  1.798096e+00    3.202545e+00
  1.813972e+00    3.061313e+00
  1.829847e+00    2.996274e+00
  1.845723e+00    2.920960e+00
  1.861598e+00    2.947785e+00
  1.877474e+00    2.974089e+00
  1.893350e+00    3.031373e+00
  1.909225e+00    2.976802e+00
  1.925101e+00    2.931628e+00
  1.940976e+00    3.007103e+00
  1.956852e+00    2.997144e+00
  1.972727e+00    3.023679e+00
  1.988603e+00    3.069099e+00
  2.004479e+00    3.020609e+00
  2.020354e+00    3.040966e+00
  2.036230e+00    3.013345e+00
  2.052105e+00    3.064538e+00
  2.067981e+00    3.126259e+00
  2.083856e+00    3.100663e+00
  2.099732e+00    3.107356e+00
  2.115608e+00    3.045911e+00
  2.131483e+00    3.023670e+00
  2.147359e+00    3.003870e+00
  2.163234e+00    2.969399e+00
  2.179110e+00    3.104860e+00
  2.194985e+00    3.123430e+00
  2.210861e+00    3.116872e+00
  2.226737e+00    3.068710e+00
  2.242612e+00    3.121681e+00
  2.258488e+00    3.186639e+00
  2.274363e+00    3.112082e+00
  2.290239e+00    3.021289e+00
  2.306115e+00    3.133789e+00
  2.321990e+00    3.116403e+00
  2.337866e+00    3.140182e+00
  2.353741e+00    3.154895e+00
  2.369617e+00    3.129888e+00
  2.385492e+00    3.211872e+00
  2.401368e+00    3.112506e+00
  2.417244e+00    3.144004e+00
  2.433119e+00    3.095485e+00
  2.448995e+00    3.173517e+00
  2.464870e+00    3.204096e+00
  2.480746e+00    3.219282e+00
  2.496621e+00    3.192593e+00
  2.512497e+00    3.141457e+00
  2.528373e+00    3.164716e+00
  2.544248e+00    3.208513e+00
  2.560124e+00    3.161983e+00
  2.575999e+00    3.251799e+00
  2.591875e+00    3.184713e+00
  2.607750e+00    3.273073e+00
  2.623626e+00    3.245142e+00
  2.639502e+00    3.147820e+00
  2.655377e+00    3.346440e+00
  2.671253e+00    3.297252e+00
  2.687128e+00    3.288459e+00
  2.703004e+00    3.229124e+00
  2.718879e+00    3.215994e+00
  2.734755e+00    3.246042e+00
  2.750631e+00    3.148440e+00
  2.766506e+00    3.303679e+00
  2.782382e+00    3.237090e+00
  2.798257e+00    3.218779e+00
  2.814133e+00    3.286850e+00
  2.830008e+00    3.308885e+00
  2.845884e+00    3.457469e+00
  2.861760e+00    3.458519e+00
  2.877635e+00    3.309037e+00
  2.893511e+00    3.365870e+00
  2.909386e+00    3.358176e+00
  2.925262e+00    3.254556e+00
  2.941137e+00    3.365282e+00
  2.957013e+00    3.403686e+00
  2.972889e+00    3.316470e+00
  2.988764e+00    3.300588e+00
  3.004640e+00    3.350250e+00
  3.020515e+00    3.411034e+00
  3.036391e+00    3.500507e+00
  3.052266e+00    3.397825e+00
  3.068142e+00    3.350113e+00
  3.084018e+00    3.368932e+00
  3.099893e+00    3.295656e+00
  3.115769e+00    3.291291e+00
  3.131644e+00    3.316689e+00
  3.147520e+00    3.349752e+00
  3.163395e+00    3.438617e+00
  3.179271e+00    3.350345e+00
  3.195147e+00    3.407562e+00
  3.211022e+00    3.439612e+00
  3.226898e+00    3.406105e+00
  3.242773e+00    3.349103e+00
  3.258649e+00    3.301823e+00
  3.274525e+00    3.410001e+00
  3.290400e+00    3.437234e+00
  3.306276e+00    3.452503e+00
  3.322151e+00    3.285423e+00
  3.338027e+00    3.309157e+00
  3.353902e+00    3.422487e+00
  3.369778e+00    3.439707e+00
  3.385654e+00    3.373270e+00
  3.401529e+00    3.363469e+00
  3.417405e+00    3.354992e+00
  3.433280e+00    3.434010e+00
  3.449156e+00    3.478049e+00
  3.465031e+00    3.437262e+00
  3.480907e+00    3.363614e+00
  3.496783e+00    3.404279e+00
  3.512658e+00    3.460881e+00
  3.528534e+00    3.508955e+00
  3.544409e+00    3.521956e+00
  3.560285e+00    3.447877e+00
  3.576160e+00    3.438673e+00
  3.592036e+00    3.509847e+00
  3.607912e+00    3.509869e+00
  3.623787e+00    3.447585e+00
  3.639663e+00    3.458059e+00
  3.655538e+00    3.463432e+00
  3.671414e+00    3.409010e+00
  3.687289e+00    3.440270e+00
  3.703165e+00    3.435403e+00
  3.719041e+00    3.351858e+00
  3.734916e+00    3.422895e+00
  3.750792e+00    3.498768e+00
  3.766667e+00    3.542009e+00
  3.782543e+00    3.454442e+00
  3.798418e+00    3.562537e+00
  3.814294e+00    3.564802e+00
  3.830170e+00    3.539809e+00
  3.846045e+00    3.532356e+00
  3.861921e+00    3.630522e+00
  3.877796e+00    3.529128e+00
  3.893672e+00    3.549368e+00
  3.909547e+00    3.563015e+00
  3.925423e+00    3.548740e+00
  3.941299e+00    3.449447e+00
  3.957174e+00    3.486786e+00
  3.973050e+00    3.618254e+00
  3.988925e+00    3.547273e+00
  4.004801e+00    3.555622e+00
  4.020676e+00    3.502084e+00
  4.036552e+00    3.411623e+00
  4.052428e+00    3.462770e+00
  4.068303e+00    3.549314e+00
  4.084179e+00    3.617542e+00
  4.100054e+00    3.615304e+00
  4.115930e+00    3.594554e+00
  4.131806e+00    3.525224e+00
  4.147681e+00    3.531299e+00
  4.163557e+00    3.505251e+00
  4.179432e+00    3.560100e+00
  4.195308e+00    3.542442e+00
  4.211183e+00    3.469653e+00
  4.227059e+00    3.650089e+00
  4.242935e+00    3.722542e+00
  4.258810e+00    3.590099e+00
  4.274686e+00    3.626155e+00
  4.290561e+00    3.538760e+00
  4.306437e+00    3.606836e+00
  4.322312e+00    3.569882e+00
  4.338188e+00    3.563810e+00
  4.354064e+00    3.500495e+00
  4.369939e+00    3.537790e+00
  4.385815e+00    3.571822e+00
  4.401690e+00    3.629467e+00
  4.417566e+00    3.598665e+00
  4.433441e+00    3.560240e+00
  4.449317e+00    3.577766e+00
  4.465193e+00    3.612392e+00
  4.481068e+00    3.588668e+00
  4.496944e+00    3.552023e+00
  4.512819e+00    3.510823e+00
  4.528695e+00    3.591516e+00
  4.544570e+00    3.695640e+00
  4.560446e+00    3.618828e+00
  4.576322e+00    3.610488e+00
  4.592197e+00    3.610698e+00
  4.608073e+00    3.555370e+00
  4.623948e+00    3.631171e+00
  4.639824e+00    3.669139e+00
  4.655699e+00    3.653436e+00
  4.671575e+00    3.585432e+00
  4.687451e+00    3.661244e+00
  4.703326e+00    3.659839e+00
  4.719202e+00    3.631702e+00
  4.735077e+00    3.675046e+00
  4.750953e+00    3.681970e+00
  4.766828e+00    3.667025e+00
  4.782704e+00    3.609048e+00
  4.798580e+00    3.586456e+00
  4.814455e+00    3.688593e+00
  4.830331e+00    3.648538e+00
  4.846206e+00    3.647553e+00
  4.862082e+00    3.700924e+00
  4.877957e+00    3.717016e+00
  4.893833e+00    3.640736e+00
  4.909709e+00    3.549241e+00
  4.925584e+00    3.521489e+00
  4.941460e+00    3.730214e+00
  4.957335e+00    3.667049e+00
  4.973211e+00    3.587993e+00
  4.989086e+00    3.641084e+00
  5.004962e+00    3.658689e+00
  5.020838e+00    3.595761e+00
  5.036713e+00    3.616521e+00
  5.052589e+00    3.686882e+00
  5.068464e+00    3.656610e+00
  5.084340e+00    3.667025e+00
  5.100216e+00    3.625816e+00
  5.116091e+00    3.635661e+00
  5.131967e+00    3.624538e+00
  5.147842e+00    3.657266e+00
  5.163718e+00    3.609461e+00
  5.179593e+00    3.619246e+00
  5.195469e+00    3.673940e+00
  5.211345e+00    3.562007e+00
  5.227220e+00    3.576176e+00
  5.243096e+00    3.608059e+00
  5.258971e+00    3.684263e+00
  5.274847e+00    3.696590e+00
  5.290722e+00    3.651683e+00
  5.306598e+00    3.694515e+00
  5.322474e+00    3.662240e+00
  5.338349e+00    3.664191e+00
  5.354225e+00    3.665833e+00
  5.370100e+00    3.644090e+00
  5.385976e+00    3.630598e+00
  5.401851e+00    3.601543e+00
  5.417727e+00    3.667467e+00
  5.433603e+00    3.707781e+00
  5.449478e+00    3.575562e+00
  5.465354e+00    3.543587e+00
  5.481229e+00    3.572173e+00
  5.497105e+00    3.587929e+00
  5.512980e+00    3.645704e+00
  5.528856e+00    3.642920e+00
  5.544732e+00    3.678533e+00
  5.560607e+00    3.609642e+00
  5.576483e+00    3.565584e+00
  5.592358e+00    3.596118e+00
  5.608234e+00    3.639585e+00
  5.624109e+00    3.634152e+00
  5.639985e+00    3.675053e+00
  5.655861e+00    3.605012e+00
  5.671736e+00    3.594947e+00
  5.687612e+00    3.699709e+00
  5.703487e+00    3.691316e+00
  5.719363e+00    3.568283e+00
  5.735238e+00    3.593772e+00
  5.751114e+00    3.596209e+00
  5.766990e+00    3.577941e+00
  5.782865e+00    3.533442e+00
  5.798741e+00    3.561538e+00
  5.814616e+00    3.560588e+00
  5.830492e+00    3.505148e+00
  5.846367e+00    3.458346e+00
  5.862243e+00    3.493129e+00
  5.878119e+00    3.495945e+00
  5.893994e+00    3.527073e+00
  5.909870e+00    3.585380e+00
  5.925745e+00    3.551956e+00
  5.941621e+00    3.534263e+00
  5.957497e+00    3.500617e+00
  5.973372e+00    3.514591e+00
  5.989248e+00    3.477810e+00
  6.005123e+00    3.480482e+00
  6.020999e+00    3.469061e+00
  6.036874e+00    3.505677e+00
  6.052750e+00    3.581560e+00
  6.068626e+00    3.574738e+00
  6.084501e+00    3.529819e+00
  6.100377e+00    3.584877e+00
  6.116252e+00    3.602626e+00
  6.132128e+00    3.589879e+00
  6.148003e+00    3.562823e+00
  6.163879e+00    3.639933e+00
  6.179755e+00    3.546559e+00
  6.195630e+00    3.567358e+00
  6.211506e+00    3.621942e+00
  6.227381e+00    3.546303e+00
  6.243257e+00    3.578615e+00
  6.259132e+00    3.587532e+00
  6.275008e+00    3.541869e+00
  6.290884e+00    3.529769e+00
  6.306759e+00    3.515218e+00
  6.322635e+00    3.621847e+00
  6.338510e+00    3.526872e+00
  6.354386e+00    3.603340e+00
  6.370261e+00    3.607255e+00
  6.386137e+00    3.612267e+00
  6.402013e+00    3.489592e+00
  6.417888e+00    3.490032e+00
  6.433764e+00    3.546104e+00
  6.449639e+00    3.562786e+00
  6.465515e+00    3.519985e+00
  6.481390e+00    3.539076e+00
  6.497266e+00    3.464397e+00
  6.513142e+00    3.548064e+00
  6.529017e+00    3.635629e+00
  6.544893e+00    3.621027e+00
  6.560768e+00    3.538496e+00
  6.576644e+00    3.533617e+00
  6.592519e+00    3.531461e+00
  6.608395e+00    3.540708e+00
  6.624271e+00    3.531278e+00
  6.640146e+00    3.532340e+00
  6.656022e+00    3.592507e+00
  6.671897e+00    3.610312e+00
  6.687773e+00    3.600130e+00
  6.703648e+00    3.616264e+00
  6.719524e+00    3.611068e+00
  6.735400e+00    3.575554e+00
  6.751275e+00    3.497523e+00
  6.767151e+00    3.567653e+00
  6.783026e+00    3.575248e+00
  6.798902e+00    3.568726e+00
  6.814777e+00    3.618833e+00
  6.830653e+00    3.563010e+00
  6.846529e+00    3.597242e+00
  6.862404e+00    3.576262e+00
  6.878280e+00    3.544394e+00
  6.894155e+00    3.565816e+00
  6.910031e+00    3.572196e+00
  6.925907e+00    3.599148e+00
  6.941782e+00    3.553478e+00
  6.957658e+00    3.471243e+00
  6.973533e+00    3.502569e+00
  6.989409e+00    3.500849e+00
  7.005284e+00    3.443299e+00
  7.021160e+00    3.442103e+00
  7.037036e+00    3.458226e+00
  7.052911e+00    3.516814e+00
  7.068787e+00    3.510117e+00
  7.084662e+00    3.530773e+00
  7.100538e+00    3.522969e+00
  7.116413e+00    3.533638e+00
  7.132289e+00    3.521685e+00
  7.148165e+00    3.480092e+00
  7.164040e+00    3.555884e+00
  7.179916e+00    3.590511e+00
  7.195791e+00    3.531667e+00
  7.211667e+00    3.532095e+00
  7.227542e+00    3.471533e+00
  7.243418e+00    3.441432e+00
  7.259294e+00    3.542419e+00
  7.275169e+00    3.584152e+00
  7.291045e+00    3.560624e+00
  7.306920e+00    3.537168e+00
  7.322796e+00    3.465027e+00
  7.338671e+00    3.449469e+00
  7.354547e+00    3.489076e+00
  7.370423e+00    3.513171e+00
  7.386298e+00    3.479960e+00
  7.402174e+00    3.536353e+00
  7.418049e+00    3.456015e+00
  7.433925e+00    3.423646e+00
  7.449800e+00    3.472786e+00
  7.465676e+00    3.474395e+00
  7.481552e+00    3.511439e+00
  7.497427e+00    3.494938e+00
  7.513303e+00    3.512031e+00
  7.529178e+00    3.490265e+00
  7.545054e+00    3.442900e+00
  7.560929e+00    3.404099e+00
  7.576805e+00    3.476130e+00
  7.592681e+00    3.543340e+00
  7.608556e+00    3.546279e+00
  7.624432e+00    3.480844e+00
  7.640307e+00    3.417926e+00
  7.656183e+00    3.450506e+00
  7.672058e+00    3.470464e+00
  7.687934e+00    3.403208e+00
  7.703810e+00    3.424131e+00
  7.719685e+00    3.494861e+00
  7.735561e+00    3.414485e+00
  7.751436e+00    3.408160e+00
  7.767312e+00    3.493698e+00
  7.783187e+00    3.512146e+00
  7.799063e+00    3.436455e+00
  7.814939e+00    3.389977e+00
  7.830814e+00    3.396715e+00
  7.846690e+00    3.458622e+00
  7.862565e+00    3.518651e+00
  7.878441e+00    3.444200e+00
  7.894317e+00    3.402953e+00
  7.910192e+00    3.461253e+00
  7.926068e+00    3.426748e+00
  7.941943e+00    3.415311e+00
  7.957819e+00    3.393429e+00
  7.973694e+00    3.472316e+00
  7.989570e+00    3.453229e+00
  8.005446e+00    3.481572e+00
  8.021321e+00    3.370568e+00
  8.037197e+00    3.398223e+00
  8.053072e+00    3.438854e+00
  8.068948e+00    3.390337e+00
  8.084823e+00    3.397010e+00
  8.100699e+00    3.444592e+00
  8.116575e+00    3.484560e+00
  8.132450e+00    3.469446e+00
  8.148326e+00    3.441460e+00
  8.164201e+00    3.432849e+00
  8.180077e+00    3.470956e+00
  8.195952e+00    3.475914e+00
  8.211828e+00    3.390892e+00
  8.227704e+00    3.416323e+00
  8.243579e+00    3.436286e+00
  8.259455e+00    3.432832e+00
  8.275330e+00    3.439790e+00
  8.291206e+00    3.421722e+00
  8.307081e+00    3.414604e+00
  8.322957e+00    3.434319e+00
  8.338833e+00    3.422504e+00
  8.354708e+00    3.378544e+00
  8.370584e+00    3.392836e+00
  8.386459e+00    3.451900e+00
  8.402335e+00    3.401150e+00
  8.418210e+00    3.380076e+00
  8.434086e+00    3.392152e+00
  8.449962e+00    3.420475e+00
  8.465837e+00    3.369814e+00
  8.481713e+00    3.373275e+00
  8.497588e+00    3.376736e+00
  8.513464e+00    3.353572e+00
  8.529339e+00    3.359081e+00
  8.545215e+00    3.409820e+00
  8.561091e+00    3.391990e+00
  8.576966e+00    3.375154e+00
  8.592842e+00    3.365758e+00
  8.608717e+00    3.404202e+00
  8.624593e+00    3.373065e+00
  8.640468e+00    3.333492e+00
  8.656344e+00    3.345528e+00
  8.672220e+00    3.283057e+00
  8.688095e+00    3.375229e+00
  8.703971e+00    3.376642e+00
  8.719846e+00    3.340813e+00
  8.735722e+00    3.350194e+00
  8.751598e+00    3.385785e+00
  8.767473e+00    3.320335e+00
  8.783349e+00    3.294374e+00
  8.799224e+00    3.313032e+00
  8.815100e+00    3.342185e+00
  8.830975e+00    3.402319e+00
  8.846851e+00    3.342421e+00
  8.862727e+00    3.256979e+00
  8.878602e+00    3.280983e+00
  8.894478e+00    3.321879e+00
  8.910353e+00    3.301187e+00
  8.926229e+00    3.333675e+00
  8.942104e+00    3.265633e+00
  8.957980e+00    3.229390e+00
  8.973856e+00    3.302871e+00
  8.989731e+00    3.282862e+00
  9.005607e+00    3.245250e+00
  9.021482e+00    3.315409e+00
  9.037358e+00    3.244900e+00
  9.053233e+00    3.298010e+00
  9.069109e+00    3.333885e+00
  9.084985e+00    3.288934e+00
  9.100860e+00    3.307591e+00
  9.116736e+00    3.273664e+00
  9.132611e+00    3.204842e+00
  9.148487e+00    3.211766e+00
  9.164362e+00    3.255639e+00
  9.180238e+00    3.313767e+00
  9.196114e+00    3.318934e+00
  9.211989e+00    3.242068e+00
  9.227865e+00    3.288326e+00
  9.243740e+00    3.245297e+00
  9.259616e+00    3.217078e+00
  9.275491e+00    3.179080e+00
  9.291367e+00    3.207729e+00
  9.307243e+00    3.263897e+00
  9.323118e+00    3.209634e+00
  9.338994e+00    3.147864e+00
  9.354869e+00    3.201866e+00
  9.370745e+00    3.197045e+00
  9.386620e+00    3.225836e+00
  9.402496e+00    3.280635e+00
  9.418372e+00    3.234864e+00
  9.434247e+00    3.212601e+00
  9.450123e+00    3.240803e+00
  9.465998e+00    3.216121e+00
  9.481874e+00    3.178253e+00
  9.497749e+00    3.207874e+00
  9.513625e+00    3.246100e+00
  9.529501e+00    3.255801e+00
  9.545376e+00    3.267160e+00
  9.561252e+00    3.261835e+00
  9.577127e+00    3.319717e+00
  9.593003e+00    3.282037e+00
  9.608878e+00    3.270618e+00
  9.624754e+00    3.176754e+00
  9.640630e+00    3.155010e+00
  9.656505e+00    3.220785e+00
  9.672381e+00    3.173464e+00
  9.688256e+00    3.116288e+00
  9.704132e+00    3.133177e+00
  9.720008e+00    3.144977e+00
  9.735883e+00    3.107627e+00
  9.751759e+00    3.135301e+00
  9.767634e+00    3.149146e+00
  9.783510e+00    3.141203e+00
  9.799385e+00    3.125721e+00
  9.815261e+00    3.119230e+00
  9.831137e+00    3.164886e+00
  9.847012e+00    3.111540e+00
  9.862888e+00    3.119581e+00
  9.878763e+00    3.143486e+00
  9.894639e+00    3.165162e+00
  9.910514e+00    3.126439e+00
  9.926390e+00    3.112392e+00
  9.942266e+00    3.151149e+00
  9.958141e+00    3.132373e+00
  9.974017e+00    3.095765e+00
  9.989892e+00    3.106720e+00
  1.000577e+01    3.109492e+00
  1.002164e+01    3.129640e+00
  1.003752e+01    3.120325e+00
  1.005339e+01    3.140415e+00
  1.006927e+01    3.128529e+00
  1.008515e+01    3.139817e+00
  1.010102e+01    3.122678e+00
  1.011690e+01    3.135444e+00
  1.013277e+01    3.110822e+00
  1.014865e+01    3.082775e+00
  1.016452e+01    3.042714e+00
  1.018040e+01    3.051826e+00
  1.019627e+01    3.092853e+00
  1.021215e+01    3.067935e+00
  1.022803e+01    3.058168e+00
  1.024390e+01    3.062261e+00
  1.025978e+01    3.030969e+00
  1.027565e+01    3.067731e+00
  1.029153e+01    3.015880e+00
  1.030740e+01    3.041243e+00
  1.032328e+01    3.085674e+00
  1.033915e+01    3.047948e+00
  1.035503e+01    2.974630e+00
  1.037091e+01    2.997912e+00
  1.038678e+01    3.030369e+00
  1.040266e+01    3.027554e+00
  1.041853e+01    3.046061e+00
  1.043441e+01    3.051613e+00
  1.045028e+01    3.014463e+00
  1.046616e+01    3.016920e+00
  1.048204e+01    3.003635e+00
  1.049791e+01    2.999848e+00
  1.051379e+01    2.977996e+00
  1.052966e+01    3.006100e+00
  1.054554e+01    3.027819e+00
  1.056141e+01    2.973724e+00
  1.057729e+01    2.965124e+00
  1.059316e+01    2.983341e+00
  1.060904e+01    2.964795e+00
  1.062492e+01    2.960479e+00
  1.064079e+01    2.935815e+00
  1.065667e+01    2.938383e+00
  1.067254e+01    2.918019e+00
  1.068842e+01    2.970799e+00
  1.070429e+01    2.991382e+00
  1.072017e+01    2.961901e+00
  1.073604e+01    2.964619e+00
  1.075192e+01    2.999821e+00
  1.076780e+01    2.955203e+00
  1.078367e+01    2.952827e+00
  1.079955e+01    3.007560e+00
  1.081542e+01    2.973294e+00
  1.083130e+01    2.995863e+00
  1.084717e+01    2.896158e+00
  1.086305e+01    2.908002e+00
  1.087892e+01    2.957828e+00
  1.089480e+01    2.966929e+00
  1.091068e+01    2.934678e+00
  1.092655e+01    2.895939e+00
  1.094243e+01    2.874409e+00
  1.095830e+01    2.914814e+00
  1.097418e+01    2.917867e+00
  1.099005e+01    2.936993e+00
  1.100593e+01    2.901346e+00
  1.102180e+01    2.847500e+00
  1.103768e+01    2.882149e+00
  1.105356e+01    2.917322e+00
  1.106943e+01    2.858406e+00
  1.108531e+01    2.896509e+00
  1.110118e+01    2.858796e+00
  1.111706e+01    2.841262e+00
  1.113293e+01    2.862412e+00
  1.114881e+01    2.909450e+00
  1.116468e+01    2.878179e+00
  1.118056e+01    2.888971e+00
  1.119644e+01    2.882552e+00
  1.121231e+01    2.885272e+00
  1.122819e+01    2.864733e+00
  1.124406e+01    2.880301e+00
  1.125994e+01    2.901090e+00
  1.127581e+01    2.853573e+00
  1.129169e+01    2.833618e+00
  1.130756e+01    2.815178e+00
  1.132344e+01    2.875609e+00
  1.133932e+01    2.842567e+00
  1.135519e+01    2.800490e+00
  1.137107e+01    2.760899e+00
  1.138694e+01    2.850155e+00
  1.140282e+01    2.834269e+00
  1.141869e+01    2.818016e+00
  1.143457e+01    2.788670e+00
  1.145045e+01    2.757562e+00
  1.146632e+01    2.823022e+00
  1.148220e+01    2.790970e+00
  1.149807e+01    2.839861e+00
  1.151395e+01    2.861653e+00
  1.152982e+01    2.814630e+00
  1.154570e+01    2.799977e+00
  1.156157e+01    2.801405e+00
  1.157745e+01    2.750640e+00
  1.159333e+01    2.711849e+00
  1.160920e+01    2.822447e+00
  1.162508e+01    2.812322e+00
  1.164095e+01    2.775472e+00
  1.165683e+01    2.778252e+00
  1.167270e+01    2.742843e+00
  1.168858e+01    2.800185e+00
  1.170445e+01    2.765809e+00
  1.172033e+01    2.755464e+00
  1.173621e+01    2.725199e+00
  1.175208e+01    2.773638e+00
  1.176796e+01    2.760554e+00
  1.178383e+01    2.725703e+00
  1.179971e+01    2.709330e+00
  1.181558e+01    2.730120e+00
  1.183146e+01    2.771116e+00
  1.184733e+01    2.780551e+00
  1.186321e+01    2.733574e+00
  1.187909e+01    2.745503e+00
  1.189496e+01    2.754421e+00
  1.191084e+01    2.732339e+00
  1.192671e+01    2.748584e+00
  1.194259e+01    2.784030e+00
  1.195846e+01    2.691914e+00
  1.197434e+01    2.714286e+00
  1.199021e+01    2.666418e+00
  1.200609e+01    2.642051e+00
  1.202197e+01    2.702151e+00
  1.203784e+01    2.715817e+00
  1.205372e+01    2.701718e+00
  1.206959e+01    2.750771e+00
  1.208547e+01    2.744233e+00
  1.210134e+01    2.668642e+00
  1.211722e+01    2.713700e+00
  1.213309e+01    2.717453e+00
  1.214897e+01    2.702576e+00
  1.216485e+01    2.743899e+00
  1.218072e+01    2.765915e+00
  1.219660e+01    2.714404e+00
  1.221247e+01    2.679797e+00
  1.222835e+01    2.698163e+00
  1.224422e+01    2.740781e+00
  1.226010e+01    2.741528e+00
  1.227597e+01    2.715428e+00
  1.229185e+01    2.733342e+00
  1.230773e+01    2.740997e+00
  1.232360e+01    2.733479e+00
  1.233948e+01    2.693550e+00
  1.235535e+01    2.704448e+00
  1.237123e+01    2.707655e+00
  1.238710e+01    2.710881e+00
  1.240298e+01    2.720469e+00
  1.241886e+01    2.712781e+00
  1.243473e+01    2.720643e+00
  1.245061e+01    2.694912e+00
  1.246648e+01    2.700190e+00
  1.248236e+01    2.673513e+00
  1.249823e+01    2.701010e+00
  1.251411e+01    2.708850e+00
  1.252998e+01    2.693742e+00
  1.254586e+01    2.776199e+00
  1.256174e+01    2.768477e+00
  1.257761e+01    2.713063e+00
  1.259349e+01    2.696356e+00
  1.260936e+01    2.704061e+00
  1.262524e+01    2.792266e+00
  1.264111e+01    2.782525e+00
  1.265699e+01    2.799594e+00
  1.267286e+01    2.816836e+00
  1.268874e+01    2.836472e+00
  1.270462e+01    2.822674e+00
  1.272049e+01    2.809862e+00
  1.273637e+01    2.855047e+00
  1.275224e+01    2.970232e+00
  1.276812e+01    2.981605e+00
  1.278399e+01    2.985540e+00
  1.279987e+01    3.021493e+00
  1.281574e+01    3.019928e+00
  1.283162e+01    3.111772e+00
  1.284750e+01    3.243352e+00
  1.286337e+01    3.274059e+00
  1.287925e+01    3.401896e+00
  1.289512e+01    3.524559e+00
  1.291100e+01    3.667223e+00
  1.292687e+01    3.845396e+00
  1.294275e+01    4.081594e+00
  1.295862e+01    4.392073e+00
  1.297450e+01    4.829623e+00
  1.299038e+01    5.379267e+00
  1.300625e+01    5.974176e+00
  1.302213e+01    6.711879e+00
  1.303800e+01    7.699034e+00
  1.305388e+01    8.861145e+00
  1.306975e+01    1.016860e+01
  1.308563e+01    1.142371e+01
  1.310150e+01    1.278019e+01
  1.311738e+01    1.384062e+01
  1.313326e+01    1.476119e+01
  1.314913e+01    1.565509e+01
  1.316501e+01    1.629782e+01
  1.318088e+01    1.628301e+01
  1.319676e+01    1.543361e+01
  1.321263e+01    1.410489e+01
  1.322851e+01    1.229967e+01
  1.324438e+01    1.056082e+01
  1.326026e+01    8.996158e+00
  1.327614e+01    7.711668e+00
  1.329201e+01    6.648061e+00
  1.330789e+01    5.860578e+00
  1.332376e+01    5.266138e+00
  1.333964e+01    4.795481e+00
  1.335551e+01    4.386386e+00
  1.337139e+01    4.037172e+00
  1.338727e+01    3.822664e+00
  1.340314e+01    3.647999e+00
  1.341902e+01    3.453761e+00
  1.343489e+01    3.290676e+00
  1.345077e+01    3.217437e+00
  1.346664e+01    3.147163e+00
  1.348252e+01    3.050528e+00
  1.349839e+01    2.982649e+00
  1.351427e+01    2.916473e+00
  1.353015e+01    2.877194e+00
  1.354602e+01    2.855016e+00
  1.356190e+01    2.785012e+00
  1.357777e+01    2.714766e+00
  1.359365e+01    2.744635e+00
  1.360952e+01    2.684324e+00
  1.362540e+01    2.671954e+00
  1.364127e+01    2.655814e+00
  1.365715e+01    2.598065e+00
  1.367303e+01    2.576074e+00
  1.368890e+01    2.578944e+00
  1.370478e+01    2.560028e+00
  1.372065e+01    2.516314e+00
  1.373653e+01    2.497677e+00
  1.375240e+01    2.528848e+00
  1.376828e+01    2.492686e+00
  1.378415e+01    2.473641e+00
  1.380003e+01    2.422154e+00
  1.381591e+01    2.457100e+00
  1.383178e+01    2.489105e+00
  1.384766e+01    2.434344e+00
  1.386353e+01    2.415362e+00
  1.387941e+01    2.397626e+00
  1.389528e+01    2.422494e+00
  1.391116e+01    2.440100e+00
  1.392703e+01    2.409969e+00
  1.394291e+01    2.380538e+00
  1.395879e+01    2.384599e+00
  1.397466e+01    2.400164e+00
  1.399054e+01    2.393007e+00
  1.400641e+01    2.344527e+00
  1.402229e+01    2.402534e+00
  1.403816e+01    2.366055e+00
  1.405404e+01    2.360488e+00
  1.406991e+01    2.396197e+00
  1.408579e+01    2.333755e+00
  1.410167e+01    2.286984e+00
  1.411754e+01    2.308063e+00
  1.413342e+01    2.338193e+00
  1.414929e+01    2.355921e+00
  1.416517e+01    2.319136e+00
  1.418104e+01    2.291666e+00
  1.419692e+01    2.287932e+00
  1.421279e+01    2.270086e+00
  1.422867e+01    2.254926e+00
  1.424455e+01    2.269861e+00
  1.426042e+01    2.293908e+00
  1.427630e+01    2.271287e+00
  1.429217e+01    2.279499e+00
  1.430805e+01    2.272865e+00
  1.432392e+01    2.246524e+00
  1.433980e+01    2.243318e+00
  1.435568e+01    2.243506e+00
  1.437155e+01    2.244551e+00
  1.438743e+01    2.229979e+00
  1.440330e+01    2.238344e+00
  1.441918e+01    2.215936e+00
  1.443505e+01    2.238980e+00
  1.445093e+01    2.224434e+00
  1.446680e+01    2.197758e+00
  1.448268e+01    2.200724e+00
  1.449856e+01    2.249846e+00
  1.451443e+01    2.243593e+00
  1.453031e+01    2.238943e+00
  1.454618e+01    2.226816e+00
  1.456206e+01    2.216402e+00
  1.457793e+01    2.257906e+00
  1.459381e+01    2.240871e+00
  1.460968e+01    2.193757e+00
  1.462556e+01    2.230992e+00
  1.464144e+01    2.256785e+00
  1.465731e+01    2.232900e+00
  1.467319e+01    2.242030e+00
  1.468906e+01    2.203839e+00
  1.470494e+01    2.207389e+00
  1.472081e+01    2.192509e+00
  1.473669e+01    2.189294e+00
  1.475256e+01    2.194553e+00
  1.476844e+01    2.188369e+00
  1.478432e+01    2.216081e+00
  1.480019e+01    2.189062e+00
  1.481607e+01    2.163788e+00
  1.483194e+01    2.199957e+00
  1.484782e+01    2.199708e+00
  1.486369e+01    2.160063e+00
  1.487957e+01    2.188920e+00
  1.489544e+01    2.214907e+00
  1.491132e+01    2.232499e+00
  1.492720e+01    2.270816e+00
  1.494307e+01    2.273628e+00
  1.495895e+01    2.277662e+00
  1.497482e+01    2.307538e+00
  1.499070e+01    2.336549e+00
  1.500657e+01    2.432305e+00
  1.502245e+01    2.526169e+00
  1.503832e+01    2.641698e+00
  1.505420e+01    2.709959e+00
  1.507008e+01    2.844141e+00
  1.508595e+01    2.983131e+00
  1.510183e+01    3.178467e+00
  1.511770e+01    3.472744e+00
  1.513358e+01    3.768574e+00
  1.514945e+01    4.092936e+00
  1.516533e+01    4.496895e+00
  1.518120e+01    4.884467e+00
  1.519708e+01    5.205645e+00
  1.521296e+01    5.482996e+00
  1.522883e+01    5.579103e+00
  1.524471e+01    5.737103e+00
  1.526058e+01    5.849765e+00
  1.527646e+01    5.736009e+00
  1.529233e+01    5.387465e+00
  1.530821e+01    5.044868e+00
  1.532409e+01    4.672208e+00
  1.533996e+01    4.213213e+00
  1.535584e+01    3.738680e+00
  1.537171e+01    3.397434e+00
  1.538759e+01    3.157383e+00
  1.540346e+01    2.958410e+00
  1.541934e+01    2.785004e+00
  1.543521e+01    2.622175e+00
  1.545109e+01    2.517963e+00
  1.546697e+01    2.435336e+00
  1.548284e+01    2.338121e+00
  1.549872e+01    2.335581e+00
  1.551459e+01    2.288774e+00
  1.553047e+01    2.223337e+00
  1.554634e+01    2.151116e+00
  1.556222e+01    2.120919e+00
  1.557809e+01    2.105989e+00
  1.559397e+01    2.096301e+00
  1.560985e+01    2.045765e+00
  1.562572e+01    2.052621e+00
  1.564160e+01    2.071315e+00
  1.565747e+01    2.056509e+00
  1.567335e+01    2.026653e+00
  1.568922e+01    1.993018e+00
  1.570510e+01    1.989675e+00
  1.572097e+01    1.974924e+00
  1.573685e+01    1.959549e+00
  1.575273e+01    1.937550e+00
  1.576860e+01    1.964476e+00
  1.578448e+01    1.973206e+00
  1.580035e+01    1.944664e+00
  1.581623e+01    1.928354e+00
  1.583210e+01    1.925839e+00
  1.584798e+01    1.929210e+00
  1.586385e+01    1.909005e+00
  1.587973e+01    1.928589e+00
  1.589561e+01    1.901008e+00
  1.591148e+01    1.891960e+00
  1.592736e+01    1.895154e+00
  1.594323e+01    1.931979e+00
  1.595911e+01    1.920669e+00
  1.597498e+01    1.876560e+00
  1.599086e+01    1.897027e+00
  1.600673e+01    1.891950e+00
  1.602261e+01    1.865583e+00
  1.603849e+01    1.860827e+00
  1.605436e+01    1.867735e+00
  1.607024e+01    1.829818e+00
  1.608611e+01    1.861135e+00
  1.610199e+01    1.815271e+00
  1.611786e+01    1.816091e+00
  1.613374e+01    1.868357e+00
  1.614961e+01    1.860871e+00
  1.616549e+01    1.836251e+00
  1.618137e+01    1.851470e+00
  1.619724e+01    1.846558e+00
  1.621312e+01    1.837206e+00
  1.622899e+01    1.818344e+00
  1.624487e+01    1.813322e+00
  1.626074e+01    1.793997e+00
  1.627662e+01    1.778733e+00
  1.629250e+01    1.798960e+00
  1.630837e+01    1.772669e+00
  1.632425e+01    1.775850e+00
  1.634012e+01    1.810562e+00
  1.635600e+01    1.785960e+00
  1.637187e+01    1.772100e+00
  1.638775e+01    1.755474e+00
  1.640362e+01    1.745887e+00
  1.641950e+01    1.746163e+00
  1.643538e+01    1.756406e+00
  1.645125e+01    1.745557e+00
  1.646713e+01    1.752824e+00
  1.648300e+01    1.766111e+00
  1.649888e+01    1.761120e+00
  1.651475e+01    1.746843e+00
  1.653063e+01    1.757025e+00
  1.654650e+01    1.736018e+00
  1.656238e+01    1.729741e+00
  1.657826e+01    1.716159e+00
  1.659413e+01    1.742536e+00
  1.661001e+01    1.754359e+00
  1.662588e+01    1.734691e+00
  1.664176e+01    1.732879e+00
  1.665763e+01    1.731796e+00
  1.667351e+01    1.692783e+00
  1.668938e+01    1.717278e+00
  1.670526e+01    1.710402e+00
  1.672114e+01    1.687761e+00
  1.673701e+01    1.699997e+00
  1.675289e+01    1.729692e+00
  1.676876e+01    1.706644e+00
  1.678464e+01    1.727292e+00
  1.680051e+01    1.702359e+00
  1.681639e+01    1.667259e+00
  1.683226e+01    1.684725e+00
  1.684814e+01    1.694581e+00
  1.686402e+01    1.683799e+00
  1.687989e+01    1.659298e+00
  1.689577e+01    1.669055e+00
  1.691164e+01    1.665932e+00
  1.692752e+01    1.724498e+00
  1.694339e+01    1.723355e+00
  1.695927e+01    1.679619e+00
  1.697514e+01    1.679443e+00
  1.699102e+01    1.668143e+00
  1.700690e+01    1.677659e+00
  1.702277e+01    1.661108e+00
  1.703865e+01    1.638802e+00
  1.705452e+01    1.649163e+00
  1.707040e+01    1.658756e+00
  1.708627e+01    1.645409e+00
  1.710215e+01    1.664013e+00
  1.711802e+01    1.653270e+00
  1.713390e+01    1.640964e+00
  1.714978e+01    1.638115e+00
  1.716565e+01    1.679732e+00
  1.718153e+01    1.657925e+00
  1.719740e+01    1.611144e+00
  1.721328e+01    1.650133e+00
  1.722915e+01    1.634262e+00
  1.724503e+01    1.616899e+00
  1.726091e+01    1.619931e+00
  1.727678e+01    1.637219e+00
  1.729266e+01    1.634156e+00
  1.730853e+01    1.619090e+00
  1.732441e+01    1.611239e+00
  1.734028e+01    1.576243e+00
  1.735616e+01    1.569113e+00
  1.737203e+01    1.622334e+00
  1.738791e+01    1.604213e+00
  1.740379e+01    1.590420e+00
  1.741966e+01    1.594698e+00
  1.743554e+01    1.600494e+00
  1.745141e+01    1.595875e+00
  1.746729e+01    1.586633e+00
  1.748316e+01    1.606313e+00
  1.749904e+01    1.575751e+00
  1.751491e+01    1.574920e+00
  1.753079e+01    1.587940e+00
  1.754667e+01    1.598802e+00
  1.756254e+01    1.562120e+00
  1.757842e+01    1.560781e+00
  1.759429e+01    1.576214e+00
  1.761017e+01    1.580588e+00
  1.762604e+01    1.572509e+00
  1.764192e+01    1.559189e+00
  1.765779e+01    1.562981e+00
  1.767367e+01    1.552281e+00
  1.768955e+01    1.558425e+00
  1.770542e+01    1.536909e+00
  1.772130e+01    1.542552e+00
  1.773717e+01    1.551121e+00
  1.775305e+01    1.543580e+00
  1.776892e+01    1.544626e+00
  1.778480e+01    1.537135e+00
  1.780067e+01    1.523389e+00
  1.781655e+01    1.559476e+00
  1.783243e+01    1.560963e+00
  1.784830e+01    1.533231e+00
  1.786418e+01    1.531073e+00
  1.788005e+01    1.511110e+00
  1.789593e+01    1.529895e+00
  1.791180e+01    1.521856e+00
  1.792768e+01    1.511748e+00
  1.794355e+01    1.500991e+00
  1.795943e+01    1.509194e+00
  1.797531e+01    1.498369e+00
  1.799118e+01    1.491764e+00
  1.800706e+01    1.498998e+00
  1.802293e+01    1.505768e+00
  1.803881e+01    1.515787e+00
  1.805468e+01    1.496379e+00
  1.807056e+01    1.510758e+00
  1.808643e+01    1.532865e+00
  1.810231e+01    1.530714e+00
  1.811819e+01    1.520174e+00
  1.813406e+01    1.490300e+00
  1.814994e+01    1.457957e+00
  1.816581e+01    1.459349e+00
  1.818169e+01    1.480206e+00
  1.819756e+01    1.486730e+00
  1.821344e+01    1.493192e+00
  1.822932e+01    1.490543e+00
  1.824519e+01    1.461336e+00
  1.826107e+01    1.472047e+00
  1.827694e+01    1.473909e+00
  1.829282e+01    1.499084e+00
  1.830869e+01    1.489764e+00
  1.832457e+01    1.474591e+00
  1.834044e+01    1.457480e+00
  1.835632e+01    1.421099e+00
  1.837220e+01    1.450017e+00
  1.838807e+01    1.465131e+00
  1.840395e+01    1.441372e+00
  1.841982e+01    1.430737e+00
  1.843570e+01    1.437427e+00
  1.845157e+01    1.445457e+00
  1.846745e+01    1.410690e+00
  1.848332e+01    1.439268e+00
  1.849920e+01    1.468823e+00
  1.851508e+01    1.468199e+00
  1.853095e+01    1.431824e+00
  1.854683e+01    1.417137e+00
  1.856270e+01    1.427713e+00
  1.857858e+01    1.455849e+00
  1.859445e+01    1.447351e+00
  1.861033e+01    1.438056e+00
  1.862620e+01    1.432503e+00
  1.864208e+01    1.430307e+00
  1.865796e+01    1.421210e+00
  1.867383e+01    1.437817e+00
  1.868971e+01    1.432151e+00
  1.870558e+01    1.432365e+00
  1.872146e+01    1.402272e+00
  1.873733e+01    1.383743e+00
  1.875321e+01    1.405439e+00
  1.876908e+01    1.405082e+00
  1.878496e+01    1.423273e+00
  1.880084e+01    1.421633e+00
  1.881671e+01    1.413407e+00
  1.883259e+01    1.426662e+00
  1.884846e+01    1.384403e+00
  1.886434e+01    1.391745e+00
  1.888021e+01    1.398336e+00
  1.889609e+01    1.382843e+00
  1.891196e+01    1.370176e+00
  1.892784e+01    1.378403e+00
  1.894372e+01    1.395641e+00
  1.895959e+01    1.403150e+00
  1.897547e+01    1.403885e+00
  1.899134e+01    1.404096e+00
  1.900722e+01    1.377616e+00
  1.902309e+01    1.391765e+00
  1.903897e+01    1.411424e+00
  1.905484e+01    1.405733e+00
  1.907072e+01    1.390369e+00
  1.908660e+01    1.374951e+00
  1.910247e+01    1.370099e+00
  1.911835e+01    1.360838e+00
  1.913422e+01    1.357953e+00
  1.915010e+01    1.373710e+00
  1.916597e+01    1.365888e+00
  1.918185e+01    1.356540e+00
  1.919773e+01    1.365287e+00
  1.921360e+01    1.374636e+00
  1.922948e+01    1.336579e+00
  1.924535e+01    1.381976e+00
  1.926123e+01    1.359679e+00
  1.927710e+01    1.359379e+00
  1.929298e+01    1.331142e+00
  1.930885e+01    1.340117e+00
  1.932473e+01    1.341469e+00
  1.934061e+01    1.363998e+00
  1.935648e+01    1.354692e+00
  1.937236e+01    1.338972e+00
  1.938823e+01    1.343524e+00
  1.940411e+01    1.334702e+00
  1.941998e+01    1.327560e+00
  1.943586e+01    1.296856e+00
  1.945173e+01    1.322136e+00
  1.946761e+01    1.350297e+00
  1.948349e+01    1.344660e+00
  1.949936e+01    1.340293e+00
  1.951524e+01    1.327088e+00
  1.953111e+01    1.312250e+00
  1.954699e+01    1.308123e+00
  1.956286e+01    1.310559e+00
  1.957874e+01    1.312900e+00
  1.959461e+01    1.310148e+00
  1.961049e+01    1.318813e+00
  1.962637e+01    1.338088e+00
  1.964224e+01    1.335842e+00
  1.965812e+01    1.333599e+00
  1.967399e+01    1.326917e+00
  1.968987e+01    1.318890e+00
  1.970574e+01    1.310994e+00
  1.972162e+01    1.299174e+00
  1.973749e+01    1.315260e+00
  1.975337e+01    1.298638e+00
  1.976925e+01    1.307686e+00
  1.978512e+01    1.278779e+00
  1.980100e+01    1.308537e+00
  1.981687e+01    1.307561e+00
  1.983275e+01    1.304882e+00
  1.984862e+01    1.281979e+00
  1.986450e+01    1.299878e+00
  1.988037e+01    1.281845e+00
  1.989625e+01    1.298534e+00
  1.991213e+01    1.321724e+00
  1.992800e+01    1.301611e+00
  1.994388e+01    1.287791e+00
  1.995975e+01    1.276526e+00
  1.997563e+01    1.316810e+00
  1.999150e+01    1.342611e+00
  2.000738e+01    1.312026e+00
  2.002325e+01    1.290830e+00
  2.003913e+01    1.292210e+00
  2.005501e+01    1.253422e+00
  2.007088e+01    1.250484e+00
  2.008676e+01    1.254653e+00
  2.010263e+01    1.254739e+00
  2.011851e+01    1.275531e+00
  2.013438e+01    1.261211e+00
  2.015026e+01    1.273389e+00
  2.016614e+01    1.274126e+00
  2.018201e+01    1.264865e+00
  2.019789e+01    1.271474e+00
  2.021376e+01    1.286402e+00
  2.022964e+01    1.235867e+00
  2.024551e+01    1.230548e+00
  2.026139e+01    1.255692e+00
  2.027726e+01    1.215292e+00
  2.029314e+01    1.245148e+00
  2.030902e+01    1.263161e+00
  2.032489e+01    1.255222e+00
  2.034077e+01    1.274573e+00
  2.035664e+01    1.273232e+00
  2.037252e+01    1.266633e+00
  2.038839e+01    1.235751e+00
  2.040427e+01    1.216456e+00
  2.042014e+01    1.240605e+00
  2.043602e+01    1.246342e+00
  2.045190e+01    1.229557e+00
  2.046777e+01    1.202398e+00
  2.048365e+01    1.219765e+00
  2.049952e+01    1.237959e+00
  2.051540e+01    1.250594e+00
  2.053127e+01    1.242144e+00
  2.054715e+01    1.236370e+00
  2.056302e+01    1.245304e+00
  2.057890e+01    1.246617e+00
  2.059478e+01    1.217186e+00
  2.061065e+01    1.229479e+00
  2.062653e+01    1.235629e+00
  2.064240e+01    1.216997e+00
  2.065828e+01    1.212796e+00
  2.067415e+01    1.221200e+00
  2.069003e+01    1.234578e+00
  2.070590e+01    1.239909e+00
  2.072178e+01    1.215134e+00
  2.073766e+01    1.224955e+00
  2.075353e+01    1.254033e+00
  2.076941e+01    1.236567e+00
  2.078528e+01    1.233248e+00
  2.080116e+01    1.229201e+00
  2.081703e+01    1.216745e+00
  2.083291e+01    1.213331e+00
  2.084878e+01    1.195995e+00
  2.086466e+01    1.194744e+00
  2.088054e+01    1.224247e+00
  2.089641e+01    1.221850e+00
  2.091229e+01    1.212237e+00
  2.092816e+01    1.233300e+00
  2.094404e+01    1.231180e+00
  2.095991e+01    1.216054e+00
  2.097579e+01    1.244228e+00
  2.099166e+01    1.262384e+00
  2.100754e+01    1.255407e+00
  2.102342e+01    1.244042e+00
  2.103929e+01    1.232365e+00
  2.105517e+01    1.224717e+00
  2.107104e+01    1.212826e+00
  2.108692e+01    1.243459e+00
  2.110279e+01    1.229374e+00
  2.111867e+01    1.214586e+00
  2.113455e+01    1.209704e+00
  2.115042e+01    1.209203e+00
  2.116630e+01    1.219430e+00
  2.118217e+01    1.234908e+00
  2.119805e+01    1.234562e+00
  2.121392e+01    1.244922e+00
  2.122980e+01    1.250761e+00
  2.124567e+01    1.264558e+00
  2.126155e+01    1.253564e+00
  2.127743e+01    1.260790e+00
  2.129330e+01    1.244534e+00
  2.130918e+01    1.253636e+00
  2.132505e+01    1.279320e+00
  2.134093e+01    1.252750e+00
  2.135680e+01    1.258167e+00
  2.137268e+01    1.290837e+00
  2.138855e+01    1.303112e+00
  2.140443e+01    1.315884e+00
  2.142031e+01    1.323798e+00
  2.143618e+01    1.315013e+00
  2.145206e+01    1.345324e+00
  2.146793e+01    1.373270e+00
  2.148381e+01    1.395204e+00
  2.149968e+01    1.391930e+00
  2.151556e+01    1.436243e+00
  2.153143e+01    1.492693e+00
  2.154731e+01    1.546665e+00
  2.156319e+01    1.573178e+00
  2.157906e+01    1.610482e+00
  2.159494e+01    1.693344e+00
  2.161081e+01    1.755601e+00
  2.162669e+01    1.856049e+00
  2.164256e+01    2.008943e+00
  2.165844e+01    2.132432e+00
  2.167431e+01    2.292893e+00
  2.169019e+01    2.544136e+00
  2.170607e+01    2.804068e+00
  2.172194e+01    3.131729e+00
  2.173782e+01    3.528112e+00
  2.175369e+01    4.048552e+00
  2.176957e+01    4.593683e+00
  2.178544e+01    5.166468e+00
  2.180132e+01    5.880697e+00
  2.181719e+01    6.576770e+00
  2.183307e+01    7.206868e+00
  2.184895e+01    7.825792e+00
  2.186482e+01    8.335845e+00
  2.188070e+01    8.776347e+00
  2.189657e+01    8.886812e+00
  2.191245e+01    8.674155e+00
  2.192832e+01    8.199418e+00
  2.194420e+01    7.376810e+00
  2.196007e+01    6.493094e+00
  2.197595e+01    5.615352e+00
  2.199183e+01    4.821741e+00
  2.200770e+01    4.126361e+00
  2.202358e+01    3.638020e+00
  2.203945e+01    3.201996e+00
  2.205533e+01    2.813910e+00
  2.207120e+01    2.522606e+00
  2.208708e+01    2.298636e+00
  2.210296e+01    2.146930e+00
  2.211883e+01    1.992836e+00
  2.213471e+01    1.865364e+00
  2.215058e+01    1.752756e+00
  2.216646e+01    1.641526e+00
  2.218233e+01    1.605684e+00
  2.219821e+01    1.540529e+00
  2.221408e+01    1.485870e+00
  2.222996e+01    1.468652e+00
  2.224584e+01    1.410745e+00
  2.226171e+01    1.374623e+00
  2.227759e+01    1.348740e+00
  2.229346e+01    1.326651e+00
  2.230934e+01    1.316035e+00
  2.232521e+01    1.300830e+00
  2.234109e+01    1.266537e+00
  2.235696e+01    1.251741e+00
  2.237284e+01    1.244690e+00
  2.238872e+01    1.232683e+00
  2.240459e+01    1.211636e+00
  2.242047e+01    1.213129e+00
  2.243634e+01    1.174896e+00
  2.245222e+01    1.156751e+00
  2.246809e+01    1.161031e+00
  2.248397e+01    1.161040e+00
  2.249984e+01    1.170418e+00
  2.251572e+01    1.131802e+00
  2.253160e+01    1.133143e+00
  2.254747e+01    1.116526e+00
  2.256335e+01    1.103472e+00
  2.257922e+01    1.085672e+00
  2.259510e+01    1.098772e+00
  2.261097e+01    1.098739e+00
  2.262685e+01    1.090846e+00
  2.264272e+01    1.098230e+00
  2.265860e+01    1.106205e+00
  2.267448e+01    1.079858e+00
  2.269035e+01    1.086137e+00
  2.270623e+01    1.077648e+00
  2.272210e+01    1.084493e+00
  2.273798e+01    1.081424e+00
  2.275385e+01    1.064475e+00
  2.276973e+01    1.064525e+00
  2.278560e+01    1.055939e+00
  2.280148e+01    1.053774e+00
  2.281736e+01    1.058027e+00
  2.283323e+01    1.055655e+00
  2.284911e+01    1.036077e+00
  2.286498e+01    1.041803e+00
  2.288086e+01    1.032127e+00
  2.289673e+01    1.049528e+00
  2.291261e+01    1.046171e+00
  2.292848e+01    1.046838e+00
  2.294436e+01    1.047367e+00
  2.296024e+01    1.037494e+00
  2.297611e+01    1.037895e+00
  2.299199e+01    1.028674e+00
  2.300786e+01    1.018316e+00
  2.302374e+01    1.027664e+00
  2.303961e+01    1.021250e+00
  2.305549e+01    1.011668e+00
  2.307137e+01    1.021684e+00
  2.308724e+01    1.012404e+00
  2.310312e+01    9.975004e-01
  2.311899e+01    9.930403e-01
  2.313487e+01    1.004467e+00
  2.315074e+01    9.975062e-01
  2.316662e+01    9.954300e-01
  2.318249e+01    1.010003e+00
  2.319837e+01    9.871645e-01
  2.321425e+01    9.865563e-01
  2.323012e+01    9.868671e-01
  2.324600e+01    9.847875e-01
  2.326187e+01    9.825875e-01
  2.327775e+01    9.898671e-01
  2.329362e+01    1.015090e+00
  2.330950e+01    1.000966e+00
  2.332537e+01    9.925222e-01
  2.334125e+01    9.836572e-01
  2.335713e+01    9.872673e-01
  2.337300e+01    9.846775e-01
  2.338888e+01    9.817824e-01
  2.340475e+01    9.646950e-01
  2.342063e+01    9.823514e-01
  2.343650e+01    9.761110e-01
  2.345238e+01    9.530149e-01
  2.346825e+01    9.521242e-01
  2.348413e+01    9.628673e-01
  2.350001e+01    9.761260e-01
  2.351588e+01    9.532396e-01
  2.353176e+01    9.658266e-01
  2.354763e+01    9.649951e-01
  2.356351e+01    9.728299e-01
  2.357938e+01    9.756779e-01
  2.359526e+01    9.828611e-01
  2.361113e+01    9.646642e-01
  2.362701e+01    9.669321e-01
  2.364289e+01    9.598343e-01
  2.365876e+01    9.560798e-01
  2.367464e+01    9.510508e-01
  2.369051e+01    9.223759e-01
  2.370639e+01    9.047620e-01
  2.372226e+01    9.317726e-01
  2.373814e+01    9.328777e-01
  2.375401e+01    9.350612e-01
  2.376989e+01    9.273570e-01
  2.378577e+01    9.109104e-01
  2.380164e+01    9.239028e-01
  2.381752e+01    9.276108e-01
  2.383339e+01    9.186918e-01
  2.384927e+01    9.325379e-01
  2.386514e+01    9.242992e-01
  2.388102e+01    9.069862e-01
  2.389689e+01    8.866495e-01
  2.391277e+01    8.998718e-01
  2.392865e+01    9.045885e-01
  2.394452e+01    8.823364e-01
  2.396040e+01    9.033453e-01
  2.397627e+01    9.076675e-01
  2.399215e+01    9.008850e-01
  2.400802e+01    9.087937e-01
  2.402390e+01    8.977582e-01
  2.403978e+01    9.088976e-01
  2.405565e+01    8.884580e-01
  2.407153e+01    8.906190e-01
  2.408740e+01    8.997195e-01
  2.410328e+01    8.892446e-01
  2.411915e+01    8.831994e-01
  2.413503e+01    8.658589e-01
  2.415090e+01    8.771961e-01
  2.416678e+01    8.836663e-01
  2.418266e+01    8.796170e-01
  2.419853e+01    8.790113e-01
  2.421441e+01    8.828994e-01
  2.423028e+01    8.895831e-01
  2.424616e+01    8.758718e-01
  2.426203e+01    8.747071e-01
  2.427791e+01    8.773300e-01
  2.429378e+01    8.955631e-01
  2.430966e+01    8.932858e-01
  2.432554e+01    9.002657e-01
  2.434141e+01    8.914853e-01
  2.435729e+01    8.813314e-01
  2.437316e+01    8.904613e-01
  2.438904e+01    8.961607e-01
  2.440491e+01    8.872891e-01
  2.442079e+01    8.981186e-01
  2.443666e+01    8.886103e-01
  2.445254e+01    8.879833e-01
  2.446842e+01    9.087739e-01
  2.448429e+01    9.264556e-01
  2.450017e+01    9.021521e-01
  2.451604e+01    8.692516e-01
  2.453192e+01    8.883355e-01
  2.454779e+01    9.082285e-01
  2.456367e+01    8.973559e-01
  2.457954e+01    8.893764e-01
  2.459542e+01    8.984252e-01
  2.461130e+01    8.963277e-01
  2.462717e+01    9.021205e-01
  2.464305e+01    8.967124e-01
  2.465892e+01    8.937643e-01
  2.467480e+01    8.910251e-01
  2.469067e+01    9.145072e-01
  2.470655e+01    9.225105e-01
  2.472242e+01    8.984596e-01
  2.473830e+01    8.767141e-01
  2.475418e+01    8.724070e-01
  2.477005e+01    8.728142e-01
  2.478593e+01    8.871115e-01
  2.480180e+01    8.798391e-01
  2.481768e+01    8.830696e-01
  2.483355e+01    8.872066e-01
  2.484943e+01    9.050202e-01
  2.486530e+01    8.708521e-01
  2.488118e+01    8.659579e-01
  2.489706e+01    8.685542e-01
  2.491293e+01    8.801161e-01
  2.492881e+01    8.696454e-01
  2.494468e+01    8.804122e-01
  2.496056e+01    8.879008e-01
  2.497643e+01    8.998775e-01
  2.499231e+01    8.966329e-01
  2.500819e+01    8.900573e-01
  2.502406e+01    9.118839e-01
  2.503994e+01    9.098825e-01
  2.505581e+01    8.993841e-01
  2.507169e+01    9.035308e-01
  2.508756e+01    8.974831e-01
  2.510344e+01    9.079041e-01
  2.511931e+01    9.102562e-01
  2.513519e+01    8.916512e-01
  2.515107e+01    8.995299e-01
  2.516694e+01    9.066547e-01
  2.518282e+01    9.016946e-01
  2.519869e+01    9.165795e-01
  2.521457e+01    9.441565e-01
  2.523044e+01    9.370505e-01
  2.524632e+01    9.415777e-01
  2.526219e+01    9.480028e-01
  2.527807e+01    9.526713e-01
  2.529395e+01    9.455171e-01
  2.530982e+01    9.369034e-01
  2.532570e+01    9.533206e-01
  2.534157e+01    9.689231e-01
  2.535745e+01    9.790211e-01
  2.537332e+01    9.798912e-01
  2.538920e+01    9.741957e-01
  2.540507e+01    9.623133e-01
  2.542095e+01    9.918736e-01
  2.543683e+01    1.002381e+00
  2.545270e+01    9.934925e-01
  2.546858e+01    1.028583e+00
  2.548445e+01    1.052067e+00
  2.550033e+01    1.047284e+00
  2.551620e+01    1.074817e+00
  2.553208e+01    1.093162e+00
  2.554795e+01    1.116756e+00
  2.556383e+01    1.119157e+00
  2.557971e+01    1.143850e+00
  2.559558e+01    1.176443e+00
  2.561146e+01    1.203919e+00
  2.562733e+01    1.248472e+00
  2.564321e+01    1.286680e+00
  2.565908e+01    1.354810e+00
  2.567496e+01    1.411367e+00
  2.569083e+01    1.479048e+00
  2.570671e+01    1.602227e+00
  2.572259e+01    1.704094e+00
  2.573846e+01    1.877526e+00
  2.575434e+01    2.033608e+00
  2.577021e+01    2.224077e+00
  2.578609e+01    2.541984e+00
  2.580196e+01    2.839948e+00
  2.581784e+01    3.250868e+00
  2.583371e+01    3.710594e+00
  2.584959e+01    4.187653e+00
  2.586547e+01    4.700631e+00
  2.588134e+01    5.277649e+00
  2.589722e+01    5.835368e+00
  2.591309e+01    6.312646e+00
  2.592897e+01    6.721665e+00
  2.594484e+01    7.053724e+00
  2.596072e+01    7.091088e+00
  2.597660e+01    6.893669e+00
  2.599247e+01    6.457155e+00
  2.600835e+01    5.885549e+00
  2.602422e+01    5.231617e+00
  2.604010e+01    4.557673e+00
  2.605597e+01    3.880805e+00
  2.607185e+01    3.378240e+00
  2.608772e+01    2.981287e+00
  2.610360e+01    2.627468e+00
  2.611948e+01    2.322345e+00
  2.613535e+01    2.096431e+00
  2.615123e+01    1.897465e+00
  2.616710e+01    1.769539e+00
  2.618298e+01    1.661212e+00
  2.619885e+01    1.586005e+00
  2.621473e+01    1.484004e+00
  2.623060e+01    1.395872e+00
  2.624648e+01    1.331407e+00
  2.626236e+01    1.311154e+00
  2.627823e+01    1.277821e+00
  2.629411e+01    1.224131e+00
  2.630998e+01    1.158061e+00
  2.632586e+01    1.128491e+00
  2.634173e+01    1.123616e+00
  2.635761e+01    1.099703e+00
  2.637348e+01    1.089761e+00
  2.638936e+01    1.082932e+00
  2.640524e+01    1.027940e+00
  2.642111e+01    1.025123e+00
  2.643699e+01    1.034032e+00
  2.645286e+01    1.023880e+00
  2.646874e+01    1.019430e+00
  2.648461e+01    1.034928e+00
  2.650049e+01    1.021613e+00
  2.651636e+01    1.010840e+00
  2.653224e+01    9.927237e-01
  2.654812e+01    9.932807e-01
  2.656399e+01    9.966987e-01
  2.657987e+01    9.826192e-01
  2.659574e+01    9.816497e-01
  2.661162e+01    9.844039e-01
  2.662749e+01    9.707902e-01
  2.664337e+01    9.652252e-01
  2.665924e+01    9.728985e-01
  2.667512e+01    9.809316e-01
  2.669100e+01    9.828625e-01
  2.670687e+01    9.803827e-01
  2.672275e+01    9.620202e-01
  2.673862e+01    9.768854e-01
  2.675450e+01    9.861227e-01
  2.677037e+01    9.666575e-01
  2.678625e+01    9.682182e-01
  2.680212e+01    9.672607e-01
  2.681800e+01    9.628643e-01
  2.683388e+01    9.754951e-01
  2.684975e+01    9.779605e-01
  2.686563e+01    9.570631e-01
  2.688150e+01    9.649338e-01
  2.689738e+01    9.799275e-01
  2.691325e+01    1.012171e+00
  2.692913e+01    9.983822e-01
  2.694501e+01    9.969231e-01
  2.696088e+01    1.029968e+00
  2.697676e+01    1.049082e+00
  2.699263e+01    1.085128e+00
  2.700851e+01    1.132887e+00
  2.702438e+01    1.162462e+00
  2.704026e+01    1.200542e+00
  2.705613e+01    1.251443e+00
  2.707201e+01    1.325563e+00
  2.708789e+01    1.405877e+00
  2.710376e+01    1.512284e+00
  2.711964e+01    1.637844e+00
  2.713551e+01    1.758301e+00
  2.715139e+01    1.845197e+00
  2.716726e+01    1.991054e+00
  2.718314e+01    2.056354e+00
  2.719901e+01    2.141209e+00
  2.721489e+01    2.151112e+00
  2.723077e+01    2.138680e+00
  2.724664e+01    2.031472e+00
  2.726252e+01    1.929618e+00
  2.727839e+01    1.819477e+00
  2.729427e+01    1.691188e+00
  2.731014e+01    1.544242e+00
  2.732602e+01    1.427355e+00
  2.734189e+01    1.369195e+00
  2.735777e+01    1.300484e+00
  2.737365e+01    1.234011e+00
  2.738952e+01    1.148854e+00
  2.740540e+01    1.125849e+00
  2.742127e+01    1.072646e+00
  2.743715e+01    1.047586e+00
  2.745302e+01    1.009896e+00
  2.746890e+01    1.000745e+00
  2.748477e+01    1.012821e+00
  2.750065e+01    9.710692e-01
  2.751653e+01    9.477913e-01
  2.753240e+01    9.444811e-01
  2.754828e+01    9.381775e-01
  2.756415e+01    9.340697e-01
  2.758003e+01    9.312229e-01
  2.759590e+01    9.283643e-01
  2.761178e+01    9.279892e-01
  2.762765e+01    9.106563e-01
  2.764353e+01    9.245043e-01
  2.765941e+01    9.052677e-01
  2.767528e+01    8.967683e-01
  2.769116e+01    8.873735e-01
  2.770703e+01    9.046509e-01
  2.772291e+01    9.192200e-01
  2.773878e+01    8.888100e-01
  2.775466e+01    8.725628e-01
  2.777054e+01    9.118418e-01
  2.778641e+01    9.042761e-01
  2.780229e+01    8.866093e-01
  2.781816e+01    8.692644e-01
  2.783404e+01    9.063934e-01
  2.784991e+01    8.723823e-01
  2.786579e+01    8.738838e-01
  2.788166e+01    8.895962e-01
  2.789754e+01    8.671114e-01
  2.791342e+01    8.657952e-01
  2.792929e+01    8.519121e-01
  2.794517e+01    8.457239e-01
  2.796104e+01    8.590761e-01
  2.797692e+01    8.892381e-01
  2.799279e+01    9.078086e-01
  2.800867e+01    8.956020e-01
  2.802454e+01    8.811949e-01
  2.804042e+01    8.579843e-01
  2.805630e+01    8.528478e-01
  2.807217e+01    8.731095e-01
  2.808805e+01    8.645890e-01
  2.810392e+01    8.341078e-01
  2.811980e+01    8.374370e-01
  2.813567e+01    8.532997e-01
  2.815155e+01    8.584746e-01
  2.816742e+01    8.490244e-01
  2.818330e+01    8.586083e-01
  2.819918e+01    8.592135e-01
  2.821505e+01    8.540849e-01
  2.823093e+01    8.383766e-01
  2.824680e+01    8.475309e-01
  2.826268e+01    8.667035e-01
  2.827855e+01    8.617460e-01
  2.829443e+01    8.506629e-01
  2.831030e+01    8.578826e-01
  2.832618e+01    8.239338e-01
  2.834206e+01    8.343115e-01
  2.835793e+01    8.558540e-01
  2.837381e+01    8.383402e-01
  2.838968e+01    8.325416e-01
  2.840556e+01    8.346999e-01
  2.842143e+01    8.315669e-01
  2.843731e+01    8.209030e-01
  2.845318e+01    8.375781e-01
  2.846906e+01    8.347965e-01
  2.848494e+01    8.210300e-01
  2.850081e+01    8.298016e-01
  2.851669e+01    8.333840e-01
  2.853256e+01    8.415341e-01
  2.854844e+01    8.266823e-01
  2.856431e+01    8.444341e-01
  2.858019e+01    8.235769e-01
  2.859606e+01    8.270386e-01
  2.861194e+01    8.282012e-01
  2.862782e+01    8.409458e-01
  2.864369e+01    8.446788e-01
  2.865957e+01    8.248862e-01
  2.867544e+01    8.279484e-01
  2.869132e+01    8.151715e-01
  2.870719e+01    8.163921e-01
  2.872307e+01    8.246459e-01
  2.873895e+01    8.205123e-01
  2.875482e+01    8.199882e-01
  2.877070e+01    8.250926e-01
  2.878657e+01    8.333548e-01
  2.880245e+01    8.248909e-01
  2.881832e+01    8.093663e-01
  2.883420e+01    8.184413e-01
  2.885007e+01    8.168702e-01
  2.886595e+01    8.382159e-01
  2.888183e+01    8.206527e-01
  2.889770e+01    8.132460e-01
  2.891358e+01    7.976049e-01
  2.892945e+01    8.188583e-01
  2.894533e+01    8.142104e-01
  2.896120e+01    8.251436e-01
  2.897708e+01    8.263364e-01
  2.899295e+01    8.015540e-01
  2.900883e+01    8.219444e-01
  2.902471e+01    8.223464e-01
  2.904058e+01    8.225431e-01
  2.905646e+01    8.166851e-01
  2.907233e+01    8.099618e-01
  2.908821e+01    8.164950e-01
  2.910408e+01    7.955363e-01
  2.911996e+01    7.954478e-01
  2.913583e+01    8.153892e-01
  2.915171e+01    8.025187e-01
  2.916759e+01    8.099726e-01
  2.918346e+01    8.224241e-01
  2.919934e+01    7.883352e-01
  2.921521e+01    8.173468e-01
  2.923109e+01    8.235705e-01
  2.924696e+01    8.143368e-01
  2.926284e+01    8.026865e-01
  2.927871e+01    8.087386e-01
  2.929459e+01    7.944150e-01
  2.931047e+01    7.955227e-01
  2.932634e+01    7.876983e-01
  2.934222e+01    8.091297e-01
  2.935809e+01    8.026433e-01
  2.937397e+01    8.061485e-01
  2.938984e+01    8.064593e-01
  2.940572e+01    8.126939e-01
  2.942159e+01    8.173108e-01
  2.943747e+01    8.065436e-01
  2.945335e+01    7.947070e-01
  2.946922e+01    8.125049e-01
  2.948510e+01    8.000478e-01
  2.950097e+01    8.066617e-01
  2.951685e+01    8.109931e-01
  2.953272e+01    8.260619e-01
  2.954860e+01    8.121265e-01
  2.956447e+01    7.948914e-01
  2.958035e+01    8.180389e-01
  2.959623e+01    8.132735e-01
  2.961210e+01    8.070571e-01
  2.962798e+01    8.187875e-01
  2.964385e+01    7.977671e-01
  2.965973e+01    8.012974e-01
  2.967560e+01    8.128356e-01
  2.969148e+01    8.105272e-01
  2.970736e+01    7.963064e-01
  2.972323e+01    8.026587e-01
  2.973911e+01    8.067564e-01
  2.975498e+01    8.030152e-01
  2.977086e+01    7.902334e-01
  2.978673e+01    8.071188e-01
  2.980261e+01    8.064128e-01
  2.981848e+01    7.930942e-01
  2.983436e+01    7.940900e-01
  2.985024e+01    8.052393e-01
  2.986611e+01    8.219166e-01
  2.988199e+01    7.934307e-01
  2.989786e+01    8.005666e-01
  2.991374e+01    8.097749e-01
  2.992961e+01    7.870209e-01
  2.994549e+01    8.074743e-01
  2.996136e+01    8.068585e-01
  2.997724e+01    8.191401e-01
  2.999312e+01    8.121300e-01
  3.000899e+01    8.155528e-01
  3.002487e+01    8.268018e-01
  3.004074e+01    8.320779e-01
  3.005662e+01    8.132370e-01
  3.007249e+01    8.091555e-01
  3.008837e+01    8.142753e-01
  3.010424e+01    8.053324e-01
  3.012012e+01    7.922864e-01
  3.013600e+01    7.886376e-01
  3.015187e+01    7.923777e-01
  3.016775e+01    7.833494e-01
  3.018362e+01    7.689325e-01
  3.019950e+01    7.709000e-01
  3.021537e+01    7.780759e-01
  3.023125e+01    7.768487e-01
  3.024712e+01    7.845032e-01
  3.026300e+01    7.703441e-01
  3.027888e+01    7.815829e-01
  3.029475e+01    7.947872e-01
  3.031063e+01    7.809640e-01
  3.032650e+01    7.809921e-01
  3.034238e+01    7.797837e-01
  3.035825e+01    7.604706e-01
  3.037413e+01    7.784139e-01
  3.039000e+01    7.568648e-01
  3.040588e+01    7.704279e-01
  3.042176e+01    7.956622e-01
  3.043763e+01    7.952310e-01
  3.045351e+01    8.132336e-01
  3.046938e+01    7.721466e-01
  3.048526e+01    7.857062e-01
  3.050113e+01    7.831854e-01
  3.051701e+01    7.913091e-01
  3.053288e+01    7.954753e-01
  3.054876e+01    7.760597e-01
  3.056464e+01    7.877439e-01
  3.058051e+01    8.033643e-01
  3.059639e+01    8.085188e-01
  3.061226e+01    8.019090e-01
  3.062814e+01    7.897064e-01
  3.064401e+01    7.741489e-01
  3.065989e+01    7.743298e-01
  3.067577e+01    7.948210e-01
  3.069164e+01    7.917489e-01
  3.070752e+01    7.743345e-01
  3.072339e+01    7.861984e-01
  3.073927e+01    7.818885e-01
  3.075514e+01    7.779559e-01
  3.077102e+01    7.931892e-01
  3.078689e+01    7.789829e-01
  3.080277e+01    7.895308e-01
  3.081865e+01    7.945830e-01
  3.083452e+01    7.810597e-01
  3.085040e+01    7.769917e-01
  3.086627e+01    7.927908e-01
  3.088215e+01    8.074756e-01
  3.089802e+01    7.789361e-01
  3.091390e+01    7.837638e-01
  3.092977e+01    7.672048e-01
  3.094565e+01    8.037108e-01
  3.096153e+01    8.002551e-01
  3.097740e+01    7.925328e-01
  3.099328e+01    7.806850e-01
  3.100915e+01    7.767391e-01
  3.102503e+01    7.756578e-01
  3.104090e+01    7.749549e-01
  3.105678e+01    7.633365e-01
  3.107265e+01    7.902055e-01
  3.108853e+01    7.939741e-01
  3.110441e+01    7.862102e-01
  3.112028e+01    7.893249e-01
  3.113616e+01    7.847049e-01
  3.115203e+01    7.869401e-01
  3.116791e+01    8.000942e-01
  3.118378e+01    7.670411e-01
  3.119966e+01    7.719069e-01
  3.121553e+01    7.993656e-01
  3.123141e+01    7.640859e-01
  3.124729e+01    7.706475e-01
  3.126316e+01    7.899216e-01
  3.127904e+01    7.622408e-01
  3.129491e+01    7.742467e-01
  3.131079e+01    8.010216e-01
  3.132666e+01    7.824890e-01
  3.134254e+01    7.794557e-01
  3.135841e+01    7.911023e-01
  3.137429e+01    8.093467e-01
  3.139017e+01    8.156269e-01
  3.140604e+01    8.162911e-01
  3.142192e+01    8.214946e-01
  3.143779e+01    8.192660e-01
  3.145367e+01    8.171316e-01
  3.146954e+01    8.280900e-01
  3.148542e+01    8.131937e-01
  3.150129e+01    8.163692e-01
  3.151717e+01    8.083577e-01
  3.153305e+01    8.377632e-01
  3.154892e+01    8.429891e-01
  3.156480e+01    8.484967e-01
  3.158067e+01    8.625476e-01
  3.159655e+01    8.760617e-01
  3.161242e+01    9.051356e-01
  3.162830e+01    9.036842e-01
  3.164418e+01    8.964154e-01
  3.166005e+01    9.236695e-01
  3.167593e+01    9.481861e-01
  3.169180e+01    9.871189e-01
  3.170768e+01    1.019277e+00
  3.172355e+01    1.049873e+00
  3.173943e+01    1.118609e+00
  3.175530e+01    1.203713e+00
  3.177118e+01    1.256930e+00
  3.178706e+01    1.336871e+00
  3.180293e+01    1.446177e+00
  3.181881e+01    1.563637e+00
  3.183468e+01    1.694060e+00
  3.185056e+01    1.833262e+00
  3.186643e+01    1.944784e+00
  3.188231e+01    2.047636e+00
  3.189818e+01    2.091432e+00
  3.191406e+01    2.043309e+00
  3.192994e+01    1.999679e+00
  3.194581e+01    1.913045e+00
  3.196169e+01    1.810504e+00
  3.197756e+01    1.657182e+00
  3.199344e+01    1.555007e+00
  3.200931e+01    1.430227e+00
  3.202519e+01    1.313392e+00
  3.204106e+01    1.214718e+00
  3.205694e+01    1.122323e+00
  3.207282e+01    1.060693e+00
  3.208869e+01    1.036695e+00
  3.210457e+01    1.008862e+00
  3.212044e+01    9.675556e-01
  3.213632e+01    9.297934e-01
  3.215219e+01    9.009976e-01
  3.216807e+01    8.821789e-01
  3.218394e+01    8.687646e-01
  3.219982e+01    8.574932e-01
  3.221570e+01    8.573902e-01
  3.223157e+01    8.325769e-01
  3.224745e+01    8.530709e-01
  3.226332e+01    8.159119e-01
  3.227920e+01    8.076583e-01
  3.229507e+01    8.098069e-01
  3.231095e+01    8.171592e-01
  3.232682e+01    8.060746e-01
  3.234270e+01    7.924108e-01
  3.235858e+01    8.064423e-01
  3.237445e+01    8.048227e-01
  3.239033e+01    7.955444e-01
  3.240620e+01    7.850536e-01
  3.242208e+01    7.742952e-01
  3.243795e+01    7.933423e-01
  3.245383e+01    7.848987e-01
  3.246970e+01    7.726362e-01
  3.248558e+01    7.706504e-01
  3.250146e+01    7.770069e-01
  3.251733e+01    7.815631e-01
  3.253321e+01    7.823291e-01
  3.254908e+01    7.929878e-01
