# == pyFAI calibration ==
# Distance Sample to Detector: 0.3999999939076516 m
# PONI: 9.750e-02, 1.135e-01 m
# Rotations: -0.000175 0.000000 -0.000000 rad
# 
# == Fit2d calibration ==
# Distance Sample-beamCenter: 400.000 mm
# Center: x=1514.000, y=1300.000 pix
# Tilt: 0.010 deg  TiltPlanRot: 0.010 deg
# 
# Detector Detector	 Spline= None	 PixelSize= 7.500e-05, 7.500e-05 m
#    Detector has a mask: False 
#    Detector has a dark current: False 
#    detector has a flat field: False 
# 
# Wavelength: 6.888e-11 m
# Mask applied: user provided
# Dark current applied: False
# Flat field applied: False
# Polarization factor: 0.99
# Normalization factor: 1.0
# --> /home/myspot/data/2024_07_Rosario/Ru-CGO-ex/2024-07-27_003_Ru-CGO-ex_Reaction_dwell_000023_data_000164.dat
#       q_nm^-1             I 
  2.003187e-02    0.000000e+00
  3.590745e-02    3.427850e-02
  5.178302e-02    9.528971e-02
  6.765859e-02    1.562948e-01
  8.353417e-02    1.142844e-01
  9.940974e-02    6.149941e-02
  1.152853e-01    1.884068e-03
  1.311609e-01    6.316211e-03
  1.470365e-01    3.294164e-02
  1.629120e-01    1.917347e-02
  1.787876e-01    1.675779e-02
  1.946632e-01    5.490572e-02
  2.105388e-01    4.737525e-02
  2.264143e-01    2.923414e-02
  2.422899e-01    1.602768e-02
  2.581655e-01    2.244466e-02
  2.740411e-01    9.504609e-03
  2.899166e-01    4.444342e-02
  3.057922e-01    6.056210e-02
  3.216678e-01    6.992250e-02
  3.375433e-01    5.154568e-02
  3.534189e-01    3.781333e-02
  3.692945e-01    4.609609e-02
  3.851701e-01    3.169043e-02
  4.010456e-01    4.621825e-02
  4.169212e-01    3.457097e-02
  4.327968e-01    3.230758e-02
  4.486724e-01    4.240042e-02
  4.645479e-01    4.754588e-02
  4.804235e-01    4.138155e-02
  4.962991e-01    4.585131e-02
  5.121747e-01    3.333101e-02
  5.280502e-01    4.216691e-02
  5.439258e-01    4.109224e-02
  5.598014e-01    6.856286e-02
  5.756770e-01    5.955683e-02
  5.915525e-01    5.841887e-02
  6.074281e-01    5.225670e-02
  6.233037e-01    3.752186e-02
  6.391793e-01    4.059473e-02
  6.550548e-01    3.555336e-02
  6.709304e-01    3.037999e-02
  6.868060e-01    4.187425e-02
  7.026815e-01    3.817998e-02
  7.185571e-01    2.023395e-02
  7.344327e-01    2.995474e-02
  7.503083e-01    6.266837e-02
  7.661838e-01    1.004195e-01
  7.820594e-01    1.051874e-01
  7.979350e-01    1.463679e-01
  8.138106e-01    1.879130e-01
  8.296861e-01    2.165053e-01
  8.455617e-01    3.386927e-01
  8.614373e-01    4.343955e-01
  8.773129e-01    4.957314e-01
  8.931884e-01    6.128730e-01
  9.090640e-01    6.700689e-01
  9.249396e-01    7.157543e-01
  9.408152e-01    8.483260e-01
  9.566907e-01    9.509554e-01
  9.725663e-01    1.058391e+00
  9.884419e-01    1.106670e+00
  1.004317e+00    1.169839e+00
  1.020193e+00    1.358245e+00
  1.036069e+00    1.362164e+00
  1.051944e+00    1.299497e+00
  1.067820e+00    1.516584e+00
  1.083695e+00    1.607168e+00
  1.099571e+00    1.639357e+00
  1.115446e+00    1.578901e+00
  1.131322e+00    1.587808e+00
  1.147198e+00    1.602661e+00
  1.163073e+00    1.713436e+00
  1.178949e+00    1.738269e+00
  1.194824e+00    1.859751e+00
  1.210700e+00    2.090907e+00
  1.226575e+00    2.211074e+00
  1.242451e+00    2.231816e+00
  1.258327e+00    2.381230e+00
  1.274202e+00    2.555624e+00
  1.290078e+00    2.729971e+00
  1.305953e+00    2.798526e+00
  1.321829e+00    2.722209e+00
  1.337705e+00    2.615515e+00
  1.353580e+00    2.637742e+00
  1.369456e+00    2.807381e+00
  1.385331e+00    2.790760e+00
  1.401207e+00    2.780358e+00
  1.417082e+00    2.877281e+00
  1.432958e+00    2.954620e+00
  1.448834e+00    3.064417e+00
  1.464709e+00    3.023803e+00
  1.480585e+00    3.073340e+00
  1.496460e+00    3.205773e+00
  1.512336e+00    3.070783e+00
  1.528211e+00    3.174067e+00
  1.544087e+00    3.160093e+00
  1.559963e+00    3.140121e+00
  1.575838e+00    3.121938e+00
  1.591714e+00    3.077483e+00
  1.607589e+00    3.112035e+00
  1.623465e+00    3.024176e+00
  1.639340e+00    2.970270e+00
  1.655216e+00    3.049052e+00
  1.671092e+00    2.996517e+00
  1.686967e+00    3.083503e+00
  1.702843e+00    3.110087e+00
  1.718718e+00    3.140135e+00
  1.734594e+00    3.038679e+00
  1.750469e+00    2.974578e+00
  1.766345e+00    2.945541e+00
  1.782221e+00    3.181094e+00
  1.798096e+00    3.126884e+00
  1.813972e+00    2.939819e+00
  1.829847e+00    3.012403e+00
  1.845723e+00    3.063103e+00
  1.861598e+00    3.093032e+00
  1.877474e+00    3.124146e+00
  1.893350e+00    3.077794e+00
  1.909225e+00    3.040065e+00
  1.925101e+00    2.976278e+00
  1.940976e+00    3.186852e+00
  1.956852e+00    3.074558e+00
  1.972727e+00    3.178800e+00
  1.988603e+00    3.119749e+00
  2.004479e+00    2.964016e+00
  2.020354e+00    3.044945e+00
  2.036230e+00    3.140160e+00
  2.052105e+00    3.041015e+00
  2.067981e+00    3.072334e+00
  2.083856e+00    3.022072e+00
  2.099732e+00    3.030886e+00
  2.115608e+00    3.094299e+00
  2.131483e+00    3.040513e+00
  2.147359e+00    2.986840e+00
  2.163234e+00    3.061231e+00
  2.179110e+00    3.061564e+00
  2.194985e+00    3.062820e+00
  2.210861e+00    3.114953e+00
  2.226737e+00    3.144340e+00
  2.242612e+00    3.105572e+00
  2.258488e+00    3.187688e+00
  2.274363e+00    3.218234e+00
  2.290239e+00    3.215954e+00
  2.306115e+00    3.225505e+00
  2.321990e+00    3.157991e+00
  2.337866e+00    3.167125e+00
  2.353741e+00    3.179934e+00
  2.369617e+00    3.120537e+00
  2.385492e+00    3.054799e+00
  2.401368e+00    3.097399e+00
  2.417244e+00    3.192826e+00
  2.433119e+00    3.186130e+00
  2.448995e+00    3.181546e+00
  2.464870e+00    3.265957e+00
  2.480746e+00    3.254912e+00
  2.496621e+00    3.235546e+00
  2.512497e+00    3.163630e+00
  2.528373e+00    3.174789e+00
  2.544248e+00    3.256745e+00
  2.560124e+00    3.098671e+00
  2.575999e+00    3.216848e+00
  2.591875e+00    3.154410e+00
  2.607750e+00    3.213765e+00
  2.623626e+00    3.202331e+00
  2.639502e+00    3.231635e+00
  2.655377e+00    3.281132e+00
  2.671253e+00    3.237019e+00
  2.687128e+00    3.212434e+00
  2.703004e+00    3.153211e+00
  2.718879e+00    3.070104e+00
  2.734755e+00    3.261936e+00
  2.750631e+00    3.338525e+00
  2.766506e+00    3.279361e+00
  2.782382e+00    3.246808e+00
  2.798257e+00    3.192205e+00
  2.814133e+00    3.202016e+00
  2.830008e+00    3.173621e+00
  2.845884e+00    3.223711e+00
  2.861760e+00    3.217020e+00
  2.877635e+00    3.245731e+00
  2.893511e+00    3.235656e+00
  2.909386e+00    3.205830e+00
  2.925262e+00    3.314124e+00
  2.941137e+00    3.367297e+00
  2.957013e+00    3.376500e+00
  2.972889e+00    3.393965e+00
  2.988764e+00    3.340596e+00
  3.004640e+00    3.311130e+00
  3.020515e+00    3.355064e+00
  3.036391e+00    3.313085e+00
  3.052266e+00    3.413359e+00
  3.068142e+00    3.321891e+00
  3.084018e+00    3.283858e+00
  3.099893e+00    3.302552e+00
  3.115769e+00    3.410456e+00
  3.131644e+00    3.416902e+00
  3.147520e+00    3.229991e+00
  3.163395e+00    3.223669e+00
  3.179271e+00    3.266750e+00
  3.195147e+00    3.353567e+00
  3.211022e+00    3.418712e+00
  3.226898e+00    3.377858e+00
  3.242773e+00    3.236130e+00
  3.258649e+00    3.406052e+00
  3.274525e+00    3.378699e+00
  3.290400e+00    3.397567e+00
  3.306276e+00    3.286620e+00
  3.322151e+00    3.266919e+00
  3.338027e+00    3.358241e+00
  3.353902e+00    3.323430e+00
  3.369778e+00    3.353630e+00
  3.385654e+00    3.405766e+00
  3.401529e+00    3.326921e+00
  3.417405e+00    3.302491e+00
  3.433280e+00    3.360037e+00
  3.449156e+00    3.432716e+00
  3.465031e+00    3.475498e+00
  3.480907e+00    3.441212e+00
  3.496783e+00    3.401853e+00
  3.512658e+00    3.464214e+00
  3.528534e+00    3.541055e+00
  3.544409e+00    3.498803e+00
  3.560285e+00    3.374648e+00
  3.576160e+00    3.367862e+00
  3.592036e+00    3.432247e+00
  3.607912e+00    3.383497e+00
  3.623787e+00    3.379171e+00
  3.639663e+00    3.479163e+00
  3.655538e+00    3.478450e+00
  3.671414e+00    3.420528e+00
  3.687289e+00    3.439281e+00
  3.703165e+00    3.465329e+00
  3.719041e+00    3.514459e+00
  3.734916e+00    3.492859e+00
  3.750792e+00    3.450702e+00
  3.766667e+00    3.504832e+00
  3.782543e+00    3.408262e+00
  3.798418e+00    3.403505e+00
  3.814294e+00    3.499903e+00
  3.830170e+00    3.497633e+00
  3.846045e+00    3.421924e+00
  3.861921e+00    3.430593e+00
  3.877796e+00    3.485234e+00
  3.893672e+00    3.522218e+00
  3.909547e+00    3.562060e+00
  3.925423e+00    3.519767e+00
  3.941299e+00    3.449037e+00
  3.957174e+00    3.372247e+00
  3.973050e+00    3.341794e+00
  3.988925e+00    3.440510e+00
  4.004801e+00    3.425929e+00
  4.020676e+00    3.396529e+00
  4.036552e+00    3.506119e+00
  4.052428e+00    3.498341e+00
  4.068303e+00    3.411065e+00
  4.084179e+00    3.531022e+00
  4.100054e+00    3.565583e+00
  4.115930e+00    3.547036e+00
  4.131806e+00    3.503707e+00
  4.147681e+00    3.514602e+00
  4.163557e+00    3.511587e+00
  4.179432e+00    3.490444e+00
  4.195308e+00    3.480681e+00
  4.211183e+00    3.504203e+00
  4.227059e+00    3.543842e+00
  4.242935e+00    3.615184e+00
  4.258810e+00    3.640948e+00
  4.274686e+00    3.593900e+00
  4.290561e+00    3.562714e+00
  4.306437e+00    3.536995e+00
  4.322312e+00    3.537643e+00
  4.338188e+00    3.424514e+00
  4.354064e+00    3.512080e+00
  4.369939e+00    3.630017e+00
  4.385815e+00    3.593209e+00
  4.401690e+00    3.586535e+00
  4.417566e+00    3.442551e+00
  4.433441e+00    3.501953e+00
  4.449317e+00    3.605111e+00
  4.465193e+00    3.605727e+00
  4.481068e+00    3.504912e+00
  4.496944e+00    3.532645e+00
  4.512819e+00    3.639043e+00
  4.528695e+00    3.589115e+00
  4.544570e+00    3.610907e+00
  4.560446e+00    3.583642e+00
  4.576322e+00    3.587087e+00
  4.592197e+00    3.563368e+00
  4.608073e+00    3.546317e+00
  4.623948e+00    3.550074e+00
  4.639824e+00    3.515368e+00
  4.655699e+00    3.541156e+00
  4.671575e+00    3.518171e+00
  4.687451e+00    3.514259e+00
  4.703326e+00    3.595068e+00
  4.719202e+00    3.619265e+00
  4.735077e+00    3.602669e+00
  4.750953e+00    3.597515e+00
  4.766828e+00    3.641833e+00
  4.782704e+00    3.608005e+00
  4.798580e+00    3.603000e+00
  4.814455e+00    3.620974e+00
  4.830331e+00    3.683627e+00
  4.846206e+00    3.683243e+00
  4.862082e+00    3.657440e+00
  4.877957e+00    3.633759e+00
  4.893833e+00    3.580280e+00
  4.909709e+00    3.637623e+00
  4.925584e+00    3.599894e+00
  4.941460e+00    3.598915e+00
  4.957335e+00    3.565214e+00
  4.973211e+00    3.598868e+00
  4.989086e+00    3.624182e+00
  5.004962e+00    3.599385e+00
  5.020838e+00    3.594670e+00
  5.036713e+00    3.597754e+00
  5.052589e+00    3.611726e+00
  5.068464e+00    3.679418e+00
  5.084340e+00    3.617755e+00
  5.100216e+00    3.647362e+00
  5.116091e+00    3.652608e+00
  5.131967e+00    3.688513e+00
  5.147842e+00    3.599720e+00
  5.163718e+00    3.570857e+00
  5.179593e+00    3.581312e+00
  5.195469e+00    3.626477e+00
  5.211345e+00    3.638170e+00
  5.227220e+00    3.570437e+00
  5.243096e+00    3.649778e+00
  5.258971e+00    3.679432e+00
  5.274847e+00    3.627322e+00
  5.290722e+00    3.604342e+00
  5.306598e+00    3.664281e+00
  5.322474e+00    3.660535e+00
  5.338349e+00    3.558499e+00
  5.354225e+00    3.549619e+00
  5.370100e+00    3.663206e+00
  5.385976e+00    3.659544e+00
  5.401851e+00    3.592933e+00
  5.417727e+00    3.695261e+00
  5.433603e+00    3.699975e+00
  5.449478e+00    3.582985e+00
  5.465354e+00    3.576711e+00
  5.481229e+00    3.534648e+00
  5.497105e+00    3.546344e+00
  5.512980e+00    3.538504e+00
  5.528856e+00    3.543055e+00
  5.544732e+00    3.601615e+00
  5.560607e+00    3.638371e+00
  5.576483e+00    3.629108e+00
  5.592358e+00    3.579897e+00
  5.608234e+00    3.591896e+00
  5.624109e+00    3.646029e+00
  5.639985e+00    3.617744e+00
  5.655861e+00    3.634442e+00
  5.671736e+00    3.511724e+00
  5.687612e+00    3.501951e+00
  5.703487e+00    3.550618e+00
  5.719363e+00    3.527376e+00
  5.735238e+00    3.595077e+00
  5.751114e+00    3.612964e+00
  5.766990e+00    3.510917e+00
  5.782865e+00    3.495307e+00
  5.798741e+00    3.559093e+00
  5.814616e+00    3.558569e+00
  5.830492e+00    3.529409e+00
  5.846367e+00    3.561717e+00
  5.862243e+00    3.518401e+00
  5.878119e+00    3.531717e+00
  5.893994e+00    3.508825e+00
  5.909870e+00    3.465727e+00
  5.925745e+00    3.488283e+00
  5.941621e+00    3.504850e+00
  5.957497e+00    3.480304e+00
  5.973372e+00    3.414650e+00
  5.989248e+00    3.375574e+00
  6.005123e+00    3.497280e+00
  6.020999e+00    3.512681e+00
  6.036874e+00    3.500280e+00
  6.052750e+00    3.505970e+00
  6.068626e+00    3.608256e+00
  6.084501e+00    3.614245e+00
  6.100377e+00    3.547132e+00
  6.116252e+00    3.528077e+00
  6.132128e+00    3.527182e+00
  6.148003e+00    3.532099e+00
  6.163879e+00    3.497079e+00
  6.179755e+00    3.494281e+00
  6.195630e+00    3.519163e+00
  6.211506e+00    3.507717e+00
  6.227381e+00    3.581353e+00
  6.243257e+00    3.559988e+00
  6.259132e+00    3.553611e+00
  6.275008e+00    3.505585e+00
  6.290884e+00    3.511263e+00
  6.306759e+00    3.516680e+00
  6.322635e+00    3.478804e+00
  6.338510e+00    3.477694e+00
  6.354386e+00    3.553378e+00
  6.370261e+00    3.576527e+00
  6.386137e+00    3.479895e+00
  6.402013e+00    3.455049e+00
  6.417888e+00    3.527246e+00
  6.433764e+00    3.531595e+00
  6.449639e+00    3.443570e+00
  6.465515e+00    3.463685e+00
  6.481390e+00    3.440838e+00
  6.497266e+00    3.497510e+00
  6.513142e+00    3.554446e+00
  6.529017e+00    3.458268e+00
  6.544893e+00    3.477904e+00
  6.560768e+00    3.520331e+00
  6.576644e+00    3.462863e+00
  6.592519e+00    3.530321e+00
  6.608395e+00    3.496676e+00
  6.624271e+00    3.511098e+00
  6.640146e+00    3.550367e+00
  6.656022e+00    3.523163e+00
  6.671897e+00    3.499716e+00
  6.687773e+00    3.523276e+00
  6.703648e+00    3.505044e+00
  6.719524e+00    3.476932e+00
  6.735400e+00    3.554463e+00
  6.751275e+00    3.604767e+00
  6.767151e+00    3.549618e+00
  6.783026e+00    3.606193e+00
  6.798902e+00    3.603917e+00
  6.814777e+00    3.497379e+00
  6.830653e+00    3.495489e+00
  6.846529e+00    3.443352e+00
  6.862404e+00    3.470569e+00
  6.878280e+00    3.483437e+00
  6.894155e+00    3.479390e+00
  6.910031e+00    3.457937e+00
  6.925907e+00    3.487451e+00
  6.941782e+00    3.523688e+00
  6.957658e+00    3.535250e+00
  6.973533e+00    3.488624e+00
  6.989409e+00    3.470912e+00
  7.005284e+00    3.440516e+00
  7.021160e+00    3.510161e+00
  7.037036e+00    3.528319e+00
  7.052911e+00    3.495363e+00
  7.068787e+00    3.479105e+00
  7.084662e+00    3.434722e+00
  7.100538e+00    3.410225e+00
  7.116413e+00    3.509660e+00
  7.132289e+00    3.533334e+00
  7.148165e+00    3.533751e+00
  7.164040e+00    3.570373e+00
  7.179916e+00    3.559464e+00
  7.195791e+00    3.498455e+00
  7.211667e+00    3.471857e+00
  7.227542e+00    3.482932e+00
  7.243418e+00    3.473070e+00
  7.259294e+00    3.415186e+00
  7.275169e+00    3.481110e+00
  7.291045e+00    3.522629e+00
  7.306920e+00    3.511615e+00
  7.322796e+00    3.565981e+00
  7.338671e+00    3.509965e+00
  7.354547e+00    3.473610e+00
  7.370423e+00    3.438304e+00
  7.386298e+00    3.426085e+00
  7.402174e+00    3.490170e+00
  7.418049e+00    3.486171e+00
  7.433925e+00    3.506341e+00
  7.449800e+00    3.536813e+00
  7.465676e+00    3.448425e+00
  7.481552e+00    3.455578e+00
  7.497427e+00    3.461803e+00
  7.513303e+00    3.478560e+00
  7.529178e+00    3.476721e+00
  7.545054e+00    3.462755e+00
  7.560929e+00    3.478671e+00
  7.576805e+00    3.492736e+00
  7.592681e+00    3.454344e+00
  7.608556e+00    3.472476e+00
  7.624432e+00    3.449307e+00
  7.640307e+00    3.418696e+00
  7.656183e+00    3.397066e+00
  7.672058e+00    3.407328e+00
  7.687934e+00    3.377422e+00
  7.703810e+00    3.395050e+00
  7.719685e+00    3.391304e+00
  7.735561e+00    3.398882e+00
  7.751436e+00    3.429278e+00
  7.767312e+00    3.436372e+00
  7.783187e+00    3.426215e+00
  7.799063e+00    3.418288e+00
  7.814939e+00    3.427557e+00
  7.830814e+00    3.414843e+00
  7.846690e+00    3.440660e+00
  7.862565e+00    3.473711e+00
  7.878441e+00    3.439033e+00
  7.894317e+00    3.456885e+00
  7.910192e+00    3.380536e+00
  7.926068e+00    3.369266e+00
  7.941943e+00    3.396710e+00
  7.957819e+00    3.438648e+00
  7.973694e+00    3.398674e+00
  7.989570e+00    3.320156e+00
  8.005446e+00    3.414639e+00
  8.021321e+00    3.431331e+00
  8.037197e+00    3.406661e+00
  8.053072e+00    3.403668e+00
  8.068948e+00    3.395670e+00
  8.084823e+00    3.357421e+00
  8.100699e+00    3.424183e+00
  8.116575e+00    3.428674e+00
  8.132450e+00    3.442248e+00
  8.148326e+00    3.478716e+00
  8.164201e+00    3.448543e+00
  8.180077e+00    3.458827e+00
  8.195952e+00    3.396020e+00
  8.211828e+00    3.403782e+00
  8.227704e+00    3.463710e+00
  8.243579e+00    3.420876e+00
  8.259455e+00    3.400913e+00
  8.275330e+00    3.386931e+00
  8.291206e+00    3.411781e+00
  8.307081e+00    3.437883e+00
  8.322957e+00    3.402760e+00
  8.338833e+00    3.401287e+00
  8.354708e+00    3.409651e+00
  8.370584e+00    3.377404e+00
  8.386459e+00    3.391585e+00
  8.402335e+00    3.376189e+00
  8.418210e+00    3.338882e+00
  8.434086e+00    3.374961e+00
  8.449962e+00    3.315003e+00
  8.465837e+00    3.286731e+00
  8.481713e+00    3.328645e+00
  8.497588e+00    3.370144e+00
  8.513464e+00    3.333035e+00
  8.529339e+00    3.311377e+00
  8.545215e+00    3.290816e+00
  8.561091e+00    3.366910e+00
  8.576966e+00    3.346937e+00
  8.592842e+00    3.338373e+00
  8.608717e+00    3.280347e+00
  8.624593e+00    3.250237e+00
  8.640468e+00    3.309836e+00
  8.656344e+00    3.292460e+00
  8.672220e+00    3.273271e+00
  8.688095e+00    3.332557e+00
  8.703971e+00    3.343391e+00
  8.719846e+00    3.235304e+00
  8.735722e+00    3.277800e+00
  8.751598e+00    3.270347e+00
  8.767473e+00    3.331453e+00
  8.783349e+00    3.361340e+00
  8.799224e+00    3.322792e+00
  8.815100e+00    3.289022e+00
  8.830975e+00    3.313545e+00
  8.846851e+00    3.326905e+00
  8.862727e+00    3.283105e+00
  8.878602e+00    3.261759e+00
  8.894478e+00    3.263031e+00
  8.910353e+00    3.332007e+00
  8.926229e+00    3.322886e+00
  8.942104e+00    3.210393e+00
  8.957980e+00    3.264286e+00
  8.973856e+00    3.275327e+00
  8.989731e+00    3.305742e+00
  9.005607e+00    3.276953e+00
  9.021482e+00    3.229820e+00
  9.037358e+00    3.275655e+00
  9.053233e+00    3.309203e+00
  9.069109e+00    3.253468e+00
  9.084985e+00    3.235455e+00
  9.100860e+00    3.226168e+00
  9.116736e+00    3.230697e+00
  9.132611e+00    3.214893e+00
  9.148487e+00    3.219500e+00
  9.164362e+00    3.264816e+00
  9.180238e+00    3.299904e+00
  9.196114e+00    3.216479e+00
  9.211989e+00    3.159926e+00
  9.227865e+00    3.165028e+00
  9.243740e+00    3.190124e+00
  9.259616e+00    3.221808e+00
  9.275491e+00    3.268735e+00
  9.291367e+00    3.242713e+00
  9.307243e+00    3.229969e+00
  9.323118e+00    3.177818e+00
  9.338994e+00    3.175675e+00
  9.354869e+00    3.246779e+00
  9.370745e+00    3.181796e+00
  9.386620e+00    3.220068e+00
  9.402496e+00    3.287681e+00
  9.418372e+00    3.208984e+00
  9.434247e+00    3.193673e+00
  9.450123e+00    3.176796e+00
  9.465998e+00    3.211655e+00
  9.481874e+00    3.252280e+00
  9.497749e+00    3.217038e+00
  9.513625e+00    3.203418e+00
  9.529501e+00    3.195650e+00
  9.545376e+00    3.231017e+00
  9.561252e+00    3.205742e+00
  9.577127e+00    3.143830e+00
  9.593003e+00    3.141071e+00
  9.608878e+00    3.115224e+00
  9.624754e+00    3.094789e+00
  9.640630e+00    3.127858e+00
  9.656505e+00    3.126227e+00
  9.672381e+00    3.071804e+00
  9.688256e+00    3.099983e+00
  9.704132e+00    3.134460e+00
  9.720008e+00    3.145133e+00
  9.735883e+00    3.132823e+00
  9.751759e+00    3.105931e+00
  9.767634e+00    3.080459e+00
  9.783510e+00    3.086996e+00
  9.799385e+00    3.130286e+00
  9.815261e+00    3.121920e+00
  9.831137e+00    3.191638e+00
  9.847012e+00    3.165144e+00
  9.862888e+00    3.093037e+00
  9.878763e+00    3.162929e+00
  9.894639e+00    3.172827e+00
  9.910514e+00    3.191102e+00
  9.926390e+00    3.170121e+00
  9.942266e+00    3.110554e+00
  9.958141e+00    3.076002e+00
  9.974017e+00    3.067904e+00
  9.989892e+00    3.085001e+00
  1.000577e+01    3.097789e+00
  1.002164e+01    3.044299e+00
  1.003752e+01    3.070054e+00
  1.005339e+01    3.061580e+00
  1.006927e+01    3.087988e+00
  1.008515e+01    3.103580e+00
  1.010102e+01    3.044670e+00
  1.011690e+01    3.139900e+00
  1.013277e+01    3.103500e+00
  1.014865e+01    3.042499e+00
  1.016452e+01    3.025345e+00
  1.018040e+01    3.075726e+00
  1.019627e+01    3.089112e+00
  1.021215e+01    3.042586e+00
  1.022803e+01    3.085931e+00
  1.024390e+01    3.089725e+00
  1.025978e+01    3.069885e+00
  1.027565e+01    3.068457e+00
  1.029153e+01    3.076947e+00
  1.030740e+01    3.049872e+00
  1.032328e+01    2.992000e+00
  1.033915e+01    3.026279e+00
  1.035503e+01    3.042753e+00
  1.037091e+01    3.056609e+00
  1.038678e+01    3.019055e+00
  1.040266e+01    3.027079e+00
  1.041853e+01    3.050921e+00
  1.043441e+01    3.017940e+00
  1.045028e+01    2.982653e+00
  1.046616e+01    2.992911e+00
  1.048204e+01    2.960514e+00
  1.049791e+01    2.924530e+00
  1.051379e+01    2.953330e+00
  1.052966e+01    2.970750e+00
  1.054554e+01    2.943434e+00
  1.056141e+01    2.961024e+00
  1.057729e+01    3.028839e+00
  1.059316e+01    2.959577e+00
  1.060904e+01    2.978427e+00
  1.062492e+01    3.011360e+00
  1.064079e+01    2.975673e+00
  1.065667e+01    2.957756e+00
  1.067254e+01    2.969178e+00
  1.068842e+01    2.961794e+00
  1.070429e+01    2.910616e+00
  1.072017e+01    2.926443e+00
  1.073604e+01    2.976977e+00
  1.075192e+01    2.956540e+00
  1.076780e+01    2.919956e+00
  1.078367e+01    2.898936e+00
  1.079955e+01    2.921178e+00
  1.081542e+01    2.920959e+00
  1.083130e+01    2.939280e+00
  1.084717e+01    2.896480e+00
  1.086305e+01    2.893215e+00
  1.087892e+01    2.903853e+00
  1.089480e+01    2.916013e+00
  1.091068e+01    2.879974e+00
  1.092655e+01    2.879512e+00
  1.094243e+01    2.918328e+00
  1.095830e+01    2.892092e+00
  1.097418e+01    2.881155e+00
  1.099005e+01    2.826359e+00
  1.100593e+01    2.853429e+00
  1.102180e+01    2.855682e+00
  1.103768e+01    2.914270e+00
  1.105356e+01    2.858009e+00
  1.106943e+01    2.871143e+00
  1.108531e+01    2.892353e+00
  1.110118e+01    2.827274e+00
  1.111706e+01    2.886018e+00
  1.113293e+01    2.817378e+00
  1.114881e+01    2.820912e+00
  1.116468e+01    2.876920e+00
  1.118056e+01    2.839315e+00
  1.119644e+01    2.840629e+00
  1.121231e+01    2.833335e+00
  1.122819e+01    2.815306e+00
  1.124406e+01    2.802945e+00
  1.125994e+01    2.806210e+00
  1.127581e+01    2.786602e+00
  1.129169e+01    2.819996e+00
  1.130756e+01    2.763100e+00
  1.132344e+01    2.747412e+00
  1.133932e+01    2.730570e+00
  1.135519e+01    2.769663e+00
  1.137107e+01    2.814664e+00
  1.138694e+01    2.780505e+00
  1.140282e+01    2.841186e+00
  1.141869e+01    2.825607e+00
  1.143457e+01    2.810514e+00
  1.145045e+01    2.789939e+00
  1.146632e+01    2.825033e+00
  1.148220e+01    2.751715e+00
  1.149807e+01    2.757369e+00
  1.151395e+01    2.754606e+00
  1.152982e+01    2.772866e+00
  1.154570e+01    2.797894e+00
  1.156157e+01    2.751847e+00
  1.157745e+01    2.749114e+00
  1.159333e+01    2.767298e+00
  1.160920e+01    2.748935e+00
  1.162508e+01    2.802903e+00
  1.164095e+01    2.744561e+00
  1.165683e+01    2.694785e+00
  1.167270e+01    2.718211e+00
  1.168858e+01    2.698151e+00
  1.170445e+01    2.720459e+00
  1.172033e+01    2.762847e+00
  1.173621e+01    2.763870e+00
  1.175208e+01    2.715555e+00
  1.176796e+01    2.642750e+00
  1.178383e+01    2.674138e+00
  1.179971e+01    2.705868e+00
  1.181558e+01    2.689624e+00
  1.183146e+01    2.746441e+00
  1.184733e+01    2.716351e+00
  1.186321e+01    2.685330e+00
  1.187909e+01    2.731785e+00
  1.189496e+01    2.744204e+00
  1.191084e+01    2.730858e+00
  1.192671e+01    2.693018e+00
  1.194259e+01    2.685595e+00
  1.195846e+01    2.684276e+00
  1.197434e+01    2.663095e+00
  1.199021e+01    2.676358e+00
  1.200609e+01    2.683195e+00
  1.202197e+01    2.658355e+00
  1.203784e+01    2.643670e+00
  1.205372e+01    2.651242e+00
  1.206959e+01    2.714351e+00
  1.208547e+01    2.744447e+00
  1.210134e+01    2.690500e+00
  1.211722e+01    2.642821e+00
  1.213309e+01    2.668154e+00
  1.214897e+01    2.651229e+00
  1.216485e+01    2.642104e+00
  1.218072e+01    2.635916e+00
  1.219660e+01    2.622924e+00
  1.221247e+01    2.621897e+00
  1.222835e+01    2.619659e+00
  1.224422e+01    2.656463e+00
  1.226010e+01    2.668118e+00
  1.227597e+01    2.681408e+00
  1.229185e+01    2.636485e+00
  1.230773e+01    2.619552e+00
  1.232360e+01    2.654087e+00
  1.233948e+01    2.595531e+00
  1.235535e+01    2.648237e+00
  1.237123e+01    2.699991e+00
  1.238710e+01    2.710143e+00
  1.240298e+01    2.660637e+00
  1.241886e+01    2.620227e+00
  1.243473e+01    2.608354e+00
  1.245061e+01    2.649366e+00
  1.246648e+01    2.666748e+00
  1.248236e+01    2.691973e+00
  1.249823e+01    2.714170e+00
  1.251411e+01    2.711014e+00
  1.252998e+01    2.699932e+00
  1.254586e+01    2.734457e+00
  1.256174e+01    2.742008e+00
  1.257761e+01    2.741761e+00
  1.259349e+01    2.755098e+00
  1.260936e+01    2.694982e+00
  1.262524e+01    2.701794e+00
  1.264111e+01    2.731254e+00
  1.265699e+01    2.780534e+00
  1.267286e+01    2.753765e+00
  1.268874e+01    2.754915e+00
  1.270462e+01    2.778864e+00
  1.272049e+01    2.751261e+00
  1.273637e+01    2.805125e+00
  1.275224e+01    2.885854e+00
  1.276812e+01    2.912284e+00
  1.278399e+01    2.934071e+00
  1.279987e+01    2.973517e+00
  1.281574e+01    3.009299e+00
  1.283162e+01    3.104167e+00
  1.284750e+01    3.132166e+00
  1.286337e+01    3.209686e+00
  1.287925e+01    3.331047e+00
  1.289512e+01    3.441911e+00
  1.291100e+01    3.610946e+00
  1.292687e+01    3.792897e+00
  1.294275e+01    4.028816e+00
  1.295862e+01    4.277925e+00
  1.297450e+01    4.641776e+00
  1.299038e+01    5.168235e+00
  1.300625e+01    5.808733e+00
  1.302213e+01    6.580513e+00
  1.303800e+01    7.610322e+00
  1.305388e+01    8.744101e+00
  1.306975e+01    1.003167e+01
  1.308563e+01    1.126403e+01
  1.310150e+01    1.242133e+01
  1.311738e+01    1.355838e+01
  1.313326e+01    1.453906e+01
  1.314913e+01    1.543506e+01
  1.316501e+01    1.612164e+01
  1.318088e+01    1.614133e+01
  1.319676e+01    1.551754e+01
  1.321263e+01    1.420449e+01
  1.322851e+01    1.241654e+01
  1.324438e+01    1.056485e+01
  1.326026e+01    9.039238e+00
  1.327614e+01    7.769184e+00
  1.329201e+01    6.675047e+00
  1.330789e+01    5.894069e+00
  1.332376e+01    5.258813e+00
  1.333964e+01    4.787663e+00
  1.335551e+01    4.397219e+00
  1.337139e+01    4.005233e+00
  1.338727e+01    3.804204e+00
  1.340314e+01    3.632659e+00
  1.341902e+01    3.491689e+00
  1.343489e+01    3.327056e+00
  1.345077e+01    3.204213e+00
  1.346664e+01    3.124428e+00
  1.348252e+01    2.996580e+00
  1.349839e+01    2.927272e+00
  1.351427e+01    2.913685e+00
  1.353015e+01    2.843637e+00
  1.354602e+01    2.778503e+00
  1.356190e+01    2.739670e+00
  1.357777e+01    2.710647e+00
  1.359365e+01    2.644436e+00
  1.360952e+01    2.644374e+00
  1.362540e+01    2.622124e+00
  1.364127e+01    2.572907e+00
  1.365715e+01    2.559165e+00
  1.367303e+01    2.560060e+00
  1.368890e+01    2.553705e+00
  1.370478e+01    2.513727e+00
  1.372065e+01    2.492992e+00
  1.373653e+01    2.500196e+00
  1.375240e+01    2.516975e+00
  1.376828e+01    2.515273e+00
  1.378415e+01    2.474613e+00
  1.380003e+01    2.404693e+00
  1.381591e+01    2.378186e+00
  1.383178e+01    2.384387e+00
  1.384766e+01    2.383996e+00
  1.386353e+01    2.418764e+00
  1.387941e+01    2.405194e+00
  1.389528e+01    2.366186e+00
  1.391116e+01    2.375261e+00
  1.392703e+01    2.372230e+00
  1.394291e+01    2.338442e+00
  1.395879e+01    2.339224e+00
  1.397466e+01    2.353280e+00
  1.399054e+01    2.342583e+00
  1.400641e+01    2.327003e+00
  1.402229e+01    2.376705e+00
  1.403816e+01    2.341875e+00
  1.405404e+01    2.266423e+00
  1.406991e+01    2.276898e+00
  1.408579e+01    2.306669e+00
  1.410167e+01    2.336141e+00
  1.411754e+01    2.298453e+00
  1.413342e+01    2.294914e+00
  1.414929e+01    2.287927e+00
  1.416517e+01    2.282758e+00
  1.418104e+01    2.280726e+00
  1.419692e+01    2.280267e+00
  1.421279e+01    2.282640e+00
  1.422867e+01    2.278730e+00
  1.424455e+01    2.316856e+00
  1.426042e+01    2.270181e+00
  1.427630e+01    2.195348e+00
  1.429217e+01    2.207293e+00
  1.430805e+01    2.218671e+00
  1.432392e+01    2.260614e+00
  1.433980e+01    2.296719e+00
  1.435568e+01    2.254224e+00
  1.437155e+01    2.214638e+00
  1.438743e+01    2.238244e+00
  1.440330e+01    2.204291e+00
  1.441918e+01    2.238584e+00
  1.443505e+01    2.214363e+00
  1.445093e+01    2.235790e+00
  1.446680e+01    2.235790e+00
  1.448268e+01    2.165192e+00
  1.449856e+01    2.152141e+00
  1.451443e+01    2.215000e+00
  1.453031e+01    2.222878e+00
  1.454618e+01    2.158678e+00
  1.456206e+01    2.175116e+00
  1.457793e+01    2.190530e+00
  1.459381e+01    2.206653e+00
  1.460968e+01    2.202192e+00
  1.462556e+01    2.196379e+00
  1.464144e+01    2.226916e+00
  1.465731e+01    2.216990e+00
  1.467319e+01    2.219983e+00
  1.468906e+01    2.198282e+00
  1.470494e+01    2.166116e+00
  1.472081e+01    2.166608e+00
  1.473669e+01    2.188068e+00
  1.475256e+01    2.167135e+00
  1.476844e+01    2.171221e+00
  1.478432e+01    2.181148e+00
  1.480019e+01    2.173850e+00
  1.481607e+01    2.163129e+00
  1.483194e+01    2.169187e+00
  1.484782e+01    2.171913e+00
  1.486369e+01    2.187467e+00
  1.487957e+01    2.196703e+00
  1.489544e+01    2.191042e+00
  1.491132e+01    2.221772e+00
  1.492720e+01    2.240648e+00
  1.494307e+01    2.240404e+00
  1.495895e+01    2.287178e+00
  1.497482e+01    2.380088e+00
  1.499070e+01    2.413419e+00
  1.500657e+01    2.437706e+00
  1.502245e+01    2.492017e+00
  1.503832e+01    2.561259e+00
  1.505420e+01    2.669299e+00
  1.507008e+01    2.775539e+00
  1.508595e+01    2.974609e+00
  1.510183e+01    3.166551e+00
  1.511770e+01    3.367753e+00
  1.513358e+01    3.676556e+00
  1.514945e+01    4.081989e+00
  1.516533e+01    4.424735e+00
  1.518120e+01    4.805737e+00
  1.519708e+01    5.126145e+00
  1.521296e+01    5.375068e+00
  1.522883e+01    5.530539e+00
  1.524471e+01    5.682995e+00
  1.526058e+01    5.706489e+00
  1.527646e+01    5.620370e+00
  1.529233e+01    5.400265e+00
  1.530821e+01    5.141438e+00
  1.532409e+01    4.673333e+00
  1.533996e+01    4.216399e+00
  1.535584e+01    3.788472e+00
  1.537171e+01    3.386220e+00
  1.538759e+01    3.128705e+00
  1.540346e+01    2.939477e+00
  1.541934e+01    2.730977e+00
  1.543521e+01    2.571479e+00
  1.545109e+01    2.502981e+00
  1.546697e+01    2.415387e+00
  1.548284e+01    2.335175e+00
  1.549872e+01    2.317550e+00
  1.551459e+01    2.270720e+00
  1.553047e+01    2.231668e+00
  1.554634e+01    2.137880e+00
  1.556222e+01    2.119944e+00
  1.557809e+01    2.117123e+00
  1.559397e+01    2.061081e+00
  1.560985e+01    2.056664e+00
  1.562572e+01    2.061816e+00
  1.564160e+01    2.047938e+00
  1.565747e+01    2.041182e+00
  1.567335e+01    1.994819e+00
  1.568922e+01    1.975939e+00
  1.570510e+01    1.977666e+00
  1.572097e+01    1.958158e+00
  1.573685e+01    1.939051e+00
  1.575273e+01    1.938646e+00
  1.576860e+01    1.953428e+00
  1.578448e+01    1.918853e+00
  1.580035e+01    1.959226e+00
  1.581623e+01    1.938057e+00
  1.583210e+01    1.972743e+00
  1.584798e+01    1.917397e+00
  1.586385e+01    1.897121e+00
  1.587973e+01    1.893384e+00
  1.589561e+01    1.892711e+00
  1.591148e+01    1.872022e+00
  1.592736e+01    1.902812e+00
  1.594323e+01    1.875263e+00
  1.595911e+01    1.881984e+00
  1.597498e+01    1.890686e+00
  1.599086e+01    1.846295e+00
  1.600673e+01    1.855652e+00
  1.602261e+01    1.839902e+00
  1.603849e+01    1.842637e+00
  1.605436e+01    1.826065e+00
  1.607024e+01    1.812899e+00
  1.608611e+01    1.804778e+00
  1.610199e+01    1.825433e+00
  1.611786e+01    1.861137e+00
  1.613374e+01    1.848808e+00
  1.614961e+01    1.855518e+00
  1.616549e+01    1.835196e+00
  1.618137e+01    1.818548e+00
  1.619724e+01    1.779957e+00
  1.621312e+01    1.779748e+00
  1.622899e+01    1.794021e+00
  1.624487e+01    1.795176e+00
  1.626074e+01    1.766343e+00
  1.627662e+01    1.789918e+00
  1.629250e+01    1.776416e+00
  1.630837e+01    1.769407e+00
  1.632425e+01    1.760013e+00
  1.634012e+01    1.772842e+00
  1.635600e+01    1.792264e+00
  1.637187e+01    1.775059e+00
  1.638775e+01    1.751629e+00
  1.640362e+01    1.754965e+00
  1.641950e+01    1.735825e+00
  1.643538e+01    1.750380e+00
  1.645125e+01    1.735176e+00
  1.646713e+01    1.749614e+00
  1.648300e+01    1.746472e+00
  1.649888e+01    1.727263e+00
  1.651475e+01    1.733105e+00
  1.653063e+01    1.737569e+00
  1.654650e+01    1.735745e+00
  1.656238e+01    1.739828e+00
  1.657826e+01    1.727884e+00
  1.659413e+01    1.731299e+00
  1.661001e+01    1.695792e+00
  1.662588e+01    1.707193e+00
  1.664176e+01    1.706402e+00
  1.665763e+01    1.698437e+00
  1.667351e+01    1.683948e+00
  1.668938e+01    1.673899e+00
  1.670526e+01    1.713589e+00
  1.672114e+01    1.702822e+00
  1.673701e+01    1.691969e+00
  1.675289e+01    1.660932e+00
  1.676876e+01    1.671832e+00
  1.678464e+01    1.700357e+00
  1.680051e+01    1.688979e+00
  1.681639e+01    1.685422e+00
  1.683226e+01    1.682018e+00
  1.684814e+01    1.660245e+00
  1.686402e+01    1.665465e+00
  1.687989e+01    1.686270e+00
  1.689577e+01    1.676915e+00
  1.691164e+01    1.689284e+00
  1.692752e+01    1.724434e+00
  1.694339e+01    1.671347e+00
  1.695927e+01    1.659938e+00
  1.697514e+01    1.655576e+00
  1.699102e+01    1.660695e+00
  1.700690e+01    1.658458e+00
  1.702277e+01    1.605811e+00
  1.703865e+01    1.644050e+00
  1.705452e+01    1.665742e+00
  1.707040e+01    1.633451e+00
  1.708627e+01    1.632259e+00
  1.710215e+01    1.637838e+00
  1.711802e+01    1.619269e+00
  1.713390e+01    1.608968e+00
  1.714978e+01    1.653301e+00
  1.716565e+01    1.635798e+00
  1.718153e+01    1.633737e+00
  1.719740e+01    1.639398e+00
  1.721328e+01    1.620245e+00
  1.722915e+01    1.579194e+00
  1.724503e+01    1.600513e+00
  1.726091e+01    1.639096e+00
  1.727678e+01    1.599725e+00
  1.729266e+01    1.585645e+00
  1.730853e+01    1.585972e+00
  1.732441e+01    1.596285e+00
  1.734028e+01    1.594538e+00
  1.735616e+01    1.607110e+00
  1.737203e+01    1.606868e+00
  1.738791e+01    1.600124e+00
  1.740379e+01    1.614246e+00
  1.741966e+01    1.597528e+00
  1.743554e+01    1.583468e+00
  1.745141e+01    1.586702e+00
  1.746729e+01    1.564507e+00
  1.748316e+01    1.580114e+00
  1.749904e+01    1.588269e+00
  1.751491e+01    1.569453e+00
  1.753079e+01    1.571260e+00
  1.754667e+01    1.532786e+00
  1.756254e+01    1.556462e+00
  1.757842e+01    1.572759e+00
  1.759429e+01    1.548996e+00
  1.761017e+01    1.581881e+00
  1.762604e+01    1.566303e+00
  1.764192e+01    1.564373e+00
  1.765779e+01    1.538314e+00
  1.767367e+01    1.533809e+00
  1.768955e+01    1.537632e+00
  1.770542e+01    1.568328e+00
  1.772130e+01    1.558357e+00
  1.773717e+01    1.526633e+00
  1.775305e+01    1.496776e+00
  1.776892e+01    1.543013e+00
  1.778480e+01    1.552573e+00
  1.780067e+01    1.518052e+00
  1.781655e+01    1.537294e+00
  1.783243e+01    1.537293e+00
  1.784830e+01    1.525877e+00
  1.786418e+01    1.500850e+00
  1.788005e+01    1.531635e+00
  1.789593e+01    1.546613e+00
  1.791180e+01    1.505333e+00
  1.792768e+01    1.489854e+00
  1.794355e+01    1.508955e+00
  1.795943e+01    1.535351e+00
  1.797531e+01    1.521406e+00
  1.799118e+01    1.473876e+00
  1.800706e+01    1.514199e+00
  1.802293e+01    1.491291e+00
  1.803881e+01    1.488805e+00
  1.805468e+01    1.498764e+00
  1.807056e+01    1.490012e+00
  1.808643e+01    1.483499e+00
  1.810231e+01    1.456507e+00
  1.811819e+01    1.462519e+00
  1.813406e+01    1.476688e+00
  1.814994e+01    1.471516e+00
  1.816581e+01    1.436740e+00
  1.818169e+01    1.456456e+00
  1.819756e+01    1.484132e+00
  1.821344e+01    1.498096e+00
  1.822932e+01    1.473732e+00
  1.824519e+01    1.454874e+00
  1.826107e+01    1.477122e+00
  1.827694e+01    1.469585e+00
  1.829282e+01    1.457285e+00
  1.830869e+01    1.485777e+00
  1.832457e+01    1.473771e+00
  1.834044e+01    1.435800e+00
  1.835632e+01    1.457679e+00
  1.837220e+01    1.461480e+00
  1.838807e+01    1.474079e+00
  1.840395e+01    1.492257e+00
  1.841982e+01    1.472860e+00
  1.843570e+01    1.426824e+00
  1.845157e+01    1.419908e+00
  1.846745e+01    1.446367e+00
  1.848332e+01    1.414805e+00
  1.849920e+01    1.422471e+00
  1.851508e+01    1.439051e+00
  1.853095e+01    1.437663e+00
  1.854683e+01    1.431719e+00
  1.856270e+01    1.425652e+00
  1.857858e+01    1.418752e+00
  1.859445e+01    1.425220e+00
  1.861033e+01    1.413982e+00
  1.862620e+01    1.425993e+00
  1.864208e+01    1.403195e+00
  1.865796e+01    1.394115e+00
  1.867383e+01    1.404172e+00
  1.868971e+01    1.417188e+00
  1.870558e+01    1.392469e+00
  1.872146e+01    1.408761e+00
  1.873733e+01    1.400348e+00
  1.875321e+01    1.385419e+00
  1.876908e+01    1.385908e+00
  1.878496e+01    1.381034e+00
  1.880084e+01    1.410868e+00
  1.881671e+01    1.398324e+00
  1.883259e+01    1.421733e+00
  1.884846e+01    1.420594e+00
  1.886434e+01    1.403679e+00
  1.888021e+01    1.387601e+00
  1.889609e+01    1.367143e+00
  1.891196e+01    1.364836e+00
  1.892784e+01    1.408391e+00
  1.894372e+01    1.391377e+00
  1.895959e+01    1.391457e+00
  1.897547e+01    1.371199e+00
  1.899134e+01    1.384055e+00
  1.900722e+01    1.361650e+00
  1.902309e+01    1.359676e+00
  1.903897e+01    1.348479e+00
  1.905484e+01    1.364341e+00
  1.907072e+01    1.342388e+00
  1.908660e+01    1.335964e+00
  1.910247e+01    1.362287e+00
  1.911835e+01    1.360206e+00
  1.913422e+01    1.364766e+00
  1.915010e+01    1.364649e+00
  1.916597e+01    1.375312e+00
  1.918185e+01    1.342214e+00
  1.919773e+01    1.372475e+00
  1.921360e+01    1.355762e+00
  1.922948e+01    1.341921e+00
  1.924535e+01    1.352533e+00
  1.926123e+01    1.344308e+00
  1.927710e+01    1.345606e+00
  1.929298e+01    1.348095e+00
  1.930885e+01    1.332032e+00
  1.932473e+01    1.315663e+00
  1.934061e+01    1.315737e+00
  1.935648e+01    1.339998e+00
  1.937236e+01    1.356992e+00
  1.938823e+01    1.347632e+00
  1.940411e+01    1.338135e+00
  1.941998e+01    1.324441e+00
  1.943586e+01    1.322541e+00
  1.945173e+01    1.331770e+00
  1.946761e+01    1.333207e+00
  1.948349e+01    1.317759e+00
  1.949936e+01    1.327416e+00
  1.951524e+01    1.316087e+00
  1.953111e+01    1.317963e+00
  1.954699e+01    1.305849e+00
  1.956286e+01    1.315216e+00
  1.957874e+01    1.308366e+00
  1.959461e+01    1.287643e+00
  1.961049e+01    1.299497e+00
  1.962637e+01    1.294338e+00
  1.964224e+01    1.306065e+00
  1.965812e+01    1.309146e+00
  1.967399e+01    1.294478e+00
  1.968987e+01    1.303287e+00
  1.970574e+01    1.304932e+00
  1.972162e+01    1.325234e+00
  1.973749e+01    1.310493e+00
  1.975337e+01    1.298609e+00
  1.976925e+01    1.301917e+00
  1.978512e+01    1.308041e+00
  1.980100e+01    1.301414e+00
  1.981687e+01    1.318444e+00
  1.983275e+01    1.284657e+00
  1.984862e+01    1.296617e+00
  1.986450e+01    1.280649e+00
  1.988037e+01    1.300114e+00
  1.989625e+01    1.298269e+00
  1.991213e+01    1.285992e+00
  1.992800e+01    1.288829e+00
  1.994388e+01    1.291408e+00
  1.995975e+01    1.271001e+00
  1.997563e+01    1.267507e+00
  1.999150e+01    1.268107e+00
  2.000738e+01    1.280818e+00
  2.002325e+01    1.279165e+00
  2.003913e+01    1.284720e+00
  2.005501e+01    1.268238e+00
  2.007088e+01    1.259167e+00
  2.008676e+01    1.263004e+00
  2.010263e+01    1.273147e+00
  2.011851e+01    1.263593e+00
  2.013438e+01    1.247122e+00
  2.015026e+01    1.269286e+00
  2.016614e+01    1.263107e+00
  2.018201e+01    1.271533e+00
  2.019789e+01    1.248187e+00
  2.021376e+01    1.271226e+00
  2.022964e+01    1.242199e+00
  2.024551e+01    1.246542e+00
  2.026139e+01    1.246088e+00
  2.027726e+01    1.234384e+00
  2.029314e+01    1.244086e+00
  2.030902e+01    1.253236e+00
  2.032489e+01    1.232417e+00
  2.034077e+01    1.238551e+00
  2.035664e+01    1.264538e+00
  2.037252e+01    1.251443e+00
  2.038839e+01    1.245989e+00
  2.040427e+01    1.280679e+00
  2.042014e+01    1.270488e+00
  2.043602e+01    1.244625e+00
  2.045190e+01    1.200047e+00
  2.046777e+01    1.206211e+00
  2.048365e+01    1.216972e+00
  2.049952e+01    1.238647e+00
  2.051540e+01    1.231306e+00
  2.053127e+01    1.222792e+00
  2.054715e+01    1.217132e+00
  2.056302e+01    1.215460e+00
  2.057890e+01    1.233222e+00
  2.059478e+01    1.248844e+00
  2.061065e+01    1.252864e+00
  2.062653e+01    1.208951e+00
  2.064240e+01    1.218996e+00
  2.065828e+01    1.213217e+00
  2.067415e+01    1.222446e+00
  2.069003e+01    1.200244e+00
  2.070590e+01    1.223386e+00
  2.072178e+01    1.227949e+00
  2.073766e+01    1.230306e+00
  2.075353e+01    1.230846e+00
  2.076941e+01    1.235153e+00
  2.078528e+01    1.202849e+00
  2.080116e+01    1.220629e+00
  2.081703e+01    1.224042e+00
  2.083291e+01    1.220694e+00
  2.084878e+01    1.208162e+00
  2.086466e+01    1.234961e+00
  2.088054e+01    1.205982e+00
  2.089641e+01    1.197166e+00
  2.091229e+01    1.252388e+00
  2.092816e+01    1.236555e+00
  2.094404e+01    1.202944e+00
  2.095991e+01    1.186181e+00
  2.097579e+01    1.208800e+00
  2.099166e+01    1.219717e+00
  2.100754e+01    1.202218e+00
  2.102342e+01    1.213359e+00
  2.103929e+01    1.227183e+00
  2.105517e+01    1.201663e+00
  2.107104e+01    1.173559e+00
  2.108692e+01    1.185726e+00
  2.110279e+01    1.220915e+00
  2.111867e+01    1.206806e+00
  2.113455e+01    1.236590e+00
  2.115042e+01    1.184364e+00
  2.116630e+01    1.203523e+00
  2.118217e+01    1.220277e+00
  2.119805e+01    1.204929e+00
  2.121392e+01    1.234656e+00
  2.122980e+01    1.239357e+00
  2.124567e+01    1.223624e+00
  2.126155e+01    1.220879e+00
  2.127743e+01    1.249725e+00
  2.129330e+01    1.237111e+00
  2.130918e+01    1.248927e+00
  2.132505e+01    1.244542e+00
  2.134093e+01    1.258516e+00
  2.135680e+01    1.267967e+00
  2.137268e+01    1.264098e+00
  2.138855e+01    1.300258e+00
  2.140443e+01    1.276646e+00
  2.142031e+01    1.312963e+00
  2.143618e+01    1.327233e+00
  2.145206e+01    1.335842e+00
  2.146793e+01    1.359902e+00
  2.148381e+01    1.369828e+00
  2.149968e+01    1.391329e+00
  2.151556e+01    1.429839e+00
  2.153143e+01    1.473385e+00
  2.154731e+01    1.509601e+00
  2.156319e+01    1.520647e+00
  2.157906e+01    1.589706e+00
  2.159494e+01    1.659026e+00
  2.161081e+01    1.750534e+00
  2.162669e+01    1.845169e+00
  2.164256e+01    1.954471e+00
  2.165844e+01    2.101773e+00
  2.167431e+01    2.276405e+00
  2.169019e+01    2.481187e+00
  2.170607e+01    2.733659e+00
  2.172194e+01    3.073491e+00
  2.173782e+01    3.479786e+00
  2.175369e+01    3.977054e+00
  2.176957e+01    4.528968e+00
  2.178544e+01    5.081589e+00
  2.180132e+01    5.756356e+00
  2.181719e+01    6.462530e+00
  2.183307e+01    7.070637e+00
  2.184895e+01    7.703729e+00
  2.186482e+01    8.234566e+00
  2.188070e+01    8.707562e+00
  2.189657e+01    8.830293e+00
  2.191245e+01    8.705442e+00
  2.192832e+01    8.161600e+00
  2.194420e+01    7.473337e+00
  2.196007e+01    6.566418e+00
  2.197595e+01    5.678232e+00
  2.199183e+01    4.862064e+00
  2.200770e+01    4.120310e+00
  2.202358e+01    3.568332e+00
  2.203945e+01    3.161981e+00
  2.205533e+01    2.818327e+00
  2.207120e+01    2.566831e+00
  2.208708e+01    2.316103e+00
  2.210296e+01    2.110858e+00
  2.211883e+01    1.957468e+00
  2.213471e+01    1.857468e+00
  2.215058e+01    1.736817e+00
  2.216646e+01    1.666481e+00
  2.218233e+01    1.610569e+00
  2.219821e+01    1.521296e+00
  2.221408e+01    1.478842e+00
  2.222996e+01    1.449420e+00
  2.224584e+01    1.402560e+00
  2.226171e+01    1.389836e+00
  2.227759e+01    1.351887e+00
  2.229346e+01    1.309949e+00
  2.230934e+01    1.294266e+00
  2.232521e+01    1.261951e+00
  2.234109e+01    1.241347e+00
  2.235696e+01    1.235196e+00
  2.237284e+01    1.226019e+00
  2.238872e+01    1.209110e+00
  2.240459e+01    1.229094e+00
  2.242047e+01    1.184886e+00
  2.243634e+01    1.151090e+00
  2.245222e+01    1.164539e+00
  2.246809e+01    1.158658e+00
  2.248397e+01    1.136061e+00
  2.249984e+01    1.130791e+00
  2.251572e+01    1.118835e+00
  2.253160e+01    1.148027e+00
  2.254747e+01    1.121655e+00
  2.256335e+01    1.116077e+00
  2.257922e+01    1.095201e+00
  2.259510e+01    1.104453e+00
  2.261097e+01    1.111752e+00
  2.262685e+01    1.091529e+00
  2.264272e+01    1.109734e+00
  2.265860e+01    1.074126e+00
  2.267448e+01    1.065796e+00
  2.269035e+01    1.081690e+00
  2.270623e+01    1.065763e+00
  2.272210e+01    1.082278e+00
  2.273798e+01    1.079174e+00
  2.275385e+01    1.045729e+00
  2.276973e+01    1.057730e+00
  2.278560e+01    1.044720e+00
  2.280148e+01    1.015061e+00
  2.281736e+01    1.030737e+00
  2.283323e+01    1.028023e+00
  2.284911e+01    1.033698e+00
  2.286498e+01    1.038205e+00
  2.288086e+01    1.013309e+00
  2.289673e+01    1.029143e+00
  2.291261e+01    1.054947e+00
  2.292848e+01    1.044690e+00
  2.294436e+01    1.050735e+00
  2.296024e+01    1.017484e+00
  2.297611e+01    9.984245e-01
  2.299199e+01    1.012651e+00
  2.300786e+01    1.007468e+00
  2.302374e+01    1.000527e+00
  2.303961e+01    1.007375e+00
  2.305549e+01    9.974037e-01
  2.307137e+01    9.922771e-01
  2.308724e+01    9.955133e-01
  2.310312e+01    1.006175e+00
  2.311899e+01    9.902533e-01
  2.313487e+01    9.989741e-01
  2.315074e+01    1.001791e+00
  2.316662e+01    1.007819e+00
  2.318249e+01    9.858612e-01
  2.319837e+01    9.975795e-01
  2.321425e+01    9.993809e-01
  2.323012e+01    9.869040e-01
  2.324600e+01    9.946438e-01
  2.326187e+01    9.901853e-01
  2.327775e+01    9.942139e-01
  2.329362e+01    9.932472e-01
  2.330950e+01    9.956540e-01
  2.332537e+01    9.870793e-01
  2.334125e+01    9.536362e-01
  2.335713e+01    9.844587e-01
  2.337300e+01    9.825123e-01
  2.338888e+01    9.554636e-01
  2.340475e+01    9.361658e-01
  2.342063e+01    9.504787e-01
  2.343650e+01    9.713277e-01
  2.345238e+01    9.613261e-01
  2.346825e+01    9.796840e-01
  2.348413e+01    9.629443e-01
  2.350001e+01    9.545121e-01
  2.351588e+01    9.476132e-01
  2.353176e+01    9.634333e-01
  2.354763e+01    9.629760e-01
  2.356351e+01    9.734421e-01
  2.357938e+01    9.497445e-01
  2.359526e+01    9.462477e-01
  2.361113e+01    9.429675e-01
  2.362701e+01    9.428768e-01
  2.364289e+01    9.550349e-01
  2.365876e+01    9.560993e-01
  2.367464e+01    9.275684e-01
  2.369051e+01    9.339606e-01
  2.370639e+01    9.305183e-01
  2.372226e+01    9.237883e-01
  2.373814e+01    9.428248e-01
  2.375401e+01    9.449161e-01
  2.376989e+01    9.106336e-01
  2.378577e+01    9.362004e-01
  2.380164e+01    9.239911e-01
  2.381752e+01    8.957298e-01
  2.383339e+01    8.937208e-01
  2.384927e+01    9.244673e-01
  2.386514e+01    9.060543e-01
  2.388102e+01    8.941686e-01
  2.389689e+01    8.970948e-01
  2.391277e+01    9.098101e-01
  2.392865e+01    9.257761e-01
  2.394452e+01    9.272766e-01
  2.396040e+01    9.322441e-01
  2.397627e+01    8.984586e-01
  2.399215e+01    8.751848e-01
  2.400802e+01    8.928558e-01
  2.402390e+01    8.754175e-01
  2.403978e+01    8.900036e-01
  2.405565e+01    8.896217e-01
  2.407153e+01    8.934621e-01
  2.408740e+01    8.831748e-01
  2.410328e+01    8.829023e-01
  2.411915e+01    8.919579e-01
  2.413503e+01    8.799230e-01
  2.415090e+01    8.658583e-01
  2.416678e+01    8.766636e-01
  2.418266e+01    8.842569e-01
  2.419853e+01    8.567279e-01
  2.421441e+01    8.652511e-01
  2.423028e+01    8.752906e-01
  2.424616e+01    8.720722e-01
  2.426203e+01    9.005307e-01
  2.427791e+01    8.935089e-01
  2.429378e+01    9.034574e-01
  2.430966e+01    8.831609e-01
  2.432554e+01    8.786255e-01
  2.434141e+01    9.045237e-01
  2.435729e+01    8.910120e-01
  2.437316e+01    8.823630e-01
  2.438904e+01    8.891313e-01
  2.440491e+01    8.854791e-01
  2.442079e+01    8.803583e-01
  2.443666e+01    8.852171e-01
  2.445254e+01    8.855738e-01
  2.446842e+01    8.885061e-01
  2.448429e+01    8.915378e-01
  2.450017e+01    8.884271e-01
  2.451604e+01    8.837580e-01
  2.453192e+01    8.714923e-01
  2.454779e+01    8.656869e-01
  2.456367e+01    8.929504e-01
  2.457954e+01    8.903329e-01
  2.459542e+01    8.554208e-01
  2.461130e+01    8.818254e-01
  2.462717e+01    8.827706e-01
  2.464305e+01    8.740010e-01
  2.465892e+01    8.733548e-01
  2.467480e+01    8.549883e-01
  2.469067e+01    8.749893e-01
  2.470655e+01    8.696977e-01
  2.472242e+01    8.858914e-01
  2.473830e+01    8.901796e-01
  2.475418e+01    8.872845e-01
  2.477005e+01    8.767761e-01
  2.478593e+01    8.826547e-01
  2.480180e+01    8.836352e-01
  2.481768e+01    8.912804e-01
  2.483355e+01    8.855148e-01
  2.484943e+01    8.769963e-01
  2.486530e+01    8.972015e-01
  2.488118e+01    9.009874e-01
  2.489706e+01    8.941149e-01
  2.491293e+01    9.036241e-01
  2.492881e+01    8.956643e-01
  2.494468e+01    8.691428e-01
  2.496056e+01    8.783854e-01
  2.497643e+01    8.674012e-01
  2.499231e+01    8.790600e-01
  2.500819e+01    8.769791e-01
  2.502406e+01    8.826920e-01
  2.503994e+01    8.816982e-01
  2.505581e+01    8.911698e-01
  2.507169e+01    8.888052e-01
  2.508756e+01    8.789492e-01
  2.510344e+01    8.855958e-01
  2.511931e+01    8.906769e-01
  2.513519e+01    9.004562e-01
  2.515107e+01    9.000586e-01
  2.516694e+01    9.053014e-01
  2.518282e+01    9.072062e-01
  2.519869e+01    8.954608e-01
  2.521457e+01    9.265431e-01
  2.523044e+01    9.235560e-01
  2.524632e+01    9.210179e-01
  2.526219e+01    9.092596e-01
  2.527807e+01    9.233354e-01
  2.529395e+01    9.461659e-01
  2.530982e+01    9.582759e-01
  2.532570e+01    9.428543e-01
  2.534157e+01    9.653918e-01
  2.535745e+01    9.802215e-01
  2.537332e+01    9.651785e-01
  2.538920e+01    9.816136e-01
  2.540507e+01    9.959589e-01
  2.542095e+01    9.870834e-01
  2.543683e+01    1.004410e+00
  2.545270e+01    1.028178e+00
  2.546858e+01    1.039238e+00
  2.548445e+01    1.023495e+00
  2.550033e+01    1.025981e+00
  2.551620e+01    1.045937e+00
  2.553208e+01    1.098758e+00
  2.554795e+01    1.122433e+00
  2.556383e+01    1.132919e+00
  2.557971e+01    1.126252e+00
  2.559558e+01    1.143679e+00
  2.561146e+01    1.208708e+00
  2.562733e+01    1.246738e+00
  2.564321e+01    1.281352e+00
  2.565908e+01    1.324843e+00
  2.567496e+01    1.413796e+00
  2.569083e+01    1.505211e+00
  2.570671e+01    1.585976e+00
  2.572259e+01    1.706432e+00
  2.573846e+01    1.800814e+00
  2.575434e+01    1.995689e+00
  2.577021e+01    2.217319e+00
  2.578609e+01    2.412292e+00
  2.580196e+01    2.718632e+00
  2.581784e+01    3.128136e+00
  2.583371e+01    3.546134e+00
  2.584959e+01    4.035853e+00
  2.586547e+01    4.576625e+00
  2.588134e+01    5.146243e+00
  2.589722e+01    5.728279e+00
  2.591309e+01    6.241645e+00
  2.592897e+01    6.645351e+00
  2.594484e+01    6.908995e+00
  2.596072e+01    7.051399e+00
  2.597660e+01    6.978258e+00
  2.599247e+01    6.594640e+00
  2.600835e+01    5.985525e+00
  2.602422e+01    5.246737e+00
  2.604010e+01    4.610540e+00
  2.605597e+01    3.950388e+00
  2.607185e+01    3.432517e+00
  2.608772e+01    3.014542e+00
  2.610360e+01    2.636963e+00
  2.611948e+01    2.341375e+00
  2.613535e+01    2.134115e+00
  2.615123e+01    1.932246e+00
  2.616710e+01    1.798460e+00
  2.618298e+01    1.690060e+00
  2.619885e+01    1.557306e+00
  2.621473e+01    1.470067e+00
  2.623060e+01    1.401282e+00
  2.624648e+01    1.352826e+00
  2.626236e+01    1.287764e+00
  2.627823e+01    1.261946e+00
  2.629411e+01    1.216144e+00
  2.630998e+01    1.161665e+00
  2.632586e+01    1.125615e+00
  2.634173e+01    1.116870e+00
  2.635761e+01    1.110611e+00
  2.637348e+01    1.072616e+00
  2.638936e+01    1.077379e+00
  2.640524e+01    1.036890e+00
  2.642111e+01    1.033567e+00
  2.643699e+01    1.012479e+00
  2.645286e+01    1.029959e+00
  2.646874e+01    9.948327e-01
  2.648461e+01    9.875350e-01
  2.650049e+01    1.002484e+00
  2.651636e+01    1.006687e+00
  2.653224e+01    1.003713e+00
  2.654812e+01    9.947186e-01
  2.656399e+01    9.673451e-01
  2.657987e+01    9.725553e-01
  2.659574e+01    9.845341e-01
  2.661162e+01    9.770505e-01
  2.662749e+01    9.702675e-01
  2.664337e+01    9.592135e-01
  2.665924e+01    9.628263e-01
  2.667512e+01    9.885286e-01
  2.669100e+01    9.712955e-01
  2.670687e+01    9.724290e-01
  2.672275e+01    9.439253e-01
  2.673862e+01    9.584874e-01
  2.675450e+01    9.506661e-01
  2.677037e+01    9.647847e-01
  2.678625e+01    9.818490e-01
  2.680212e+01    9.605531e-01
  2.681800e+01    9.538219e-01
  2.683388e+01    9.560305e-01
  2.684975e+01    9.561291e-01
  2.686563e+01    9.671868e-01
  2.688150e+01    9.802797e-01
  2.689738e+01    9.810141e-01
  2.691325e+01    9.644392e-01
  2.692913e+01    9.926121e-01
  2.694501e+01    1.022452e+00
  2.696088e+01    1.036669e+00
  2.697676e+01    1.014683e+00
  2.699263e+01    1.058199e+00
  2.700851e+01    1.109681e+00
  2.702438e+01    1.166050e+00
  2.704026e+01    1.187393e+00
  2.705613e+01    1.236034e+00
  2.707201e+01    1.306829e+00
  2.708789e+01    1.374810e+00
  2.710376e+01    1.476123e+00
  2.711964e+01    1.593797e+00
  2.713551e+01    1.699319e+00
  2.715139e+01    1.834500e+00
  2.716726e+01    1.947644e+00
  2.718314e+01    2.074210e+00
  2.719901e+01    2.097712e+00
  2.721489e+01    2.163446e+00
  2.723077e+01    2.160945e+00
  2.724664e+01    2.059400e+00
  2.726252e+01    1.995414e+00
  2.727839e+01    1.868373e+00
  2.729427e+01    1.728152e+00
  2.731014e+01    1.553854e+00
  2.732602e+01    1.465162e+00
  2.734189e+01    1.379396e+00
  2.735777e+01    1.285312e+00
  2.737365e+01    1.204496e+00
  2.738952e+01    1.143706e+00
  2.740540e+01    1.118495e+00
  2.742127e+01    1.086929e+00
  2.743715e+01    1.029597e+00
  2.745302e+01    1.011198e+00
  2.746890e+01    1.017272e+00
  2.748477e+01    9.895297e-01
  2.750065e+01    9.821697e-01
  2.751653e+01    9.545966e-01
  2.753240e+01    9.621851e-01
  2.754828e+01    9.438407e-01
  2.756415e+01    9.481367e-01
  2.758003e+01    9.307731e-01
  2.759590e+01    9.106465e-01
  2.761178e+01    9.079192e-01
  2.762765e+01    8.971374e-01
  2.764353e+01    9.118005e-01
  2.765941e+01    9.097053e-01
  2.767528e+01    8.909762e-01
  2.769116e+01    8.932647e-01
  2.770703e+01    8.913394e-01
  2.772291e+01    8.945261e-01
  2.773878e+01    8.767055e-01
  2.775466e+01    8.729261e-01
  2.777054e+01    8.865358e-01
  2.778641e+01    8.825069e-01
  2.780229e+01    8.845185e-01
  2.781816e+01    9.019716e-01
  2.783404e+01    8.805143e-01
  2.784991e+01    8.793131e-01
  2.786579e+01    8.621177e-01
  2.788166e+01    8.640779e-01
  2.789754e+01    8.838071e-01
  2.791342e+01    8.531961e-01
  2.792929e+01    8.441989e-01
  2.794517e+01    8.706927e-01
  2.796104e+01    8.744747e-01
  2.797692e+01    8.505594e-01
  2.799279e+01    8.444340e-01
  2.800867e+01    8.381882e-01
  2.802454e+01    8.607784e-01
  2.804042e+01    8.519652e-01
  2.805630e+01    8.241624e-01
  2.807217e+01    8.229892e-01
  2.808805e+01    8.364725e-01
  2.810392e+01    8.429703e-01
  2.811980e+01    8.497521e-01
  2.813567e+01    8.540416e-01
  2.815155e+01    8.419565e-01
  2.816742e+01    8.283427e-01
  2.818330e+01    8.501344e-01
  2.819918e+01    8.768561e-01
  2.821505e+01    8.591628e-01
  2.823093e+01    8.375729e-01
  2.824680e+01    8.480784e-01
  2.826268e+01    8.589606e-01
  2.827855e+01    8.568560e-01
  2.829443e+01    8.319958e-01
  2.831030e+01    8.259784e-01
  2.832618e+01    8.268088e-01
  2.834206e+01    8.366923e-01
  2.835793e+01    8.604553e-01
  2.837381e+01    8.575713e-01
  2.838968e+01    8.598254e-01
  2.840556e+01    8.665721e-01
  2.842143e+01    8.435488e-01
  2.843731e+01    8.113590e-01
  2.845318e+01    8.154976e-01
  2.846906e+01    8.185190e-01
  2.848494e+01    8.535428e-01
  2.850081e+01    8.372401e-01
  2.851669e+01    8.337743e-01
  2.853256e+01    8.344858e-01
  2.854844e+01    8.194702e-01
  2.856431e+01    8.259306e-01
  2.858019e+01    8.250327e-01
  2.859606e+01    8.271155e-01
  2.861194e+01    8.221855e-01
  2.862782e+01    8.288907e-01
  2.864369e+01    8.263293e-01
  2.865957e+01    8.251515e-01
  2.867544e+01    8.304713e-01
  2.869132e+01    8.267556e-01
  2.870719e+01    8.148729e-01
  2.872307e+01    8.116850e-01
  2.873895e+01    8.185400e-01
  2.875482e+01    8.174867e-01
  2.877070e+01    8.306033e-01
  2.878657e+01    8.187624e-01
  2.880245e+01    8.232203e-01
  2.881832e+01    8.064582e-01
  2.883420e+01    8.122321e-01
  2.885007e+01    8.266067e-01
  2.886595e+01    8.425663e-01
  2.888183e+01    8.298182e-01
  2.889770e+01    7.957426e-01
  2.891358e+01    8.104570e-01
  2.892945e+01    8.125088e-01
  2.894533e+01    8.400325e-01
  2.896120e+01    7.992427e-01
  2.897708e+01    7.965391e-01
  2.899295e+01    8.092188e-01
  2.900883e+01    8.275795e-01
  2.902471e+01    8.163298e-01
  2.904058e+01    7.952217e-01
  2.905646e+01    7.985092e-01
  2.907233e+01    8.174341e-01
  2.908821e+01    8.256816e-01
  2.910408e+01    7.936038e-01
  2.911996e+01    7.986630e-01
  2.913583e+01    7.922602e-01
  2.915171e+01    7.937294e-01
  2.916759e+01    8.091286e-01
  2.918346e+01    7.822922e-01
  2.919934e+01    7.941292e-01
  2.921521e+01    8.184631e-01
  2.923109e+01    8.050516e-01
  2.924696e+01    8.126917e-01
  2.926284e+01    7.869815e-01
  2.927871e+01    7.970593e-01
  2.929459e+01    8.051919e-01
  2.931047e+01    8.065930e-01
  2.932634e+01    8.063396e-01
  2.934222e+01    7.842464e-01
  2.935809e+01    7.693985e-01
  2.937397e+01    8.034564e-01
  2.938984e+01    8.117868e-01
  2.940572e+01    8.128266e-01
  2.942159e+01    7.931671e-01
  2.943747e+01    7.970526e-01
  2.945335e+01    8.151813e-01
  2.946922e+01    7.911227e-01
  2.948510e+01    7.959173e-01
  2.950097e+01    8.095348e-01
  2.951685e+01    7.928640e-01
  2.953272e+01    7.821507e-01
  2.954860e+01    7.705894e-01
  2.956447e+01    7.680970e-01
  2.958035e+01    7.833785e-01
  2.959623e+01    7.840498e-01
  2.961210e+01    7.784051e-01
  2.962798e+01    7.823349e-01
  2.964385e+01    8.015295e-01
  2.965973e+01    8.011822e-01
  2.967560e+01    7.760739e-01
  2.969148e+01    7.775471e-01
  2.970736e+01    8.025876e-01
  2.972323e+01    7.824420e-01
  2.973911e+01    7.870018e-01
  2.975498e+01    8.067034e-01
  2.977086e+01    8.106416e-01
  2.978673e+01    8.070852e-01
  2.980261e+01    8.066031e-01
  2.981848e+01    7.992172e-01
  2.983436e+01    7.883455e-01
  2.985024e+01    7.856113e-01
  2.986611e+01    7.864109e-01
  2.988199e+01    7.689993e-01
  2.989786e+01    7.825347e-01
  2.991374e+01    7.809050e-01
  2.992961e+01    7.800757e-01
  2.994549e+01    7.936307e-01
  2.996136e+01    8.001650e-01
  2.997724e+01    8.151149e-01
  2.999312e+01    8.109031e-01
  3.000899e+01    7.821469e-01
  3.002487e+01    8.227196e-01
  3.004074e+01    8.267781e-01
  3.005662e+01    7.901205e-01
  3.007249e+01    7.917559e-01
  3.008837e+01    8.088766e-01
  3.010424e+01    8.010754e-01
  3.012012e+01    7.925963e-01
  3.013600e+01    7.890658e-01
  3.015187e+01    7.841872e-01
  3.016775e+01    7.874447e-01
  3.018362e+01    7.706219e-01
  3.019950e+01    7.806250e-01
  3.021537e+01    7.915248e-01
  3.023125e+01    7.839239e-01
  3.024712e+01    7.632236e-01
  3.026300e+01    7.729181e-01
  3.027888e+01    7.815161e-01
  3.029475e+01    7.668280e-01
  3.031063e+01    7.898743e-01
  3.032650e+01    7.791114e-01
  3.034238e+01    7.668701e-01
  3.035825e+01    7.828635e-01
  3.037413e+01    7.929263e-01
  3.039000e+01    7.729302e-01
  3.040588e+01    7.708902e-01
  3.042176e+01    7.880760e-01
  3.043763e+01    7.975305e-01
  3.045351e+01    7.846994e-01
  3.046938e+01    7.873875e-01
  3.048526e+01    7.628360e-01
  3.050113e+01    7.709950e-01
  3.051701e+01    8.121333e-01
  3.053288e+01    7.851069e-01
  3.054876e+01    7.816023e-01
  3.056464e+01    7.806798e-01
  3.058051e+01    7.645940e-01
  3.059639e+01    7.748907e-01
  3.061226e+01    7.840131e-01
  3.062814e+01    7.759921e-01
  3.064401e+01    7.735066e-01
  3.065989e+01    7.684966e-01
  3.067577e+01    7.930637e-01
  3.069164e+01    7.784562e-01
  3.070752e+01    7.789306e-01
  3.072339e+01    7.841217e-01
  3.073927e+01    7.767551e-01
  3.075514e+01    7.751184e-01
  3.077102e+01    7.954493e-01
  3.078689e+01    7.907647e-01
  3.080277e+01    7.810746e-01
  3.081865e+01    7.810956e-01
  3.083452e+01    7.807593e-01
  3.085040e+01    7.751365e-01
  3.086627e+01    7.854964e-01
  3.088215e+01    7.934091e-01
  3.089802e+01    7.733042e-01
  3.091390e+01    7.871525e-01
  3.092977e+01    7.997693e-01
  3.094565e+01    7.713039e-01
  3.096153e+01    7.793313e-01
  3.097740e+01    7.797119e-01
  3.099328e+01    7.593734e-01
  3.100915e+01    7.638004e-01
  3.102503e+01    7.684048e-01
  3.104090e+01    7.906250e-01
  3.105678e+01    7.653078e-01
  3.107265e+01    7.696633e-01
  3.108853e+01    7.725720e-01
  3.110441e+01    7.725204e-01
  3.112028e+01    8.060742e-01
  3.113616e+01    7.806965e-01
  3.115203e+01    7.640613e-01
  3.116791e+01    7.723363e-01
  3.118378e+01    7.497148e-01
  3.119966e+01    7.630141e-01
  3.121553e+01    7.794118e-01
  3.123141e+01    7.737040e-01
  3.124729e+01    7.818066e-01
  3.126316e+01    7.872517e-01
  3.127904e+01    7.992231e-01
  3.129491e+01    7.940318e-01
  3.131079e+01    7.968383e-01
  3.132666e+01    7.950987e-01
  3.134254e+01    7.859716e-01
  3.135841e+01    7.813647e-01
  3.137429e+01    7.979999e-01
  3.139017e+01    7.892091e-01
  3.140604e+01    7.855448e-01
  3.142192e+01    7.908880e-01
  3.143779e+01    7.778709e-01
  3.145367e+01    8.044850e-01
  3.146954e+01    8.218982e-01
  3.148542e+01    8.183288e-01
  3.150129e+01    8.336759e-01
  3.151717e+01    8.265653e-01
  3.153305e+01    8.050765e-01
  3.154892e+01    8.122591e-01
  3.156480e+01    8.379874e-01
  3.158067e+01    8.532600e-01
  3.159655e+01    8.712862e-01
  3.161242e+01    8.570098e-01
  3.162830e+01    8.647403e-01
  3.164418e+01    9.199212e-01
  3.166005e+01    9.408842e-01
  3.167593e+01    9.432214e-01
  3.169180e+01    9.706057e-01
  3.170768e+01    1.009485e+00
  3.172355e+01    1.047629e+00
  3.173943e+01    1.103972e+00
  3.175530e+01    1.170339e+00
  3.177118e+01    1.259385e+00
  3.178706e+01    1.325811e+00
  3.180293e+01    1.446181e+00
  3.181881e+01    1.557540e+00
  3.183468e+01    1.694871e+00
  3.185056e+01    1.818557e+00
  3.186643e+01    1.935165e+00
  3.188231e+01    2.007694e+00
  3.189818e+01    2.077516e+00
  3.191406e+01    2.069334e+00
  3.192994e+01    2.019075e+00
  3.194581e+01    1.951672e+00
  3.196169e+01    1.818782e+00
  3.197756e+01    1.679215e+00
  3.199344e+01    1.539622e+00
  3.200931e+01    1.425678e+00
  3.202519e+01    1.328296e+00
  3.204106e+01    1.234026e+00
  3.205694e+01    1.157333e+00
  3.207282e+01    1.103512e+00
  3.208869e+01    1.032472e+00
  3.210457e+01    9.655333e-01
  3.212044e+01    9.663175e-01
  3.213632e+01    9.231936e-01
  3.215219e+01    8.834432e-01
  3.216807e+01    8.584173e-01
  3.218394e+01    8.875584e-01
  3.219982e+01    8.561629e-01
  3.221570e+01    8.522577e-01
  3.223157e+01    8.157938e-01
  3.224745e+01    8.101566e-01
  3.226332e+01    8.026653e-01
  3.227920e+01    8.137333e-01
  3.229507e+01    8.320878e-01
  3.231095e+01    8.106918e-01
  3.232682e+01    7.945400e-01
  3.234270e+01    7.735736e-01
  3.235858e+01    7.932534e-01
  3.237445e+01    8.008800e-01
  3.239033e+01    7.942529e-01
  3.240620e+01    7.927699e-01
  3.242208e+01    7.751325e-01
  3.243795e+01    7.661518e-01
  3.245383e+01    7.811016e-01
  3.246970e+01    7.600498e-01
  3.248558e+01    7.434214e-01
  3.250146e+01    7.560849e-01
  3.251733e+01    7.780776e-01
  3.253321e+01    7.729099e-01
  3.254908e+01    7.679073e-01
