# == pyFAI calibration ==
# Distance Sample to Detector: 0.3999999939076516 m
# PONI: 9.750e-02, 1.135e-01 m
# Rotations: -0.000175 0.000000 -0.000000 rad
# 
# == Fit2d calibration ==
# Distance Sample-beamCenter: 400.000 mm
# Center: x=1514.000, y=1300.000 pix
# Tilt: 0.010 deg  TiltPlanRot: 0.010 deg
# 
# Detector Detector	 Spline= None	 PixelSize= 7.500e-05, 7.500e-05 m
#    Detector has a mask: False 
#    Detector has a dark current: False 
#    detector has a flat field: False 
# 
# Wavelength: 6.888e-11 m
# Mask applied: user provided
# Dark current applied: False
# Flat field applied: False
# Polarization factor: 0.99
# Normalization factor: 1.0
# --> /home/myspot/data/2024_07_Rosario/Ru-CGO-ex/2024-07-27_003_Ru-CGO-ex_Reaction_dwell_000023_data_000075.dat
#       q_nm^-1             I 
  2.003187e-02    0.000000e+00
  3.590745e-02    3.428878e-02
  5.178302e-02    2.169825e-01
  6.765859e-02    3.303417e-01
  8.353417e-02    2.887941e-01
  9.940974e-02    2.078229e-01
  1.152853e-01    8.125853e-02
  1.311609e-01    1.253478e-01
  1.470365e-01    9.895712e-02
  1.629120e-01    4.440578e-02
  1.787876e-01    2.471681e-02
  1.946632e-01    1.063200e-02
  2.105388e-01    6.684233e-02
  2.264143e-01    9.609706e-02
  2.422899e-01    4.995752e-02
  2.581655e-01    5.460916e-02
  2.740411e-01    4.739997e-02
  2.899166e-01    4.643387e-02
  3.057922e-01    4.041030e-02
  3.216678e-01    4.065477e-02
  3.375433e-01    8.532078e-02
  3.534189e-01    6.637231e-02
  3.692945e-01    1.530776e-02
  3.851701e-01    1.836749e-02
  4.010456e-01    3.331218e-02
  4.169212e-01    3.652642e-02
  4.327968e-01    4.661079e-02
  4.486724e-01    3.932260e-02
  4.645479e-01    2.823268e-02
  4.804235e-01    2.791446e-02
  4.962991e-01    4.937327e-02
  5.121747e-01    6.499055e-02
  5.280502e-01    4.254555e-02
  5.439258e-01    4.628660e-02
  5.598014e-01    7.049227e-02
  5.756770e-01    2.030923e-02
  5.915525e-01    5.426139e-02
  6.074281e-01    5.438922e-02
  6.233037e-01    4.261769e-02
  6.391793e-01    3.295512e-02
  6.550548e-01    5.374011e-02
  6.709304e-01    2.971674e-02
  6.868060e-01    2.778238e-02
  7.026815e-01    4.032611e-02
  7.185571e-01    4.973140e-02
  7.344327e-01    4.204020e-02
  7.503083e-01    4.244484e-02
  7.661838e-01    7.906936e-02
  7.820594e-01    9.433611e-02
  7.979350e-01    1.206360e-01
  8.138106e-01    2.303321e-01
  8.296861e-01    3.223366e-01
  8.455617e-01    3.639453e-01
  8.614373e-01    4.183700e-01
  8.773129e-01    4.976232e-01
  8.931884e-01    5.844386e-01
  9.090640e-01    6.915416e-01
  9.249396e-01    7.669854e-01
  9.408152e-01    7.847028e-01
  9.566907e-01    9.057438e-01
  9.725663e-01    1.111733e+00
  9.884419e-01    1.126904e+00
  1.004317e+00    1.158216e+00
  1.020193e+00    1.226511e+00
  1.036069e+00    1.363260e+00
  1.051944e+00    1.401098e+00
  1.067820e+00    1.418173e+00
  1.083695e+00    1.494139e+00
  1.099571e+00    1.556377e+00
  1.115446e+00    1.721814e+00
  1.131322e+00    1.688485e+00
  1.147198e+00    1.608055e+00
  1.163073e+00    1.717010e+00
  1.178949e+00    1.716078e+00
  1.194824e+00    1.866559e+00
  1.210700e+00    2.076098e+00
  1.226575e+00    2.269439e+00
  1.242451e+00    2.341948e+00
  1.258327e+00    2.397434e+00
  1.274202e+00    2.442865e+00
  1.290078e+00    2.611187e+00
  1.305953e+00    2.644930e+00
  1.321829e+00    2.737751e+00
  1.337705e+00    2.730425e+00
  1.353580e+00    2.828025e+00
  1.369456e+00    2.834220e+00
  1.385331e+00    2.716716e+00
  1.401207e+00    2.837043e+00
  1.417082e+00    2.897932e+00
  1.432958e+00    2.884533e+00
  1.448834e+00    3.039705e+00
  1.464709e+00    3.177803e+00
  1.480585e+00    3.304300e+00
  1.496460e+00    3.178806e+00
  1.512336e+00    3.199867e+00
  1.528211e+00    3.214002e+00
  1.544087e+00    3.268046e+00
  1.559963e+00    3.237903e+00
  1.575838e+00    3.198489e+00
  1.591714e+00    3.274049e+00
  1.607589e+00    3.178608e+00
  1.623465e+00    3.068944e+00
  1.639340e+00    3.162802e+00
  1.655216e+00    3.157687e+00
  1.671092e+00    3.126126e+00
  1.686967e+00    3.051394e+00
  1.702843e+00    3.126866e+00
  1.718718e+00    3.098689e+00
  1.734594e+00    3.066124e+00
  1.750469e+00    3.051300e+00
  1.766345e+00    3.006123e+00
  1.782221e+00    2.947153e+00
  1.798096e+00    3.039046e+00
  1.813972e+00    3.115291e+00
  1.829847e+00    3.051702e+00
  1.845723e+00    3.107460e+00
  1.861598e+00    3.191621e+00
  1.877474e+00    3.043305e+00
  1.893350e+00    2.996330e+00
  1.909225e+00    3.007488e+00
  1.925101e+00    3.093663e+00
  1.940976e+00    3.012567e+00
  1.956852e+00    3.050119e+00
  1.972727e+00    3.011038e+00
  1.988603e+00    3.074557e+00
  2.004479e+00    3.072355e+00
  2.020354e+00    3.095047e+00
  2.036230e+00    3.158582e+00
  2.052105e+00    3.058753e+00
  2.067981e+00    3.120532e+00
  2.083856e+00    3.139574e+00
  2.099732e+00    3.104808e+00
  2.115608e+00    3.102458e+00
  2.131483e+00    3.085382e+00
  2.147359e+00    3.135682e+00
  2.163234e+00    3.087255e+00
  2.179110e+00    3.155926e+00
  2.194985e+00    3.103930e+00
  2.210861e+00    3.160194e+00
  2.226737e+00    3.248799e+00
  2.242612e+00    3.206192e+00
  2.258488e+00    3.101301e+00
  2.274363e+00    3.172972e+00
  2.290239e+00    3.181357e+00
  2.306115e+00    3.285390e+00
  2.321990e+00    3.195847e+00
  2.337866e+00    3.100894e+00
  2.353741e+00    3.081434e+00
  2.369617e+00    3.168156e+00
  2.385492e+00    3.244901e+00
  2.401368e+00    3.297116e+00
  2.417244e+00    3.194702e+00
  2.433119e+00    3.141021e+00
  2.448995e+00    3.168405e+00
  2.464870e+00    3.161294e+00
  2.480746e+00    3.107599e+00
  2.496621e+00    3.194858e+00
  2.512497e+00    3.240302e+00
  2.528373e+00    3.216371e+00
  2.544248e+00    3.211274e+00
  2.560124e+00    3.170217e+00
  2.575999e+00    3.213054e+00
  2.591875e+00    3.195521e+00
  2.607750e+00    3.143346e+00
  2.623626e+00    3.321459e+00
  2.639502e+00    3.426491e+00
  2.655377e+00    3.333868e+00
  2.671253e+00    3.204416e+00
  2.687128e+00    3.123989e+00
  2.703004e+00    3.191675e+00
  2.718879e+00    3.166725e+00
  2.734755e+00    3.115460e+00
  2.750631e+00    3.173057e+00
  2.766506e+00    3.207585e+00
  2.782382e+00    3.262387e+00
  2.798257e+00    3.371188e+00
  2.814133e+00    3.333850e+00
  2.830008e+00    3.220691e+00
  2.845884e+00    3.142159e+00
  2.861760e+00    3.347476e+00
  2.877635e+00    3.385137e+00
  2.893511e+00    3.411919e+00
  2.909386e+00    3.328375e+00
  2.925262e+00    3.330863e+00
  2.941137e+00    3.389759e+00
  2.957013e+00    3.445502e+00
  2.972889e+00    3.297665e+00
  2.988764e+00    3.332156e+00
  3.004640e+00    3.356556e+00
  3.020515e+00    3.434021e+00
  3.036391e+00    3.383003e+00
  3.052266e+00    3.323739e+00
  3.068142e+00    3.343019e+00
  3.084018e+00    3.328253e+00
  3.099893e+00    3.329323e+00
  3.115769e+00    3.405186e+00
  3.131644e+00    3.432972e+00
  3.147520e+00    3.417799e+00
  3.163395e+00    3.318881e+00
  3.179271e+00    3.301876e+00
  3.195147e+00    3.329813e+00
  3.211022e+00    3.401456e+00
  3.226898e+00    3.384313e+00
  3.242773e+00    3.341729e+00
  3.258649e+00    3.368027e+00
  3.274525e+00    3.389980e+00
  3.290400e+00    3.312194e+00
  3.306276e+00    3.308197e+00
  3.322151e+00    3.363183e+00
  3.338027e+00    3.486101e+00
  3.353902e+00    3.422902e+00
  3.369778e+00    3.431504e+00
  3.385654e+00    3.477089e+00
  3.401529e+00    3.429513e+00
  3.417405e+00    3.425460e+00
  3.433280e+00    3.430619e+00
  3.449156e+00    3.432276e+00
  3.465031e+00    3.382879e+00
  3.480907e+00    3.463841e+00
  3.496783e+00    3.548888e+00
  3.512658e+00    3.477786e+00
  3.528534e+00    3.482081e+00
  3.544409e+00    3.422185e+00
  3.560285e+00    3.303216e+00
  3.576160e+00    3.396378e+00
  3.592036e+00    3.455595e+00
  3.607912e+00    3.366314e+00
  3.623787e+00    3.451793e+00
  3.639663e+00    3.531549e+00
  3.655538e+00    3.506034e+00
  3.671414e+00    3.491292e+00
  3.687289e+00    3.396073e+00
  3.703165e+00    3.412314e+00
  3.719041e+00    3.467189e+00
  3.734916e+00    3.430019e+00
  3.750792e+00    3.523813e+00
  3.766667e+00    3.529131e+00
  3.782543e+00    3.444225e+00
  3.798418e+00    3.414814e+00
  3.814294e+00    3.424904e+00
  3.830170e+00    3.533598e+00
  3.846045e+00    3.605618e+00
  3.861921e+00    3.517689e+00
  3.877796e+00    3.415840e+00
  3.893672e+00    3.488000e+00
  3.909547e+00    3.523698e+00
  3.925423e+00    3.511269e+00
  3.941299e+00    3.503547e+00
  3.957174e+00    3.546344e+00
  3.973050e+00    3.559504e+00
  3.988925e+00    3.476642e+00
  4.004801e+00    3.519380e+00
  4.020676e+00    3.565523e+00
  4.036552e+00    3.537601e+00
  4.052428e+00    3.519035e+00
  4.068303e+00    3.575809e+00
  4.084179e+00    3.517045e+00
  4.100054e+00    3.525021e+00
  4.115930e+00    3.564618e+00
  4.131806e+00    3.552654e+00
  4.147681e+00    3.574936e+00
  4.163557e+00    3.495860e+00
  4.179432e+00    3.564622e+00
  4.195308e+00    3.637285e+00
  4.211183e+00    3.605496e+00
  4.227059e+00    3.582236e+00
  4.242935e+00    3.646360e+00
  4.258810e+00    3.580667e+00
  4.274686e+00    3.559929e+00
  4.290561e+00    3.546112e+00
  4.306437e+00    3.597922e+00
  4.322312e+00    3.547494e+00
  4.338188e+00    3.554225e+00
  4.354064e+00    3.605445e+00
  4.369939e+00    3.649034e+00
  4.385815e+00    3.627750e+00
  4.401690e+00    3.574936e+00
  4.417566e+00    3.583351e+00
  4.433441e+00    3.648591e+00
  4.449317e+00    3.598331e+00
  4.465193e+00    3.599224e+00
  4.481068e+00    3.515339e+00
  4.496944e+00    3.475276e+00
  4.512819e+00    3.502951e+00
  4.528695e+00    3.525868e+00
  4.544570e+00    3.567983e+00
  4.560446e+00    3.598165e+00
  4.576322e+00    3.527955e+00
  4.592197e+00    3.552264e+00
  4.608073e+00    3.630992e+00
  4.623948e+00    3.628202e+00
  4.639824e+00    3.610915e+00
  4.655699e+00    3.611969e+00
  4.671575e+00    3.634423e+00
  4.687451e+00    3.615161e+00
  4.703326e+00    3.641928e+00
  4.719202e+00    3.643312e+00
  4.735077e+00    3.621539e+00
  4.750953e+00    3.627648e+00
  4.766828e+00    3.611270e+00
  4.782704e+00    3.565455e+00
  4.798580e+00    3.569502e+00
  4.814455e+00    3.539429e+00
  4.830331e+00    3.614786e+00
  4.846206e+00    3.644727e+00
  4.862082e+00    3.552563e+00
  4.877957e+00    3.645754e+00
  4.893833e+00    3.670802e+00
  4.909709e+00    3.709788e+00
  4.925584e+00    3.686968e+00
  4.941460e+00    3.712915e+00
  4.957335e+00    3.648212e+00
  4.973211e+00    3.683566e+00
  4.989086e+00    3.649223e+00
  5.004962e+00    3.596056e+00
  5.020838e+00    3.626758e+00
  5.036713e+00    3.666597e+00
  5.052589e+00    3.567817e+00
  5.068464e+00    3.659743e+00
  5.084340e+00    3.659904e+00
  5.100216e+00    3.698091e+00
  5.116091e+00    3.680861e+00
  5.131967e+00    3.644733e+00
  5.147842e+00    3.646793e+00
  5.163718e+00    3.619843e+00
  5.179593e+00    3.649362e+00
  5.195469e+00    3.686988e+00
  5.211345e+00    3.703250e+00
  5.227220e+00    3.668900e+00
  5.243096e+00    3.641824e+00
  5.258971e+00    3.691136e+00
  5.274847e+00    3.583379e+00
  5.290722e+00    3.585400e+00
  5.306598e+00    3.673103e+00
  5.322474e+00    3.635096e+00
  5.338349e+00    3.650724e+00
  5.354225e+00    3.755807e+00
  5.370100e+00    3.662206e+00
  5.385976e+00    3.708819e+00
  5.401851e+00    3.673418e+00
  5.417727e+00    3.645520e+00
  5.433603e+00    3.621905e+00
  5.449478e+00    3.600693e+00
  5.465354e+00    3.573574e+00
  5.481229e+00    3.550136e+00
  5.497105e+00    3.619031e+00
  5.512980e+00    3.611261e+00
  5.528856e+00    3.674162e+00
  5.544732e+00    3.623144e+00
  5.560607e+00    3.589272e+00
  5.576483e+00    3.643095e+00
  5.592358e+00    3.637805e+00
  5.608234e+00    3.621804e+00
  5.624109e+00    3.536729e+00
  5.639985e+00    3.558790e+00
  5.655861e+00    3.561792e+00
  5.671736e+00    3.515917e+00
  5.687612e+00    3.488109e+00
  5.703487e+00    3.480793e+00
  5.719363e+00    3.548547e+00
  5.735238e+00    3.655691e+00
  5.751114e+00    3.513827e+00
  5.766990e+00    3.517258e+00
  5.782865e+00    3.622876e+00
  5.798741e+00    3.611916e+00
  5.814616e+00    3.596038e+00
  5.830492e+00    3.549113e+00
  5.846367e+00    3.561431e+00
  5.862243e+00    3.536683e+00
  5.878119e+00    3.500762e+00
  5.893994e+00    3.519090e+00
  5.909870e+00    3.519003e+00
  5.925745e+00    3.449428e+00
  5.941621e+00    3.422207e+00
  5.957497e+00    3.412272e+00
  5.973372e+00    3.515039e+00
  5.989248e+00    3.419550e+00
  6.005123e+00    3.532597e+00
  6.020999e+00    3.537733e+00
  6.036874e+00    3.534515e+00
  6.052750e+00    3.580980e+00
  6.068626e+00    3.636302e+00
  6.084501e+00    3.630796e+00
  6.100377e+00    3.606844e+00
  6.116252e+00    3.614812e+00
  6.132128e+00    3.558591e+00
  6.148003e+00    3.534219e+00
  6.163879e+00    3.600625e+00
  6.179755e+00    3.651834e+00
  6.195630e+00    3.561797e+00
  6.211506e+00    3.505452e+00
  6.227381e+00    3.522487e+00
  6.243257e+00    3.536204e+00
  6.259132e+00    3.584391e+00
  6.275008e+00    3.556494e+00
  6.290884e+00    3.500123e+00
  6.306759e+00    3.558160e+00
  6.322635e+00    3.492411e+00
  6.338510e+00    3.514670e+00
  6.354386e+00    3.485746e+00
  6.370261e+00    3.587406e+00
  6.386137e+00    3.625241e+00
  6.402013e+00    3.511177e+00
  6.417888e+00    3.497304e+00
  6.433764e+00    3.486238e+00
  6.449639e+00    3.563021e+00
  6.465515e+00    3.550313e+00
  6.481390e+00    3.625787e+00
  6.497266e+00    3.540775e+00
  6.513142e+00    3.516038e+00
  6.529017e+00    3.488683e+00
  6.544893e+00    3.527618e+00
  6.560768e+00    3.511293e+00
  6.576644e+00    3.495985e+00
  6.592519e+00    3.574699e+00
  6.608395e+00    3.513402e+00
  6.624271e+00    3.534582e+00
  6.640146e+00    3.561455e+00
  6.656022e+00    3.534264e+00
  6.671897e+00    3.511655e+00
  6.687773e+00    3.545529e+00
  6.703648e+00    3.511804e+00
  6.719524e+00    3.515889e+00
  6.735400e+00    3.582386e+00
  6.751275e+00    3.571702e+00
  6.767151e+00    3.528037e+00
  6.783026e+00    3.539519e+00
  6.798902e+00    3.623965e+00
  6.814777e+00    3.600576e+00
  6.830653e+00    3.561450e+00
  6.846529e+00    3.500612e+00
  6.862404e+00    3.495646e+00
  6.878280e+00    3.565089e+00
  6.894155e+00    3.568091e+00
  6.910031e+00    3.591665e+00
  6.925907e+00    3.554250e+00
  6.941782e+00    3.466477e+00
  6.957658e+00    3.504879e+00
  6.973533e+00    3.561645e+00
  6.989409e+00    3.590288e+00
  7.005284e+00    3.534189e+00
  7.021160e+00    3.473259e+00
  7.037036e+00    3.466151e+00
  7.052911e+00    3.454055e+00
  7.068787e+00    3.507980e+00
  7.084662e+00    3.493643e+00
  7.100538e+00    3.461511e+00
  7.116413e+00    3.495134e+00
  7.132289e+00    3.544574e+00
  7.148165e+00    3.514063e+00
  7.164040e+00    3.524010e+00
  7.179916e+00    3.562298e+00
  7.195791e+00    3.557893e+00
  7.211667e+00    3.490225e+00
  7.227542e+00    3.425763e+00
  7.243418e+00    3.509736e+00
  7.259294e+00    3.528810e+00
  7.275169e+00    3.523389e+00
  7.291045e+00    3.579608e+00
  7.306920e+00    3.515664e+00
  7.322796e+00    3.477569e+00
  7.338671e+00    3.447870e+00
  7.354547e+00    3.463052e+00
  7.370423e+00    3.533154e+00
  7.386298e+00    3.496139e+00
  7.402174e+00    3.456702e+00
  7.418049e+00    3.519719e+00
  7.433925e+00    3.548033e+00
  7.449800e+00    3.503269e+00
  7.465676e+00    3.493663e+00
  7.481552e+00    3.482061e+00
  7.497427e+00    3.466097e+00
  7.513303e+00    3.505529e+00
  7.529178e+00    3.489499e+00
  7.545054e+00    3.521584e+00
  7.560929e+00    3.461847e+00
  7.576805e+00    3.445474e+00
  7.592681e+00    3.510875e+00
  7.608556e+00    3.511590e+00
  7.624432e+00    3.490816e+00
  7.640307e+00    3.496015e+00
  7.656183e+00    3.430019e+00
  7.672058e+00    3.448225e+00
  7.687934e+00    3.391628e+00
  7.703810e+00    3.436316e+00
  7.719685e+00    3.412570e+00
  7.735561e+00    3.441077e+00
  7.751436e+00    3.502473e+00
  7.767312e+00    3.431774e+00
  7.783187e+00    3.458546e+00
  7.799063e+00    3.446713e+00
  7.814939e+00    3.439923e+00
  7.830814e+00    3.439702e+00
  7.846690e+00    3.477693e+00
  7.862565e+00    3.432032e+00
  7.878441e+00    3.359335e+00
  7.894317e+00    3.318058e+00
  7.910192e+00    3.358291e+00
  7.926068e+00    3.462074e+00
  7.941943e+00    3.410881e+00
  7.957819e+00    3.339963e+00
  7.973694e+00    3.390277e+00
  7.989570e+00    3.418982e+00
  8.005446e+00    3.378977e+00
  8.021321e+00    3.382354e+00
  8.037197e+00    3.394530e+00
  8.053072e+00    3.340442e+00
  8.068948e+00    3.353143e+00
  8.084823e+00    3.470429e+00
  8.100699e+00    3.451980e+00
  8.116575e+00    3.478710e+00
  8.132450e+00    3.524047e+00
  8.148326e+00    3.516593e+00
  8.164201e+00    3.474022e+00
  8.180077e+00    3.449131e+00
  8.195952e+00    3.478964e+00
  8.211828e+00    3.512698e+00
  8.227704e+00    3.462487e+00
  8.243579e+00    3.454287e+00
  8.259455e+00    3.419166e+00
  8.275330e+00    3.442451e+00
  8.291206e+00    3.378418e+00
  8.307081e+00    3.397062e+00
  8.322957e+00    3.454428e+00
  8.338833e+00    3.402247e+00
  8.354708e+00    3.388498e+00
  8.370584e+00    3.410203e+00
  8.386459e+00    3.328328e+00
  8.402335e+00    3.311114e+00
  8.418210e+00    3.383049e+00
  8.434086e+00    3.410512e+00
  8.449962e+00    3.350330e+00
  8.465837e+00    3.335256e+00
  8.481713e+00    3.368123e+00
  8.497588e+00    3.307025e+00
  8.513464e+00    3.397967e+00
  8.529339e+00    3.394463e+00
  8.545215e+00    3.310640e+00
  8.561091e+00    3.307822e+00
  8.576966e+00    3.337250e+00
  8.592842e+00    3.365139e+00
  8.608717e+00    3.339775e+00
  8.624593e+00    3.320235e+00
  8.640468e+00    3.315575e+00
  8.656344e+00    3.320904e+00
  8.672220e+00    3.316500e+00
  8.688095e+00    3.345999e+00
  8.703971e+00    3.387981e+00
  8.719846e+00    3.346117e+00
  8.735722e+00    3.353966e+00
  8.751598e+00    3.353192e+00
  8.767473e+00    3.276758e+00
  8.783349e+00    3.240888e+00
  8.799224e+00    3.252917e+00
  8.815100e+00    3.301328e+00
  8.830975e+00    3.332583e+00
  8.846851e+00    3.352973e+00
  8.862727e+00    3.304984e+00
  8.878602e+00    3.302645e+00
  8.894478e+00    3.279829e+00
  8.910353e+00    3.272094e+00
  8.926229e+00    3.278718e+00
  8.942104e+00    3.313610e+00
  8.957980e+00    3.285827e+00
  8.973856e+00    3.239629e+00
  8.989731e+00    3.196750e+00
  9.005607e+00    3.203621e+00
  9.021482e+00    3.261030e+00
  9.037358e+00    3.287036e+00
  9.053233e+00    3.275668e+00
  9.069109e+00    3.297399e+00
  9.084985e+00    3.323328e+00
  9.100860e+00    3.281742e+00
  9.116736e+00    3.243573e+00
  9.132611e+00    3.255596e+00
  9.148487e+00    3.247242e+00
  9.164362e+00    3.227449e+00
  9.180238e+00    3.260082e+00
  9.196114e+00    3.223668e+00
  9.211989e+00    3.257495e+00
  9.227865e+00    3.286593e+00
  9.243740e+00    3.284671e+00
  9.259616e+00    3.294251e+00
  9.275491e+00    3.181747e+00
  9.291367e+00    3.202069e+00
  9.307243e+00    3.244725e+00
  9.323118e+00    3.265238e+00
  9.338994e+00    3.229446e+00
  9.354869e+00    3.198921e+00
  9.370745e+00    3.227546e+00
  9.386620e+00    3.187935e+00
  9.402496e+00    3.203436e+00
  9.418372e+00    3.164955e+00
  9.434247e+00    3.211060e+00
  9.450123e+00    3.168921e+00
  9.465998e+00    3.166257e+00
  9.481874e+00    3.197367e+00
  9.497749e+00    3.210878e+00
  9.513625e+00    3.193423e+00
  9.529501e+00    3.222942e+00
  9.545376e+00    3.306813e+00
  9.561252e+00    3.244695e+00
  9.577127e+00    3.224549e+00
  9.593003e+00    3.175045e+00
  9.608878e+00    3.170225e+00
  9.624754e+00    3.182834e+00
  9.640630e+00    3.141627e+00
  9.656505e+00    3.194779e+00
  9.672381e+00    3.200504e+00
  9.688256e+00    3.169421e+00
  9.704132e+00    3.172754e+00
  9.720008e+00    3.145374e+00
  9.735883e+00    3.157417e+00
  9.751759e+00    3.164689e+00
  9.767634e+00    3.090673e+00
  9.783510e+00    3.151001e+00
  9.799385e+00    3.237971e+00
  9.815261e+00    3.152233e+00
  9.831137e+00    3.149221e+00
  9.847012e+00    3.165995e+00
  9.862888e+00    3.146863e+00
  9.878763e+00    3.115752e+00
  9.894639e+00    3.101498e+00
  9.910514e+00    3.069007e+00
  9.926390e+00    3.056706e+00
  9.942266e+00    3.097258e+00
  9.958141e+00    3.074027e+00
  9.974017e+00    3.082871e+00
  9.989892e+00    3.075957e+00
  1.000577e+01    3.125187e+00
  1.002164e+01    3.101900e+00
  1.003752e+01    3.062990e+00
  1.005339e+01    3.038187e+00
  1.006927e+01    3.087859e+00
  1.008515e+01    3.153506e+00
  1.010102e+01    3.102757e+00
  1.011690e+01    3.061604e+00
  1.013277e+01    3.070363e+00
  1.014865e+01    3.113881e+00
  1.016452e+01    3.096021e+00
  1.018040e+01    3.053953e+00
  1.019627e+01    3.045562e+00
  1.021215e+01    3.062248e+00
  1.022803e+01    3.063603e+00
  1.024390e+01    3.061520e+00
  1.025978e+01    3.067212e+00
  1.027565e+01    3.082291e+00
  1.029153e+01    3.053046e+00
  1.030740e+01    3.042332e+00
  1.032328e+01    3.030112e+00
  1.033915e+01    3.011302e+00
  1.035503e+01    2.975022e+00
  1.037091e+01    2.980671e+00
  1.038678e+01    3.000445e+00
  1.040266e+01    2.996845e+00
  1.041853e+01    3.076118e+00
  1.043441e+01    3.078418e+00
  1.045028e+01    3.041106e+00
  1.046616e+01    3.018512e+00
  1.048204e+01    3.003040e+00
  1.049791e+01    2.993126e+00
  1.051379e+01    2.954644e+00
  1.052966e+01    3.008658e+00
  1.054554e+01    3.019006e+00
  1.056141e+01    2.994173e+00
  1.057729e+01    2.947080e+00
  1.059316e+01    2.947979e+00
  1.060904e+01    2.981644e+00
  1.062492e+01    3.020647e+00
  1.064079e+01    3.021624e+00
  1.065667e+01    2.979288e+00
  1.067254e+01    2.997599e+00
  1.068842e+01    3.008617e+00
  1.070429e+01    2.975395e+00
  1.072017e+01    2.946123e+00
  1.073604e+01    2.955673e+00
  1.075192e+01    2.975849e+00
  1.076780e+01    2.939611e+00
  1.078367e+01    2.918485e+00
  1.079955e+01    2.915969e+00
  1.081542e+01    2.929592e+00
  1.083130e+01    2.891912e+00
  1.084717e+01    2.898219e+00
  1.086305e+01    2.914404e+00
  1.087892e+01    2.955053e+00
  1.089480e+01    2.924870e+00
  1.091068e+01    2.893695e+00
  1.092655e+01    2.923115e+00
  1.094243e+01    2.935679e+00
  1.095830e+01    2.903360e+00
  1.097418e+01    2.865793e+00
  1.099005e+01    2.890867e+00
  1.100593e+01    2.847473e+00
  1.102180e+01    2.847038e+00
  1.103768e+01    2.867541e+00
  1.105356e+01    2.825415e+00
  1.106943e+01    2.819071e+00
  1.108531e+01    2.818815e+00
  1.110118e+01    2.831408e+00
  1.111706e+01    2.867671e+00
  1.113293e+01    2.883440e+00
  1.114881e+01    2.844219e+00
  1.116468e+01    2.813936e+00
  1.118056e+01    2.863375e+00
  1.119644e+01    2.872001e+00
  1.121231e+01    2.832180e+00
  1.122819e+01    2.823545e+00
  1.124406e+01    2.809080e+00
  1.125994e+01    2.824585e+00
  1.127581e+01    2.808210e+00
  1.129169e+01    2.812283e+00
  1.130756e+01    2.776242e+00
  1.132344e+01    2.789453e+00
  1.133932e+01    2.820687e+00
  1.135519e+01    2.846925e+00
  1.137107e+01    2.775472e+00
  1.138694e+01    2.794530e+00
  1.140282e+01    2.820597e+00
  1.141869e+01    2.819898e+00
  1.143457e+01    2.816748e+00
  1.145045e+01    2.775045e+00
  1.146632e+01    2.848397e+00
  1.148220e+01    2.796564e+00
  1.149807e+01    2.741932e+00
  1.151395e+01    2.761356e+00
  1.152982e+01    2.784772e+00
  1.154570e+01    2.776650e+00
  1.156157e+01    2.829363e+00
  1.157745e+01    2.801296e+00
  1.159333e+01    2.717587e+00
  1.160920e+01    2.770354e+00
  1.162508e+01    2.774266e+00
  1.164095e+01    2.752577e+00
  1.165683e+01    2.765047e+00
  1.167270e+01    2.770696e+00
  1.168858e+01    2.723190e+00
  1.170445e+01    2.745387e+00
  1.172033e+01    2.796782e+00
  1.173621e+01    2.749127e+00
  1.175208e+01    2.727875e+00
  1.176796e+01    2.666729e+00
  1.178383e+01    2.655333e+00
  1.179971e+01    2.762614e+00
  1.181558e+01    2.750202e+00
  1.183146e+01    2.685876e+00
  1.184733e+01    2.692496e+00
  1.186321e+01    2.736489e+00
  1.187909e+01    2.756264e+00
  1.189496e+01    2.667089e+00
  1.191084e+01    2.687855e+00
  1.192671e+01    2.685107e+00
  1.194259e+01    2.733121e+00
  1.195846e+01    2.723714e+00
  1.197434e+01    2.722948e+00
  1.199021e+01    2.686195e+00
  1.200609e+01    2.711972e+00
  1.202197e+01    2.708186e+00
  1.203784e+01    2.698890e+00
  1.205372e+01    2.732038e+00
  1.206959e+01    2.695549e+00
  1.208547e+01    2.650978e+00
  1.210134e+01    2.639454e+00
  1.211722e+01    2.654226e+00
  1.213309e+01    2.680982e+00
  1.214897e+01    2.709354e+00
  1.216485e+01    2.726649e+00
  1.218072e+01    2.702307e+00
  1.219660e+01    2.669579e+00
  1.221247e+01    2.692067e+00
  1.222835e+01    2.670657e+00
  1.224422e+01    2.682310e+00
  1.226010e+01    2.731707e+00
  1.227597e+01    2.690043e+00
  1.229185e+01    2.655058e+00
  1.230773e+01    2.660154e+00
  1.232360e+01    2.658459e+00
  1.233948e+01    2.659646e+00
  1.235535e+01    2.648119e+00
  1.237123e+01    2.726233e+00
  1.238710e+01    2.720155e+00
  1.240298e+01    2.704078e+00
  1.241886e+01    2.700145e+00
  1.243473e+01    2.683826e+00
  1.245061e+01    2.668556e+00
  1.246648e+01    2.671381e+00
  1.248236e+01    2.676583e+00
  1.249823e+01    2.710932e+00
  1.251411e+01    2.719907e+00
  1.252998e+01    2.700740e+00
  1.254586e+01    2.704225e+00
  1.256174e+01    2.739021e+00
  1.257761e+01    2.729009e+00
  1.259349e+01    2.729260e+00
  1.260936e+01    2.716145e+00
  1.262524e+01    2.733615e+00
  1.264111e+01    2.702355e+00
  1.265699e+01    2.795276e+00
  1.267286e+01    2.811071e+00
  1.268874e+01    2.766415e+00
  1.270462e+01    2.787414e+00
  1.272049e+01    2.839788e+00
  1.273637e+01    2.924520e+00
  1.275224e+01    2.928945e+00
  1.276812e+01    2.884001e+00
  1.278399e+01    2.910781e+00
  1.279987e+01    2.985871e+00
  1.281574e+01    3.026699e+00
  1.283162e+01    3.105046e+00
  1.284750e+01    3.187403e+00
  1.286337e+01    3.291502e+00
  1.287925e+01    3.339092e+00
  1.289512e+01    3.501442e+00
  1.291100e+01    3.690485e+00
  1.292687e+01    3.919109e+00
  1.294275e+01    4.106157e+00
  1.295862e+01    4.408118e+00
  1.297450e+01    4.780590e+00
  1.299038e+01    5.327293e+00
  1.300625e+01    5.999485e+00
  1.302213e+01    6.851554e+00
  1.303800e+01    7.932809e+00
  1.305388e+01    9.055378e+00
  1.306975e+01    1.030232e+01
  1.308563e+01    1.170324e+01
  1.310150e+01    1.296153e+01
  1.311738e+01    1.393712e+01
  1.313326e+01    1.504861e+01
  1.314913e+01    1.593820e+01
  1.316501e+01    1.651316e+01
  1.318088e+01    1.645639e+01
  1.319676e+01    1.555455e+01
  1.321263e+01    1.401365e+01
  1.322851e+01    1.216461e+01
  1.324438e+01    1.043135e+01
  1.326026e+01    8.881941e+00
  1.327614e+01    7.664320e+00
  1.329201e+01    6.600748e+00
  1.330789e+01    5.851165e+00
  1.332376e+01    5.212369e+00
  1.333964e+01    4.744009e+00
  1.335551e+01    4.405731e+00
  1.337139e+01    4.092488e+00
  1.338727e+01    3.787467e+00
  1.340314e+01    3.589884e+00
  1.341902e+01    3.489693e+00
  1.343489e+01    3.355872e+00
  1.345077e+01    3.214548e+00
  1.346664e+01    3.122103e+00
  1.348252e+01    3.037503e+00
  1.349839e+01    2.946584e+00
  1.351427e+01    2.860691e+00
  1.353015e+01    2.829123e+00
  1.354602e+01    2.804667e+00
  1.356190e+01    2.747573e+00
  1.357777e+01    2.736003e+00
  1.359365e+01    2.690986e+00
  1.360952e+01    2.653568e+00
  1.362540e+01    2.650475e+00
  1.364127e+01    2.649764e+00
  1.365715e+01    2.608293e+00
  1.367303e+01    2.587137e+00
  1.368890e+01    2.563819e+00
  1.370478e+01    2.551359e+00
  1.372065e+01    2.549726e+00
  1.373653e+01    2.525778e+00
  1.375240e+01    2.496062e+00
  1.376828e+01    2.524024e+00
  1.378415e+01    2.505708e+00
  1.380003e+01    2.478079e+00
  1.381591e+01    2.485981e+00
  1.383178e+01    2.467564e+00
  1.384766e+01    2.419376e+00
  1.386353e+01    2.409938e+00
  1.387941e+01    2.432024e+00
  1.389528e+01    2.424139e+00
  1.391116e+01    2.402050e+00
  1.392703e+01    2.396907e+00
  1.394291e+01    2.384654e+00
  1.395879e+01    2.382556e+00
  1.397466e+01    2.424010e+00
  1.399054e+01    2.372786e+00
  1.400641e+01    2.351730e+00
  1.402229e+01    2.385705e+00
  1.403816e+01    2.354607e+00
  1.405404e+01    2.313574e+00
  1.406991e+01    2.314463e+00
  1.408579e+01    2.308744e+00
  1.410167e+01    2.328466e+00
  1.411754e+01    2.311450e+00
  1.413342e+01    2.291221e+00
  1.414929e+01    2.304481e+00
  1.416517e+01    2.309068e+00
  1.418104e+01    2.284570e+00
  1.419692e+01    2.260599e+00
  1.421279e+01    2.250633e+00
  1.422867e+01    2.275707e+00
  1.424455e+01    2.325039e+00
  1.426042e+01    2.314500e+00
  1.427630e+01    2.303795e+00
  1.429217e+01    2.257544e+00
  1.430805e+01    2.269777e+00
  1.432392e+01    2.248221e+00
  1.433980e+01    2.213650e+00
  1.435568e+01    2.228790e+00
  1.437155e+01    2.243959e+00
  1.438743e+01    2.214333e+00
  1.440330e+01    2.250688e+00
  1.441918e+01    2.244901e+00
  1.443505e+01    2.216932e+00
  1.445093e+01    2.267445e+00
  1.446680e+01    2.242205e+00
  1.448268e+01    2.223258e+00
  1.449856e+01    2.232379e+00
  1.451443e+01    2.185477e+00
  1.453031e+01    2.216906e+00
  1.454618e+01    2.229265e+00
  1.456206e+01    2.196517e+00
  1.457793e+01    2.235527e+00
  1.459381e+01    2.237638e+00
  1.460968e+01    2.218707e+00
  1.462556e+01    2.211927e+00
  1.464144e+01    2.225298e+00
  1.465731e+01    2.246330e+00
  1.467319e+01    2.219791e+00
  1.468906e+01    2.209344e+00
  1.470494e+01    2.216855e+00
  1.472081e+01    2.191134e+00
  1.473669e+01    2.195121e+00
  1.475256e+01    2.226600e+00
  1.476844e+01    2.192310e+00
  1.478432e+01    2.182231e+00
  1.480019e+01    2.177478e+00
  1.481607e+01    2.147358e+00
  1.483194e+01    2.196454e+00
  1.484782e+01    2.212780e+00
  1.486369e+01    2.230079e+00
  1.487957e+01    2.215669e+00
  1.489544e+01    2.229407e+00
  1.491132e+01    2.243191e+00
  1.492720e+01    2.280068e+00
  1.494307e+01    2.277890e+00
  1.495895e+01    2.289234e+00
  1.497482e+01    2.329255e+00
  1.499070e+01    2.384375e+00
  1.500657e+01    2.456104e+00
  1.502245e+01    2.546675e+00
  1.503832e+01    2.618460e+00
  1.505420e+01    2.690299e+00
  1.507008e+01    2.880882e+00
  1.508595e+01    3.024030e+00
  1.510183e+01    3.215915e+00
  1.511770e+01    3.518864e+00
  1.513358e+01    3.841630e+00
  1.514945e+01    4.240172e+00
  1.516533e+01    4.592474e+00
  1.518120e+01    4.892612e+00
  1.519708e+01    5.252282e+00
  1.521296e+01    5.507968e+00
  1.522883e+01    5.672492e+00
  1.524471e+01    5.766762e+00
  1.526058e+01    5.793566e+00
  1.527646e+01    5.714002e+00
  1.529233e+01    5.394304e+00
  1.530821e+01    5.109218e+00
  1.532409e+01    4.591045e+00
  1.533996e+01    4.110765e+00
  1.535584e+01    3.728317e+00
  1.537171e+01    3.424323e+00
  1.538759e+01    3.125145e+00
  1.540346e+01    2.935893e+00
  1.541934e+01    2.753659e+00
  1.543521e+01    2.639777e+00
  1.545109e+01    2.498380e+00
  1.546697e+01    2.399435e+00
  1.548284e+01    2.359138e+00
  1.549872e+01    2.273429e+00
  1.551459e+01    2.233754e+00
  1.553047e+01    2.195942e+00
  1.554634e+01    2.163935e+00
  1.556222e+01    2.197225e+00
  1.557809e+01    2.120097e+00
  1.559397e+01    2.093785e+00
  1.560985e+01    2.075224e+00
  1.562572e+01    2.041572e+00
  1.564160e+01    2.032388e+00
  1.565747e+01    2.001049e+00
  1.567335e+01    1.993892e+00
  1.568922e+01    2.025901e+00
  1.570510e+01    1.982605e+00
  1.572097e+01    2.007050e+00
  1.573685e+01    2.004749e+00
  1.575273e+01    1.971539e+00
  1.576860e+01    1.973733e+00
  1.578448e+01    1.945671e+00
  1.580035e+01    1.929610e+00
  1.581623e+01    1.894776e+00
  1.583210e+01    1.895916e+00
  1.584798e+01    1.922879e+00
  1.586385e+01    1.924924e+00
  1.587973e+01    1.885399e+00
  1.589561e+01    1.880212e+00
  1.591148e+01    1.875642e+00
  1.592736e+01    1.907831e+00
  1.594323e+01    1.829737e+00
  1.595911e+01    1.889207e+00
  1.597498e+01    1.904926e+00
  1.599086e+01    1.873569e+00
  1.600673e+01    1.873522e+00
  1.602261e+01    1.889277e+00
  1.603849e+01    1.860887e+00
  1.605436e+01    1.854452e+00
  1.607024e+01    1.864775e+00
  1.608611e+01    1.843840e+00
  1.610199e+01    1.805288e+00
  1.611786e+01    1.830896e+00
  1.613374e+01    1.854768e+00
  1.614961e+01    1.841819e+00
  1.616549e+01    1.819448e+00
  1.618137e+01    1.794209e+00
  1.619724e+01    1.807860e+00
  1.621312e+01    1.791485e+00
  1.622899e+01    1.815236e+00
  1.624487e+01    1.825545e+00
  1.626074e+01    1.832477e+00
  1.627662e+01    1.817046e+00
  1.629250e+01    1.803406e+00
  1.630837e+01    1.843468e+00
  1.632425e+01    1.811980e+00
  1.634012e+01    1.800596e+00
  1.635600e+01    1.802863e+00
  1.637187e+01    1.792995e+00
  1.638775e+01    1.779394e+00
  1.640362e+01    1.794676e+00
  1.641950e+01    1.768611e+00
  1.643538e+01    1.762475e+00
  1.645125e+01    1.788050e+00
  1.646713e+01    1.752172e+00
  1.648300e+01    1.757696e+00
  1.649888e+01    1.753082e+00
  1.651475e+01    1.748167e+00
  1.653063e+01    1.744803e+00
  1.654650e+01    1.759848e+00
  1.656238e+01    1.767561e+00
  1.657826e+01    1.779663e+00
  1.659413e+01    1.724772e+00
  1.661001e+01    1.750749e+00
  1.662588e+01    1.729758e+00
  1.664176e+01    1.732159e+00
  1.665763e+01    1.729265e+00
  1.667351e+01    1.708625e+00
  1.668938e+01    1.724028e+00
  1.670526e+01    1.707943e+00
  1.672114e+01    1.722154e+00
  1.673701e+01    1.708199e+00
  1.675289e+01    1.727797e+00
  1.676876e+01    1.695465e+00
  1.678464e+01    1.721356e+00
  1.680051e+01    1.712282e+00
  1.681639e+01    1.688019e+00
  1.683226e+01    1.682021e+00
  1.684814e+01    1.662585e+00
  1.686402e+01    1.681671e+00
  1.687989e+01    1.662032e+00
  1.689577e+01    1.656261e+00
  1.691164e+01    1.671571e+00
  1.692752e+01    1.678031e+00
  1.694339e+01    1.704365e+00
  1.695927e+01    1.695418e+00
  1.697514e+01    1.668872e+00
  1.699102e+01    1.639344e+00
  1.700690e+01    1.680834e+00
  1.702277e+01    1.646063e+00
  1.703865e+01    1.632032e+00
  1.705452e+01    1.666380e+00
  1.707040e+01    1.640743e+00
  1.708627e+01    1.622067e+00
  1.710215e+01    1.648909e+00
  1.711802e+01    1.647623e+00
  1.713390e+01    1.616332e+00
  1.714978e+01    1.618349e+00
  1.716565e+01    1.613497e+00
  1.718153e+01    1.605418e+00
  1.719740e+01    1.620242e+00
  1.721328e+01    1.626628e+00
  1.722915e+01    1.617363e+00
  1.724503e+01    1.630095e+00
  1.726091e+01    1.612779e+00
  1.727678e+01    1.619157e+00
  1.729266e+01    1.624976e+00
  1.730853e+01    1.595787e+00
  1.732441e+01    1.591529e+00
  1.734028e+01    1.639918e+00
  1.735616e+01    1.620823e+00
  1.737203e+01    1.590567e+00
  1.738791e+01    1.578367e+00
  1.740379e+01    1.594961e+00
  1.741966e+01    1.619444e+00
  1.743554e+01    1.618269e+00
  1.745141e+01    1.628586e+00
  1.746729e+01    1.585526e+00
  1.748316e+01    1.601541e+00
  1.749904e+01    1.606875e+00
  1.751491e+01    1.586234e+00
  1.753079e+01    1.544096e+00
  1.754667e+01    1.566991e+00
  1.756254e+01    1.577875e+00
  1.757842e+01    1.567574e+00
  1.759429e+01    1.561479e+00
  1.761017e+01    1.586610e+00
  1.762604e+01    1.590461e+00
  1.764192e+01    1.541798e+00
  1.765779e+01    1.532248e+00
  1.767367e+01    1.538296e+00
  1.768955e+01    1.553776e+00
  1.770542e+01    1.565756e+00
  1.772130e+01    1.553824e+00
  1.773717e+01    1.580495e+00
  1.775305e+01    1.559757e+00
  1.776892e+01    1.538275e+00
  1.778480e+01    1.498751e+00
  1.780067e+01    1.500299e+00
  1.781655e+01    1.550152e+00
  1.783243e+01    1.543863e+00
  1.784830e+01    1.529093e+00
  1.786418e+01    1.532138e+00
  1.788005e+01    1.537984e+00
  1.789593e+01    1.527813e+00
  1.791180e+01    1.512738e+00
  1.792768e+01    1.509206e+00
  1.794355e+01    1.506764e+00
  1.795943e+01    1.520158e+00
  1.797531e+01    1.498073e+00
  1.799118e+01    1.495533e+00
  1.800706e+01    1.482109e+00
  1.802293e+01    1.522575e+00
  1.803881e+01    1.499259e+00
  1.805468e+01    1.482142e+00
  1.807056e+01    1.482362e+00
  1.808643e+01    1.474765e+00
  1.810231e+01    1.474448e+00
  1.811819e+01    1.507085e+00
  1.813406e+01    1.507050e+00
  1.814994e+01    1.479080e+00
  1.816581e+01    1.458627e+00
  1.818169e+01    1.492978e+00
  1.819756e+01    1.493817e+00
  1.821344e+01    1.487000e+00
  1.822932e+01    1.490666e+00
  1.824519e+01    1.461733e+00
  1.826107e+01    1.466354e+00
  1.827694e+01    1.481820e+00
  1.829282e+01    1.461673e+00
  1.830869e+01    1.454072e+00
  1.832457e+01    1.458378e+00
  1.834044e+01    1.462062e+00
  1.835632e+01    1.461292e+00
  1.837220e+01    1.442271e+00
  1.838807e+01    1.437437e+00
  1.840395e+01    1.469812e+00
  1.841982e+01    1.423991e+00
  1.843570e+01    1.444794e+00
  1.845157e+01    1.442494e+00
  1.846745e+01    1.469355e+00
  1.848332e+01    1.427940e+00
  1.849920e+01    1.418967e+00
  1.851508e+01    1.439680e+00
  1.853095e+01    1.410733e+00
  1.854683e+01    1.418324e+00
  1.856270e+01    1.417778e+00
  1.857858e+01    1.429896e+00
  1.859445e+01    1.445968e+00
  1.861033e+01    1.422080e+00
  1.862620e+01    1.416231e+00
  1.864208e+01    1.411716e+00
  1.865796e+01    1.393281e+00
  1.867383e+01    1.386695e+00
  1.868971e+01    1.406592e+00
  1.870558e+01    1.403582e+00
  1.872146e+01    1.387093e+00
  1.873733e+01    1.407040e+00
  1.875321e+01    1.399130e+00
  1.876908e+01    1.394410e+00
  1.878496e+01    1.400876e+00
  1.880084e+01    1.361292e+00
  1.881671e+01    1.383693e+00
  1.883259e+01    1.386145e+00
  1.884846e+01    1.394307e+00
  1.886434e+01    1.404395e+00
  1.888021e+01    1.415462e+00
  1.889609e+01    1.410624e+00
  1.891196e+01    1.379973e+00
  1.892784e+01    1.358799e+00
  1.894372e+01    1.348148e+00
  1.895959e+01    1.364985e+00
  1.897547e+01    1.369876e+00
  1.899134e+01    1.386301e+00
  1.900722e+01    1.393587e+00
  1.902309e+01    1.383719e+00
  1.903897e+01    1.372893e+00
  1.905484e+01    1.385902e+00
  1.907072e+01    1.430219e+00
  1.908660e+01    1.424549e+00
  1.910247e+01    1.373040e+00
  1.911835e+01    1.362271e+00
  1.913422e+01    1.342022e+00
  1.915010e+01    1.334467e+00
  1.916597e+01    1.362631e+00
  1.918185e+01    1.374648e+00
  1.919773e+01    1.392960e+00
  1.921360e+01    1.370171e+00
  1.922948e+01    1.368288e+00
  1.924535e+01    1.373238e+00
  1.926123e+01    1.326487e+00
  1.927710e+01    1.315968e+00
  1.929298e+01    1.356359e+00
  1.930885e+01    1.360307e+00
  1.932473e+01    1.327949e+00
  1.934061e+01    1.355058e+00
  1.935648e+01    1.360842e+00
  1.937236e+01    1.319595e+00
  1.938823e+01    1.332875e+00
  1.940411e+01    1.327316e+00
  1.941998e+01    1.323568e+00
  1.943586e+01    1.311033e+00
  1.945173e+01    1.320890e+00
  1.946761e+01    1.326833e+00
  1.948349e+01    1.315765e+00
  1.949936e+01    1.335983e+00
  1.951524e+01    1.319732e+00
  1.953111e+01    1.324342e+00
  1.954699e+01    1.368936e+00
  1.956286e+01    1.337742e+00
  1.957874e+01    1.303174e+00
  1.959461e+01    1.329086e+00
  1.961049e+01    1.347571e+00
  1.962637e+01    1.341523e+00
  1.964224e+01    1.316747e+00
  1.965812e+01    1.313546e+00
  1.967399e+01    1.296947e+00
  1.968987e+01    1.302405e+00
  1.970574e+01    1.272399e+00
  1.972162e+01    1.292698e+00
  1.973749e+01    1.296006e+00
  1.975337e+01    1.272986e+00
  1.976925e+01    1.300053e+00
  1.978512e+01    1.298465e+00
  1.980100e+01    1.299405e+00
  1.981687e+01    1.314073e+00
  1.983275e+01    1.304493e+00
  1.984862e+01    1.292653e+00
  1.986450e+01    1.277375e+00
  1.988037e+01    1.262406e+00
  1.989625e+01    1.271994e+00
  1.991213e+01    1.289773e+00
  1.992800e+01    1.306766e+00
  1.994388e+01    1.279141e+00
  1.995975e+01    1.299289e+00
  1.997563e+01    1.292281e+00
  1.999150e+01    1.262014e+00
  2.000738e+01    1.275327e+00
  2.002325e+01    1.291184e+00
  2.003913e+01    1.256781e+00
  2.005501e+01    1.266948e+00
  2.007088e+01    1.269804e+00
  2.008676e+01    1.276111e+00
  2.010263e+01    1.270432e+00
  2.011851e+01    1.262506e+00
  2.013438e+01    1.250066e+00
  2.015026e+01    1.280151e+00
  2.016614e+01    1.261664e+00
  2.018201e+01    1.249663e+00
  2.019789e+01    1.225109e+00
  2.021376e+01    1.261901e+00
  2.022964e+01    1.267154e+00
  2.024551e+01    1.268237e+00
  2.026139e+01    1.271535e+00
  2.027726e+01    1.272655e+00
  2.029314e+01    1.266349e+00
  2.030902e+01    1.254413e+00
  2.032489e+01    1.270734e+00
  2.034077e+01    1.278636e+00
  2.035664e+01    1.295258e+00
  2.037252e+01    1.274553e+00
  2.038839e+01    1.243378e+00
  2.040427e+01    1.249101e+00
  2.042014e+01    1.237606e+00
  2.043602e+01    1.238692e+00
  2.045190e+01    1.226834e+00
  2.046777e+01    1.229427e+00
  2.048365e+01    1.222014e+00
  2.049952e+01    1.246609e+00
  2.051540e+01    1.245041e+00
  2.053127e+01    1.217168e+00
  2.054715e+01    1.240134e+00
  2.056302e+01    1.251441e+00
  2.057890e+01    1.245563e+00
  2.059478e+01    1.260573e+00
  2.061065e+01    1.216266e+00
  2.062653e+01    1.207757e+00
  2.064240e+01    1.258590e+00
  2.065828e+01    1.229770e+00
  2.067415e+01    1.232211e+00
  2.069003e+01    1.230016e+00
  2.070590e+01    1.236842e+00
  2.072178e+01    1.237205e+00
  2.073766e+01    1.235488e+00
  2.075353e+01    1.224311e+00
  2.076941e+01    1.252027e+00
  2.078528e+01    1.242890e+00
  2.080116e+01    1.237357e+00
  2.081703e+01    1.228297e+00
  2.083291e+01    1.225989e+00
  2.084878e+01    1.205981e+00
  2.086466e+01    1.233488e+00
  2.088054e+01    1.248276e+00
  2.089641e+01    1.243214e+00
  2.091229e+01    1.245790e+00
  2.092816e+01    1.209317e+00
  2.094404e+01    1.195102e+00
  2.095991e+01    1.198698e+00
  2.097579e+01    1.203196e+00
  2.099166e+01    1.215993e+00
  2.100754e+01    1.213932e+00
  2.102342e+01    1.207984e+00
  2.103929e+01    1.212668e+00
  2.105517e+01    1.217397e+00
  2.107104e+01    1.232338e+00
  2.108692e+01    1.237547e+00
  2.110279e+01    1.214514e+00
  2.111867e+01    1.191053e+00
  2.113455e+01    1.205900e+00
  2.115042e+01    1.233743e+00
  2.116630e+01    1.230940e+00
  2.118217e+01    1.218741e+00
  2.119805e+01    1.242579e+00
  2.121392e+01    1.214298e+00
  2.122980e+01    1.225455e+00
  2.124567e+01    1.218872e+00
  2.126155e+01    1.227283e+00
  2.127743e+01    1.246890e+00
  2.129330e+01    1.262289e+00
  2.130918e+01    1.293673e+00
  2.132505e+01    1.279353e+00
  2.134093e+01    1.275136e+00
  2.135680e+01    1.274040e+00
  2.137268e+01    1.280482e+00
  2.138855e+01    1.288377e+00
  2.140443e+01    1.302791e+00
  2.142031e+01    1.342235e+00
  2.143618e+01    1.358838e+00
  2.145206e+01    1.348272e+00
  2.146793e+01    1.372535e+00
  2.148381e+01    1.410787e+00
  2.149968e+01    1.442688e+00
  2.151556e+01    1.438993e+00
  2.153143e+01    1.480718e+00
  2.154731e+01    1.525256e+00
  2.156319e+01    1.612482e+00
  2.157906e+01    1.654665e+00
  2.159494e+01    1.718695e+00
  2.161081e+01    1.800889e+00
  2.162669e+01    1.888056e+00
  2.164256e+01    2.009436e+00
  2.165844e+01    2.127022e+00
  2.167431e+01    2.296877e+00
  2.169019e+01    2.526209e+00
  2.170607e+01    2.837297e+00
  2.172194e+01    3.204234e+00
  2.173782e+01    3.633888e+00
  2.175369e+01    4.159556e+00
  2.176957e+01    4.747354e+00
  2.178544e+01    5.360030e+00
  2.180132e+01    5.979919e+00
  2.181719e+01    6.684567e+00
  2.183307e+01    7.337924e+00
  2.184895e+01    7.941784e+00
  2.186482e+01    8.508466e+00
  2.188070e+01    8.906807e+00
  2.189657e+01    9.004088e+00
  2.191245e+01    8.713475e+00
  2.192832e+01    8.116493e+00
  2.194420e+01    7.338341e+00
  2.196007e+01    6.404170e+00
  2.197595e+01    5.510726e+00
  2.199183e+01    4.713084e+00
  2.200770e+01    4.098263e+00
  2.202358e+01    3.535974e+00
  2.203945e+01    3.053975e+00
  2.205533e+01    2.741150e+00
  2.207120e+01    2.487348e+00
  2.208708e+01    2.296735e+00
  2.210296e+01    2.102962e+00
  2.211883e+01    1.952819e+00
  2.213471e+01    1.845457e+00
  2.215058e+01    1.762527e+00
  2.216646e+01    1.669081e+00
  2.218233e+01    1.566194e+00
  2.219821e+01    1.550982e+00
  2.221408e+01    1.490209e+00
  2.222996e+01    1.439997e+00
  2.224584e+01    1.407818e+00
  2.226171e+01    1.359493e+00
  2.227759e+01    1.323290e+00
  2.229346e+01    1.315251e+00
  2.230934e+01    1.325115e+00
  2.232521e+01    1.289720e+00
  2.234109e+01    1.256111e+00
  2.235696e+01    1.235248e+00
  2.237284e+01    1.227016e+00
  2.238872e+01    1.220160e+00
  2.240459e+01    1.220374e+00
  2.242047e+01    1.182868e+00
  2.243634e+01    1.188834e+00
  2.245222e+01    1.186242e+00
  2.246809e+01    1.158935e+00
  2.248397e+01    1.154445e+00
  2.249984e+01    1.135614e+00
  2.251572e+01    1.113186e+00
  2.253160e+01    1.122970e+00
  2.254747e+01    1.149807e+00
  2.256335e+01    1.114450e+00
  2.257922e+01    1.107208e+00
  2.259510e+01    1.132430e+00
  2.261097e+01    1.120161e+00
  2.262685e+01    1.105111e+00
  2.264272e+01    1.098228e+00
  2.265860e+01    1.096283e+00
  2.267448e+01    1.093919e+00
  2.269035e+01    1.066842e+00
  2.270623e+01    1.076551e+00
  2.272210e+01    1.082206e+00
  2.273798e+01    1.054382e+00
  2.275385e+01    1.054926e+00
  2.276973e+01    1.035316e+00
  2.278560e+01    1.043421e+00
  2.280148e+01    1.077086e+00
  2.281736e+01    1.065271e+00
  2.283323e+01    1.039727e+00
  2.284911e+01    1.043706e+00
  2.286498e+01    1.034858e+00
  2.288086e+01    1.032393e+00
  2.289673e+01    1.036153e+00
  2.291261e+01    1.051929e+00
  2.292848e+01    1.040541e+00
  2.294436e+01    1.025257e+00
  2.296024e+01    1.028396e+00
  2.297611e+01    1.028763e+00
  2.299199e+01    1.048807e+00
  2.300786e+01    1.020905e+00
  2.302374e+01    1.000758e+00
  2.303961e+01    1.014028e+00
  2.305549e+01    1.027206e+00
  2.307137e+01    1.022003e+00
  2.308724e+01    9.997410e-01
  2.310312e+01    1.007994e+00
  2.311899e+01    1.001609e+00
  2.313487e+01    9.934704e-01
  2.315074e+01    1.002350e+00
  2.316662e+01    1.014651e+00
  2.318249e+01    1.012676e+00
  2.319837e+01    1.020759e+00
  2.321425e+01    1.011691e+00
  2.323012e+01    9.815289e-01
  2.324600e+01    9.735977e-01
  2.326187e+01    9.691919e-01
  2.327775e+01    9.701373e-01
  2.329362e+01    9.792675e-01
  2.330950e+01    9.876602e-01
  2.332537e+01    9.670547e-01
  2.334125e+01    9.757124e-01
  2.335713e+01    9.849964e-01
  2.337300e+01    9.888364e-01
  2.338888e+01    9.986975e-01
  2.340475e+01    9.726799e-01
  2.342063e+01    9.745037e-01
  2.343650e+01    9.558665e-01
  2.345238e+01    9.426626e-01
  2.346825e+01    9.566824e-01
  2.348413e+01    9.568717e-01
  2.350001e+01    9.662222e-01
  2.351588e+01    9.765795e-01
  2.353176e+01    9.612465e-01
  2.354763e+01    9.401366e-01
  2.356351e+01    9.579244e-01
  2.357938e+01    9.704722e-01
  2.359526e+01    9.667003e-01
  2.361113e+01    9.584077e-01
  2.362701e+01    9.526660e-01
  2.364289e+01    9.304484e-01
  2.365876e+01    9.452267e-01
  2.367464e+01    9.631371e-01
  2.369051e+01    9.377253e-01
  2.370639e+01    9.549575e-01
  2.372226e+01    9.368532e-01
  2.373814e+01    9.115145e-01
  2.375401e+01    9.402986e-01
  2.376989e+01    9.361448e-01
  2.378577e+01    9.355047e-01
  2.380164e+01    9.325084e-01
  2.381752e+01    9.120694e-01
  2.383339e+01    9.008954e-01
  2.384927e+01    9.115658e-01
  2.386514e+01    9.126714e-01
  2.388102e+01    9.095975e-01
  2.389689e+01    9.194152e-01
  2.391277e+01    9.031705e-01
  2.392865e+01    9.045340e-01
  2.394452e+01    9.029945e-01
  2.396040e+01    9.052382e-01
  2.397627e+01    8.879802e-01
  2.399215e+01    8.897473e-01
  2.400802e+01    9.035475e-01
  2.402390e+01    8.742414e-01
  2.403978e+01    8.855180e-01
  2.405565e+01    9.022403e-01
  2.407153e+01    8.923711e-01
  2.408740e+01    8.950154e-01
  2.410328e+01    8.819895e-01
  2.411915e+01    8.775443e-01
  2.413503e+01    9.014605e-01
  2.415090e+01    8.840579e-01
  2.416678e+01    8.633729e-01
  2.418266e+01    8.728861e-01
  2.419853e+01    8.745947e-01
  2.421441e+01    8.653067e-01
  2.423028e+01    8.839315e-01
  2.424616e+01    8.760194e-01
  2.426203e+01    8.859892e-01
  2.427791e+01    9.080842e-01
  2.429378e+01    8.841109e-01
  2.430966e+01    8.954456e-01
  2.432554e+01    8.970539e-01
  2.434141e+01    8.922583e-01
  2.435729e+01    8.960993e-01
  2.437316e+01    8.886564e-01
  2.438904e+01    8.901161e-01
  2.440491e+01    8.902848e-01
  2.442079e+01    8.796909e-01
  2.443666e+01    8.839614e-01
  2.445254e+01    8.788521e-01
  2.446842e+01    8.963112e-01
  2.448429e+01    9.027514e-01
  2.450017e+01    8.729640e-01
  2.451604e+01    8.811166e-01
  2.453192e+01    8.976015e-01
  2.454779e+01    8.940845e-01
  2.456367e+01    8.863573e-01
  2.457954e+01    9.040195e-01
  2.459542e+01    8.943096e-01
  2.461130e+01    8.708341e-01
  2.462717e+01    8.890315e-01
  2.464305e+01    8.978531e-01
  2.465892e+01    8.700134e-01
  2.467480e+01    8.860278e-01
  2.469067e+01    8.807399e-01
  2.470655e+01    8.714240e-01
  2.472242e+01    8.898246e-01
  2.473830e+01    9.078263e-01
  2.475418e+01    8.936617e-01
  2.477005e+01    9.019738e-01
  2.478593e+01    8.926401e-01
  2.480180e+01    8.921346e-01
  2.481768e+01    8.786519e-01
  2.483355e+01    8.852466e-01
  2.484943e+01    8.819163e-01
  2.486530e+01    8.868926e-01
  2.488118e+01    8.819345e-01
  2.489706e+01    8.979127e-01
  2.491293e+01    8.949496e-01
  2.492881e+01    8.795607e-01
  2.494468e+01    8.915932e-01
  2.496056e+01    8.537373e-01
  2.497643e+01    8.657887e-01
  2.499231e+01    8.985181e-01
  2.500819e+01    8.916767e-01
  2.502406e+01    8.932282e-01
  2.503994e+01    8.877519e-01
  2.505581e+01    8.704785e-01
  2.507169e+01    8.808572e-01
  2.508756e+01    8.924077e-01
  2.510344e+01    9.095559e-01
  2.511931e+01    8.871525e-01
  2.513519e+01    8.998603e-01
  2.515107e+01    9.133967e-01
  2.516694e+01    9.179299e-01
  2.518282e+01    9.176562e-01
  2.519869e+01    9.400408e-01
  2.521457e+01    9.421376e-01
  2.523044e+01    9.296381e-01
  2.524632e+01    9.572225e-01
  2.526219e+01    9.522824e-01
  2.527807e+01    9.432512e-01
  2.529395e+01    9.274837e-01
  2.530982e+01    9.421576e-01
  2.532570e+01    9.548519e-01
  2.534157e+01    9.598934e-01
  2.535745e+01    9.498776e-01
  2.537332e+01    9.687887e-01
  2.538920e+01    1.003827e+00
  2.540507e+01    1.000650e+00
  2.542095e+01    1.011890e+00
  2.543683e+01    1.036384e+00
  2.545270e+01    1.013744e+00
  2.546858e+01    1.027646e+00
  2.548445e+01    1.041790e+00
  2.550033e+01    1.080851e+00
  2.551620e+01    1.086250e+00
  2.553208e+01    1.092321e+00
  2.554795e+01    1.103345e+00
  2.556383e+01    1.150962e+00
  2.557971e+01    1.180381e+00
  2.559558e+01    1.195604e+00
  2.561146e+01    1.226282e+00
  2.562733e+01    1.280490e+00
  2.564321e+01    1.325104e+00
  2.565908e+01    1.403602e+00
  2.567496e+01    1.478930e+00
  2.569083e+01    1.544694e+00
  2.570671e+01    1.640601e+00
  2.572259e+01    1.742985e+00
  2.573846e+01    1.908981e+00
  2.575434e+01    2.039550e+00
  2.577021e+01    2.278309e+00
  2.578609e+01    2.577438e+00
  2.580196e+01    2.873792e+00
  2.581784e+01    3.291981e+00
  2.583371e+01    3.751636e+00
  2.584959e+01    4.266429e+00
  2.586547e+01    4.821381e+00
  2.588134e+01    5.399662e+00
  2.589722e+01    5.956493e+00
  2.591309e+01    6.510981e+00
  2.592897e+01    6.850756e+00
  2.594484e+01    7.097051e+00
  2.596072e+01    7.083800e+00
  2.597660e+01    6.804591e+00
  2.599247e+01    6.404318e+00
  2.600835e+01    5.823619e+00
  2.602422e+01    5.118980e+00
  2.604010e+01    4.403284e+00
  2.605597e+01    3.827509e+00
  2.607185e+01    3.323392e+00
  2.608772e+01    2.877150e+00
  2.610360e+01    2.567941e+00
  2.611948e+01    2.295860e+00
  2.613535e+01    2.101652e+00
  2.615123e+01    1.929551e+00
  2.616710e+01    1.772094e+00
  2.618298e+01    1.634488e+00
  2.619885e+01    1.547016e+00
  2.621473e+01    1.488566e+00
  2.623060e+01    1.407157e+00
  2.624648e+01    1.344462e+00
  2.626236e+01    1.303719e+00
  2.627823e+01    1.262884e+00
  2.629411e+01    1.233212e+00
  2.630998e+01    1.174936e+00
  2.632586e+01    1.145176e+00
  2.634173e+01    1.115739e+00
  2.635761e+01    1.096748e+00
  2.637348e+01    1.075110e+00
  2.638936e+01    1.066486e+00
  2.640524e+01    1.036713e+00
  2.642111e+01    1.032546e+00
  2.643699e+01    1.042402e+00
  2.645286e+01    1.031892e+00
  2.646874e+01    1.010474e+00
  2.648461e+01    1.014185e+00
  2.650049e+01    9.941979e-01
  2.651636e+01    9.857898e-01
  2.653224e+01    9.897737e-01
  2.654812e+01    9.838948e-01
  2.656399e+01    9.811258e-01
  2.657987e+01    9.805026e-01
  2.659574e+01    9.917091e-01
  2.661162e+01    9.875228e-01
  2.662749e+01    9.795942e-01
  2.664337e+01    9.765233e-01
  2.665924e+01    9.604394e-01
  2.667512e+01    9.550021e-01
  2.669100e+01    9.820424e-01
  2.670687e+01    9.644242e-01
  2.672275e+01    9.813539e-01
  2.673862e+01    9.922066e-01
  2.675450e+01    9.766079e-01
  2.677037e+01    9.685124e-01
  2.678625e+01    9.575457e-01
  2.680212e+01    9.757529e-01
  2.681800e+01    9.863685e-01
  2.683388e+01    9.771937e-01
  2.684975e+01    9.622716e-01
  2.686563e+01    9.829274e-01
  2.688150e+01    9.775519e-01
  2.689738e+01    9.888582e-01
  2.691325e+01    1.012127e+00
  2.692913e+01    1.029525e+00
  2.694501e+01    1.047695e+00
  2.696088e+01    1.077112e+00
  2.697676e+01    1.074852e+00
  2.699263e+01    1.086559e+00
  2.700851e+01    1.105489e+00
  2.702438e+01    1.140096e+00
  2.704026e+01    1.209411e+00
  2.705613e+01    1.263656e+00
  2.707201e+01    1.338612e+00
  2.708789e+01    1.390052e+00
  2.710376e+01    1.529390e+00
  2.711964e+01    1.628270e+00
  2.713551e+01    1.780812e+00
  2.715139e+01    1.904987e+00
  2.716726e+01    1.997530e+00
  2.718314e+01    2.140846e+00
  2.719901e+01    2.173941e+00
  2.721489e+01    2.189706e+00
  2.723077e+01    2.140610e+00
  2.724664e+01    2.053944e+00
  2.726252e+01    1.973069e+00
  2.727839e+01    1.828947e+00
  2.729427e+01    1.674786e+00
  2.731014e+01    1.528735e+00
  2.732602e+01    1.396033e+00
  2.734189e+01    1.332544e+00
  2.735777e+01    1.264752e+00
  2.737365e+01    1.193937e+00
  2.738952e+01    1.145553e+00
  2.740540e+01    1.126095e+00
  2.742127e+01    1.097170e+00
  2.743715e+01    1.069049e+00
  2.745302e+01    1.037914e+00
  2.746890e+01    1.010402e+00
  2.748477e+01    9.848350e-01
  2.750065e+01    9.638059e-01
  2.751653e+01    9.735979e-01
  2.753240e+01    9.639187e-01
  2.754828e+01    9.838585e-01
  2.756415e+01    9.609867e-01
  2.758003e+01    9.565011e-01
  2.759590e+01    9.473246e-01
  2.761178e+01    9.223912e-01
  2.762765e+01    8.906698e-01
  2.764353e+01    8.905562e-01
  2.765941e+01    8.920186e-01
  2.767528e+01    9.207229e-01
  2.769116e+01    9.151326e-01
  2.770703e+01    8.998325e-01
  2.772291e+01    8.996129e-01
  2.773878e+01    9.026642e-01
  2.775466e+01    8.791091e-01
  2.777054e+01    8.689712e-01
  2.778641e+01    8.539360e-01
  2.780229e+01    8.900703e-01
  2.781816e+01    8.574185e-01
  2.783404e+01    8.495088e-01
  2.784991e+01    8.814206e-01
  2.786579e+01    8.902934e-01
  2.788166e+01    8.873280e-01
  2.789754e+01    8.689376e-01
  2.791342e+01    8.656930e-01
  2.792929e+01    8.457131e-01
  2.794517e+01    8.783234e-01
  2.796104e+01    8.817950e-01
  2.797692e+01    8.592121e-01
  2.799279e+01    8.868764e-01
  2.800867e+01    8.765349e-01
  2.802454e+01    8.679699e-01
  2.804042e+01    8.552262e-01
  2.805630e+01    8.737643e-01
  2.807217e+01    8.765055e-01
  2.808805e+01    8.625875e-01
  2.810392e+01    8.516021e-01
  2.811980e+01    8.490778e-01
  2.813567e+01    8.664590e-01
  2.815155e+01    8.614495e-01
  2.816742e+01    8.831508e-01
  2.818330e+01    8.802598e-01
  2.819918e+01    8.497523e-01
  2.821505e+01    8.464344e-01
  2.823093e+01    8.747057e-01
  2.824680e+01    8.474309e-01
  2.826268e+01    8.458058e-01
  2.827855e+01    8.412469e-01
  2.829443e+01    8.558734e-01
  2.831030e+01    8.600662e-01
  2.832618e+01    8.477001e-01
  2.834206e+01    8.316415e-01
  2.835793e+01    8.203147e-01
  2.837381e+01    8.527963e-01
  2.838968e+01    8.445114e-01
  2.840556e+01    8.415128e-01
  2.842143e+01    8.367336e-01
  2.843731e+01    8.428181e-01
  2.845318e+01    8.477716e-01
  2.846906e+01    8.208243e-01
  2.848494e+01    8.405150e-01
  2.850081e+01    8.517813e-01
  2.851669e+01    8.506172e-01
  2.853256e+01    8.448375e-01
  2.854844e+01    8.502343e-01
  2.856431e+01    8.467730e-01
  2.858019e+01    8.289119e-01
  2.859606e+01    8.322824e-01
  2.861194e+01    8.600405e-01
  2.862782e+01    8.506546e-01
  2.864369e+01    8.347984e-01
  2.865957e+01    8.333642e-01
  2.867544e+01    8.237496e-01
  2.869132e+01    8.228436e-01
  2.870719e+01    8.191598e-01
  2.872307e+01    8.198008e-01
  2.873895e+01    8.353634e-01
  2.875482e+01    8.363879e-01
  2.877070e+01    8.543157e-01
  2.878657e+01    8.367212e-01
  2.880245e+01    8.240496e-01
  2.881832e+01    8.145800e-01
  2.883420e+01    7.945310e-01
  2.885007e+01    8.395154e-01
  2.886595e+01    8.319380e-01
  2.888183e+01    8.118972e-01
  2.889770e+01    8.259935e-01
  2.891358e+01    8.320118e-01
  2.892945e+01    8.471696e-01
  2.894533e+01    8.460418e-01
  2.896120e+01    8.360627e-01
  2.897708e+01    8.073796e-01
  2.899295e+01    8.261644e-01
  2.900883e+01    8.239169e-01
  2.902471e+01    8.259497e-01
  2.904058e+01    8.225588e-01
  2.905646e+01    8.191366e-01
  2.907233e+01    8.096206e-01
  2.908821e+01    8.197146e-01
  2.910408e+01    8.172244e-01
  2.911996e+01    8.163216e-01
  2.913583e+01    8.263838e-01
  2.915171e+01    8.214990e-01
  2.916759e+01    8.367236e-01
  2.918346e+01    8.271271e-01
  2.919934e+01    8.200027e-01
  2.921521e+01    8.059971e-01
  2.923109e+01    7.949207e-01
  2.924696e+01    7.979389e-01
  2.926284e+01    7.941279e-01
  2.927871e+01    8.198121e-01
  2.929459e+01    8.171516e-01
  2.931047e+01    7.985223e-01
  2.932634e+01    7.913939e-01
  2.934222e+01    8.189888e-01
  2.935809e+01    8.104980e-01
  2.937397e+01    8.008938e-01
  2.938984e+01    8.119566e-01
  2.940572e+01    7.869999e-01
  2.942159e+01    7.696408e-01
  2.943747e+01    8.018315e-01
  2.945335e+01    8.123558e-01
  2.946922e+01    8.101897e-01
  2.948510e+01    8.058322e-01
  2.950097e+01    8.176495e-01
  2.951685e+01    8.183454e-01
  2.953272e+01    8.154038e-01
  2.954860e+01    7.962124e-01
  2.956447e+01    7.860165e-01
  2.958035e+01    7.972282e-01
  2.959623e+01    8.057365e-01
  2.961210e+01    8.134696e-01
  2.962798e+01    7.978128e-01
  2.964385e+01    7.929935e-01
  2.965973e+01    8.012375e-01
  2.967560e+01    8.142881e-01
  2.969148e+01    7.895064e-01
  2.970736e+01    7.822132e-01
  2.972323e+01    8.129873e-01
  2.973911e+01    8.147925e-01
  2.975498e+01    7.985286e-01
  2.977086e+01    7.916061e-01
  2.978673e+01    8.092183e-01
  2.980261e+01    7.952265e-01
  2.981848e+01    7.748882e-01
  2.983436e+01    7.779581e-01
  2.985024e+01    7.913589e-01
  2.986611e+01    7.832390e-01
  2.988199e+01    7.883160e-01
  2.989786e+01    7.771709e-01
  2.991374e+01    7.770442e-01
  2.992961e+01    7.707073e-01
  2.994549e+01    7.713135e-01
  2.996136e+01    7.887447e-01
  2.997724e+01    8.150527e-01
  2.999312e+01    8.264232e-01
  3.000899e+01    8.104610e-01
  3.002487e+01    7.894142e-01
  3.004074e+01    7.955891e-01
  3.005662e+01    8.300757e-01
  3.007249e+01    8.133658e-01
  3.008837e+01    8.105094e-01
  3.010424e+01    7.944948e-01
  3.012012e+01    8.045671e-01
  3.013600e+01    8.069966e-01
  3.015187e+01    8.007610e-01
  3.016775e+01    7.793979e-01
  3.018362e+01    7.509813e-01
  3.019950e+01    7.545328e-01
  3.021537e+01    7.786446e-01
  3.023125e+01    7.719240e-01
  3.024712e+01    7.500547e-01
  3.026300e+01    7.509552e-01
  3.027888e+01    7.915642e-01
  3.029475e+01    7.922544e-01
  3.031063e+01    7.877087e-01
  3.032650e+01    7.800685e-01
  3.034238e+01    7.652801e-01
  3.035825e+01    7.655042e-01
  3.037413e+01    7.702851e-01
  3.039000e+01    7.600177e-01
  3.040588e+01    7.690687e-01
  3.042176e+01    7.750520e-01
  3.043763e+01    7.576087e-01
  3.045351e+01    7.955601e-01
  3.046938e+01    8.125454e-01
  3.048526e+01    7.839355e-01
  3.050113e+01    7.828248e-01
  3.051701e+01    7.917648e-01
  3.053288e+01    7.742168e-01
  3.054876e+01    7.899363e-01
  3.056464e+01    8.052855e-01
  3.058051e+01    8.005863e-01
  3.059639e+01    7.767777e-01
  3.061226e+01    7.892049e-01
  3.062814e+01    7.820518e-01
  3.064401e+01    7.671032e-01
  3.065989e+01    7.796330e-01
  3.067577e+01    7.741203e-01
  3.069164e+01    7.614490e-01
  3.070752e+01    7.802476e-01
  3.072339e+01    7.987729e-01
  3.073927e+01    7.802395e-01
  3.075514e+01    7.594257e-01
  3.077102e+01    7.872823e-01
  3.078689e+01    7.763515e-01
  3.080277e+01    7.754136e-01
  3.081865e+01    7.846609e-01
  3.083452e+01    7.960974e-01
  3.085040e+01    7.838887e-01
  3.086627e+01    7.890497e-01
  3.088215e+01    7.864343e-01
  3.089802e+01    7.641459e-01
  3.091390e+01    7.781229e-01
  3.092977e+01    7.957780e-01
  3.094565e+01    7.943698e-01
  3.096153e+01    8.040158e-01
  3.097740e+01    7.929126e-01
  3.099328e+01    7.850742e-01
  3.100915e+01    7.681473e-01
  3.102503e+01    7.880885e-01
  3.104090e+01    7.764847e-01
  3.105678e+01    7.818128e-01
  3.107265e+01    8.111297e-01
  3.108853e+01    7.930394e-01
  3.110441e+01    7.747158e-01
  3.112028e+01    7.797070e-01
  3.113616e+01    7.804842e-01
  3.115203e+01    8.035069e-01
  3.116791e+01    8.046675e-01
  3.118378e+01    8.013545e-01
  3.119966e+01    7.916495e-01
  3.121553e+01    8.037921e-01
  3.123141e+01    7.953135e-01
  3.124729e+01    7.919666e-01
  3.126316e+01    8.108498e-01
  3.127904e+01    7.963914e-01
  3.129491e+01    7.754589e-01
  3.131079e+01    7.929573e-01
  3.132666e+01    7.964242e-01
  3.134254e+01    8.169760e-01
  3.135841e+01    8.085963e-01
  3.137429e+01    8.203143e-01
  3.139017e+01    8.310137e-01
  3.140604e+01    7.977571e-01
  3.142192e+01    8.147056e-01
  3.143779e+01    8.172792e-01
  3.145367e+01    8.183762e-01
  3.146954e+01    8.247907e-01
  3.148542e+01    8.412399e-01
  3.150129e+01    8.285360e-01
  3.151717e+01    8.410183e-01
  3.153305e+01    8.452775e-01
  3.154892e+01    8.578806e-01
  3.156480e+01    8.775187e-01
  3.158067e+01    8.765766e-01
  3.159655e+01    8.919752e-01
  3.161242e+01    8.836040e-01
  3.162830e+01    8.976353e-01
  3.164418e+01    9.213759e-01
  3.166005e+01    9.417601e-01
  3.167593e+01    9.696010e-01
  3.169180e+01    1.002320e+00
  3.170768e+01    1.037854e+00
  3.172355e+01    1.072408e+00
  3.173943e+01    1.138817e+00
  3.175530e+01    1.198954e+00
  3.177118e+01    1.263074e+00
  3.178706e+01    1.376487e+00
  3.180293e+01    1.473692e+00
  3.181881e+01    1.622330e+00
  3.183468e+01    1.747604e+00
  3.185056e+01    1.861562e+00
  3.186643e+01    2.011409e+00
  3.188231e+01    2.081866e+00
  3.189818e+01    2.081759e+00
  3.191406e+01    2.043832e+00
  3.192994e+01    2.018104e+00
  3.194581e+01    1.935560e+00
  3.196169e+01    1.788463e+00
  3.197756e+01    1.651089e+00
  3.199344e+01    1.486322e+00
  3.200931e+01    1.398318e+00
  3.202519e+01    1.287889e+00
  3.204106e+01    1.201099e+00
  3.205694e+01    1.138557e+00
  3.207282e+01    1.072387e+00
  3.208869e+01    1.013516e+00
  3.210457e+01    9.752088e-01
  3.212044e+01    9.448956e-01
  3.213632e+01    9.211993e-01
  3.215219e+01    8.892609e-01
  3.216807e+01    8.708212e-01
  3.218394e+01    8.604811e-01
  3.219982e+01    8.568968e-01
  3.221570e+01    8.552458e-01
  3.223157e+01    8.367417e-01
  3.224745e+01    8.279014e-01
  3.226332e+01    8.288245e-01
  3.227920e+01    8.337734e-01
  3.229507e+01    8.285789e-01
  3.231095e+01    7.936853e-01
  3.232682e+01    7.999072e-01
  3.234270e+01    8.124898e-01
  3.235858e+01    7.828017e-01
  3.237445e+01    7.799393e-01
  3.239033e+01    7.981721e-01
  3.240620e+01    7.796246e-01
  3.242208e+01    7.812020e-01
  3.243795e+01    8.156074e-01
  3.245383e+01    7.874539e-01
  3.246970e+01    7.660167e-01
  3.248558e+01    7.671452e-01
  3.250146e+01    7.954574e-01
  3.251733e+01    7.745141e-01
  3.253321e+01    7.725009e-01
  3.254908e+01    7.772897e-01
