# == pyFAI calibration ==
# Distance Sample to Detector: 0.3999999939076516 m
# PONI: 9.750e-02, 1.135e-01 m
# Rotations: -0.000175 0.000000 -0.000000 rad
# 
# == Fit2d calibration ==
# Distance Sample-beamCenter: 400.000 mm
# Center: x=1514.000, y=1300.000 pix
# Tilt: 0.010 deg  TiltPlanRot: 0.010 deg
# 
# Detector Detector	 Spline= None	 PixelSize= 7.500e-05, 7.500e-05 m
#    Detector has a mask: False 
#    Detector has a dark current: False 
#    detector has a flat field: False 
# 
# Wavelength: 6.888e-11 m
# Mask applied: user provided
# Dark current applied: False
# Flat field applied: False
# Polarization factor: 0.99
# Normalization factor: 1.0
# --> /home/myspot/data/2024_07_Rosario/Ru-CGO-ex/2024-07-27_003_Ru-CGO-ex_Reaction_dwell_000023_data_000065.dat
#       q_nm^-1             I 
  2.003187e-02    0.000000e+00
  3.590745e-02    7.160906e-02
  5.178302e-02    4.981178e-02
  6.765859e-02    3.249338e-02
  8.353417e-02    9.614360e-02
  9.940974e-02    6.149859e-02
  1.152853e-01    2.962971e-02
  1.311609e-01    2.715243e-02
  1.470365e-01    6.204870e-02
  1.629120e-01    6.819189e-02
  1.787876e-01    3.974181e-02
  1.946632e-01    1.647630e-02
  2.105388e-01    6.395774e-02
  2.264143e-01    5.680679e-02
  2.422899e-01    2.255077e-02
  2.581655e-01    4.727686e-02
  2.740411e-01    3.548089e-02
  2.899166e-01    3.638539e-02
  3.057922e-01    3.571282e-02
  3.216678e-01    4.108547e-02
  3.375433e-01    4.137821e-02
  3.534189e-01    6.301333e-02
  3.692945e-01    3.130971e-02
  3.851701e-01    3.920029e-02
  4.010456e-01    3.380761e-02
  4.169212e-01    5.616320e-02
  4.327968e-01    4.282283e-02
  4.486724e-01    5.514258e-02
  4.645479e-01    6.144942e-02
  4.804235e-01    4.873269e-02
  4.962991e-01    2.003500e-02
  5.121747e-01    3.933202e-02
  5.280502e-01    4.971093e-02
  5.439258e-01    4.731035e-02
  5.598014e-01    2.836602e-02
  5.756770e-01    2.104996e-02
  5.915525e-01    2.614184e-02
  6.074281e-01    3.323838e-02
  6.233037e-01    4.856738e-02
  6.391793e-01    2.411394e-02
  6.550548e-01    3.199260e-02
  6.709304e-01    3.164499e-02
  6.868060e-01    3.329689e-02
  7.026815e-01    2.345072e-02
  7.185571e-01    5.062342e-02
  7.344327e-01    4.300763e-02
  7.503083e-01    3.411858e-02
  7.661838e-01    9.006973e-02
  7.820594e-01    1.267315e-01
  7.979350e-01    1.543559e-01
  8.138106e-01    2.069054e-01
  8.296861e-01    2.641526e-01
  8.455617e-01    3.547116e-01
  8.614373e-01    4.675404e-01
  8.773129e-01    5.382047e-01
  8.931884e-01    5.872869e-01
  9.090640e-01    6.416314e-01
  9.249396e-01    7.442264e-01
  9.408152e-01    8.368952e-01
  9.566907e-01    8.585715e-01
  9.725663e-01    1.021338e+00
  9.884419e-01    1.026269e+00
  1.004317e+00    1.064539e+00
  1.020193e+00    1.187685e+00
  1.036069e+00    1.281786e+00
  1.051944e+00    1.410596e+00
  1.067820e+00    1.345250e+00
  1.083695e+00    1.504202e+00
  1.099571e+00    1.536732e+00
  1.115446e+00    1.591966e+00
  1.131322e+00    1.673413e+00
  1.147198e+00    1.719270e+00
  1.163073e+00    1.705178e+00
  1.178949e+00    1.665361e+00
  1.194824e+00    1.847035e+00
  1.210700e+00    2.034641e+00
  1.226575e+00    2.197317e+00
  1.242451e+00    2.309882e+00
  1.258327e+00    2.362046e+00
  1.274202e+00    2.535238e+00
  1.290078e+00    2.622091e+00
  1.305953e+00    2.635279e+00
  1.321829e+00    2.721193e+00
  1.337705e+00    2.838345e+00
  1.353580e+00    2.875166e+00
  1.369456e+00    2.657980e+00
  1.385331e+00    2.719173e+00
  1.401207e+00    2.756462e+00
  1.417082e+00    2.780460e+00
  1.432958e+00    2.927128e+00
  1.448834e+00    2.865843e+00
  1.464709e+00    2.894609e+00
  1.480585e+00    3.020875e+00
  1.496460e+00    3.080986e+00
  1.512336e+00    3.206542e+00
  1.528211e+00    3.226859e+00
  1.544087e+00    3.296938e+00
  1.559963e+00    3.254521e+00
  1.575838e+00    3.070707e+00
  1.591714e+00    3.106799e+00
  1.607589e+00    3.204062e+00
  1.623465e+00    3.193600e+00
  1.639340e+00    3.119840e+00
  1.655216e+00    3.188969e+00
  1.671092e+00    3.130398e+00
  1.686967e+00    3.068730e+00
  1.702843e+00    3.026201e+00
  1.718718e+00    3.132292e+00
  1.734594e+00    3.110026e+00
  1.750469e+00    3.145601e+00
  1.766345e+00    3.060366e+00
  1.782221e+00    3.086471e+00
  1.798096e+00    3.114731e+00
  1.813972e+00    3.210777e+00
  1.829847e+00    3.141580e+00
  1.845723e+00    3.179986e+00
  1.861598e+00    3.289528e+00
  1.877474e+00    3.059519e+00
  1.893350e+00    2.942098e+00
  1.909225e+00    3.051225e+00
  1.925101e+00    3.067220e+00
  1.940976e+00    3.074482e+00
  1.956852e+00    3.077635e+00
  1.972727e+00    3.118100e+00
  1.988603e+00    3.139305e+00
  2.004479e+00    3.002403e+00
  2.020354e+00    3.003300e+00
  2.036230e+00    3.052809e+00
  2.052105e+00    3.067783e+00
  2.067981e+00    3.105773e+00
  2.083856e+00    3.194151e+00
  2.099732e+00    3.163378e+00
  2.115608e+00    3.323866e+00
  2.131483e+00    3.240645e+00
  2.147359e+00    3.076943e+00
  2.163234e+00    3.116853e+00
  2.179110e+00    3.121322e+00
  2.194985e+00    3.183819e+00
  2.210861e+00    2.979897e+00
  2.226737e+00    3.067202e+00
  2.242612e+00    3.265597e+00
  2.258488e+00    3.181268e+00
  2.274363e+00    3.023388e+00
  2.290239e+00    3.044328e+00
  2.306115e+00    3.122818e+00
  2.321990e+00    3.104699e+00
  2.337866e+00    3.139296e+00
  2.353741e+00    3.270737e+00
  2.369617e+00    3.105473e+00
  2.385492e+00    3.114647e+00
  2.401368e+00    3.284389e+00
  2.417244e+00    3.158120e+00
  2.433119e+00    3.224859e+00
  2.448995e+00    3.270314e+00
  2.464870e+00    3.193184e+00
  2.480746e+00    3.196828e+00
  2.496621e+00    3.116695e+00
  2.512497e+00    3.044312e+00
  2.528373e+00    3.134250e+00
  2.544248e+00    3.238576e+00
  2.560124e+00    3.172117e+00
  2.575999e+00    3.270238e+00
  2.591875e+00    3.223314e+00
  2.607750e+00    3.144166e+00
  2.623626e+00    3.142021e+00
  2.639502e+00    3.266945e+00
  2.655377e+00    3.247170e+00
  2.671253e+00    3.303632e+00
  2.687128e+00    3.330353e+00
  2.703004e+00    3.267360e+00
  2.718879e+00    3.279803e+00
  2.734755e+00    3.324183e+00
  2.750631e+00    3.315459e+00
  2.766506e+00    3.316500e+00
  2.782382e+00    3.334147e+00
  2.798257e+00    3.196640e+00
  2.814133e+00    3.262563e+00
  2.830008e+00    3.259715e+00
  2.845884e+00    3.276310e+00
  2.861760e+00    3.321385e+00
  2.877635e+00    3.260098e+00
  2.893511e+00    3.307929e+00
  2.909386e+00    3.384020e+00
  2.925262e+00    3.310868e+00
  2.941137e+00    3.337435e+00
  2.957013e+00    3.362996e+00
  2.972889e+00    3.259051e+00
  2.988764e+00    3.305561e+00
  3.004640e+00    3.283670e+00
  3.020515e+00    3.231006e+00
  3.036391e+00    3.310227e+00
  3.052266e+00    3.313899e+00
  3.068142e+00    3.452333e+00
  3.084018e+00    3.375322e+00
  3.099893e+00    3.315981e+00
  3.115769e+00    3.356858e+00
  3.131644e+00    3.391989e+00
  3.147520e+00    3.381358e+00
  3.163395e+00    3.341566e+00
  3.179271e+00    3.416617e+00
  3.195147e+00    3.448303e+00
  3.211022e+00    3.414518e+00
  3.226898e+00    3.391646e+00
  3.242773e+00    3.413718e+00
  3.258649e+00    3.289135e+00
  3.274525e+00    3.324642e+00
  3.290400e+00    3.338787e+00
  3.306276e+00    3.336250e+00
  3.322151e+00    3.407821e+00
  3.338027e+00    3.478978e+00
  3.353902e+00    3.507236e+00
  3.369778e+00    3.529842e+00
  3.385654e+00    3.487985e+00
  3.401529e+00    3.410496e+00
  3.417405e+00    3.469539e+00
  3.433280e+00    3.467186e+00
  3.449156e+00    3.438939e+00
  3.465031e+00    3.396616e+00
  3.480907e+00    3.396919e+00
  3.496783e+00    3.529906e+00
  3.512658e+00    3.562477e+00
  3.528534e+00    3.434726e+00
  3.544409e+00    3.403749e+00
  3.560285e+00    3.529363e+00
  3.576160e+00    3.502993e+00
  3.592036e+00    3.469839e+00
  3.607912e+00    3.503707e+00
  3.623787e+00    3.587381e+00
  3.639663e+00    3.490788e+00
  3.655538e+00    3.479475e+00
  3.671414e+00    3.510172e+00
  3.687289e+00    3.505893e+00
  3.703165e+00    3.573313e+00
  3.719041e+00    3.512419e+00
  3.734916e+00    3.431522e+00
  3.750792e+00    3.406159e+00
  3.766667e+00    3.495546e+00
  3.782543e+00    3.484227e+00
  3.798418e+00    3.572750e+00
  3.814294e+00    3.568321e+00
  3.830170e+00    3.467018e+00
  3.846045e+00    3.484477e+00
  3.861921e+00    3.482177e+00
  3.877796e+00    3.483571e+00
  3.893672e+00    3.489534e+00
  3.909547e+00    3.525259e+00
  3.925423e+00    3.566615e+00
  3.941299e+00    3.474143e+00
  3.957174e+00    3.493723e+00
  3.973050e+00    3.528614e+00
  3.988925e+00    3.550770e+00
  4.004801e+00    3.534732e+00
  4.020676e+00    3.482044e+00
  4.036552e+00    3.599994e+00
  4.052428e+00    3.605068e+00
  4.068303e+00    3.540939e+00
  4.084179e+00    3.535051e+00
  4.100054e+00    3.571422e+00
  4.115930e+00    3.587747e+00
  4.131806e+00    3.510123e+00
  4.147681e+00    3.527618e+00
  4.163557e+00    3.520416e+00
  4.179432e+00    3.524817e+00
  4.195308e+00    3.480652e+00
  4.211183e+00    3.478194e+00
  4.227059e+00    3.486460e+00
  4.242935e+00    3.553015e+00
  4.258810e+00    3.486059e+00
  4.274686e+00    3.517540e+00
  4.290561e+00    3.628797e+00
  4.306437e+00    3.572128e+00
  4.322312e+00    3.643634e+00
  4.338188e+00    3.665949e+00
  4.354064e+00    3.605110e+00
  4.369939e+00    3.599481e+00
  4.385815e+00    3.617795e+00
  4.401690e+00    3.487672e+00
  4.417566e+00    3.524529e+00
  4.433441e+00    3.528301e+00
  4.449317e+00    3.583064e+00
  4.465193e+00    3.554880e+00
  4.481068e+00    3.531106e+00
  4.496944e+00    3.653413e+00
  4.512819e+00    3.658300e+00
  4.528695e+00    3.627839e+00
  4.544570e+00    3.594467e+00
  4.560446e+00    3.565005e+00
  4.576322e+00    3.693935e+00
  4.592197e+00    3.643220e+00
  4.608073e+00    3.703103e+00
  4.623948e+00    3.569506e+00
  4.639824e+00    3.554391e+00
  4.655699e+00    3.596800e+00
  4.671575e+00    3.622894e+00
  4.687451e+00    3.661385e+00
  4.703326e+00    3.631586e+00
  4.719202e+00    3.576392e+00
  4.735077e+00    3.651642e+00
  4.750953e+00    3.677008e+00
  4.766828e+00    3.680908e+00
  4.782704e+00    3.593056e+00
  4.798580e+00    3.555037e+00
  4.814455e+00    3.518813e+00
  4.830331e+00    3.703731e+00
  4.846206e+00    3.689320e+00
  4.862082e+00    3.579411e+00
  4.877957e+00    3.579100e+00
  4.893833e+00    3.606461e+00
  4.909709e+00    3.693474e+00
  4.925584e+00    3.664774e+00
  4.941460e+00    3.733027e+00
  4.957335e+00    3.758605e+00
  4.973211e+00    3.752510e+00
  4.989086e+00    3.654970e+00
  5.004962e+00    3.680430e+00
  5.020838e+00    3.617907e+00
  5.036713e+00    3.631681e+00
  5.052589e+00    3.712831e+00
  5.068464e+00    3.722651e+00
  5.084340e+00    3.661150e+00
  5.100216e+00    3.673245e+00
  5.116091e+00    3.688329e+00
  5.131967e+00    3.673825e+00
  5.147842e+00    3.709349e+00
  5.163718e+00    3.598202e+00
  5.179593e+00    3.603354e+00
  5.195469e+00    3.684049e+00
  5.211345e+00    3.630359e+00
  5.227220e+00    3.578187e+00
  5.243096e+00    3.632388e+00
  5.258971e+00    3.682928e+00
  5.274847e+00    3.715641e+00
  5.290722e+00    3.733321e+00
  5.306598e+00    3.575167e+00
  5.322474e+00    3.698594e+00
  5.338349e+00    3.666230e+00
  5.354225e+00    3.628078e+00
  5.370100e+00    3.631134e+00
  5.385976e+00    3.573401e+00
  5.401851e+00    3.572782e+00
  5.417727e+00    3.583640e+00
  5.433603e+00    3.612191e+00
  5.449478e+00    3.630703e+00
  5.465354e+00    3.582086e+00
  5.481229e+00    3.556157e+00
  5.497105e+00    3.599812e+00
  5.512980e+00    3.618527e+00
  5.528856e+00    3.619965e+00
  5.544732e+00    3.612537e+00
  5.560607e+00    3.555372e+00
  5.576483e+00    3.613221e+00
  5.592358e+00    3.612443e+00
  5.608234e+00    3.609346e+00
  5.624109e+00    3.550515e+00
  5.639985e+00    3.534175e+00
  5.655861e+00    3.657107e+00
  5.671736e+00    3.526271e+00
  5.687612e+00    3.574139e+00
  5.703487e+00    3.647671e+00
  5.719363e+00    3.588092e+00
  5.735238e+00    3.568791e+00
  5.751114e+00    3.601807e+00
  5.766990e+00    3.630040e+00
  5.782865e+00    3.577005e+00
  5.798741e+00    3.609033e+00
  5.814616e+00    3.544569e+00
  5.830492e+00    3.545356e+00
  5.846367e+00    3.473405e+00
  5.862243e+00    3.502186e+00
  5.878119e+00    3.531712e+00
  5.893994e+00    3.548590e+00
  5.909870e+00    3.600901e+00
  5.925745e+00    3.551707e+00
  5.941621e+00    3.516134e+00
  5.957497e+00    3.585431e+00
  5.973372e+00    3.583503e+00
  5.989248e+00    3.669669e+00
  6.005123e+00    3.588496e+00
  6.020999e+00    3.529828e+00
  6.036874e+00    3.557373e+00
  6.052750e+00    3.628541e+00
  6.068626e+00    3.563748e+00
  6.084501e+00    3.540604e+00
  6.100377e+00    3.504629e+00
  6.116252e+00    3.629424e+00
  6.132128e+00    3.580867e+00
  6.148003e+00    3.641900e+00
  6.163879e+00    3.692268e+00
  6.179755e+00    3.671534e+00
  6.195630e+00    3.614837e+00
  6.211506e+00    3.590368e+00
  6.227381e+00    3.635267e+00
  6.243257e+00    3.599109e+00
  6.259132e+00    3.565542e+00
  6.275008e+00    3.551770e+00
  6.290884e+00    3.575410e+00
  6.306759e+00    3.586919e+00
  6.322635e+00    3.624865e+00
  6.338510e+00    3.628118e+00
  6.354386e+00    3.614406e+00
  6.370261e+00    3.584373e+00
  6.386137e+00    3.560185e+00
  6.402013e+00    3.591412e+00
  6.417888e+00    3.618766e+00
  6.433764e+00    3.537102e+00
  6.449639e+00    3.515091e+00
  6.465515e+00    3.523782e+00
  6.481390e+00    3.525089e+00
  6.497266e+00    3.573645e+00
  6.513142e+00    3.635509e+00
  6.529017e+00    3.568332e+00
  6.544893e+00    3.600423e+00
  6.560768e+00    3.568473e+00
  6.576644e+00    3.475420e+00
  6.592519e+00    3.544888e+00
  6.608395e+00    3.527224e+00
  6.624271e+00    3.535072e+00
  6.640146e+00    3.633932e+00
  6.656022e+00    3.640203e+00
  6.671897e+00    3.645892e+00
  6.687773e+00    3.552952e+00
  6.703648e+00    3.532853e+00
  6.719524e+00    3.554491e+00
  6.735400e+00    3.568497e+00
  6.751275e+00    3.571372e+00
  6.767151e+00    3.525643e+00
  6.783026e+00    3.550554e+00
  6.798902e+00    3.598150e+00
  6.814777e+00    3.525881e+00
  6.830653e+00    3.479876e+00
  6.846529e+00    3.520725e+00
  6.862404e+00    3.594397e+00
  6.878280e+00    3.663248e+00
  6.894155e+00    3.536536e+00
  6.910031e+00    3.519707e+00
  6.925907e+00    3.607230e+00
  6.941782e+00    3.576624e+00
  6.957658e+00    3.520162e+00
  6.973533e+00    3.454651e+00
  6.989409e+00    3.548050e+00
  7.005284e+00    3.537123e+00
  7.021160e+00    3.496687e+00
  7.037036e+00    3.476810e+00
  7.052911e+00    3.497053e+00
  7.068787e+00    3.573412e+00
  7.084662e+00    3.556570e+00
  7.100538e+00    3.508480e+00
  7.116413e+00    3.545602e+00
  7.132289e+00    3.556315e+00
  7.148165e+00    3.532513e+00
  7.164040e+00    3.532640e+00
  7.179916e+00    3.467160e+00
  7.195791e+00    3.428399e+00
  7.211667e+00    3.466131e+00
  7.227542e+00    3.522779e+00
  7.243418e+00    3.526078e+00
  7.259294e+00    3.542982e+00
  7.275169e+00    3.502093e+00
  7.291045e+00    3.570209e+00
  7.306920e+00    3.609668e+00
  7.322796e+00    3.613317e+00
  7.338671e+00    3.531517e+00
  7.354547e+00    3.601434e+00
  7.370423e+00    3.587052e+00
  7.386298e+00    3.492252e+00
  7.402174e+00    3.570814e+00
  7.418049e+00    3.461640e+00
  7.433925e+00    3.409320e+00
  7.449800e+00    3.517945e+00
  7.465676e+00    3.511438e+00
  7.481552e+00    3.523675e+00
  7.497427e+00    3.502852e+00
  7.513303e+00    3.544171e+00
  7.529178e+00    3.564718e+00
  7.545054e+00    3.457896e+00
  7.560929e+00    3.475254e+00
  7.576805e+00    3.449850e+00
  7.592681e+00    3.448341e+00
  7.608556e+00    3.471287e+00
  7.624432e+00    3.414709e+00
  7.640307e+00    3.416926e+00
  7.656183e+00    3.378163e+00
  7.672058e+00    3.440989e+00
  7.687934e+00    3.468685e+00
  7.703810e+00    3.473116e+00
  7.719685e+00    3.486603e+00
  7.735561e+00    3.512201e+00
  7.751436e+00    3.494867e+00
  7.767312e+00    3.483552e+00
  7.783187e+00    3.484159e+00
  7.799063e+00    3.472384e+00
  7.814939e+00    3.448260e+00
  7.830814e+00    3.462980e+00
  7.846690e+00    3.474919e+00
  7.862565e+00    3.408670e+00
  7.878441e+00    3.421945e+00
  7.894317e+00    3.470662e+00
  7.910192e+00    3.467768e+00
  7.926068e+00    3.417238e+00
  7.941943e+00    3.366512e+00
  7.957819e+00    3.369253e+00
  7.973694e+00    3.402424e+00
  7.989570e+00    3.418241e+00
  8.005446e+00    3.447187e+00
  8.021321e+00    3.460980e+00
  8.037197e+00    3.452699e+00
  8.053072e+00    3.384216e+00
  8.068948e+00    3.477028e+00
  8.084823e+00    3.511591e+00
  8.100699e+00    3.498176e+00
  8.116575e+00    3.430496e+00
  8.132450e+00    3.396837e+00
  8.148326e+00    3.495985e+00
  8.164201e+00    3.502193e+00
  8.180077e+00    3.489308e+00
  8.195952e+00    3.506253e+00
  8.211828e+00    3.551974e+00
  8.227704e+00    3.576778e+00
  8.243579e+00    3.486529e+00
  8.259455e+00    3.464714e+00
  8.275330e+00    3.474226e+00
  8.291206e+00    3.463428e+00
  8.307081e+00    3.428889e+00
  8.322957e+00    3.449998e+00
  8.338833e+00    3.430644e+00
  8.354708e+00    3.413338e+00
  8.370584e+00    3.493681e+00
  8.386459e+00    3.421648e+00
  8.402335e+00    3.415307e+00
  8.418210e+00    3.374270e+00
  8.434086e+00    3.359138e+00
  8.449962e+00    3.361486e+00
  8.465837e+00    3.342781e+00
  8.481713e+00    3.351257e+00
  8.497588e+00    3.392067e+00
  8.513464e+00    3.418742e+00
  8.529339e+00    3.454557e+00
  8.545215e+00    3.337150e+00
  8.561091e+00    3.374399e+00
  8.576966e+00    3.395262e+00
  8.592842e+00    3.342383e+00
  8.608717e+00    3.335054e+00
  8.624593e+00    3.445748e+00
  8.640468e+00    3.437161e+00
  8.656344e+00    3.400419e+00
  8.672220e+00    3.303623e+00
  8.688095e+00    3.283710e+00
  8.703971e+00    3.353787e+00
  8.719846e+00    3.305433e+00
  8.735722e+00    3.392525e+00
  8.751598e+00    3.358503e+00
  8.767473e+00    3.377840e+00
  8.783349e+00    3.392445e+00
  8.799224e+00    3.347812e+00
  8.815100e+00    3.317930e+00
  8.830975e+00    3.344890e+00
  8.846851e+00    3.348430e+00
  8.862727e+00    3.361407e+00
  8.878602e+00    3.366439e+00
  8.894478e+00    3.361161e+00
  8.910353e+00    3.388670e+00
  8.926229e+00    3.324791e+00
  8.942104e+00    3.290493e+00
  8.957980e+00    3.306272e+00
  8.973856e+00    3.297952e+00
  8.989731e+00    3.338390e+00
  9.005607e+00    3.270324e+00
  9.021482e+00    3.243322e+00
  9.037358e+00    3.288835e+00
  9.053233e+00    3.329139e+00
  9.069109e+00    3.332433e+00
  9.084985e+00    3.279342e+00
  9.100860e+00    3.314134e+00
  9.116736e+00    3.206136e+00
  9.132611e+00    3.226628e+00
  9.148487e+00    3.297518e+00
  9.164362e+00    3.267513e+00
  9.180238e+00    3.221218e+00
  9.196114e+00    3.236501e+00
  9.211989e+00    3.249616e+00
  9.227865e+00    3.294374e+00
  9.243740e+00    3.303501e+00
  9.259616e+00    3.212685e+00
  9.275491e+00    3.212163e+00
  9.291367e+00    3.296024e+00
  9.307243e+00    3.241397e+00
  9.323118e+00    3.244780e+00
  9.338994e+00    3.249528e+00
  9.354869e+00    3.252209e+00
  9.370745e+00    3.281627e+00
  9.386620e+00    3.286964e+00
  9.402496e+00    3.222696e+00
  9.418372e+00    3.239442e+00
  9.434247e+00    3.260027e+00
  9.450123e+00    3.207983e+00
  9.465998e+00    3.190206e+00
  9.481874e+00    3.266148e+00
  9.497749e+00    3.241524e+00
  9.513625e+00    3.235822e+00
  9.529501e+00    3.266311e+00
  9.545376e+00    3.243112e+00
  9.561252e+00    3.229183e+00
  9.577127e+00    3.254341e+00
  9.593003e+00    3.249373e+00
  9.608878e+00    3.223555e+00
  9.624754e+00    3.237352e+00
  9.640630e+00    3.165548e+00
  9.656505e+00    3.195232e+00
  9.672381e+00    3.208594e+00
  9.688256e+00    3.235802e+00
  9.704132e+00    3.211210e+00
  9.720008e+00    3.168277e+00
  9.735883e+00    3.205337e+00
  9.751759e+00    3.148302e+00
  9.767634e+00    3.158540e+00
  9.783510e+00    3.194421e+00
  9.799385e+00    3.160577e+00
  9.815261e+00    3.168239e+00
  9.831137e+00    3.156334e+00
  9.847012e+00    3.206896e+00
  9.862888e+00    3.241762e+00
  9.878763e+00    3.218151e+00
  9.894639e+00    3.156730e+00
  9.910514e+00    3.121059e+00
  9.926390e+00    3.115671e+00
  9.942266e+00    3.104596e+00
  9.958141e+00    3.163748e+00
  9.974017e+00    3.141493e+00
  9.989892e+00    3.109922e+00
  1.000577e+01    3.137882e+00
  1.002164e+01    3.142170e+00
  1.003752e+01    3.111738e+00
  1.005339e+01    3.109939e+00
  1.006927e+01    3.092936e+00
  1.008515e+01    3.094750e+00
  1.010102e+01    3.126338e+00
  1.011690e+01    3.107778e+00
  1.013277e+01    3.084234e+00
  1.014865e+01    3.144163e+00
  1.016452e+01    3.100623e+00
  1.018040e+01    3.084512e+00
  1.019627e+01    3.142863e+00
  1.021215e+01    3.146476e+00
  1.022803e+01    3.143280e+00
  1.024390e+01    3.122610e+00
  1.025978e+01    3.090747e+00
  1.027565e+01    3.105758e+00
  1.029153e+01    3.027627e+00
  1.030740e+01    3.006848e+00
  1.032328e+01    3.043053e+00
  1.033915e+01    3.055005e+00
  1.035503e+01    3.131936e+00
  1.037091e+01    3.103526e+00
  1.038678e+01    3.004475e+00
  1.040266e+01    2.996813e+00
  1.041853e+01    3.033701e+00
  1.043441e+01    3.033749e+00
  1.045028e+01    3.045371e+00
  1.046616e+01    3.033646e+00
  1.048204e+01    3.069632e+00
  1.049791e+01    3.016410e+00
  1.051379e+01    3.010158e+00
  1.052966e+01    3.049142e+00
  1.054554e+01    2.979499e+00
  1.056141e+01    2.967568e+00
  1.057729e+01    2.996488e+00
  1.059316e+01    2.977514e+00
  1.060904e+01    2.980384e+00
  1.062492e+01    2.987942e+00
  1.064079e+01    2.999794e+00
  1.065667e+01    3.055273e+00
  1.067254e+01    3.032343e+00
  1.068842e+01    2.993540e+00
  1.070429e+01    2.953280e+00
  1.072017e+01    2.940922e+00
  1.073604e+01    3.008262e+00
  1.075192e+01    3.030176e+00
  1.076780e+01    3.035193e+00
  1.078367e+01    3.008635e+00
  1.079955e+01    2.970439e+00
  1.081542e+01    2.966176e+00
  1.083130e+01    2.962220e+00
  1.084717e+01    2.934969e+00
  1.086305e+01    2.953635e+00
  1.087892e+01    2.964295e+00
  1.089480e+01    2.963851e+00
  1.091068e+01    2.944231e+00
  1.092655e+01    2.930923e+00
  1.094243e+01    2.937333e+00
  1.095830e+01    2.944186e+00
  1.097418e+01    2.950840e+00
  1.099005e+01    2.933392e+00
  1.100593e+01    2.905217e+00
  1.102180e+01    2.931973e+00
  1.103768e+01    2.908126e+00
  1.105356e+01    2.886283e+00
  1.106943e+01    2.885777e+00
  1.108531e+01    2.875569e+00
  1.110118e+01    2.872772e+00
  1.111706e+01    2.903094e+00
  1.113293e+01    2.892034e+00
  1.114881e+01    2.866897e+00
  1.116468e+01    2.873579e+00
  1.118056e+01    2.914554e+00
  1.119644e+01    2.860903e+00
  1.121231e+01    2.836300e+00
  1.122819e+01    2.820235e+00
  1.124406e+01    2.841048e+00
  1.125994e+01    2.841274e+00
  1.127581e+01    2.816756e+00
  1.129169e+01    2.894729e+00
  1.130756e+01    2.854334e+00
  1.132344e+01    2.860091e+00
  1.133932e+01    2.906800e+00
  1.135519e+01    2.892998e+00
  1.137107e+01    2.912192e+00
  1.138694e+01    2.896418e+00
  1.140282e+01    2.843827e+00
  1.141869e+01    2.840513e+00
  1.143457e+01    2.857085e+00
  1.145045e+01    2.839755e+00
  1.146632e+01    2.809561e+00
  1.148220e+01    2.743420e+00
  1.149807e+01    2.777128e+00
  1.151395e+01    2.830347e+00
  1.152982e+01    2.799052e+00
  1.154570e+01    2.749153e+00
  1.156157e+01    2.781316e+00
  1.157745e+01    2.777182e+00
  1.159333e+01    2.809730e+00
  1.160920e+01    2.798368e+00
  1.162508e+01    2.791924e+00
  1.164095e+01    2.791754e+00
  1.165683e+01    2.810449e+00
  1.167270e+01    2.775252e+00
  1.168858e+01    2.743849e+00
  1.170445e+01    2.758082e+00
  1.172033e+01    2.796093e+00
  1.173621e+01    2.746180e+00
  1.175208e+01    2.758866e+00
  1.176796e+01    2.789674e+00
  1.178383e+01    2.759560e+00
  1.179971e+01    2.793812e+00
  1.181558e+01    2.800710e+00
  1.183146e+01    2.794411e+00
  1.184733e+01    2.767026e+00
  1.186321e+01    2.715317e+00
  1.187909e+01    2.752741e+00
  1.189496e+01    2.712832e+00
  1.191084e+01    2.729648e+00
  1.192671e+01    2.730957e+00
  1.194259e+01    2.776489e+00
  1.195846e+01    2.762615e+00
  1.197434e+01    2.708818e+00
  1.199021e+01    2.709693e+00
  1.200609e+01    2.724576e+00
  1.202197e+01    2.733443e+00
  1.203784e+01    2.729831e+00
  1.205372e+01    2.684058e+00
  1.206959e+01    2.696681e+00
  1.208547e+01    2.771843e+00
  1.210134e+01    2.749886e+00
  1.211722e+01    2.696278e+00
  1.213309e+01    2.713648e+00
  1.214897e+01    2.746819e+00
  1.216485e+01    2.701949e+00
  1.218072e+01    2.665868e+00
  1.219660e+01    2.676895e+00
  1.221247e+01    2.649929e+00
  1.222835e+01    2.666397e+00
  1.224422e+01    2.752728e+00
  1.226010e+01    2.695233e+00
  1.227597e+01    2.679090e+00
  1.229185e+01    2.681866e+00
  1.230773e+01    2.672122e+00
  1.232360e+01    2.667383e+00
  1.233948e+01    2.682349e+00
  1.235535e+01    2.734019e+00
  1.237123e+01    2.680152e+00
  1.238710e+01    2.666772e+00
  1.240298e+01    2.691331e+00
  1.241886e+01    2.705036e+00
  1.243473e+01    2.709490e+00
  1.245061e+01    2.746700e+00
  1.246648e+01    2.666428e+00
  1.248236e+01    2.736034e+00
  1.249823e+01    2.714573e+00
  1.251411e+01    2.679900e+00
  1.252998e+01    2.632682e+00
  1.254586e+01    2.705549e+00
  1.256174e+01    2.700755e+00
  1.257761e+01    2.764877e+00
  1.259349e+01    2.757200e+00
  1.260936e+01    2.771629e+00
  1.262524e+01    2.735225e+00
  1.264111e+01    2.732529e+00
  1.265699e+01    2.782305e+00
  1.267286e+01    2.784852e+00
  1.268874e+01    2.782487e+00
  1.270462e+01    2.807446e+00
  1.272049e+01    2.864446e+00
  1.273637e+01    2.902209e+00
  1.275224e+01    2.908110e+00
  1.276812e+01    2.932878e+00
  1.278399e+01    2.987033e+00
  1.279987e+01    3.066055e+00
  1.281574e+01    3.036549e+00
  1.283162e+01    3.089369e+00
  1.284750e+01    3.199383e+00
  1.286337e+01    3.265277e+00
  1.287925e+01    3.374019e+00
  1.289512e+01    3.536878e+00
  1.291100e+01    3.693223e+00
  1.292687e+01    3.873736e+00
  1.294275e+01    4.057400e+00
  1.295862e+01    4.382341e+00
  1.297450e+01    4.787876e+00
  1.299038e+01    5.246654e+00
  1.300625e+01    5.905118e+00
  1.302213e+01    6.685676e+00
  1.303800e+01    7.727139e+00
  1.305388e+01    8.886487e+00
  1.306975e+01    1.010254e+01
  1.308563e+01    1.151380e+01
  1.310150e+01    1.272055e+01
  1.311738e+01    1.370419e+01
  1.313326e+01    1.492740e+01
  1.314913e+01    1.573104e+01
  1.316501e+01    1.624791e+01
  1.318088e+01    1.634367e+01
  1.319676e+01    1.566827e+01
  1.321263e+01    1.430116e+01
  1.322851e+01    1.255293e+01
  1.324438e+01    1.075886e+01
  1.326026e+01    9.040510e+00
  1.327614e+01    7.742020e+00
  1.329201e+01    6.739588e+00
  1.330789e+01    5.923421e+00
  1.332376e+01    5.315053e+00
  1.333964e+01    4.777820e+00
  1.335551e+01    4.456033e+00
  1.337139e+01    4.069727e+00
  1.338727e+01    3.839883e+00
  1.340314e+01    3.597129e+00
  1.341902e+01    3.479471e+00
  1.343489e+01    3.411022e+00
  1.345077e+01    3.267633e+00
  1.346664e+01    3.147595e+00
  1.348252e+01    3.055341e+00
  1.349839e+01    2.960773e+00
  1.351427e+01    2.929083e+00
  1.353015e+01    2.867836e+00
  1.354602e+01    2.856174e+00
  1.356190e+01    2.806523e+00
  1.357777e+01    2.775663e+00
  1.359365e+01    2.749671e+00
  1.360952e+01    2.704087e+00
  1.362540e+01    2.695942e+00
  1.364127e+01    2.614342e+00
  1.365715e+01    2.590968e+00
  1.367303e+01    2.556475e+00
  1.368890e+01    2.558862e+00
  1.370478e+01    2.527892e+00
  1.372065e+01    2.521192e+00
  1.373653e+01    2.522472e+00
  1.375240e+01    2.525497e+00
  1.376828e+01    2.514159e+00
  1.378415e+01    2.486803e+00
  1.380003e+01    2.456407e+00
  1.381591e+01    2.467020e+00
  1.383178e+01    2.451719e+00
  1.384766e+01    2.464530e+00
  1.386353e+01    2.402186e+00
  1.387941e+01    2.347325e+00
  1.389528e+01    2.381221e+00
  1.391116e+01    2.385824e+00
  1.392703e+01    2.404025e+00
  1.394291e+01    2.412089e+00
  1.395879e+01    2.383883e+00
  1.397466e+01    2.374827e+00
  1.399054e+01    2.342368e+00
  1.400641e+01    2.366343e+00
  1.402229e+01    2.360307e+00
  1.403816e+01    2.325123e+00
  1.405404e+01    2.362210e+00
  1.406991e+01    2.365209e+00
  1.408579e+01    2.329653e+00
  1.410167e+01    2.322781e+00
  1.411754e+01    2.309338e+00
  1.413342e+01    2.342490e+00
  1.414929e+01    2.330369e+00
  1.416517e+01    2.286538e+00
  1.418104e+01    2.299402e+00
  1.419692e+01    2.300057e+00
  1.421279e+01    2.312646e+00
  1.422867e+01    2.320893e+00
  1.424455e+01    2.304177e+00
  1.426042e+01    2.277152e+00
  1.427630e+01    2.248902e+00
  1.429217e+01    2.258144e+00
  1.430805e+01    2.263192e+00
  1.432392e+01    2.264528e+00
  1.433980e+01    2.207668e+00
  1.435568e+01    2.236211e+00
  1.437155e+01    2.254454e+00
  1.438743e+01    2.298107e+00
  1.440330e+01    2.291185e+00
  1.441918e+01    2.258385e+00
  1.443505e+01    2.259472e+00
  1.445093e+01    2.222832e+00
  1.446680e+01    2.241300e+00
  1.448268e+01    2.227014e+00
  1.449856e+01    2.219961e+00
  1.451443e+01    2.247748e+00
  1.453031e+01    2.229082e+00
  1.454618e+01    2.208032e+00
  1.456206e+01    2.237159e+00
  1.457793e+01    2.241208e+00
  1.459381e+01    2.254233e+00
  1.460968e+01    2.245470e+00
  1.462556e+01    2.218397e+00
  1.464144e+01    2.232337e+00
  1.465731e+01    2.250658e+00
  1.467319e+01    2.193476e+00
  1.468906e+01    2.195097e+00
  1.470494e+01    2.211596e+00
  1.472081e+01    2.207816e+00
  1.473669e+01    2.199699e+00
  1.475256e+01    2.198315e+00
  1.476844e+01    2.188209e+00
  1.478432e+01    2.217145e+00
  1.480019e+01    2.185528e+00
  1.481607e+01    2.201997e+00
  1.483194e+01    2.221687e+00
  1.484782e+01    2.207752e+00
  1.486369e+01    2.245846e+00
  1.487957e+01    2.260450e+00
  1.489544e+01    2.238532e+00
  1.491132e+01    2.292331e+00
  1.492720e+01    2.303977e+00
  1.494307e+01    2.302228e+00
  1.495895e+01    2.336905e+00
  1.497482e+01    2.405940e+00
  1.499070e+01    2.423802e+00
  1.500657e+01    2.443743e+00
  1.502245e+01    2.536965e+00
  1.503832e+01    2.604542e+00
  1.505420e+01    2.704217e+00
  1.507008e+01    2.824292e+00
  1.508595e+01    3.015806e+00
  1.510183e+01    3.212600e+00
  1.511770e+01    3.440566e+00
  1.513358e+01    3.796333e+00
  1.514945e+01    4.183819e+00
  1.516533e+01    4.556919e+00
  1.518120e+01    4.834921e+00
  1.519708e+01    5.140361e+00
  1.521296e+01    5.422635e+00
  1.522883e+01    5.577904e+00
  1.524471e+01    5.764499e+00
  1.526058e+01    5.752109e+00
  1.527646e+01    5.684270e+00
  1.529233e+01    5.460675e+00
  1.530821e+01    5.137743e+00
  1.532409e+01    4.665731e+00
  1.533996e+01    4.218798e+00
  1.535584e+01    3.831602e+00
  1.537171e+01    3.460897e+00
  1.538759e+01    3.194737e+00
  1.540346e+01    2.995869e+00
  1.541934e+01    2.793351e+00
  1.543521e+01    2.627451e+00
  1.545109e+01    2.504150e+00
  1.546697e+01    2.494514e+00
  1.548284e+01    2.387558e+00
  1.549872e+01    2.319271e+00
  1.551459e+01    2.260992e+00
  1.553047e+01    2.257589e+00
  1.554634e+01    2.226210e+00
  1.556222e+01    2.181796e+00
  1.557809e+01    2.115251e+00
  1.559397e+01    2.087096e+00
  1.560985e+01    2.098499e+00
  1.562572e+01    2.059841e+00
  1.564160e+01    2.062021e+00
  1.565747e+01    2.052866e+00
  1.567335e+01    2.043795e+00
  1.568922e+01    1.961337e+00
  1.570510e+01    1.960341e+00
  1.572097e+01    1.998637e+00
  1.573685e+01    1.990888e+00
  1.575273e+01    1.959800e+00
  1.576860e+01    1.940037e+00
  1.578448e+01    1.948435e+00
  1.580035e+01    1.924990e+00
  1.581623e+01    1.953202e+00
  1.583210e+01    1.962637e+00
  1.584798e+01    1.954902e+00
  1.586385e+01    1.945175e+00
  1.587973e+01    1.908764e+00
  1.589561e+01    1.881607e+00
  1.591148e+01    1.872519e+00
  1.592736e+01    1.893645e+00
  1.594323e+01    1.872038e+00
  1.595911e+01    1.895100e+00
  1.597498e+01    1.919489e+00
  1.599086e+01    1.902666e+00
  1.600673e+01    1.891897e+00
  1.602261e+01    1.868672e+00
  1.603849e+01    1.852948e+00
  1.605436e+01    1.865153e+00
  1.607024e+01    1.852834e+00
  1.608611e+01    1.849092e+00
  1.610199e+01    1.850010e+00
  1.611786e+01    1.861973e+00
  1.613374e+01    1.836872e+00
  1.614961e+01    1.844064e+00
  1.616549e+01    1.859318e+00
  1.618137e+01    1.818932e+00
  1.619724e+01    1.796681e+00
  1.621312e+01    1.802292e+00
  1.622899e+01    1.806309e+00
  1.624487e+01    1.834563e+00
  1.626074e+01    1.817582e+00
  1.627662e+01    1.803849e+00
  1.629250e+01    1.809106e+00
  1.630837e+01    1.818137e+00
  1.632425e+01    1.806196e+00
  1.634012e+01    1.805897e+00
  1.635600e+01    1.804083e+00
  1.637187e+01    1.782843e+00
  1.638775e+01    1.790551e+00
  1.640362e+01    1.797410e+00
  1.641950e+01    1.776568e+00
  1.643538e+01    1.780496e+00
  1.645125e+01    1.778695e+00
  1.646713e+01    1.789799e+00
  1.648300e+01    1.785014e+00
  1.649888e+01    1.759716e+00
  1.651475e+01    1.752672e+00
  1.653063e+01    1.766019e+00
  1.654650e+01    1.776873e+00
  1.656238e+01    1.741508e+00
  1.657826e+01    1.747002e+00
  1.659413e+01    1.771493e+00
  1.661001e+01    1.753140e+00
  1.662588e+01    1.746898e+00
  1.664176e+01    1.765202e+00
  1.665763e+01    1.725182e+00
  1.667351e+01    1.700200e+00
  1.668938e+01    1.695904e+00
  1.670526e+01    1.710602e+00
  1.672114e+01    1.710984e+00
  1.673701e+01    1.678155e+00
  1.675289e+01    1.674424e+00
  1.676876e+01    1.705399e+00
  1.678464e+01    1.721608e+00
  1.680051e+01    1.721339e+00
  1.681639e+01    1.732694e+00
  1.683226e+01    1.721381e+00
  1.684814e+01    1.707501e+00
  1.686402e+01    1.710419e+00
  1.687989e+01    1.723097e+00
  1.689577e+01    1.666690e+00
  1.691164e+01    1.661741e+00
  1.692752e+01    1.704929e+00
  1.694339e+01    1.709387e+00
  1.695927e+01    1.696035e+00
  1.697514e+01    1.672824e+00
  1.699102e+01    1.686266e+00
  1.700690e+01    1.718328e+00
  1.702277e+01    1.703639e+00
  1.703865e+01    1.657928e+00
  1.705452e+01    1.647604e+00
  1.707040e+01    1.650493e+00
  1.708627e+01    1.638076e+00
  1.710215e+01    1.640645e+00
  1.711802e+01    1.616046e+00
  1.713390e+01    1.635835e+00
  1.714978e+01    1.643843e+00
  1.716565e+01    1.663658e+00
  1.718153e+01    1.665343e+00
  1.719740e+01    1.633360e+00
  1.721328e+01    1.630651e+00
  1.722915e+01    1.637151e+00
  1.724503e+01    1.664080e+00
  1.726091e+01    1.660714e+00
  1.727678e+01    1.611473e+00
  1.729266e+01    1.599404e+00
  1.730853e+01    1.619361e+00
  1.732441e+01    1.638168e+00
  1.734028e+01    1.641202e+00
  1.735616e+01    1.605085e+00
  1.737203e+01    1.606519e+00
  1.738791e+01    1.589076e+00
  1.740379e+01    1.603097e+00
  1.741966e+01    1.586477e+00
  1.743554e+01    1.603558e+00
  1.745141e+01    1.609215e+00
  1.746729e+01    1.575455e+00
  1.748316e+01    1.568426e+00
  1.749904e+01    1.582820e+00
  1.751491e+01    1.598767e+00
  1.753079e+01    1.581284e+00
  1.754667e+01    1.573637e+00
  1.756254e+01    1.581308e+00
  1.757842e+01    1.597873e+00
  1.759429e+01    1.600924e+00
  1.761017e+01    1.629070e+00
  1.762604e+01    1.619385e+00
  1.764192e+01    1.595536e+00
  1.765779e+01    1.580742e+00
  1.767367e+01    1.543920e+00
  1.768955e+01    1.530019e+00
  1.770542e+01    1.546564e+00
  1.772130e+01    1.515628e+00
  1.773717e+01    1.554291e+00
  1.775305e+01    1.543179e+00
  1.776892e+01    1.547541e+00
  1.778480e+01    1.573020e+00
  1.780067e+01    1.556477e+00
  1.781655e+01    1.555679e+00
  1.783243e+01    1.540037e+00
  1.784830e+01    1.535532e+00
  1.786418e+01    1.554536e+00
  1.788005e+01    1.514713e+00
  1.789593e+01    1.539968e+00
  1.791180e+01    1.541579e+00
  1.792768e+01    1.518980e+00
  1.794355e+01    1.533211e+00
  1.795943e+01    1.561131e+00
  1.797531e+01    1.539154e+00
  1.799118e+01    1.532168e+00
  1.800706e+01    1.518003e+00
  1.802293e+01    1.487901e+00
  1.803881e+01    1.499473e+00
  1.805468e+01    1.482235e+00
  1.807056e+01    1.511530e+00
  1.808643e+01    1.507278e+00
  1.810231e+01    1.509874e+00
  1.811819e+01    1.503942e+00
  1.813406e+01    1.494138e+00
  1.814994e+01    1.510329e+00
  1.816581e+01    1.509467e+00
  1.818169e+01    1.485096e+00
  1.819756e+01    1.482684e+00
  1.821344e+01    1.499856e+00
  1.822932e+01    1.499754e+00
  1.824519e+01    1.493590e+00
  1.826107e+01    1.467376e+00
  1.827694e+01    1.498637e+00
  1.829282e+01    1.483726e+00
  1.830869e+01    1.493224e+00
  1.832457e+01    1.465950e+00
  1.834044e+01    1.468558e+00
  1.835632e+01    1.449166e+00
  1.837220e+01    1.450940e+00
  1.838807e+01    1.435887e+00
  1.840395e+01    1.432767e+00
  1.841982e+01    1.465160e+00
  1.843570e+01    1.455956e+00
  1.845157e+01    1.432102e+00
  1.846745e+01    1.422059e+00
  1.848332e+01    1.468165e+00
  1.849920e+01    1.469539e+00
  1.851508e+01    1.452388e+00
  1.853095e+01    1.458362e+00
  1.854683e+01    1.449485e+00
  1.856270e+01    1.444754e+00
  1.857858e+01    1.461845e+00
  1.859445e+01    1.425671e+00
  1.861033e+01    1.430824e+00
  1.862620e+01    1.480702e+00
  1.864208e+01    1.440940e+00
  1.865796e+01    1.425507e+00
  1.867383e+01    1.424266e+00
  1.868971e+01    1.421458e+00
  1.870558e+01    1.409134e+00
  1.872146e+01    1.420211e+00
  1.873733e+01    1.426290e+00
  1.875321e+01    1.413382e+00
  1.876908e+01    1.455576e+00
  1.878496e+01    1.417766e+00
  1.880084e+01    1.398135e+00
  1.881671e+01    1.425269e+00
  1.883259e+01    1.421429e+00
  1.884846e+01    1.408740e+00
  1.886434e+01    1.400974e+00
  1.888021e+01    1.386248e+00
  1.889609e+01    1.373412e+00
  1.891196e+01    1.377312e+00
  1.892784e+01    1.380648e+00
  1.894372e+01    1.398732e+00
  1.895959e+01    1.380516e+00
  1.897547e+01    1.391959e+00
  1.899134e+01    1.380927e+00
  1.900722e+01    1.380820e+00
  1.902309e+01    1.392611e+00
  1.903897e+01    1.400487e+00
  1.905484e+01    1.383229e+00
  1.907072e+01    1.382799e+00
  1.908660e+01    1.349737e+00
  1.910247e+01    1.347280e+00
  1.911835e+01    1.345070e+00
  1.913422e+01    1.364547e+00
  1.915010e+01    1.392740e+00
  1.916597e+01    1.368690e+00
  1.918185e+01    1.379858e+00
  1.919773e+01    1.354062e+00
  1.921360e+01    1.345758e+00
  1.922948e+01    1.370225e+00
  1.924535e+01    1.346429e+00
  1.926123e+01    1.354372e+00
  1.927710e+01    1.351618e+00
  1.929298e+01    1.347489e+00
  1.930885e+01    1.365802e+00
  1.932473e+01    1.378340e+00
  1.934061e+01    1.369011e+00
  1.935648e+01    1.322022e+00
  1.937236e+01    1.339529e+00
  1.938823e+01    1.334317e+00
  1.940411e+01    1.343656e+00
  1.941998e+01    1.361014e+00
  1.943586e+01    1.323277e+00
  1.945173e+01    1.312176e+00
  1.946761e+01    1.311166e+00
  1.948349e+01    1.306311e+00
  1.949936e+01    1.332176e+00
  1.951524e+01    1.348420e+00
  1.953111e+01    1.347448e+00
  1.954699e+01    1.342278e+00
  1.956286e+01    1.324118e+00
  1.957874e+01    1.310165e+00
  1.959461e+01    1.322808e+00
  1.961049e+01    1.335665e+00
  1.962637e+01    1.340499e+00
  1.964224e+01    1.315003e+00
  1.965812e+01    1.321895e+00
  1.967399e+01    1.323168e+00
  1.968987e+01    1.325558e+00
  1.970574e+01    1.323666e+00
  1.972162e+01    1.300165e+00
  1.973749e+01    1.281175e+00
  1.975337e+01    1.299850e+00
  1.976925e+01    1.311614e+00
  1.978512e+01    1.322260e+00
  1.980100e+01    1.316705e+00
  1.981687e+01    1.313338e+00
  1.983275e+01    1.283190e+00
  1.984862e+01    1.309259e+00
  1.986450e+01    1.303205e+00
  1.988037e+01    1.290037e+00
  1.989625e+01    1.301130e+00
  1.991213e+01    1.333610e+00
  1.992800e+01    1.297909e+00
  1.994388e+01    1.292536e+00
  1.995975e+01    1.288190e+00
  1.997563e+01    1.270846e+00
  1.999150e+01    1.291555e+00
  2.000738e+01    1.310868e+00
  2.002325e+01    1.277948e+00
  2.003913e+01    1.288502e+00
  2.005501e+01    1.279851e+00
  2.007088e+01    1.274508e+00
  2.008676e+01    1.294893e+00
  2.010263e+01    1.289904e+00
  2.011851e+01    1.273535e+00
  2.013438e+01    1.266217e+00
  2.015026e+01    1.282050e+00
  2.016614e+01    1.294287e+00
  2.018201e+01    1.278161e+00
  2.019789e+01    1.261471e+00
  2.021376e+01    1.270097e+00
  2.022964e+01    1.264772e+00
  2.024551e+01    1.258891e+00
  2.026139e+01    1.244727e+00
  2.027726e+01    1.260979e+00
  2.029314e+01    1.270475e+00
  2.030902e+01    1.269031e+00
  2.032489e+01    1.255507e+00
  2.034077e+01    1.220417e+00
  2.035664e+01    1.254998e+00
  2.037252e+01    1.268995e+00
  2.038839e+01    1.257687e+00
  2.040427e+01    1.272761e+00
  2.042014e+01    1.253592e+00
  2.043602e+01    1.222399e+00
  2.045190e+01    1.230436e+00
  2.046777e+01    1.251859e+00
  2.048365e+01    1.257245e+00
  2.049952e+01    1.244053e+00
  2.051540e+01    1.271137e+00
  2.053127e+01    1.265893e+00
  2.054715e+01    1.221422e+00
  2.056302e+01    1.227740e+00
  2.057890e+01    1.246576e+00
  2.059478e+01    1.247480e+00
  2.061065e+01    1.241599e+00
  2.062653e+01    1.245288e+00
  2.064240e+01    1.245875e+00
  2.065828e+01    1.223774e+00
  2.067415e+01    1.225325e+00
  2.069003e+01    1.226929e+00
  2.070590e+01    1.259497e+00
  2.072178e+01    1.265073e+00
  2.073766e+01    1.241254e+00
  2.075353e+01    1.234648e+00
  2.076941e+01    1.219280e+00
  2.078528e+01    1.222192e+00
  2.080116e+01    1.237856e+00
  2.081703e+01    1.241367e+00
  2.083291e+01    1.226078e+00
  2.084878e+01    1.203292e+00
  2.086466e+01    1.205049e+00
  2.088054e+01    1.204103e+00
  2.089641e+01    1.202876e+00
  2.091229e+01    1.227490e+00
  2.092816e+01    1.203209e+00
  2.094404e+01    1.223964e+00
  2.095991e+01    1.225903e+00
  2.097579e+01    1.238835e+00
  2.099166e+01    1.250871e+00
  2.100754e+01    1.263467e+00
  2.102342e+01    1.227366e+00
  2.103929e+01    1.210525e+00
  2.105517e+01    1.201927e+00
  2.107104e+01    1.208819e+00
  2.108692e+01    1.233339e+00
  2.110279e+01    1.209845e+00
  2.111867e+01    1.208351e+00
  2.113455e+01    1.237824e+00
  2.115042e+01    1.247842e+00
  2.116630e+01    1.270979e+00
  2.118217e+01    1.259639e+00
  2.119805e+01    1.240180e+00
  2.121392e+01    1.246317e+00
  2.122980e+01    1.253234e+00
  2.124567e+01    1.262890e+00
  2.126155e+01    1.257517e+00
  2.127743e+01    1.234209e+00
  2.129330e+01    1.241878e+00
  2.130918e+01    1.250101e+00
  2.132505e+01    1.285418e+00
  2.134093e+01    1.290903e+00
  2.135680e+01    1.288673e+00
  2.137268e+01    1.310062e+00
  2.138855e+01    1.315717e+00
  2.140443e+01    1.310676e+00
  2.142031e+01    1.299901e+00
  2.143618e+01    1.312788e+00
  2.145206e+01    1.354154e+00
  2.146793e+01    1.385494e+00
  2.148381e+01    1.402889e+00
  2.149968e+01    1.418048e+00
  2.151556e+01    1.427005e+00
  2.153143e+01    1.472295e+00
  2.154731e+01    1.522210e+00
  2.156319e+01    1.556291e+00
  2.157906e+01    1.605397e+00
  2.159494e+01    1.692406e+00
  2.161081e+01    1.805463e+00
  2.162669e+01    1.888939e+00
  2.164256e+01    1.994152e+00
  2.165844e+01    2.134652e+00
  2.167431e+01    2.320669e+00
  2.169019e+01    2.515773e+00
  2.170607e+01    2.734788e+00
  2.172194e+01    3.097320e+00
  2.173782e+01    3.496354e+00
  2.175369e+01    4.007931e+00
  2.176957e+01    4.576088e+00
  2.178544e+01    5.188495e+00
  2.180132e+01    5.861228e+00
  2.181719e+01    6.479987e+00
  2.183307e+01    7.161525e+00
  2.184895e+01    7.763907e+00
  2.186482e+01    8.350457e+00
  2.188070e+01    8.746893e+00
  2.189657e+01    8.896055e+00
  2.191245e+01    8.828361e+00
  2.192832e+01    8.282600e+00
  2.194420e+01    7.472976e+00
  2.196007e+01    6.563512e+00
  2.197595e+01    5.729136e+00
  2.199183e+01    4.876460e+00
  2.200770e+01    4.221477e+00
  2.202358e+01    3.650076e+00
  2.203945e+01    3.185617e+00
  2.205533e+01    2.859653e+00
  2.207120e+01    2.585250e+00
  2.208708e+01    2.364661e+00
  2.210296e+01    2.152708e+00
  2.211883e+01    1.996305e+00
  2.213471e+01    1.846379e+00
  2.215058e+01    1.773328e+00
  2.216646e+01    1.698030e+00
  2.218233e+01    1.632161e+00
  2.219821e+01    1.551451e+00
  2.221408e+01    1.468814e+00
  2.222996e+01    1.435100e+00
  2.224584e+01    1.420092e+00
  2.226171e+01    1.366918e+00
  2.227759e+01    1.338902e+00
  2.229346e+01    1.339309e+00
  2.230934e+01    1.314160e+00
  2.232521e+01    1.296315e+00
  2.234109e+01    1.291061e+00
  2.235696e+01    1.262792e+00
  2.237284e+01    1.239561e+00
  2.238872e+01    1.206891e+00
  2.240459e+01    1.183540e+00
  2.242047e+01    1.195699e+00
  2.243634e+01    1.189148e+00
  2.245222e+01    1.201860e+00
  2.246809e+01    1.173976e+00
  2.248397e+01    1.164475e+00
  2.249984e+01    1.152121e+00
  2.251572e+01    1.129948e+00
  2.253160e+01    1.144713e+00
  2.254747e+01    1.130622e+00
  2.256335e+01    1.107016e+00
  2.257922e+01    1.130502e+00
  2.259510e+01    1.123607e+00
  2.261097e+01    1.107713e+00
  2.262685e+01    1.083673e+00
  2.264272e+01    1.082317e+00
  2.265860e+01    1.096637e+00
  2.267448e+01    1.082770e+00
  2.269035e+01    1.092290e+00
  2.270623e+01    1.084045e+00
  2.272210e+01    1.066427e+00
  2.273798e+01    1.074360e+00
  2.275385e+01    1.057393e+00
  2.276973e+01    1.049335e+00
  2.278560e+01    1.034492e+00
  2.280148e+01    1.052848e+00
  2.281736e+01    1.042091e+00
  2.283323e+01    1.056958e+00
  2.284911e+01    1.041602e+00
  2.286498e+01    1.028614e+00
  2.288086e+01    1.044964e+00
  2.289673e+01    1.042930e+00
  2.291261e+01    1.043768e+00
  2.292848e+01    1.022057e+00
  2.294436e+01    1.028313e+00
  2.296024e+01    1.039022e+00
  2.297611e+01    1.044864e+00
  2.299199e+01    1.029245e+00
  2.300786e+01    1.024749e+00
  2.302374e+01    1.017522e+00
  2.303961e+01    1.000959e+00
  2.305549e+01    9.921275e-01
  2.307137e+01    1.012393e+00
  2.308724e+01    1.010378e+00
  2.310312e+01    9.993464e-01
  2.311899e+01    1.006867e+00
  2.313487e+01    1.008213e+00
  2.315074e+01    1.021150e+00
  2.316662e+01    1.023218e+00
  2.318249e+01    1.020174e+00
  2.319837e+01    1.013439e+00
  2.321425e+01    1.001361e+00
  2.323012e+01    9.878944e-01
  2.324600e+01    9.842751e-01
  2.326187e+01    9.912804e-01
  2.327775e+01    1.011132e+00
  2.329362e+01    9.917507e-01
  2.330950e+01    9.939730e-01
  2.332537e+01    9.784279e-01
  2.334125e+01    9.828411e-01
  2.335713e+01    9.799439e-01
  2.337300e+01    9.669604e-01
  2.338888e+01    9.878082e-01
  2.340475e+01    9.793351e-01
  2.342063e+01    9.764044e-01
  2.343650e+01    9.659387e-01
  2.345238e+01    9.771348e-01
  2.346825e+01    9.751024e-01
  2.348413e+01    9.592507e-01
  2.350001e+01    9.541548e-01
  2.351588e+01    9.636130e-01
  2.353176e+01    9.526001e-01
  2.354763e+01    9.471520e-01
  2.356351e+01    9.590297e-01
  2.357938e+01    9.737047e-01
  2.359526e+01    9.486625e-01
  2.361113e+01    9.677671e-01
  2.362701e+01    9.614333e-01
  2.364289e+01    9.648513e-01
  2.365876e+01    9.578932e-01
  2.367464e+01    9.444211e-01
  2.369051e+01    9.356084e-01
  2.370639e+01    9.681714e-01
  2.372226e+01    9.512326e-01
  2.373814e+01    9.459246e-01
  2.375401e+01    9.455335e-01
  2.376989e+01    9.012941e-01
  2.378577e+01    9.160384e-01
  2.380164e+01    9.454961e-01
  2.381752e+01    9.331280e-01
  2.383339e+01    9.371369e-01
  2.384927e+01    9.251717e-01
  2.386514e+01    9.275890e-01
  2.388102e+01    9.166807e-01
  2.389689e+01    9.168784e-01
  2.391277e+01    9.186185e-01
  2.392865e+01    9.141502e-01
  2.394452e+01    9.137694e-01
  2.396040e+01    8.954886e-01
  2.397627e+01    8.891460e-01
  2.399215e+01    8.808513e-01
  2.400802e+01    8.940976e-01
  2.402390e+01    8.988593e-01
  2.403978e+01    8.961483e-01
  2.405565e+01    9.082772e-01
  2.407153e+01    8.713946e-01
  2.408740e+01    8.860011e-01
  2.410328e+01    9.024039e-01
  2.411915e+01    8.853006e-01
  2.413503e+01    8.800384e-01
  2.415090e+01    8.752161e-01
  2.416678e+01    8.957147e-01
  2.418266e+01    8.838628e-01
  2.419853e+01    8.822684e-01
  2.421441e+01    8.788829e-01
  2.423028e+01    8.998078e-01
  2.424616e+01    9.097074e-01
  2.426203e+01    9.174833e-01
  2.427791e+01    8.949612e-01
  2.429378e+01    8.899719e-01
  2.430966e+01    8.977820e-01
  2.432554e+01    8.825802e-01
  2.434141e+01    9.079058e-01
  2.435729e+01    8.926192e-01
  2.437316e+01    8.902858e-01
  2.438904e+01    8.972541e-01
  2.440491e+01    9.102471e-01
  2.442079e+01    9.203039e-01
  2.443666e+01    9.067891e-01
  2.445254e+01    9.009497e-01
  2.446842e+01    9.071930e-01
  2.448429e+01    9.016515e-01
  2.450017e+01    8.806534e-01
  2.451604e+01    8.973051e-01
  2.453192e+01    8.874216e-01
  2.454779e+01    8.876324e-01
  2.456367e+01    8.922783e-01
  2.457954e+01    9.098539e-01
  2.459542e+01    8.982087e-01
  2.461130e+01    8.989844e-01
  2.462717e+01    8.855897e-01
  2.464305e+01    9.097167e-01
  2.465892e+01    9.049047e-01
  2.467480e+01    8.853130e-01
  2.469067e+01    8.992221e-01
  2.470655e+01    9.089638e-01
  2.472242e+01    8.995085e-01
  2.473830e+01    8.958730e-01
  2.475418e+01    8.854918e-01
  2.477005e+01    8.845455e-01
  2.478593e+01    8.833784e-01
  2.480180e+01    8.934052e-01
  2.481768e+01    8.990517e-01
  2.483355e+01    8.854727e-01
  2.484943e+01    8.859304e-01
  2.486530e+01    9.025571e-01
  2.488118e+01    9.157434e-01
  2.489706e+01    9.026332e-01
  2.491293e+01    8.987521e-01
  2.492881e+01    8.917137e-01
  2.494468e+01    8.857549e-01
  2.496056e+01    8.945393e-01
  2.497643e+01    9.076107e-01
  2.499231e+01    9.112406e-01
  2.500819e+01    8.994384e-01
  2.502406e+01    8.989662e-01
  2.503994e+01    9.002125e-01
  2.505581e+01    9.098874e-01
  2.507169e+01    9.235390e-01
  2.508756e+01    9.039147e-01
  2.510344e+01    9.065852e-01
  2.511931e+01    9.174703e-01
  2.513519e+01    9.109948e-01
  2.515107e+01    8.864744e-01
  2.516694e+01    9.053637e-01
  2.518282e+01    9.353655e-01
  2.519869e+01    9.262376e-01
  2.521457e+01    9.429883e-01
  2.523044e+01    9.336204e-01
  2.524632e+01    9.350426e-01
  2.526219e+01    9.399370e-01
  2.527807e+01    9.438455e-01
  2.529395e+01    9.573299e-01
  2.530982e+01    9.558936e-01
  2.532570e+01    9.499051e-01
  2.534157e+01    9.615166e-01
  2.535745e+01    9.547436e-01
  2.537332e+01    9.644260e-01
  2.538920e+01    9.802995e-01
  2.540507e+01    1.003082e+00
  2.542095e+01    1.010874e+00
  2.543683e+01    1.001750e+00
  2.545270e+01    1.033382e+00
  2.546858e+01    1.049489e+00
  2.548445e+01    1.030361e+00
  2.550033e+01    1.069790e+00
  2.551620e+01    1.081885e+00
  2.553208e+01    1.091037e+00
  2.554795e+01    1.101852e+00
  2.556383e+01    1.147574e+00
  2.557971e+01    1.158840e+00
  2.559558e+01    1.199806e+00
  2.561146e+01    1.214863e+00
  2.562733e+01    1.238632e+00
  2.564321e+01    1.304803e+00
  2.565908e+01    1.359018e+00
  2.567496e+01    1.431297e+00
  2.569083e+01    1.520794e+00
  2.570671e+01    1.595358e+00
  2.572259e+01    1.707945e+00
  2.573846e+01    1.846096e+00
  2.575434e+01    2.017701e+00
  2.577021e+01    2.215461e+00
  2.578609e+01    2.468163e+00
  2.580196e+01    2.814326e+00
  2.581784e+01    3.211423e+00
  2.583371e+01    3.647090e+00
  2.584959e+01    4.128316e+00
  2.586547e+01    4.636211e+00
  2.588134e+01    5.241783e+00
  2.589722e+01    5.793427e+00
  2.591309e+01    6.328944e+00
  2.592897e+01    6.752117e+00
  2.594484e+01    7.053723e+00
  2.596072e+01    7.075094e+00
  2.597660e+01    6.939912e+00
  2.599247e+01    6.612062e+00
  2.600835e+01    6.063943e+00
  2.602422e+01    5.315310e+00
  2.604010e+01    4.596224e+00
  2.605597e+01    3.982838e+00
  2.607185e+01    3.435103e+00
  2.608772e+01    3.000975e+00
  2.610360e+01    2.665330e+00
  2.611948e+01    2.379380e+00
  2.613535e+01    2.168079e+00
  2.615123e+01    1.953196e+00
  2.616710e+01    1.812141e+00
  2.618298e+01    1.667268e+00
  2.619885e+01    1.579129e+00
  2.621473e+01    1.487058e+00
  2.623060e+01    1.402383e+00
  2.624648e+01    1.351788e+00
  2.626236e+01    1.267583e+00
  2.627823e+01    1.263242e+00
  2.629411e+01    1.239526e+00
  2.630998e+01    1.187448e+00
  2.632586e+01    1.164216e+00
  2.634173e+01    1.123468e+00
  2.635761e+01    1.113545e+00
  2.637348e+01    1.095629e+00
  2.638936e+01    1.090793e+00
  2.640524e+01    1.048265e+00
  2.642111e+01    1.032402e+00
  2.643699e+01    1.045574e+00
  2.645286e+01    1.043063e+00
  2.646874e+01    1.017639e+00
  2.648461e+01    1.011852e+00
  2.650049e+01    1.008563e+00
  2.651636e+01    1.001515e+00
  2.653224e+01    9.873267e-01
  2.654812e+01    9.824243e-01
  2.656399e+01    9.925919e-01
  2.657987e+01    9.850913e-01
  2.659574e+01    9.995960e-01
  2.661162e+01    1.007743e+00
  2.662749e+01    9.793473e-01
  2.664337e+01    9.747824e-01
  2.665924e+01    9.692219e-01
  2.667512e+01    9.527808e-01
  2.669100e+01    9.642810e-01
  2.670687e+01    9.445475e-01
  2.672275e+01    9.739757e-01
  2.673862e+01    9.861474e-01
  2.675450e+01    9.662859e-01
  2.677037e+01    9.656311e-01
  2.678625e+01    9.673412e-01
  2.680212e+01    9.650931e-01
  2.681800e+01    9.734656e-01
  2.683388e+01    9.976241e-01
  2.684975e+01    9.926506e-01
  2.686563e+01    9.907760e-01
  2.688150e+01    9.899856e-01
  2.689738e+01    1.006431e+00
  2.691325e+01    1.016694e+00
  2.692913e+01    1.042714e+00
  2.694501e+01    1.034558e+00
  2.696088e+01    1.028539e+00
  2.697676e+01    1.048645e+00
  2.699263e+01    1.069370e+00
  2.700851e+01    1.099761e+00
  2.702438e+01    1.162864e+00
  2.704026e+01    1.188344e+00
  2.705613e+01    1.257039e+00
  2.707201e+01    1.319153e+00
  2.708789e+01    1.424713e+00
  2.710376e+01    1.519309e+00
  2.711964e+01    1.594741e+00
  2.713551e+01    1.721312e+00
  2.715139e+01    1.872447e+00
  2.716726e+01    1.997445e+00
  2.718314e+01    2.074213e+00
  2.719901e+01    2.123217e+00
  2.721489e+01    2.194468e+00
  2.723077e+01    2.148835e+00
  2.724664e+01    2.101366e+00
  2.726252e+01    1.990820e+00
  2.727839e+01    1.862676e+00
  2.729427e+01    1.729334e+00
  2.731014e+01    1.558080e+00
  2.732602e+01    1.453341e+00
  2.734189e+01    1.369443e+00
  2.735777e+01    1.288863e+00
  2.737365e+01    1.197017e+00
  2.738952e+01    1.167268e+00
  2.740540e+01    1.139269e+00
  2.742127e+01    1.088254e+00
  2.743715e+01    1.070664e+00
  2.745302e+01    1.043581e+00
  2.746890e+01    1.022257e+00
  2.748477e+01    1.001968e+00
  2.750065e+01    9.990414e-01
  2.751653e+01    9.586765e-01
  2.753240e+01    9.575455e-01
  2.754828e+01    9.643201e-01
  2.756415e+01    9.488083e-01
  2.758003e+01    9.474649e-01
  2.759590e+01    9.211977e-01
  2.761178e+01    9.265676e-01
  2.762765e+01    9.312351e-01
  2.764353e+01    9.087117e-01
  2.765941e+01    9.168075e-01
  2.767528e+01    9.261535e-01
  2.769116e+01    9.037260e-01
  2.770703e+01    9.057366e-01
  2.772291e+01    9.259064e-01
  2.773878e+01    9.043928e-01
  2.775466e+01    9.053629e-01
  2.777054e+01    9.111929e-01
  2.778641e+01    8.695305e-01
  2.780229e+01    8.811661e-01
  2.781816e+01    8.888212e-01
  2.783404e+01    8.860217e-01
  2.784991e+01    8.841367e-01
  2.786579e+01    8.930414e-01
  2.788166e+01    8.743523e-01
  2.789754e+01    8.715829e-01
  2.791342e+01    8.642038e-01
  2.792929e+01    8.494312e-01
  2.794517e+01    8.590232e-01
  2.796104e+01    8.747012e-01
  2.797692e+01    8.576455e-01
  2.799279e+01    8.444908e-01
  2.800867e+01    8.491119e-01
  2.802454e+01    8.623510e-01
  2.804042e+01    8.683122e-01
  2.805630e+01    8.669943e-01
  2.807217e+01    8.741121e-01
  2.808805e+01    8.579559e-01
  2.810392e+01    8.658499e-01
  2.811980e+01    8.474841e-01
  2.813567e+01    8.532200e-01
  2.815155e+01    8.644768e-01
  2.816742e+01    8.643168e-01
  2.818330e+01    8.828012e-01
  2.819918e+01    8.511909e-01
  2.821505e+01    8.545453e-01
  2.823093e+01    8.452706e-01
  2.824680e+01    8.737758e-01
  2.826268e+01    8.363329e-01
  2.827855e+01    8.337979e-01
  2.829443e+01    8.400766e-01
  2.831030e+01    8.548595e-01
  2.832618e+01    8.497103e-01
  2.834206e+01    8.599254e-01
  2.835793e+01    8.370248e-01
  2.837381e+01    8.706182e-01
  2.838968e+01    8.580279e-01
  2.840556e+01    8.197296e-01
  2.842143e+01    8.404351e-01
  2.843731e+01    8.319120e-01
  2.845318e+01    8.577585e-01
  2.846906e+01    8.386953e-01
  2.848494e+01    8.395467e-01
  2.850081e+01    8.439792e-01
  2.851669e+01    8.447345e-01
  2.853256e+01    8.474861e-01
  2.854844e+01    8.679006e-01
  2.856431e+01    8.374791e-01
  2.858019e+01    8.384241e-01
  2.859606e+01    8.433265e-01
  2.861194e+01    8.235009e-01
  2.862782e+01    8.601143e-01
  2.864369e+01    8.279518e-01
  2.865957e+01    8.374487e-01
  2.867544e+01    8.414219e-01
  2.869132e+01    8.331804e-01
  2.870719e+01    8.487801e-01
  2.872307e+01    8.271359e-01
  2.873895e+01    8.155362e-01
  2.875482e+01    8.123716e-01
  2.877070e+01    8.150081e-01
  2.878657e+01    8.433635e-01
  2.880245e+01    8.245087e-01
  2.881832e+01    8.225612e-01
  2.883420e+01    8.104803e-01
  2.885007e+01    8.401046e-01
  2.886595e+01    8.225702e-01
  2.888183e+01    8.061021e-01
  2.889770e+01    8.240161e-01
  2.891358e+01    8.188661e-01
  2.892945e+01    8.204659e-01
  2.894533e+01    8.125618e-01
  2.896120e+01    8.385626e-01
  2.897708e+01    8.283817e-01
  2.899295e+01    8.345348e-01
  2.900883e+01    8.118939e-01
  2.902471e+01    8.255939e-01
  2.904058e+01    8.150776e-01
  2.905646e+01    7.997659e-01
  2.907233e+01    7.967885e-01
  2.908821e+01    8.206992e-01
  2.910408e+01    8.167264e-01
  2.911996e+01    8.129188e-01
  2.913583e+01    8.383100e-01
  2.915171e+01    8.166471e-01
  2.916759e+01    8.160411e-01
  2.918346e+01    8.126278e-01
  2.919934e+01    8.036060e-01
  2.921521e+01    7.867072e-01
  2.923109e+01    7.950667e-01
  2.924696e+01    8.163248e-01
  2.926284e+01    8.242035e-01
  2.927871e+01    8.109396e-01
  2.929459e+01    8.199286e-01
  2.931047e+01    8.257166e-01
  2.932634e+01    8.120514e-01
  2.934222e+01    8.074934e-01
  2.935809e+01    8.128167e-01
  2.937397e+01    8.005558e-01
  2.938984e+01    7.962407e-01
  2.940572e+01    7.897453e-01
  2.942159e+01    7.936756e-01
  2.943747e+01    8.028256e-01
  2.945335e+01    8.172297e-01
  2.946922e+01    8.097076e-01
  2.948510e+01    8.176606e-01
  2.950097e+01    8.070365e-01
  2.951685e+01    7.988554e-01
  2.953272e+01    7.980729e-01
  2.954860e+01    8.037472e-01
  2.956447e+01    8.067874e-01
  2.958035e+01    8.050669e-01
  2.959623e+01    8.055128e-01
  2.961210e+01    7.852740e-01
  2.962798e+01    8.061551e-01
  2.964385e+01    8.066421e-01
  2.965973e+01    7.952904e-01
  2.967560e+01    8.092016e-01
  2.969148e+01    8.007096e-01
  2.970736e+01    7.854638e-01
  2.972323e+01    7.818134e-01
  2.973911e+01    8.165869e-01
  2.975498e+01    7.938626e-01
  2.977086e+01    7.947068e-01
  2.978673e+01    8.159389e-01
  2.980261e+01    8.052324e-01
  2.981848e+01    7.815307e-01
  2.983436e+01    7.997746e-01
  2.985024e+01    7.974334e-01
  2.986611e+01    7.992705e-01
  2.988199e+01    8.143909e-01
  2.989786e+01    7.907033e-01
  2.991374e+01    8.060239e-01
  2.992961e+01    8.246160e-01
  2.994549e+01    8.025782e-01
  2.996136e+01    7.959970e-01
  2.997724e+01    8.016214e-01
  2.999312e+01    8.143124e-01
  3.000899e+01    8.164967e-01
  3.002487e+01    7.934039e-01
  3.004074e+01    7.937854e-01
  3.005662e+01    8.171051e-01
  3.007249e+01    8.030775e-01
  3.008837e+01    7.932478e-01
  3.010424e+01    7.948810e-01
  3.012012e+01    8.026884e-01
  3.013600e+01    8.026848e-01
  3.015187e+01    7.962573e-01
  3.016775e+01    8.012591e-01
  3.018362e+01    7.970600e-01
  3.019950e+01    7.986678e-01
  3.021537e+01    8.093186e-01
  3.023125e+01    7.785695e-01
  3.024712e+01    7.848291e-01
  3.026300e+01    7.940047e-01
  3.027888e+01    8.083901e-01
  3.029475e+01    7.856142e-01
  3.031063e+01    7.636595e-01
  3.032650e+01    7.905474e-01
  3.034238e+01    8.015600e-01
  3.035825e+01    7.878054e-01
  3.037413e+01    7.921493e-01
  3.039000e+01    7.900690e-01
  3.040588e+01    7.746522e-01
  3.042176e+01    7.825378e-01
  3.043763e+01    7.952912e-01
  3.045351e+01    7.808262e-01
  3.046938e+01    7.830098e-01
  3.048526e+01    7.983122e-01
  3.050113e+01    7.812995e-01
  3.051701e+01    7.736204e-01
  3.053288e+01    7.892037e-01
  3.054876e+01    7.795070e-01
  3.056464e+01    7.804651e-01
  3.058051e+01    7.593822e-01
  3.059639e+01    7.736284e-01
  3.061226e+01    7.799563e-01
  3.062814e+01    7.774639e-01
  3.064401e+01    7.822913e-01
  3.065989e+01    7.808346e-01
  3.067577e+01    7.885200e-01
  3.069164e+01    7.894705e-01
  3.070752e+01    7.890733e-01
  3.072339e+01    7.955090e-01
  3.073927e+01    7.796174e-01
  3.075514e+01    7.777830e-01
  3.077102e+01    7.718334e-01
  3.078689e+01    8.094696e-01
  3.080277e+01    7.993557e-01
  3.081865e+01    7.575533e-01
  3.083452e+01    7.847674e-01
  3.085040e+01    7.946398e-01
  3.086627e+01    7.695475e-01
  3.088215e+01    7.727528e-01
  3.089802e+01    7.937033e-01
  3.091390e+01    7.728398e-01
  3.092977e+01    7.777302e-01
  3.094565e+01    7.815327e-01
  3.096153e+01    7.958167e-01
  3.097740e+01    7.712131e-01
  3.099328e+01    7.834554e-01
  3.100915e+01    7.851182e-01
  3.102503e+01    7.804142e-01
  3.104090e+01    7.762955e-01
  3.105678e+01    7.967249e-01
  3.107265e+01    7.798069e-01
  3.108853e+01    7.827731e-01
  3.110441e+01    8.024569e-01
  3.112028e+01    7.975581e-01
  3.113616e+01    8.141344e-01
  3.115203e+01    8.077218e-01
  3.116791e+01    7.946334e-01
  3.118378e+01    8.003912e-01
  3.119966e+01    8.153429e-01
  3.121553e+01    7.958776e-01
  3.123141e+01    7.805507e-01
  3.124729e+01    7.912233e-01
  3.126316e+01    7.890698e-01
  3.127904e+01    8.199646e-01
  3.129491e+01    8.036313e-01
  3.131079e+01    7.993575e-01
  3.132666e+01    8.027788e-01
  3.134254e+01    7.918975e-01
  3.135841e+01    7.892650e-01
  3.137429e+01    8.132493e-01
  3.139017e+01    8.102550e-01
  3.140604e+01    8.333144e-01
  3.142192e+01    8.363717e-01
  3.143779e+01    8.383243e-01
  3.145367e+01    8.181835e-01
  3.146954e+01    8.180249e-01
  3.148542e+01    8.155817e-01
  3.150129e+01    8.258447e-01
  3.151717e+01    8.406033e-01
  3.153305e+01    8.394578e-01
  3.154892e+01    8.508518e-01
  3.156480e+01    8.581082e-01
  3.158067e+01    8.391331e-01
  3.159655e+01    8.680056e-01
  3.161242e+01    8.737978e-01
  3.162830e+01    8.959140e-01
  3.164418e+01    9.031069e-01
  3.166005e+01    9.380370e-01
  3.167593e+01    9.598054e-01
  3.169180e+01    9.910421e-01
  3.170768e+01    1.062053e+00
  3.172355e+01    1.083597e+00
  3.173943e+01    1.099041e+00
  3.175530e+01    1.160167e+00
  3.177118e+01    1.271941e+00
  3.178706e+01    1.352255e+00
  3.180293e+01    1.442491e+00
  3.181881e+01    1.573228e+00
  3.183468e+01    1.690908e+00
  3.185056e+01    1.831199e+00
  3.186643e+01    1.923276e+00
  3.188231e+01    2.048822e+00
  3.189818e+01    2.094773e+00
  3.191406e+01    2.087067e+00
  3.192994e+01    2.053777e+00
  3.194581e+01    1.942674e+00
  3.196169e+01    1.781092e+00
  3.197756e+01    1.696530e+00
  3.199344e+01    1.574551e+00
  3.200931e+01    1.444580e+00
  3.202519e+01    1.316905e+00
  3.204106e+01    1.250057e+00
  3.205694e+01    1.172662e+00
  3.207282e+01    1.113166e+00
  3.208869e+01    1.044548e+00
  3.210457e+01    1.003579e+00
  3.212044e+01    9.873099e-01
  3.213632e+01    9.799801e-01
  3.215219e+01    9.050869e-01
  3.216807e+01    8.898327e-01
  3.218394e+01    8.861113e-01
  3.219982e+01    8.812492e-01
  3.221570e+01    8.647946e-01
  3.223157e+01    8.662919e-01
  3.224745e+01    8.317925e-01
  3.226332e+01    8.297763e-01
  3.227920e+01    8.290478e-01
  3.229507e+01    8.360934e-01
  3.231095e+01    8.322132e-01
  3.232682e+01    8.248801e-01
  3.234270e+01    7.886027e-01
  3.235858e+01    8.092762e-01
  3.237445e+01    7.717577e-01
  3.239033e+01    7.637640e-01
  3.240620e+01    7.774533e-01
  3.242208e+01    7.902627e-01
  3.243795e+01    7.825080e-01
  3.245383e+01    7.671687e-01
  3.246970e+01    7.749817e-01
  3.248558e+01    7.974181e-01
  3.250146e+01    7.648882e-01
  3.251733e+01    7.660866e-01
  3.253321e+01    7.866504e-01
  3.254908e+01    7.794672e-01
