# == pyFAI calibration ==
# Distance Sample to Detector: 0.3999999939076516 m
# PONI: 9.750e-02, 1.135e-01 m
# Rotations: -0.000175 0.000000 -0.000000 rad
# 
# == Fit2d calibration ==
# Distance Sample-beamCenter: 400.000 mm
# Center: x=1514.000, y=1300.000 pix
# Tilt: 0.010 deg  TiltPlanRot: 0.010 deg
# 
# Detector Detector	 Spline= None	 PixelSize= 7.500e-05, 7.500e-05 m
#    Detector has a mask: False 
#    Detector has a dark current: False 
#    detector has a flat field: False 
# 
# Wavelength: 6.888e-11 m
# Mask applied: user provided
# Dark current applied: False
# Flat field applied: False
# Polarization factor: 0.99
# Normalization factor: 1.0
# --> /home/myspot/data/2024_07_Rosario/Ru-CGO-ex/2024-07-27_003_Ru-CGO-ex_Reaction_dwell_000023_data_000051.dat
#       q_nm^-1             I 
  2.003187e-02    2.195781e-01
  3.590745e-02    2.043860e-01
  5.178302e-02    1.869878e-01
  6.765859e-02    6.007141e-02
  8.353417e-02    7.000605e-02
  9.940974e-02    1.980205e-02
  1.152853e-01    2.774886e-02
  1.311609e-01    4.771272e-02
  1.470365e-01    1.243855e-02
  1.629120e-01    1.389300e-02
  1.787876e-01    3.829886e-02
  1.946632e-01    4.991099e-02
  2.105388e-01    4.958678e-02
  2.264143e-01    3.379610e-02
  2.422899e-01    3.057198e-02
  2.581655e-01    5.147151e-02
  2.740411e-01    5.017573e-02
  2.899166e-01    3.037246e-02
  3.057922e-01    4.331066e-02
  3.216678e-01    3.806669e-02
  3.375433e-01    3.003038e-02
  3.534189e-01    1.557531e-02
  3.692945e-01    3.893616e-02
  3.851701e-01    3.666092e-02
  4.010456e-01    3.797978e-02
  4.169212e-01    3.948055e-02
  4.327968e-01    2.388974e-02
  4.486724e-01    2.185884e-02
  4.645479e-01    3.425183e-02
  4.804235e-01    3.078715e-02
  4.962991e-01    2.599966e-02
  5.121747e-01    6.255259e-02
  5.280502e-01    4.466195e-02
  5.439258e-01    4.092699e-02
  5.598014e-01    3.979624e-02
  5.756770e-01    3.997592e-02
  5.915525e-01    3.199798e-02
  6.074281e-01    2.261581e-02
  6.233037e-01    2.893656e-02
  6.391793e-01    1.919024e-02
  6.550548e-01    2.121609e-02
  6.709304e-01    2.972388e-02
  6.868060e-01    4.008800e-02
  7.026815e-01    3.043300e-02
  7.185571e-01    3.884347e-02
  7.344327e-01    5.150616e-02
  7.503083e-01    7.007633e-02
  7.661838e-01    8.460399e-02
  7.820594e-01    1.218102e-01
  7.979350e-01    1.689454e-01
  8.138106e-01    2.310769e-01
  8.296861e-01    3.006114e-01
  8.455617e-01    3.428076e-01
  8.614373e-01    3.805960e-01
  8.773129e-01    4.461216e-01
  8.931884e-01    5.730555e-01
  9.090640e-01    6.704346e-01
  9.249396e-01    7.959907e-01
  9.408152e-01    8.948328e-01
  9.566907e-01    9.546446e-01
  9.725663e-01    1.025003e+00
  9.884419e-01    1.157763e+00
  1.004317e+00    1.174471e+00
  1.020193e+00    1.252508e+00
  1.036069e+00    1.366595e+00
  1.051944e+00    1.454325e+00
  1.067820e+00    1.431099e+00
  1.083695e+00    1.432691e+00
  1.099571e+00    1.474255e+00
  1.115446e+00    1.526240e+00
  1.131322e+00    1.593396e+00
  1.147198e+00    1.681372e+00
  1.163073e+00    1.699868e+00
  1.178949e+00    1.639773e+00
  1.194824e+00    1.732298e+00
  1.210700e+00    2.013680e+00
  1.226575e+00    2.269156e+00
  1.242451e+00    2.302215e+00
  1.258327e+00    2.445878e+00
  1.274202e+00    2.500652e+00
  1.290078e+00    2.638271e+00
  1.305953e+00    2.708648e+00
  1.321829e+00    2.729644e+00
  1.337705e+00    2.763630e+00
  1.353580e+00    2.770383e+00
  1.369456e+00    2.682007e+00
  1.385331e+00    2.792684e+00
  1.401207e+00    2.980120e+00
  1.417082e+00    2.950258e+00
  1.432958e+00    2.928511e+00
  1.448834e+00    2.966301e+00
  1.464709e+00    3.033207e+00
  1.480585e+00    3.070311e+00
  1.496460e+00    2.910497e+00
  1.512336e+00    2.924586e+00
  1.528211e+00    3.053079e+00
  1.544087e+00    3.117818e+00
  1.559963e+00    3.135439e+00
  1.575838e+00    3.129088e+00
  1.591714e+00    3.101658e+00
  1.607589e+00    3.182750e+00
  1.623465e+00    3.143967e+00
  1.639340e+00    3.186726e+00
  1.655216e+00    3.164846e+00
  1.671092e+00    3.180511e+00
  1.686967e+00    3.017782e+00
  1.702843e+00    3.108721e+00
  1.718718e+00    3.187355e+00
  1.734594e+00    3.098352e+00
  1.750469e+00    3.126588e+00
  1.766345e+00    3.184184e+00
  1.782221e+00    3.184420e+00
  1.798096e+00    3.176198e+00
  1.813972e+00    3.149971e+00
  1.829847e+00    3.149401e+00
  1.845723e+00    3.164096e+00
  1.861598e+00    3.150848e+00
  1.877474e+00    3.197029e+00
  1.893350e+00    3.103488e+00
  1.909225e+00    2.933772e+00
  1.925101e+00    2.925894e+00
  1.940976e+00    2.959571e+00
  1.956852e+00    2.951199e+00
  1.972727e+00    3.075303e+00
  1.988603e+00    3.079183e+00
  2.004479e+00    3.141312e+00
  2.020354e+00    3.122095e+00
  2.036230e+00    3.167142e+00
  2.052105e+00    3.109597e+00
  2.067981e+00    3.074878e+00
  2.083856e+00    3.062766e+00
  2.099732e+00    3.004958e+00
  2.115608e+00    3.071974e+00
  2.131483e+00    3.132199e+00
  2.147359e+00    3.200831e+00
  2.163234e+00    3.126900e+00
  2.179110e+00    2.937985e+00
  2.194985e+00    3.037993e+00
  2.210861e+00    3.125248e+00
  2.226737e+00    3.063947e+00
  2.242612e+00    3.200552e+00
  2.258488e+00    3.148860e+00
  2.274363e+00    3.139027e+00
  2.290239e+00    3.163943e+00
  2.306115e+00    3.146744e+00
  2.321990e+00    3.150776e+00
  2.337866e+00    3.170649e+00
  2.353741e+00    3.218488e+00
  2.369617e+00    3.164128e+00
  2.385492e+00    3.049763e+00
  2.401368e+00    3.151128e+00
  2.417244e+00    3.311005e+00
  2.433119e+00    3.256095e+00
  2.448995e+00    3.281308e+00
  2.464870e+00    3.211179e+00
  2.480746e+00    3.134829e+00
  2.496621e+00    3.073239e+00
  2.512497e+00    3.163655e+00
  2.528373e+00    3.236020e+00
  2.544248e+00    3.231115e+00
  2.560124e+00    3.165756e+00
  2.575999e+00    3.281840e+00
  2.591875e+00    3.203334e+00
  2.607750e+00    3.143177e+00
  2.623626e+00    3.184704e+00
  2.639502e+00    3.246259e+00
  2.655377e+00    3.310827e+00
  2.671253e+00    3.301271e+00
  2.687128e+00    3.153247e+00
  2.703004e+00    3.092844e+00
  2.718879e+00    3.224717e+00
  2.734755e+00    3.390970e+00
  2.750631e+00    3.321761e+00
  2.766506e+00    3.303888e+00
  2.782382e+00    3.298571e+00
  2.798257e+00    3.280860e+00
  2.814133e+00    3.254206e+00
  2.830008e+00    3.255679e+00
  2.845884e+00    3.228710e+00
  2.861760e+00    3.261649e+00
  2.877635e+00    3.223503e+00
  2.893511e+00    3.264066e+00
  2.909386e+00    3.232325e+00
  2.925262e+00    3.306268e+00
  2.941137e+00    3.354411e+00
  2.957013e+00    3.375783e+00
  2.972889e+00    3.379237e+00
  2.988764e+00    3.411647e+00
  3.004640e+00    3.396647e+00
  3.020515e+00    3.242041e+00
  3.036391e+00    3.416650e+00
  3.052266e+00    3.359513e+00
  3.068142e+00    3.401191e+00
  3.084018e+00    3.395984e+00
  3.099893e+00    3.421942e+00
  3.115769e+00    3.297168e+00
  3.131644e+00    3.332072e+00
  3.147520e+00    3.368684e+00
  3.163395e+00    3.417415e+00
  3.179271e+00    3.471354e+00
  3.195147e+00    3.338138e+00
  3.211022e+00    3.328072e+00
  3.226898e+00    3.354707e+00
  3.242773e+00    3.371800e+00
  3.258649e+00    3.352199e+00
  3.274525e+00    3.398371e+00
  3.290400e+00    3.474724e+00
  3.306276e+00    3.408870e+00
  3.322151e+00    3.377771e+00
  3.338027e+00    3.401882e+00
  3.353902e+00    3.397149e+00
  3.369778e+00    3.392123e+00
  3.385654e+00    3.479125e+00
  3.401529e+00    3.517599e+00
  3.417405e+00    3.427354e+00
  3.433280e+00    3.426068e+00
  3.449156e+00    3.505208e+00
  3.465031e+00    3.542326e+00
  3.480907e+00    3.519834e+00
  3.496783e+00    3.476115e+00
  3.512658e+00    3.448138e+00
  3.528534e+00    3.515300e+00
  3.544409e+00    3.432353e+00
  3.560285e+00    3.502887e+00
  3.576160e+00    3.446056e+00
  3.592036e+00    3.453313e+00
  3.607912e+00    3.477680e+00
  3.623787e+00    3.485166e+00
  3.639663e+00    3.487885e+00
  3.655538e+00    3.427781e+00
  3.671414e+00    3.405506e+00
  3.687289e+00    3.399732e+00
  3.703165e+00    3.422091e+00
  3.719041e+00    3.591791e+00
  3.734916e+00    3.576756e+00
  3.750792e+00    3.481738e+00
  3.766667e+00    3.428579e+00
  3.782543e+00    3.389780e+00
  3.798418e+00    3.507650e+00
  3.814294e+00    3.598575e+00
  3.830170e+00    3.510610e+00
  3.846045e+00    3.473267e+00
  3.861921e+00    3.472511e+00
  3.877796e+00    3.528352e+00
  3.893672e+00    3.515360e+00
  3.909547e+00    3.577138e+00
  3.925423e+00    3.615741e+00
  3.941299e+00    3.504344e+00
  3.957174e+00    3.430682e+00
  3.973050e+00    3.441609e+00
  3.988925e+00    3.488646e+00
  4.004801e+00    3.478837e+00
  4.020676e+00    3.507762e+00
  4.036552e+00    3.559101e+00
  4.052428e+00    3.544496e+00
  4.068303e+00    3.560299e+00
  4.084179e+00    3.515011e+00
  4.100054e+00    3.466061e+00
  4.115930e+00    3.555782e+00
  4.131806e+00    3.546327e+00
  4.147681e+00    3.543855e+00
  4.163557e+00    3.567753e+00
  4.179432e+00    3.550841e+00
  4.195308e+00    3.509360e+00
  4.211183e+00    3.573377e+00
  4.227059e+00    3.511097e+00
  4.242935e+00    3.531807e+00
  4.258810e+00    3.565620e+00
  4.274686e+00    3.577293e+00
  4.290561e+00    3.569989e+00
  4.306437e+00    3.526307e+00
  4.322312e+00    3.494709e+00
  4.338188e+00    3.574910e+00
  4.354064e+00    3.575973e+00
  4.369939e+00    3.550835e+00
  4.385815e+00    3.521642e+00
  4.401690e+00    3.578682e+00
  4.417566e+00    3.563380e+00
  4.433441e+00    3.549500e+00
  4.449317e+00    3.589818e+00
  4.465193e+00    3.680101e+00
  4.481068e+00    3.671762e+00
  4.496944e+00    3.569345e+00
  4.512819e+00    3.583629e+00
  4.528695e+00    3.672855e+00
  4.544570e+00    3.592531e+00
  4.560446e+00    3.520314e+00
  4.576322e+00    3.486404e+00
  4.592197e+00    3.540115e+00
  4.608073e+00    3.601067e+00
  4.623948e+00    3.781044e+00
  4.639824e+00    3.755198e+00
  4.655699e+00    3.655467e+00
  4.671575e+00    3.624138e+00
  4.687451e+00    3.640795e+00
  4.703326e+00    3.671391e+00
  4.719202e+00    3.686907e+00
  4.735077e+00    3.694847e+00
  4.750953e+00    3.705034e+00
  4.766828e+00    3.753586e+00
  4.782704e+00    3.678429e+00
  4.798580e+00    3.662802e+00
  4.814455e+00    3.653571e+00
  4.830331e+00    3.580233e+00
  4.846206e+00    3.560245e+00
  4.862082e+00    3.606418e+00
  4.877957e+00    3.589827e+00
  4.893833e+00    3.667041e+00
  4.909709e+00    3.648512e+00
  4.925584e+00    3.650045e+00
  4.941460e+00    3.651620e+00
  4.957335e+00    3.634514e+00
  4.973211e+00    3.641845e+00
  4.989086e+00    3.568158e+00
  5.004962e+00    3.670501e+00
  5.020838e+00    3.719739e+00
  5.036713e+00    3.738021e+00
  5.052589e+00    3.671452e+00
  5.068464e+00    3.581806e+00
  5.084340e+00    3.622399e+00
  5.100216e+00    3.674760e+00
  5.116091e+00    3.664665e+00
  5.131967e+00    3.647397e+00
  5.147842e+00    3.638170e+00
  5.163718e+00    3.724451e+00
  5.179593e+00    3.704085e+00
  5.195469e+00    3.683912e+00
  5.211345e+00    3.689292e+00
  5.227220e+00    3.689261e+00
  5.243096e+00    3.737217e+00
  5.258971e+00    3.674007e+00
  5.274847e+00    3.664149e+00
  5.290722e+00    3.680771e+00
  5.306598e+00    3.639757e+00
  5.322474e+00    3.676461e+00
  5.338349e+00    3.673060e+00
  5.354225e+00    3.632607e+00
  5.370100e+00    3.657298e+00
  5.385976e+00    3.723046e+00
  5.401851e+00    3.703389e+00
  5.417727e+00    3.666768e+00
  5.433603e+00    3.626732e+00
  5.449478e+00    3.550501e+00
  5.465354e+00    3.569131e+00
  5.481229e+00    3.576870e+00
  5.497105e+00    3.609304e+00
  5.512980e+00    3.600818e+00
  5.528856e+00    3.609009e+00
  5.544732e+00    3.621214e+00
  5.560607e+00    3.703539e+00
  5.576483e+00    3.653555e+00
  5.592358e+00    3.524292e+00
  5.608234e+00    3.529813e+00
  5.624109e+00    3.607900e+00
  5.639985e+00    3.581088e+00
  5.655861e+00    3.548923e+00
  5.671736e+00    3.587000e+00
  5.687612e+00    3.688529e+00
  5.703487e+00    3.664846e+00
  5.719363e+00    3.559265e+00
  5.735238e+00    3.567284e+00
  5.751114e+00    3.572445e+00
  5.766990e+00    3.507635e+00
  5.782865e+00    3.520365e+00
  5.798741e+00    3.534660e+00
  5.814616e+00    3.529519e+00
  5.830492e+00    3.612468e+00
  5.846367e+00    3.590706e+00
  5.862243e+00    3.585881e+00
  5.878119e+00    3.654286e+00
  5.893994e+00    3.667330e+00
  5.909870e+00    3.645626e+00
  5.925745e+00    3.675227e+00
  5.941621e+00    3.676959e+00
  5.957497e+00    3.496310e+00
  5.973372e+00    3.528732e+00
  5.989248e+00    3.555739e+00
  6.005123e+00    3.602614e+00
  6.020999e+00    3.559829e+00
  6.036874e+00    3.580698e+00
  6.052750e+00    3.580718e+00
  6.068626e+00    3.559213e+00
  6.084501e+00    3.549269e+00
  6.100377e+00    3.571777e+00
  6.116252e+00    3.587580e+00
  6.132128e+00    3.581739e+00
  6.148003e+00    3.632075e+00
  6.163879e+00    3.649970e+00
  6.179755e+00    3.668218e+00
  6.195630e+00    3.640079e+00
  6.211506e+00    3.605241e+00
  6.227381e+00    3.558965e+00
  6.243257e+00    3.552218e+00
  6.259132e+00    3.510748e+00
  6.275008e+00    3.495518e+00
  6.290884e+00    3.531349e+00
  6.306759e+00    3.582087e+00
  6.322635e+00    3.509366e+00
  6.338510e+00    3.600345e+00
  6.354386e+00    3.620390e+00
  6.370261e+00    3.551111e+00
  6.386137e+00    3.572507e+00
  6.402013e+00    3.537013e+00
  6.417888e+00    3.565685e+00
  6.433764e+00    3.569863e+00
  6.449639e+00    3.543164e+00
  6.465515e+00    3.556246e+00
  6.481390e+00    3.609050e+00
  6.497266e+00    3.544913e+00
  6.513142e+00    3.450765e+00
  6.529017e+00    3.499542e+00
  6.544893e+00    3.572366e+00
  6.560768e+00    3.584109e+00
  6.576644e+00    3.574118e+00
  6.592519e+00    3.567914e+00
  6.608395e+00    3.557989e+00
  6.624271e+00    3.536541e+00
  6.640146e+00    3.576697e+00
  6.656022e+00    3.576974e+00
  6.671897e+00    3.619178e+00
  6.687773e+00    3.594287e+00
  6.703648e+00    3.541935e+00
  6.719524e+00    3.670054e+00
  6.735400e+00    3.598589e+00
  6.751275e+00    3.575300e+00
  6.767151e+00    3.578436e+00
  6.783026e+00    3.636865e+00
  6.798902e+00    3.592938e+00
  6.814777e+00    3.556220e+00
  6.830653e+00    3.600656e+00
  6.846529e+00    3.539585e+00
  6.862404e+00    3.561499e+00
  6.878280e+00    3.510351e+00
  6.894155e+00    3.577759e+00
  6.910031e+00    3.552672e+00
  6.925907e+00    3.515232e+00
  6.941782e+00    3.564704e+00
  6.957658e+00    3.602907e+00
  6.973533e+00    3.569988e+00
  6.989409e+00    3.507584e+00
  7.005284e+00    3.491656e+00
  7.021160e+00    3.565779e+00
  7.037036e+00    3.499102e+00
  7.052911e+00    3.532737e+00
  7.068787e+00    3.572060e+00
  7.084662e+00    3.609968e+00
  7.100538e+00    3.607481e+00
  7.116413e+00    3.540728e+00
  7.132289e+00    3.462541e+00
  7.148165e+00    3.442316e+00
  7.164040e+00    3.500126e+00
  7.179916e+00    3.547497e+00
  7.195791e+00    3.528342e+00
  7.211667e+00    3.510732e+00
  7.227542e+00    3.525175e+00
  7.243418e+00    3.521585e+00
  7.259294e+00    3.549466e+00
  7.275169e+00    3.590822e+00
  7.291045e+00    3.519605e+00
  7.306920e+00    3.494086e+00
  7.322796e+00    3.555810e+00
  7.338671e+00    3.487628e+00
  7.354547e+00    3.437414e+00
  7.370423e+00    3.509287e+00
  7.386298e+00    3.540961e+00
  7.402174e+00    3.582710e+00
  7.418049e+00    3.511223e+00
  7.433925e+00    3.578655e+00
  7.449800e+00    3.569342e+00
  7.465676e+00    3.527009e+00
  7.481552e+00    3.497065e+00
  7.497427e+00    3.451122e+00
  7.513303e+00    3.476449e+00
  7.529178e+00    3.487376e+00
  7.545054e+00    3.530107e+00
  7.560929e+00    3.514782e+00
  7.576805e+00    3.472975e+00
  7.592681e+00    3.411911e+00
  7.608556e+00    3.450221e+00
  7.624432e+00    3.382815e+00
  7.640307e+00    3.492033e+00
  7.656183e+00    3.512153e+00
  7.672058e+00    3.477966e+00
  7.687934e+00    3.481761e+00
  7.703810e+00    3.520120e+00
  7.719685e+00    3.447525e+00
  7.735561e+00    3.418208e+00
  7.751436e+00    3.404789e+00
  7.767312e+00    3.420166e+00
  7.783187e+00    3.484167e+00
  7.799063e+00    3.474591e+00
  7.814939e+00    3.496007e+00
  7.830814e+00    3.437368e+00
  7.846690e+00    3.447856e+00
  7.862565e+00    3.375350e+00
  7.878441e+00    3.426090e+00
  7.894317e+00    3.492587e+00
  7.910192e+00    3.497473e+00
  7.926068e+00    3.441462e+00
  7.941943e+00    3.427450e+00
  7.957819e+00    3.445914e+00
  7.973694e+00    3.465238e+00
  7.989570e+00    3.428276e+00
  8.005446e+00    3.419454e+00
  8.021321e+00    3.414030e+00
  8.037197e+00    3.495197e+00
  8.053072e+00    3.418816e+00
  8.068948e+00    3.371677e+00
  8.084823e+00    3.367198e+00
  8.100699e+00    3.475841e+00
  8.116575e+00    3.494524e+00
  8.132450e+00    3.470336e+00
  8.148326e+00    3.463763e+00
  8.164201e+00    3.457168e+00
  8.180077e+00    3.515243e+00
  8.195952e+00    3.453472e+00
  8.211828e+00    3.500816e+00
  8.227704e+00    3.508328e+00
  8.243579e+00    3.546345e+00
  8.259455e+00    3.489188e+00
  8.275330e+00    3.464029e+00
  8.291206e+00    3.412905e+00
  8.307081e+00    3.408886e+00
  8.322957e+00    3.376102e+00
  8.338833e+00    3.376648e+00
  8.354708e+00    3.377009e+00
  8.370584e+00    3.360573e+00
  8.386459e+00    3.395810e+00
  8.402335e+00    3.408084e+00
  8.418210e+00    3.366211e+00
  8.434086e+00    3.400578e+00
  8.449962e+00    3.398948e+00
  8.465837e+00    3.400311e+00
  8.481713e+00    3.396935e+00
  8.497588e+00    3.283155e+00
  8.513464e+00    3.368013e+00
  8.529339e+00    3.364815e+00
  8.545215e+00    3.334341e+00
  8.561091e+00    3.330267e+00
  8.576966e+00    3.361423e+00
  8.592842e+00    3.399506e+00
  8.608717e+00    3.405321e+00
  8.624593e+00    3.336865e+00
  8.640468e+00    3.385064e+00
  8.656344e+00    3.400541e+00
  8.672220e+00    3.333021e+00
  8.688095e+00    3.289414e+00
  8.703971e+00    3.339429e+00
  8.719846e+00    3.345114e+00
  8.735722e+00    3.308774e+00
  8.751598e+00    3.328267e+00
  8.767473e+00    3.315425e+00
  8.783349e+00    3.294309e+00
  8.799224e+00    3.405385e+00
  8.815100e+00    3.387909e+00
  8.830975e+00    3.304213e+00
  8.846851e+00    3.314227e+00
  8.862727e+00    3.311028e+00
  8.878602e+00    3.302620e+00
  8.894478e+00    3.342633e+00
  8.910353e+00    3.286821e+00
  8.926229e+00    3.294469e+00
  8.942104e+00    3.289982e+00
  8.957980e+00    3.301908e+00
  8.973856e+00    3.354798e+00
  8.989731e+00    3.348036e+00
  9.005607e+00    3.244927e+00
  9.021482e+00    3.257793e+00
  9.037358e+00    3.290907e+00
  9.053233e+00    3.268635e+00
  9.069109e+00    3.242017e+00
  9.084985e+00    3.294856e+00
  9.100860e+00    3.321837e+00
  9.116736e+00    3.273704e+00
  9.132611e+00    3.312696e+00
  9.148487e+00    3.315039e+00
  9.164362e+00    3.299924e+00
  9.180238e+00    3.255672e+00
  9.196114e+00    3.250606e+00
  9.211989e+00    3.250990e+00
  9.227865e+00    3.287135e+00
  9.243740e+00    3.275462e+00
  9.259616e+00    3.234988e+00
  9.275491e+00    3.256027e+00
  9.291367e+00    3.296519e+00
  9.307243e+00    3.229092e+00
  9.323118e+00    3.166311e+00
  9.338994e+00    3.236899e+00
  9.354869e+00    3.180268e+00
  9.370745e+00    3.183728e+00
  9.386620e+00    3.163413e+00
  9.402496e+00    3.189340e+00
  9.418372e+00    3.185807e+00
  9.434247e+00    3.179714e+00
  9.450123e+00    3.168002e+00
  9.465998e+00    3.191464e+00
  9.481874e+00    3.228937e+00
  9.497749e+00    3.225382e+00
  9.513625e+00    3.255519e+00
  9.529501e+00    3.254252e+00
  9.545376e+00    3.195566e+00
  9.561252e+00    3.240887e+00
  9.577127e+00    3.245333e+00
  9.593003e+00    3.243351e+00
  9.608878e+00    3.194539e+00
  9.624754e+00    3.231268e+00
  9.640630e+00    3.210906e+00
  9.656505e+00    3.228825e+00
  9.672381e+00    3.212428e+00
  9.688256e+00    3.179456e+00
  9.704132e+00    3.156807e+00
  9.720008e+00    3.187282e+00
  9.735883e+00    3.186154e+00
  9.751759e+00    3.176985e+00
  9.767634e+00    3.214813e+00
  9.783510e+00    3.163181e+00
  9.799385e+00    3.169806e+00
  9.815261e+00    3.138189e+00
  9.831137e+00    3.147160e+00
  9.847012e+00    3.186879e+00
  9.862888e+00    3.186683e+00
  9.878763e+00    3.155907e+00
  9.894639e+00    3.102458e+00
  9.910514e+00    3.071157e+00
  9.926390e+00    3.129421e+00
  9.942266e+00    3.141436e+00
  9.958141e+00    3.145777e+00
  9.974017e+00    3.172189e+00
  9.989892e+00    3.134316e+00
  1.000577e+01    3.070023e+00
  1.002164e+01    3.147445e+00
  1.003752e+01    3.142362e+00
  1.005339e+01    3.107402e+00
  1.006927e+01    3.133493e+00
  1.008515e+01    3.077674e+00
  1.010102e+01    3.056168e+00
  1.011690e+01    3.026194e+00
  1.013277e+01    3.055289e+00
  1.014865e+01    3.117260e+00
  1.016452e+01    3.098633e+00
  1.018040e+01    3.104443e+00
  1.019627e+01    3.092980e+00
  1.021215e+01    3.093358e+00
  1.022803e+01    3.040301e+00
  1.024390e+01    3.069425e+00
  1.025978e+01    3.047879e+00
  1.027565e+01    3.082948e+00
  1.029153e+01    3.089478e+00
  1.030740e+01    3.050354e+00
  1.032328e+01    3.087994e+00
  1.033915e+01    3.062900e+00
  1.035503e+01    3.064936e+00
  1.037091e+01    3.068038e+00
  1.038678e+01    3.047302e+00
  1.040266e+01    3.011244e+00
  1.041853e+01    3.033412e+00
  1.043441e+01    3.033928e+00
  1.045028e+01    3.037662e+00
  1.046616e+01    3.029501e+00
  1.048204e+01    3.008505e+00
  1.049791e+01    3.006255e+00
  1.051379e+01    3.054322e+00
  1.052966e+01    3.056413e+00
  1.054554e+01    3.018521e+00
  1.056141e+01    2.995858e+00
  1.057729e+01    3.036849e+00
  1.059316e+01    2.984988e+00
  1.060904e+01    2.938391e+00
  1.062492e+01    2.967180e+00
  1.064079e+01    2.992395e+00
  1.065667e+01    2.965919e+00
  1.067254e+01    2.982974e+00
  1.068842e+01    2.944244e+00
  1.070429e+01    2.956854e+00
  1.072017e+01    2.958634e+00
  1.073604e+01    2.944930e+00
  1.075192e+01    2.950953e+00
  1.076780e+01    2.979775e+00
  1.078367e+01    2.965523e+00
  1.079955e+01    2.939898e+00
  1.081542e+01    2.985285e+00
  1.083130e+01    2.944184e+00
  1.084717e+01    2.947611e+00
  1.086305e+01    2.943137e+00
  1.087892e+01    2.977244e+00
  1.089480e+01    2.922019e+00
  1.091068e+01    2.892223e+00
  1.092655e+01    2.944012e+00
  1.094243e+01    2.928894e+00
  1.095830e+01    2.962951e+00
  1.097418e+01    2.935372e+00
  1.099005e+01    2.980786e+00
  1.100593e+01    2.955100e+00
  1.102180e+01    2.913429e+00
  1.103768e+01    2.882877e+00
  1.105356e+01    2.898612e+00
  1.106943e+01    2.884494e+00
  1.108531e+01    2.902297e+00
  1.110118e+01    2.839547e+00
  1.111706e+01    2.858786e+00
  1.113293e+01    2.908859e+00
  1.114881e+01    2.850451e+00
  1.116468e+01    2.823678e+00
  1.118056e+01    2.831828e+00
  1.119644e+01    2.878242e+00
  1.121231e+01    2.922417e+00
  1.122819e+01    2.920506e+00
  1.124406e+01    2.835376e+00
  1.125994e+01    2.851169e+00
  1.127581e+01    2.829067e+00
  1.129169e+01    2.871095e+00
  1.130756e+01    2.834709e+00
  1.132344e+01    2.847706e+00
  1.133932e+01    2.835456e+00
  1.135519e+01    2.755322e+00
  1.137107e+01    2.824808e+00
  1.138694e+01    2.850048e+00
  1.140282e+01    2.866508e+00
  1.141869e+01    2.803884e+00
  1.143457e+01    2.807338e+00
  1.145045e+01    2.843171e+00
  1.146632e+01    2.806162e+00
  1.148220e+01    2.807937e+00
  1.149807e+01    2.793987e+00
  1.151395e+01    2.806885e+00
  1.152982e+01    2.809557e+00
  1.154570e+01    2.850033e+00
  1.156157e+01    2.816348e+00
  1.157745e+01    2.806098e+00
  1.159333e+01    2.782426e+00
  1.160920e+01    2.819871e+00
  1.162508e+01    2.755805e+00
  1.164095e+01    2.737331e+00
  1.165683e+01    2.734494e+00
  1.167270e+01    2.740968e+00
  1.168858e+01    2.756773e+00
  1.170445e+01    2.738777e+00
  1.172033e+01    2.705266e+00
  1.173621e+01    2.742437e+00
  1.175208e+01    2.771370e+00
  1.176796e+01    2.760702e+00
  1.178383e+01    2.720688e+00
  1.179971e+01    2.712112e+00
  1.181558e+01    2.731633e+00
  1.183146e+01    2.702675e+00
  1.184733e+01    2.718690e+00
  1.186321e+01    2.750706e+00
  1.187909e+01    2.817715e+00
  1.189496e+01    2.737717e+00
  1.191084e+01    2.699912e+00
  1.192671e+01    2.715703e+00
  1.194259e+01    2.716434e+00
  1.195846e+01    2.767110e+00
  1.197434e+01    2.756976e+00
  1.199021e+01    2.743476e+00
  1.200609e+01    2.756623e+00
  1.202197e+01    2.728061e+00
  1.203784e+01    2.663031e+00
  1.205372e+01    2.665910e+00
  1.206959e+01    2.692734e+00
  1.208547e+01    2.679663e+00
  1.210134e+01    2.710759e+00
  1.211722e+01    2.754170e+00
  1.213309e+01    2.734234e+00
  1.214897e+01    2.710444e+00
  1.216485e+01    2.703895e+00
  1.218072e+01    2.668786e+00
  1.219660e+01    2.712207e+00
  1.221247e+01    2.698180e+00
  1.222835e+01    2.684265e+00
  1.224422e+01    2.717463e+00
  1.226010e+01    2.694810e+00
  1.227597e+01    2.663773e+00
  1.229185e+01    2.678675e+00
  1.230773e+01    2.673515e+00
  1.232360e+01    2.646472e+00
  1.233948e+01    2.652892e+00
  1.235535e+01    2.698602e+00
  1.237123e+01    2.717421e+00
  1.238710e+01    2.739839e+00
  1.240298e+01    2.673202e+00
  1.241886e+01    2.687592e+00
  1.243473e+01    2.710444e+00
  1.245061e+01    2.729694e+00
  1.246648e+01    2.707405e+00
  1.248236e+01    2.708575e+00
  1.249823e+01    2.725082e+00
  1.251411e+01    2.699934e+00
  1.252998e+01    2.645435e+00
  1.254586e+01    2.680394e+00
  1.256174e+01    2.678272e+00
  1.257761e+01    2.760522e+00
  1.259349e+01    2.774992e+00
  1.260936e+01    2.716260e+00
  1.262524e+01    2.749161e+00
  1.264111e+01    2.750704e+00
  1.265699e+01    2.762667e+00
  1.267286e+01    2.795754e+00
  1.268874e+01    2.794667e+00
  1.270462e+01    2.792965e+00
  1.272049e+01    2.828886e+00
  1.273637e+01    2.889847e+00
  1.275224e+01    2.913831e+00
  1.276812e+01    2.946892e+00
  1.278399e+01    3.003473e+00
  1.279987e+01    3.011975e+00
  1.281574e+01    3.058150e+00
  1.283162e+01    3.129372e+00
  1.284750e+01    3.208339e+00
  1.286337e+01    3.278105e+00
  1.287925e+01    3.381023e+00
  1.289512e+01    3.519913e+00
  1.291100e+01    3.666137e+00
  1.292687e+01    3.835268e+00
  1.294275e+01    4.150750e+00
  1.295862e+01    4.407578e+00
  1.297450e+01    4.767410e+00
  1.299038e+01    5.185429e+00
  1.300625e+01    5.796880e+00
  1.302213e+01    6.672896e+00
  1.303800e+01    7.664991e+00
  1.305388e+01    8.841345e+00
  1.306975e+01    1.005442e+01
  1.308563e+01    1.137853e+01
  1.310150e+01    1.269454e+01
  1.311738e+01    1.367049e+01
  1.313326e+01    1.467070e+01
  1.314913e+01    1.555624e+01
  1.316501e+01    1.615410e+01
  1.318088e+01    1.619891e+01
  1.319676e+01    1.568667e+01
  1.321263e+01    1.429745e+01
  1.322851e+01    1.250485e+01
  1.324438e+01    1.066824e+01
  1.326026e+01    9.146106e+00
  1.327614e+01    7.795839e+00
  1.329201e+01    6.742507e+00
  1.330789e+01    5.955109e+00
  1.332376e+01    5.294384e+00
  1.333964e+01    4.760505e+00
  1.335551e+01    4.467027e+00
  1.337139e+01    4.138759e+00
  1.338727e+01    3.907464e+00
  1.340314e+01    3.707293e+00
  1.341902e+01    3.527205e+00
  1.343489e+01    3.334523e+00
  1.345077e+01    3.246229e+00
  1.346664e+01    3.109302e+00
  1.348252e+01    3.031553e+00
  1.349839e+01    2.973119e+00
  1.351427e+01    2.845273e+00
  1.353015e+01    2.822286e+00
  1.354602e+01    2.777279e+00
  1.356190e+01    2.774226e+00
  1.357777e+01    2.741799e+00
  1.359365e+01    2.699219e+00
  1.360952e+01    2.699067e+00
  1.362540e+01    2.648418e+00
  1.364127e+01    2.621399e+00
  1.365715e+01    2.621239e+00
  1.367303e+01    2.602799e+00
  1.368890e+01    2.552194e+00
  1.370478e+01    2.560626e+00
  1.372065e+01    2.525179e+00
  1.373653e+01    2.516580e+00
  1.375240e+01    2.522048e+00
  1.376828e+01    2.543229e+00
  1.378415e+01    2.466065e+00
  1.380003e+01    2.468332e+00
  1.381591e+01    2.471027e+00
  1.383178e+01    2.427060e+00
  1.384766e+01    2.408125e+00
  1.386353e+01    2.386309e+00
  1.387941e+01    2.446832e+00
  1.389528e+01    2.459304e+00
  1.391116e+01    2.427272e+00
  1.392703e+01    2.400380e+00
  1.394291e+01    2.395481e+00
  1.395879e+01    2.420951e+00
  1.397466e+01    2.413582e+00
  1.399054e+01    2.369228e+00
  1.400641e+01    2.363391e+00
  1.402229e+01    2.341579e+00
  1.403816e+01    2.357720e+00
  1.405404e+01    2.349239e+00
  1.406991e+01    2.336654e+00
  1.408579e+01    2.335998e+00
  1.410167e+01    2.364154e+00
  1.411754e+01    2.343175e+00
  1.413342e+01    2.343593e+00
  1.414929e+01    2.324608e+00
  1.416517e+01    2.305790e+00
  1.418104e+01    2.305543e+00
  1.419692e+01    2.313243e+00
  1.421279e+01    2.301332e+00
  1.422867e+01    2.305579e+00
  1.424455e+01    2.279922e+00
  1.426042e+01    2.277658e+00
  1.427630e+01    2.305420e+00
  1.429217e+01    2.282127e+00
  1.430805e+01    2.246180e+00
  1.432392e+01    2.256243e+00
  1.433980e+01    2.266762e+00
  1.435568e+01    2.244358e+00
  1.437155e+01    2.270106e+00
  1.438743e+01    2.261069e+00
  1.440330e+01    2.243138e+00
  1.441918e+01    2.255851e+00
  1.443505e+01    2.251823e+00
  1.445093e+01    2.231811e+00
  1.446680e+01    2.235718e+00
  1.448268e+01    2.207002e+00
  1.449856e+01    2.222771e+00
  1.451443e+01    2.256341e+00
  1.453031e+01    2.241468e+00
  1.454618e+01    2.173633e+00
  1.456206e+01    2.180856e+00
  1.457793e+01    2.213108e+00
  1.459381e+01    2.203811e+00
  1.460968e+01    2.234658e+00
  1.462556e+01    2.243984e+00
  1.464144e+01    2.203904e+00
  1.465731e+01    2.209495e+00
  1.467319e+01    2.182859e+00
  1.468906e+01    2.196082e+00
  1.470494e+01    2.208519e+00
  1.472081e+01    2.201262e+00
  1.473669e+01    2.222232e+00
  1.475256e+01    2.187201e+00
  1.476844e+01    2.191453e+00
  1.478432e+01    2.233351e+00
  1.480019e+01    2.199920e+00
  1.481607e+01    2.180404e+00
  1.483194e+01    2.239965e+00
  1.484782e+01    2.234330e+00
  1.486369e+01    2.223707e+00
  1.487957e+01    2.252130e+00
  1.489544e+01    2.209345e+00
  1.491132e+01    2.240827e+00
  1.492720e+01    2.253453e+00
  1.494307e+01    2.284826e+00
  1.495895e+01    2.292941e+00
  1.497482e+01    2.335448e+00
  1.499070e+01    2.378490e+00
  1.500657e+01    2.419621e+00
  1.502245e+01    2.494702e+00
  1.503832e+01    2.599593e+00
  1.505420e+01    2.701332e+00
  1.507008e+01    2.762699e+00
  1.508595e+01    2.939291e+00
  1.510183e+01    3.225089e+00
  1.511770e+01    3.437807e+00
  1.513358e+01    3.783728e+00
  1.514945e+01    4.111309e+00
  1.516533e+01    4.454783e+00
  1.518120e+01    4.825459e+00
  1.519708e+01    5.187041e+00
  1.521296e+01    5.405963e+00
  1.522883e+01    5.573947e+00
  1.524471e+01    5.741172e+00
  1.526058e+01    5.819808e+00
  1.527646e+01    5.655190e+00
  1.529233e+01    5.437956e+00
  1.530821e+01    5.120050e+00
  1.532409e+01    4.615955e+00
  1.533996e+01    4.135626e+00
  1.535584e+01    3.754780e+00
  1.537171e+01    3.434231e+00
  1.538759e+01    3.175570e+00
  1.540346e+01    2.936228e+00
  1.541934e+01    2.755254e+00
  1.543521e+01    2.624916e+00
  1.545109e+01    2.557352e+00
  1.546697e+01    2.467757e+00
  1.548284e+01    2.320060e+00
  1.549872e+01    2.292762e+00
  1.551459e+01    2.241533e+00
  1.553047e+01    2.223621e+00
  1.554634e+01    2.179092e+00
  1.556222e+01    2.128960e+00
  1.557809e+01    2.140854e+00
  1.559397e+01    2.119267e+00
  1.560985e+01    2.060106e+00
  1.562572e+01    2.065917e+00
  1.564160e+01    2.061985e+00
  1.565747e+01    2.047715e+00
  1.567335e+01    2.023168e+00
  1.568922e+01    2.018103e+00
  1.570510e+01    1.997682e+00
  1.572097e+01    1.978747e+00
  1.573685e+01    1.966705e+00
  1.575273e+01    1.985053e+00
  1.576860e+01    2.009259e+00
  1.578448e+01    1.917267e+00
  1.580035e+01    1.932860e+00
  1.581623e+01    1.987780e+00
  1.583210e+01    1.926385e+00
  1.584798e+01    1.951392e+00
  1.586385e+01    1.928278e+00
  1.587973e+01    1.940163e+00
  1.589561e+01    1.925143e+00
  1.591148e+01    1.873802e+00
  1.592736e+01    1.870478e+00
  1.594323e+01    1.902816e+00
  1.595911e+01    1.878662e+00
  1.597498e+01    1.883976e+00
  1.599086e+01    1.870938e+00
  1.600673e+01    1.885769e+00
  1.602261e+01    1.877625e+00
  1.603849e+01    1.865878e+00
  1.605436e+01    1.888890e+00
  1.607024e+01    1.872290e+00
  1.608611e+01    1.844014e+00
  1.610199e+01    1.873517e+00
  1.611786e+01    1.846355e+00
  1.613374e+01    1.848746e+00
  1.614961e+01    1.843764e+00
  1.616549e+01    1.840414e+00
  1.618137e+01    1.819882e+00
  1.619724e+01    1.804479e+00
  1.621312e+01    1.847908e+00
  1.622899e+01    1.831166e+00
  1.624487e+01    1.803725e+00
  1.626074e+01    1.819404e+00
  1.627662e+01    1.797391e+00
  1.629250e+01    1.814530e+00
  1.630837e+01    1.768258e+00
  1.632425e+01    1.791319e+00
  1.634012e+01    1.762771e+00
  1.635600e+01    1.767974e+00
  1.637187e+01    1.800787e+00
  1.638775e+01    1.829111e+00
  1.640362e+01    1.796794e+00
  1.641950e+01    1.788828e+00
  1.643538e+01    1.779013e+00
  1.645125e+01    1.760962e+00
  1.646713e+01    1.774182e+00
  1.648300e+01    1.804401e+00
  1.649888e+01    1.784427e+00
  1.651475e+01    1.765096e+00
  1.653063e+01    1.705056e+00
  1.654650e+01    1.722276e+00
  1.656238e+01    1.754612e+00
  1.657826e+01    1.740528e+00
  1.659413e+01    1.719797e+00
  1.661001e+01    1.734837e+00
  1.662588e+01    1.759560e+00
  1.664176e+01    1.773098e+00
  1.665763e+01    1.751762e+00
  1.667351e+01    1.717719e+00
  1.668938e+01    1.722206e+00
  1.670526e+01    1.715505e+00
  1.672114e+01    1.711958e+00
  1.673701e+01    1.717343e+00
  1.675289e+01    1.724861e+00
  1.676876e+01    1.695538e+00
  1.678464e+01    1.686537e+00
  1.680051e+01    1.655470e+00
  1.681639e+01    1.700052e+00
  1.683226e+01    1.692450e+00
  1.684814e+01    1.682222e+00
  1.686402e+01    1.705282e+00
  1.687989e+01    1.679873e+00
  1.689577e+01    1.695961e+00
  1.691164e+01    1.712234e+00
  1.692752e+01    1.673537e+00
  1.694339e+01    1.685023e+00
  1.695927e+01    1.684118e+00
  1.697514e+01    1.731092e+00
  1.699102e+01    1.704691e+00
  1.700690e+01    1.667007e+00
  1.702277e+01    1.662537e+00
  1.703865e+01    1.658898e+00
  1.705452e+01    1.669426e+00
  1.707040e+01    1.636782e+00
  1.708627e+01    1.666576e+00
  1.710215e+01    1.681157e+00
  1.711802e+01    1.675703e+00
  1.713390e+01    1.648795e+00
  1.714978e+01    1.650950e+00
  1.716565e+01    1.638305e+00
  1.718153e+01    1.628966e+00
  1.719740e+01    1.611426e+00
  1.721328e+01    1.604369e+00
  1.722915e+01    1.599709e+00
  1.724503e+01    1.625464e+00
  1.726091e+01    1.639642e+00
  1.727678e+01    1.620110e+00
  1.729266e+01    1.648576e+00
  1.730853e+01    1.647177e+00
  1.732441e+01    1.622492e+00
  1.734028e+01    1.622370e+00
  1.735616e+01    1.598580e+00
  1.737203e+01    1.569014e+00
  1.738791e+01    1.613230e+00
  1.740379e+01    1.657776e+00
  1.741966e+01    1.624585e+00
  1.743554e+01    1.581139e+00
  1.745141e+01    1.618973e+00
  1.746729e+01    1.611809e+00
  1.748316e+01    1.611702e+00
  1.749904e+01    1.605466e+00
  1.751491e+01    1.597041e+00
  1.753079e+01    1.599261e+00
  1.754667e+01    1.547950e+00
  1.756254e+01    1.582661e+00
  1.757842e+01    1.583562e+00
  1.759429e+01    1.581189e+00
  1.761017e+01    1.589113e+00
  1.762604e+01    1.580173e+00
  1.764192e+01    1.590191e+00
  1.765779e+01    1.588536e+00
  1.767367e+01    1.571003e+00
  1.768955e+01    1.562768e+00
  1.770542e+01    1.559494e+00
  1.772130e+01    1.553267e+00
  1.773717e+01    1.564136e+00
  1.775305e+01    1.561068e+00
  1.776892e+01    1.566672e+00
  1.778480e+01    1.512332e+00
  1.780067e+01    1.525436e+00
  1.781655e+01    1.556561e+00
  1.783243e+01    1.556403e+00
  1.784830e+01    1.535644e+00
  1.786418e+01    1.501179e+00
  1.788005e+01    1.511498e+00
  1.789593e+01    1.531054e+00
  1.791180e+01    1.509074e+00
  1.792768e+01    1.520747e+00
  1.794355e+01    1.497871e+00
  1.795943e+01    1.522375e+00
  1.797531e+01    1.502476e+00
  1.799118e+01    1.523438e+00
  1.800706e+01    1.513737e+00
  1.802293e+01    1.510689e+00
  1.803881e+01    1.498895e+00
  1.805468e+01    1.500790e+00
  1.807056e+01    1.534753e+00
  1.808643e+01    1.504761e+00
  1.810231e+01    1.469807e+00
  1.811819e+01    1.489736e+00
  1.813406e+01    1.465875e+00
  1.814994e+01    1.485166e+00
  1.816581e+01    1.516447e+00
  1.818169e+01    1.483448e+00
  1.819756e+01    1.470791e+00
  1.821344e+01    1.481673e+00
  1.822932e+01    1.499347e+00
  1.824519e+01    1.494404e+00
  1.826107e+01    1.488675e+00
  1.827694e+01    1.464978e+00
  1.829282e+01    1.463985e+00
  1.830869e+01    1.463203e+00
  1.832457e+01    1.480773e+00
  1.834044e+01    1.478174e+00
  1.835632e+01    1.448663e+00
  1.837220e+01    1.481632e+00
  1.838807e+01    1.451669e+00
  1.840395e+01    1.451016e+00
  1.841982e+01    1.468523e+00
  1.843570e+01    1.447228e+00
  1.845157e+01    1.417815e+00
  1.846745e+01    1.422346e+00
  1.848332e+01    1.460747e+00
  1.849920e+01    1.469809e+00
  1.851508e+01    1.453796e+00
  1.853095e+01    1.435630e+00
  1.854683e+01    1.426894e+00
  1.856270e+01    1.429181e+00
  1.857858e+01    1.412892e+00
  1.859445e+01    1.428641e+00
  1.861033e+01    1.435083e+00
  1.862620e+01    1.435136e+00
  1.864208e+01    1.463803e+00
  1.865796e+01    1.428874e+00
  1.867383e+01    1.411592e+00
  1.868971e+01    1.414075e+00
  1.870558e+01    1.422268e+00
  1.872146e+01    1.413888e+00
  1.873733e+01    1.425110e+00
  1.875321e+01    1.448167e+00
  1.876908e+01    1.401723e+00
  1.878496e+01    1.387839e+00
  1.880084e+01    1.437001e+00
  1.881671e+01    1.418911e+00
  1.883259e+01    1.402416e+00
  1.884846e+01    1.359215e+00
  1.886434e+01    1.351124e+00
  1.888021e+01    1.389784e+00
  1.889609e+01    1.392896e+00
  1.891196e+01    1.400074e+00
  1.892784e+01    1.385381e+00
  1.894372e+01    1.400169e+00
  1.895959e+01    1.394545e+00
  1.897547e+01    1.382470e+00
  1.899134e+01    1.397835e+00
  1.900722e+01    1.398657e+00
  1.902309e+01    1.389851e+00
  1.903897e+01    1.414263e+00
  1.905484e+01    1.387260e+00
  1.907072e+01    1.372821e+00
  1.908660e+01    1.368044e+00
  1.910247e+01    1.364426e+00
  1.911835e+01    1.396811e+00
  1.913422e+01    1.400060e+00
  1.915010e+01    1.361212e+00
  1.916597e+01    1.348373e+00
  1.918185e+01    1.361185e+00
  1.919773e+01    1.401888e+00
  1.921360e+01    1.383744e+00
  1.922948e+01    1.360820e+00
  1.924535e+01    1.359455e+00
  1.926123e+01    1.369932e+00
  1.927710e+01    1.382685e+00
  1.929298e+01    1.369221e+00
  1.930885e+01    1.375732e+00
  1.932473e+01    1.361681e+00
  1.934061e+01    1.342065e+00
  1.935648e+01    1.356103e+00
  1.937236e+01    1.340483e+00
  1.938823e+01    1.369842e+00
  1.940411e+01    1.383211e+00
  1.941998e+01    1.366985e+00
  1.943586e+01    1.330830e+00
  1.945173e+01    1.340989e+00
  1.946761e+01    1.333464e+00
  1.948349e+01    1.342901e+00
  1.949936e+01    1.350657e+00
  1.951524e+01    1.334247e+00
  1.953111e+01    1.322654e+00
  1.954699e+01    1.342814e+00
  1.956286e+01    1.325554e+00
  1.957874e+01    1.327493e+00
  1.959461e+01    1.310405e+00
  1.961049e+01    1.306084e+00
  1.962637e+01    1.322704e+00
  1.964224e+01    1.320860e+00
  1.965812e+01    1.299026e+00
  1.967399e+01    1.310862e+00
  1.968987e+01    1.306208e+00
  1.970574e+01    1.309768e+00
  1.972162e+01    1.335657e+00
  1.973749e+01    1.321063e+00
  1.975337e+01    1.307828e+00
  1.976925e+01    1.324524e+00
  1.978512e+01    1.310173e+00
  1.980100e+01    1.321885e+00
  1.981687e+01    1.281235e+00
  1.983275e+01    1.307417e+00
  1.984862e+01    1.312235e+00
  1.986450e+01    1.288445e+00
  1.988037e+01    1.299514e+00
  1.989625e+01    1.278252e+00
  1.991213e+01    1.295994e+00
  1.992800e+01    1.290583e+00
  1.994388e+01    1.256808e+00
  1.995975e+01    1.268045e+00
  1.997563e+01    1.293647e+00
  1.999150e+01    1.285549e+00
  2.000738e+01    1.266596e+00
  2.002325e+01    1.273342e+00
  2.003913e+01    1.263559e+00
  2.005501e+01    1.263021e+00
  2.007088e+01    1.281937e+00
  2.008676e+01    1.266725e+00
  2.010263e+01    1.296936e+00
  2.011851e+01    1.276758e+00
  2.013438e+01    1.267577e+00
  2.015026e+01    1.285623e+00
  2.016614e+01    1.279127e+00
  2.018201e+01    1.243037e+00
  2.019789e+01    1.259291e+00
  2.021376e+01    1.320809e+00
  2.022964e+01    1.295071e+00
  2.024551e+01    1.253313e+00
  2.026139e+01    1.264877e+00
  2.027726e+01    1.253499e+00
  2.029314e+01    1.274360e+00
  2.030902e+01    1.276594e+00
  2.032489e+01    1.248815e+00
  2.034077e+01    1.265594e+00
  2.035664e+01    1.250427e+00
  2.037252e+01    1.237022e+00
  2.038839e+01    1.230977e+00
  2.040427e+01    1.214953e+00
  2.042014e+01    1.251232e+00
  2.043602e+01    1.235440e+00
  2.045190e+01    1.232072e+00
  2.046777e+01    1.243312e+00
  2.048365e+01    1.277093e+00
  2.049952e+01    1.252937e+00
  2.051540e+01    1.241003e+00
  2.053127e+01    1.214278e+00
  2.054715e+01    1.238815e+00
  2.056302e+01    1.265740e+00
  2.057890e+01    1.228479e+00
  2.059478e+01    1.214105e+00
  2.061065e+01    1.229682e+00
  2.062653e+01    1.226470e+00
  2.064240e+01    1.232654e+00
  2.065828e+01    1.225518e+00
  2.067415e+01    1.268479e+00
  2.069003e+01    1.270575e+00
  2.070590e+01    1.232683e+00
  2.072178e+01    1.213655e+00
  2.073766e+01    1.237163e+00
  2.075353e+01    1.242363e+00
  2.076941e+01    1.232143e+00
  2.078528e+01    1.219484e+00
  2.080116e+01    1.213852e+00
  2.081703e+01    1.216061e+00
  2.083291e+01    1.233456e+00
  2.084878e+01    1.222563e+00
  2.086466e+01    1.215469e+00
  2.088054e+01    1.228102e+00
  2.089641e+01    1.215285e+00
  2.091229e+01    1.219960e+00
  2.092816e+01    1.254984e+00
  2.094404e+01    1.243202e+00
  2.095991e+01    1.232845e+00
  2.097579e+01    1.226650e+00
  2.099166e+01    1.223751e+00
  2.100754e+01    1.216990e+00
  2.102342e+01    1.218808e+00
  2.103929e+01    1.219648e+00
  2.105517e+01    1.226897e+00
  2.107104e+01    1.225957e+00
  2.108692e+01    1.220299e+00
  2.110279e+01    1.223341e+00
  2.111867e+01    1.231501e+00
  2.113455e+01    1.231808e+00
  2.115042e+01    1.235944e+00
  2.116630e+01    1.216755e+00
  2.118217e+01    1.230609e+00
  2.119805e+01    1.221990e+00
  2.121392e+01    1.195536e+00
  2.122980e+01    1.213602e+00
  2.124567e+01    1.254172e+00
  2.126155e+01    1.249171e+00
  2.127743e+01    1.252777e+00
  2.129330e+01    1.266613e+00
  2.130918e+01    1.267380e+00
  2.132505e+01    1.264783e+00
  2.134093e+01    1.293702e+00
  2.135680e+01    1.282755e+00
  2.137268e+01    1.277764e+00
  2.138855e+01    1.303126e+00
  2.140443e+01    1.314219e+00
  2.142031e+01    1.327390e+00
  2.143618e+01    1.345052e+00
  2.145206e+01    1.364601e+00
  2.146793e+01    1.389013e+00
  2.148381e+01    1.380643e+00
  2.149968e+01    1.404051e+00
  2.151556e+01    1.436031e+00
  2.153143e+01    1.480497e+00
  2.154731e+01    1.520422e+00
  2.156319e+01    1.575853e+00
  2.157906e+01    1.649533e+00
  2.159494e+01    1.662596e+00
  2.161081e+01    1.716669e+00
  2.162669e+01    1.805318e+00
  2.164256e+01    1.953018e+00
  2.165844e+01    2.080303e+00
  2.167431e+01    2.263036e+00
  2.169019e+01    2.489899e+00
  2.170607e+01    2.768613e+00
  2.172194e+01    3.075082e+00
  2.173782e+01    3.524704e+00
  2.175369e+01    4.017098e+00
  2.176957e+01    4.565579e+00
  2.178544e+01    5.160877e+00
  2.180132e+01    5.785138e+00
  2.181719e+01    6.411256e+00
  2.183307e+01    7.085889e+00
  2.184895e+01    7.785106e+00
  2.186482e+01    8.461541e+00
  2.188070e+01    8.760044e+00
  2.189657e+01    8.904512e+00
  2.191245e+01    8.773266e+00
  2.192832e+01    8.269576e+00
  2.194420e+01    7.408691e+00
  2.196007e+01    6.548312e+00
  2.197595e+01    5.705352e+00
  2.199183e+01    4.912417e+00
  2.200770e+01    4.181592e+00
  2.202358e+01    3.570251e+00
  2.203945e+01    3.132994e+00
  2.205533e+01    2.804780e+00
  2.207120e+01    2.539454e+00
  2.208708e+01    2.330456e+00
  2.210296e+01    2.144969e+00
  2.211883e+01    2.005998e+00
  2.213471e+01    1.888264e+00
  2.215058e+01    1.768148e+00
  2.216646e+01    1.693437e+00
  2.218233e+01    1.590617e+00
  2.219821e+01    1.536454e+00
  2.221408e+01    1.496288e+00
  2.222996e+01    1.453692e+00
  2.224584e+01    1.434853e+00
  2.226171e+01    1.389235e+00
  2.227759e+01    1.314752e+00
  2.229346e+01    1.326752e+00
  2.230934e+01    1.311695e+00
  2.232521e+01    1.280186e+00
  2.234109e+01    1.257007e+00
  2.235696e+01    1.246629e+00
  2.237284e+01    1.233558e+00
  2.238872e+01    1.230704e+00
  2.240459e+01    1.235290e+00
  2.242047e+01    1.197496e+00
  2.243634e+01    1.167101e+00
  2.245222e+01    1.161389e+00
  2.246809e+01    1.186738e+00
  2.248397e+01    1.162314e+00
  2.249984e+01    1.161645e+00
  2.251572e+01    1.129873e+00
  2.253160e+01    1.139320e+00
  2.254747e+01    1.146413e+00
  2.256335e+01    1.096266e+00
  2.257922e+01    1.125317e+00
  2.259510e+01    1.118777e+00
  2.261097e+01    1.092349e+00
  2.262685e+01    1.117217e+00
  2.264272e+01    1.080281e+00
  2.265860e+01    1.086843e+00
  2.267448e+01    1.100340e+00
  2.269035e+01    1.102476e+00
  2.270623e+01    1.081887e+00
  2.272210e+01    1.084602e+00
  2.273798e+01    1.057289e+00
  2.275385e+01    1.054975e+00
  2.276973e+01    1.069989e+00
  2.278560e+01    1.068175e+00
  2.280148e+01    1.040449e+00
  2.281736e+01    1.064390e+00
  2.283323e+01    1.052913e+00
  2.284911e+01    1.064322e+00
  2.286498e+01    1.043604e+00
  2.288086e+01    1.037607e+00
  2.289673e+01    1.050236e+00
  2.291261e+01    1.030703e+00
  2.292848e+01    1.023315e+00
  2.294436e+01    1.021262e+00
  2.296024e+01    1.009929e+00
  2.297611e+01    1.011021e+00
  2.299199e+01    1.028510e+00
  2.300786e+01    1.022854e+00
  2.302374e+01    1.019509e+00
  2.303961e+01    1.003137e+00
  2.305549e+01    9.897662e-01
  2.307137e+01    9.893456e-01
  2.308724e+01    9.983677e-01
  2.310312e+01    1.000587e+00
  2.311899e+01    9.982031e-01
  2.313487e+01    9.941106e-01
  2.315074e+01    9.874376e-01
  2.316662e+01    1.009001e+00
  2.318249e+01    1.004641e+00
  2.319837e+01    1.004852e+00
  2.321425e+01    1.006789e+00
  2.323012e+01    9.910576e-01
  2.324600e+01    9.896149e-01
  2.326187e+01    9.937336e-01
  2.327775e+01    1.001606e+00
  2.329362e+01    9.945285e-01
  2.330950e+01    9.904729e-01
  2.332537e+01    9.682680e-01
  2.334125e+01    9.597727e-01
  2.335713e+01    9.733321e-01
  2.337300e+01    9.893860e-01
  2.338888e+01    9.917588e-01
  2.340475e+01    9.777015e-01
  2.342063e+01    9.776761e-01
  2.343650e+01    9.815291e-01
  2.345238e+01    9.691325e-01
  2.346825e+01    9.576606e-01
  2.348413e+01    9.530003e-01
  2.350001e+01    9.513468e-01
  2.351588e+01    9.532831e-01
  2.353176e+01    9.355075e-01
  2.354763e+01    9.704825e-01
  2.356351e+01    9.798884e-01
  2.357938e+01    9.584951e-01
  2.359526e+01    9.892840e-01
  2.361113e+01    9.764432e-01
  2.362701e+01    9.715812e-01
  2.364289e+01    9.553110e-01
  2.365876e+01    9.290773e-01
  2.367464e+01    9.544468e-01
  2.369051e+01    9.503539e-01
  2.370639e+01    9.300455e-01
  2.372226e+01    9.160864e-01
  2.373814e+01    9.248284e-01
  2.375401e+01    9.313220e-01
  2.376989e+01    9.383192e-01
  2.378577e+01    9.348148e-01
  2.380164e+01    9.290472e-01
  2.381752e+01    9.244696e-01
  2.383339e+01    9.137707e-01
  2.384927e+01    9.186769e-01
  2.386514e+01    9.224879e-01
  2.388102e+01    9.172027e-01
  2.389689e+01    9.090967e-01
  2.391277e+01    8.884319e-01
  2.392865e+01    8.823025e-01
  2.394452e+01    9.080211e-01
  2.396040e+01    9.039837e-01
  2.397627e+01    8.919384e-01
  2.399215e+01    9.149114e-01
  2.400802e+01    9.233369e-01
  2.402390e+01    9.241909e-01
  2.403978e+01    8.891543e-01
  2.405565e+01    8.647845e-01
  2.407153e+01    8.877277e-01
  2.408740e+01    8.822959e-01
  2.410328e+01    8.886915e-01
  2.411915e+01    8.846859e-01
  2.413503e+01    9.018551e-01
  2.415090e+01    9.071985e-01
  2.416678e+01    9.107221e-01
  2.418266e+01    8.944551e-01
  2.419853e+01    8.670151e-01
  2.421441e+01    8.787960e-01
  2.423028e+01    8.831519e-01
  2.424616e+01    8.844711e-01
  2.426203e+01    8.922508e-01
  2.427791e+01    8.860927e-01
  2.429378e+01    8.800918e-01
  2.430966e+01    8.787574e-01
  2.432554e+01    8.953537e-01
  2.434141e+01    9.093506e-01
  2.435729e+01    9.052992e-01
  2.437316e+01    8.884627e-01
  2.438904e+01    8.730753e-01
  2.440491e+01    8.934476e-01
  2.442079e+01    9.061152e-01
  2.443666e+01    8.988594e-01
  2.445254e+01    8.979312e-01
  2.446842e+01    8.813912e-01
  2.448429e+01    8.990188e-01
  2.450017e+01    8.964148e-01
  2.451604e+01    9.079389e-01
  2.453192e+01    9.133080e-01
  2.454779e+01    9.064379e-01
  2.456367e+01    9.000086e-01
  2.457954e+01    9.015834e-01
  2.459542e+01    8.888649e-01
  2.461130e+01    8.913118e-01
  2.462717e+01    8.981097e-01
  2.464305e+01    8.955646e-01
  2.465892e+01    8.697995e-01
  2.467480e+01    8.743610e-01
  2.469067e+01    8.955019e-01
  2.470655e+01    8.844029e-01
  2.472242e+01    8.992456e-01
  2.473830e+01    8.949000e-01
  2.475418e+01    9.029890e-01
  2.477005e+01    8.866434e-01
  2.478593e+01    8.763356e-01
  2.480180e+01    8.953536e-01
  2.481768e+01    8.998531e-01
  2.483355e+01    9.001746e-01
  2.484943e+01    9.142594e-01
  2.486530e+01    9.031283e-01
  2.488118e+01    8.806872e-01
  2.489706e+01    8.945108e-01
  2.491293e+01    8.988597e-01
  2.492881e+01    8.860773e-01
  2.494468e+01    8.968332e-01
  2.496056e+01    8.965820e-01
  2.497643e+01    8.864610e-01
  2.499231e+01    8.918009e-01
  2.500819e+01    8.906856e-01
  2.502406e+01    9.085150e-01
  2.503994e+01    9.079086e-01
  2.505581e+01    8.801959e-01
  2.507169e+01    8.863181e-01
  2.508756e+01    9.022117e-01
  2.510344e+01    9.063585e-01
  2.511931e+01    9.076874e-01
  2.513519e+01    9.152081e-01
  2.515107e+01    9.230665e-01
  2.516694e+01    9.224703e-01
  2.518282e+01    9.271234e-01
  2.519869e+01    9.273270e-01
  2.521457e+01    9.300343e-01
  2.523044e+01    9.149364e-01
  2.524632e+01    9.242687e-01
  2.526219e+01    9.277676e-01
  2.527807e+01    9.415738e-01
  2.529395e+01    9.502071e-01
  2.530982e+01    9.548588e-01
  2.532570e+01    9.620870e-01
  2.534157e+01    9.658437e-01
  2.535745e+01    9.628266e-01
  2.537332e+01    9.990204e-01
  2.538920e+01    9.924805e-01
  2.540507e+01    9.842660e-01
  2.542095e+01    9.970239e-01
  2.543683e+01    1.018431e+00
  2.545270e+01    1.023821e+00
  2.546858e+01    1.047013e+00
  2.548445e+01    1.056699e+00
  2.550033e+01    1.076196e+00
  2.551620e+01    1.085906e+00
  2.553208e+01    1.089818e+00
  2.554795e+01    1.096660e+00
  2.556383e+01    1.108911e+00
  2.557971e+01    1.137643e+00
  2.559558e+01    1.205591e+00
  2.561146e+01    1.237449e+00
  2.562733e+01    1.268630e+00
  2.564321e+01    1.314358e+00
  2.565908e+01    1.360084e+00
  2.567496e+01    1.429441e+00
  2.569083e+01    1.488062e+00
  2.570671e+01    1.565624e+00
  2.572259e+01    1.717699e+00
  2.573846e+01    1.842700e+00
  2.575434e+01    2.033407e+00
  2.577021e+01    2.262038e+00
  2.578609e+01    2.473875e+00
  2.580196e+01    2.779450e+00
  2.581784e+01    3.122119e+00
  2.583371e+01    3.581048e+00
  2.584959e+01    4.129109e+00
  2.586547e+01    4.675112e+00
  2.588134e+01    5.226830e+00
  2.589722e+01    5.744352e+00
  2.591309e+01    6.278627e+00
  2.592897e+01    6.717933e+00
  2.594484e+01    7.005504e+00
  2.596072e+01    7.084413e+00
  2.597660e+01    6.946486e+00
  2.599247e+01    6.546702e+00
  2.600835e+01    5.918665e+00
  2.602422e+01    5.294327e+00
  2.604010e+01    4.586108e+00
  2.605597e+01    4.004306e+00
  2.607185e+01    3.394416e+00
  2.608772e+01    2.987364e+00
  2.610360e+01    2.652128e+00
  2.611948e+01    2.328443e+00
  2.613535e+01    2.139278e+00
  2.615123e+01    2.011501e+00
  2.616710e+01    1.824928e+00
  2.618298e+01    1.660125e+00
  2.619885e+01    1.532586e+00
  2.621473e+01    1.466192e+00
  2.623060e+01    1.411723e+00
  2.624648e+01    1.323575e+00
  2.626236e+01    1.302638e+00
  2.627823e+01    1.247256e+00
  2.629411e+01    1.203101e+00
  2.630998e+01    1.185467e+00
  2.632586e+01    1.170418e+00
  2.634173e+01    1.145183e+00
  2.635761e+01    1.088153e+00
  2.637348e+01    1.082104e+00
  2.638936e+01    1.050384e+00
  2.640524e+01    1.071466e+00
  2.642111e+01    1.048203e+00
  2.643699e+01    1.036661e+00
  2.645286e+01    1.051130e+00
  2.646874e+01    1.036360e+00
  2.648461e+01    1.029089e+00
  2.650049e+01    1.025065e+00
  2.651636e+01    9.954094e-01
  2.653224e+01    9.879181e-01
  2.654812e+01    1.012182e+00
  2.656399e+01    9.765900e-01
  2.657987e+01    1.000657e+00
  2.659574e+01    1.013365e+00
  2.661162e+01    9.943074e-01
  2.662749e+01    9.654544e-01
  2.664337e+01    9.607450e-01
  2.665924e+01    9.634178e-01
  2.667512e+01    9.590235e-01
  2.669100e+01    9.652332e-01
  2.670687e+01    9.829106e-01
  2.672275e+01    9.888033e-01
  2.673862e+01    9.691683e-01
  2.675450e+01    9.779891e-01
  2.677037e+01    9.818912e-01
  2.678625e+01    9.857454e-01
  2.680212e+01    9.794211e-01
  2.681800e+01    9.805349e-01
  2.683388e+01    1.005548e+00
  2.684975e+01    9.939971e-01
  2.686563e+01    9.887338e-01
  2.688150e+01    9.986918e-01
  2.689738e+01    1.005574e+00
  2.691325e+01    1.019260e+00
  2.692913e+01    1.017167e+00
  2.694501e+01    1.021045e+00
  2.696088e+01    1.037692e+00
  2.697676e+01    1.052101e+00
  2.699263e+01    1.097684e+00
  2.700851e+01    1.103271e+00
  2.702438e+01    1.147420e+00
  2.704026e+01    1.199636e+00
  2.705613e+01    1.219661e+00
  2.707201e+01    1.285496e+00
  2.708789e+01    1.389984e+00
  2.710376e+01    1.493401e+00
  2.711964e+01    1.610485e+00
  2.713551e+01    1.744052e+00
  2.715139e+01    1.851454e+00
  2.716726e+01    1.967046e+00
  2.718314e+01    2.065072e+00
  2.719901e+01    2.146935e+00
  2.721489e+01    2.148761e+00
  2.723077e+01    2.169812e+00
  2.724664e+01    2.087791e+00
  2.726252e+01    1.940113e+00
  2.727839e+01    1.837719e+00
  2.729427e+01    1.709148e+00
  2.731014e+01    1.607105e+00
  2.732602e+01    1.455669e+00
  2.734189e+01    1.352956e+00
  2.735777e+01    1.278895e+00
  2.737365e+01    1.214057e+00
  2.738952e+01    1.139958e+00
  2.740540e+01    1.115605e+00
  2.742127e+01    1.080362e+00
  2.743715e+01    1.043417e+00
  2.745302e+01    1.043127e+00
  2.746890e+01    1.030264e+00
  2.748477e+01    9.858680e-01
  2.750065e+01    9.871897e-01
  2.751653e+01    9.901294e-01
  2.753240e+01    9.609964e-01
  2.754828e+01    9.529205e-01
  2.756415e+01    9.528339e-01
  2.758003e+01    9.530991e-01
  2.759590e+01    9.412630e-01
  2.761178e+01    9.330611e-01
  2.762765e+01    9.252647e-01
  2.764353e+01    9.214341e-01
  2.765941e+01    9.342766e-01
  2.767528e+01    9.251929e-01
  2.769116e+01    9.086019e-01
  2.770703e+01    8.957093e-01
  2.772291e+01    8.925763e-01
  2.773878e+01    8.922797e-01
  2.775466e+01    8.856297e-01
  2.777054e+01    8.862815e-01
  2.778641e+01    8.897685e-01
  2.780229e+01    8.898054e-01
  2.781816e+01    8.762013e-01
  2.783404e+01    8.737348e-01
  2.784991e+01    8.957778e-01
  2.786579e+01    8.701562e-01
  2.788166e+01    8.769864e-01
  2.789754e+01    8.736631e-01
  2.791342e+01    8.767809e-01
  2.792929e+01    8.698459e-01
  2.794517e+01    8.715374e-01
  2.796104e+01    8.754722e-01
  2.797692e+01    8.763886e-01
  2.799279e+01    8.732099e-01
  2.800867e+01    8.744443e-01
  2.802454e+01    8.698260e-01
  2.804042e+01    8.784167e-01
  2.805630e+01    8.705357e-01
  2.807217e+01    8.696253e-01
  2.808805e+01    8.584344e-01
  2.810392e+01    8.647908e-01
  2.811980e+01    8.735946e-01
  2.813567e+01    8.656577e-01
  2.815155e+01    8.678699e-01
  2.816742e+01    8.827734e-01
  2.818330e+01    8.781785e-01
  2.819918e+01    8.554335e-01
  2.821505e+01    8.728371e-01
  2.823093e+01    8.551146e-01
  2.824680e+01    8.414806e-01
  2.826268e+01    8.448792e-01
  2.827855e+01    8.327976e-01
  2.829443e+01    8.375646e-01
  2.831030e+01    8.391619e-01
  2.832618e+01    8.195453e-01
  2.834206e+01    8.380855e-01
  2.835793e+01    8.344040e-01
  2.837381e+01    8.441596e-01
  2.838968e+01    8.366210e-01
  2.840556e+01    8.340980e-01
  2.842143e+01    8.465981e-01
  2.843731e+01    8.596194e-01
  2.845318e+01    8.322914e-01
  2.846906e+01    8.130012e-01
  2.848494e+01    8.443413e-01
  2.850081e+01    8.472313e-01
  2.851669e+01    8.541598e-01
  2.853256e+01    8.564146e-01
  2.854844e+01    8.445330e-01
  2.856431e+01    8.244322e-01
  2.858019e+01    8.361976e-01
  2.859606e+01    8.520038e-01
  2.861194e+01    8.325310e-01
  2.862782e+01    8.186921e-01
  2.864369e+01    8.199021e-01
  2.865957e+01    8.371463e-01
  2.867544e+01    8.331798e-01
  2.869132e+01    8.396525e-01
  2.870719e+01    8.254435e-01
  2.872307e+01    8.434768e-01
  2.873895e+01    8.495777e-01
  2.875482e+01    8.479578e-01
  2.877070e+01    8.047814e-01
  2.878657e+01    8.128670e-01
  2.880245e+01    8.349262e-01
  2.881832e+01    8.148483e-01
  2.883420e+01    8.419329e-01
  2.885007e+01    8.517766e-01
  2.886595e+01    8.352644e-01
  2.888183e+01    8.256253e-01
  2.889770e+01    8.096686e-01
  2.891358e+01    8.148101e-01
  2.892945e+01    8.204190e-01
  2.894533e+01    8.125520e-01
  2.896120e+01    8.170544e-01
  2.897708e+01    8.062618e-01
  2.899295e+01    8.078663e-01
  2.900883e+01    8.070236e-01
  2.902471e+01    8.220021e-01
  2.904058e+01    8.141145e-01
  2.905646e+01    8.112731e-01
  2.907233e+01    8.164909e-01
  2.908821e+01    8.159275e-01
  2.910408e+01    8.189126e-01
  2.911996e+01    8.111980e-01
  2.913583e+01    8.149947e-01
  2.915171e+01    8.105249e-01
  2.916759e+01    8.018153e-01
  2.918346e+01    8.180049e-01
  2.919934e+01    8.283095e-01
  2.921521e+01    8.077114e-01
  2.923109e+01    8.005818e-01
  2.924696e+01    7.993204e-01
  2.926284e+01    8.163029e-01
  2.927871e+01    7.958789e-01
  2.929459e+01    7.991375e-01
  2.931047e+01    8.019971e-01
  2.932634e+01    8.093303e-01
  2.934222e+01    8.164607e-01
  2.935809e+01    8.124875e-01
  2.937397e+01    8.006289e-01
  2.938984e+01    8.214128e-01
  2.940572e+01    8.259171e-01
  2.942159e+01    7.995543e-01
  2.943747e+01    7.841217e-01
  2.945335e+01    7.870193e-01
  2.946922e+01    7.860594e-01
  2.948510e+01    8.252537e-01
  2.950097e+01    8.198322e-01
  2.951685e+01    8.005946e-01
  2.953272e+01    7.962097e-01
  2.954860e+01    7.965848e-01
  2.956447e+01    8.081101e-01
  2.958035e+01    7.959580e-01
  2.959623e+01    8.065525e-01
  2.961210e+01    8.126096e-01
  2.962798e+01    7.917635e-01
  2.964385e+01    7.902938e-01
  2.965973e+01    7.829856e-01
  2.967560e+01    7.885236e-01
  2.969148e+01    8.112010e-01
  2.970736e+01    7.825125e-01
  2.972323e+01    7.951999e-01
  2.973911e+01    7.838740e-01
  2.975498e+01    7.900979e-01
  2.977086e+01    7.852557e-01
  2.978673e+01    7.937220e-01
  2.980261e+01    7.866969e-01
  2.981848e+01    7.968267e-01
  2.983436e+01    8.022956e-01
  2.985024e+01    7.974617e-01
  2.986611e+01    7.979937e-01
  2.988199e+01    7.784330e-01
  2.989786e+01    8.083898e-01
  2.991374e+01    7.849558e-01
  2.992961e+01    7.914224e-01
  2.994549e+01    7.732325e-01
  2.996136e+01    7.848648e-01
  2.997724e+01    8.088537e-01
  2.999312e+01    7.944296e-01
  3.000899e+01    7.954987e-01
  3.002487e+01    8.168529e-01
  3.004074e+01    8.170838e-01
  3.005662e+01    8.126886e-01
  3.007249e+01    8.063052e-01
  3.008837e+01    8.046270e-01
  3.010424e+01    7.724971e-01
  3.012012e+01    8.008295e-01
  3.013600e+01    7.913948e-01
  3.015187e+01    7.931849e-01
  3.016775e+01    7.963768e-01
  3.018362e+01    7.755218e-01
  3.019950e+01    7.743815e-01
  3.021537e+01    7.515388e-01
  3.023125e+01    7.748724e-01
  3.024712e+01    7.763076e-01
  3.026300e+01    7.706619e-01
  3.027888e+01    7.711546e-01
  3.029475e+01    7.778735e-01
  3.031063e+01    8.047629e-01
  3.032650e+01    7.781910e-01
  3.034238e+01    7.675226e-01
  3.035825e+01    7.767047e-01
  3.037413e+01    7.811904e-01
  3.039000e+01    7.779940e-01
  3.040588e+01    7.899824e-01
  3.042176e+01    7.875271e-01
  3.043763e+01    7.841732e-01
  3.045351e+01    7.864473e-01
  3.046938e+01    7.821065e-01
  3.048526e+01    7.780429e-01
  3.050113e+01    7.743261e-01
  3.051701e+01    7.634052e-01
  3.053288e+01    7.804988e-01
  3.054876e+01    8.040757e-01
  3.056464e+01    7.912552e-01
  3.058051e+01    7.958375e-01
  3.059639e+01    7.855859e-01
  3.061226e+01    7.791864e-01
  3.062814e+01    7.734192e-01
  3.064401e+01    7.887010e-01
  3.065989e+01    7.736580e-01
  3.067577e+01    7.758690e-01
  3.069164e+01    7.928330e-01
  3.070752e+01    8.011826e-01
  3.072339e+01    7.847029e-01
  3.073927e+01    7.986819e-01
  3.075514e+01    7.912015e-01
  3.077102e+01    7.810596e-01
  3.078689e+01    7.873811e-01
  3.080277e+01    7.870438e-01
  3.081865e+01    8.005421e-01
  3.083452e+01    7.865512e-01
  3.085040e+01    7.809729e-01
  3.086627e+01    7.881816e-01
  3.088215e+01    7.954565e-01
  3.089802e+01    7.830775e-01
  3.091390e+01    7.796365e-01
  3.092977e+01    7.905620e-01
  3.094565e+01    7.826501e-01
  3.096153e+01    7.764101e-01
  3.097740e+01    7.995270e-01
  3.099328e+01    7.783145e-01
  3.100915e+01    7.890263e-01
  3.102503e+01    7.990208e-01
  3.104090e+01    7.957153e-01
  3.105678e+01    7.954711e-01
  3.107265e+01    7.976579e-01
  3.108853e+01    8.003199e-01
  3.110441e+01    8.049455e-01
  3.112028e+01    8.012844e-01
  3.113616e+01    7.952927e-01
  3.115203e+01    7.845780e-01
  3.116791e+01    7.874229e-01
  3.118378e+01    7.921283e-01
  3.119966e+01    7.892614e-01
  3.121553e+01    7.709326e-01
  3.123141e+01    7.996821e-01
  3.124729e+01    7.801845e-01
  3.126316e+01    7.703953e-01
  3.127904e+01    8.022422e-01
  3.129491e+01    8.138886e-01
  3.131079e+01    8.175653e-01
  3.132666e+01    7.953073e-01
  3.134254e+01    7.979634e-01
  3.135841e+01    7.928871e-01
  3.137429e+01    7.885796e-01
  3.139017e+01    7.963495e-01
  3.140604e+01    7.950702e-01
  3.142192e+01    8.070621e-01
  3.143779e+01    8.118564e-01
  3.145367e+01    8.094499e-01
  3.146954e+01    8.345160e-01
  3.148542e+01    8.298339e-01
  3.150129e+01    8.446787e-01
  3.151717e+01    8.405934e-01
  3.153305e+01    8.381140e-01
  3.154892e+01    8.266319e-01
  3.156480e+01    8.243941e-01
  3.158067e+01    8.474766e-01
  3.159655e+01    8.664653e-01
  3.161242e+01    8.872020e-01
  3.162830e+01    9.021373e-01
  3.164418e+01    9.215082e-01
  3.166005e+01    9.343464e-01
  3.167593e+01    9.404311e-01
  3.169180e+01    9.374537e-01
  3.170768e+01    1.002069e+00
  3.172355e+01    1.065374e+00
  3.173943e+01    1.131516e+00
  3.175530e+01    1.163870e+00
  3.177118e+01    1.225329e+00
  3.178706e+01    1.337848e+00
  3.180293e+01    1.443398e+00
  3.181881e+01    1.546044e+00
  3.183468e+01    1.686109e+00
  3.185056e+01    1.787885e+00
  3.186643e+01    1.956705e+00
  3.188231e+01    2.066664e+00
  3.189818e+01    2.113588e+00
  3.191406e+01    2.099506e+00
  3.192994e+01    2.035763e+00
  3.194581e+01    1.954250e+00
  3.196169e+01    1.862247e+00
  3.197756e+01    1.695250e+00
  3.199344e+01    1.533185e+00
  3.200931e+01    1.422794e+00
  3.202519e+01    1.340744e+00
  3.204106e+01    1.256418e+00
  3.205694e+01    1.174693e+00
  3.207282e+01    1.099632e+00
  3.208869e+01    1.037737e+00
  3.210457e+01    9.989725e-01
  3.212044e+01    9.653375e-01
  3.213632e+01    9.280447e-01
  3.215219e+01    9.155316e-01
  3.216807e+01    8.828923e-01
  3.218394e+01    8.753684e-01
  3.219982e+01    8.592935e-01
  3.221570e+01    8.502216e-01
  3.223157e+01    8.615549e-01
  3.224745e+01    8.014004e-01
  3.226332e+01    7.951601e-01
  3.227920e+01    8.071277e-01
  3.229507e+01    8.380075e-01
  3.231095e+01    8.206027e-01
  3.232682e+01    7.881298e-01
  3.234270e+01    8.078378e-01
  3.235858e+01    7.949092e-01
  3.237445e+01    7.820485e-01
  3.239033e+01    7.832211e-01
  3.240620e+01    7.762757e-01
  3.242208e+01    7.554392e-01
  3.243795e+01    7.570570e-01
  3.245383e+01    7.787529e-01
  3.246970e+01    8.028813e-01
  3.248558e+01    7.790129e-01
  3.250146e+01    7.619660e-01
  3.251733e+01    7.758383e-01
  3.253321e+01    7.548863e-01
  3.254908e+01    7.842945e-01
