# == pyFAI calibration ==
# Distance Sample to Detector: 0.3999999939076516 m
# PONI: 9.750e-02, 1.135e-01 m
# Rotations: -0.000175 0.000000 -0.000000 rad
# 
# == Fit2d calibration ==
# Distance Sample-beamCenter: 400.000 mm
# Center: x=1514.000, y=1300.000 pix
# Tilt: 0.010 deg  TiltPlanRot: 0.010 deg
# 
# Detector Detector	 Spline= None	 PixelSize= 7.500e-05, 7.500e-05 m
#    Detector has a mask: False 
#    Detector has a dark current: False 
#    detector has a flat field: False 
# 
# Wavelength: 6.888e-11 m
# Mask applied: user provided
# Dark current applied: False
# Flat field applied: False
# Polarization factor: 0.99
# Normalization factor: 1.0
# --> /home/myspot/data/2024_07_Rosario/Ru-CGO-ex/2024-07-27_003_Ru-CGO-ex_Reaction_dwell_000023_data_000031.dat
#       q_nm^-1             I 
  2.003187e-02    2.849293e-01
  3.590745e-02    0.000000e+00
  5.178302e-02    1.210474e-01
  6.765859e-02    1.846005e-01
  8.353417e-02    1.304318e-01
  9.940974e-02    8.574066e-02
  1.152853e-01    0.000000e+00
  1.311609e-01    7.526444e-02
  1.470365e-01    4.833535e-02
  1.629120e-01    3.823922e-03
  1.787876e-01    2.204556e-02
  1.946632e-01    2.672975e-02
  2.105388e-01    2.444146e-02
  2.264143e-01    5.735305e-02
  2.422899e-01    3.912105e-02
  2.581655e-01    5.518536e-02
  2.740411e-01    8.073585e-02
  2.899166e-01    5.050195e-02
  3.057922e-01    3.622840e-02
  3.216678e-01    2.795627e-02
  3.375433e-01    3.306879e-02
  3.534189e-01    3.164877e-02
  3.692945e-01    7.161164e-02
  3.851701e-01    6.449974e-02
  4.010456e-01    3.099598e-02
  4.169212e-01    4.812094e-02
  4.327968e-01    4.322000e-02
  4.486724e-01    4.500871e-02
  4.645479e-01    7.453263e-02
  4.804235e-01    8.439305e-02
  4.962991e-01    7.363231e-02
  5.121747e-01    2.332457e-02
  5.280502e-01    1.020649e-02
  5.439258e-01    2.896149e-02
  5.598014e-01    7.531548e-02
  5.756770e-01    7.492030e-02
  5.915525e-01    5.493991e-02
  6.074281e-01    4.649264e-02
  6.233037e-01    3.200753e-02
  6.391793e-01    4.212462e-02
  6.550548e-01    5.344447e-02
  6.709304e-01    2.861612e-02
  6.868060e-01    3.399174e-02
  7.026815e-01    3.859970e-02
  7.185571e-01    3.362256e-02
  7.344327e-01    6.232081e-02
  7.503083e-01    7.009969e-02
  7.661838e-01    1.104850e-01
  7.820594e-01    1.311384e-01
  7.979350e-01    1.504530e-01
  8.138106e-01    2.390958e-01
  8.296861e-01    3.692923e-01
  8.455617e-01    3.016138e-01
  8.614373e-01    3.984749e-01
  8.773129e-01    5.251841e-01
  8.931884e-01    5.703595e-01
  9.090640e-01    7.086178e-01
  9.249396e-01    8.151861e-01
  9.408152e-01    8.570467e-01
  9.566907e-01    8.415836e-01
  9.725663e-01    9.696299e-01
  9.884419e-01    1.177487e+00
  1.004317e+00    1.283576e+00
  1.020193e+00    1.263165e+00
  1.036069e+00    1.294240e+00
  1.051944e+00    1.396674e+00
  1.067820e+00    1.439200e+00
  1.083695e+00    1.446107e+00
  1.099571e+00    1.551090e+00
  1.115446e+00    1.583273e+00
  1.131322e+00    1.629649e+00
  1.147198e+00    1.626374e+00
  1.163073e+00    1.555470e+00
  1.178949e+00    1.689026e+00
  1.194824e+00    1.879741e+00
  1.210700e+00    2.111665e+00
  1.226575e+00    2.336486e+00
  1.242451e+00    2.425414e+00
  1.258327e+00    2.490633e+00
  1.274202e+00    2.669320e+00
  1.290078e+00    2.662445e+00
  1.305953e+00    2.620246e+00
  1.321829e+00    2.834120e+00
  1.337705e+00    2.839728e+00
  1.353580e+00    2.753298e+00
  1.369456e+00    2.750315e+00
  1.385331e+00    2.896951e+00
  1.401207e+00    2.890947e+00
  1.417082e+00    2.886734e+00
  1.432958e+00    2.852670e+00
  1.448834e+00    2.967196e+00
  1.464709e+00    3.053057e+00
  1.480585e+00    2.946955e+00
  1.496460e+00    3.233140e+00
  1.512336e+00    3.289073e+00
  1.528211e+00    3.223982e+00
  1.544087e+00    3.133849e+00
  1.559963e+00    3.136235e+00
  1.575838e+00    3.247498e+00
  1.591714e+00    3.275698e+00
  1.607589e+00    3.216048e+00
  1.623465e+00    3.109577e+00
  1.639340e+00    3.090972e+00
  1.655216e+00    3.084868e+00
  1.671092e+00    3.212997e+00
  1.686967e+00    3.258261e+00
  1.702843e+00    3.123190e+00
  1.718718e+00    3.093983e+00
  1.734594e+00    3.145351e+00
  1.750469e+00    2.949871e+00
  1.766345e+00    2.973699e+00
  1.782221e+00    3.066627e+00
  1.798096e+00    3.135085e+00
  1.813972e+00    3.032685e+00
  1.829847e+00    2.982194e+00
  1.845723e+00    3.022201e+00
  1.861598e+00    3.084432e+00
  1.877474e+00    3.052795e+00
  1.893350e+00    3.032761e+00
  1.909225e+00    3.064269e+00
  1.925101e+00    3.037421e+00
  1.940976e+00    3.018003e+00
  1.956852e+00    3.078925e+00
  1.972727e+00    3.080946e+00
  1.988603e+00    2.913545e+00
  2.004479e+00    3.004715e+00
  2.020354e+00    3.122880e+00
  2.036230e+00    3.096883e+00
  2.052105e+00    3.107473e+00
  2.067981e+00    3.000705e+00
  2.083856e+00    2.968390e+00
  2.099732e+00    3.088280e+00
  2.115608e+00    3.042700e+00
  2.131483e+00    3.034950e+00
  2.147359e+00    2.980465e+00
  2.163234e+00    3.031714e+00
  2.179110e+00    3.129155e+00
  2.194985e+00    3.186865e+00
  2.210861e+00    3.194672e+00
  2.226737e+00    3.196083e+00
  2.242612e+00    3.196983e+00
  2.258488e+00    3.150011e+00
  2.274363e+00    3.088362e+00
  2.290239e+00    3.069860e+00
  2.306115e+00    3.114033e+00
  2.321990e+00    3.151946e+00
  2.337866e+00    3.288289e+00
  2.353741e+00    3.207295e+00
  2.369617e+00    3.042596e+00
  2.385492e+00    3.096941e+00
  2.401368e+00    3.276067e+00
  2.417244e+00    3.206547e+00
  2.433119e+00    3.115933e+00
  2.448995e+00    3.099003e+00
  2.464870e+00    3.169883e+00
  2.480746e+00    3.331078e+00
  2.496621e+00    3.177451e+00
  2.512497e+00    3.165828e+00
  2.528373e+00    3.105457e+00
  2.544248e+00    3.100730e+00
  2.560124e+00    3.202188e+00
  2.575999e+00    3.111165e+00
  2.591875e+00    3.177276e+00
  2.607750e+00    3.292845e+00
  2.623626e+00    3.279796e+00
  2.639502e+00    3.247411e+00
  2.655377e+00    3.337575e+00
  2.671253e+00    3.311136e+00
  2.687128e+00    3.210475e+00
  2.703004e+00    3.187748e+00
  2.718879e+00    3.240809e+00
  2.734755e+00    3.254981e+00
  2.750631e+00    3.113080e+00
  2.766506e+00    3.115560e+00
  2.782382e+00    3.276671e+00
  2.798257e+00    3.320148e+00
  2.814133e+00    3.271808e+00
  2.830008e+00    3.268646e+00
  2.845884e+00    3.382013e+00
  2.861760e+00    3.312799e+00
  2.877635e+00    3.304959e+00
  2.893511e+00    3.324260e+00
  2.909386e+00    3.238346e+00
  2.925262e+00    3.294670e+00
  2.941137e+00    3.385200e+00
  2.957013e+00    3.389679e+00
  2.972889e+00    3.394430e+00
  2.988764e+00    3.311080e+00
  3.004640e+00    3.290370e+00
  3.020515e+00    3.376813e+00
  3.036391e+00    3.368909e+00
  3.052266e+00    3.338375e+00
  3.068142e+00    3.394236e+00
  3.084018e+00    3.488303e+00
  3.099893e+00    3.528519e+00
  3.115769e+00    3.475356e+00
  3.131644e+00    3.378312e+00
  3.147520e+00    3.325391e+00
  3.163395e+00    3.421195e+00
  3.179271e+00    3.450958e+00
  3.195147e+00    3.350853e+00
  3.211022e+00    3.442601e+00
  3.226898e+00    3.458252e+00
  3.242773e+00    3.456021e+00
  3.258649e+00    3.436726e+00
  3.274525e+00    3.349907e+00
  3.290400e+00    3.346695e+00
  3.306276e+00    3.363571e+00
  3.322151e+00    3.400685e+00
  3.338027e+00    3.364074e+00
  3.353902e+00    3.432919e+00
  3.369778e+00    3.440449e+00
  3.385654e+00    3.486909e+00
  3.401529e+00    3.487969e+00
  3.417405e+00    3.521190e+00
  3.433280e+00    3.503972e+00
  3.449156e+00    3.430651e+00
  3.465031e+00    3.412761e+00
  3.480907e+00    3.409878e+00
  3.496783e+00    3.458483e+00
  3.512658e+00    3.380700e+00
  3.528534e+00    3.377239e+00
  3.544409e+00    3.427669e+00
  3.560285e+00    3.484162e+00
  3.576160e+00    3.484448e+00
  3.592036e+00    3.495097e+00
  3.607912e+00    3.423729e+00
  3.623787e+00    3.402384e+00
  3.639663e+00    3.502633e+00
  3.655538e+00    3.519110e+00
  3.671414e+00    3.517147e+00
  3.687289e+00    3.422372e+00
  3.703165e+00    3.402094e+00
  3.719041e+00    3.503398e+00
  3.734916e+00    3.568367e+00
  3.750792e+00    3.551236e+00
  3.766667e+00    3.529757e+00
  3.782543e+00    3.442188e+00
  3.798418e+00    3.364954e+00
  3.814294e+00    3.413896e+00
  3.830170e+00    3.457846e+00
  3.846045e+00    3.555824e+00
  3.861921e+00    3.540585e+00
  3.877796e+00    3.556171e+00
  3.893672e+00    3.462507e+00
  3.909547e+00    3.479400e+00
  3.925423e+00    3.538334e+00
  3.941299e+00    3.498532e+00
  3.957174e+00    3.451577e+00
  3.973050e+00    3.461389e+00
  3.988925e+00    3.523048e+00
  4.004801e+00    3.523357e+00
  4.020676e+00    3.545109e+00
  4.036552e+00    3.520601e+00
  4.052428e+00    3.512834e+00
  4.068303e+00    3.592713e+00
  4.084179e+00    3.607059e+00
  4.100054e+00    3.613773e+00
  4.115930e+00    3.546657e+00
  4.131806e+00    3.549617e+00
  4.147681e+00    3.600608e+00
  4.163557e+00    3.659210e+00
  4.179432e+00    3.573526e+00
  4.195308e+00    3.569098e+00
  4.211183e+00    3.603057e+00
  4.227059e+00    3.568526e+00
  4.242935e+00    3.553842e+00
  4.258810e+00    3.508358e+00
  4.274686e+00    3.511928e+00
  4.290561e+00    3.528670e+00
  4.306437e+00    3.522779e+00
  4.322312e+00    3.539450e+00
  4.338188e+00    3.509584e+00
  4.354064e+00    3.597308e+00
  4.369939e+00    3.613822e+00
  4.385815e+00    3.576355e+00
  4.401690e+00    3.523850e+00
  4.417566e+00    3.562038e+00
  4.433441e+00    3.623398e+00
  4.449317e+00    3.649012e+00
  4.465193e+00    3.567281e+00
  4.481068e+00    3.592705e+00
  4.496944e+00    3.663956e+00
  4.512819e+00    3.674154e+00
  4.528695e+00    3.614430e+00
  4.544570e+00    3.599687e+00
  4.560446e+00    3.639028e+00
  4.576322e+00    3.649945e+00
  4.592197e+00    3.611900e+00
  4.608073e+00    3.579392e+00
  4.623948e+00    3.653437e+00
  4.639824e+00    3.639571e+00
  4.655699e+00    3.597432e+00
  4.671575e+00    3.558911e+00
  4.687451e+00    3.642300e+00
  4.703326e+00    3.580909e+00
  4.719202e+00    3.625433e+00
  4.735077e+00    3.695320e+00
  4.750953e+00    3.658523e+00
  4.766828e+00    3.597654e+00
  4.782704e+00    3.581582e+00
  4.798580e+00    3.628762e+00
  4.814455e+00    3.702478e+00
  4.830331e+00    3.727347e+00
  4.846206e+00    3.698320e+00
  4.862082e+00    3.715456e+00
  4.877957e+00    3.656293e+00
  4.893833e+00    3.658368e+00
  4.909709e+00    3.648368e+00
  4.925584e+00    3.722824e+00
  4.941460e+00    3.626771e+00
  4.957335e+00    3.571008e+00
  4.973211e+00    3.642754e+00
  4.989086e+00    3.690074e+00
  5.004962e+00    3.671756e+00
  5.020838e+00    3.713494e+00
  5.036713e+00    3.748310e+00
  5.052589e+00    3.736951e+00
  5.068464e+00    3.696705e+00
  5.084340e+00    3.701147e+00
  5.100216e+00    3.704895e+00
  5.116091e+00    3.628791e+00
  5.131967e+00    3.636710e+00
  5.147842e+00    3.679860e+00
  5.163718e+00    3.653869e+00
  5.179593e+00    3.600563e+00
  5.195469e+00    3.655965e+00
  5.211345e+00    3.612053e+00
  5.227220e+00    3.569857e+00
  5.243096e+00    3.645132e+00
  5.258971e+00    3.686601e+00
  5.274847e+00    3.650441e+00
  5.290722e+00    3.615380e+00
  5.306598e+00    3.661799e+00
  5.322474e+00    3.582714e+00
  5.338349e+00    3.573977e+00
  5.354225e+00    3.575273e+00
  5.370100e+00    3.608391e+00
  5.385976e+00    3.600094e+00
  5.401851e+00    3.709023e+00
  5.417727e+00    3.670742e+00
  5.433603e+00    3.669034e+00
  5.449478e+00    3.668776e+00
  5.465354e+00    3.599830e+00
  5.481229e+00    3.605079e+00
  5.497105e+00    3.681930e+00
  5.512980e+00    3.599094e+00
  5.528856e+00    3.547753e+00
  5.544732e+00    3.640513e+00
  5.560607e+00    3.612273e+00
  5.576483e+00    3.541767e+00
  5.592358e+00    3.560014e+00
  5.608234e+00    3.591734e+00
  5.624109e+00    3.586758e+00
  5.639985e+00    3.609837e+00
  5.655861e+00    3.588681e+00
  5.671736e+00    3.612355e+00
  5.687612e+00    3.602077e+00
  5.703487e+00    3.523871e+00
  5.719363e+00    3.551053e+00
  5.735238e+00    3.504325e+00
  5.751114e+00    3.554006e+00
  5.766990e+00    3.547695e+00
  5.782865e+00    3.539897e+00
  5.798741e+00    3.511373e+00
  5.814616e+00    3.573116e+00
  5.830492e+00    3.648398e+00
  5.846367e+00    3.679443e+00
  5.862243e+00    3.568618e+00
  5.878119e+00    3.574576e+00
  5.893994e+00    3.587274e+00
  5.909870e+00    3.614733e+00
  5.925745e+00    3.565858e+00
  5.941621e+00    3.594271e+00
  5.957497e+00    3.576463e+00
  5.973372e+00    3.511994e+00
  5.989248e+00    3.467072e+00
  6.005123e+00    3.587031e+00
  6.020999e+00    3.714705e+00
  6.036874e+00    3.574656e+00
  6.052750e+00    3.605386e+00
  6.068626e+00    3.664083e+00
  6.084501e+00    3.581858e+00
  6.100377e+00    3.573108e+00
  6.116252e+00    3.589357e+00
  6.132128e+00    3.632179e+00
  6.148003e+00    3.715998e+00
  6.163879e+00    3.646938e+00
  6.179755e+00    3.620920e+00
  6.195630e+00    3.630445e+00
  6.211506e+00    3.615654e+00
  6.227381e+00    3.580791e+00
  6.243257e+00    3.592273e+00
  6.259132e+00    3.615927e+00
  6.275008e+00    3.602781e+00
  6.290884e+00    3.542426e+00
  6.306759e+00    3.586392e+00
  6.322635e+00    3.585217e+00
  6.338510e+00    3.561676e+00
  6.354386e+00    3.505994e+00
  6.370261e+00    3.517968e+00
  6.386137e+00    3.544298e+00
  6.402013e+00    3.580118e+00
  6.417888e+00    3.526903e+00
  6.433764e+00    3.553357e+00
  6.449639e+00    3.593182e+00
  6.465515e+00    3.585397e+00
  6.481390e+00    3.590916e+00
  6.497266e+00    3.588526e+00
  6.513142e+00    3.551873e+00
  6.529017e+00    3.548341e+00
  6.544893e+00    3.557716e+00
  6.560768e+00    3.547579e+00
  6.576644e+00    3.537339e+00
  6.592519e+00    3.483152e+00
  6.608395e+00    3.520656e+00
  6.624271e+00    3.610640e+00
  6.640146e+00    3.660548e+00
  6.656022e+00    3.614952e+00
  6.671897e+00    3.522958e+00
  6.687773e+00    3.583249e+00
  6.703648e+00    3.581842e+00
  6.719524e+00    3.541948e+00
  6.735400e+00    3.449718e+00
  6.751275e+00    3.486086e+00
  6.767151e+00    3.498565e+00
  6.783026e+00    3.524106e+00
  6.798902e+00    3.542861e+00
  6.814777e+00    3.519769e+00
  6.830653e+00    3.543057e+00
  6.846529e+00    3.553472e+00
  6.862404e+00    3.574441e+00
  6.878280e+00    3.575009e+00
  6.894155e+00    3.620520e+00
  6.910031e+00    3.608256e+00
  6.925907e+00    3.557324e+00
  6.941782e+00    3.577477e+00
  6.957658e+00    3.629936e+00
  6.973533e+00    3.516840e+00
  6.989409e+00    3.446180e+00
  7.005284e+00    3.470062e+00
  7.021160e+00    3.557701e+00
  7.037036e+00    3.577639e+00
  7.052911e+00    3.596631e+00
  7.068787e+00    3.564052e+00
  7.084662e+00    3.549386e+00
  7.100538e+00    3.518491e+00
  7.116413e+00    3.479575e+00
  7.132289e+00    3.498552e+00
  7.148165e+00    3.539831e+00
  7.164040e+00    3.522443e+00
  7.179916e+00    3.556156e+00
  7.195791e+00    3.600759e+00
  7.211667e+00    3.551742e+00
  7.227542e+00    3.530806e+00
  7.243418e+00    3.559099e+00
  7.259294e+00    3.544656e+00
  7.275169e+00    3.569991e+00
  7.291045e+00    3.506897e+00
  7.306920e+00    3.510308e+00
  7.322796e+00    3.489884e+00
  7.338671e+00    3.511580e+00
  7.354547e+00    3.498777e+00
  7.370423e+00    3.559719e+00
  7.386298e+00    3.504859e+00
  7.402174e+00    3.532711e+00
  7.418049e+00    3.497018e+00
  7.433925e+00    3.459941e+00
  7.449800e+00    3.468130e+00
  7.465676e+00    3.542505e+00
  7.481552e+00    3.521534e+00
  7.497427e+00    3.524059e+00
  7.513303e+00    3.506891e+00
  7.529178e+00    3.497553e+00
  7.545054e+00    3.542192e+00
  7.560929e+00    3.521740e+00
  7.576805e+00    3.562177e+00
  7.592681e+00    3.521832e+00
  7.608556e+00    3.558434e+00
  7.624432e+00    3.471757e+00
  7.640307e+00    3.417508e+00
  7.656183e+00    3.495609e+00
  7.672058e+00    3.443177e+00
  7.687934e+00    3.422919e+00
  7.703810e+00    3.420125e+00
  7.719685e+00    3.469681e+00
  7.735561e+00    3.522543e+00
  7.751436e+00    3.508752e+00
  7.767312e+00    3.425253e+00
  7.783187e+00    3.433272e+00
  7.799063e+00    3.448090e+00
  7.814939e+00    3.490767e+00
  7.830814e+00    3.435694e+00
  7.846690e+00    3.420249e+00
  7.862565e+00    3.421389e+00
  7.878441e+00    3.439648e+00
  7.894317e+00    3.488877e+00
  7.910192e+00    3.486871e+00
  7.926068e+00    3.403921e+00
  7.941943e+00    3.432833e+00
  7.957819e+00    3.409391e+00
  7.973694e+00    3.377580e+00
  7.989570e+00    3.411603e+00
  8.005446e+00    3.419683e+00
  8.021321e+00    3.412393e+00
  8.037197e+00    3.455883e+00
  8.053072e+00    3.469567e+00
  8.068948e+00    3.471700e+00
  8.084823e+00    3.453838e+00
  8.100699e+00    3.513790e+00
  8.116575e+00    3.497859e+00
  8.132450e+00    3.505029e+00
  8.148326e+00    3.373880e+00
  8.164201e+00    3.398777e+00
  8.180077e+00    3.485884e+00
  8.195952e+00    3.509406e+00
  8.211828e+00    3.538046e+00
  8.227704e+00    3.481427e+00
  8.243579e+00    3.477324e+00
  8.259455e+00    3.432439e+00
  8.275330e+00    3.444831e+00
  8.291206e+00    3.460377e+00
  8.307081e+00    3.408400e+00
  8.322957e+00    3.419275e+00
  8.338833e+00    3.414055e+00
  8.354708e+00    3.400533e+00
  8.370584e+00    3.432084e+00
  8.386459e+00    3.403746e+00
  8.402335e+00    3.395965e+00
  8.418210e+00    3.453594e+00
  8.434086e+00    3.433926e+00
  8.449962e+00    3.441085e+00
  8.465837e+00    3.431679e+00
  8.481713e+00    3.444118e+00
  8.497588e+00    3.410127e+00
  8.513464e+00    3.282765e+00
  8.529339e+00    3.378002e+00
  8.545215e+00    3.377480e+00
  8.561091e+00    3.377570e+00
  8.576966e+00    3.352897e+00
  8.592842e+00    3.377196e+00
  8.608717e+00    3.356437e+00
  8.624593e+00    3.310333e+00
  8.640468e+00    3.350475e+00
  8.656344e+00    3.422301e+00
  8.672220e+00    3.427455e+00
  8.688095e+00    3.381779e+00
  8.703971e+00    3.348952e+00
  8.719846e+00    3.371218e+00
  8.735722e+00    3.397769e+00
  8.751598e+00    3.300871e+00
  8.767473e+00    3.301227e+00
  8.783349e+00    3.296441e+00
  8.799224e+00    3.266816e+00
  8.815100e+00    3.234722e+00
  8.830975e+00    3.318856e+00
  8.846851e+00    3.309450e+00
  8.862727e+00    3.364051e+00
  8.878602e+00    3.368033e+00
  8.894478e+00    3.339296e+00
  8.910353e+00    3.352900e+00
  8.926229e+00    3.280452e+00
  8.942104e+00    3.302798e+00
  8.957980e+00    3.283741e+00
  8.973856e+00    3.247371e+00
  8.989731e+00    3.255583e+00
  9.005607e+00    3.218031e+00
  9.021482e+00    3.210122e+00
  9.037358e+00    3.270812e+00
  9.053233e+00    3.261366e+00
  9.069109e+00    3.256316e+00
  9.084985e+00    3.225946e+00
  9.100860e+00    3.203570e+00
  9.116736e+00    3.196582e+00
  9.132611e+00    3.208248e+00
  9.148487e+00    3.272821e+00
  9.164362e+00    3.273280e+00
  9.180238e+00    3.251851e+00
  9.196114e+00    3.238212e+00
  9.211989e+00    3.305162e+00
  9.227865e+00    3.254399e+00
  9.243740e+00    3.219939e+00
  9.259616e+00    3.266690e+00
  9.275491e+00    3.332628e+00
  9.291367e+00    3.250929e+00
  9.307243e+00    3.227663e+00
  9.323118e+00    3.253215e+00
  9.338994e+00    3.256900e+00
  9.354869e+00    3.295511e+00
  9.370745e+00    3.225099e+00
  9.386620e+00    3.253259e+00
  9.402496e+00    3.256832e+00
  9.418372e+00    3.243447e+00
  9.434247e+00    3.235161e+00
  9.450123e+00    3.219449e+00
  9.465998e+00    3.225382e+00
  9.481874e+00    3.290806e+00
  9.497749e+00    3.251107e+00
  9.513625e+00    3.165557e+00
  9.529501e+00    3.175473e+00
  9.545376e+00    3.173884e+00
  9.561252e+00    3.213620e+00
  9.577127e+00    3.268404e+00
  9.593003e+00    3.223709e+00
  9.608878e+00    3.237459e+00
  9.624754e+00    3.192950e+00
  9.640630e+00    3.222095e+00
  9.656505e+00    3.197088e+00
  9.672381e+00    3.206884e+00
  9.688256e+00    3.231309e+00
  9.704132e+00    3.166976e+00
  9.720008e+00    3.202937e+00
  9.735883e+00    3.162082e+00
  9.751759e+00    3.241099e+00
  9.767634e+00    3.227098e+00
  9.783510e+00    3.218441e+00
  9.799385e+00    3.179906e+00
  9.815261e+00    3.144527e+00
  9.831137e+00    3.172868e+00
  9.847012e+00    3.164415e+00
  9.862888e+00    3.130075e+00
  9.878763e+00    3.120414e+00
  9.894639e+00    3.114367e+00
  9.910514e+00    3.134841e+00
  9.926390e+00    3.101877e+00
  9.942266e+00    3.114456e+00
  9.958141e+00    3.210306e+00
  9.974017e+00    3.183970e+00
  9.989892e+00    3.098723e+00
  1.000577e+01    3.127692e+00
  1.002164e+01    3.102767e+00
  1.003752e+01    3.140707e+00
  1.005339e+01    3.118111e+00
  1.006927e+01    3.081594e+00
  1.008515e+01    3.098857e+00
  1.010102e+01    3.014650e+00
  1.011690e+01    3.072665e+00
  1.013277e+01    3.126642e+00
  1.014865e+01    3.138649e+00
  1.016452e+01    3.138538e+00
  1.018040e+01    3.077257e+00
  1.019627e+01    3.100382e+00
  1.021215e+01    3.129041e+00
  1.022803e+01    3.076702e+00
  1.024390e+01    3.050048e+00
  1.025978e+01    3.074367e+00
  1.027565e+01    3.079682e+00
  1.029153e+01    3.023722e+00
  1.030740e+01    3.066071e+00
  1.032328e+01    3.071431e+00
  1.033915e+01    3.010825e+00
  1.035503e+01    3.104345e+00
  1.037091e+01    3.081302e+00
  1.038678e+01    3.000916e+00
  1.040266e+01    3.014461e+00
  1.041853e+01    3.049916e+00
  1.043441e+01    3.026742e+00
  1.045028e+01    3.033539e+00
  1.046616e+01    2.982566e+00
  1.048204e+01    3.010623e+00
  1.049791e+01    3.003715e+00
  1.051379e+01    3.051003e+00
  1.052966e+01    3.034733e+00
  1.054554e+01    3.004742e+00
  1.056141e+01    2.980984e+00
  1.057729e+01    3.006811e+00
  1.059316e+01    3.046326e+00
  1.060904e+01    3.046921e+00
  1.062492e+01    3.019392e+00
  1.064079e+01    2.984339e+00
  1.065667e+01    3.037886e+00
  1.067254e+01    3.031519e+00
  1.068842e+01    3.006094e+00
  1.070429e+01    3.007862e+00
  1.072017e+01    2.981333e+00
  1.073604e+01    2.999282e+00
  1.075192e+01    3.004442e+00
  1.076780e+01    2.963187e+00
  1.078367e+01    2.976791e+00
  1.079955e+01    2.943245e+00
  1.081542e+01    2.955162e+00
  1.083130e+01    2.965238e+00
  1.084717e+01    2.991802e+00
  1.086305e+01    2.926367e+00
  1.087892e+01    2.957760e+00
  1.089480e+01    2.939333e+00
  1.091068e+01    2.996559e+00
  1.092655e+01    3.008203e+00
  1.094243e+01    2.927657e+00
  1.095830e+01    2.910676e+00
  1.097418e+01    2.877114e+00
  1.099005e+01    2.920151e+00
  1.100593e+01    2.962048e+00
  1.102180e+01    2.940016e+00
  1.103768e+01    2.929719e+00
  1.105356e+01    2.931952e+00
  1.106943e+01    2.915938e+00
  1.108531e+01    2.872366e+00
  1.110118e+01    2.875889e+00
  1.111706e+01    2.876044e+00
  1.113293e+01    2.853518e+00
  1.114881e+01    2.849363e+00
  1.116468e+01    2.873363e+00
  1.118056e+01    2.865473e+00
  1.119644e+01    2.807973e+00
  1.121231e+01    2.830638e+00
  1.122819e+01    2.822087e+00
  1.124406e+01    2.828163e+00
  1.125994e+01    2.874668e+00
  1.127581e+01    2.886122e+00
  1.129169e+01    2.799073e+00
  1.130756e+01    2.810015e+00
  1.132344e+01    2.857794e+00
  1.133932e+01    2.858808e+00
  1.135519e+01    2.875669e+00
  1.137107e+01    2.809119e+00
  1.138694e+01    2.788194e+00
  1.140282e+01    2.848990e+00
  1.141869e+01    2.866383e+00
  1.143457e+01    2.836985e+00
  1.145045e+01    2.823997e+00
  1.146632e+01    2.827722e+00
  1.148220e+01    2.810279e+00
  1.149807e+01    2.797828e+00
  1.151395e+01    2.772989e+00
  1.152982e+01    2.754410e+00
  1.154570e+01    2.778707e+00
  1.156157e+01    2.803814e+00
  1.157745e+01    2.749948e+00
  1.159333e+01    2.808314e+00
  1.160920e+01    2.770987e+00
  1.162508e+01    2.743136e+00
  1.164095e+01    2.810284e+00
  1.165683e+01    2.785004e+00
  1.167270e+01    2.764478e+00
  1.168858e+01    2.745256e+00
  1.170445e+01    2.787559e+00
  1.172033e+01    2.809497e+00
  1.173621e+01    2.771317e+00
  1.175208e+01    2.750295e+00
  1.176796e+01    2.776570e+00
  1.178383e+01    2.771992e+00
  1.179971e+01    2.762069e+00
  1.181558e+01    2.737586e+00
  1.183146e+01    2.748050e+00
  1.184733e+01    2.744180e+00
  1.186321e+01    2.714252e+00
  1.187909e+01    2.692727e+00
  1.189496e+01    2.741070e+00
  1.191084e+01    2.739590e+00
  1.192671e+01    2.731582e+00
  1.194259e+01    2.749514e+00
  1.195846e+01    2.735487e+00
  1.197434e+01    2.741885e+00
  1.199021e+01    2.737289e+00
  1.200609e+01    2.744549e+00
  1.202197e+01    2.768874e+00
  1.203784e+01    2.725400e+00
  1.205372e+01    2.714933e+00
  1.206959e+01    2.726052e+00
  1.208547e+01    2.651438e+00
  1.210134e+01    2.711903e+00
  1.211722e+01    2.746666e+00
  1.213309e+01    2.714463e+00
  1.214897e+01    2.686206e+00
  1.216485e+01    2.685246e+00
  1.218072e+01    2.673116e+00
  1.219660e+01    2.699749e+00
  1.221247e+01    2.694828e+00
  1.222835e+01    2.720304e+00
  1.224422e+01    2.749183e+00
  1.226010e+01    2.710251e+00
  1.227597e+01    2.741069e+00
  1.229185e+01    2.757893e+00
  1.230773e+01    2.682916e+00
  1.232360e+01    2.709982e+00
  1.233948e+01    2.719256e+00
  1.235535e+01    2.703734e+00
  1.237123e+01    2.705921e+00
  1.238710e+01    2.705675e+00
  1.240298e+01    2.711542e+00
  1.241886e+01    2.726978e+00
  1.243473e+01    2.739895e+00
  1.245061e+01    2.689159e+00
  1.246648e+01    2.683505e+00
  1.248236e+01    2.692651e+00
  1.249823e+01    2.713486e+00
  1.251411e+01    2.719091e+00
  1.252998e+01    2.715351e+00
  1.254586e+01    2.709820e+00
  1.256174e+01    2.712680e+00
  1.257761e+01    2.680252e+00
  1.259349e+01    2.704091e+00
  1.260936e+01    2.728422e+00
  1.262524e+01    2.735434e+00
  1.264111e+01    2.788584e+00
  1.265699e+01    2.816167e+00
  1.267286e+01    2.837366e+00
  1.268874e+01    2.808401e+00
  1.270462e+01    2.826655e+00
  1.272049e+01    2.858585e+00
  1.273637e+01    2.891025e+00
  1.275224e+01    2.940707e+00
  1.276812e+01    2.944880e+00
  1.278399e+01    2.937215e+00
  1.279987e+01    3.034924e+00
  1.281574e+01    3.055211e+00
  1.283162e+01    3.068213e+00
  1.284750e+01    3.202839e+00
  1.286337e+01    3.299558e+00
  1.287925e+01    3.443618e+00
  1.289512e+01    3.533665e+00
  1.291100e+01    3.703228e+00
  1.292687e+01    3.858926e+00
  1.294275e+01    4.084561e+00
  1.295862e+01    4.401401e+00
  1.297450e+01    4.842592e+00
  1.299038e+01    5.263793e+00
  1.300625e+01    5.922257e+00
  1.302213e+01    6.743694e+00
  1.303800e+01    7.658445e+00
  1.305388e+01    8.853744e+00
  1.306975e+01    1.022072e+01
  1.308563e+01    1.152726e+01
  1.310150e+01    1.274501e+01
  1.311738e+01    1.384181e+01
  1.313326e+01    1.479384e+01
  1.314913e+01    1.574500e+01
  1.316501e+01    1.632218e+01
  1.318088e+01    1.628750e+01
  1.319676e+01    1.575757e+01
  1.321263e+01    1.434604e+01
  1.322851e+01    1.256150e+01
  1.324438e+01    1.070832e+01
  1.326026e+01    9.066624e+00
  1.327614e+01    7.763112e+00
  1.329201e+01    6.767390e+00
  1.330789e+01    6.066939e+00
  1.332376e+01    5.386494e+00
  1.333964e+01    4.874955e+00
  1.335551e+01    4.491366e+00
  1.337139e+01    4.112533e+00
  1.338727e+01    3.861402e+00
  1.340314e+01    3.685764e+00
  1.341902e+01    3.521753e+00
  1.343489e+01    3.427712e+00
  1.345077e+01    3.311363e+00
  1.346664e+01    3.171422e+00
  1.348252e+01    3.079747e+00
  1.349839e+01    3.012015e+00
  1.351427e+01    2.948206e+00
  1.353015e+01    2.840880e+00
  1.354602e+01    2.793491e+00
  1.356190e+01    2.818186e+00
  1.357777e+01    2.804262e+00
  1.359365e+01    2.708108e+00
  1.360952e+01    2.662951e+00
  1.362540e+01    2.652272e+00
  1.364127e+01    2.658826e+00
  1.365715e+01    2.646166e+00
  1.367303e+01    2.657126e+00
  1.368890e+01    2.637954e+00
  1.370478e+01    2.594010e+00
  1.372065e+01    2.556887e+00
  1.373653e+01    2.533141e+00
  1.375240e+01    2.529096e+00
  1.376828e+01    2.489943e+00
  1.378415e+01    2.457767e+00
  1.380003e+01    2.435735e+00
  1.381591e+01    2.463065e+00
  1.383178e+01    2.458538e+00
  1.384766e+01    2.425426e+00
  1.386353e+01    2.453784e+00
  1.387941e+01    2.435278e+00
  1.389528e+01    2.427537e+00
  1.391116e+01    2.402414e+00
  1.392703e+01    2.403854e+00
  1.394291e+01    2.374948e+00
  1.395879e+01    2.382627e+00
  1.397466e+01    2.393867e+00
  1.399054e+01    2.369536e+00
  1.400641e+01    2.328249e+00
  1.402229e+01    2.336729e+00
  1.403816e+01    2.326545e+00
  1.405404e+01    2.330142e+00
  1.406991e+01    2.380383e+00
  1.408579e+01    2.332117e+00
  1.410167e+01    2.331413e+00
  1.411754e+01    2.336709e+00
  1.413342e+01    2.280782e+00
  1.414929e+01    2.280981e+00
  1.416517e+01    2.325610e+00
  1.418104e+01    2.343127e+00
  1.419692e+01    2.292074e+00
  1.421279e+01    2.283510e+00
  1.422867e+01    2.287325e+00
  1.424455e+01    2.295959e+00
  1.426042e+01    2.310654e+00
  1.427630e+01    2.265960e+00
  1.429217e+01    2.265796e+00
  1.430805e+01    2.284442e+00
  1.432392e+01    2.275159e+00
  1.433980e+01    2.244620e+00
  1.435568e+01    2.248203e+00
  1.437155e+01    2.229158e+00
  1.438743e+01    2.235993e+00
  1.440330e+01    2.192749e+00
  1.441918e+01    2.258980e+00
  1.443505e+01    2.271333e+00
  1.445093e+01    2.291513e+00
  1.446680e+01    2.248013e+00
  1.448268e+01    2.174423e+00
  1.449856e+01    2.201893e+00
  1.451443e+01    2.223262e+00
  1.453031e+01    2.241535e+00
  1.454618e+01    2.256744e+00
  1.456206e+01    2.210253e+00
  1.457793e+01    2.200383e+00
  1.459381e+01    2.199766e+00
  1.460968e+01    2.213770e+00
  1.462556e+01    2.197437e+00
  1.464144e+01    2.154157e+00
  1.465731e+01    2.214548e+00
  1.467319e+01    2.238946e+00
  1.468906e+01    2.229883e+00
  1.470494e+01    2.229773e+00
  1.472081e+01    2.236865e+00
  1.473669e+01    2.210240e+00
  1.475256e+01    2.209006e+00
  1.476844e+01    2.247769e+00
  1.478432e+01    2.186432e+00
  1.480019e+01    2.192271e+00
  1.481607e+01    2.200650e+00
  1.483194e+01    2.187766e+00
  1.484782e+01    2.210902e+00
  1.486369e+01    2.213032e+00
  1.487957e+01    2.235887e+00
  1.489544e+01    2.223501e+00
  1.491132e+01    2.280629e+00
  1.492720e+01    2.281445e+00
  1.494307e+01    2.302719e+00
  1.495895e+01    2.323003e+00
  1.497482e+01    2.328876e+00
  1.499070e+01    2.394549e+00
  1.500657e+01    2.446685e+00
  1.502245e+01    2.485727e+00
  1.503832e+01    2.607139e+00
  1.505420e+01    2.716227e+00
  1.507008e+01    2.801326e+00
  1.508595e+01    3.012653e+00
  1.510183e+01    3.202915e+00
  1.511770e+01    3.467600e+00
  1.513358e+01    3.816389e+00
  1.514945e+01    4.137623e+00
  1.516533e+01    4.579500e+00
  1.518120e+01    4.948963e+00
  1.519708e+01    5.192691e+00
  1.521296e+01    5.469556e+00
  1.522883e+01    5.675637e+00
  1.524471e+01    5.777319e+00
  1.526058e+01    5.830918e+00
  1.527646e+01    5.727096e+00
  1.529233e+01    5.474023e+00
  1.530821e+01    5.162531e+00
  1.532409e+01    4.703177e+00
  1.533996e+01    4.232531e+00
  1.535584e+01    3.786159e+00
  1.537171e+01    3.388923e+00
  1.538759e+01    3.164193e+00
  1.540346e+01    2.977847e+00
  1.541934e+01    2.769394e+00
  1.543521e+01    2.563540e+00
  1.545109e+01    2.503578e+00
  1.546697e+01    2.434695e+00
  1.548284e+01    2.349647e+00
  1.549872e+01    2.292585e+00
  1.551459e+01    2.240281e+00
  1.553047e+01    2.209975e+00
  1.554634e+01    2.180343e+00
  1.556222e+01    2.170270e+00
  1.557809e+01    2.110030e+00
  1.559397e+01    2.067413e+00
  1.560985e+01    2.098032e+00
  1.562572e+01    2.074955e+00
  1.564160e+01    2.032484e+00
  1.565747e+01    2.040677e+00
  1.567335e+01    2.042169e+00
  1.568922e+01    2.022182e+00
  1.570510e+01    2.008632e+00
  1.572097e+01    1.986069e+00
  1.573685e+01    1.998186e+00
  1.575273e+01    2.014379e+00
  1.576860e+01    1.963264e+00
  1.578448e+01    1.953437e+00
  1.580035e+01    1.964503e+00
  1.581623e+01    1.928283e+00
  1.583210e+01    1.908643e+00
  1.584798e+01    1.941445e+00
  1.586385e+01    1.915502e+00
  1.587973e+01    1.922010e+00
  1.589561e+01    1.925373e+00
  1.591148e+01    1.894362e+00
  1.592736e+01    1.885263e+00
  1.594323e+01    1.900531e+00
  1.595911e+01    1.906203e+00
  1.597498e+01    1.899428e+00
  1.599086e+01    1.899878e+00
  1.600673e+01    1.886261e+00
  1.602261e+01    1.869569e+00
  1.603849e+01    1.893686e+00
  1.605436e+01    1.906749e+00
  1.607024e+01    1.883988e+00
  1.608611e+01    1.856171e+00
  1.610199e+01    1.827789e+00
  1.611786e+01    1.812624e+00
  1.613374e+01    1.812981e+00
  1.614961e+01    1.829021e+00
  1.616549e+01    1.845396e+00
  1.618137e+01    1.842116e+00
  1.619724e+01    1.837455e+00
  1.621312e+01    1.826975e+00
  1.622899e+01    1.810163e+00
  1.624487e+01    1.805234e+00
  1.626074e+01    1.781691e+00
  1.627662e+01    1.788803e+00
  1.629250e+01    1.802572e+00
  1.630837e+01    1.815559e+00
  1.632425e+01    1.786437e+00
  1.634012e+01    1.775194e+00
  1.635600e+01    1.786227e+00
  1.637187e+01    1.785088e+00
  1.638775e+01    1.784936e+00
  1.640362e+01    1.744995e+00
  1.641950e+01    1.815163e+00
  1.643538e+01    1.817168e+00
  1.645125e+01    1.777244e+00
  1.646713e+01    1.761171e+00
  1.648300e+01    1.768949e+00
  1.649888e+01    1.787500e+00
  1.651475e+01    1.801249e+00
  1.653063e+01    1.753188e+00
  1.654650e+01    1.743633e+00
  1.656238e+01    1.743752e+00
  1.657826e+01    1.747644e+00
  1.659413e+01    1.741268e+00
  1.661001e+01    1.747192e+00
  1.662588e+01    1.730371e+00
  1.664176e+01    1.727572e+00
  1.665763e+01    1.720173e+00
  1.667351e+01    1.745460e+00
  1.668938e+01    1.760965e+00
  1.670526e+01    1.739795e+00
  1.672114e+01    1.674904e+00
  1.673701e+01    1.728964e+00
  1.675289e+01    1.716882e+00
  1.676876e+01    1.692584e+00
  1.678464e+01    1.717874e+00
  1.680051e+01    1.678957e+00
  1.681639e+01    1.696880e+00
  1.683226e+01    1.678077e+00
  1.684814e+01    1.691900e+00
  1.686402e+01    1.678890e+00
  1.687989e+01    1.674001e+00
  1.689577e+01    1.705266e+00
  1.691164e+01    1.665609e+00
  1.692752e+01    1.692535e+00
  1.694339e+01    1.680332e+00
  1.695927e+01    1.668569e+00
  1.697514e+01    1.692697e+00
  1.699102e+01    1.710310e+00
  1.700690e+01    1.671309e+00
  1.702277e+01    1.666627e+00
  1.703865e+01    1.626542e+00
  1.705452e+01    1.643414e+00
  1.707040e+01    1.658560e+00
  1.708627e+01    1.664842e+00
  1.710215e+01    1.662889e+00
  1.711802e+01    1.671493e+00
  1.713390e+01    1.655038e+00
  1.714978e+01    1.647373e+00
  1.716565e+01    1.648066e+00
  1.718153e+01    1.643169e+00
  1.719740e+01    1.649452e+00
  1.721328e+01    1.681799e+00
  1.722915e+01    1.650783e+00
  1.724503e+01    1.628173e+00
  1.726091e+01    1.630235e+00
  1.727678e+01    1.632087e+00
  1.729266e+01    1.643649e+00
  1.730853e+01    1.651140e+00
  1.732441e+01    1.626412e+00
  1.734028e+01    1.619690e+00
  1.735616e+01    1.593762e+00
  1.737203e+01    1.581472e+00
  1.738791e+01    1.628021e+00
  1.740379e+01    1.573906e+00
  1.741966e+01    1.560445e+00
  1.743554e+01    1.580488e+00
  1.745141e+01    1.576451e+00
  1.746729e+01    1.587303e+00
  1.748316e+01    1.609570e+00
  1.749904e+01    1.614722e+00
  1.751491e+01    1.625853e+00
  1.753079e+01    1.595176e+00
  1.754667e+01    1.592222e+00
  1.756254e+01    1.600029e+00
  1.757842e+01    1.591980e+00
  1.759429e+01    1.562850e+00
  1.761017e+01    1.597347e+00
  1.762604e+01    1.566055e+00
  1.764192e+01    1.571915e+00
  1.765779e+01    1.581925e+00
  1.767367e+01    1.542860e+00
  1.768955e+01    1.527103e+00
  1.770542e+01    1.522846e+00
  1.772130e+01    1.533504e+00
  1.773717e+01    1.548450e+00
  1.775305e+01    1.559206e+00
  1.776892e+01    1.524370e+00
  1.778480e+01    1.498043e+00
  1.780067e+01    1.532560e+00
  1.781655e+01    1.545482e+00
  1.783243e+01    1.545029e+00
  1.784830e+01    1.509009e+00
  1.786418e+01    1.505336e+00
  1.788005e+01    1.519325e+00
  1.789593e+01    1.527476e+00
  1.791180e+01    1.521878e+00
  1.792768e+01    1.531888e+00
  1.794355e+01    1.539495e+00
  1.795943e+01    1.538055e+00
  1.797531e+01    1.516956e+00
  1.799118e+01    1.531076e+00
  1.800706e+01    1.521188e+00
  1.802293e+01    1.535120e+00
  1.803881e+01    1.514196e+00
  1.805468e+01    1.504631e+00
  1.807056e+01    1.519744e+00
  1.808643e+01    1.468073e+00
  1.810231e+01    1.473675e+00
  1.811819e+01    1.500861e+00
  1.813406e+01    1.510816e+00
  1.814994e+01    1.507044e+00
  1.816581e+01    1.485689e+00
  1.818169e+01    1.514354e+00
  1.819756e+01    1.517223e+00
  1.821344e+01    1.472507e+00
  1.822932e+01    1.481649e+00
  1.824519e+01    1.493460e+00
  1.826107e+01    1.513412e+00
  1.827694e+01    1.470130e+00
  1.829282e+01    1.442672e+00
  1.830869e+01    1.506502e+00
  1.832457e+01    1.471318e+00
  1.834044e+01    1.443647e+00
  1.835632e+01    1.459710e+00
  1.837220e+01    1.454145e+00
  1.838807e+01    1.460275e+00
  1.840395e+01    1.447097e+00
  1.841982e+01    1.427891e+00
  1.843570e+01    1.458224e+00
  1.845157e+01    1.457972e+00
  1.846745e+01    1.448895e+00
  1.848332e+01    1.455842e+00
  1.849920e+01    1.442304e+00
  1.851508e+01    1.437556e+00
  1.853095e+01    1.435212e+00
  1.854683e+01    1.457666e+00
  1.856270e+01    1.450233e+00
  1.857858e+01    1.433128e+00
  1.859445e+01    1.438214e+00
  1.861033e+01    1.426544e+00
  1.862620e+01    1.452513e+00
  1.864208e+01    1.459053e+00
  1.865796e+01    1.444755e+00
  1.867383e+01    1.434353e+00
  1.868971e+01    1.415757e+00
  1.870558e+01    1.401482e+00
  1.872146e+01    1.422792e+00
  1.873733e+01    1.407209e+00
  1.875321e+01    1.414428e+00
  1.876908e+01    1.417811e+00
  1.878496e+01    1.413747e+00
  1.880084e+01    1.401773e+00
  1.881671e+01    1.431591e+00
  1.883259e+01    1.397191e+00
  1.884846e+01    1.393358e+00
  1.886434e+01    1.394641e+00
  1.888021e+01    1.397854e+00
  1.889609e+01    1.394683e+00
  1.891196e+01    1.372860e+00
  1.892784e+01    1.391768e+00
  1.894372e+01    1.366786e+00
  1.895959e+01    1.385357e+00
  1.897547e+01    1.400288e+00
  1.899134e+01    1.409198e+00
  1.900722e+01    1.392057e+00
  1.902309e+01    1.389377e+00
  1.903897e+01    1.356302e+00
  1.905484e+01    1.370474e+00
  1.907072e+01    1.397476e+00
  1.908660e+01    1.372457e+00
  1.910247e+01    1.372743e+00
  1.911835e+01    1.365749e+00
  1.913422e+01    1.376268e+00
  1.915010e+01    1.393866e+00
  1.916597e+01    1.381151e+00
  1.918185e+01    1.390056e+00
  1.919773e+01    1.373175e+00
  1.921360e+01    1.360252e+00
  1.922948e+01    1.351755e+00
  1.924535e+01    1.362358e+00
  1.926123e+01    1.377671e+00
  1.927710e+01    1.347450e+00
  1.929298e+01    1.319189e+00
  1.930885e+01    1.345085e+00
  1.932473e+01    1.368152e+00
  1.934061e+01    1.348711e+00
  1.935648e+01    1.341882e+00
  1.937236e+01    1.344978e+00
  1.938823e+01    1.361078e+00
  1.940411e+01    1.343114e+00
  1.941998e+01    1.354629e+00
  1.943586e+01    1.349515e+00
  1.945173e+01    1.319468e+00
  1.946761e+01    1.336386e+00
  1.948349e+01    1.341732e+00
  1.949936e+01    1.333093e+00
  1.951524e+01    1.338631e+00
  1.953111e+01    1.327590e+00
  1.954699e+01    1.321074e+00
  1.956286e+01    1.331976e+00
  1.957874e+01    1.355489e+00
  1.959461e+01    1.369586e+00
  1.961049e+01    1.332591e+00
  1.962637e+01    1.311721e+00
  1.964224e+01    1.340810e+00
  1.965812e+01    1.347897e+00
  1.967399e+01    1.343550e+00
  1.968987e+01    1.350913e+00
  1.970574e+01    1.337449e+00
  1.972162e+01    1.314231e+00
  1.973749e+01    1.319377e+00
  1.975337e+01    1.309835e+00
  1.976925e+01    1.319503e+00
  1.978512e+01    1.318329e+00
  1.980100e+01    1.307731e+00
  1.981687e+01    1.295149e+00
  1.983275e+01    1.296758e+00
  1.984862e+01    1.290892e+00
  1.986450e+01    1.303524e+00
  1.988037e+01    1.292661e+00
  1.989625e+01    1.274653e+00
  1.991213e+01    1.291440e+00
  1.992800e+01    1.326926e+00
  1.994388e+01    1.295746e+00
  1.995975e+01    1.288903e+00
  1.997563e+01    1.291953e+00
  1.999150e+01    1.287049e+00
  2.000738e+01    1.288839e+00
  2.002325e+01    1.283210e+00
  2.003913e+01    1.294783e+00
  2.005501e+01    1.290770e+00
  2.007088e+01    1.294087e+00
  2.008676e+01    1.301872e+00
  2.010263e+01    1.270608e+00
  2.011851e+01    1.260983e+00
  2.013438e+01    1.260032e+00
  2.015026e+01    1.247187e+00
  2.016614e+01    1.257307e+00
  2.018201e+01    1.271612e+00
  2.019789e+01    1.280977e+00
  2.021376e+01    1.291538e+00
  2.022964e+01    1.294127e+00
  2.024551e+01    1.265254e+00
  2.026139e+01    1.285973e+00
  2.027726e+01    1.264582e+00
  2.029314e+01    1.245490e+00
  2.030902e+01    1.259802e+00
  2.032489e+01    1.258415e+00
  2.034077e+01    1.247296e+00
  2.035664e+01    1.240268e+00
  2.037252e+01    1.271376e+00
  2.038839e+01    1.262405e+00
  2.040427e+01    1.237165e+00
  2.042014e+01    1.229468e+00
  2.043602e+01    1.232793e+00
  2.045190e+01    1.236191e+00
  2.046777e+01    1.260672e+00
  2.048365e+01    1.245803e+00
  2.049952e+01    1.264129e+00
  2.051540e+01    1.227169e+00
  2.053127e+01    1.247408e+00
  2.054715e+01    1.239961e+00
  2.056302e+01    1.233165e+00
  2.057890e+01    1.239855e+00
  2.059478e+01    1.258295e+00
  2.061065e+01    1.232686e+00
  2.062653e+01    1.218117e+00
  2.064240e+01    1.220180e+00
  2.065828e+01    1.253145e+00
  2.067415e+01    1.244174e+00
  2.069003e+01    1.247164e+00
  2.070590e+01    1.244179e+00
  2.072178e+01    1.211242e+00
  2.073766e+01    1.219410e+00
  2.075353e+01    1.231271e+00
  2.076941e+01    1.228672e+00
  2.078528e+01    1.225917e+00
  2.080116e+01    1.221567e+00
  2.081703e+01    1.200878e+00
  2.083291e+01    1.206399e+00
  2.084878e+01    1.207381e+00
  2.086466e+01    1.214754e+00
  2.088054e+01    1.234759e+00
  2.089641e+01    1.231613e+00
  2.091229e+01    1.217880e+00
  2.092816e+01    1.219930e+00
  2.094404e+01    1.238909e+00
  2.095991e+01    1.260536e+00
  2.097579e+01    1.230507e+00
  2.099166e+01    1.202501e+00
  2.100754e+01    1.199029e+00
  2.102342e+01    1.188034e+00
  2.103929e+01    1.202393e+00
  2.105517e+01    1.202140e+00
  2.107104e+01    1.203679e+00
  2.108692e+01    1.214114e+00
  2.110279e+01    1.203669e+00
  2.111867e+01    1.222557e+00
  2.113455e+01    1.228948e+00
  2.115042e+01    1.244342e+00
  2.116630e+01    1.262885e+00
  2.118217e+01    1.249822e+00
  2.119805e+01    1.246686e+00
  2.121392e+01    1.238904e+00
  2.122980e+01    1.256303e+00
  2.124567e+01    1.259850e+00
  2.126155e+01    1.221315e+00
  2.127743e+01    1.259530e+00
  2.129330e+01    1.262498e+00
  2.130918e+01    1.258588e+00
  2.132505e+01    1.282392e+00
  2.134093e+01    1.311819e+00
  2.135680e+01    1.283720e+00
  2.137268e+01    1.287516e+00
  2.138855e+01    1.323708e+00
  2.140443e+01    1.342833e+00
  2.142031e+01    1.330488e+00
  2.143618e+01    1.346289e+00
  2.145206e+01    1.364394e+00
  2.146793e+01    1.405213e+00
  2.148381e+01    1.396595e+00
  2.149968e+01    1.407679e+00
  2.151556e+01    1.436686e+00
  2.153143e+01    1.470476e+00
  2.154731e+01    1.543632e+00
  2.156319e+01    1.546266e+00
  2.157906e+01    1.595780e+00
  2.159494e+01    1.701549e+00
  2.161081e+01    1.762792e+00
  2.162669e+01    1.849684e+00
  2.164256e+01    1.999714e+00
  2.165844e+01    2.117007e+00
  2.167431e+01    2.307366e+00
  2.169019e+01    2.505206e+00
  2.170607e+01    2.759039e+00
  2.172194e+01    3.087930e+00
  2.173782e+01    3.531283e+00
  2.175369e+01    3.981930e+00
  2.176957e+01    4.577375e+00
  2.178544e+01    5.209668e+00
  2.180132e+01    5.898149e+00
  2.181719e+01    6.515702e+00
  2.183307e+01    7.246030e+00
  2.184895e+01    7.845913e+00
  2.186482e+01    8.461991e+00
  2.188070e+01    8.825838e+00
  2.189657e+01    8.922649e+00
  2.191245e+01    8.772798e+00
  2.192832e+01    8.342027e+00
  2.194420e+01    7.550807e+00
  2.196007e+01    6.641126e+00
  2.197595e+01    5.700276e+00
  2.199183e+01    4.894159e+00
  2.200770e+01    4.202678e+00
  2.202358e+01    3.678836e+00
  2.203945e+01    3.204135e+00
  2.205533e+01    2.823859e+00
  2.207120e+01    2.551109e+00
  2.208708e+01    2.342138e+00
  2.210296e+01    2.193208e+00
  2.211883e+01    2.013747e+00
  2.213471e+01    1.859918e+00
  2.215058e+01    1.750458e+00
  2.216646e+01    1.689311e+00
  2.218233e+01    1.611312e+00
  2.219821e+01    1.528673e+00
  2.221408e+01    1.499439e+00
  2.222996e+01    1.462492e+00
  2.224584e+01    1.404256e+00
  2.226171e+01    1.374227e+00
  2.227759e+01    1.344584e+00
  2.229346e+01    1.301731e+00
  2.230934e+01    1.293920e+00
  2.232521e+01    1.290060e+00
  2.234109e+01    1.246385e+00
  2.235696e+01    1.242861e+00
  2.237284e+01    1.229667e+00
  2.238872e+01    1.230551e+00
  2.240459e+01    1.208425e+00
  2.242047e+01    1.190343e+00
  2.243634e+01    1.168272e+00
  2.245222e+01    1.163815e+00
  2.246809e+01    1.166845e+00
  2.248397e+01    1.165870e+00
  2.249984e+01    1.156721e+00
  2.251572e+01    1.141568e+00
  2.253160e+01    1.116354e+00
  2.254747e+01    1.121943e+00
  2.256335e+01    1.112587e+00
  2.257922e+01    1.115458e+00
  2.259510e+01    1.135001e+00
  2.261097e+01    1.114230e+00
  2.262685e+01    1.106289e+00
  2.264272e+01    1.122160e+00
  2.265860e+01    1.110381e+00
  2.267448e+01    1.071120e+00
  2.269035e+01    1.071152e+00
  2.270623e+01    1.082860e+00
  2.272210e+01    1.069788e+00
  2.273798e+01    1.049391e+00
  2.275385e+01    1.089327e+00
  2.276973e+01    1.092229e+00
  2.278560e+01    1.058608e+00
  2.280148e+01    1.064407e+00
  2.281736e+01    1.062966e+00
  2.283323e+01    1.057469e+00
  2.284911e+01    1.045354e+00
  2.286498e+01    1.047931e+00
  2.288086e+01    1.070050e+00
  2.289673e+01    1.055686e+00
  2.291261e+01    1.040244e+00
  2.292848e+01    1.032813e+00
  2.294436e+01    1.012993e+00
  2.296024e+01    1.027858e+00
  2.297611e+01    1.047323e+00
  2.299199e+01    1.034131e+00
  2.300786e+01    1.014455e+00
  2.302374e+01    1.017047e+00
  2.303961e+01    1.023916e+00
  2.305549e+01    1.014746e+00
  2.307137e+01    1.020772e+00
  2.308724e+01    9.949743e-01
  2.310312e+01    1.000381e+00
  2.311899e+01    9.926935e-01
  2.313487e+01    1.001366e+00
  2.315074e+01    1.013598e+00
  2.316662e+01    9.937295e-01
  2.318249e+01    1.004900e+00
  2.319837e+01    1.008581e+00
  2.321425e+01    1.012581e+00
  2.323012e+01    1.009170e+00
  2.324600e+01    9.897506e-01
  2.326187e+01    9.788785e-01
  2.327775e+01    9.870714e-01
  2.329362e+01    9.869741e-01
  2.330950e+01    9.785767e-01
  2.332537e+01    9.786332e-01
  2.334125e+01    9.707386e-01
  2.335713e+01    9.915277e-01
  2.337300e+01    9.924272e-01
  2.338888e+01    9.857394e-01
  2.340475e+01    9.797565e-01
  2.342063e+01    1.006866e+00
  2.343650e+01    9.956414e-01
  2.345238e+01    9.634559e-01
  2.346825e+01    9.429485e-01
  2.348413e+01    9.593920e-01
  2.350001e+01    9.729490e-01
  2.351588e+01    9.583697e-01
  2.353176e+01    9.624040e-01
  2.354763e+01    9.535347e-01
  2.356351e+01    9.744762e-01
  2.357938e+01    9.819260e-01
  2.359526e+01    9.660888e-01
  2.361113e+01    9.599763e-01
  2.362701e+01    9.836513e-01
  2.364289e+01    9.757242e-01
  2.365876e+01    9.400048e-01
  2.367464e+01    9.486111e-01
  2.369051e+01    9.540496e-01
  2.370639e+01    9.430820e-01
  2.372226e+01    9.478717e-01
  2.373814e+01    9.403688e-01
  2.375401e+01    9.411997e-01
  2.376989e+01    9.301600e-01
  2.378577e+01    9.461410e-01
  2.380164e+01    9.276447e-01
  2.381752e+01    9.024269e-01
  2.383339e+01    9.245661e-01
  2.384927e+01    9.222695e-01
  2.386514e+01    9.128529e-01
  2.388102e+01    9.080178e-01
  2.389689e+01    9.048864e-01
  2.391277e+01    9.083784e-01
  2.392865e+01    8.927072e-01
  2.394452e+01    9.021468e-01
  2.396040e+01    8.994631e-01
  2.397627e+01    8.887358e-01
  2.399215e+01    8.729892e-01
  2.400802e+01    8.940846e-01
  2.402390e+01    8.934081e-01
  2.403978e+01    8.846442e-01
  2.405565e+01    8.885986e-01
  2.407153e+01    8.956383e-01
  2.408740e+01    8.758972e-01
  2.410328e+01    8.731883e-01
  2.411915e+01    8.885955e-01
  2.413503e+01    9.021130e-01
  2.415090e+01    8.839900e-01
  2.416678e+01    8.771976e-01
  2.418266e+01    8.755296e-01
  2.419853e+01    8.512115e-01
  2.421441e+01    8.784440e-01
  2.423028e+01    8.647815e-01
  2.424616e+01    8.824074e-01
  2.426203e+01    8.778970e-01
  2.427791e+01    8.882151e-01
  2.429378e+01    8.876876e-01
  2.430966e+01    9.004783e-01
  2.432554e+01    8.954438e-01
  2.434141e+01    8.962686e-01
  2.435729e+01    8.830941e-01
  2.437316e+01    8.899925e-01
  2.438904e+01    9.006280e-01
  2.440491e+01    8.923808e-01
  2.442079e+01    8.986893e-01
  2.443666e+01    8.949636e-01
  2.445254e+01    8.761249e-01
  2.446842e+01    9.035668e-01
  2.448429e+01    9.061248e-01
  2.450017e+01    9.112323e-01
  2.451604e+01    8.972831e-01
  2.453192e+01    8.832305e-01
  2.454779e+01    8.750674e-01
  2.456367e+01    8.833555e-01
  2.457954e+01    8.804789e-01
  2.459542e+01    9.016489e-01
  2.461130e+01    9.286754e-01
  2.462717e+01    8.965524e-01
  2.464305e+01    8.979006e-01
  2.465892e+01    8.864209e-01
  2.467480e+01    8.860613e-01
  2.469067e+01    9.043925e-01
  2.470655e+01    9.004796e-01
  2.472242e+01    8.759728e-01
  2.473830e+01    8.930253e-01
  2.475418e+01    8.998179e-01
  2.477005e+01    8.975871e-01
  2.478593e+01    9.188844e-01
  2.480180e+01    9.000842e-01
  2.481768e+01    9.020973e-01
  2.483355e+01    8.905787e-01
  2.484943e+01    9.024365e-01
  2.486530e+01    9.135064e-01
  2.488118e+01    8.964656e-01
  2.489706e+01    9.098598e-01
  2.491293e+01    9.248454e-01
  2.492881e+01    8.938154e-01
  2.494468e+01    9.016587e-01
  2.496056e+01    9.163054e-01
  2.497643e+01    8.938655e-01
  2.499231e+01    9.073327e-01
  2.500819e+01    9.172258e-01
  2.502406e+01    8.923894e-01
  2.503994e+01    9.164753e-01
  2.505581e+01    9.083322e-01
  2.507169e+01    9.010323e-01
  2.508756e+01    9.146531e-01
  2.510344e+01    9.030588e-01
  2.511931e+01    9.106199e-01
  2.513519e+01    9.151964e-01
  2.515107e+01    9.268476e-01
  2.516694e+01    9.373931e-01
  2.518282e+01    9.286699e-01
  2.519869e+01    9.329392e-01
  2.521457e+01    9.330437e-01
  2.523044e+01    9.469056e-01
  2.524632e+01    9.448317e-01
  2.526219e+01    9.300145e-01
  2.527807e+01    9.335012e-01
  2.529395e+01    9.381092e-01
  2.530982e+01    9.762204e-01
  2.532570e+01    9.952506e-01
  2.534157e+01    9.662852e-01
  2.535745e+01    9.510235e-01
  2.537332e+01    9.814529e-01
  2.538920e+01    9.828243e-01
  2.540507e+01    9.698095e-01
  2.542095e+01    9.925203e-01
  2.543683e+01    1.026470e+00
  2.545270e+01    1.038129e+00
  2.546858e+01    1.025211e+00
  2.548445e+01    1.010329e+00
  2.550033e+01    1.049895e+00
  2.551620e+01    1.061254e+00
  2.553208e+01    1.099691e+00
  2.554795e+01    1.136471e+00
  2.556383e+01    1.152945e+00
  2.557971e+01    1.164017e+00
  2.559558e+01    1.166940e+00
  2.561146e+01    1.214057e+00
  2.562733e+01    1.255699e+00
  2.564321e+01    1.324147e+00
  2.565908e+01    1.373418e+00
  2.567496e+01    1.403422e+00
  2.569083e+01    1.476974e+00
  2.570671e+01    1.587833e+00
  2.572259e+01    1.704242e+00
  2.573846e+01    1.830394e+00
  2.575434e+01    2.039163e+00
  2.577021e+01    2.272841e+00
  2.578609e+01    2.527654e+00
  2.580196e+01    2.828359e+00
  2.581784e+01    3.163383e+00
  2.583371e+01    3.628168e+00
  2.584959e+01    4.155247e+00
  2.586547e+01    4.667092e+00
  2.588134e+01    5.262519e+00
  2.589722e+01    5.853473e+00
  2.591309e+01    6.365242e+00
  2.592897e+01    6.804782e+00
  2.594484e+01    7.108314e+00
  2.596072e+01    7.083385e+00
  2.597660e+01    6.944701e+00
  2.599247e+01    6.571666e+00
  2.600835e+01    5.977695e+00
  2.602422e+01    5.274519e+00
  2.604010e+01    4.678208e+00
  2.605597e+01    4.014387e+00
  2.607185e+01    3.461557e+00
  2.608772e+01    3.004137e+00
  2.610360e+01    2.639530e+00
  2.611948e+01    2.370396e+00
  2.613535e+01    2.112332e+00
  2.615123e+01    1.912693e+00
  2.616710e+01    1.793552e+00
  2.618298e+01    1.708436e+00
  2.619885e+01    1.590227e+00
  2.621473e+01    1.487172e+00
  2.623060e+01    1.421893e+00
  2.624648e+01    1.387373e+00
  2.626236e+01    1.293188e+00
  2.627823e+01    1.240365e+00
  2.629411e+01    1.191565e+00
  2.630998e+01    1.180277e+00
  2.632586e+01    1.160265e+00
  2.634173e+01    1.121209e+00
  2.635761e+01    1.133441e+00
  2.637348e+01    1.100174e+00
  2.638936e+01    1.092175e+00
  2.640524e+01    1.067093e+00
  2.642111e+01    1.029608e+00
  2.643699e+01    1.024641e+00
  2.645286e+01    1.047912e+00
  2.646874e+01    1.030054e+00
  2.648461e+01    1.008605e+00
  2.650049e+01    1.047853e+00
  2.651636e+01    1.010292e+00
  2.653224e+01    1.014500e+00
  2.654812e+01    1.000090e+00
  2.656399e+01    9.837686e-01
  2.657987e+01    9.795756e-01
  2.659574e+01    9.928609e-01
  2.661162e+01    9.872520e-01
  2.662749e+01    9.906339e-01
  2.664337e+01    9.838354e-01
  2.665924e+01    9.759832e-01
  2.667512e+01    9.808965e-01
  2.669100e+01    9.965901e-01
  2.670687e+01    9.859136e-01
  2.672275e+01    9.709297e-01
  2.673862e+01    9.669534e-01
  2.675450e+01    9.702342e-01
  2.677037e+01    9.796227e-01
  2.678625e+01    9.720532e-01
  2.680212e+01    9.772892e-01
  2.681800e+01    9.975887e-01
  2.683388e+01    9.923392e-01
  2.684975e+01    9.754684e-01
  2.686563e+01    9.736044e-01
  2.688150e+01    9.916914e-01
  2.689738e+01    1.004425e+00
  2.691325e+01    1.017679e+00
  2.692913e+01    1.039691e+00
  2.694501e+01    1.020757e+00
  2.696088e+01    1.052133e+00
  2.697676e+01    1.058238e+00
  2.699263e+01    1.094853e+00
  2.700851e+01    1.111504e+00
  2.702438e+01    1.154298e+00
  2.704026e+01    1.230592e+00
  2.705613e+01    1.249749e+00
  2.707201e+01    1.289395e+00
  2.708789e+01    1.409143e+00
  2.710376e+01    1.494128e+00
  2.711964e+01    1.602457e+00
  2.713551e+01    1.747737e+00
  2.715139e+01    1.864852e+00
  2.716726e+01    1.935871e+00
  2.718314e+01    2.036235e+00
  2.719901e+01    2.116044e+00
  2.721489e+01    2.175294e+00
  2.723077e+01    2.183712e+00
  2.724664e+01    2.069090e+00
  2.726252e+01    1.989399e+00
  2.727839e+01    1.867135e+00
  2.729427e+01    1.719429e+00
  2.731014e+01    1.584839e+00
  2.732602e+01    1.469654e+00
  2.734189e+01    1.362594e+00
  2.735777e+01    1.289849e+00
  2.737365e+01    1.233857e+00
  2.738952e+01    1.179647e+00
  2.740540e+01    1.116358e+00
  2.742127e+01    1.092212e+00
  2.743715e+01    1.091437e+00
  2.745302e+01    1.028126e+00
  2.746890e+01    1.010725e+00
  2.748477e+01    1.012884e+00
  2.750065e+01    1.012435e+00
  2.751653e+01    9.719936e-01
  2.753240e+01    9.513674e-01
  2.754828e+01    9.426801e-01
  2.756415e+01    9.259675e-01
  2.758003e+01    9.477583e-01
  2.759590e+01    9.432195e-01
  2.761178e+01    9.389092e-01
  2.762765e+01    9.369769e-01
  2.764353e+01    9.192406e-01
  2.765941e+01    9.053288e-01
  2.767528e+01    9.113500e-01
  2.769116e+01    9.196709e-01
  2.770703e+01    9.169007e-01
  2.772291e+01    8.857349e-01
  2.773878e+01    8.962704e-01
  2.775466e+01    8.934604e-01
  2.777054e+01    8.678755e-01
  2.778641e+01    9.028104e-01
  2.780229e+01    8.970192e-01
  2.781816e+01    8.669952e-01
  2.783404e+01    8.764184e-01
  2.784991e+01    8.720388e-01
  2.786579e+01    8.957675e-01
  2.788166e+01    8.793066e-01
  2.789754e+01    8.817022e-01
  2.791342e+01    8.912877e-01
  2.792929e+01    8.947177e-01
  2.794517e+01    8.677639e-01
  2.796104e+01    8.688316e-01
  2.797692e+01    8.679605e-01
  2.799279e+01    8.578240e-01
  2.800867e+01    8.670697e-01
  2.802454e+01    8.692588e-01
  2.804042e+01    8.492905e-01
  2.805630e+01    8.563884e-01
  2.807217e+01    8.574028e-01
  2.808805e+01    8.691835e-01
  2.810392e+01    8.725263e-01
  2.811980e+01    8.864694e-01
  2.813567e+01    8.658077e-01
  2.815155e+01    8.438908e-01
  2.816742e+01    8.391050e-01
  2.818330e+01    8.612169e-01
  2.819918e+01    8.604814e-01
  2.821505e+01    8.323296e-01
  2.823093e+01    8.375205e-01
  2.824680e+01    8.564475e-01
  2.826268e+01    8.536438e-01
  2.827855e+01    8.583598e-01
  2.829443e+01    8.597824e-01
  2.831030e+01    8.382873e-01
  2.832618e+01    8.421409e-01
  2.834206e+01    8.262962e-01
  2.835793e+01    8.441360e-01
  2.837381e+01    8.357940e-01
  2.838968e+01    8.521966e-01
  2.840556e+01    8.441619e-01
  2.842143e+01    8.350304e-01
  2.843731e+01    8.482940e-01
  2.845318e+01    8.472324e-01
  2.846906e+01    8.615736e-01
  2.848494e+01    8.410484e-01
  2.850081e+01    8.327935e-01
  2.851669e+01    8.609769e-01
  2.853256e+01    8.610609e-01
  2.854844e+01    8.344154e-01
  2.856431e+01    8.221344e-01
  2.858019e+01    8.549083e-01
  2.859606e+01    8.457015e-01
  2.861194e+01    8.280053e-01
  2.862782e+01    8.370224e-01
  2.864369e+01    8.404954e-01
  2.865957e+01    8.646913e-01
  2.867544e+01    8.636534e-01
  2.869132e+01    8.447962e-01
  2.870719e+01    8.257276e-01
  2.872307e+01    8.315459e-01
  2.873895e+01    8.179001e-01
  2.875482e+01    8.238173e-01
  2.877070e+01    8.357540e-01
  2.878657e+01    8.413316e-01
  2.880245e+01    8.364224e-01
  2.881832e+01    8.434258e-01
  2.883420e+01    8.531908e-01
  2.885007e+01    8.351054e-01
  2.886595e+01    8.148651e-01
  2.888183e+01    8.151473e-01
  2.889770e+01    8.037963e-01
  2.891358e+01    8.093487e-01
  2.892945e+01    8.117373e-01
  2.894533e+01    8.072355e-01
  2.896120e+01    8.089910e-01
  2.897708e+01    8.043837e-01
  2.899295e+01    8.249499e-01
  2.900883e+01    8.162833e-01
  2.902471e+01    8.064247e-01
  2.904058e+01    8.129684e-01
  2.905646e+01    8.044811e-01
  2.907233e+01    8.307481e-01
  2.908821e+01    8.216745e-01
  2.910408e+01    8.236303e-01
  2.911996e+01    8.128859e-01
  2.913583e+01    8.096120e-01
  2.915171e+01    8.094394e-01
  2.916759e+01    8.320827e-01
  2.918346e+01    8.109375e-01
  2.919934e+01    8.013653e-01
  2.921521e+01    7.870474e-01
  2.923109e+01    8.042569e-01
  2.924696e+01    8.171556e-01
  2.926284e+01    8.233918e-01
  2.927871e+01    8.440169e-01
  2.929459e+01    8.110180e-01
  2.931047e+01    7.931885e-01
  2.932634e+01    8.212499e-01
  2.934222e+01    8.303423e-01
  2.935809e+01    8.144201e-01
  2.937397e+01    8.211628e-01
  2.938984e+01    8.187177e-01
  2.940572e+01    8.025615e-01
  2.942159e+01    8.139005e-01
  2.943747e+01    8.183713e-01
  2.945335e+01    8.040841e-01
  2.946922e+01    8.180531e-01
  2.948510e+01    8.132588e-01
  2.950097e+01    8.197286e-01
  2.951685e+01    8.131305e-01
  2.953272e+01    8.043903e-01
  2.954860e+01    8.207642e-01
  2.956447e+01    7.855385e-01
  2.958035e+01    7.827061e-01
  2.959623e+01    7.942778e-01
  2.961210e+01    8.019201e-01
  2.962798e+01    7.888417e-01
  2.964385e+01    8.133629e-01
  2.965973e+01    8.041209e-01
  2.967560e+01    7.872562e-01
  2.969148e+01    7.922025e-01
  2.970736e+01    7.979771e-01
  2.972323e+01    7.917677e-01
  2.973911e+01    7.864578e-01
  2.975498e+01    7.772803e-01
  2.977086e+01    7.932895e-01
  2.978673e+01    7.854460e-01
  2.980261e+01    8.021132e-01
  2.981848e+01    7.880262e-01
  2.983436e+01    7.994096e-01
  2.985024e+01    7.833552e-01
  2.986611e+01    8.053350e-01
  2.988199e+01    7.798814e-01
  2.989786e+01    7.959183e-01
  2.991374e+01    8.083547e-01
  2.992961e+01    8.046772e-01
  2.994549e+01    7.779970e-01
  2.996136e+01    7.861279e-01
  2.997724e+01    7.833771e-01
  2.999312e+01    8.031844e-01
  3.000899e+01    8.059747e-01
  3.002487e+01    8.163205e-01
  3.004074e+01    8.017991e-01
  3.005662e+01    7.943284e-01
  3.007249e+01    8.132094e-01
  3.008837e+01    8.192285e-01
  3.010424e+01    8.102325e-01
  3.012012e+01    7.826336e-01
  3.013600e+01    7.907701e-01
  3.015187e+01    8.056923e-01
  3.016775e+01    7.806807e-01
  3.018362e+01    7.740124e-01
  3.019950e+01    7.686549e-01
  3.021537e+01    7.876152e-01
  3.023125e+01    7.885063e-01
  3.024712e+01    7.859857e-01
  3.026300e+01    8.079255e-01
  3.027888e+01    8.057901e-01
  3.029475e+01    7.896956e-01
  3.031063e+01    7.981126e-01
  3.032650e+01    7.936467e-01
  3.034238e+01    7.977400e-01
  3.035825e+01    7.991475e-01
  3.037413e+01    7.832414e-01
  3.039000e+01    7.996380e-01
  3.040588e+01    7.856873e-01
  3.042176e+01    7.801291e-01
  3.043763e+01    7.732720e-01
  3.045351e+01    7.938573e-01
  3.046938e+01    7.904573e-01
  3.048526e+01    7.777198e-01
  3.050113e+01    7.841270e-01
  3.051701e+01    8.046340e-01
  3.053288e+01    7.949307e-01
  3.054876e+01    7.991775e-01
  3.056464e+01    7.937691e-01
  3.058051e+01    7.823945e-01
  3.059639e+01    7.743928e-01
  3.061226e+01    7.833101e-01
  3.062814e+01    8.030100e-01
  3.064401e+01    7.934768e-01
  3.065989e+01    7.782471e-01
  3.067577e+01    7.931868e-01
  3.069164e+01    7.852533e-01
  3.070752e+01    7.898314e-01
  3.072339e+01    7.733284e-01
  3.073927e+01    7.834120e-01
  3.075514e+01    7.747431e-01
  3.077102e+01    7.662936e-01
  3.078689e+01    7.809539e-01
  3.080277e+01    7.928275e-01
  3.081865e+01    7.960461e-01
  3.083452e+01    7.874812e-01
  3.085040e+01    7.791616e-01
  3.086627e+01    7.829573e-01
  3.088215e+01    7.719907e-01
  3.089802e+01    7.913833e-01
  3.091390e+01    8.239841e-01
  3.092977e+01    7.987058e-01
  3.094565e+01    7.923806e-01
  3.096153e+01    7.980795e-01
  3.097740e+01    7.999159e-01
  3.099328e+01    7.862169e-01
  3.100915e+01    7.891402e-01
  3.102503e+01    7.973390e-01
  3.104090e+01    7.932810e-01
  3.105678e+01    7.686961e-01
  3.107265e+01    8.039824e-01
  3.108853e+01    8.261121e-01
  3.110441e+01    8.202867e-01
  3.112028e+01    7.862825e-01
  3.113616e+01    7.674819e-01
  3.115203e+01    7.839859e-01
  3.116791e+01    7.891037e-01
  3.118378e+01    7.698228e-01
  3.119966e+01    7.977771e-01
  3.121553e+01    7.984923e-01
  3.123141e+01    7.736899e-01
  3.124729e+01    7.937289e-01
  3.126316e+01    7.925123e-01
  3.127904e+01    8.025030e-01
  3.129491e+01    8.010231e-01
  3.131079e+01    8.170036e-01
  3.132666e+01    8.053436e-01
  3.134254e+01    8.058813e-01
  3.135841e+01    8.092158e-01
  3.137429e+01    8.251460e-01
  3.139017e+01    8.229843e-01
  3.140604e+01    8.052474e-01
  3.142192e+01    8.126815e-01
  3.143779e+01    8.133922e-01
  3.145367e+01    8.134882e-01
  3.146954e+01    8.116704e-01
  3.148542e+01    8.405145e-01
  3.150129e+01    8.363538e-01
  3.151717e+01    8.491606e-01
  3.153305e+01    8.607684e-01
  3.154892e+01    8.615782e-01
  3.156480e+01    8.554476e-01
  3.158067e+01    8.543518e-01
  3.159655e+01    8.554942e-01
  3.161242e+01    8.911496e-01
  3.162830e+01    8.823018e-01
  3.164418e+01    9.398320e-01
  3.166005e+01    9.595497e-01
  3.167593e+01    9.654070e-01
  3.169180e+01    9.940128e-01
  3.170768e+01    1.025663e+00
  3.172355e+01    1.077514e+00
  3.173943e+01    1.138768e+00
  3.175530e+01    1.204740e+00
  3.177118e+01    1.243208e+00
  3.178706e+01    1.343797e+00
  3.180293e+01    1.443443e+00
  3.181881e+01    1.609136e+00
  3.183468e+01    1.754219e+00
  3.185056e+01    1.848495e+00
  3.186643e+01    1.985896e+00
  3.188231e+01    2.045069e+00
  3.189818e+01    2.095975e+00
  3.191406e+01    2.084259e+00
  3.192994e+01    2.002383e+00
  3.194581e+01    1.902322e+00
  3.196169e+01    1.826540e+00
  3.197756e+01    1.694496e+00
  3.199344e+01    1.570073e+00
  3.200931e+01    1.418694e+00
  3.202519e+01    1.326698e+00
  3.204106e+01    1.238830e+00
  3.205694e+01    1.168780e+00
  3.207282e+01    1.079257e+00
  3.208869e+01    1.026008e+00
  3.210457e+01    9.897544e-01
  3.212044e+01    9.753303e-01
  3.213632e+01    9.481776e-01
  3.215219e+01    9.433784e-01
  3.216807e+01    9.320534e-01
  3.218394e+01    8.898553e-01
  3.219982e+01    8.752828e-01
  3.221570e+01    8.622097e-01
  3.223157e+01    8.515810e-01
  3.224745e+01    8.241811e-01
  3.226332e+01    8.627946e-01
  3.227920e+01    8.420110e-01
  3.229507e+01    8.051180e-01
  3.231095e+01    8.047553e-01
  3.232682e+01    8.144913e-01
  3.234270e+01    8.078671e-01
  3.235858e+01    7.954097e-01
  3.237445e+01    7.828450e-01
  3.239033e+01    7.906978e-01
  3.240620e+01    7.889411e-01
  3.242208e+01    7.872208e-01
  3.243795e+01    7.925174e-01
  3.245383e+01    7.796697e-01
  3.246970e+01    7.911546e-01
  3.248558e+01    7.822785e-01
  3.250146e+01    7.676543e-01
  3.251733e+01    7.692330e-01
  3.253321e+01    7.828103e-01
  3.254908e+01    7.838065e-01
