# == pyFAI calibration ==
# Distance Sample to Detector: 0.3999999939076516 m
# PONI: 9.750e-02, 1.135e-01 m
# Rotations: -0.000175 0.000000 -0.000000 rad
# 
# == Fit2d calibration ==
# Distance Sample-beamCenter: 400.000 mm
# Center: x=1514.000, y=1300.000 pix
# Tilt: 0.010 deg  TiltPlanRot: 0.010 deg
# 
# Detector Detector	 Spline= None	 PixelSize= 7.500e-05, 7.500e-05 m
#    Detector has a mask: False 
#    Detector has a dark current: False 
#    detector has a flat field: False 
# 
# Wavelength: 6.888e-11 m
# Mask applied: user provided
# Dark current applied: False
# Flat field applied: False
# Polarization factor: 0.99
# Normalization factor: 1.0
# --> /home/myspot/data/2024_07_Rosario/Ru-CGO-ex/2024-07-27_003_Ru-CGO-ex_Reaction_dwell_000023_data_000134.dat
#       q_nm^-1             I 
  2.003187e-02    0.000000e+00
  3.590745e-02    0.000000e+00
  5.178302e-02    2.670345e-02
  6.765859e-02    2.364827e-01
  8.353417e-02    3.042189e-01
  9.940974e-02    1.134434e-01
  1.152853e-01    1.652648e-01
  1.311609e-01    1.070451e-01
  1.470365e-01    3.849707e-02
  1.629120e-01    9.533481e-03
  1.787876e-01    2.896995e-02
  1.946632e-01    5.674735e-02
  2.105388e-01    1.128333e-01
  2.264143e-01    7.922112e-02
  2.422899e-01    1.987016e-02
  2.581655e-01    1.565116e-02
  2.740411e-01    6.078158e-02
  2.899166e-01    2.778849e-02
  3.057922e-01    2.761095e-02
  3.216678e-01    3.806145e-02
  3.375433e-01    1.085509e-02
  3.534189e-01    4.286507e-02
  3.692945e-01    3.790498e-02
  3.851701e-01    2.842403e-02
  4.010456e-01    4.041916e-02
  4.169212e-01    3.319822e-02
  4.327968e-01    2.848386e-02
  4.486724e-01    2.580022e-02
  4.645479e-01    3.593591e-02
  4.804235e-01    7.951814e-02
  4.962991e-01    6.747660e-02
  5.121747e-01    3.899134e-02
  5.280502e-01    5.379041e-02
  5.439258e-01    4.852479e-02
  5.598014e-01    5.636020e-02
  5.756770e-01    6.943492e-02
  5.915525e-01    4.155394e-02
  6.074281e-01    4.434524e-02
  6.233037e-01    4.607523e-02
  6.391793e-01    4.942305e-02
  6.550548e-01    5.721840e-02
  6.709304e-01    6.097523e-02
  6.868060e-01    4.418700e-02
  7.026815e-01    2.502265e-02
  7.185571e-01    4.286997e-02
  7.344327e-01    3.145884e-02
  7.503083e-01    3.443840e-02
  7.661838e-01    6.233880e-02
  7.820594e-01    1.389286e-01
  7.979350e-01    1.951453e-01
  8.138106e-01    2.668343e-01
  8.296861e-01    3.618530e-01
  8.455617e-01    3.833906e-01
  8.614373e-01    3.796592e-01
  8.773129e-01    4.691572e-01
  8.931884e-01    5.597796e-01
  9.090640e-01    6.040126e-01
  9.249396e-01    7.296448e-01
  9.408152e-01    9.044634e-01
  9.566907e-01    9.305452e-01
  9.725663e-01    1.023609e+00
  9.884419e-01    1.113252e+00
  1.004317e+00    1.194227e+00
  1.020193e+00    1.322408e+00
  1.036069e+00    1.336211e+00
  1.051944e+00    1.380477e+00
  1.067820e+00    1.509196e+00
  1.083695e+00    1.516912e+00
  1.099571e+00    1.543078e+00
  1.115446e+00    1.530204e+00
  1.131322e+00    1.559244e+00
  1.147198e+00    1.638782e+00
  1.163073e+00    1.768848e+00
  1.178949e+00    1.786499e+00
  1.194824e+00    1.900054e+00
  1.210700e+00    1.936500e+00
  1.226575e+00    2.074981e+00
  1.242451e+00    2.216925e+00
  1.258327e+00    2.404941e+00
  1.274202e+00    2.510227e+00
  1.290078e+00    2.604124e+00
  1.305953e+00    2.695841e+00
  1.321829e+00    2.657669e+00
  1.337705e+00    2.719668e+00
  1.353580e+00    2.905854e+00
  1.369456e+00    2.793661e+00
  1.385331e+00    2.767705e+00
  1.401207e+00    2.800311e+00
  1.417082e+00    2.935280e+00
  1.432958e+00    2.928294e+00
  1.448834e+00    2.935015e+00
  1.464709e+00    3.017133e+00
  1.480585e+00    3.203260e+00
  1.496460e+00    3.233516e+00
  1.512336e+00    3.095639e+00
  1.528211e+00    3.110721e+00
  1.544087e+00    3.193913e+00
  1.559963e+00    3.117113e+00
  1.575838e+00    3.282495e+00
  1.591714e+00    3.151399e+00
  1.607589e+00    3.171632e+00
  1.623465e+00    3.036888e+00
  1.639340e+00    3.010949e+00
  1.655216e+00    3.100163e+00
  1.671092e+00    3.147881e+00
  1.686967e+00    2.976092e+00
  1.702843e+00    3.061329e+00
  1.718718e+00    3.103626e+00
  1.734594e+00    3.091040e+00
  1.750469e+00    3.127351e+00
  1.766345e+00    3.074976e+00
  1.782221e+00    2.967828e+00
  1.798096e+00    2.990138e+00
  1.813972e+00    2.984642e+00
  1.829847e+00    3.077966e+00
  1.845723e+00    3.141534e+00
  1.861598e+00    3.180660e+00
  1.877474e+00    3.097488e+00
  1.893350e+00    3.030766e+00
  1.909225e+00    3.092944e+00
  1.925101e+00    2.999044e+00
  1.940976e+00    3.077123e+00
  1.956852e+00    3.115628e+00
  1.972727e+00    3.064299e+00
  1.988603e+00    3.017265e+00
  2.004479e+00    2.987644e+00
  2.020354e+00    3.061013e+00
  2.036230e+00    2.976735e+00
  2.052105e+00    3.016284e+00
  2.067981e+00    3.075804e+00
  2.083856e+00    3.136244e+00
  2.099732e+00    3.029405e+00
  2.115608e+00    2.995045e+00
  2.131483e+00    3.019803e+00
  2.147359e+00    3.160088e+00
  2.163234e+00    3.166183e+00
  2.179110e+00    3.214678e+00
  2.194985e+00    3.174756e+00
  2.210861e+00    3.167145e+00
  2.226737e+00    3.146754e+00
  2.242612e+00    3.144403e+00
  2.258488e+00    3.100870e+00
  2.274363e+00    3.067190e+00
  2.290239e+00    3.174999e+00
  2.306115e+00    3.232587e+00
  2.321990e+00    3.255804e+00
  2.337866e+00    3.267962e+00
  2.353741e+00    3.203928e+00
  2.369617e+00    3.225241e+00
  2.385492e+00    3.166729e+00
  2.401368e+00    3.130691e+00
  2.417244e+00    3.111282e+00
  2.433119e+00    3.132847e+00
  2.448995e+00    3.159070e+00
  2.464870e+00    3.164942e+00
  2.480746e+00    3.162503e+00
  2.496621e+00    3.215404e+00
  2.512497e+00    3.182847e+00
  2.528373e+00    3.223532e+00
  2.544248e+00    3.246538e+00
  2.560124e+00    3.255913e+00
  2.575999e+00    3.148124e+00
  2.591875e+00    3.140866e+00
  2.607750e+00    3.215498e+00
  2.623626e+00    3.241359e+00
  2.639502e+00    3.271878e+00
  2.655377e+00    3.311101e+00
  2.671253e+00    3.221565e+00
  2.687128e+00    3.238113e+00
  2.703004e+00    3.236885e+00
  2.718879e+00    3.212862e+00
  2.734755e+00    3.307680e+00
  2.750631e+00    3.323912e+00
  2.766506e+00    3.286651e+00
  2.782382e+00    3.255480e+00
  2.798257e+00    3.259392e+00
  2.814133e+00    3.076687e+00
  2.830008e+00    3.205882e+00
  2.845884e+00    3.274383e+00
  2.861760e+00    3.231251e+00
  2.877635e+00    3.253702e+00
  2.893511e+00    3.357528e+00
  2.909386e+00    3.375806e+00
  2.925262e+00    3.344943e+00
  2.941137e+00    3.286481e+00
  2.957013e+00    3.338939e+00
  2.972889e+00    3.285276e+00
  2.988764e+00    3.346430e+00
  3.004640e+00    3.257984e+00
  3.020515e+00    3.309725e+00
  3.036391e+00    3.324402e+00
  3.052266e+00    3.388178e+00
  3.068142e+00    3.315877e+00
  3.084018e+00    3.337969e+00
  3.099893e+00    3.451150e+00
  3.115769e+00    3.366416e+00
  3.131644e+00    3.393154e+00
  3.147520e+00    3.462074e+00
  3.163395e+00    3.448864e+00
  3.179271e+00    3.370488e+00
  3.195147e+00    3.291097e+00
  3.211022e+00    3.223861e+00
  3.226898e+00    3.386339e+00
  3.242773e+00    3.339653e+00
  3.258649e+00    3.391309e+00
  3.274525e+00    3.382011e+00
  3.290400e+00    3.323800e+00
  3.306276e+00    3.416372e+00
  3.322151e+00    3.483118e+00
  3.338027e+00    3.526170e+00
  3.353902e+00    3.469957e+00
  3.369778e+00    3.455536e+00
  3.385654e+00    3.347144e+00
  3.401529e+00    3.393162e+00
  3.417405e+00    3.411976e+00
  3.433280e+00    3.456288e+00
  3.449156e+00    3.508320e+00
  3.465031e+00    3.453169e+00
  3.480907e+00    3.382535e+00
  3.496783e+00    3.385567e+00
  3.512658e+00    3.472005e+00
  3.528534e+00    3.511853e+00
  3.544409e+00    3.522686e+00
  3.560285e+00    3.532805e+00
  3.576160e+00    3.403171e+00
  3.592036e+00    3.468703e+00
  3.607912e+00    3.575088e+00
  3.623787e+00    3.558799e+00
  3.639663e+00    3.510658e+00
  3.655538e+00    3.526454e+00
  3.671414e+00    3.603288e+00
  3.687289e+00    3.595418e+00
  3.703165e+00    3.530169e+00
  3.719041e+00    3.474497e+00
  3.734916e+00    3.427583e+00
  3.750792e+00    3.401703e+00
  3.766667e+00    3.491675e+00
  3.782543e+00    3.557746e+00
  3.798418e+00    3.560596e+00
  3.814294e+00    3.575255e+00
  3.830170e+00    3.585418e+00
  3.846045e+00    3.533961e+00
  3.861921e+00    3.487799e+00
  3.877796e+00    3.428867e+00
  3.893672e+00    3.493211e+00
  3.909547e+00    3.477453e+00
  3.925423e+00    3.503912e+00
  3.941299e+00    3.525702e+00
  3.957174e+00    3.544936e+00
  3.973050e+00    3.599938e+00
  3.988925e+00    3.603986e+00
  4.004801e+00    3.590321e+00
  4.020676e+00    3.580802e+00
  4.036552e+00    3.504454e+00
  4.052428e+00    3.503809e+00
  4.068303e+00    3.493798e+00
  4.084179e+00    3.460938e+00
  4.100054e+00    3.509298e+00
  4.115930e+00    3.603601e+00
  4.131806e+00    3.548881e+00
  4.147681e+00    3.606673e+00
  4.163557e+00    3.545474e+00
  4.179432e+00    3.586604e+00
  4.195308e+00    3.582793e+00
  4.211183e+00    3.548454e+00
  4.227059e+00    3.647899e+00
  4.242935e+00    3.586756e+00
  4.258810e+00    3.545348e+00
  4.274686e+00    3.592012e+00
  4.290561e+00    3.635892e+00
  4.306437e+00    3.605210e+00
  4.322312e+00    3.576618e+00
  4.338188e+00    3.638557e+00
  4.354064e+00    3.637568e+00
  4.369939e+00    3.500247e+00
  4.385815e+00    3.553981e+00
  4.401690e+00    3.555954e+00
  4.417566e+00    3.577503e+00
  4.433441e+00    3.660533e+00
  4.449317e+00    3.705211e+00
  4.465193e+00    3.662335e+00
  4.481068e+00    3.589242e+00
  4.496944e+00    3.560036e+00
  4.512819e+00    3.551681e+00
  4.528695e+00    3.656030e+00
  4.544570e+00    3.560709e+00
  4.560446e+00    3.635288e+00
  4.576322e+00    3.632799e+00
  4.592197e+00    3.572977e+00
  4.608073e+00    3.705359e+00
  4.623948e+00    3.749408e+00
  4.639824e+00    3.575721e+00
  4.655699e+00    3.492601e+00
  4.671575e+00    3.544905e+00
  4.687451e+00    3.603354e+00
  4.703326e+00    3.662226e+00
  4.719202e+00    3.616008e+00
  4.735077e+00    3.569964e+00
  4.750953e+00    3.551528e+00
  4.766828e+00    3.565757e+00
  4.782704e+00    3.551484e+00
  4.798580e+00    3.576855e+00
  4.814455e+00    3.606232e+00
  4.830331e+00    3.621949e+00
  4.846206e+00    3.610872e+00
  4.862082e+00    3.600274e+00
  4.877957e+00    3.678380e+00
  4.893833e+00    3.744625e+00
  4.909709e+00    3.731506e+00
  4.925584e+00    3.663820e+00
  4.941460e+00    3.681461e+00
  4.957335e+00    3.753406e+00
  4.973211e+00    3.657137e+00
  4.989086e+00    3.589908e+00
  5.004962e+00    3.584703e+00
  5.020838e+00    3.632482e+00
  5.036713e+00    3.667574e+00
  5.052589e+00    3.648152e+00
  5.068464e+00    3.588526e+00
  5.084340e+00    3.636194e+00
  5.100216e+00    3.648896e+00
  5.116091e+00    3.674292e+00
  5.131967e+00    3.733968e+00
  5.147842e+00    3.747225e+00
  5.163718e+00    3.724625e+00
  5.179593e+00    3.649031e+00
  5.195469e+00    3.643366e+00
  5.211345e+00    3.652854e+00
  5.227220e+00    3.671271e+00
  5.243096e+00    3.656016e+00
  5.258971e+00    3.677439e+00
  5.274847e+00    3.650438e+00
  5.290722e+00    3.697720e+00
  5.306598e+00    3.704549e+00
  5.322474e+00    3.659017e+00
  5.338349e+00    3.675700e+00
  5.354225e+00    3.648088e+00
  5.370100e+00    3.652057e+00
  5.385976e+00    3.677837e+00
  5.401851e+00    3.655707e+00
  5.417727e+00    3.623600e+00
  5.433603e+00    3.607586e+00
  5.449478e+00    3.592611e+00
  5.465354e+00    3.617523e+00
  5.481229e+00    3.558928e+00
  5.497105e+00    3.668422e+00
  5.512980e+00    3.676801e+00
  5.528856e+00    3.562678e+00
  5.544732e+00    3.613005e+00
  5.560607e+00    3.588420e+00
  5.576483e+00    3.585743e+00
  5.592358e+00    3.610934e+00
  5.608234e+00    3.652926e+00
  5.624109e+00    3.702509e+00
  5.639985e+00    3.594187e+00
  5.655861e+00    3.586751e+00
  5.671736e+00    3.551313e+00
  5.687612e+00    3.529111e+00
  5.703487e+00    3.536217e+00
  5.719363e+00    3.574123e+00
  5.735238e+00    3.593823e+00
  5.751114e+00    3.631536e+00
  5.766990e+00    3.590519e+00
  5.782865e+00    3.629874e+00
  5.798741e+00    3.658377e+00
  5.814616e+00    3.585829e+00
  5.830492e+00    3.561282e+00
  5.846367e+00    3.579797e+00
  5.862243e+00    3.579185e+00
  5.878119e+00    3.601248e+00
  5.893994e+00    3.580383e+00
  5.909870e+00    3.555405e+00
  5.925745e+00    3.503053e+00
  5.941621e+00    3.503719e+00
  5.957497e+00    3.536510e+00
  5.973372e+00    3.503069e+00
  5.989248e+00    3.557696e+00
  6.005123e+00    3.526406e+00
  6.020999e+00    3.508652e+00
  6.036874e+00    3.482880e+00
  6.052750e+00    3.529866e+00
  6.068626e+00    3.662065e+00
  6.084501e+00    3.600605e+00
  6.100377e+00    3.604571e+00
  6.116252e+00    3.590257e+00
  6.132128e+00    3.600387e+00
  6.148003e+00    3.621688e+00
  6.163879e+00    3.585734e+00
  6.179755e+00    3.611374e+00
  6.195630e+00    3.544250e+00
  6.211506e+00    3.559030e+00
  6.227381e+00    3.621793e+00
  6.243257e+00    3.636206e+00
  6.259132e+00    3.587603e+00
  6.275008e+00    3.517522e+00
  6.290884e+00    3.529752e+00
  6.306759e+00    3.544391e+00
  6.322635e+00    3.536645e+00
  6.338510e+00    3.555468e+00
  6.354386e+00    3.479380e+00
  6.370261e+00    3.559973e+00
  6.386137e+00    3.611282e+00
  6.402013e+00    3.590798e+00
  6.417888e+00    3.577682e+00
  6.433764e+00    3.534131e+00
  6.449639e+00    3.569179e+00
  6.465515e+00    3.625113e+00
  6.481390e+00    3.542219e+00
  6.497266e+00    3.522692e+00
  6.513142e+00    3.538876e+00
  6.529017e+00    3.532004e+00
  6.544893e+00    3.551404e+00
  6.560768e+00    3.534207e+00
  6.576644e+00    3.480783e+00
  6.592519e+00    3.482086e+00
  6.608395e+00    3.494092e+00
  6.624271e+00    3.567306e+00
  6.640146e+00    3.584894e+00
  6.656022e+00    3.482943e+00
  6.671897e+00    3.555228e+00
  6.687773e+00    3.388139e+00
  6.703648e+00    3.432549e+00
  6.719524e+00    3.564144e+00
  6.735400e+00    3.557754e+00
  6.751275e+00    3.557566e+00
  6.767151e+00    3.567450e+00
  6.783026e+00    3.582194e+00
  6.798902e+00    3.500730e+00
  6.814777e+00    3.527132e+00
  6.830653e+00    3.509962e+00
  6.846529e+00    3.433565e+00
  6.862404e+00    3.488074e+00
  6.878280e+00    3.556237e+00
  6.894155e+00    3.601759e+00
  6.910031e+00    3.614520e+00
  6.925907e+00    3.539283e+00
  6.941782e+00    3.554382e+00
  6.957658e+00    3.568097e+00
  6.973533e+00    3.558592e+00
  6.989409e+00    3.586522e+00
  7.005284e+00    3.582052e+00
  7.021160e+00    3.590660e+00
  7.037036e+00    3.501202e+00
  7.052911e+00    3.548180e+00
  7.068787e+00    3.515534e+00
  7.084662e+00    3.458123e+00
  7.100538e+00    3.499079e+00
  7.116413e+00    3.501410e+00
  7.132289e+00    3.511752e+00
  7.148165e+00    3.501910e+00
  7.164040e+00    3.490412e+00
  7.179916e+00    3.487707e+00
  7.195791e+00    3.531670e+00
  7.211667e+00    3.520313e+00
  7.227542e+00    3.467151e+00
  7.243418e+00    3.488378e+00
  7.259294e+00    3.446473e+00
  7.275169e+00    3.537180e+00
  7.291045e+00    3.563622e+00
  7.306920e+00    3.534353e+00
  7.322796e+00    3.519615e+00
  7.338671e+00    3.510293e+00
  7.354547e+00    3.511510e+00
  7.370423e+00    3.633802e+00
  7.386298e+00    3.551353e+00
  7.402174e+00    3.519734e+00
  7.418049e+00    3.479386e+00
  7.433925e+00    3.523449e+00
  7.449800e+00    3.505688e+00
  7.465676e+00    3.468898e+00
  7.481552e+00    3.479164e+00
  7.497427e+00    3.504762e+00
  7.513303e+00    3.566294e+00
  7.529178e+00    3.570788e+00
  7.545054e+00    3.524900e+00
  7.560929e+00    3.563447e+00
  7.576805e+00    3.531155e+00
  7.592681e+00    3.455999e+00
  7.608556e+00    3.449266e+00
  7.624432e+00    3.469090e+00
  7.640307e+00    3.432896e+00
  7.656183e+00    3.392937e+00
  7.672058e+00    3.396935e+00
  7.687934e+00    3.419877e+00
  7.703810e+00    3.480806e+00
  7.719685e+00    3.521474e+00
  7.735561e+00    3.452426e+00
  7.751436e+00    3.447042e+00
  7.767312e+00    3.416000e+00
  7.783187e+00    3.422719e+00
  7.799063e+00    3.415394e+00
  7.814939e+00    3.381464e+00
  7.830814e+00    3.438001e+00
  7.846690e+00    3.471909e+00
  7.862565e+00    3.401257e+00
  7.878441e+00    3.351747e+00
  7.894317e+00    3.374214e+00
  7.910192e+00    3.424345e+00
  7.926068e+00    3.439564e+00
  7.941943e+00    3.412293e+00
  7.957819e+00    3.363969e+00
  7.973694e+00    3.341422e+00
  7.989570e+00    3.398711e+00
  8.005446e+00    3.376617e+00
  8.021321e+00    3.374619e+00
  8.037197e+00    3.468112e+00
  8.053072e+00    3.391206e+00
  8.068948e+00    3.425179e+00
  8.084823e+00    3.479759e+00
  8.100699e+00    3.473929e+00
  8.116575e+00    3.425578e+00
  8.132450e+00    3.464208e+00
  8.148326e+00    3.498759e+00
  8.164201e+00    3.527807e+00
  8.180077e+00    3.470071e+00
  8.195952e+00    3.456141e+00
  8.211828e+00    3.409898e+00
  8.227704e+00    3.406715e+00
  8.243579e+00    3.398841e+00
  8.259455e+00    3.470057e+00
  8.275330e+00    3.387111e+00
  8.291206e+00    3.365304e+00
  8.307081e+00    3.399323e+00
  8.322957e+00    3.409442e+00
  8.338833e+00    3.402752e+00
  8.354708e+00    3.333709e+00
  8.370584e+00    3.375950e+00
  8.386459e+00    3.356028e+00
  8.402335e+00    3.360579e+00
  8.418210e+00    3.339431e+00
  8.434086e+00    3.420779e+00
  8.449962e+00    3.397480e+00
  8.465837e+00    3.385467e+00
  8.481713e+00    3.422048e+00
  8.497588e+00    3.416186e+00
  8.513464e+00    3.429549e+00
  8.529339e+00    3.424324e+00
  8.545215e+00    3.353784e+00
  8.561091e+00    3.327836e+00
  8.576966e+00    3.348879e+00
  8.592842e+00    3.380324e+00
  8.608717e+00    3.388704e+00
  8.624593e+00    3.358846e+00
  8.640468e+00    3.374372e+00
  8.656344e+00    3.342652e+00
  8.672220e+00    3.331624e+00
  8.688095e+00    3.372202e+00
  8.703971e+00    3.338393e+00
  8.719846e+00    3.362193e+00
  8.735722e+00    3.316594e+00
  8.751598e+00    3.300972e+00
  8.767473e+00    3.367640e+00
  8.783349e+00    3.325935e+00
  8.799224e+00    3.394344e+00
  8.815100e+00    3.372334e+00
  8.830975e+00    3.355050e+00
  8.846851e+00    3.321274e+00
  8.862727e+00    3.333136e+00
  8.878602e+00    3.318791e+00
  8.894478e+00    3.281912e+00
  8.910353e+00    3.323385e+00
  8.926229e+00    3.321528e+00
  8.942104e+00    3.258988e+00
  8.957980e+00    3.283465e+00
  8.973856e+00    3.368917e+00
  8.989731e+00    3.385891e+00
  9.005607e+00    3.306913e+00
  9.021482e+00    3.260162e+00
  9.037358e+00    3.262786e+00
  9.053233e+00    3.217847e+00
  9.069109e+00    3.313539e+00
  9.084985e+00    3.312300e+00
  9.100860e+00    3.299779e+00
  9.116736e+00    3.236202e+00
  9.132611e+00    3.248602e+00
  9.148487e+00    3.257143e+00
  9.164362e+00    3.257658e+00
  9.180238e+00    3.304531e+00
  9.196114e+00    3.296926e+00
  9.211989e+00    3.238487e+00
  9.227865e+00    3.174917e+00
  9.243740e+00    3.205980e+00
  9.259616e+00    3.242486e+00
  9.275491e+00    3.241062e+00
  9.291367e+00    3.246585e+00
  9.307243e+00    3.242138e+00
  9.323118e+00    3.270701e+00
  9.338994e+00    3.321814e+00
  9.354869e+00    3.287634e+00
  9.370745e+00    3.267528e+00
  9.386620e+00    3.227261e+00
  9.402496e+00    3.231728e+00
  9.418372e+00    3.202322e+00
  9.434247e+00    3.236146e+00
  9.450123e+00    3.186718e+00
  9.465998e+00    3.171782e+00
  9.481874e+00    3.209975e+00
  9.497749e+00    3.188206e+00
  9.513625e+00    3.246946e+00
  9.529501e+00    3.283491e+00
  9.545376e+00    3.291981e+00
  9.561252e+00    3.224648e+00
  9.577127e+00    3.192568e+00
  9.593003e+00    3.218971e+00
  9.608878e+00    3.231714e+00
  9.624754e+00    3.242573e+00
  9.640630e+00    3.258980e+00
  9.656505e+00    3.193360e+00
  9.672381e+00    3.196633e+00
  9.688256e+00    3.177784e+00
  9.704132e+00    3.228463e+00
  9.720008e+00    3.193254e+00
  9.735883e+00    3.187834e+00
  9.751759e+00    3.179136e+00
  9.767634e+00    3.163562e+00
  9.783510e+00    3.190191e+00
  9.799385e+00    3.176030e+00
  9.815261e+00    3.147668e+00
  9.831137e+00    3.159202e+00
  9.847012e+00    3.198897e+00
  9.862888e+00    3.180613e+00
  9.878763e+00    3.166303e+00
  9.894639e+00    3.208164e+00
  9.910514e+00    3.130685e+00
  9.926390e+00    3.129800e+00
  9.942266e+00    3.175710e+00
  9.958141e+00    3.226411e+00
  9.974017e+00    3.127426e+00
  9.989892e+00    3.085405e+00
  1.000577e+01    3.101101e+00
  1.002164e+01    3.125020e+00
  1.003752e+01    3.134874e+00
  1.005339e+01    3.137929e+00
  1.006927e+01    3.121554e+00
  1.008515e+01    3.032640e+00
  1.010102e+01    3.082639e+00
  1.011690e+01    3.182298e+00
  1.013277e+01    3.153221e+00
  1.014865e+01    3.187491e+00
  1.016452e+01    3.094206e+00
  1.018040e+01    3.088739e+00
  1.019627e+01    3.095831e+00
  1.021215e+01    3.085114e+00
  1.022803e+01    3.094630e+00
  1.024390e+01    3.076788e+00
  1.025978e+01    3.065461e+00
  1.027565e+01    3.019082e+00
  1.029153e+01    3.041495e+00
  1.030740e+01    3.058669e+00
  1.032328e+01    2.999948e+00
  1.033915e+01    2.992689e+00
  1.035503e+01    2.995581e+00
  1.037091e+01    3.008162e+00
  1.038678e+01    3.010614e+00
  1.040266e+01    3.081263e+00
  1.041853e+01    3.054638e+00
  1.043441e+01    3.013718e+00
  1.045028e+01    3.031620e+00
  1.046616e+01    3.013729e+00
  1.048204e+01    2.996036e+00
  1.049791e+01    3.032692e+00
  1.051379e+01    3.033026e+00
  1.052966e+01    3.048678e+00
  1.054554e+01    3.055380e+00
  1.056141e+01    2.973897e+00
  1.057729e+01    3.010493e+00
  1.059316e+01    3.050675e+00
  1.060904e+01    3.073949e+00
  1.062492e+01    3.030987e+00
  1.064079e+01    3.005636e+00
  1.065667e+01    2.969881e+00
  1.067254e+01    2.974447e+00
  1.068842e+01    2.960879e+00
  1.070429e+01    2.992172e+00
  1.072017e+01    3.012074e+00
  1.073604e+01    2.990959e+00
  1.075192e+01    2.972523e+00
  1.076780e+01    2.969927e+00
  1.078367e+01    2.995224e+00
  1.079955e+01    2.925315e+00
  1.081542e+01    2.923082e+00
  1.083130e+01    2.955584e+00
  1.084717e+01    2.947743e+00
  1.086305e+01    2.913368e+00
  1.087892e+01    2.928290e+00
  1.089480e+01    2.885938e+00
  1.091068e+01    2.936775e+00
  1.092655e+01    2.927206e+00
  1.094243e+01    2.916101e+00
  1.095830e+01    2.968476e+00
  1.097418e+01    2.931568e+00
  1.099005e+01    2.908490e+00
  1.100593e+01    2.893464e+00
  1.102180e+01    2.949585e+00
  1.103768e+01    2.953861e+00
  1.105356e+01    2.864235e+00
  1.106943e+01    2.920150e+00
  1.108531e+01    2.889503e+00
  1.110118e+01    2.842255e+00
  1.111706e+01    2.866187e+00
  1.113293e+01    2.866918e+00
  1.114881e+01    2.928080e+00
  1.116468e+01    2.962339e+00
  1.118056e+01    2.923256e+00
  1.119644e+01    2.898610e+00
  1.121231e+01    2.873923e+00
  1.122819e+01    2.957193e+00
  1.124406e+01    2.914220e+00
  1.125994e+01    2.815900e+00
  1.127581e+01    2.853255e+00
  1.129169e+01    2.803946e+00
  1.130756e+01    2.881121e+00
  1.132344e+01    2.863395e+00
  1.133932e+01    2.832841e+00
  1.135519e+01    2.881732e+00
  1.137107e+01    2.837205e+00
  1.138694e+01    2.811748e+00
  1.140282e+01    2.797126e+00
  1.141869e+01    2.764868e+00
  1.143457e+01    2.752681e+00
  1.145045e+01    2.801172e+00
  1.146632e+01    2.858837e+00
  1.148220e+01    2.829529e+00
  1.149807e+01    2.792481e+00
  1.151395e+01    2.812015e+00
  1.152982e+01    2.847905e+00
  1.154570e+01    2.833341e+00
  1.156157e+01    2.850248e+00
  1.157745e+01    2.829211e+00
  1.159333e+01    2.822058e+00
  1.160920e+01    2.773504e+00
  1.162508e+01    2.819660e+00
  1.164095e+01    2.828417e+00
  1.165683e+01    2.803515e+00
  1.167270e+01    2.740365e+00
  1.168858e+01    2.793437e+00
  1.170445e+01    2.764132e+00
  1.172033e+01    2.776968e+00
  1.173621e+01    2.817267e+00
  1.175208e+01    2.783466e+00
  1.176796e+01    2.700803e+00
  1.178383e+01    2.741469e+00
  1.179971e+01    2.732831e+00
  1.181558e+01    2.755453e+00
  1.183146e+01    2.745161e+00
  1.184733e+01    2.726710e+00
  1.186321e+01    2.739086e+00
  1.187909e+01    2.757013e+00
  1.189496e+01    2.715059e+00
  1.191084e+01    2.744197e+00
  1.192671e+01    2.732538e+00
  1.194259e+01    2.715602e+00
  1.195846e+01    2.722562e+00
  1.197434e+01    2.774160e+00
  1.199021e+01    2.728030e+00
  1.200609e+01    2.683988e+00
  1.202197e+01    2.705324e+00
  1.203784e+01    2.697126e+00
  1.205372e+01    2.700128e+00
  1.206959e+01    2.731282e+00
  1.208547e+01    2.715720e+00
  1.210134e+01    2.698620e+00
  1.211722e+01    2.697587e+00
  1.213309e+01    2.688351e+00
  1.214897e+01    2.669570e+00
  1.216485e+01    2.710488e+00
  1.218072e+01    2.689256e+00
  1.219660e+01    2.696332e+00
  1.221247e+01    2.676725e+00
  1.222835e+01    2.691284e+00
  1.224422e+01    2.642346e+00
  1.226010e+01    2.691698e+00
  1.227597e+01    2.708099e+00
  1.229185e+01    2.680873e+00
  1.230773e+01    2.710736e+00
  1.232360e+01    2.737725e+00
  1.233948e+01    2.695793e+00
  1.235535e+01    2.716571e+00
  1.237123e+01    2.706002e+00
  1.238710e+01    2.702054e+00
  1.240298e+01    2.678545e+00
  1.241886e+01    2.693939e+00
  1.243473e+01    2.700166e+00
  1.245061e+01    2.715899e+00
  1.246648e+01    2.721401e+00
  1.248236e+01    2.701784e+00
  1.249823e+01    2.722817e+00
  1.251411e+01    2.722994e+00
  1.252998e+01    2.731705e+00
  1.254586e+01    2.709251e+00
  1.256174e+01    2.696500e+00
  1.257761e+01    2.678264e+00
  1.259349e+01    2.703458e+00
  1.260936e+01    2.746042e+00
  1.262524e+01    2.769915e+00
  1.264111e+01    2.776216e+00
  1.265699e+01    2.776613e+00
  1.267286e+01    2.839559e+00
  1.268874e+01    2.888027e+00
  1.270462e+01    2.878557e+00
  1.272049e+01    2.913067e+00
  1.273637e+01    2.930296e+00
  1.275224e+01    2.881404e+00
  1.276812e+01    2.955278e+00
  1.278399e+01    2.979427e+00
  1.279987e+01    3.020494e+00
  1.281574e+01    3.127141e+00
  1.283162e+01    3.202351e+00
  1.284750e+01    3.243484e+00
  1.286337e+01    3.332903e+00
  1.287925e+01    3.386922e+00
  1.289512e+01    3.542997e+00
  1.291100e+01    3.643352e+00
  1.292687e+01    3.876318e+00
  1.294275e+01    4.154870e+00
  1.295862e+01    4.391741e+00
  1.297450e+01    4.777718e+00
  1.299038e+01    5.293976e+00
  1.300625e+01    5.930947e+00
  1.302213e+01    6.741076e+00
  1.303800e+01    7.698463e+00
  1.305388e+01    8.955903e+00
  1.306975e+01    1.016406e+01
  1.308563e+01    1.143872e+01
  1.310150e+01    1.276583e+01
  1.311738e+01    1.376641e+01
  1.313326e+01    1.475731e+01
  1.314913e+01    1.558557e+01
  1.316501e+01    1.616382e+01
  1.318088e+01    1.633136e+01
  1.319676e+01    1.567420e+01
  1.321263e+01    1.433468e+01
  1.322851e+01    1.259241e+01
  1.324438e+01    1.071215e+01
  1.326026e+01    9.027898e+00
  1.327614e+01    7.757010e+00
  1.329201e+01    6.807913e+00
  1.330789e+01    6.016516e+00
  1.332376e+01    5.333247e+00
  1.333964e+01    4.843030e+00
  1.335551e+01    4.500591e+00
  1.337139e+01    4.164423e+00
  1.338727e+01    3.870614e+00
  1.340314e+01    3.675705e+00
  1.341902e+01    3.504411e+00
  1.343489e+01    3.391183e+00
  1.345077e+01    3.195568e+00
  1.346664e+01    3.132588e+00
  1.348252e+01    3.067110e+00
  1.349839e+01    2.985704e+00
  1.351427e+01    2.931944e+00
  1.353015e+01    2.847865e+00
  1.354602e+01    2.852792e+00
  1.356190e+01    2.788658e+00
  1.357777e+01    2.754537e+00
  1.359365e+01    2.736291e+00
  1.360952e+01    2.695825e+00
  1.362540e+01    2.663503e+00
  1.364127e+01    2.658184e+00
  1.365715e+01    2.639879e+00
  1.367303e+01    2.603048e+00
  1.368890e+01    2.609278e+00
  1.370478e+01    2.604608e+00
  1.372065e+01    2.537375e+00
  1.373653e+01    2.516210e+00
  1.375240e+01    2.551766e+00
  1.376828e+01    2.519718e+00
  1.378415e+01    2.504516e+00
  1.380003e+01    2.460197e+00
  1.381591e+01    2.474927e+00
  1.383178e+01    2.476437e+00
  1.384766e+01    2.455443e+00
  1.386353e+01    2.456720e+00
  1.387941e+01    2.421076e+00
  1.389528e+01    2.439809e+00
  1.391116e+01    2.418251e+00
  1.392703e+01    2.411957e+00
  1.394291e+01    2.402858e+00
  1.395879e+01    2.403610e+00
  1.397466e+01    2.399560e+00
  1.399054e+01    2.357331e+00
  1.400641e+01    2.324688e+00
  1.402229e+01    2.358606e+00
  1.403816e+01    2.384062e+00
  1.405404e+01    2.369856e+00
  1.406991e+01    2.334257e+00
  1.408579e+01    2.324857e+00
  1.410167e+01    2.311210e+00
  1.411754e+01    2.333741e+00
  1.413342e+01    2.308915e+00
  1.414929e+01    2.315538e+00
  1.416517e+01    2.319723e+00
  1.418104e+01    2.263256e+00
  1.419692e+01    2.279396e+00
  1.421279e+01    2.270475e+00
  1.422867e+01    2.281608e+00
  1.424455e+01    2.259675e+00
  1.426042e+01    2.253729e+00
  1.427630e+01    2.299723e+00
  1.429217e+01    2.279659e+00
  1.430805e+01    2.296762e+00
  1.432392e+01    2.294792e+00
  1.433980e+01    2.259901e+00
  1.435568e+01    2.268372e+00
  1.437155e+01    2.221281e+00
  1.438743e+01    2.247130e+00
  1.440330e+01    2.242270e+00
  1.441918e+01    2.243752e+00
  1.443505e+01    2.281587e+00
  1.445093e+01    2.242940e+00
  1.446680e+01    2.200115e+00
  1.448268e+01    2.202214e+00
  1.449856e+01    2.172062e+00
  1.451443e+01    2.183191e+00
  1.453031e+01    2.223271e+00
  1.454618e+01    2.220531e+00
  1.456206e+01    2.209446e+00
  1.457793e+01    2.242405e+00
  1.459381e+01    2.219524e+00
  1.460968e+01    2.237750e+00
  1.462556e+01    2.211495e+00
  1.464144e+01    2.186382e+00
  1.465731e+01    2.192915e+00
  1.467319e+01    2.212548e+00
  1.468906e+01    2.191250e+00
  1.470494e+01    2.202818e+00
  1.472081e+01    2.167636e+00
  1.473669e+01    2.167496e+00
  1.475256e+01    2.190175e+00
  1.476844e+01    2.200381e+00
  1.478432e+01    2.220589e+00
  1.480019e+01    2.205637e+00
  1.481607e+01    2.208910e+00
  1.483194e+01    2.216486e+00
  1.484782e+01    2.191117e+00
  1.486369e+01    2.222154e+00
  1.487957e+01    2.237906e+00
  1.489544e+01    2.229763e+00
  1.491132e+01    2.280860e+00
  1.492720e+01    2.311616e+00
  1.494307e+01    2.334047e+00
  1.495895e+01    2.343334e+00
  1.497482e+01    2.345263e+00
  1.499070e+01    2.357353e+00
  1.500657e+01    2.414776e+00
  1.502245e+01    2.487833e+00
  1.503832e+01    2.577549e+00
  1.505420e+01    2.726415e+00
  1.507008e+01    2.859151e+00
  1.508595e+01    2.976041e+00
  1.510183e+01    3.177941e+00
  1.511770e+01    3.434521e+00
  1.513358e+01    3.800577e+00
  1.514945e+01    4.170285e+00
  1.516533e+01    4.554005e+00
  1.518120e+01    4.846603e+00
  1.519708e+01    5.116611e+00
  1.521296e+01    5.393975e+00
  1.522883e+01    5.632662e+00
  1.524471e+01    5.726125e+00
  1.526058e+01    5.815588e+00
  1.527646e+01    5.765027e+00
  1.529233e+01    5.497672e+00
  1.530821e+01    5.098066e+00
  1.532409e+01    4.646816e+00
  1.533996e+01    4.211016e+00
  1.535584e+01    3.790735e+00
  1.537171e+01    3.441978e+00
  1.538759e+01    3.148315e+00
  1.540346e+01    2.932582e+00
  1.541934e+01    2.769018e+00
  1.543521e+01    2.630359e+00
  1.545109e+01    2.530638e+00
  1.546697e+01    2.443821e+00
  1.548284e+01    2.345279e+00
  1.549872e+01    2.287172e+00
  1.551459e+01    2.244888e+00
  1.553047e+01    2.189817e+00
  1.554634e+01    2.183744e+00
  1.556222e+01    2.202569e+00
  1.557809e+01    2.137206e+00
  1.559397e+01    2.101496e+00
  1.560985e+01    2.091111e+00
  1.562572e+01    2.083899e+00
  1.564160e+01    2.055110e+00
  1.565747e+01    2.036558e+00
  1.567335e+01    2.013517e+00
  1.568922e+01    1.999995e+00
  1.570510e+01    2.001483e+00
  1.572097e+01    1.991417e+00
  1.573685e+01    1.967588e+00
  1.575273e+01    1.990958e+00
  1.576860e+01    1.996490e+00
  1.578448e+01    1.978207e+00
  1.580035e+01    1.973144e+00
  1.581623e+01    1.950940e+00
  1.583210e+01    1.914948e+00
  1.584798e+01    1.929081e+00
  1.586385e+01    1.907216e+00
  1.587973e+01    1.913216e+00
  1.589561e+01    1.941831e+00
  1.591148e+01    1.932441e+00
  1.592736e+01    1.913257e+00
  1.594323e+01    1.913462e+00
  1.595911e+01    1.925177e+00
  1.597498e+01    1.951510e+00
  1.599086e+01    1.908488e+00
  1.600673e+01    1.847286e+00
  1.602261e+01    1.855886e+00
  1.603849e+01    1.867782e+00
  1.605436e+01    1.859918e+00
  1.607024e+01    1.861689e+00
  1.608611e+01    1.823239e+00
  1.610199e+01    1.810745e+00
  1.611786e+01    1.853254e+00
  1.613374e+01    1.889745e+00
  1.614961e+01    1.828922e+00
  1.616549e+01    1.862388e+00
  1.618137e+01    1.886548e+00
  1.619724e+01    1.836094e+00
  1.621312e+01    1.848594e+00
  1.622899e+01    1.826619e+00
  1.624487e+01    1.808787e+00
  1.626074e+01    1.821824e+00
  1.627662e+01    1.806544e+00
  1.629250e+01    1.804066e+00
  1.630837e+01    1.806057e+00
  1.632425e+01    1.781835e+00
  1.634012e+01    1.796477e+00
  1.635600e+01    1.789137e+00
  1.637187e+01    1.771448e+00
  1.638775e+01    1.772345e+00
  1.640362e+01    1.807831e+00
  1.641950e+01    1.787227e+00
  1.643538e+01    1.737814e+00
  1.645125e+01    1.764360e+00
  1.646713e+01    1.755189e+00
  1.648300e+01    1.749932e+00
  1.649888e+01    1.798729e+00
  1.651475e+01    1.807468e+00
  1.653063e+01    1.742602e+00
  1.654650e+01    1.754231e+00
  1.656238e+01    1.746423e+00
  1.657826e+01    1.738417e+00
  1.659413e+01    1.757564e+00
  1.661001e+01    1.741779e+00
  1.662588e+01    1.713070e+00
  1.664176e+01    1.746951e+00
  1.665763e+01    1.774813e+00
  1.667351e+01    1.732661e+00
  1.668938e+01    1.715163e+00
  1.670526e+01    1.744165e+00
  1.672114e+01    1.741731e+00
  1.673701e+01    1.721558e+00
  1.675289e+01    1.724107e+00
  1.676876e+01    1.732122e+00
  1.678464e+01    1.748677e+00
  1.680051e+01    1.743977e+00
  1.681639e+01    1.744433e+00
  1.683226e+01    1.758898e+00
  1.684814e+01    1.751976e+00
  1.686402e+01    1.694951e+00
  1.687989e+01    1.653935e+00
  1.689577e+01    1.719456e+00
  1.691164e+01    1.732673e+00
  1.692752e+01    1.701046e+00
  1.694339e+01    1.681302e+00
  1.695927e+01    1.655807e+00
  1.697514e+01    1.682788e+00
  1.699102e+01    1.703302e+00
  1.700690e+01    1.656692e+00
  1.702277e+01    1.679495e+00
  1.703865e+01    1.691955e+00
  1.705452e+01    1.672127e+00
  1.707040e+01    1.657127e+00
  1.708627e+01    1.656169e+00
  1.710215e+01    1.662539e+00
  1.711802e+01    1.644336e+00
  1.713390e+01    1.657907e+00
  1.714978e+01    1.614708e+00
  1.716565e+01    1.620939e+00
  1.718153e+01    1.651179e+00
  1.719740e+01    1.607176e+00
  1.721328e+01    1.611004e+00
  1.722915e+01    1.599684e+00
  1.724503e+01    1.622465e+00
  1.726091e+01    1.648874e+00
  1.727678e+01    1.636974e+00
  1.729266e+01    1.641266e+00
  1.730853e+01    1.614578e+00
  1.732441e+01    1.629227e+00
  1.734028e+01    1.625424e+00
  1.735616e+01    1.612292e+00
  1.737203e+01    1.619841e+00
  1.738791e+01    1.614103e+00
  1.740379e+01    1.598408e+00
  1.741966e+01    1.608222e+00
  1.743554e+01    1.588608e+00
  1.745141e+01    1.590258e+00
  1.746729e+01    1.607906e+00
  1.748316e+01    1.566501e+00
  1.749904e+01    1.600186e+00
  1.751491e+01    1.586820e+00
  1.753079e+01    1.566403e+00
  1.754667e+01    1.574949e+00
  1.756254e+01    1.585318e+00
  1.757842e+01    1.585798e+00
  1.759429e+01    1.601101e+00
  1.761017e+01    1.608085e+00
  1.762604e+01    1.568863e+00
  1.764192e+01    1.582417e+00
  1.765779e+01    1.551027e+00
  1.767367e+01    1.546270e+00
  1.768955e+01    1.570348e+00
  1.770542e+01    1.566603e+00
  1.772130e+01    1.593174e+00
  1.773717e+01    1.567646e+00
  1.775305e+01    1.525956e+00
  1.776892e+01    1.526665e+00
  1.778480e+01    1.569402e+00
  1.780067e+01    1.591435e+00
  1.781655e+01    1.575230e+00
  1.783243e+01    1.562541e+00
  1.784830e+01    1.547457e+00
  1.786418e+01    1.539439e+00
  1.788005e+01    1.537047e+00
  1.789593e+01    1.543386e+00
  1.791180e+01    1.529596e+00
  1.792768e+01    1.542324e+00
  1.794355e+01    1.526371e+00
  1.795943e+01    1.521598e+00
  1.797531e+01    1.516460e+00
  1.799118e+01    1.526031e+00
  1.800706e+01    1.532933e+00
  1.802293e+01    1.528485e+00
  1.803881e+01    1.518477e+00
  1.805468e+01    1.526603e+00
  1.807056e+01    1.536122e+00
  1.808643e+01    1.508564e+00
  1.810231e+01    1.519518e+00
  1.811819e+01    1.516799e+00
  1.813406e+01    1.508308e+00
  1.814994e+01    1.489138e+00
  1.816581e+01    1.495849e+00
  1.818169e+01    1.468161e+00
  1.819756e+01    1.455305e+00
  1.821344e+01    1.496546e+00
  1.822932e+01    1.479562e+00
  1.824519e+01    1.497390e+00
  1.826107e+01    1.481473e+00
  1.827694e+01    1.464426e+00
  1.829282e+01    1.463153e+00
  1.830869e+01    1.477574e+00
  1.832457e+01    1.481426e+00
  1.834044e+01    1.446769e+00
  1.835632e+01    1.487296e+00
  1.837220e+01    1.477918e+00
  1.838807e+01    1.503241e+00
  1.840395e+01    1.461789e+00
  1.841982e+01    1.454153e+00
  1.843570e+01    1.465989e+00
  1.845157e+01    1.463488e+00
  1.846745e+01    1.438204e+00
  1.848332e+01    1.431489e+00
  1.849920e+01    1.417097e+00
  1.851508e+01    1.400459e+00
  1.853095e+01    1.437893e+00
  1.854683e+01    1.458187e+00
  1.856270e+01    1.456197e+00
  1.857858e+01    1.468166e+00
  1.859445e+01    1.424130e+00
  1.861033e+01    1.413240e+00
  1.862620e+01    1.423793e+00
  1.864208e+01    1.453633e+00
  1.865796e+01    1.449947e+00
  1.867383e+01    1.434362e+00
  1.868971e+01    1.435773e+00
  1.870558e+01    1.418623e+00
  1.872146e+01    1.420150e+00
  1.873733e+01    1.424995e+00
  1.875321e+01    1.418663e+00
  1.876908e+01    1.436072e+00
  1.878496e+01    1.423746e+00
  1.880084e+01    1.413258e+00
  1.881671e+01    1.426050e+00
  1.883259e+01    1.437743e+00
  1.884846e+01    1.422798e+00
  1.886434e+01    1.415129e+00
  1.888021e+01    1.403878e+00
  1.889609e+01    1.394536e+00
  1.891196e+01    1.418910e+00
  1.892784e+01    1.415032e+00
  1.894372e+01    1.422059e+00
  1.895959e+01    1.404407e+00
  1.897547e+01    1.400681e+00
  1.899134e+01    1.398918e+00
  1.900722e+01    1.403210e+00
  1.902309e+01    1.385981e+00
  1.903897e+01    1.386972e+00
  1.905484e+01    1.359019e+00
  1.907072e+01    1.382925e+00
  1.908660e+01    1.388913e+00
  1.910247e+01    1.392640e+00
  1.911835e+01    1.381629e+00
  1.913422e+01    1.377377e+00
  1.915010e+01    1.386677e+00
  1.916597e+01    1.367248e+00
  1.918185e+01    1.369332e+00
  1.919773e+01    1.381322e+00
  1.921360e+01    1.384484e+00
  1.922948e+01    1.365754e+00
  1.924535e+01    1.366067e+00
  1.926123e+01    1.351798e+00
  1.927710e+01    1.335164e+00
  1.929298e+01    1.351937e+00
  1.930885e+01    1.363750e+00
  1.932473e+01    1.339734e+00
  1.934061e+01    1.334069e+00
  1.935648e+01    1.351779e+00
  1.937236e+01    1.342113e+00
  1.938823e+01    1.335999e+00
  1.940411e+01    1.353427e+00
  1.941998e+01    1.359290e+00
  1.943586e+01    1.316246e+00
  1.945173e+01    1.313048e+00
  1.946761e+01    1.356805e+00
  1.948349e+01    1.347374e+00
  1.949936e+01    1.288863e+00
  1.951524e+01    1.305205e+00
  1.953111e+01    1.316401e+00
  1.954699e+01    1.345482e+00
  1.956286e+01    1.333138e+00
  1.957874e+01    1.315125e+00
  1.959461e+01    1.322702e+00
  1.961049e+01    1.325514e+00
  1.962637e+01    1.298223e+00
  1.964224e+01    1.273103e+00
  1.965812e+01    1.308365e+00
  1.967399e+01    1.314157e+00
  1.968987e+01    1.288166e+00
  1.970574e+01    1.288241e+00
  1.972162e+01    1.323221e+00
  1.973749e+01    1.284156e+00
  1.975337e+01    1.296324e+00
  1.976925e+01    1.334515e+00
  1.978512e+01    1.338832e+00
  1.980100e+01    1.298025e+00
  1.981687e+01    1.273988e+00
  1.983275e+01    1.271250e+00
  1.984862e+01    1.319323e+00
  1.986450e+01    1.304703e+00
  1.988037e+01    1.284315e+00
  1.989625e+01    1.267259e+00
  1.991213e+01    1.291594e+00
  1.992800e+01    1.321245e+00
  1.994388e+01    1.290443e+00
  1.995975e+01    1.263129e+00
  1.997563e+01    1.271382e+00
  1.999150e+01    1.287166e+00
  2.000738e+01    1.275442e+00
  2.002325e+01    1.292932e+00
  2.003913e+01    1.256627e+00
  2.005501e+01    1.280350e+00
  2.007088e+01    1.286491e+00
  2.008676e+01    1.274747e+00
  2.010263e+01    1.279278e+00
  2.011851e+01    1.293095e+00
  2.013438e+01    1.292945e+00
  2.015026e+01    1.277872e+00
  2.016614e+01    1.287526e+00
  2.018201e+01    1.279279e+00
  2.019789e+01    1.278792e+00
  2.021376e+01    1.277737e+00
  2.022964e+01    1.265781e+00
  2.024551e+01    1.252641e+00
  2.026139e+01    1.245356e+00
  2.027726e+01    1.251899e+00
  2.029314e+01    1.257527e+00
  2.030902e+01    1.242597e+00
  2.032489e+01    1.259525e+00
  2.034077e+01    1.273547e+00
  2.035664e+01    1.246606e+00
  2.037252e+01    1.233235e+00
  2.038839e+01    1.248125e+00
  2.040427e+01    1.260683e+00
  2.042014e+01    1.221199e+00
  2.043602e+01    1.226514e+00
  2.045190e+01    1.252995e+00
  2.046777e+01    1.239925e+00
  2.048365e+01    1.240893e+00
  2.049952e+01    1.250206e+00
  2.051540e+01    1.248163e+00
  2.053127e+01    1.242013e+00
  2.054715e+01    1.227644e+00
  2.056302e+01    1.235329e+00
  2.057890e+01    1.244026e+00
  2.059478e+01    1.240331e+00
  2.061065e+01    1.246330e+00
  2.062653e+01    1.240741e+00
  2.064240e+01    1.224549e+00
  2.065828e+01    1.220835e+00
  2.067415e+01    1.213982e+00
  2.069003e+01    1.228793e+00
  2.070590e+01    1.266799e+00
  2.072178e+01    1.231790e+00
  2.073766e+01    1.220298e+00
  2.075353e+01    1.240627e+00
  2.076941e+01    1.251157e+00
  2.078528e+01    1.216049e+00
  2.080116e+01    1.199223e+00
  2.081703e+01    1.206042e+00
  2.083291e+01    1.225123e+00
  2.084878e+01    1.240714e+00
  2.086466e+01    1.253737e+00
  2.088054e+01    1.245313e+00
  2.089641e+01    1.214497e+00
  2.091229e+01    1.203980e+00
  2.092816e+01    1.224044e+00
  2.094404e+01    1.235569e+00
  2.095991e+01    1.212350e+00
  2.097579e+01    1.204999e+00
  2.099166e+01    1.217508e+00
  2.100754e+01    1.210374e+00
  2.102342e+01    1.203619e+00
  2.103929e+01    1.265270e+00
  2.105517e+01    1.234120e+00
  2.107104e+01    1.221634e+00
  2.108692e+01    1.218289e+00
  2.110279e+01    1.235254e+00
  2.111867e+01    1.243032e+00
  2.113455e+01    1.214038e+00
  2.115042e+01    1.224456e+00
  2.116630e+01    1.207831e+00
  2.118217e+01    1.225141e+00
  2.119805e+01    1.238737e+00
  2.121392e+01    1.248389e+00
  2.122980e+01    1.242425e+00
  2.124567e+01    1.239711e+00
  2.126155e+01    1.247290e+00
  2.127743e+01    1.251786e+00
  2.129330e+01    1.270680e+00
  2.130918e+01    1.263809e+00
  2.132505e+01    1.269796e+00
  2.134093e+01    1.291814e+00
  2.135680e+01    1.291417e+00
  2.137268e+01    1.300470e+00
  2.138855e+01    1.322495e+00
  2.140443e+01    1.298240e+00
  2.142031e+01    1.324462e+00
  2.143618e+01    1.379820e+00
  2.145206e+01    1.367991e+00
  2.146793e+01    1.351225e+00
  2.148381e+01    1.388107e+00
  2.149968e+01    1.414644e+00
  2.151556e+01    1.442592e+00
  2.153143e+01    1.487925e+00
  2.154731e+01    1.498656e+00
  2.156319e+01    1.547582e+00
  2.157906e+01    1.608455e+00
  2.159494e+01    1.687609e+00
  2.161081e+01    1.743765e+00
  2.162669e+01    1.831328e+00
  2.164256e+01    1.974700e+00
  2.165844e+01    2.121591e+00
  2.167431e+01    2.319578e+00
  2.169019e+01    2.542042e+00
  2.170607e+01    2.815508e+00
  2.172194e+01    3.164628e+00
  2.173782e+01    3.545270e+00
  2.175369e+01    4.011633e+00
  2.176957e+01    4.587394e+00
  2.178544e+01    5.258412e+00
  2.180132e+01    5.852634e+00
  2.181719e+01    6.445530e+00
  2.183307e+01    7.144548e+00
  2.184895e+01    7.755189e+00
  2.186482e+01    8.311747e+00
  2.188070e+01    8.697341e+00
  2.189657e+01    8.938817e+00
  2.191245e+01    8.730347e+00
  2.192832e+01    8.260333e+00
  2.194420e+01    7.444224e+00
  2.196007e+01    6.616777e+00
  2.197595e+01    5.744720e+00
  2.199183e+01    4.884903e+00
  2.200770e+01    4.213908e+00
  2.202358e+01    3.649922e+00
  2.203945e+01    3.210855e+00
  2.205533e+01    2.865698e+00
  2.207120e+01    2.558295e+00
  2.208708e+01    2.348080e+00
  2.210296e+01    2.156872e+00
  2.211883e+01    2.003683e+00
  2.213471e+01    1.862539e+00
  2.215058e+01    1.759090e+00
  2.216646e+01    1.703053e+00
  2.218233e+01    1.617968e+00
  2.219821e+01    1.543234e+00
  2.221408e+01    1.487269e+00
  2.222996e+01    1.470858e+00
  2.224584e+01    1.434479e+00
  2.226171e+01    1.391938e+00
  2.227759e+01    1.357020e+00
  2.229346e+01    1.318053e+00
  2.230934e+01    1.287529e+00
  2.232521e+01    1.281104e+00
  2.234109e+01    1.261036e+00
  2.235696e+01    1.235754e+00
  2.237284e+01    1.234698e+00
  2.238872e+01    1.217026e+00
  2.240459e+01    1.208609e+00
  2.242047e+01    1.184304e+00
  2.243634e+01    1.182108e+00
  2.245222e+01    1.199914e+00
  2.246809e+01    1.185605e+00
  2.248397e+01    1.175356e+00
  2.249984e+01    1.166382e+00
  2.251572e+01    1.161604e+00
  2.253160e+01    1.162262e+00
  2.254747e+01    1.151549e+00
  2.256335e+01    1.133805e+00
  2.257922e+01    1.105774e+00
  2.259510e+01    1.088998e+00
  2.261097e+01    1.119970e+00
  2.262685e+01    1.093980e+00
  2.264272e+01    1.117186e+00
  2.265860e+01    1.089958e+00
  2.267448e+01    1.072086e+00
  2.269035e+01    1.098239e+00
  2.270623e+01    1.085829e+00
  2.272210e+01    1.077240e+00
  2.273798e+01    1.087416e+00
  2.275385e+01    1.094373e+00
  2.276973e+01    1.072882e+00
  2.278560e+01    1.054084e+00
  2.280148e+01    1.049678e+00
  2.281736e+01    1.051529e+00
  2.283323e+01    1.057659e+00
  2.284911e+01    1.051229e+00
  2.286498e+01    1.035437e+00
  2.288086e+01    1.027508e+00
  2.289673e+01    1.026617e+00
  2.291261e+01    1.030380e+00
  2.292848e+01    1.031983e+00
  2.294436e+01    1.036110e+00
  2.296024e+01    1.038395e+00
  2.297611e+01    1.049577e+00
  2.299199e+01    1.045586e+00
  2.300786e+01    1.034835e+00
  2.302374e+01    1.016679e+00
  2.303961e+01    1.011432e+00
  2.305549e+01    1.023409e+00
  2.307137e+01    1.033906e+00
  2.308724e+01    1.047670e+00
  2.310312e+01    1.009898e+00
  2.311899e+01    9.786213e-01
  2.313487e+01    9.993346e-01
  2.315074e+01    1.016902e+00
  2.316662e+01    9.929529e-01
  2.318249e+01    9.874270e-01
  2.319837e+01    9.945484e-01
  2.321425e+01    9.973402e-01
  2.323012e+01    1.018900e+00
  2.324600e+01    1.029377e+00
  2.326187e+01    9.987338e-01
  2.327775e+01    9.864726e-01
  2.329362e+01    9.821376e-01
  2.330950e+01    9.887907e-01
  2.332537e+01    9.989046e-01
  2.334125e+01    9.901620e-01
  2.335713e+01    9.860086e-01
  2.337300e+01    9.937526e-01
  2.338888e+01    9.850324e-01
  2.340475e+01    9.752248e-01
  2.342063e+01    9.709460e-01
  2.343650e+01    9.810239e-01
  2.345238e+01    9.832967e-01
  2.346825e+01    9.774916e-01
  2.348413e+01    9.724845e-01
  2.350001e+01    9.888237e-01
  2.351588e+01    9.752440e-01
  2.353176e+01    9.664025e-01
  2.354763e+01    9.781143e-01
  2.356351e+01    9.729737e-01
  2.357938e+01    9.601837e-01
  2.359526e+01    9.530486e-01
  2.361113e+01    9.673337e-01
  2.362701e+01    9.589272e-01
  2.364289e+01    9.313227e-01
  2.365876e+01    9.377092e-01
  2.367464e+01    9.630852e-01
  2.369051e+01    9.383070e-01
  2.370639e+01    9.518784e-01
  2.372226e+01    9.285107e-01
  2.373814e+01    9.427783e-01
  2.375401e+01    9.309340e-01
  2.376989e+01    9.350551e-01
  2.378577e+01    9.455131e-01
  2.380164e+01    9.361578e-01
  2.381752e+01    9.116256e-01
  2.383339e+01    9.225312e-01
  2.384927e+01    9.077978e-01
  2.386514e+01    8.957072e-01
  2.388102e+01    9.131154e-01
  2.389689e+01    8.995570e-01
  2.391277e+01    8.930124e-01
  2.392865e+01    9.144654e-01
  2.394452e+01    9.021642e-01
  2.396040e+01    9.000295e-01
  2.397627e+01    8.885011e-01
  2.399215e+01    8.902012e-01
  2.400802e+01    8.895035e-01
  2.402390e+01    9.023053e-01
  2.403978e+01    8.997955e-01
  2.405565e+01    9.096476e-01
  2.407153e+01    8.864378e-01
  2.408740e+01    8.938388e-01
  2.410328e+01    8.893465e-01
  2.411915e+01    8.802578e-01
  2.413503e+01    8.841634e-01
  2.415090e+01    8.800144e-01
  2.416678e+01    8.891093e-01
  2.418266e+01    8.976815e-01
  2.419853e+01    8.895420e-01
  2.421441e+01    8.913998e-01
  2.423028e+01    8.661312e-01
  2.424616e+01    8.773467e-01
  2.426203e+01    8.712235e-01
  2.427791e+01    8.876786e-01
  2.429378e+01    8.916681e-01
  2.430966e+01    8.808193e-01
  2.432554e+01    8.928530e-01
  2.434141e+01    8.892378e-01
  2.435729e+01    8.902510e-01
  2.437316e+01    8.957160e-01
  2.438904e+01    8.845596e-01
  2.440491e+01    8.980300e-01
  2.442079e+01    8.953540e-01
  2.443666e+01    8.764980e-01
  2.445254e+01    8.586573e-01
  2.446842e+01    8.750755e-01
  2.448429e+01    8.823842e-01
  2.450017e+01    8.868192e-01
  2.451604e+01    9.010265e-01
  2.453192e+01    8.766763e-01
  2.454779e+01    8.803862e-01
  2.456367e+01    8.830267e-01
  2.457954e+01    8.879687e-01
  2.459542e+01    8.910112e-01
  2.461130e+01    8.776190e-01
  2.462717e+01    8.748420e-01
  2.464305e+01    8.870589e-01
  2.465892e+01    8.996384e-01
  2.467480e+01    9.050187e-01
  2.469067e+01    8.996501e-01
  2.470655e+01    8.964388e-01
  2.472242e+01    8.892136e-01
  2.473830e+01    9.004558e-01
  2.475418e+01    8.756039e-01
  2.477005e+01    8.854147e-01
  2.478593e+01    8.751414e-01
  2.480180e+01    8.807654e-01
  2.481768e+01    8.790786e-01
  2.483355e+01    8.733688e-01
  2.484943e+01    8.796069e-01
  2.486530e+01    8.983826e-01
  2.488118e+01    8.941292e-01
  2.489706e+01    8.918549e-01
  2.491293e+01    8.806272e-01
  2.492881e+01    9.057076e-01
  2.494468e+01    9.010105e-01
  2.496056e+01    8.996820e-01
  2.497643e+01    9.114455e-01
  2.499231e+01    8.961011e-01
  2.500819e+01    8.916674e-01
  2.502406e+01    9.070815e-01
  2.503994e+01    8.964158e-01
  2.505581e+01    9.106012e-01
  2.507169e+01    9.190727e-01
  2.508756e+01    9.131951e-01
  2.510344e+01    9.124331e-01
  2.511931e+01    9.097399e-01
  2.513519e+01    9.071898e-01
  2.515107e+01    9.136674e-01
  2.516694e+01    9.333302e-01
  2.518282e+01    9.320602e-01
  2.519869e+01    9.216675e-01
  2.521457e+01    9.095151e-01
  2.523044e+01    9.336234e-01
  2.524632e+01    9.557233e-01
  2.526219e+01    9.658183e-01
  2.527807e+01    9.711748e-01
  2.529395e+01    9.482514e-01
  2.530982e+01    9.371011e-01
  2.532570e+01    9.547728e-01
  2.534157e+01    9.651273e-01
  2.535745e+01    9.917053e-01
  2.537332e+01    9.791288e-01
  2.538920e+01    9.809495e-01
  2.540507e+01    9.897372e-01
  2.542095e+01    9.901829e-01
  2.543683e+01    1.017164e+00
  2.545270e+01    1.007594e+00
  2.546858e+01    1.030968e+00
  2.548445e+01    1.032831e+00
  2.550033e+01    1.041184e+00
  2.551620e+01    1.061515e+00
  2.553208e+01    1.085069e+00
  2.554795e+01    1.126182e+00
  2.556383e+01    1.131287e+00
  2.557971e+01    1.160063e+00
  2.559558e+01    1.185647e+00
  2.561146e+01    1.222904e+00
  2.562733e+01    1.258650e+00
  2.564321e+01    1.294526e+00
  2.565908e+01    1.353988e+00
  2.567496e+01    1.433526e+00
  2.569083e+01    1.506151e+00
  2.570671e+01    1.584700e+00
  2.572259e+01    1.693025e+00
  2.573846e+01    1.840859e+00
  2.575434e+01    2.013420e+00
  2.577021e+01    2.246392e+00
  2.578609e+01    2.493222e+00
  2.580196e+01    2.810026e+00
  2.581784e+01    3.196826e+00
  2.583371e+01    3.612193e+00
  2.584959e+01    4.134402e+00
  2.586547e+01    4.695568e+00
  2.588134e+01    5.264661e+00
  2.589722e+01    5.811095e+00
  2.591309e+01    6.368781e+00
  2.592897e+01    6.739148e+00
  2.594484e+01    7.037724e+00
  2.596072e+01    7.106194e+00
  2.597660e+01    6.947438e+00
  2.599247e+01    6.576126e+00
  2.600835e+01    5.978889e+00
  2.602422e+01    5.290716e+00
  2.604010e+01    4.630754e+00
  2.605597e+01    3.998696e+00
  2.607185e+01    3.439372e+00
  2.608772e+01    3.008685e+00
  2.610360e+01    2.641323e+00
  2.611948e+01    2.357426e+00
  2.613535e+01    2.128482e+00
  2.615123e+01    1.932980e+00
  2.616710e+01    1.810586e+00
  2.618298e+01    1.677325e+00
  2.619885e+01    1.553872e+00
  2.621473e+01    1.479456e+00
  2.623060e+01    1.414103e+00
  2.624648e+01    1.355555e+00
  2.626236e+01    1.327677e+00
  2.627823e+01    1.254973e+00
  2.629411e+01    1.198833e+00
  2.630998e+01    1.192885e+00
  2.632586e+01    1.157489e+00
  2.634173e+01    1.128492e+00
  2.635761e+01    1.124481e+00
  2.637348e+01    1.090731e+00
  2.638936e+01    1.083983e+00
  2.640524e+01    1.058571e+00
  2.642111e+01    1.041522e+00
  2.643699e+01    1.033813e+00
  2.645286e+01    1.021115e+00
  2.646874e+01    1.022374e+00
  2.648461e+01    1.027324e+00
  2.650049e+01    1.039516e+00
  2.651636e+01    1.043645e+00
  2.653224e+01    1.009253e+00
  2.654812e+01    1.000087e+00
  2.656399e+01    9.940317e-01
  2.657987e+01    9.757268e-01
  2.659574e+01    9.657921e-01
  2.661162e+01    9.767100e-01
  2.662749e+01    9.788471e-01
  2.664337e+01    9.641832e-01
  2.665924e+01    9.622288e-01
  2.667512e+01    9.669475e-01
  2.669100e+01    9.508099e-01
  2.670687e+01    9.616851e-01
  2.672275e+01    9.709650e-01
  2.673862e+01    9.643054e-01
  2.675450e+01    9.658667e-01
  2.677037e+01    9.763054e-01
  2.678625e+01    9.997205e-01
  2.680212e+01    9.800082e-01
  2.681800e+01    9.686553e-01
  2.683388e+01    9.989288e-01
  2.684975e+01    9.849048e-01
  2.686563e+01    9.762536e-01
  2.688150e+01    9.870596e-01
  2.689738e+01    1.028958e+00
  2.691325e+01    1.022751e+00
  2.692913e+01    1.018995e+00
  2.694501e+01    1.016540e+00
  2.696088e+01    1.027540e+00
  2.697676e+01    1.033573e+00
  2.699263e+01    1.064941e+00
  2.700851e+01    1.116483e+00
  2.702438e+01    1.144930e+00
  2.704026e+01    1.185802e+00
  2.705613e+01    1.250729e+00
  2.707201e+01    1.307108e+00
  2.708789e+01    1.403248e+00
  2.710376e+01    1.509616e+00
  2.711964e+01    1.604326e+00
  2.713551e+01    1.697161e+00
  2.715139e+01    1.855813e+00
  2.716726e+01    1.978219e+00
  2.718314e+01    2.077926e+00
  2.719901e+01    2.156692e+00
  2.721489e+01    2.207191e+00
  2.723077e+01    2.138924e+00
  2.724664e+01    2.110812e+00
  2.726252e+01    1.990380e+00
  2.727839e+01    1.857612e+00
  2.729427e+01    1.697608e+00
  2.731014e+01    1.604893e+00
  2.732602e+01    1.470370e+00
  2.734189e+01    1.381454e+00
  2.735777e+01    1.290309e+00
  2.737365e+01    1.206956e+00
  2.738952e+01    1.163124e+00
  2.740540e+01    1.164636e+00
  2.742127e+01    1.093638e+00
  2.743715e+01    1.046681e+00
  2.745302e+01    1.033851e+00
  2.746890e+01    1.035561e+00
  2.748477e+01    9.914691e-01
  2.750065e+01    9.678468e-01
  2.751653e+01    9.675285e-01
  2.753240e+01    9.858662e-01
  2.754828e+01    9.766338e-01
  2.756415e+01    9.662778e-01
  2.758003e+01    9.527153e-01
  2.759590e+01    9.590879e-01
  2.761178e+01    9.532989e-01
  2.762765e+01    9.467257e-01
  2.764353e+01    9.363686e-01
  2.765941e+01    9.317997e-01
  2.767528e+01    9.275798e-01
  2.769116e+01    9.156468e-01
  2.770703e+01    9.207085e-01
  2.772291e+01    9.227231e-01
  2.773878e+01    8.991293e-01
  2.775466e+01    8.953815e-01
  2.777054e+01    9.015433e-01
  2.778641e+01    8.920139e-01
  2.780229e+01    8.743070e-01
  2.781816e+01    8.816739e-01
  2.783404e+01    9.063135e-01
  2.784991e+01    8.966156e-01
  2.786579e+01    8.826696e-01
  2.788166e+01    8.831275e-01
  2.789754e+01    8.728127e-01
  2.791342e+01    8.812616e-01
  2.792929e+01    8.931799e-01
  2.794517e+01    8.709796e-01
  2.796104e+01    8.358417e-01
  2.797692e+01    8.674738e-01
  2.799279e+01    8.835471e-01
  2.800867e+01    8.820882e-01
  2.802454e+01    8.694324e-01
  2.804042e+01    8.512276e-01
  2.805630e+01    8.679944e-01
  2.807217e+01    8.865209e-01
  2.808805e+01    8.448363e-01
  2.810392e+01    8.554832e-01
  2.811980e+01    8.405796e-01
  2.813567e+01    8.237722e-01
  2.815155e+01    8.477343e-01
  2.816742e+01    8.485425e-01
  2.818330e+01    8.589815e-01
  2.819918e+01    8.431374e-01
  2.821505e+01    8.537676e-01
  2.823093e+01    8.446456e-01
  2.824680e+01    8.642982e-01
  2.826268e+01    8.630761e-01
  2.827855e+01    8.695855e-01
  2.829443e+01    8.627895e-01
  2.831030e+01    8.415875e-01
  2.832618e+01    8.603405e-01
  2.834206e+01    8.356972e-01
  2.835793e+01    8.327790e-01
  2.837381e+01    8.607740e-01
  2.838968e+01    8.600308e-01
  2.840556e+01    8.556321e-01
  2.842143e+01    8.529446e-01
  2.843731e+01    8.390613e-01
  2.845318e+01    8.340378e-01
  2.846906e+01    8.340793e-01
  2.848494e+01    8.246372e-01
  2.850081e+01    8.447031e-01
  2.851669e+01    8.443799e-01
  2.853256e+01    8.524975e-01
  2.854844e+01    8.399474e-01
  2.856431e+01    8.450052e-01
  2.858019e+01    8.371665e-01
  2.859606e+01    8.370539e-01
  2.861194e+01    8.356503e-01
  2.862782e+01    8.267831e-01
  2.864369e+01    8.105310e-01
  2.865957e+01    8.129084e-01
  2.867544e+01    8.474444e-01
  2.869132e+01    8.551387e-01
  2.870719e+01    8.470011e-01
  2.872307e+01    8.418382e-01
  2.873895e+01    8.227385e-01
  2.875482e+01    8.154501e-01
  2.877070e+01    8.291879e-01
  2.878657e+01    8.283777e-01
  2.880245e+01    8.190684e-01
  2.881832e+01    8.364877e-01
  2.883420e+01    8.168976e-01
  2.885007e+01    8.005173e-01
  2.886595e+01    8.192151e-01
  2.888183e+01    8.154076e-01
  2.889770e+01    8.215959e-01
  2.891358e+01    8.222227e-01
  2.892945e+01    7.945778e-01
  2.894533e+01    8.247470e-01
  2.896120e+01    8.221993e-01
  2.897708e+01    8.194163e-01
  2.899295e+01    8.311454e-01
  2.900883e+01    8.131133e-01
  2.902471e+01    8.166264e-01
  2.904058e+01    8.289635e-01
  2.905646e+01    8.160154e-01
  2.907233e+01    8.179579e-01
  2.908821e+01    8.107107e-01
  2.910408e+01    8.181072e-01
  2.911996e+01    8.210590e-01
  2.913583e+01    7.996356e-01
  2.915171e+01    8.235824e-01
  2.916759e+01    8.313887e-01
  2.918346e+01    8.122728e-01
  2.919934e+01    7.999068e-01
  2.921521e+01    7.927018e-01
  2.923109e+01    7.977587e-01
  2.924696e+01    8.002731e-01
  2.926284e+01    8.187317e-01
  2.927871e+01    8.128713e-01
  2.929459e+01    8.108374e-01
  2.931047e+01    8.131430e-01
  2.932634e+01    8.332638e-01
  2.934222e+01    8.166278e-01
  2.935809e+01    7.976472e-01
  2.937397e+01    8.354299e-01
  2.938984e+01    8.123879e-01
  2.940572e+01    7.984977e-01
  2.942159e+01    7.972197e-01
  2.943747e+01    8.144786e-01
  2.945335e+01    8.044610e-01
  2.946922e+01    8.152995e-01
  2.948510e+01    8.124310e-01
  2.950097e+01    8.042859e-01
  2.951685e+01    8.013291e-01
  2.953272e+01    8.108550e-01
  2.954860e+01    8.131123e-01
  2.956447e+01    8.000511e-01
  2.958035e+01    7.777838e-01
  2.959623e+01    7.922059e-01
  2.961210e+01    8.047384e-01
  2.962798e+01    8.138451e-01
  2.964385e+01    8.097223e-01
  2.965973e+01    8.164058e-01
  2.967560e+01    8.248292e-01
  2.969148e+01    8.222830e-01
  2.970736e+01    8.008292e-01
  2.972323e+01    8.004000e-01
  2.973911e+01    8.101617e-01
  2.975498e+01    7.908227e-01
  2.977086e+01    8.118337e-01
  2.978673e+01    8.091944e-01
  2.980261e+01    7.919979e-01
  2.981848e+01    8.005858e-01
  2.983436e+01    8.034884e-01
  2.985024e+01    7.949741e-01
  2.986611e+01    7.940866e-01
  2.988199e+01    8.012850e-01
  2.989786e+01    7.853893e-01
  2.991374e+01    7.936883e-01
  2.992961e+01    7.935377e-01
  2.994549e+01    7.942064e-01
  2.996136e+01    8.102344e-01
  2.997724e+01    8.195107e-01
  2.999312e+01    8.119068e-01
  3.000899e+01    8.225601e-01
  3.002487e+01    8.103783e-01
  3.004074e+01    8.129151e-01
  3.005662e+01    8.096457e-01
  3.007249e+01    8.002471e-01
  3.008837e+01    8.199900e-01
  3.010424e+01    7.936543e-01
  3.012012e+01    7.875982e-01
  3.013600e+01    7.893338e-01
  3.015187e+01    8.143817e-01
  3.016775e+01    8.066457e-01
  3.018362e+01    7.962223e-01
  3.019950e+01    7.733325e-01
  3.021537e+01    7.770168e-01
  3.023125e+01    7.865401e-01
  3.024712e+01    7.825140e-01
  3.026300e+01    7.835171e-01
  3.027888e+01    7.947063e-01
  3.029475e+01    7.781066e-01
  3.031063e+01    7.860211e-01
  3.032650e+01    8.060661e-01
  3.034238e+01    7.875966e-01
  3.035825e+01    7.992412e-01
  3.037413e+01    8.035248e-01
  3.039000e+01    7.857491e-01
  3.040588e+01    7.750526e-01
  3.042176e+01    7.977784e-01
  3.043763e+01    7.960570e-01
  3.045351e+01    7.764953e-01
  3.046938e+01    7.776577e-01
  3.048526e+01    8.066698e-01
  3.050113e+01    7.778486e-01
  3.051701e+01    7.756447e-01
  3.053288e+01    7.756059e-01
  3.054876e+01    7.871452e-01
  3.056464e+01    7.732016e-01
  3.058051e+01    7.676233e-01
  3.059639e+01    7.786165e-01
  3.061226e+01    7.792444e-01
  3.062814e+01    7.729366e-01
  3.064401e+01    7.801493e-01
  3.065989e+01    7.959123e-01
  3.067577e+01    8.037268e-01
  3.069164e+01    7.886859e-01
  3.070752e+01    7.968119e-01
  3.072339e+01    7.965470e-01
  3.073927e+01    7.799055e-01
  3.075514e+01    7.871061e-01
  3.077102e+01    7.711589e-01
  3.078689e+01    7.797549e-01
  3.080277e+01    7.896445e-01
  3.081865e+01    7.796172e-01
  3.083452e+01    7.860554e-01
  3.085040e+01    8.077815e-01
  3.086627e+01    7.914128e-01
  3.088215e+01    7.791470e-01
  3.089802e+01    7.867261e-01
  3.091390e+01    7.941277e-01
  3.092977e+01    7.792714e-01
  3.094565e+01    7.757719e-01
  3.096153e+01    7.817413e-01
  3.097740e+01    7.888501e-01
  3.099328e+01    7.807662e-01
  3.100915e+01    7.880441e-01
  3.102503e+01    7.913048e-01
  3.104090e+01    7.885845e-01
  3.105678e+01    7.743063e-01
  3.107265e+01    7.880118e-01
  3.108853e+01    7.877535e-01
  3.110441e+01    7.989040e-01
  3.112028e+01    7.736429e-01
  3.113616e+01    7.589792e-01
  3.115203e+01    8.026865e-01
  3.116791e+01    7.964849e-01
  3.118378e+01    7.959668e-01
  3.119966e+01    7.962769e-01
  3.121553e+01    7.832347e-01
  3.123141e+01    7.932711e-01
  3.124729e+01    8.048858e-01
  3.126316e+01    8.438759e-01
  3.127904e+01    8.170245e-01
  3.129491e+01    7.907397e-01
  3.131079e+01    7.971830e-01
  3.132666e+01    7.920625e-01
  3.134254e+01    8.054663e-01
  3.135841e+01    8.184748e-01
  3.137429e+01    8.184288e-01
  3.139017e+01    8.128299e-01
  3.140604e+01    8.024728e-01
  3.142192e+01    8.240782e-01
  3.143779e+01    8.221530e-01
  3.145367e+01    8.315036e-01
  3.146954e+01    8.309132e-01
  3.148542e+01    8.149867e-01
  3.150129e+01    8.433650e-01
  3.151717e+01    8.432621e-01
  3.153305e+01    8.461809e-01
  3.154892e+01    8.493793e-01
  3.156480e+01    8.355206e-01
  3.158067e+01    8.416678e-01
  3.159655e+01    8.650966e-01
  3.161242e+01    9.065257e-01
  3.162830e+01    9.175564e-01
  3.164418e+01    9.033757e-01
  3.166005e+01    9.312160e-01
  3.167593e+01    9.738159e-01
  3.169180e+01    1.017434e+00
  3.170768e+01    1.048987e+00
  3.172355e+01    1.066062e+00
  3.173943e+01    1.121037e+00
  3.175530e+01    1.175552e+00
  3.177118e+01    1.262376e+00
  3.178706e+01    1.337929e+00
  3.180293e+01    1.492198e+00
  3.181881e+01    1.573459e+00
  3.183468e+01    1.692123e+00
  3.185056e+01    1.837412e+00
  3.186643e+01    1.926018e+00
  3.188231e+01    2.033925e+00
  3.189818e+01    2.063082e+00
  3.191406e+01    2.017854e+00
  3.192994e+01    2.008936e+00
  3.194581e+01    1.957649e+00
  3.196169e+01    1.821941e+00
  3.197756e+01    1.681179e+00
  3.199344e+01    1.560546e+00
  3.200931e+01    1.430020e+00
  3.202519e+01    1.344003e+00
  3.204106e+01    1.251492e+00
  3.205694e+01    1.175168e+00
  3.207282e+01    1.111452e+00
  3.208869e+01    1.042822e+00
  3.210457e+01    1.024162e+00
  3.212044e+01    9.897190e-01
  3.213632e+01    9.520687e-01
  3.215219e+01    9.303026e-01
  3.216807e+01    9.056852e-01
  3.218394e+01    8.837845e-01
  3.219982e+01    8.707489e-01
  3.221570e+01    8.595556e-01
  3.223157e+01    8.438793e-01
  3.224745e+01    8.517869e-01
  3.226332e+01    8.429267e-01
  3.227920e+01    8.345020e-01
  3.229507e+01    8.163084e-01
  3.231095e+01    7.850467e-01
  3.232682e+01    8.049668e-01
  3.234270e+01    8.025802e-01
  3.235858e+01    8.049350e-01
  3.237445e+01    8.011081e-01
  3.239033e+01    7.871932e-01
  3.240620e+01    8.064043e-01
  3.242208e+01    8.166651e-01
  3.243795e+01    7.937216e-01
  3.245383e+01    8.060062e-01
  3.246970e+01    7.964540e-01
  3.248558e+01    7.541850e-01
  3.250146e+01    7.497950e-01
  3.251733e+01    7.803025e-01
  3.253321e+01    7.782149e-01
  3.254908e+01    7.825356e-01
