# == pyFAI calibration ==
# Distance Sample to Detector: 0.3999999939076516 m
# PONI: 9.750e-02, 1.135e-01 m
# Rotations: -0.000175 0.000000 -0.000000 rad
# 
# == Fit2d calibration ==
# Distance Sample-beamCenter: 400.000 mm
# Center: x=1514.000, y=1300.000 pix
# Tilt: 0.010 deg  TiltPlanRot: 0.010 deg
# 
# Detector Detector	 Spline= None	 PixelSize= 7.500e-05, 7.500e-05 m
#    Detector has a mask: False 
#    Detector has a dark current: False 
#    detector has a flat field: False 
# 
# Wavelength: 6.888e-11 m
# Mask applied: user provided
# Dark current applied: False
# Flat field applied: False
# Polarization factor: 0.99
# Normalization factor: 1.0
# --> /home/myspot/data/2024_07_Rosario/Ru-CGO-ex/2024-07-27_003_Ru-CGO-ex_Reaction_dwell_000023_data_000044.dat
#       q_nm^-1             I 
  2.003187e-02    4.454093e-02
  3.590745e-02    3.955136e-01
  5.178302e-02    3.284388e-01
  6.765859e-02    1.550732e-01
  8.353417e-02    1.886470e-01
  9.940974e-02    2.031116e-01
  1.152853e-01    4.401365e-02
  1.311609e-01    9.452941e-02
  1.470365e-01    8.488648e-02
  1.629120e-01    3.038814e-02
  1.787876e-01    8.255994e-03
  1.946632e-01    6.400497e-02
  2.105388e-01    2.741816e-02
  2.264143e-01    3.587876e-02
  2.422899e-01    4.344592e-02
  2.581655e-01    7.425366e-03
  2.740411e-01    8.933361e-03
  2.899166e-01    2.423520e-02
  3.057922e-01    1.389998e-02
  3.216678e-01    2.932407e-02
  3.375433e-01    6.434189e-02
  3.534189e-01    3.362016e-02
  3.692945e-01    2.900840e-02
  3.851701e-01    5.067585e-02
  4.010456e-01    6.376288e-02
  4.169212e-01    2.450773e-02
  4.327968e-01    2.370135e-02
  4.486724e-01    3.137570e-02
  4.645479e-01    3.495631e-02
  4.804235e-01    5.529428e-02
  4.962991e-01    6.599780e-02
  5.121747e-01    3.265800e-02
  5.280502e-01    4.390883e-02
  5.439258e-01    4.848680e-02
  5.598014e-01    6.730829e-02
  5.756770e-01    6.396679e-02
  5.915525e-01    5.142435e-02
  6.074281e-01    3.541883e-02
  6.233037e-01    4.391665e-02
  6.391793e-01    3.199303e-02
  6.550548e-01    2.385795e-02
  6.709304e-01    3.918086e-02
  6.868060e-01    3.585304e-02
  7.026815e-01    3.198082e-02
  7.185571e-01    5.725262e-02
  7.344327e-01    6.492633e-02
  7.503083e-01    5.052468e-02
  7.661838e-01    6.802084e-02
  7.820594e-01    1.345285e-01
  7.979350e-01    1.421259e-01
  8.138106e-01    1.871783e-01
  8.296861e-01    2.871510e-01
  8.455617e-01    3.880701e-01
  8.614373e-01    3.947130e-01
  8.773129e-01    4.945677e-01
  8.931884e-01    5.766997e-01
  9.090640e-01    6.761392e-01
  9.249396e-01    7.928612e-01
  9.408152e-01    8.759480e-01
  9.566907e-01    8.938622e-01
  9.725663e-01    9.872974e-01
  9.884419e-01    1.106793e+00
  1.004317e+00    1.174069e+00
  1.020193e+00    1.304360e+00
  1.036069e+00    1.472811e+00
  1.051944e+00    1.536714e+00
  1.067820e+00    1.516283e+00
  1.083695e+00    1.496172e+00
  1.099571e+00    1.518385e+00
  1.115446e+00    1.568389e+00
  1.131322e+00    1.588415e+00
  1.147198e+00    1.587937e+00
  1.163073e+00    1.676088e+00
  1.178949e+00    1.771449e+00
  1.194824e+00    1.772663e+00
  1.210700e+00    2.103349e+00
  1.226575e+00    2.237655e+00
  1.242451e+00    2.360412e+00
  1.258327e+00    2.432762e+00
  1.274202e+00    2.639162e+00
  1.290078e+00    2.589307e+00
  1.305953e+00    2.689001e+00
  1.321829e+00    2.676418e+00
  1.337705e+00    2.622434e+00
  1.353580e+00    2.660959e+00
  1.369456e+00    2.687281e+00
  1.385331e+00    2.891903e+00
  1.401207e+00    2.859632e+00
  1.417082e+00    2.785700e+00
  1.432958e+00    2.874248e+00
  1.448834e+00    2.948008e+00
  1.464709e+00    3.055335e+00
  1.480585e+00    3.000370e+00
  1.496460e+00    3.083593e+00
  1.512336e+00    3.208840e+00
  1.528211e+00    3.165307e+00
  1.544087e+00    3.209660e+00
  1.559963e+00    3.236749e+00
  1.575838e+00    3.273314e+00
  1.591714e+00    3.130198e+00
  1.607589e+00    3.205634e+00
  1.623465e+00    3.237738e+00
  1.639340e+00    3.117500e+00
  1.655216e+00    3.140809e+00
  1.671092e+00    3.159463e+00
  1.686967e+00    3.101590e+00
  1.702843e+00    3.099216e+00
  1.718718e+00    3.108694e+00
  1.734594e+00    3.054859e+00
  1.750469e+00    3.111126e+00
  1.766345e+00    3.165111e+00
  1.782221e+00    3.103516e+00
  1.798096e+00    3.066899e+00
  1.813972e+00    3.061142e+00
  1.829847e+00    3.109455e+00
  1.845723e+00    3.079590e+00
  1.861598e+00    3.060686e+00
  1.877474e+00    3.022185e+00
  1.893350e+00    3.106773e+00
  1.909225e+00    2.993438e+00
  1.925101e+00    2.937655e+00
  1.940976e+00    3.105033e+00
  1.956852e+00    3.075533e+00
  1.972727e+00    3.042352e+00
  1.988603e+00    3.079720e+00
  2.004479e+00    3.058858e+00
  2.020354e+00    3.170361e+00
  2.036230e+00    3.225844e+00
  2.052105e+00    3.194793e+00
  2.067981e+00    3.177327e+00
  2.083856e+00    3.255323e+00
  2.099732e+00    3.161195e+00
  2.115608e+00    3.202800e+00
  2.131483e+00    3.174927e+00
  2.147359e+00    3.158062e+00
  2.163234e+00    3.046830e+00
  2.179110e+00    3.140370e+00
  2.194985e+00    3.063771e+00
  2.210861e+00    3.159465e+00
  2.226737e+00    3.210165e+00
  2.242612e+00    3.143372e+00
  2.258488e+00    3.113514e+00
  2.274363e+00    3.151630e+00
  2.290239e+00    3.100651e+00
  2.306115e+00    3.157457e+00
  2.321990e+00    3.146857e+00
  2.337866e+00    3.248820e+00
  2.353741e+00    3.177262e+00
  2.369617e+00    3.186160e+00
  2.385492e+00    3.232289e+00
  2.401368e+00    3.251093e+00
  2.417244e+00    3.194557e+00
  2.433119e+00    3.257318e+00
  2.448995e+00    3.240899e+00
  2.464870e+00    3.202861e+00
  2.480746e+00    3.173497e+00
  2.496621e+00    3.113094e+00
  2.512497e+00    3.096401e+00
  2.528373e+00    3.255048e+00
  2.544248e+00    3.258953e+00
  2.560124e+00    3.196107e+00
  2.575999e+00    3.175388e+00
  2.591875e+00    3.165822e+00
  2.607750e+00    3.285112e+00
  2.623626e+00    3.258260e+00
  2.639502e+00    3.128054e+00
  2.655377e+00    3.163587e+00
  2.671253e+00    3.302639e+00
  2.687128e+00    3.373008e+00
  2.703004e+00    3.247414e+00
  2.718879e+00    3.204783e+00
  2.734755e+00    3.253871e+00
  2.750631e+00    3.356791e+00
  2.766506e+00    3.259933e+00
  2.782382e+00    3.246054e+00
  2.798257e+00    3.375093e+00
  2.814133e+00    3.311655e+00
  2.830008e+00    3.397558e+00
  2.845884e+00    3.356992e+00
  2.861760e+00    3.276047e+00
  2.877635e+00    3.290736e+00
  2.893511e+00    3.220885e+00
  2.909386e+00    3.308524e+00
  2.925262e+00    3.421321e+00
  2.941137e+00    3.323314e+00
  2.957013e+00    3.313762e+00
  2.972889e+00    3.445492e+00
  2.988764e+00    3.433584e+00
  3.004640e+00    3.328860e+00
  3.020515e+00    3.382391e+00
  3.036391e+00    3.382308e+00
  3.052266e+00    3.433623e+00
  3.068142e+00    3.472558e+00
  3.084018e+00    3.395864e+00
  3.099893e+00    3.302393e+00
  3.115769e+00    3.326422e+00
  3.131644e+00    3.387226e+00
  3.147520e+00    3.388045e+00
  3.163395e+00    3.343901e+00
  3.179271e+00    3.398789e+00
  3.195147e+00    3.409809e+00
  3.211022e+00    3.483678e+00
  3.226898e+00    3.461341e+00
  3.242773e+00    3.424806e+00
  3.258649e+00    3.461039e+00
  3.274525e+00    3.399500e+00
  3.290400e+00    3.279186e+00
  3.306276e+00    3.349489e+00
  3.322151e+00    3.401134e+00
  3.338027e+00    3.357433e+00
  3.353902e+00    3.412730e+00
  3.369778e+00    3.457033e+00
  3.385654e+00    3.461659e+00
  3.401529e+00    3.487772e+00
  3.417405e+00    3.490674e+00
  3.433280e+00    3.410385e+00
  3.449156e+00    3.399112e+00
  3.465031e+00    3.438807e+00
  3.480907e+00    3.490628e+00
  3.496783e+00    3.506322e+00
  3.512658e+00    3.506822e+00
  3.528534e+00    3.466669e+00
  3.544409e+00    3.471168e+00
  3.560285e+00    3.450098e+00
  3.576160e+00    3.507999e+00
  3.592036e+00    3.534250e+00
  3.607912e+00    3.515093e+00
  3.623787e+00    3.517338e+00
  3.639663e+00    3.496689e+00
  3.655538e+00    3.426165e+00
  3.671414e+00    3.458511e+00
  3.687289e+00    3.548345e+00
  3.703165e+00    3.409216e+00
  3.719041e+00    3.394312e+00
  3.734916e+00    3.506273e+00
  3.750792e+00    3.463935e+00
  3.766667e+00    3.499101e+00
  3.782543e+00    3.487266e+00
  3.798418e+00    3.510303e+00
  3.814294e+00    3.455956e+00
  3.830170e+00    3.552326e+00
  3.846045e+00    3.498897e+00
  3.861921e+00    3.482615e+00
  3.877796e+00    3.488941e+00
  3.893672e+00    3.527138e+00
  3.909547e+00    3.543145e+00
  3.925423e+00    3.504223e+00
  3.941299e+00    3.594100e+00
  3.957174e+00    3.577219e+00
  3.973050e+00    3.506131e+00
  3.988925e+00    3.530909e+00
  4.004801e+00    3.526800e+00
  4.020676e+00    3.492436e+00
  4.036552e+00    3.527633e+00
  4.052428e+00    3.617878e+00
  4.068303e+00    3.527792e+00
  4.084179e+00    3.575841e+00
  4.100054e+00    3.617182e+00
  4.115930e+00    3.614570e+00
  4.131806e+00    3.500337e+00
  4.147681e+00    3.597923e+00
  4.163557e+00    3.555730e+00
  4.179432e+00    3.554015e+00
  4.195308e+00    3.525418e+00
  4.211183e+00    3.455263e+00
  4.227059e+00    3.451978e+00
  4.242935e+00    3.626362e+00
  4.258810e+00    3.667006e+00
  4.274686e+00    3.571757e+00
  4.290561e+00    3.601829e+00
  4.306437e+00    3.553447e+00
  4.322312e+00    3.608190e+00
  4.338188e+00    3.544761e+00
  4.354064e+00    3.600821e+00
  4.369939e+00    3.596568e+00
  4.385815e+00    3.648681e+00
  4.401690e+00    3.671538e+00
  4.417566e+00    3.679050e+00
  4.433441e+00    3.595561e+00
  4.449317e+00    3.635446e+00
  4.465193e+00    3.665647e+00
  4.481068e+00    3.645985e+00
  4.496944e+00    3.617850e+00
  4.512819e+00    3.677994e+00
  4.528695e+00    3.691665e+00
  4.544570e+00    3.592267e+00
  4.560446e+00    3.663736e+00
  4.576322e+00    3.691653e+00
  4.592197e+00    3.631188e+00
  4.608073e+00    3.608929e+00
  4.623948e+00    3.576900e+00
  4.639824e+00    3.509588e+00
  4.655699e+00    3.583913e+00
  4.671575e+00    3.584638e+00
  4.687451e+00    3.581086e+00
  4.703326e+00    3.628864e+00
  4.719202e+00    3.672005e+00
  4.735077e+00    3.668957e+00
  4.750953e+00    3.595640e+00
  4.766828e+00    3.599515e+00
  4.782704e+00    3.582798e+00
  4.798580e+00    3.631644e+00
  4.814455e+00    3.717229e+00
  4.830331e+00    3.806116e+00
  4.846206e+00    3.663708e+00
  4.862082e+00    3.592015e+00
  4.877957e+00    3.682121e+00
  4.893833e+00    3.633993e+00
  4.909709e+00    3.645191e+00
  4.925584e+00    3.643555e+00
  4.941460e+00    3.626406e+00
  4.957335e+00    3.691587e+00
  4.973211e+00    3.675003e+00
  4.989086e+00    3.693778e+00
  5.004962e+00    3.708584e+00
  5.020838e+00    3.600169e+00
  5.036713e+00    3.636655e+00
  5.052589e+00    3.740391e+00
  5.068464e+00    3.706414e+00
  5.084340e+00    3.677177e+00
  5.100216e+00    3.632957e+00
  5.116091e+00    3.744686e+00
  5.131967e+00    3.657240e+00
  5.147842e+00    3.616198e+00
  5.163718e+00    3.591352e+00
  5.179593e+00    3.590303e+00
  5.195469e+00    3.707566e+00
  5.211345e+00    3.739214e+00
  5.227220e+00    3.662468e+00
  5.243096e+00    3.613234e+00
  5.258971e+00    3.640187e+00
  5.274847e+00    3.617902e+00
  5.290722e+00    3.665294e+00
  5.306598e+00    3.641635e+00
  5.322474e+00    3.631117e+00
  5.338349e+00    3.649496e+00
  5.354225e+00    3.603023e+00
  5.370100e+00    3.671354e+00
  5.385976e+00    3.695667e+00
  5.401851e+00    3.628564e+00
  5.417727e+00    3.612790e+00
  5.433603e+00    3.729411e+00
  5.449478e+00    3.741741e+00
  5.465354e+00    3.616345e+00
  5.481229e+00    3.628014e+00
  5.497105e+00    3.622234e+00
  5.512980e+00    3.652473e+00
  5.528856e+00    3.689834e+00
  5.544732e+00    3.605367e+00
  5.560607e+00    3.493777e+00
  5.576483e+00    3.544234e+00
  5.592358e+00    3.577393e+00
  5.608234e+00    3.701959e+00
  5.624109e+00    3.622517e+00
  5.639985e+00    3.561848e+00
  5.655861e+00    3.635407e+00
  5.671736e+00    3.577653e+00
  5.687612e+00    3.567435e+00
  5.703487e+00    3.573805e+00
  5.719363e+00    3.599047e+00
  5.735238e+00    3.637288e+00
  5.751114e+00    3.569321e+00
  5.766990e+00    3.496002e+00
  5.782865e+00    3.572032e+00
  5.798741e+00    3.679141e+00
  5.814616e+00    3.645248e+00
  5.830492e+00    3.614293e+00
  5.846367e+00    3.572747e+00
  5.862243e+00    3.574004e+00
  5.878119e+00    3.571688e+00
  5.893994e+00    3.562676e+00
  5.909870e+00    3.582509e+00
  5.925745e+00    3.558272e+00
  5.941621e+00    3.591259e+00
  5.957497e+00    3.633191e+00
  5.973372e+00    3.604306e+00
  5.989248e+00    3.562066e+00
  6.005123e+00    3.502120e+00
  6.020999e+00    3.533108e+00
  6.036874e+00    3.633565e+00
  6.052750e+00    3.604023e+00
  6.068626e+00    3.585269e+00
  6.084501e+00    3.717425e+00
  6.100377e+00    3.678203e+00
  6.116252e+00    3.623588e+00
  6.132128e+00    3.678624e+00
  6.148003e+00    3.609145e+00
  6.163879e+00    3.657448e+00
  6.179755e+00    3.632415e+00
  6.195630e+00    3.593680e+00
  6.211506e+00    3.498273e+00
  6.227381e+00    3.526433e+00
  6.243257e+00    3.595650e+00
  6.259132e+00    3.626425e+00
  6.275008e+00    3.572135e+00
  6.290884e+00    3.540686e+00
  6.306759e+00    3.498060e+00
  6.322635e+00    3.545636e+00
  6.338510e+00    3.626916e+00
  6.354386e+00    3.599062e+00
  6.370261e+00    3.614227e+00
  6.386137e+00    3.537886e+00
  6.402013e+00    3.515374e+00
  6.417888e+00    3.514476e+00
  6.433764e+00    3.617800e+00
  6.449639e+00    3.605517e+00
  6.465515e+00    3.573299e+00
  6.481390e+00    3.559586e+00
  6.497266e+00    3.517972e+00
  6.513142e+00    3.564869e+00
  6.529017e+00    3.602368e+00
  6.544893e+00    3.567280e+00
  6.560768e+00    3.606699e+00
  6.576644e+00    3.640159e+00
  6.592519e+00    3.652482e+00
  6.608395e+00    3.591917e+00
  6.624271e+00    3.524874e+00
  6.640146e+00    3.564188e+00
  6.656022e+00    3.516785e+00
  6.671897e+00    3.556507e+00
  6.687773e+00    3.569586e+00
  6.703648e+00    3.538586e+00
  6.719524e+00    3.519461e+00
  6.735400e+00    3.548265e+00
  6.751275e+00    3.588422e+00
  6.767151e+00    3.596396e+00
  6.783026e+00    3.525193e+00
  6.798902e+00    3.550108e+00
  6.814777e+00    3.577731e+00
  6.830653e+00    3.592872e+00
  6.846529e+00    3.575527e+00
  6.862404e+00    3.593672e+00
  6.878280e+00    3.552532e+00
  6.894155e+00    3.516419e+00
  6.910031e+00    3.513846e+00
  6.925907e+00    3.539050e+00
  6.941782e+00    3.528521e+00
  6.957658e+00    3.512081e+00
  6.973533e+00    3.483905e+00
  6.989409e+00    3.510711e+00
  7.005284e+00    3.577233e+00
  7.021160e+00    3.561931e+00
  7.037036e+00    3.568278e+00
  7.052911e+00    3.554101e+00
  7.068787e+00    3.592973e+00
  7.084662e+00    3.631392e+00
  7.100538e+00    3.507797e+00
  7.116413e+00    3.494253e+00
  7.132289e+00    3.570023e+00
  7.148165e+00    3.538378e+00
  7.164040e+00    3.519998e+00
  7.179916e+00    3.542804e+00
  7.195791e+00    3.553712e+00
  7.211667e+00    3.589347e+00
  7.227542e+00    3.540340e+00
  7.243418e+00    3.532713e+00
  7.259294e+00    3.612318e+00
  7.275169e+00    3.544845e+00
  7.291045e+00    3.505474e+00
  7.306920e+00    3.490551e+00
  7.322796e+00    3.549741e+00
  7.338671e+00    3.599697e+00
  7.354547e+00    3.539219e+00
  7.370423e+00    3.498077e+00
  7.386298e+00    3.472440e+00
  7.402174e+00    3.556289e+00
  7.418049e+00    3.552420e+00
  7.433925e+00    3.512918e+00
  7.449800e+00    3.555169e+00
  7.465676e+00    3.538363e+00
  7.481552e+00    3.514804e+00
  7.497427e+00    3.506312e+00
  7.513303e+00    3.486752e+00
  7.529178e+00    3.456372e+00
  7.545054e+00    3.474627e+00
  7.560929e+00    3.501093e+00
  7.576805e+00    3.495452e+00
  7.592681e+00    3.522239e+00
  7.608556e+00    3.544853e+00
  7.624432e+00    3.497164e+00
  7.640307e+00    3.485560e+00
  7.656183e+00    3.478011e+00
  7.672058e+00    3.430487e+00
  7.687934e+00    3.448361e+00
  7.703810e+00    3.512075e+00
  7.719685e+00    3.487570e+00
  7.735561e+00    3.432053e+00
  7.751436e+00    3.471543e+00
  7.767312e+00    3.431458e+00
  7.783187e+00    3.457511e+00
  7.799063e+00    3.455580e+00
  7.814939e+00    3.462322e+00
  7.830814e+00    3.517011e+00
  7.846690e+00    3.504027e+00
  7.862565e+00    3.467125e+00
  7.878441e+00    3.468821e+00
  7.894317e+00    3.477864e+00
  7.910192e+00    3.384490e+00
  7.926068e+00    3.471042e+00
  7.941943e+00    3.451192e+00
  7.957819e+00    3.410456e+00
  7.973694e+00    3.473090e+00
  7.989570e+00    3.543751e+00
  8.005446e+00    3.426975e+00
  8.021321e+00    3.404170e+00
  8.037197e+00    3.449048e+00
  8.053072e+00    3.461635e+00
  8.068948e+00    3.412914e+00
  8.084823e+00    3.385091e+00
  8.100699e+00    3.426614e+00
  8.116575e+00    3.541101e+00
  8.132450e+00    3.501479e+00
  8.148326e+00    3.517804e+00
  8.164201e+00    3.549541e+00
  8.180077e+00    3.564795e+00
  8.195952e+00    3.504099e+00
  8.211828e+00    3.474041e+00
  8.227704e+00    3.477012e+00
  8.243579e+00    3.409189e+00
  8.259455e+00    3.405666e+00
  8.275330e+00    3.438650e+00
  8.291206e+00    3.439361e+00
  8.307081e+00    3.409762e+00
  8.322957e+00    3.416913e+00
  8.338833e+00    3.474635e+00
  8.354708e+00    3.407165e+00
  8.370584e+00    3.442896e+00
  8.386459e+00    3.466116e+00
  8.402335e+00    3.397838e+00
  8.418210e+00    3.443065e+00
  8.434086e+00    3.411414e+00
  8.449962e+00    3.402417e+00
  8.465837e+00    3.414645e+00
  8.481713e+00    3.375737e+00
  8.497588e+00    3.398286e+00
  8.513464e+00    3.433102e+00
  8.529339e+00    3.378197e+00
  8.545215e+00    3.393828e+00
  8.561091e+00    3.388042e+00
  8.576966e+00    3.334697e+00
  8.592842e+00    3.396626e+00
  8.608717e+00    3.391009e+00
  8.624593e+00    3.317496e+00
  8.640468e+00    3.339993e+00
  8.656344e+00    3.362863e+00
  8.672220e+00    3.431276e+00
  8.688095e+00    3.364839e+00
  8.703971e+00    3.377292e+00
  8.719846e+00    3.446946e+00
  8.735722e+00    3.427473e+00
  8.751598e+00    3.375046e+00
  8.767473e+00    3.310773e+00
  8.783349e+00    3.333115e+00
  8.799224e+00    3.356216e+00
  8.815100e+00    3.363114e+00
  8.830975e+00    3.356869e+00
  8.846851e+00    3.331590e+00
  8.862727e+00    3.323103e+00
  8.878602e+00    3.353016e+00
  8.894478e+00    3.346742e+00
  8.910353e+00    3.338824e+00
  8.926229e+00    3.349651e+00
  8.942104e+00    3.334461e+00
  8.957980e+00    3.288832e+00
  8.973856e+00    3.346532e+00
  8.989731e+00    3.312995e+00
  9.005607e+00    3.325163e+00
  9.021482e+00    3.297743e+00
  9.037358e+00    3.284495e+00
  9.053233e+00    3.285136e+00
  9.069109e+00    3.261104e+00
  9.084985e+00    3.208615e+00
  9.100860e+00    3.213652e+00
  9.116736e+00    3.319995e+00
  9.132611e+00    3.323704e+00
  9.148487e+00    3.270249e+00
  9.164362e+00    3.281148e+00
  9.180238e+00    3.266128e+00
  9.196114e+00    3.272867e+00
  9.211989e+00    3.262599e+00
  9.227865e+00    3.336053e+00
  9.243740e+00    3.340936e+00
  9.259616e+00    3.305029e+00
  9.275491e+00    3.260417e+00
  9.291367e+00    3.232011e+00
  9.307243e+00    3.274670e+00
  9.323118e+00    3.235478e+00
  9.338994e+00    3.199995e+00
  9.354869e+00    3.184052e+00
  9.370745e+00    3.299605e+00
  9.386620e+00    3.244086e+00
  9.402496e+00    3.244770e+00
  9.418372e+00    3.279505e+00
  9.434247e+00    3.266512e+00
  9.450123e+00    3.251816e+00
  9.465998e+00    3.234748e+00
  9.481874e+00    3.194128e+00
  9.497749e+00    3.220494e+00
  9.513625e+00    3.186316e+00
  9.529501e+00    3.163956e+00
  9.545376e+00    3.183979e+00
  9.561252e+00    3.218498e+00
  9.577127e+00    3.211022e+00
  9.593003e+00    3.212814e+00
  9.608878e+00    3.177224e+00
  9.624754e+00    3.224868e+00
  9.640630e+00    3.192142e+00
  9.656505e+00    3.206847e+00
  9.672381e+00    3.177098e+00
  9.688256e+00    3.228653e+00
  9.704132e+00    3.208632e+00
  9.720008e+00    3.176802e+00
  9.735883e+00    3.174397e+00
  9.751759e+00    3.230390e+00
  9.767634e+00    3.202698e+00
  9.783510e+00    3.155370e+00
  9.799385e+00    3.182802e+00
  9.815261e+00    3.190796e+00
  9.831137e+00    3.187938e+00
  9.847012e+00    3.168706e+00
  9.862888e+00    3.177499e+00
  9.878763e+00    3.147119e+00
  9.894639e+00    3.113281e+00
  9.910514e+00    3.099390e+00
  9.926390e+00    3.093446e+00
  9.942266e+00    3.071577e+00
  9.958141e+00    3.077579e+00
  9.974017e+00    3.169615e+00
  9.989892e+00    3.204459e+00
  1.000577e+01    3.197117e+00
  1.002164e+01    3.083921e+00
  1.003752e+01    3.121672e+00
  1.005339e+01    3.093374e+00
  1.006927e+01    3.040364e+00
  1.008515e+01    3.115602e+00
  1.010102e+01    3.136892e+00
  1.011690e+01    3.140657e+00
  1.013277e+01    3.143900e+00
  1.014865e+01    3.150278e+00
  1.016452e+01    3.051438e+00
  1.018040e+01    3.129490e+00
  1.019627e+01    3.066930e+00
  1.021215e+01    3.093323e+00
  1.022803e+01    3.051417e+00
  1.024390e+01    3.046247e+00
  1.025978e+01    3.094885e+00
  1.027565e+01    3.046016e+00
  1.029153e+01    3.022256e+00
  1.030740e+01    3.041407e+00
  1.032328e+01    3.024993e+00
  1.033915e+01    3.021881e+00
  1.035503e+01    3.126978e+00
  1.037091e+01    3.109520e+00
  1.038678e+01    3.089904e+00
  1.040266e+01    3.057787e+00
  1.041853e+01    3.088160e+00
  1.043441e+01    3.048870e+00
  1.045028e+01    3.002109e+00
  1.046616e+01    3.019776e+00
  1.048204e+01    2.996946e+00
  1.049791e+01    2.997722e+00
  1.051379e+01    3.028725e+00
  1.052966e+01    3.059880e+00
  1.054554e+01    3.061239e+00
  1.056141e+01    3.018933e+00
  1.057729e+01    2.977155e+00
  1.059316e+01    2.991972e+00
  1.060904e+01    2.971200e+00
  1.062492e+01    3.021480e+00
  1.064079e+01    2.988584e+00
  1.065667e+01    2.947208e+00
  1.067254e+01    2.961881e+00
  1.068842e+01    2.971463e+00
  1.070429e+01    2.943471e+00
  1.072017e+01    2.960525e+00
  1.073604e+01    3.016019e+00
  1.075192e+01    3.049124e+00
  1.076780e+01    3.050005e+00
  1.078367e+01    2.962997e+00
  1.079955e+01    2.912359e+00
  1.081542e+01    2.923632e+00
  1.083130e+01    2.990322e+00
  1.084717e+01    2.966718e+00
  1.086305e+01    2.929528e+00
  1.087892e+01    2.951780e+00
  1.089480e+01    2.960219e+00
  1.091068e+01    2.940257e+00
  1.092655e+01    2.903564e+00
  1.094243e+01    2.932863e+00
  1.095830e+01    2.895729e+00
  1.097418e+01    2.921726e+00
  1.099005e+01    2.923076e+00
  1.100593e+01    2.920827e+00
  1.102180e+01    2.919837e+00
  1.103768e+01    2.936500e+00
  1.105356e+01    2.858322e+00
  1.106943e+01    2.804751e+00
  1.108531e+01    2.887161e+00
  1.110118e+01    2.885404e+00
  1.111706e+01    2.900385e+00
  1.113293e+01    2.925631e+00
  1.114881e+01    2.885988e+00
  1.116468e+01    2.872504e+00
  1.118056e+01    2.854593e+00
  1.119644e+01    2.879194e+00
  1.121231e+01    2.909230e+00
  1.122819e+01    2.853267e+00
  1.124406e+01    2.907095e+00
  1.125994e+01    2.856161e+00
  1.127581e+01    2.846159e+00
  1.129169e+01    2.910155e+00
  1.130756e+01    2.902041e+00
  1.132344e+01    2.842602e+00
  1.133932e+01    2.836923e+00
  1.135519e+01    2.871344e+00
  1.137107e+01    2.871101e+00
  1.138694e+01    2.853580e+00
  1.140282e+01    2.830440e+00
  1.141869e+01    2.844702e+00
  1.143457e+01    2.812684e+00
  1.145045e+01    2.801548e+00
  1.146632e+01    2.813480e+00
  1.148220e+01    2.778533e+00
  1.149807e+01    2.757947e+00
  1.151395e+01    2.794118e+00
  1.152982e+01    2.792936e+00
  1.154570e+01    2.831370e+00
  1.156157e+01    2.813949e+00
  1.157745e+01    2.768164e+00
  1.159333e+01    2.776270e+00
  1.160920e+01    2.754727e+00
  1.162508e+01    2.791126e+00
  1.164095e+01    2.822483e+00
  1.165683e+01    2.809572e+00
  1.167270e+01    2.816236e+00
  1.168858e+01    2.805144e+00
  1.170445e+01    2.846587e+00
  1.172033e+01    2.785976e+00
  1.173621e+01    2.793042e+00
  1.175208e+01    2.782925e+00
  1.176796e+01    2.786333e+00
  1.178383e+01    2.764838e+00
  1.179971e+01    2.767517e+00
  1.181558e+01    2.752393e+00
  1.183146e+01    2.730464e+00
  1.184733e+01    2.732679e+00
  1.186321e+01    2.760189e+00
  1.187909e+01    2.772100e+00
  1.189496e+01    2.756721e+00
  1.191084e+01    2.752215e+00
  1.192671e+01    2.765904e+00
  1.194259e+01    2.709531e+00
  1.195846e+01    2.729694e+00
  1.197434e+01    2.760589e+00
  1.199021e+01    2.722519e+00
  1.200609e+01    2.691924e+00
  1.202197e+01    2.699382e+00
  1.203784e+01    2.724679e+00
  1.205372e+01    2.711029e+00
  1.206959e+01    2.694371e+00
  1.208547e+01    2.729541e+00
  1.210134e+01    2.770575e+00
  1.211722e+01    2.786823e+00
  1.213309e+01    2.744742e+00
  1.214897e+01    2.693402e+00
  1.216485e+01    2.747286e+00
  1.218072e+01    2.750432e+00
  1.219660e+01    2.719262e+00
  1.221247e+01    2.686691e+00
  1.222835e+01    2.706669e+00
  1.224422e+01    2.691365e+00
  1.226010e+01    2.733206e+00
  1.227597e+01    2.736208e+00
  1.229185e+01    2.699363e+00
  1.230773e+01    2.651283e+00
  1.232360e+01    2.670983e+00
  1.233948e+01    2.654260e+00
  1.235535e+01    2.666730e+00
  1.237123e+01    2.703553e+00
  1.238710e+01    2.689955e+00
  1.240298e+01    2.702690e+00
  1.241886e+01    2.736367e+00
  1.243473e+01    2.705460e+00
  1.245061e+01    2.670188e+00
  1.246648e+01    2.703291e+00
  1.248236e+01    2.721384e+00
  1.249823e+01    2.734908e+00
  1.251411e+01    2.724285e+00
  1.252998e+01    2.749738e+00
  1.254586e+01    2.741492e+00
  1.256174e+01    2.757240e+00
  1.257761e+01    2.745411e+00
  1.259349e+01    2.744606e+00
  1.260936e+01    2.725722e+00
  1.262524e+01    2.743440e+00
  1.264111e+01    2.719352e+00
  1.265699e+01    2.811018e+00
  1.267286e+01    2.790590e+00
  1.268874e+01    2.802468e+00
  1.270462e+01    2.824719e+00
  1.272049e+01    2.853297e+00
  1.273637e+01    2.868535e+00
  1.275224e+01    2.889889e+00
  1.276812e+01    2.915463e+00
  1.278399e+01    3.000434e+00
  1.279987e+01    2.983032e+00
  1.281574e+01    3.039767e+00
  1.283162e+01    3.158563e+00
  1.284750e+01    3.175886e+00
  1.286337e+01    3.275480e+00
  1.287925e+01    3.374825e+00
  1.289512e+01    3.491062e+00
  1.291100e+01    3.653790e+00
  1.292687e+01    3.880844e+00
  1.294275e+01    4.078255e+00
  1.295862e+01    4.371752e+00
  1.297450e+01    4.782447e+00
  1.299038e+01    5.227871e+00
  1.300625e+01    5.825011e+00
  1.302213e+01    6.667333e+00
  1.303800e+01    7.712849e+00
  1.305388e+01    8.856406e+00
  1.306975e+01    1.008597e+01
  1.308563e+01    1.146386e+01
  1.310150e+01    1.272716e+01
  1.311738e+01    1.378582e+01
  1.313326e+01    1.483799e+01
  1.314913e+01    1.567331e+01
  1.316501e+01    1.636986e+01
  1.318088e+01    1.634865e+01
  1.319676e+01    1.560071e+01
  1.321263e+01    1.425753e+01
  1.322851e+01    1.248211e+01
  1.324438e+01    1.067231e+01
  1.326026e+01    9.203560e+00
  1.327614e+01    7.909201e+00
  1.329201e+01    6.801626e+00
  1.330789e+01    5.992879e+00
  1.332376e+01    5.386898e+00
  1.333964e+01    4.870529e+00
  1.335551e+01    4.492059e+00
  1.337139e+01    4.171944e+00
  1.338727e+01    3.914835e+00
  1.340314e+01    3.688666e+00
  1.341902e+01    3.468282e+00
  1.343489e+01    3.281343e+00
  1.345077e+01    3.206963e+00
  1.346664e+01    3.160694e+00
  1.348252e+01    3.044809e+00
  1.349839e+01    3.011550e+00
  1.351427e+01    2.924861e+00
  1.353015e+01    2.885654e+00
  1.354602e+01    2.818862e+00
  1.356190e+01    2.775010e+00
  1.357777e+01    2.734552e+00
  1.359365e+01    2.668206e+00
  1.360952e+01    2.674389e+00
  1.362540e+01    2.690900e+00
  1.364127e+01    2.655672e+00
  1.365715e+01    2.642381e+00
  1.367303e+01    2.589753e+00
  1.368890e+01    2.563154e+00
  1.370478e+01    2.504734e+00
  1.372065e+01    2.521402e+00
  1.373653e+01    2.544385e+00
  1.375240e+01    2.541435e+00
  1.376828e+01    2.529892e+00
  1.378415e+01    2.503721e+00
  1.380003e+01    2.493046e+00
  1.381591e+01    2.489222e+00
  1.383178e+01    2.472948e+00
  1.384766e+01    2.445371e+00
  1.386353e+01    2.435147e+00
  1.387941e+01    2.452794e+00
  1.389528e+01    2.419658e+00
  1.391116e+01    2.414835e+00
  1.392703e+01    2.413795e+00
  1.394291e+01    2.368594e+00
  1.395879e+01    2.356975e+00
  1.397466e+01    2.357046e+00
  1.399054e+01    2.370857e+00
  1.400641e+01    2.378890e+00
  1.402229e+01    2.377418e+00
  1.403816e+01    2.362396e+00
  1.405404e+01    2.347380e+00
  1.406991e+01    2.371448e+00
  1.408579e+01    2.380811e+00
  1.410167e+01    2.399372e+00
  1.411754e+01    2.403247e+00
  1.413342e+01    2.332710e+00
  1.414929e+01    2.334398e+00
  1.416517e+01    2.365474e+00
  1.418104e+01    2.366853e+00
  1.419692e+01    2.340229e+00
  1.421279e+01    2.339696e+00
  1.422867e+01    2.331841e+00
  1.424455e+01    2.327666e+00
  1.426042e+01    2.298910e+00
  1.427630e+01    2.335508e+00
  1.429217e+01    2.317819e+00
  1.430805e+01    2.284426e+00
  1.432392e+01    2.303076e+00
  1.433980e+01    2.267746e+00
  1.435568e+01    2.249177e+00
  1.437155e+01    2.278847e+00
  1.438743e+01    2.270318e+00
  1.440330e+01    2.273167e+00
  1.441918e+01    2.297340e+00
  1.443505e+01    2.256809e+00
  1.445093e+01    2.243126e+00
  1.446680e+01    2.254899e+00
  1.448268e+01    2.235706e+00
  1.449856e+01    2.221903e+00
  1.451443e+01    2.214569e+00
  1.453031e+01    2.243024e+00
  1.454618e+01    2.261467e+00
  1.456206e+01    2.237737e+00
  1.457793e+01    2.212432e+00
  1.459381e+01    2.213547e+00
  1.460968e+01    2.190566e+00
  1.462556e+01    2.228970e+00
  1.464144e+01    2.234540e+00
  1.465731e+01    2.191069e+00
  1.467319e+01    2.195260e+00
  1.468906e+01    2.211496e+00
  1.470494e+01    2.177643e+00
  1.472081e+01    2.222121e+00
  1.473669e+01    2.237801e+00
  1.475256e+01    2.195727e+00
  1.476844e+01    2.222798e+00
  1.478432e+01    2.236030e+00
  1.480019e+01    2.249629e+00
  1.481607e+01    2.201513e+00
  1.483194e+01    2.223319e+00
  1.484782e+01    2.223140e+00
  1.486369e+01    2.238599e+00
  1.487957e+01    2.211921e+00
  1.489544e+01    2.259503e+00
  1.491132e+01    2.283961e+00
  1.492720e+01    2.279232e+00
  1.494307e+01    2.303469e+00
  1.495895e+01    2.365293e+00
  1.497482e+01    2.354823e+00
  1.499070e+01    2.365113e+00
  1.500657e+01    2.407676e+00
  1.502245e+01    2.509011e+00
  1.503832e+01    2.594803e+00
  1.505420e+01    2.710042e+00
  1.507008e+01    2.871485e+00
  1.508595e+01    3.029155e+00
  1.510183e+01    3.227703e+00
  1.511770e+01    3.423258e+00
  1.513358e+01    3.742666e+00
  1.514945e+01    4.192291e+00
  1.516533e+01    4.580186e+00
  1.518120e+01    4.907612e+00
  1.519708e+01    5.180002e+00
  1.521296e+01    5.415694e+00
  1.522883e+01    5.607855e+00
  1.524471e+01    5.719848e+00
  1.526058e+01    5.800093e+00
  1.527646e+01    5.767599e+00
  1.529233e+01    5.511111e+00
  1.530821e+01    5.187057e+00
  1.532409e+01    4.698769e+00
  1.533996e+01    4.230082e+00
  1.535584e+01    3.819534e+00
  1.537171e+01    3.430933e+00
  1.538759e+01    3.145834e+00
  1.540346e+01    2.952976e+00
  1.541934e+01    2.750767e+00
  1.543521e+01    2.635026e+00
  1.545109e+01    2.503160e+00
  1.546697e+01    2.419440e+00
  1.548284e+01    2.357548e+00
  1.549872e+01    2.313408e+00
  1.551459e+01    2.290450e+00
  1.553047e+01    2.246107e+00
  1.554634e+01    2.222401e+00
  1.556222e+01    2.150182e+00
  1.557809e+01    2.098962e+00
  1.559397e+01    2.056751e+00
  1.560985e+01    2.090838e+00
  1.562572e+01    2.126405e+00
  1.564160e+01    2.066904e+00
  1.565747e+01    2.029296e+00
  1.567335e+01    2.029197e+00
  1.568922e+01    2.015258e+00
  1.570510e+01    2.009189e+00
  1.572097e+01    1.991666e+00
  1.573685e+01    1.994996e+00
  1.575273e+01    2.016891e+00
  1.576860e+01    1.978498e+00
  1.578448e+01    1.946098e+00
  1.580035e+01    1.946486e+00
  1.581623e+01    1.962168e+00
  1.583210e+01    1.980309e+00
  1.584798e+01    1.956348e+00
  1.586385e+01    1.915974e+00
  1.587973e+01    1.925625e+00
  1.589561e+01    1.906978e+00
  1.591148e+01    1.914218e+00
  1.592736e+01    1.898679e+00
  1.594323e+01    1.895674e+00
  1.595911e+01    1.878300e+00
  1.597498e+01    1.850524e+00
  1.599086e+01    1.864917e+00
  1.600673e+01    1.859565e+00
  1.602261e+01    1.879331e+00
  1.603849e+01    1.891513e+00
  1.605436e+01    1.917719e+00
  1.607024e+01    1.891956e+00
  1.608611e+01    1.849099e+00
  1.610199e+01    1.869087e+00
  1.611786e+01    1.855974e+00
  1.613374e+01    1.850357e+00
  1.614961e+01    1.857641e+00
  1.616549e+01    1.852951e+00
  1.618137e+01    1.834685e+00
  1.619724e+01    1.792883e+00
  1.621312e+01    1.821984e+00
  1.622899e+01    1.805104e+00
  1.624487e+01    1.795893e+00
  1.626074e+01    1.845845e+00
  1.627662e+01    1.830878e+00
  1.629250e+01    1.825509e+00
  1.630837e+01    1.842208e+00
  1.632425e+01    1.815128e+00
  1.634012e+01    1.810442e+00
  1.635600e+01    1.796475e+00
  1.637187e+01    1.792411e+00
  1.638775e+01    1.796967e+00
  1.640362e+01    1.770002e+00
  1.641950e+01    1.795403e+00
  1.643538e+01    1.779229e+00
  1.645125e+01    1.778876e+00
  1.646713e+01    1.776998e+00
  1.648300e+01    1.771466e+00
  1.649888e+01    1.767189e+00
  1.651475e+01    1.753596e+00
  1.653063e+01    1.763302e+00
  1.654650e+01    1.751616e+00
  1.656238e+01    1.748005e+00
  1.657826e+01    1.756662e+00
  1.659413e+01    1.741475e+00
  1.661001e+01    1.759114e+00
  1.662588e+01    1.745711e+00
  1.664176e+01    1.763990e+00
  1.665763e+01    1.738177e+00
  1.667351e+01    1.729339e+00
  1.668938e+01    1.684096e+00
  1.670526e+01    1.730121e+00
  1.672114e+01    1.727879e+00
  1.673701e+01    1.728910e+00
  1.675289e+01    1.734992e+00
  1.676876e+01    1.744051e+00
  1.678464e+01    1.743094e+00
  1.680051e+01    1.751286e+00
  1.681639e+01    1.690158e+00
  1.683226e+01    1.694191e+00
  1.684814e+01    1.701416e+00
  1.686402e+01    1.702239e+00
  1.687989e+01    1.695891e+00
  1.689577e+01    1.689290e+00
  1.691164e+01    1.722643e+00
  1.692752e+01    1.687100e+00
  1.694339e+01    1.679083e+00
  1.695927e+01    1.686451e+00
  1.697514e+01    1.674440e+00
  1.699102e+01    1.653360e+00
  1.700690e+01    1.659223e+00
  1.702277e+01    1.674096e+00
  1.703865e+01    1.677537e+00
  1.705452e+01    1.648702e+00
  1.707040e+01    1.658208e+00
  1.708627e+01    1.695262e+00
  1.710215e+01    1.697069e+00
  1.711802e+01    1.651719e+00
  1.713390e+01    1.659979e+00
  1.714978e+01    1.711384e+00
  1.716565e+01    1.674294e+00
  1.718153e+01    1.647817e+00
  1.719740e+01    1.619608e+00
  1.721328e+01    1.624138e+00
  1.722915e+01    1.630551e+00
  1.724503e+01    1.653579e+00
  1.726091e+01    1.637529e+00
  1.727678e+01    1.629624e+00
  1.729266e+01    1.618909e+00
  1.730853e+01    1.635809e+00
  1.732441e+01    1.620600e+00
  1.734028e+01    1.615152e+00
  1.735616e+01    1.607781e+00
  1.737203e+01    1.619731e+00
  1.738791e+01    1.615792e+00
  1.740379e+01    1.619687e+00
  1.741966e+01    1.584970e+00
  1.743554e+01    1.578721e+00
  1.745141e+01    1.593318e+00
  1.746729e+01    1.562837e+00
  1.748316e+01    1.576225e+00
  1.749904e+01    1.602803e+00
  1.751491e+01    1.595967e+00
  1.753079e+01    1.627373e+00
  1.754667e+01    1.605858e+00
  1.756254e+01    1.562345e+00
  1.757842e+01    1.602263e+00
  1.759429e+01    1.619536e+00
  1.761017e+01    1.589729e+00
  1.762604e+01    1.569349e+00
  1.764192e+01    1.575991e+00
  1.765779e+01    1.579756e+00
  1.767367e+01    1.581382e+00
  1.768955e+01    1.577503e+00
  1.770542e+01    1.552638e+00
  1.772130e+01    1.544721e+00
  1.773717e+01    1.568862e+00
  1.775305e+01    1.573130e+00
  1.776892e+01    1.536820e+00
  1.778480e+01    1.533849e+00
  1.780067e+01    1.542094e+00
  1.781655e+01    1.515170e+00
  1.783243e+01    1.516391e+00
  1.784830e+01    1.524850e+00
  1.786418e+01    1.527985e+00
  1.788005e+01    1.566868e+00
  1.789593e+01    1.583104e+00
  1.791180e+01    1.561481e+00
  1.792768e+01    1.552254e+00
  1.794355e+01    1.530608e+00
  1.795943e+01    1.531397e+00
  1.797531e+01    1.513963e+00
  1.799118e+01    1.480771e+00
  1.800706e+01    1.473243e+00
  1.802293e+01    1.512575e+00
  1.803881e+01    1.498441e+00
  1.805468e+01    1.485813e+00
  1.807056e+01    1.495350e+00
  1.808643e+01    1.494079e+00
  1.810231e+01    1.487318e+00
  1.811819e+01    1.510966e+00
  1.813406e+01    1.517349e+00
  1.814994e+01    1.506861e+00
  1.816581e+01    1.548171e+00
  1.818169e+01    1.532493e+00
  1.819756e+01    1.494816e+00
  1.821344e+01    1.500895e+00
  1.822932e+01    1.488489e+00
  1.824519e+01    1.491323e+00
  1.826107e+01    1.500475e+00
  1.827694e+01    1.499550e+00
  1.829282e+01    1.482705e+00
  1.830869e+01    1.473864e+00
  1.832457e+01    1.489346e+00
  1.834044e+01    1.483891e+00
  1.835632e+01    1.468040e+00
  1.837220e+01    1.479807e+00
  1.838807e+01    1.473440e+00
  1.840395e+01    1.483299e+00
  1.841982e+01    1.456702e+00
  1.843570e+01    1.414314e+00
  1.845157e+01    1.437961e+00
  1.846745e+01    1.452870e+00
  1.848332e+01    1.465826e+00
  1.849920e+01    1.455972e+00
  1.851508e+01    1.458288e+00
  1.853095e+01    1.418327e+00
  1.854683e+01    1.417899e+00
  1.856270e+01    1.456444e+00
  1.857858e+01    1.434652e+00
  1.859445e+01    1.436630e+00
  1.861033e+01    1.447943e+00
  1.862620e+01    1.439829e+00
  1.864208e+01    1.460918e+00
  1.865796e+01    1.446816e+00
  1.867383e+01    1.446450e+00
  1.868971e+01    1.443006e+00
  1.870558e+01    1.415140e+00
  1.872146e+01    1.427728e+00
  1.873733e+01    1.425615e+00
  1.875321e+01    1.434283e+00
  1.876908e+01    1.426812e+00
  1.878496e+01    1.438318e+00
  1.880084e+01    1.440449e+00
  1.881671e+01    1.432041e+00
  1.883259e+01    1.414483e+00
  1.884846e+01    1.447109e+00
  1.886434e+01    1.411093e+00
  1.888021e+01    1.397531e+00
  1.889609e+01    1.398131e+00
  1.891196e+01    1.402194e+00
  1.892784e+01    1.367631e+00
  1.894372e+01    1.375845e+00
  1.895959e+01    1.393207e+00
  1.897547e+01    1.381696e+00
  1.899134e+01    1.405898e+00
  1.900722e+01    1.390267e+00
  1.902309e+01    1.388343e+00
  1.903897e+01    1.402447e+00
  1.905484e+01    1.378449e+00
  1.907072e+01    1.389127e+00
  1.908660e+01    1.390555e+00
  1.910247e+01    1.370397e+00
  1.911835e+01    1.368737e+00
  1.913422e+01    1.348886e+00
  1.915010e+01    1.386764e+00
  1.916597e+01    1.378831e+00
  1.918185e+01    1.361601e+00
  1.919773e+01    1.355043e+00
  1.921360e+01    1.366806e+00
  1.922948e+01    1.383883e+00
  1.924535e+01    1.366685e+00
  1.926123e+01    1.360681e+00
  1.927710e+01    1.358244e+00
  1.929298e+01    1.373889e+00
  1.930885e+01    1.351980e+00
  1.932473e+01    1.325637e+00
  1.934061e+01    1.323866e+00
  1.935648e+01    1.332441e+00
  1.937236e+01    1.364763e+00
  1.938823e+01    1.356146e+00
  1.940411e+01    1.342713e+00
  1.941998e+01    1.352682e+00
  1.943586e+01    1.329438e+00
  1.945173e+01    1.339039e+00
  1.946761e+01    1.357452e+00
  1.948349e+01    1.342951e+00
  1.949936e+01    1.344035e+00
  1.951524e+01    1.352524e+00
  1.953111e+01    1.321457e+00
  1.954699e+01    1.362384e+00
  1.956286e+01    1.355217e+00
  1.957874e+01    1.343933e+00
  1.959461e+01    1.345741e+00
  1.961049e+01    1.347548e+00
  1.962637e+01    1.343048e+00
  1.964224e+01    1.356228e+00
  1.965812e+01    1.350133e+00
  1.967399e+01    1.351589e+00
  1.968987e+01    1.321874e+00
  1.970574e+01    1.331940e+00
  1.972162e+01    1.310529e+00
  1.973749e+01    1.307378e+00
  1.975337e+01    1.326127e+00
  1.976925e+01    1.328128e+00
  1.978512e+01    1.315830e+00
  1.980100e+01    1.303969e+00
  1.981687e+01    1.306835e+00
  1.983275e+01    1.283190e+00
  1.984862e+01    1.296379e+00
  1.986450e+01    1.293403e+00
  1.988037e+01    1.278375e+00
  1.989625e+01    1.296498e+00
  1.991213e+01    1.309108e+00
  1.992800e+01    1.302306e+00
  1.994388e+01    1.298802e+00
  1.995975e+01    1.294268e+00
  1.997563e+01    1.288473e+00
  1.999150e+01    1.277726e+00
  2.000738e+01    1.271117e+00
  2.002325e+01    1.287012e+00
  2.003913e+01    1.290498e+00
  2.005501e+01    1.286361e+00
  2.007088e+01    1.317028e+00
  2.008676e+01    1.300332e+00
  2.010263e+01    1.288293e+00
  2.011851e+01    1.286043e+00
  2.013438e+01    1.259555e+00
  2.015026e+01    1.276856e+00
  2.016614e+01    1.270370e+00
  2.018201e+01    1.254852e+00
  2.019789e+01    1.272794e+00
  2.021376e+01    1.279382e+00
  2.022964e+01    1.258345e+00
  2.024551e+01    1.274611e+00
  2.026139e+01    1.279561e+00
  2.027726e+01    1.273871e+00
  2.029314e+01    1.269826e+00
  2.030902e+01    1.301022e+00
  2.032489e+01    1.267753e+00
  2.034077e+01    1.246273e+00
  2.035664e+01    1.227187e+00
  2.037252e+01    1.262043e+00
  2.038839e+01    1.258688e+00
  2.040427e+01    1.221140e+00
  2.042014e+01    1.238652e+00
  2.043602e+01    1.257119e+00
  2.045190e+01    1.250914e+00
  2.046777e+01    1.259275e+00
  2.048365e+01    1.250718e+00
  2.049952e+01    1.220829e+00
  2.051540e+01    1.230367e+00
  2.053127e+01    1.222682e+00
  2.054715e+01    1.248543e+00
  2.056302e+01    1.251058e+00
  2.057890e+01    1.217481e+00
  2.059478e+01    1.253283e+00
  2.061065e+01    1.243411e+00
  2.062653e+01    1.234824e+00
  2.064240e+01    1.250946e+00
  2.065828e+01    1.237668e+00
  2.067415e+01    1.229543e+00
  2.069003e+01    1.221905e+00
  2.070590e+01    1.234882e+00
  2.072178e+01    1.233036e+00
  2.073766e+01    1.236547e+00
  2.075353e+01    1.225452e+00
  2.076941e+01    1.221318e+00
  2.078528e+01    1.241045e+00
  2.080116e+01    1.243547e+00
  2.081703e+01    1.242891e+00
  2.083291e+01    1.219968e+00
  2.084878e+01    1.215241e+00
  2.086466e+01    1.240726e+00
  2.088054e+01    1.240756e+00
  2.089641e+01    1.251982e+00
  2.091229e+01    1.252425e+00
  2.092816e+01    1.256491e+00
  2.094404e+01    1.255877e+00
  2.095991e+01    1.232780e+00
  2.097579e+01    1.230934e+00
  2.099166e+01    1.217657e+00
  2.100754e+01    1.222778e+00
  2.102342e+01    1.219947e+00
  2.103929e+01    1.218610e+00
  2.105517e+01    1.258168e+00
  2.107104e+01    1.227526e+00
  2.108692e+01    1.235204e+00
  2.110279e+01    1.229957e+00
  2.111867e+01    1.211200e+00
  2.113455e+01    1.220492e+00
  2.115042e+01    1.222175e+00
  2.116630e+01    1.219317e+00
  2.118217e+01    1.236810e+00
  2.119805e+01    1.241533e+00
  2.121392e+01    1.253929e+00
  2.122980e+01    1.256432e+00
  2.124567e+01    1.265509e+00
  2.126155e+01    1.268704e+00
  2.127743e+01    1.251171e+00
  2.129330e+01    1.260299e+00
  2.130918e+01    1.280467e+00
  2.132505e+01    1.263075e+00
  2.134093e+01    1.272265e+00
  2.135680e+01    1.316323e+00
  2.137268e+01    1.322172e+00
  2.138855e+01    1.295987e+00
  2.140443e+01    1.297095e+00
  2.142031e+01    1.308451e+00
  2.143618e+01    1.328812e+00
  2.145206e+01    1.362267e+00
  2.146793e+01    1.375106e+00
  2.148381e+01    1.380265e+00
  2.149968e+01    1.392558e+00
  2.151556e+01    1.443713e+00
  2.153143e+01    1.464371e+00
  2.154731e+01    1.515650e+00
  2.156319e+01    1.558691e+00
  2.157906e+01    1.612518e+00
  2.159494e+01    1.664916e+00
  2.161081e+01    1.763956e+00
  2.162669e+01    1.841617e+00
  2.164256e+01    1.954877e+00
  2.165844e+01    2.085068e+00
  2.167431e+01    2.293749e+00
  2.169019e+01    2.503631e+00
  2.170607e+01    2.777366e+00
  2.172194e+01    3.129588e+00
  2.173782e+01    3.525727e+00
  2.175369e+01    4.029086e+00
  2.176957e+01    4.569574e+00
  2.178544e+01    5.172668e+00
  2.180132e+01    5.804295e+00
  2.181719e+01    6.512179e+00
  2.183307e+01    7.166222e+00
  2.184895e+01    7.774206e+00
  2.186482e+01    8.337982e+00
  2.188070e+01    8.755816e+00
  2.189657e+01    8.981126e+00
  2.191245e+01    8.799160e+00
  2.192832e+01    8.277279e+00
  2.194420e+01    7.516004e+00
  2.196007e+01    6.685658e+00
  2.197595e+01    5.729679e+00
  2.199183e+01    4.926243e+00
  2.200770e+01    4.219477e+00
  2.202358e+01    3.663140e+00
  2.203945e+01    3.194082e+00
  2.205533e+01    2.827755e+00
  2.207120e+01    2.567117e+00
  2.208708e+01    2.368891e+00
  2.210296e+01    2.169683e+00
  2.211883e+01    2.000381e+00
  2.213471e+01    1.905674e+00
  2.215058e+01    1.790164e+00
  2.216646e+01    1.691992e+00
  2.218233e+01    1.644465e+00
  2.219821e+01    1.569621e+00
  2.221408e+01    1.534124e+00
  2.222996e+01    1.462060e+00
  2.224584e+01    1.417552e+00
  2.226171e+01    1.373391e+00
  2.227759e+01    1.351378e+00
  2.229346e+01    1.321629e+00
  2.230934e+01    1.286872e+00
  2.232521e+01    1.285615e+00
  2.234109e+01    1.260605e+00
  2.235696e+01    1.255578e+00
  2.237284e+01    1.247966e+00
  2.238872e+01    1.231211e+00
  2.240459e+01    1.209017e+00
  2.242047e+01    1.212178e+00
  2.243634e+01    1.207709e+00
  2.245222e+01    1.189668e+00
  2.246809e+01    1.178535e+00
  2.248397e+01    1.156981e+00
  2.249984e+01    1.174241e+00
  2.251572e+01    1.137040e+00
  2.253160e+01    1.127782e+00
  2.254747e+01    1.125388e+00
  2.256335e+01    1.128290e+00
  2.257922e+01    1.114403e+00
  2.259510e+01    1.112606e+00
  2.261097e+01    1.091753e+00
  2.262685e+01    1.091026e+00
  2.264272e+01    1.089988e+00
  2.265860e+01    1.078514e+00
  2.267448e+01    1.089654e+00
  2.269035e+01    1.090953e+00
  2.270623e+01    1.102589e+00
  2.272210e+01    1.066934e+00
  2.273798e+01    1.078522e+00
  2.275385e+01    1.073395e+00
  2.276973e+01    1.074993e+00
  2.278560e+01    1.058778e+00
  2.280148e+01    1.051355e+00
  2.281736e+01    1.052581e+00
  2.283323e+01    1.069513e+00
  2.284911e+01    1.059348e+00
  2.286498e+01    1.053510e+00
  2.288086e+01    1.064113e+00
  2.289673e+01    1.031977e+00
  2.291261e+01    1.028839e+00
  2.292848e+01    1.036985e+00
  2.294436e+01    1.035653e+00
  2.296024e+01    1.023844e+00
  2.297611e+01    1.025432e+00
  2.299199e+01    1.027226e+00
  2.300786e+01    1.017107e+00
  2.302374e+01    1.030302e+00
  2.303961e+01    1.041331e+00
  2.305549e+01    1.024182e+00
  2.307137e+01    1.004897e+00
  2.308724e+01    1.018902e+00
  2.310312e+01    9.827823e-01
  2.311899e+01    9.854807e-01
  2.313487e+01    9.947329e-01
  2.315074e+01    9.805052e-01
  2.316662e+01    9.918752e-01
  2.318249e+01    9.947830e-01
  2.319837e+01    1.010980e+00
  2.321425e+01    1.016634e+00
  2.323012e+01    9.937160e-01
  2.324600e+01    1.002983e+00
  2.326187e+01    1.004572e+00
  2.327775e+01    1.003122e+00
  2.329362e+01    1.009721e+00
  2.330950e+01    9.767267e-01
  2.332537e+01    9.789401e-01
  2.334125e+01    1.007869e+00
  2.335713e+01    1.000197e+00
  2.337300e+01    9.857864e-01
  2.338888e+01    9.808442e-01
  2.340475e+01    9.802718e-01
  2.342063e+01    9.872659e-01
  2.343650e+01    9.781104e-01
  2.345238e+01    9.760317e-01
  2.346825e+01    9.628153e-01
  2.348413e+01    9.613661e-01
  2.350001e+01    9.560020e-01
  2.351588e+01    9.905622e-01
  2.353176e+01    1.001220e+00
  2.354763e+01    1.000162e+00
  2.356351e+01    9.608867e-01
  2.357938e+01    9.707138e-01
  2.359526e+01    9.679280e-01
  2.361113e+01    9.738446e-01
  2.362701e+01    9.573017e-01
  2.364289e+01    9.493400e-01
  2.365876e+01    9.457510e-01
  2.367464e+01    9.428596e-01
  2.369051e+01    9.433590e-01
  2.370639e+01    9.465494e-01
  2.372226e+01    9.515768e-01
  2.373814e+01    9.345698e-01
  2.375401e+01    9.355851e-01
  2.376989e+01    9.256969e-01
  2.378577e+01    9.269267e-01
  2.380164e+01    9.493418e-01
  2.381752e+01    9.472886e-01
  2.383339e+01    9.173277e-01
  2.384927e+01    9.221109e-01
  2.386514e+01    9.139130e-01
  2.388102e+01    9.140558e-01
  2.389689e+01    9.008356e-01
  2.391277e+01    9.237142e-01
  2.392865e+01    9.175646e-01
  2.394452e+01    8.845175e-01
  2.396040e+01    8.680899e-01
  2.397627e+01    8.825096e-01
  2.399215e+01    8.859235e-01
  2.400802e+01    8.878845e-01
  2.402390e+01    8.960458e-01
  2.403978e+01    8.928786e-01
  2.405565e+01    8.911644e-01
  2.407153e+01    9.042496e-01
  2.408740e+01    8.927877e-01
  2.410328e+01    8.923109e-01
  2.411915e+01    9.059054e-01
  2.413503e+01    8.973808e-01
  2.415090e+01    9.010865e-01
  2.416678e+01    8.874326e-01
  2.418266e+01    8.851438e-01
  2.419853e+01    8.672997e-01
  2.421441e+01    8.917189e-01
  2.423028e+01    9.051688e-01
  2.424616e+01    9.023983e-01
  2.426203e+01    8.982504e-01
  2.427791e+01    8.991098e-01
  2.429378e+01    9.058667e-01
  2.430966e+01    8.967211e-01
  2.432554e+01    8.993138e-01
  2.434141e+01    8.984570e-01
  2.435729e+01    9.016336e-01
  2.437316e+01    9.023740e-01
  2.438904e+01    8.874599e-01
  2.440491e+01    9.065391e-01
  2.442079e+01    8.967659e-01
  2.443666e+01    8.811291e-01
  2.445254e+01    8.981104e-01
  2.446842e+01    8.986356e-01
  2.448429e+01    9.027814e-01
  2.450017e+01    8.928286e-01
  2.451604e+01    8.852728e-01
  2.453192e+01    9.105367e-01
  2.454779e+01    9.112372e-01
  2.456367e+01    8.973515e-01
  2.457954e+01    8.973845e-01
  2.459542e+01    9.161116e-01
  2.461130e+01    9.182131e-01
  2.462717e+01    8.860012e-01
  2.464305e+01    8.915119e-01
  2.465892e+01    9.089721e-01
  2.467480e+01    8.748209e-01
  2.469067e+01    8.830973e-01
  2.470655e+01    8.866534e-01
  2.472242e+01    9.127651e-01
  2.473830e+01    9.061038e-01
  2.475418e+01    9.057965e-01
  2.477005e+01    8.865958e-01
  2.478593e+01    8.871067e-01
  2.480180e+01    8.771604e-01
  2.481768e+01    8.844668e-01
  2.483355e+01    8.887469e-01
  2.484943e+01    8.816538e-01
  2.486530e+01    8.978491e-01
  2.488118e+01    8.914465e-01
  2.489706e+01    8.961742e-01
  2.491293e+01    9.007964e-01
  2.492881e+01    8.970724e-01
  2.494468e+01    9.002030e-01
  2.496056e+01    9.065082e-01
  2.497643e+01    8.897275e-01
  2.499231e+01    9.004902e-01
  2.500819e+01    9.104735e-01
  2.502406e+01    9.101724e-01
  2.503994e+01    9.235486e-01
  2.505581e+01    9.278734e-01
  2.507169e+01    9.110999e-01
  2.508756e+01    9.143556e-01
  2.510344e+01    9.230378e-01
  2.511931e+01    9.286659e-01
  2.513519e+01    8.980672e-01
  2.515107e+01    9.325991e-01
  2.516694e+01    9.380997e-01
  2.518282e+01    9.096571e-01
  2.519869e+01    9.019399e-01
  2.521457e+01    9.266835e-01
  2.523044e+01    9.262756e-01
  2.524632e+01    9.204403e-01
  2.526219e+01    9.296031e-01
  2.527807e+01    9.307315e-01
  2.529395e+01    9.411385e-01
  2.530982e+01    9.683530e-01
  2.532570e+01    9.859916e-01
  2.534157e+01    9.901754e-01
  2.535745e+01    9.802219e-01
  2.537332e+01    9.950373e-01
  2.538920e+01    9.957717e-01
  2.540507e+01    1.012563e+00
  2.542095e+01    1.006712e+00
  2.543683e+01    1.018043e+00
  2.545270e+01    1.027689e+00
  2.546858e+01    1.025857e+00
  2.548445e+01    1.043738e+00
  2.550033e+01    1.065708e+00
  2.551620e+01    1.086208e+00
  2.553208e+01    1.094737e+00
  2.554795e+01    1.117521e+00
  2.556383e+01    1.132073e+00
  2.557971e+01    1.155191e+00
  2.559558e+01    1.177941e+00
  2.561146e+01    1.206853e+00
  2.562733e+01    1.259426e+00
  2.564321e+01    1.302276e+00
  2.565908e+01    1.331754e+00
  2.567496e+01    1.394065e+00
  2.569083e+01    1.502778e+00
  2.570671e+01    1.584599e+00
  2.572259e+01    1.704974e+00
  2.573846e+01    1.871139e+00
  2.575434e+01    2.035421e+00
  2.577021e+01    2.194275e+00
  2.578609e+01    2.480792e+00
  2.580196e+01    2.798632e+00
  2.581784e+01    3.156552e+00
  2.583371e+01    3.597124e+00
  2.584959e+01    4.125392e+00
  2.586547e+01    4.650849e+00
  2.588134e+01    5.234123e+00
  2.589722e+01    5.790281e+00
  2.591309e+01    6.324867e+00
  2.592897e+01    6.741963e+00
  2.594484e+01    7.043427e+00
  2.596072e+01    7.118508e+00
  2.597660e+01    6.984287e+00
  2.599247e+01    6.608208e+00
  2.600835e+01    6.009127e+00
  2.602422e+01    5.294839e+00
  2.604010e+01    4.636827e+00
  2.605597e+01    4.028242e+00
  2.607185e+01    3.483589e+00
  2.608772e+01    3.018013e+00
  2.610360e+01    2.676880e+00
  2.611948e+01    2.398248e+00
  2.613535e+01    2.148472e+00
  2.615123e+01    1.966181e+00
  2.616710e+01    1.803686e+00
  2.618298e+01    1.696374e+00
  2.619885e+01    1.583801e+00
  2.621473e+01    1.503831e+00
  2.623060e+01    1.398748e+00
  2.624648e+01    1.326328e+00
  2.626236e+01    1.300588e+00
  2.627823e+01    1.258804e+00
  2.629411e+01    1.210331e+00
  2.630998e+01    1.197022e+00
  2.632586e+01    1.170586e+00
  2.634173e+01    1.131453e+00
  2.635761e+01    1.076913e+00
  2.637348e+01    1.062188e+00
  2.638936e+01    1.060269e+00
  2.640524e+01    1.033675e+00
  2.642111e+01    1.015947e+00
  2.643699e+01    1.024624e+00
  2.645286e+01    1.023097e+00
  2.646874e+01    1.040917e+00
  2.648461e+01    1.042122e+00
  2.650049e+01    1.020422e+00
  2.651636e+01    1.008099e+00
  2.653224e+01    1.021370e+00
  2.654812e+01    9.711497e-01
  2.656399e+01    9.997085e-01
  2.657987e+01    9.845617e-01
  2.659574e+01    9.722122e-01
  2.661162e+01    1.006101e+00
  2.662749e+01    9.852101e-01
  2.664337e+01    9.686136e-01
  2.665924e+01    9.640397e-01
  2.667512e+01    9.797429e-01
  2.669100e+01    9.739777e-01
  2.670687e+01    9.838986e-01
  2.672275e+01    9.810781e-01
  2.673862e+01    9.721864e-01
  2.675450e+01    9.724646e-01
  2.677037e+01    9.877070e-01
  2.678625e+01    9.809552e-01
  2.680212e+01    9.863123e-01
  2.681800e+01    9.954849e-01
  2.683388e+01    9.850572e-01
  2.684975e+01    9.807676e-01
  2.686563e+01    9.977201e-01
  2.688150e+01    9.948322e-01
  2.689738e+01    9.999835e-01
  2.691325e+01    1.019082e+00
  2.692913e+01    1.022622e+00
  2.694501e+01    1.043645e+00
  2.696088e+01    1.063623e+00
  2.697676e+01    1.057718e+00
  2.699263e+01    1.085005e+00
  2.700851e+01    1.134758e+00
  2.702438e+01    1.131801e+00
  2.704026e+01    1.198749e+00
  2.705613e+01    1.231115e+00
  2.707201e+01    1.301613e+00
  2.708789e+01    1.373286e+00
  2.710376e+01    1.456069e+00
  2.711964e+01    1.602494e+00
  2.713551e+01    1.718742e+00
  2.715139e+01    1.874430e+00
  2.716726e+01    1.961049e+00
  2.718314e+01    2.066633e+00
  2.719901e+01    2.156044e+00
  2.721489e+01    2.166969e+00
  2.723077e+01    2.140714e+00
  2.724664e+01    2.085709e+00
  2.726252e+01    1.991171e+00
  2.727839e+01    1.812416e+00
  2.729427e+01    1.674833e+00
  2.731014e+01    1.585911e+00
  2.732602e+01    1.503486e+00
  2.734189e+01    1.377088e+00
  2.735777e+01    1.270458e+00
  2.737365e+01    1.187327e+00
  2.738952e+01    1.130249e+00
  2.740540e+01    1.104336e+00
  2.742127e+01    1.099043e+00
  2.743715e+01    1.085397e+00
  2.745302e+01    1.052139e+00
  2.746890e+01    1.040352e+00
  2.748477e+01    1.018132e+00
  2.750065e+01    9.987502e-01
  2.751653e+01    9.911143e-01
  2.753240e+01    9.725365e-01
  2.754828e+01    9.637941e-01
  2.756415e+01    9.620633e-01
  2.758003e+01    9.512964e-01
  2.759590e+01    9.441962e-01
  2.761178e+01    9.362591e-01
  2.762765e+01    9.222186e-01
  2.764353e+01    9.062893e-01
  2.765941e+01    9.231737e-01
  2.767528e+01    9.136467e-01
  2.769116e+01    9.133812e-01
  2.770703e+01    9.298753e-01
  2.772291e+01    9.327311e-01
  2.773878e+01    8.995443e-01
  2.775466e+01    9.038329e-01
  2.777054e+01    9.141244e-01
  2.778641e+01    9.076540e-01
  2.780229e+01    8.982893e-01
  2.781816e+01    8.884860e-01
  2.783404e+01    8.791652e-01
  2.784991e+01    8.970903e-01
  2.786579e+01    9.043928e-01
  2.788166e+01    8.950558e-01
  2.789754e+01    8.882068e-01
  2.791342e+01    8.710541e-01
  2.792929e+01    8.893426e-01
  2.794517e+01    8.739307e-01
  2.796104e+01    8.661875e-01
  2.797692e+01    8.700354e-01
  2.799279e+01    8.692794e-01
  2.800867e+01    8.755761e-01
  2.802454e+01    8.674456e-01
  2.804042e+01    8.760348e-01
  2.805630e+01    8.724380e-01
  2.807217e+01    8.672448e-01
  2.808805e+01    8.363165e-01
  2.810392e+01    8.367426e-01
  2.811980e+01    8.624621e-01
  2.813567e+01    8.626783e-01
  2.815155e+01    8.519921e-01
  2.816742e+01    8.545110e-01
  2.818330e+01    8.664260e-01
  2.819918e+01    8.764924e-01
  2.821505e+01    8.623562e-01
  2.823093e+01    8.530686e-01
  2.824680e+01    8.592350e-01
  2.826268e+01    8.791823e-01
  2.827855e+01    8.618307e-01
  2.829443e+01    8.572070e-01
  2.831030e+01    8.608299e-01
  2.832618e+01    8.770133e-01
  2.834206e+01    8.643879e-01
  2.835793e+01    8.415287e-01
  2.837381e+01    8.446410e-01
  2.838968e+01    8.451644e-01
  2.840556e+01    8.293129e-01
  2.842143e+01    8.403066e-01
  2.843731e+01    8.352181e-01
  2.845318e+01    8.441173e-01
  2.846906e+01    8.360407e-01
  2.848494e+01    8.429563e-01
  2.850081e+01    8.659699e-01
  2.851669e+01    8.525065e-01
  2.853256e+01    8.369808e-01
  2.854844e+01    8.359103e-01
  2.856431e+01    8.471410e-01
  2.858019e+01    8.472711e-01
  2.859606e+01    8.488856e-01
  2.861194e+01    8.503018e-01
  2.862782e+01    8.571724e-01
  2.864369e+01    8.407246e-01
  2.865957e+01    8.346318e-01
  2.867544e+01    8.299727e-01
  2.869132e+01    8.358721e-01
  2.870719e+01    8.404876e-01
  2.872307e+01    8.244708e-01
  2.873895e+01    8.337529e-01
  2.875482e+01    8.369368e-01
  2.877070e+01    8.361669e-01
  2.878657e+01    8.313817e-01
  2.880245e+01    8.386793e-01
  2.881832e+01    8.319746e-01
  2.883420e+01    8.307578e-01
  2.885007e+01    8.303484e-01
  2.886595e+01    8.211108e-01
  2.888183e+01    8.410590e-01
  2.889770e+01    8.295780e-01
  2.891358e+01    8.472998e-01
  2.892945e+01    8.404381e-01
  2.894533e+01    8.436875e-01
  2.896120e+01    8.375617e-01
  2.897708e+01    8.245326e-01
  2.899295e+01    8.397630e-01
  2.900883e+01    8.378118e-01
  2.902471e+01    8.277038e-01
  2.904058e+01    8.302321e-01
  2.905646e+01    8.541691e-01
  2.907233e+01    8.292197e-01
  2.908821e+01    8.032343e-01
  2.910408e+01    8.178608e-01
  2.911996e+01    8.194559e-01
  2.913583e+01    8.188770e-01
  2.915171e+01    8.097449e-01
  2.916759e+01    7.934937e-01
  2.918346e+01    7.867033e-01
  2.919934e+01    8.177719e-01
  2.921521e+01    8.315942e-01
  2.923109e+01    8.385547e-01
  2.924696e+01    8.149833e-01
  2.926284e+01    8.291718e-01
  2.927871e+01    8.016945e-01
  2.929459e+01    8.035813e-01
  2.931047e+01    8.276134e-01
  2.932634e+01    8.482372e-01
  2.934222e+01    8.372171e-01
  2.935809e+01    8.244773e-01
  2.937397e+01    8.008327e-01
  2.938984e+01    7.970355e-01
  2.940572e+01    8.013783e-01
  2.942159e+01    7.901537e-01
  2.943747e+01    8.112311e-01
  2.945335e+01    8.140920e-01
  2.946922e+01    7.992924e-01
  2.948510e+01    8.189224e-01
  2.950097e+01    8.313516e-01
  2.951685e+01    8.133782e-01
  2.953272e+01    7.884358e-01
  2.954860e+01    7.882086e-01
  2.956447e+01    8.159821e-01
  2.958035e+01    8.146459e-01
  2.959623e+01    8.149137e-01
  2.961210e+01    7.888690e-01
  2.962798e+01    7.801787e-01
  2.964385e+01    8.101879e-01
  2.965973e+01    8.046715e-01
  2.967560e+01    8.016968e-01
  2.969148e+01    7.878939e-01
  2.970736e+01    7.867069e-01
  2.972323e+01    7.738484e-01
  2.973911e+01    7.887781e-01
  2.975498e+01    7.974953e-01
  2.977086e+01    7.838454e-01
  2.978673e+01    7.807451e-01
  2.980261e+01    7.898400e-01
  2.981848e+01    7.993100e-01
  2.983436e+01    8.033820e-01
  2.985024e+01    7.894720e-01
  2.986611e+01    7.944087e-01
  2.988199e+01    8.241698e-01
  2.989786e+01    8.231109e-01
  2.991374e+01    8.086197e-01
  2.992961e+01    8.137678e-01
  2.994549e+01    7.976691e-01
  2.996136e+01    7.914112e-01
  2.997724e+01    8.049898e-01
  2.999312e+01    8.259321e-01
  3.000899e+01    8.093488e-01
  3.002487e+01    7.866824e-01
  3.004074e+01    7.920759e-01
  3.005662e+01    8.110966e-01
  3.007249e+01    8.290666e-01
  3.008837e+01    8.073714e-01
  3.010424e+01    7.986308e-01
  3.012012e+01    8.054330e-01
  3.013600e+01    8.007284e-01
  3.015187e+01    7.888930e-01
  3.016775e+01    7.707359e-01
  3.018362e+01    8.000596e-01
  3.019950e+01    8.167249e-01
  3.021537e+01    8.009519e-01
  3.023125e+01    7.949567e-01
  3.024712e+01    7.893847e-01
  3.026300e+01    7.736376e-01
  3.027888e+01    7.877961e-01
  3.029475e+01    7.895848e-01
  3.031063e+01    7.846702e-01
  3.032650e+01    7.630368e-01
  3.034238e+01    7.644492e-01
  3.035825e+01    7.825687e-01
  3.037413e+01    8.129849e-01
  3.039000e+01    7.957469e-01
  3.040588e+01    7.706497e-01
  3.042176e+01    7.866296e-01
  3.043763e+01    7.879905e-01
  3.045351e+01    8.165165e-01
  3.046938e+01    8.125934e-01
  3.048526e+01    7.930251e-01
  3.050113e+01    7.674328e-01
  3.051701e+01    7.623677e-01
  3.053288e+01    7.827074e-01
  3.054876e+01    7.908709e-01
  3.056464e+01    7.743421e-01
  3.058051e+01    7.769796e-01
  3.059639e+01    7.927778e-01
  3.061226e+01    7.761220e-01
  3.062814e+01    7.788730e-01
  3.064401e+01    7.913815e-01
  3.065989e+01    7.887942e-01
  3.067577e+01    8.033584e-01
  3.069164e+01    7.898789e-01
  3.070752e+01    7.726527e-01
  3.072339e+01    7.688301e-01
  3.073927e+01    7.814029e-01
  3.075514e+01    7.659354e-01
  3.077102e+01    7.937173e-01
  3.078689e+01    8.049446e-01
  3.080277e+01    7.924198e-01
  3.081865e+01    8.006653e-01
  3.083452e+01    7.806145e-01
  3.085040e+01    7.853776e-01
  3.086627e+01    7.883310e-01
  3.088215e+01    7.899240e-01
  3.089802e+01    7.983662e-01
  3.091390e+01    7.621542e-01
  3.092977e+01    7.874231e-01
  3.094565e+01    7.896155e-01
  3.096153e+01    7.931448e-01
  3.097740e+01    7.904368e-01
  3.099328e+01    8.004062e-01
  3.100915e+01    8.026422e-01
  3.102503e+01    7.877299e-01
  3.104090e+01    7.952825e-01
  3.105678e+01    7.717448e-01
  3.107265e+01    7.794713e-01
  3.108853e+01    7.791667e-01
  3.110441e+01    7.976729e-01
  3.112028e+01    8.148630e-01
  3.113616e+01    8.001460e-01
  3.115203e+01    7.907979e-01
  3.116791e+01    8.264102e-01
  3.118378e+01    7.973337e-01
  3.119966e+01    7.804216e-01
  3.121553e+01    8.072257e-01
  3.123141e+01    7.947658e-01
  3.124729e+01    7.966328e-01
  3.126316e+01    8.077945e-01
  3.127904e+01    8.174421e-01
  3.129491e+01    8.228044e-01
  3.131079e+01    8.161563e-01
  3.132666e+01    8.006994e-01
  3.134254e+01    7.805782e-01
  3.135841e+01    7.968875e-01
  3.137429e+01    7.866563e-01
  3.139017e+01    7.813035e-01
  3.140604e+01    8.129812e-01
  3.142192e+01    8.168877e-01
  3.143779e+01    8.006519e-01
  3.145367e+01    7.946137e-01
  3.146954e+01    8.428744e-01
  3.148542e+01    8.237759e-01
  3.150129e+01    8.313060e-01
  3.151717e+01    8.414246e-01
  3.153305e+01    8.437344e-01
  3.154892e+01    8.412710e-01
  3.156480e+01    8.493797e-01
  3.158067e+01    8.446364e-01
  3.159655e+01    8.758184e-01
  3.161242e+01    8.869601e-01
  3.162830e+01    9.028953e-01
  3.164418e+01    8.921430e-01
  3.166005e+01    9.628509e-01
  3.167593e+01    9.653246e-01
  3.169180e+01    9.514849e-01
  3.170768e+01    9.940863e-01
  3.172355e+01    1.071397e+00
  3.173943e+01    1.132870e+00
  3.175530e+01    1.186919e+00
  3.177118e+01    1.236160e+00
  3.178706e+01    1.362037e+00
  3.180293e+01    1.444691e+00
  3.181881e+01    1.561593e+00
  3.183468e+01    1.677145e+00
  3.185056e+01    1.863816e+00
  3.186643e+01    1.926335e+00
  3.188231e+01    2.052068e+00
  3.189818e+01    2.085127e+00
  3.191406e+01    2.084388e+00
  3.192994e+01    2.019297e+00
  3.194581e+01    1.976103e+00
  3.196169e+01    1.853047e+00
  3.197756e+01    1.690115e+00
  3.199344e+01    1.567589e+00
  3.200931e+01    1.439932e+00
  3.202519e+01    1.347356e+00
  3.204106e+01    1.210229e+00
  3.205694e+01    1.163578e+00
  3.207282e+01    1.113896e+00
  3.208869e+01    1.046473e+00
  3.210457e+01    1.017671e+00
  3.212044e+01    1.012445e+00
  3.213632e+01    9.641180e-01
  3.215219e+01    9.376083e-01
  3.216807e+01    9.135231e-01
  3.218394e+01    8.676007e-01
  3.219982e+01    8.594825e-01
  3.221570e+01    8.355103e-01
  3.223157e+01    8.477700e-01
  3.224745e+01    8.482656e-01
  3.226332e+01    8.241157e-01
  3.227920e+01    8.131927e-01
  3.229507e+01    8.214447e-01
  3.231095e+01    8.104286e-01
  3.232682e+01    7.987028e-01
  3.234270e+01    7.937898e-01
  3.235858e+01    8.009471e-01
  3.237445e+01    7.876499e-01
  3.239033e+01    7.846529e-01
  3.240620e+01    7.955582e-01
  3.242208e+01    7.855278e-01
  3.243795e+01    7.941074e-01
  3.245383e+01    8.185477e-01
  3.246970e+01    7.860361e-01
  3.248558e+01    7.551714e-01
  3.250146e+01    7.882636e-01
  3.251733e+01    7.876770e-01
  3.253321e+01    7.832190e-01
  3.254908e+01    7.797900e-01
