# == pyFAI calibration ==
# Distance Sample to Detector: 0.3999999939076516 m
# PONI: 9.750e-02, 1.135e-01 m
# Rotations: -0.000175 0.000000 -0.000000 rad
# 
# == Fit2d calibration ==
# Distance Sample-beamCenter: 400.000 mm
# Center: x=1514.000, y=1300.000 pix
# Tilt: 0.010 deg  TiltPlanRot: 0.010 deg
# 
# Detector Detector	 Spline= None	 PixelSize= 7.500e-05, 7.500e-05 m
#    Detector has a mask: False 
#    Detector has a dark current: False 
#    detector has a flat field: False 
# 
# Wavelength: 6.888e-11 m
# Mask applied: user provided
# Dark current applied: False
# Flat field applied: False
# Polarization factor: 0.99
# Normalization factor: 1.0
# --> /home/myspot/data/2024_07_Rosario/Ru-CGO-ex/2024-07-27_003_Ru-CGO-ex_Reaction_dwell_000023_data_000144.dat
#       q_nm^-1             I 
  2.003187e-02    2.226973e-02
  3.590745e-02    1.977540e-01
  5.178302e-02    1.375185e-01
  6.765859e-02    6.608901e-03
  8.353417e-02    4.263671e-02
  9.940974e-02    3.797476e-02
  1.152853e-01    7.840057e-02
  1.311609e-01    5.221206e-02
  1.470365e-01    5.843078e-02
  1.629120e-01    1.194052e-02
  1.787876e-01    2.447038e-02
  1.946632e-01    6.140653e-02
  2.105388e-01    8.747303e-02
  2.264143e-01    6.453474e-02
  2.422899e-01    5.978275e-02
  2.581655e-01    1.082542e-01
  2.740411e-01    8.262275e-02
  2.899166e-01    3.022405e-02
  3.057922e-01    2.504518e-02
  3.216678e-01    2.956390e-02
  3.375433e-01    2.989626e-02
  3.534189e-01    2.497478e-02
  3.692945e-01    3.498843e-02
  3.851701e-01    3.718469e-02
  4.010456e-01    3.767391e-02
  4.169212e-01    2.959502e-02
  4.327968e-01    4.221747e-02
  4.486724e-01    3.882948e-02
  4.645479e-01    5.364884e-02
  4.804235e-01    5.161275e-02
  4.962991e-01    5.616111e-02
  5.121747e-01    7.380848e-02
  5.280502e-01    8.333205e-02
  5.439258e-01    7.411633e-02
  5.598014e-01    4.380724e-02
  5.756770e-01    6.533466e-02
  5.915525e-01    7.220250e-02
  6.074281e-01    2.870969e-02
  6.233037e-01    4.114316e-02
  6.391793e-01    3.925035e-02
  6.550548e-01    3.209194e-02
  6.709304e-01    4.866641e-02
  6.868060e-01    6.398145e-02
  7.026815e-01    5.797185e-02
  7.185571e-01    2.192934e-02
  7.344327e-01    2.508656e-02
  7.503083e-01    2.834382e-02
  7.661838e-01    3.888606e-02
  7.820594e-01    9.465972e-02
  7.979350e-01    1.991221e-01
  8.138106e-01    2.963879e-01
  8.296861e-01    3.340186e-01
  8.455617e-01    3.938241e-01
  8.614373e-01    4.212329e-01
  8.773129e-01    4.410014e-01
  8.931884e-01    5.426480e-01
  9.090640e-01    6.623184e-01
  9.249396e-01    8.057382e-01
  9.408152e-01    8.610226e-01
  9.566907e-01    9.011075e-01
  9.725663e-01    1.021616e+00
  9.884419e-01    1.099804e+00
  1.004317e+00    1.078423e+00
  1.020193e+00    1.234350e+00
  1.036069e+00    1.379643e+00
  1.051944e+00    1.471351e+00
  1.067820e+00    1.530633e+00
  1.083695e+00    1.496929e+00
  1.099571e+00    1.528988e+00
  1.115446e+00    1.562393e+00
  1.131322e+00    1.525324e+00
  1.147198e+00    1.537555e+00
  1.163073e+00    1.674057e+00
  1.178949e+00    1.781006e+00
  1.194824e+00    1.917745e+00
  1.210700e+00    2.030680e+00
  1.226575e+00    2.220233e+00
  1.242451e+00    2.339976e+00
  1.258327e+00    2.587728e+00
  1.274202e+00    2.564078e+00
  1.290078e+00    2.526592e+00
  1.305953e+00    2.617132e+00
  1.321829e+00    2.804681e+00
  1.337705e+00    2.789011e+00
  1.353580e+00    2.765638e+00
  1.369456e+00    2.780762e+00
  1.385331e+00    2.901790e+00
  1.401207e+00    2.822160e+00
  1.417082e+00    2.815143e+00
  1.432958e+00    2.848898e+00
  1.448834e+00    2.999181e+00
  1.464709e+00    3.011224e+00
  1.480585e+00    3.047828e+00
  1.496460e+00    3.101206e+00
  1.512336e+00    3.132071e+00
  1.528211e+00    3.244205e+00
  1.544087e+00    3.348314e+00
  1.559963e+00    3.204866e+00
  1.575838e+00    3.091785e+00
  1.591714e+00    3.138222e+00
  1.607589e+00    3.227738e+00
  1.623465e+00    3.243681e+00
  1.639340e+00    3.257645e+00
  1.655216e+00    3.040700e+00
  1.671092e+00    2.974985e+00
  1.686967e+00    3.032351e+00
  1.702843e+00    3.078462e+00
  1.718718e+00    3.049311e+00
  1.734594e+00    3.032618e+00
  1.750469e+00    3.015755e+00
  1.766345e+00    3.101154e+00
  1.782221e+00    3.105672e+00
  1.798096e+00    3.102696e+00
  1.813972e+00    3.139504e+00
  1.829847e+00    3.181928e+00
  1.845723e+00    3.149574e+00
  1.861598e+00    3.099649e+00
  1.877474e+00    2.985951e+00
  1.893350e+00    3.053257e+00
  1.909225e+00    3.104597e+00
  1.925101e+00    3.153403e+00
  1.940976e+00    3.230966e+00
  1.956852e+00    3.054513e+00
  1.972727e+00    2.967024e+00
  1.988603e+00    2.891013e+00
  2.004479e+00    3.033813e+00
  2.020354e+00    3.068825e+00
  2.036230e+00    3.132070e+00
  2.052105e+00    3.020869e+00
  2.067981e+00    3.036232e+00
  2.083856e+00    3.022140e+00
  2.099732e+00    3.079374e+00
  2.115608e+00    3.093945e+00
  2.131483e+00    3.087017e+00
  2.147359e+00    3.076400e+00
  2.163234e+00    3.083584e+00
  2.179110e+00    3.165864e+00
  2.194985e+00    3.161812e+00
  2.210861e+00    3.094080e+00
  2.226737e+00    3.002951e+00
  2.242612e+00    2.990224e+00
  2.258488e+00    2.990575e+00
  2.274363e+00    3.027960e+00
  2.290239e+00    3.076637e+00
  2.306115e+00    3.056268e+00
  2.321990e+00    3.118287e+00
  2.337866e+00    3.103349e+00
  2.353741e+00    3.069352e+00
  2.369617e+00    3.138210e+00
  2.385492e+00    3.195793e+00
  2.401368e+00    3.140624e+00
  2.417244e+00    3.144920e+00
  2.433119e+00    3.214109e+00
  2.448995e+00    3.161577e+00
  2.464870e+00    3.168881e+00
  2.480746e+00    3.326471e+00
  2.496621e+00    3.210508e+00
  2.512497e+00    3.201552e+00
  2.528373e+00    3.156489e+00
  2.544248e+00    3.149621e+00
  2.560124e+00    3.223521e+00
  2.575999e+00    3.208173e+00
  2.591875e+00    3.299860e+00
  2.607750e+00    3.318027e+00
  2.623626e+00    3.347090e+00
  2.639502e+00    3.310577e+00
  2.655377e+00    3.295068e+00
  2.671253e+00    3.272820e+00
  2.687128e+00    3.203019e+00
  2.703004e+00    3.219944e+00
  2.718879e+00    3.169073e+00
  2.734755e+00    3.092279e+00
  2.750631e+00    3.130174e+00
  2.766506e+00    3.256102e+00
  2.782382e+00    3.365694e+00
  2.798257e+00    3.278345e+00
  2.814133e+00    3.204270e+00
  2.830008e+00    3.229403e+00
  2.845884e+00    3.263180e+00
  2.861760e+00    3.156655e+00
  2.877635e+00    3.288265e+00
  2.893511e+00    3.316078e+00
  2.909386e+00    3.262862e+00
  2.925262e+00    3.302768e+00
  2.941137e+00    3.311105e+00
  2.957013e+00    3.278287e+00
  2.972889e+00    3.305389e+00
  2.988764e+00    3.388264e+00
  3.004640e+00    3.400702e+00
  3.020515e+00    3.277462e+00
  3.036391e+00    3.390887e+00
  3.052266e+00    3.361461e+00
  3.068142e+00    3.327695e+00
  3.084018e+00    3.357910e+00
  3.099893e+00    3.415730e+00
  3.115769e+00    3.386857e+00
  3.131644e+00    3.443688e+00
  3.147520e+00    3.342839e+00
  3.163395e+00    3.385977e+00
  3.179271e+00    3.290682e+00
  3.195147e+00    3.357290e+00
  3.211022e+00    3.475464e+00
  3.226898e+00    3.433283e+00
  3.242773e+00    3.357643e+00
  3.258649e+00    3.349194e+00
  3.274525e+00    3.405700e+00
  3.290400e+00    3.407767e+00
  3.306276e+00    3.406292e+00
  3.322151e+00    3.339607e+00
  3.338027e+00    3.376642e+00
  3.353902e+00    3.449433e+00
  3.369778e+00    3.406188e+00
  3.385654e+00    3.351119e+00
  3.401529e+00    3.480770e+00
  3.417405e+00    3.490144e+00
  3.433280e+00    3.429002e+00
  3.449156e+00    3.476538e+00
  3.465031e+00    3.530198e+00
  3.480907e+00    3.356478e+00
  3.496783e+00    3.398138e+00
  3.512658e+00    3.538091e+00
  3.528534e+00    3.525027e+00
  3.544409e+00    3.470321e+00
  3.560285e+00    3.505990e+00
  3.576160e+00    3.495973e+00
  3.592036e+00    3.446932e+00
  3.607912e+00    3.429668e+00
  3.623787e+00    3.489787e+00
  3.639663e+00    3.376867e+00
  3.655538e+00    3.342518e+00
  3.671414e+00    3.405921e+00
  3.687289e+00    3.488508e+00
  3.703165e+00    3.558371e+00
  3.719041e+00    3.467453e+00
  3.734916e+00    3.445537e+00
  3.750792e+00    3.402425e+00
  3.766667e+00    3.487085e+00
  3.782543e+00    3.442182e+00
  3.798418e+00    3.432150e+00
  3.814294e+00    3.410904e+00
  3.830170e+00    3.483169e+00
  3.846045e+00    3.544035e+00
  3.861921e+00    3.584928e+00
  3.877796e+00    3.614337e+00
  3.893672e+00    3.616513e+00
  3.909547e+00    3.507668e+00
  3.925423e+00    3.540149e+00
  3.941299e+00    3.573281e+00
  3.957174e+00    3.591589e+00
  3.973050e+00    3.444673e+00
  3.988925e+00    3.522954e+00
  4.004801e+00    3.520535e+00
  4.020676e+00    3.477249e+00
  4.036552e+00    3.549438e+00
  4.052428e+00    3.535784e+00
  4.068303e+00    3.500295e+00
  4.084179e+00    3.568137e+00
  4.100054e+00    3.592226e+00
  4.115930e+00    3.526568e+00
  4.131806e+00    3.527163e+00
  4.147681e+00    3.565416e+00
  4.163557e+00    3.589214e+00
  4.179432e+00    3.590452e+00
  4.195308e+00    3.557054e+00
  4.211183e+00    3.515339e+00
  4.227059e+00    3.558076e+00
  4.242935e+00    3.567051e+00
  4.258810e+00    3.575801e+00
  4.274686e+00    3.559721e+00
  4.290561e+00    3.489959e+00
  4.306437e+00    3.537205e+00
  4.322312e+00    3.530279e+00
  4.338188e+00    3.542697e+00
  4.354064e+00    3.560004e+00
  4.369939e+00    3.608233e+00
  4.385815e+00    3.597448e+00
  4.401690e+00    3.576830e+00
  4.417566e+00    3.566742e+00
  4.433441e+00    3.551191e+00
  4.449317e+00    3.583028e+00
  4.465193e+00    3.627369e+00
  4.481068e+00    3.583289e+00
  4.496944e+00    3.537186e+00
  4.512819e+00    3.665071e+00
  4.528695e+00    3.664820e+00
  4.544570e+00    3.580161e+00
  4.560446e+00    3.619802e+00
  4.576322e+00    3.669701e+00
  4.592197e+00    3.647256e+00
  4.608073e+00    3.611204e+00
  4.623948e+00    3.708278e+00
  4.639824e+00    3.685266e+00
  4.655699e+00    3.639410e+00
  4.671575e+00    3.646239e+00
  4.687451e+00    3.617156e+00
  4.703326e+00    3.649760e+00
  4.719202e+00    3.596902e+00
  4.735077e+00    3.540792e+00
  4.750953e+00    3.538443e+00
  4.766828e+00    3.669804e+00
  4.782704e+00    3.645241e+00
  4.798580e+00    3.594011e+00
  4.814455e+00    3.585387e+00
  4.830331e+00    3.571493e+00
  4.846206e+00    3.597862e+00
  4.862082e+00    3.634992e+00
  4.877957e+00    3.706394e+00
  4.893833e+00    3.526791e+00
  4.909709e+00    3.466231e+00
  4.925584e+00    3.570631e+00
  4.941460e+00    3.619043e+00
  4.957335e+00    3.643906e+00
  4.973211e+00    3.581021e+00
  4.989086e+00    3.580205e+00
  5.004962e+00    3.656637e+00
  5.020838e+00    3.713697e+00
  5.036713e+00    3.691460e+00
  5.052589e+00    3.648263e+00
  5.068464e+00    3.690708e+00
  5.084340e+00    3.675386e+00
  5.100216e+00    3.677803e+00
  5.116091e+00    3.706245e+00
  5.131967e+00    3.709939e+00
  5.147842e+00    3.660364e+00
  5.163718e+00    3.677807e+00
  5.179593e+00    3.585480e+00
  5.195469e+00    3.666688e+00
  5.211345e+00    3.606004e+00
  5.227220e+00    3.649185e+00
  5.243096e+00    3.650004e+00
  5.258971e+00    3.647597e+00
  5.274847e+00    3.605713e+00
  5.290722e+00    3.673028e+00
  5.306598e+00    3.692103e+00
  5.322474e+00    3.658706e+00
  5.338349e+00    3.633578e+00
  5.354225e+00    3.676135e+00
  5.370100e+00    3.656187e+00
  5.385976e+00    3.606986e+00
  5.401851e+00    3.579918e+00
  5.417727e+00    3.578959e+00
  5.433603e+00    3.602323e+00
  5.449478e+00    3.607357e+00
  5.465354e+00    3.571582e+00
  5.481229e+00    3.591520e+00
  5.497105e+00    3.619994e+00
  5.512980e+00    3.658245e+00
  5.528856e+00    3.624993e+00
  5.544732e+00    3.624068e+00
  5.560607e+00    3.562093e+00
  5.576483e+00    3.596962e+00
  5.592358e+00    3.529169e+00
  5.608234e+00    3.502629e+00
  5.624109e+00    3.589810e+00
  5.639985e+00    3.558248e+00
  5.655861e+00    3.579280e+00
  5.671736e+00    3.669648e+00
  5.687612e+00    3.666390e+00
  5.703487e+00    3.602839e+00
  5.719363e+00    3.551352e+00
  5.735238e+00    3.549216e+00
  5.751114e+00    3.534796e+00
  5.766990e+00    3.674197e+00
  5.782865e+00    3.605875e+00
  5.798741e+00    3.513493e+00
  5.814616e+00    3.545090e+00
  5.830492e+00    3.529536e+00
  5.846367e+00    3.466752e+00
  5.862243e+00    3.470558e+00
  5.878119e+00    3.595369e+00
  5.893994e+00    3.605794e+00
  5.909870e+00    3.568733e+00
  5.925745e+00    3.604013e+00
  5.941621e+00    3.604967e+00
  5.957497e+00    3.474181e+00
  5.973372e+00    3.455816e+00
  5.989248e+00    3.510102e+00
  6.005123e+00    3.560528e+00
  6.020999e+00    3.605515e+00
  6.036874e+00    3.556290e+00
  6.052750e+00    3.522866e+00
  6.068626e+00    3.637053e+00
  6.084501e+00    3.648658e+00
  6.100377e+00    3.664444e+00
  6.116252e+00    3.621055e+00
  6.132128e+00    3.521236e+00
  6.148003e+00    3.657951e+00
  6.163879e+00    3.686667e+00
  6.179755e+00    3.596704e+00
  6.195630e+00    3.587952e+00
  6.211506e+00    3.559502e+00
  6.227381e+00    3.614164e+00
  6.243257e+00    3.626333e+00
  6.259132e+00    3.723490e+00
  6.275008e+00    3.651992e+00
  6.290884e+00    3.538671e+00
  6.306759e+00    3.550324e+00
  6.322635e+00    3.554203e+00
  6.338510e+00    3.497307e+00
  6.354386e+00    3.572517e+00
  6.370261e+00    3.541672e+00
  6.386137e+00    3.515832e+00
  6.402013e+00    3.496625e+00
  6.417888e+00    3.497006e+00
  6.433764e+00    3.547862e+00
  6.449639e+00    3.639591e+00
  6.465515e+00    3.503122e+00
  6.481390e+00    3.514738e+00
  6.497266e+00    3.560105e+00
  6.513142e+00    3.536876e+00
  6.529017e+00    3.594406e+00
  6.544893e+00    3.520151e+00
  6.560768e+00    3.561251e+00
  6.576644e+00    3.579783e+00
  6.592519e+00    3.517053e+00
  6.608395e+00    3.537099e+00
  6.624271e+00    3.605720e+00
  6.640146e+00    3.540375e+00
  6.656022e+00    3.510043e+00
  6.671897e+00    3.609447e+00
  6.687773e+00    3.549554e+00
  6.703648e+00    3.524485e+00
  6.719524e+00    3.653271e+00
  6.735400e+00    3.637387e+00
  6.751275e+00    3.612503e+00
  6.767151e+00    3.580471e+00
  6.783026e+00    3.581658e+00
  6.798902e+00    3.512834e+00
  6.814777e+00    3.473344e+00
  6.830653e+00    3.458235e+00
  6.846529e+00    3.454202e+00
  6.862404e+00    3.537654e+00
  6.878280e+00    3.580006e+00
  6.894155e+00    3.574282e+00
  6.910031e+00    3.531332e+00
  6.925907e+00    3.604200e+00
  6.941782e+00    3.533417e+00
  6.957658e+00    3.461694e+00
  6.973533e+00    3.482037e+00
  6.989409e+00    3.477425e+00
  7.005284e+00    3.431569e+00
  7.021160e+00    3.556493e+00
  7.037036e+00    3.548663e+00
  7.052911e+00    3.497396e+00
  7.068787e+00    3.569779e+00
  7.084662e+00    3.547722e+00
  7.100538e+00    3.519722e+00
  7.116413e+00    3.480078e+00
  7.132289e+00    3.553476e+00
  7.148165e+00    3.595849e+00
  7.164040e+00    3.511190e+00
  7.179916e+00    3.531954e+00
  7.195791e+00    3.556785e+00
  7.211667e+00    3.557652e+00
  7.227542e+00    3.554394e+00
  7.243418e+00    3.598078e+00
  7.259294e+00    3.559686e+00
  7.275169e+00    3.513656e+00
  7.291045e+00    3.402629e+00
  7.306920e+00    3.449079e+00
  7.322796e+00    3.541927e+00
  7.338671e+00    3.480890e+00
  7.354547e+00    3.513935e+00
  7.370423e+00    3.536996e+00
  7.386298e+00    3.523289e+00
  7.402174e+00    3.559483e+00
  7.418049e+00    3.516653e+00
  7.433925e+00    3.519114e+00
  7.449800e+00    3.511656e+00
  7.465676e+00    3.566520e+00
  7.481552e+00    3.394908e+00
  7.497427e+00    3.422574e+00
  7.513303e+00    3.499290e+00
  7.529178e+00    3.475017e+00
  7.545054e+00    3.398355e+00
  7.560929e+00    3.441031e+00
  7.576805e+00    3.532823e+00
  7.592681e+00    3.517599e+00
  7.608556e+00    3.456034e+00
  7.624432e+00    3.429334e+00
  7.640307e+00    3.498159e+00
  7.656183e+00    3.401583e+00
  7.672058e+00    3.442259e+00
  7.687934e+00    3.486752e+00
  7.703810e+00    3.508636e+00
  7.719685e+00    3.437458e+00
  7.735561e+00    3.376139e+00
  7.751436e+00    3.412191e+00
  7.767312e+00    3.438394e+00
  7.783187e+00    3.481809e+00
  7.799063e+00    3.517408e+00
  7.814939e+00    3.455576e+00
  7.830814e+00    3.465079e+00
  7.846690e+00    3.404083e+00
  7.862565e+00    3.402160e+00
  7.878441e+00    3.448753e+00
  7.894317e+00    3.510103e+00
  7.910192e+00    3.490747e+00
  7.926068e+00    3.503691e+00
  7.941943e+00    3.462116e+00
  7.957819e+00    3.422919e+00
  7.973694e+00    3.454133e+00
  7.989570e+00    3.384516e+00
  8.005446e+00    3.391696e+00
  8.021321e+00    3.479838e+00
  8.037197e+00    3.436848e+00
  8.053072e+00    3.349122e+00
  8.068948e+00    3.389334e+00
  8.084823e+00    3.434956e+00
  8.100699e+00    3.488391e+00
  8.116575e+00    3.476600e+00
  8.132450e+00    3.435446e+00
  8.148326e+00    3.494181e+00
  8.164201e+00    3.493134e+00
  8.180077e+00    3.442424e+00
  8.195952e+00    3.444217e+00
  8.211828e+00    3.428134e+00
  8.227704e+00    3.487389e+00
  8.243579e+00    3.475634e+00
  8.259455e+00    3.412917e+00
  8.275330e+00    3.343451e+00
  8.291206e+00    3.425948e+00
  8.307081e+00    3.445051e+00
  8.322957e+00    3.384995e+00
  8.338833e+00    3.393383e+00
  8.354708e+00    3.370048e+00
  8.370584e+00    3.389438e+00
  8.386459e+00    3.408988e+00
  8.402335e+00    3.397023e+00
  8.418210e+00    3.362767e+00
  8.434086e+00    3.408444e+00
  8.449962e+00    3.389367e+00
  8.465837e+00    3.383150e+00
  8.481713e+00    3.489775e+00
  8.497588e+00    3.404422e+00
  8.513464e+00    3.367501e+00
  8.529339e+00    3.408557e+00
  8.545215e+00    3.409286e+00
  8.561091e+00    3.398553e+00
  8.576966e+00    3.362694e+00
  8.592842e+00    3.360743e+00
  8.608717e+00    3.309315e+00
  8.624593e+00    3.271551e+00
  8.640468e+00    3.353254e+00
  8.656344e+00    3.354718e+00
  8.672220e+00    3.321705e+00
  8.688095e+00    3.337555e+00
  8.703971e+00    3.344218e+00
  8.719846e+00    3.362643e+00
  8.735722e+00    3.370448e+00
  8.751598e+00    3.336323e+00
  8.767473e+00    3.336934e+00
  8.783349e+00    3.321266e+00
  8.799224e+00    3.359885e+00
  8.815100e+00    3.324423e+00
  8.830975e+00    3.363191e+00
  8.846851e+00    3.326409e+00
  8.862727e+00    3.358420e+00
  8.878602e+00    3.355418e+00
  8.894478e+00    3.311599e+00
  8.910353e+00    3.304662e+00
  8.926229e+00    3.298213e+00
  8.942104e+00    3.273620e+00
  8.957980e+00    3.279718e+00
  8.973856e+00    3.273331e+00
  8.989731e+00    3.303822e+00
  9.005607e+00    3.276465e+00
  9.021482e+00    3.301438e+00
  9.037358e+00    3.326456e+00
  9.053233e+00    3.319826e+00
  9.069109e+00    3.236777e+00
  9.084985e+00    3.219733e+00
  9.100860e+00    3.282068e+00
  9.116736e+00    3.282061e+00
  9.132611e+00    3.319375e+00
  9.148487e+00    3.237664e+00
  9.164362e+00    3.271733e+00
  9.180238e+00    3.281246e+00
  9.196114e+00    3.297478e+00
  9.211989e+00    3.275766e+00
  9.227865e+00    3.212536e+00
  9.243740e+00    3.175487e+00
  9.259616e+00    3.230741e+00
  9.275491e+00    3.260590e+00
  9.291367e+00    3.237488e+00
  9.307243e+00    3.240397e+00
  9.323118e+00    3.195499e+00
  9.338994e+00    3.233649e+00
  9.354869e+00    3.237443e+00
  9.370745e+00    3.229263e+00
  9.386620e+00    3.317141e+00
  9.402496e+00    3.279227e+00
  9.418372e+00    3.229798e+00
  9.434247e+00    3.185096e+00
  9.450123e+00    3.189009e+00
  9.465998e+00    3.214931e+00
  9.481874e+00    3.198566e+00
  9.497749e+00    3.190623e+00
  9.513625e+00    3.187547e+00
  9.529501e+00    3.234548e+00
  9.545376e+00    3.191172e+00
  9.561252e+00    3.222405e+00
  9.577127e+00    3.281672e+00
  9.593003e+00    3.199297e+00
  9.608878e+00    3.194817e+00
  9.624754e+00    3.195240e+00
  9.640630e+00    3.194090e+00
  9.656505e+00    3.224750e+00
  9.672381e+00    3.252027e+00
  9.688256e+00    3.202962e+00
  9.704132e+00    3.172029e+00
  9.720008e+00    3.216446e+00
  9.735883e+00    3.193249e+00
  9.751759e+00    3.128461e+00
  9.767634e+00    3.126636e+00
  9.783510e+00    3.104968e+00
  9.799385e+00    3.158739e+00
  9.815261e+00    3.190918e+00
  9.831137e+00    3.177353e+00
  9.847012e+00    3.140049e+00
  9.862888e+00    3.153590e+00
  9.878763e+00    3.213903e+00
  9.894639e+00    3.140505e+00
  9.910514e+00    3.090852e+00
  9.926390e+00    3.125431e+00
  9.942266e+00    3.118654e+00
  9.958141e+00    3.113221e+00
  9.974017e+00    3.139765e+00
  9.989892e+00    3.161515e+00
  1.000577e+01    3.158448e+00
  1.002164e+01    3.124675e+00
  1.003752e+01    3.083973e+00
  1.005339e+01    3.054783e+00
  1.006927e+01    3.098644e+00
  1.008515e+01    3.089031e+00
  1.010102e+01    3.148244e+00
  1.011690e+01    3.118512e+00
  1.013277e+01    3.109197e+00
  1.014865e+01    3.123454e+00
  1.016452e+01    3.039143e+00
  1.018040e+01    3.007003e+00
  1.019627e+01    3.085966e+00
  1.021215e+01    3.033808e+00
  1.022803e+01    3.019710e+00
  1.024390e+01    3.087048e+00
  1.025978e+01    3.090909e+00
  1.027565e+01    3.069784e+00
  1.029153e+01    3.045216e+00
  1.030740e+01    2.987284e+00
  1.032328e+01    3.024889e+00
  1.033915e+01    3.006821e+00
  1.035503e+01    3.005735e+00
  1.037091e+01    2.992924e+00
  1.038678e+01    3.067913e+00
  1.040266e+01    3.123259e+00
  1.041853e+01    3.087653e+00
  1.043441e+01    3.045029e+00
  1.045028e+01    2.984286e+00
  1.046616e+01    3.005997e+00
  1.048204e+01    3.014708e+00
  1.049791e+01    2.993227e+00
  1.051379e+01    3.008118e+00
  1.052966e+01    3.055372e+00
  1.054554e+01    3.100532e+00
  1.056141e+01    3.041411e+00
  1.057729e+01    3.012126e+00
  1.059316e+01    3.044953e+00
  1.060904e+01    3.014463e+00
  1.062492e+01    3.033157e+00
  1.064079e+01    2.996523e+00
  1.065667e+01    3.018800e+00
  1.067254e+01    3.006786e+00
  1.068842e+01    3.028214e+00
  1.070429e+01    2.992342e+00
  1.072017e+01    2.926906e+00
  1.073604e+01    2.970234e+00
  1.075192e+01    2.975838e+00
  1.076780e+01    2.990904e+00
  1.078367e+01    2.949107e+00
  1.079955e+01    2.918728e+00
  1.081542e+01    2.883645e+00
  1.083130e+01    2.921636e+00
  1.084717e+01    2.990725e+00
  1.086305e+01    2.989461e+00
  1.087892e+01    2.934206e+00
  1.089480e+01    2.955179e+00
  1.091068e+01    2.951166e+00
  1.092655e+01    2.914111e+00
  1.094243e+01    2.925509e+00
  1.095830e+01    2.886297e+00
  1.097418e+01    2.840776e+00
  1.099005e+01    2.897139e+00
  1.100593e+01    2.945178e+00
  1.102180e+01    2.926680e+00
  1.103768e+01    2.924157e+00
  1.105356e+01    2.922962e+00
  1.106943e+01    2.903039e+00
  1.108531e+01    2.911524e+00
  1.110118e+01    2.845907e+00
  1.111706e+01    2.897211e+00
  1.113293e+01    2.909849e+00
  1.114881e+01    2.875937e+00
  1.116468e+01    2.851527e+00
  1.118056e+01    2.876255e+00
  1.119644e+01    2.865021e+00
  1.121231e+01    2.887278e+00
  1.122819e+01    2.883225e+00
  1.124406e+01    2.841288e+00
  1.125994e+01    2.874098e+00
  1.127581e+01    2.831048e+00
  1.129169e+01    2.821193e+00
  1.130756e+01    2.836296e+00
  1.132344e+01    2.812649e+00
  1.133932e+01    2.791578e+00
  1.135519e+01    2.849885e+00
  1.137107e+01    2.806572e+00
  1.138694e+01    2.786976e+00
  1.140282e+01    2.837179e+00
  1.141869e+01    2.795003e+00
  1.143457e+01    2.817595e+00
  1.145045e+01    2.816879e+00
  1.146632e+01    2.783722e+00
  1.148220e+01    2.822033e+00
  1.149807e+01    2.792398e+00
  1.151395e+01    2.806118e+00
  1.152982e+01    2.757881e+00
  1.154570e+01    2.733349e+00
  1.156157e+01    2.734645e+00
  1.157745e+01    2.765194e+00
  1.159333e+01    2.835455e+00
  1.160920e+01    2.811484e+00
  1.162508e+01    2.765209e+00
  1.164095e+01    2.764042e+00
  1.165683e+01    2.803980e+00
  1.167270e+01    2.780826e+00
  1.168858e+01    2.749921e+00
  1.170445e+01    2.694125e+00
  1.172033e+01    2.690766e+00
  1.173621e+01    2.678380e+00
  1.175208e+01    2.722665e+00
  1.176796e+01    2.719555e+00
  1.178383e+01    2.697367e+00
  1.179971e+01    2.764262e+00
  1.181558e+01    2.792065e+00
  1.183146e+01    2.743314e+00
  1.184733e+01    2.734033e+00
  1.186321e+01    2.741355e+00
  1.187909e+01    2.774626e+00
  1.189496e+01    2.726726e+00
  1.191084e+01    2.709502e+00
  1.192671e+01    2.694810e+00
  1.194259e+01    2.656681e+00
  1.195846e+01    2.634676e+00
  1.197434e+01    2.667074e+00
  1.199021e+01    2.710791e+00
  1.200609e+01    2.715235e+00
  1.202197e+01    2.705455e+00
  1.203784e+01    2.720614e+00
  1.205372e+01    2.702061e+00
  1.206959e+01    2.721018e+00
  1.208547e+01    2.725976e+00
  1.210134e+01    2.739851e+00
  1.211722e+01    2.696649e+00
  1.213309e+01    2.677669e+00
  1.214897e+01    2.649967e+00
  1.216485e+01    2.672510e+00
  1.218072e+01    2.707839e+00
  1.219660e+01    2.697022e+00
  1.221247e+01    2.678713e+00
  1.222835e+01    2.710546e+00
  1.224422e+01    2.701208e+00
  1.226010e+01    2.672054e+00
  1.227597e+01    2.688259e+00
  1.229185e+01    2.699050e+00
  1.230773e+01    2.742934e+00
  1.232360e+01    2.665735e+00
  1.233948e+01    2.660687e+00
  1.235535e+01    2.677691e+00
  1.237123e+01    2.684638e+00
  1.238710e+01    2.702723e+00
  1.240298e+01    2.694452e+00
  1.241886e+01    2.691182e+00
  1.243473e+01    2.664262e+00
  1.245061e+01    2.655225e+00
  1.246648e+01    2.649738e+00
  1.248236e+01    2.692698e+00
  1.249823e+01    2.711306e+00
  1.251411e+01    2.727860e+00
  1.252998e+01    2.711700e+00
  1.254586e+01    2.736794e+00
  1.256174e+01    2.707000e+00
  1.257761e+01    2.679355e+00
  1.259349e+01    2.684758e+00
  1.260936e+01    2.732818e+00
  1.262524e+01    2.752456e+00
  1.264111e+01    2.725474e+00
  1.265699e+01    2.770999e+00
  1.267286e+01    2.796127e+00
  1.268874e+01    2.818397e+00
  1.270462e+01    2.810795e+00
  1.272049e+01    2.851381e+00
  1.273637e+01    2.875030e+00
  1.275224e+01    2.905082e+00
  1.276812e+01    2.936508e+00
  1.278399e+01    2.925415e+00
  1.279987e+01    2.981537e+00
  1.281574e+01    3.032645e+00
  1.283162e+01    3.111910e+00
  1.284750e+01    3.171909e+00
  1.286337e+01    3.295040e+00
  1.287925e+01    3.403753e+00
  1.289512e+01    3.521553e+00
  1.291100e+01    3.675889e+00
  1.292687e+01    3.862755e+00
  1.294275e+01    4.052568e+00
  1.295862e+01    4.355099e+00
  1.297450e+01    4.701367e+00
  1.299038e+01    5.234713e+00
  1.300625e+01    5.861750e+00
  1.302213e+01    6.582941e+00
  1.303800e+01    7.624729e+00
  1.305388e+01    8.761811e+00
  1.306975e+01    9.972885e+00
  1.308563e+01    1.133710e+01
  1.310150e+01    1.271852e+01
  1.311738e+01    1.386309e+01
  1.313326e+01    1.478326e+01
  1.314913e+01    1.559506e+01
  1.316501e+01    1.622632e+01
  1.318088e+01    1.627510e+01
  1.319676e+01    1.559671e+01
  1.321263e+01    1.430331e+01
  1.322851e+01    1.245881e+01
  1.324438e+01    1.070622e+01
  1.326026e+01    9.078410e+00
  1.327614e+01    7.776191e+00
  1.329201e+01    6.800252e+00
  1.330789e+01    5.956607e+00
  1.332376e+01    5.284411e+00
  1.333964e+01    4.845366e+00
  1.335551e+01    4.417795e+00
  1.337139e+01    4.053583e+00
  1.338727e+01    3.795825e+00
  1.340314e+01    3.639874e+00
  1.341902e+01    3.486499e+00
  1.343489e+01    3.303332e+00
  1.345077e+01    3.198283e+00
  1.346664e+01    3.102196e+00
  1.348252e+01    3.024792e+00
  1.349839e+01    2.963784e+00
  1.351427e+01    2.867118e+00
  1.353015e+01    2.843641e+00
  1.354602e+01    2.821591e+00
  1.356190e+01    2.821790e+00
  1.357777e+01    2.756581e+00
  1.359365e+01    2.660987e+00
  1.360952e+01    2.648216e+00
  1.362540e+01    2.649345e+00
  1.364127e+01    2.627074e+00
  1.365715e+01    2.575215e+00
  1.367303e+01    2.592044e+00
  1.368890e+01    2.516082e+00
  1.370478e+01    2.558033e+00
  1.372065e+01    2.508765e+00
  1.373653e+01    2.464311e+00
  1.375240e+01    2.472837e+00
  1.376828e+01    2.476068e+00
  1.378415e+01    2.410083e+00
  1.380003e+01    2.432945e+00
  1.381591e+01    2.504180e+00
  1.383178e+01    2.479797e+00
  1.384766e+01    2.437681e+00
  1.386353e+01    2.452191e+00
  1.387941e+01    2.432417e+00
  1.389528e+01    2.437576e+00
  1.391116e+01    2.420733e+00
  1.392703e+01    2.428604e+00
  1.394291e+01    2.407311e+00
  1.395879e+01    2.405008e+00
  1.397466e+01    2.357844e+00
  1.399054e+01    2.354401e+00
  1.400641e+01    2.378989e+00
  1.402229e+01    2.366622e+00
  1.403816e+01    2.342700e+00
  1.405404e+01    2.310127e+00
  1.406991e+01    2.320660e+00
  1.408579e+01    2.325094e+00
  1.410167e+01    2.334366e+00
  1.411754e+01    2.285174e+00
  1.413342e+01    2.294162e+00
  1.414929e+01    2.272887e+00
  1.416517e+01    2.293344e+00
  1.418104e+01    2.304525e+00
  1.419692e+01    2.307794e+00
  1.421279e+01    2.319120e+00
  1.422867e+01    2.270313e+00
  1.424455e+01    2.250350e+00
  1.426042e+01    2.256927e+00
  1.427630e+01    2.281486e+00
  1.429217e+01    2.266491e+00
  1.430805e+01    2.278075e+00
  1.432392e+01    2.295084e+00
  1.433980e+01    2.257551e+00
  1.435568e+01    2.227415e+00
  1.437155e+01    2.264122e+00
  1.438743e+01    2.285299e+00
  1.440330e+01    2.254937e+00
  1.441918e+01    2.235022e+00
  1.443505e+01    2.224071e+00
  1.445093e+01    2.185592e+00
  1.446680e+01    2.161101e+00
  1.448268e+01    2.232659e+00
  1.449856e+01    2.212990e+00
  1.451443e+01    2.207645e+00
  1.453031e+01    2.213760e+00
  1.454618e+01    2.208041e+00
  1.456206e+01    2.228945e+00
  1.457793e+01    2.228279e+00
  1.459381e+01    2.237811e+00
  1.460968e+01    2.207276e+00
  1.462556e+01    2.226350e+00
  1.464144e+01    2.242855e+00
  1.465731e+01    2.204450e+00
  1.467319e+01    2.147569e+00
  1.468906e+01    2.135896e+00
  1.470494e+01    2.161032e+00
  1.472081e+01    2.173990e+00
  1.473669e+01    2.185384e+00
  1.475256e+01    2.223285e+00
  1.476844e+01    2.176381e+00
  1.478432e+01    2.185560e+00
  1.480019e+01    2.154591e+00
  1.481607e+01    2.176586e+00
  1.483194e+01    2.241437e+00
  1.484782e+01    2.214394e+00
  1.486369e+01    2.229671e+00
  1.487957e+01    2.260664e+00
  1.489544e+01    2.238470e+00
  1.491132e+01    2.260230e+00
  1.492720e+01    2.268579e+00
  1.494307e+01    2.262124e+00
  1.495895e+01    2.291314e+00
  1.497482e+01    2.326565e+00
  1.499070e+01    2.420728e+00
  1.500657e+01    2.445571e+00
  1.502245e+01    2.460519e+00
  1.503832e+01    2.556331e+00
  1.505420e+01    2.715254e+00
  1.507008e+01    2.828489e+00
  1.508595e+01    2.986861e+00
  1.510183e+01    3.222321e+00
  1.511770e+01    3.489488e+00
  1.513358e+01    3.790253e+00
  1.514945e+01    4.123067e+00
  1.516533e+01    4.489421e+00
  1.518120e+01    4.821456e+00
  1.519708e+01    5.222498e+00
  1.521296e+01    5.461196e+00
  1.522883e+01    5.538424e+00
  1.524471e+01    5.676960e+00
  1.526058e+01    5.807456e+00
  1.527646e+01    5.693484e+00
  1.529233e+01    5.379737e+00
  1.530821e+01    5.105182e+00
  1.532409e+01    4.727119e+00
  1.533996e+01    4.200391e+00
  1.535584e+01    3.792336e+00
  1.537171e+01    3.453521e+00
  1.538759e+01    3.139830e+00
  1.540346e+01    2.955036e+00
  1.541934e+01    2.754247e+00
  1.543521e+01    2.611373e+00
  1.545109e+01    2.514659e+00
  1.546697e+01    2.400820e+00
  1.548284e+01    2.354977e+00
  1.549872e+01    2.292710e+00
  1.551459e+01    2.267542e+00
  1.553047e+01    2.233585e+00
  1.554634e+01    2.161222e+00
  1.556222e+01    2.140688e+00
  1.557809e+01    2.156451e+00
  1.559397e+01    2.133092e+00
  1.560985e+01    2.082429e+00
  1.562572e+01    2.066833e+00
  1.564160e+01    2.003509e+00
  1.565747e+01    1.990230e+00
  1.567335e+01    1.997958e+00
  1.568922e+01    1.994100e+00
  1.570510e+01    1.989065e+00
  1.572097e+01    2.019879e+00
  1.573685e+01    2.043054e+00
  1.575273e+01    1.989736e+00
  1.576860e+01    1.941743e+00
  1.578448e+01    1.934329e+00
  1.580035e+01    1.928529e+00
  1.581623e+01    1.930534e+00
  1.583210e+01    1.887567e+00
  1.584798e+01    1.894960e+00
  1.586385e+01    1.931552e+00
  1.587973e+01    1.941870e+00
  1.589561e+01    1.877517e+00
  1.591148e+01    1.876008e+00
  1.592736e+01    1.894618e+00
  1.594323e+01    1.871852e+00
  1.595911e+01    1.890303e+00
  1.597498e+01    1.924030e+00
  1.599086e+01    1.879393e+00
  1.600673e+01    1.867156e+00
  1.602261e+01    1.841839e+00
  1.603849e+01    1.884088e+00
  1.605436e+01    1.858534e+00
  1.607024e+01    1.849220e+00
  1.608611e+01    1.867866e+00
  1.610199e+01    1.837766e+00
  1.611786e+01    1.857020e+00
  1.613374e+01    1.827398e+00
  1.614961e+01    1.817224e+00
  1.616549e+01    1.827961e+00
  1.618137e+01    1.876897e+00
  1.619724e+01    1.854547e+00
  1.621312e+01    1.821846e+00
  1.622899e+01    1.824666e+00
  1.624487e+01    1.818556e+00
  1.626074e+01    1.814607e+00
  1.627662e+01    1.789306e+00
  1.629250e+01    1.797473e+00
  1.630837e+01    1.802748e+00
  1.632425e+01    1.799573e+00
  1.634012e+01    1.766667e+00
  1.635600e+01    1.782931e+00
  1.637187e+01    1.806573e+00
  1.638775e+01    1.787815e+00
  1.640362e+01    1.759632e+00
  1.641950e+01    1.752701e+00
  1.643538e+01    1.758572e+00
  1.645125e+01    1.750795e+00
  1.646713e+01    1.745507e+00
  1.648300e+01    1.746036e+00
  1.649888e+01    1.726943e+00
  1.651475e+01    1.760287e+00
  1.653063e+01    1.732895e+00
  1.654650e+01    1.760728e+00
  1.656238e+01    1.753261e+00
  1.657826e+01    1.724745e+00
  1.659413e+01    1.727214e+00
  1.661001e+01    1.727164e+00
  1.662588e+01    1.757186e+00
  1.664176e+01    1.709742e+00
  1.665763e+01    1.688788e+00
  1.667351e+01    1.716689e+00
  1.668938e+01    1.732285e+00
  1.670526e+01    1.741300e+00
  1.672114e+01    1.734662e+00
  1.673701e+01    1.704635e+00
  1.675289e+01    1.695889e+00
  1.676876e+01    1.698306e+00
  1.678464e+01    1.717877e+00
  1.680051e+01    1.683744e+00
  1.681639e+01    1.668234e+00
  1.683226e+01    1.656290e+00
  1.684814e+01    1.659261e+00
  1.686402e+01    1.698928e+00
  1.687989e+01    1.698106e+00
  1.689577e+01    1.666581e+00
  1.691164e+01    1.650671e+00
  1.692752e+01    1.671037e+00
  1.694339e+01    1.647979e+00
  1.695927e+01    1.670852e+00
  1.697514e+01    1.671520e+00
  1.699102e+01    1.658712e+00
  1.700690e+01    1.664824e+00
  1.702277e+01    1.671439e+00
  1.703865e+01    1.646341e+00
  1.705452e+01    1.623364e+00
  1.707040e+01    1.614082e+00
  1.708627e+01    1.660771e+00
  1.710215e+01    1.640807e+00
  1.711802e+01    1.634585e+00
  1.713390e+01    1.656987e+00
  1.714978e+01    1.605178e+00
  1.716565e+01    1.596421e+00
  1.718153e+01    1.588452e+00
  1.719740e+01    1.597224e+00
  1.721328e+01    1.629401e+00
  1.722915e+01    1.633827e+00
  1.724503e+01    1.663992e+00
  1.726091e+01    1.636541e+00
  1.727678e+01    1.636917e+00
  1.729266e+01    1.665045e+00
  1.730853e+01    1.639272e+00
  1.732441e+01    1.605664e+00
  1.734028e+01    1.616515e+00
  1.735616e+01    1.626539e+00
  1.737203e+01    1.610220e+00
  1.738791e+01    1.632592e+00
  1.740379e+01    1.643475e+00
  1.741966e+01    1.610466e+00
  1.743554e+01    1.586747e+00
  1.745141e+01    1.581348e+00
  1.746729e+01    1.567780e+00
  1.748316e+01    1.555786e+00
  1.749904e+01    1.600428e+00
  1.751491e+01    1.608156e+00
  1.753079e+01    1.560618e+00
  1.754667e+01    1.562204e+00
  1.756254e+01    1.570863e+00
  1.757842e+01    1.590944e+00
  1.759429e+01    1.587218e+00
  1.761017e+01    1.564941e+00
  1.762604e+01    1.569106e+00
  1.764192e+01    1.553125e+00
  1.765779e+01    1.535120e+00
  1.767367e+01    1.552190e+00
  1.768955e+01    1.551202e+00
  1.770542e+01    1.551895e+00
  1.772130e+01    1.561391e+00
  1.773717e+01    1.551453e+00
  1.775305e+01    1.551400e+00
  1.776892e+01    1.538655e+00
  1.778480e+01    1.522290e+00
  1.780067e+01    1.543700e+00
  1.781655e+01    1.542172e+00
  1.783243e+01    1.531533e+00
  1.784830e+01    1.511156e+00
  1.786418e+01    1.543025e+00
  1.788005e+01    1.534244e+00
  1.789593e+01    1.527805e+00
  1.791180e+01    1.498712e+00
  1.792768e+01    1.540791e+00
  1.794355e+01    1.520455e+00
  1.795943e+01    1.520024e+00
  1.797531e+01    1.507979e+00
  1.799118e+01    1.505531e+00
  1.800706e+01    1.516164e+00
  1.802293e+01    1.498890e+00
  1.803881e+01    1.505528e+00
  1.805468e+01    1.501144e+00
  1.807056e+01    1.491994e+00
  1.808643e+01    1.472018e+00
  1.810231e+01    1.492080e+00
  1.811819e+01    1.489122e+00
  1.813406e+01    1.480533e+00
  1.814994e+01    1.480050e+00
  1.816581e+01    1.498413e+00
  1.818169e+01    1.504369e+00
  1.819756e+01    1.471983e+00
  1.821344e+01    1.455344e+00
  1.822932e+01    1.473847e+00
  1.824519e+01    1.471611e+00
  1.826107e+01    1.463273e+00
  1.827694e+01    1.491155e+00
  1.829282e+01    1.470200e+00
  1.830869e+01    1.481027e+00
  1.832457e+01    1.458152e+00
  1.834044e+01    1.452118e+00
  1.835632e+01    1.463879e+00
  1.837220e+01    1.471733e+00
  1.838807e+01    1.450423e+00
  1.840395e+01    1.447173e+00
  1.841982e+01    1.455967e+00
  1.843570e+01    1.447931e+00
  1.845157e+01    1.446655e+00
  1.846745e+01    1.425874e+00
  1.848332e+01    1.429144e+00
  1.849920e+01    1.433806e+00
  1.851508e+01    1.456573e+00
  1.853095e+01    1.439304e+00
  1.854683e+01    1.456495e+00
  1.856270e+01    1.454414e+00
  1.857858e+01    1.428320e+00
  1.859445e+01    1.447358e+00
  1.861033e+01    1.428430e+00
  1.862620e+01    1.413288e+00
  1.864208e+01    1.416825e+00
  1.865796e+01    1.395867e+00
  1.867383e+01    1.410568e+00
  1.868971e+01    1.405370e+00
  1.870558e+01    1.425872e+00
  1.872146e+01    1.413888e+00
  1.873733e+01    1.404886e+00
  1.875321e+01    1.418303e+00
  1.876908e+01    1.422147e+00
  1.878496e+01    1.415960e+00
  1.880084e+01    1.442600e+00
  1.881671e+01    1.402030e+00
  1.883259e+01    1.405190e+00
  1.884846e+01    1.386595e+00
  1.886434e+01    1.391667e+00
  1.888021e+01    1.378910e+00
  1.889609e+01    1.415363e+00
  1.891196e+01    1.381830e+00
  1.892784e+01    1.374132e+00
  1.894372e+01    1.382444e+00
  1.895959e+01    1.373290e+00
  1.897547e+01    1.367502e+00
  1.899134e+01    1.391537e+00
  1.900722e+01    1.398820e+00
  1.902309e+01    1.398014e+00
  1.903897e+01    1.389029e+00
  1.905484e+01    1.381409e+00
  1.907072e+01    1.367891e+00
  1.908660e+01    1.402122e+00
  1.910247e+01    1.386306e+00
  1.911835e+01    1.376250e+00
  1.913422e+01    1.354623e+00
  1.915010e+01    1.355707e+00
  1.916597e+01    1.372523e+00
  1.918185e+01    1.356537e+00
  1.919773e+01    1.344993e+00
  1.921360e+01    1.368900e+00
  1.922948e+01    1.370171e+00
  1.924535e+01    1.360172e+00
  1.926123e+01    1.354977e+00
  1.927710e+01    1.347023e+00
  1.929298e+01    1.361976e+00
  1.930885e+01    1.355046e+00
  1.932473e+01    1.353272e+00
  1.934061e+01    1.366703e+00
  1.935648e+01    1.361033e+00
  1.937236e+01    1.357588e+00
  1.938823e+01    1.341622e+00
  1.940411e+01    1.350126e+00
  1.941998e+01    1.341498e+00
  1.943586e+01    1.332803e+00
  1.945173e+01    1.346081e+00
  1.946761e+01    1.339815e+00
  1.948349e+01    1.339587e+00
  1.949936e+01    1.316718e+00
  1.951524e+01    1.333014e+00
  1.953111e+01    1.343840e+00
  1.954699e+01    1.333337e+00
  1.956286e+01    1.325260e+00
  1.957874e+01    1.333616e+00
  1.959461e+01    1.318083e+00
  1.961049e+01    1.315765e+00
  1.962637e+01    1.306866e+00
  1.964224e+01    1.314978e+00
  1.965812e+01    1.309051e+00
  1.967399e+01    1.284184e+00
  1.968987e+01    1.281032e+00
  1.970574e+01    1.337526e+00
  1.972162e+01    1.351993e+00
  1.973749e+01    1.324955e+00
  1.975337e+01    1.315095e+00
  1.976925e+01    1.308394e+00
  1.978512e+01    1.319462e+00
  1.980100e+01    1.315998e+00
  1.981687e+01    1.316268e+00
  1.983275e+01    1.297007e+00
  1.984862e+01    1.288020e+00
  1.986450e+01    1.294717e+00
  1.988037e+01    1.306535e+00
  1.989625e+01    1.282010e+00
  1.991213e+01    1.291092e+00
  1.992800e+01    1.301875e+00
  1.994388e+01    1.297576e+00
  1.995975e+01    1.294625e+00
  1.997563e+01    1.293675e+00
  1.999150e+01    1.270153e+00
  2.000738e+01    1.261432e+00
  2.002325e+01    1.263727e+00
  2.003913e+01    1.273221e+00
  2.005501e+01    1.269201e+00
  2.007088e+01    1.292429e+00
  2.008676e+01    1.274408e+00
  2.010263e+01    1.244897e+00
  2.011851e+01    1.251215e+00
  2.013438e+01    1.259767e+00
  2.015026e+01    1.282655e+00
  2.016614e+01    1.280786e+00
  2.018201e+01    1.294230e+00
  2.019789e+01    1.289320e+00
  2.021376e+01    1.264237e+00
  2.022964e+01    1.255047e+00
  2.024551e+01    1.265821e+00
  2.026139e+01    1.265936e+00
  2.027726e+01    1.265449e+00
  2.029314e+01    1.284531e+00
  2.030902e+01    1.282690e+00
  2.032489e+01    1.254041e+00
  2.034077e+01    1.250097e+00
  2.035664e+01    1.251390e+00
  2.037252e+01    1.258878e+00
  2.038839e+01    1.249986e+00
  2.040427e+01    1.247118e+00
  2.042014e+01    1.241630e+00
  2.043602e+01    1.218908e+00
  2.045190e+01    1.277431e+00
  2.046777e+01    1.265342e+00
  2.048365e+01    1.261108e+00
  2.049952e+01    1.235959e+00
  2.051540e+01    1.215884e+00
  2.053127e+01    1.222606e+00
  2.054715e+01    1.223564e+00
  2.056302e+01    1.239988e+00
  2.057890e+01    1.242758e+00
  2.059478e+01    1.254012e+00
  2.061065e+01    1.246246e+00
  2.062653e+01    1.229638e+00
  2.064240e+01    1.212136e+00
  2.065828e+01    1.216754e+00
  2.067415e+01    1.205836e+00
  2.069003e+01    1.213464e+00
  2.070590e+01    1.229551e+00
  2.072178e+01    1.240637e+00
  2.073766e+01    1.224808e+00
  2.075353e+01    1.211928e+00
  2.076941e+01    1.244026e+00
  2.078528e+01    1.230806e+00
  2.080116e+01    1.220603e+00
  2.081703e+01    1.226099e+00
  2.083291e+01    1.237805e+00
  2.084878e+01    1.248024e+00
  2.086466e+01    1.244670e+00
  2.088054e+01    1.231457e+00
  2.089641e+01    1.214366e+00
  2.091229e+01    1.219614e+00
  2.092816e+01    1.220429e+00
  2.094404e+01    1.218184e+00
  2.095991e+01    1.222903e+00
  2.097579e+01    1.206311e+00
  2.099166e+01    1.212486e+00
  2.100754e+01    1.221251e+00
  2.102342e+01    1.243535e+00
  2.103929e+01    1.238853e+00
  2.105517e+01    1.227669e+00
  2.107104e+01    1.225392e+00
  2.108692e+01    1.228372e+00
  2.110279e+01    1.235401e+00
  2.111867e+01    1.244825e+00
  2.113455e+01    1.233947e+00
  2.115042e+01    1.235411e+00
  2.116630e+01    1.245907e+00
  2.118217e+01    1.257789e+00
  2.119805e+01    1.253692e+00
  2.121392e+01    1.252720e+00
  2.122980e+01    1.254012e+00
  2.124567e+01    1.247878e+00
  2.126155e+01    1.244864e+00
  2.127743e+01    1.237348e+00
  2.129330e+01    1.268570e+00
  2.130918e+01    1.270123e+00
  2.132505e+01    1.282305e+00
  2.134093e+01    1.294381e+00
  2.135680e+01    1.277448e+00
  2.137268e+01    1.280571e+00
  2.138855e+01    1.274443e+00
  2.140443e+01    1.293151e+00
  2.142031e+01    1.334119e+00
  2.143618e+01    1.331680e+00
  2.145206e+01    1.339432e+00
  2.146793e+01    1.367906e+00
  2.148381e+01    1.367129e+00
  2.149968e+01    1.396280e+00
  2.151556e+01    1.457941e+00
  2.153143e+01    1.531674e+00
  2.154731e+01    1.520670e+00
  2.156319e+01    1.527052e+00
  2.157906e+01    1.607639e+00
  2.159494e+01    1.698207e+00
  2.161081e+01    1.736193e+00
  2.162669e+01    1.810983e+00
  2.164256e+01    1.960517e+00
  2.165844e+01    2.080791e+00
  2.167431e+01    2.252912e+00
  2.169019e+01    2.486235e+00
  2.170607e+01    2.743102e+00
  2.172194e+01    3.071696e+00
  2.173782e+01    3.498006e+00
  2.175369e+01    3.979529e+00
  2.176957e+01    4.562709e+00
  2.178544e+01    5.128539e+00
  2.180132e+01    5.744737e+00
  2.181719e+01    6.413002e+00
  2.183307e+01    7.103702e+00
  2.184895e+01    7.660873e+00
  2.186482e+01    8.316237e+00
  2.188070e+01    8.716499e+00
  2.189657e+01    8.874980e+00
  2.191245e+01    8.748878e+00
  2.192832e+01    8.246297e+00
  2.194420e+01    7.538824e+00
  2.196007e+01    6.677789e+00
  2.197595e+01    5.721897e+00
  2.199183e+01    4.910102e+00
  2.200770e+01    4.248288e+00
  2.202358e+01    3.641193e+00
  2.203945e+01    3.188273e+00
  2.205533e+01    2.867145e+00
  2.207120e+01    2.545843e+00
  2.208708e+01    2.337852e+00
  2.210296e+01    2.122289e+00
  2.211883e+01    1.995893e+00
  2.213471e+01    1.885164e+00
  2.215058e+01    1.777500e+00
  2.216646e+01    1.672674e+00
  2.218233e+01    1.618674e+00
  2.219821e+01    1.569214e+00
  2.221408e+01    1.511790e+00
  2.222996e+01    1.456363e+00
  2.224584e+01    1.418822e+00
  2.226171e+01    1.383817e+00
  2.227759e+01    1.322546e+00
  2.229346e+01    1.314090e+00
  2.230934e+01    1.289832e+00
  2.232521e+01    1.277544e+00
  2.234109e+01    1.250969e+00
  2.235696e+01    1.243751e+00
  2.237284e+01    1.225146e+00
  2.238872e+01    1.195935e+00
  2.240459e+01    1.191862e+00
  2.242047e+01    1.193684e+00
  2.243634e+01    1.174107e+00
  2.245222e+01    1.181334e+00
  2.246809e+01    1.173040e+00
  2.248397e+01    1.173592e+00
  2.249984e+01    1.146535e+00
  2.251572e+01    1.141057e+00
  2.253160e+01    1.124839e+00
  2.254747e+01    1.136127e+00
  2.256335e+01    1.122623e+00
  2.257922e+01    1.119762e+00
  2.259510e+01    1.120108e+00
  2.261097e+01    1.097156e+00
  2.262685e+01    1.106241e+00
  2.264272e+01    1.112924e+00
  2.265860e+01    1.099909e+00
  2.267448e+01    1.087109e+00
  2.269035e+01    1.086971e+00
  2.270623e+01    1.076460e+00
  2.272210e+01    1.074065e+00
  2.273798e+01    1.058549e+00
  2.275385e+01    1.087345e+00
  2.276973e+01    1.065147e+00
  2.278560e+01    1.057587e+00
  2.280148e+01    1.035070e+00
  2.281736e+01    1.043674e+00
  2.283323e+01    1.040861e+00
  2.284911e+01    1.056674e+00
  2.286498e+01    1.050482e+00
  2.288086e+01    1.038206e+00
  2.289673e+01    1.038932e+00
  2.291261e+01    1.038112e+00
  2.292848e+01    1.035297e+00
  2.294436e+01    1.019986e+00
  2.296024e+01    1.020189e+00
  2.297611e+01    1.038060e+00
  2.299199e+01    1.025906e+00
  2.300786e+01    1.028588e+00
  2.302374e+01    1.024524e+00
  2.303961e+01    1.031985e+00
  2.305549e+01    1.021716e+00
  2.307137e+01    1.001451e+00
  2.308724e+01    1.001226e+00
  2.310312e+01    9.977405e-01
  2.311899e+01    1.018018e+00
  2.313487e+01    1.014291e+00
  2.315074e+01    1.008064e+00
  2.316662e+01    9.966690e-01
  2.318249e+01    1.015943e+00
  2.319837e+01    1.022716e+00
  2.321425e+01    1.011119e+00
  2.323012e+01    9.874694e-01
  2.324600e+01    9.980913e-01
  2.326187e+01    9.625040e-01
  2.327775e+01    9.717361e-01
  2.329362e+01    9.854671e-01
  2.330950e+01    9.941431e-01
  2.332537e+01    9.878401e-01
  2.334125e+01    9.735994e-01
  2.335713e+01    9.823743e-01
  2.337300e+01    9.831601e-01
  2.338888e+01    9.787141e-01
  2.340475e+01    9.665368e-01
  2.342063e+01    9.632965e-01
  2.343650e+01    9.463754e-01
  2.345238e+01    9.628106e-01
  2.346825e+01    9.479078e-01
  2.348413e+01    9.512571e-01
  2.350001e+01    9.453672e-01
  2.351588e+01    9.659835e-01
  2.353176e+01    9.571596e-01
  2.354763e+01    9.374842e-01
  2.356351e+01    9.370250e-01
  2.357938e+01    9.557734e-01
  2.359526e+01    9.567215e-01
  2.361113e+01    9.511153e-01
  2.362701e+01    9.288392e-01
  2.364289e+01    9.588689e-01
  2.365876e+01    9.588858e-01
  2.367464e+01    9.404076e-01
  2.369051e+01    9.432068e-01
  2.370639e+01    9.598114e-01
  2.372226e+01    9.388706e-01
  2.373814e+01    9.272596e-01
  2.375401e+01    9.520482e-01
  2.376989e+01    9.232917e-01
  2.378577e+01    9.150357e-01
  2.380164e+01    9.116921e-01
  2.381752e+01    9.108207e-01
  2.383339e+01    9.224018e-01
  2.384927e+01    8.991462e-01
  2.386514e+01    8.938267e-01
  2.388102e+01    9.333547e-01
  2.389689e+01    9.337847e-01
  2.391277e+01    9.105392e-01
  2.392865e+01    9.110052e-01
  2.394452e+01    9.124733e-01
  2.396040e+01    9.026064e-01
  2.397627e+01    8.990938e-01
  2.399215e+01    9.017921e-01
  2.400802e+01    9.175884e-01
  2.402390e+01    9.119113e-01
  2.403978e+01    9.160110e-01
  2.405565e+01    9.056846e-01
  2.407153e+01    8.875442e-01
  2.408740e+01    8.722730e-01
  2.410328e+01    8.781407e-01
  2.411915e+01    8.868169e-01
  2.413503e+01    8.858886e-01
  2.415090e+01    8.847043e-01
  2.416678e+01    8.810170e-01
  2.418266e+01    8.773465e-01
  2.419853e+01    8.673185e-01
  2.421441e+01    8.806489e-01
  2.423028e+01    8.663700e-01
  2.424616e+01    8.601178e-01
  2.426203e+01    8.872211e-01
  2.427791e+01    9.020991e-01
  2.429378e+01    8.799508e-01
  2.430966e+01    8.968327e-01
  2.432554e+01    8.935211e-01
  2.434141e+01    8.794382e-01
  2.435729e+01    9.079593e-01
  2.437316e+01    8.967769e-01
  2.438904e+01    8.746136e-01
  2.440491e+01    8.818669e-01
  2.442079e+01    9.190270e-01
  2.443666e+01    9.147778e-01
  2.445254e+01    8.764582e-01
  2.446842e+01    8.932155e-01
  2.448429e+01    8.933321e-01
  2.450017e+01    8.820049e-01
  2.451604e+01    8.708174e-01
  2.453192e+01    9.033299e-01
  2.454779e+01    8.998148e-01
  2.456367e+01    8.862743e-01
  2.457954e+01    8.864921e-01
  2.459542e+01    9.088209e-01
  2.461130e+01    9.020312e-01
  2.462717e+01    8.894673e-01
  2.464305e+01    8.946238e-01
  2.465892e+01    8.935438e-01
  2.467480e+01    8.834144e-01
  2.469067e+01    9.046543e-01
  2.470655e+01    8.874786e-01
  2.472242e+01    8.826567e-01
  2.473830e+01    9.043068e-01
  2.475418e+01    9.013818e-01
  2.477005e+01    8.924654e-01
  2.478593e+01    8.759183e-01
  2.480180e+01    8.696935e-01
  2.481768e+01    8.716840e-01
  2.483355e+01    8.944921e-01
  2.484943e+01    9.024441e-01
  2.486530e+01    8.995311e-01
  2.488118e+01    8.933893e-01
  2.489706e+01    8.913846e-01
  2.491293e+01    8.869767e-01
  2.492881e+01    8.959508e-01
  2.494468e+01    8.997627e-01
  2.496056e+01    8.928731e-01
  2.497643e+01    8.957455e-01
  2.499231e+01    8.828737e-01
  2.500819e+01    8.976923e-01
  2.502406e+01    9.145289e-01
  2.503994e+01    9.133790e-01
  2.505581e+01    9.166946e-01
  2.507169e+01    8.984293e-01
  2.508756e+01    8.964455e-01
  2.510344e+01    9.058455e-01
  2.511931e+01    9.126813e-01
  2.513519e+01    9.029704e-01
  2.515107e+01    8.861650e-01
  2.516694e+01    8.961493e-01
  2.518282e+01    9.247825e-01
  2.519869e+01    9.336434e-01
  2.521457e+01    9.165730e-01
  2.523044e+01    9.299886e-01
  2.524632e+01    9.479062e-01
  2.526219e+01    9.382516e-01
  2.527807e+01    9.562535e-01
  2.529395e+01    9.683558e-01
  2.530982e+01    9.667339e-01
  2.532570e+01    9.542168e-01
  2.534157e+01    9.691378e-01
  2.535745e+01    9.741409e-01
  2.537332e+01    9.817054e-01
  2.538920e+01    1.000742e+00
  2.540507e+01    1.016275e+00
  2.542095e+01    1.029505e+00
  2.543683e+01    1.026341e+00
  2.545270e+01    1.019096e+00
  2.546858e+01    1.041752e+00
  2.548445e+01    1.036623e+00
  2.550033e+01    1.038373e+00
  2.551620e+01    1.075028e+00
  2.553208e+01    1.092558e+00
  2.554795e+01    1.116707e+00
  2.556383e+01    1.136894e+00
  2.557971e+01    1.142857e+00
  2.559558e+01    1.184999e+00
  2.561146e+01    1.223039e+00
  2.562733e+01    1.252915e+00
  2.564321e+01    1.309844e+00
  2.565908e+01    1.365091e+00
  2.567496e+01    1.415283e+00
  2.569083e+01    1.488774e+00
  2.570671e+01    1.588958e+00
  2.572259e+01    1.696075e+00
  2.573846e+01    1.817837e+00
  2.575434e+01    1.994353e+00
  2.577021e+01    2.207942e+00
  2.578609e+01    2.463068e+00
  2.580196e+01    2.726667e+00
  2.581784e+01    3.139861e+00
  2.583371e+01    3.561356e+00
  2.584959e+01    4.092981e+00
  2.586547e+01    4.601475e+00
  2.588134e+01    5.209143e+00
  2.589722e+01    5.701568e+00
  2.591309e+01    6.238555e+00
  2.592897e+01    6.628533e+00
  2.594484e+01    6.996781e+00
  2.596072e+01    7.061228e+00
  2.597660e+01    6.930746e+00
  2.599247e+01    6.566002e+00
  2.600835e+01    5.977297e+00
  2.602422e+01    5.284267e+00
  2.604010e+01    4.643472e+00
  2.605597e+01    4.038745e+00
  2.607185e+01    3.459758e+00
  2.608772e+01    3.009833e+00
  2.610360e+01    2.680151e+00
  2.611948e+01    2.403054e+00
  2.613535e+01    2.184148e+00
  2.615123e+01    1.968503e+00
  2.616710e+01    1.804413e+00
  2.618298e+01    1.684787e+00
  2.619885e+01    1.559490e+00
  2.621473e+01    1.477289e+00
  2.623060e+01    1.411960e+00
  2.624648e+01    1.337640e+00
  2.626236e+01    1.266751e+00
  2.627823e+01    1.238484e+00
  2.629411e+01    1.201889e+00
  2.630998e+01    1.179111e+00
  2.632586e+01    1.154730e+00
  2.634173e+01    1.103566e+00
  2.635761e+01    1.079438e+00
  2.637348e+01    1.064387e+00
  2.638936e+01    1.069415e+00
  2.640524e+01    1.070212e+00
  2.642111e+01    1.033824e+00
  2.643699e+01    1.015971e+00
  2.645286e+01    1.013928e+00
  2.646874e+01    1.002719e+00
  2.648461e+01    9.782830e-01
  2.650049e+01    9.948055e-01
  2.651636e+01    9.862546e-01
  2.653224e+01    9.942497e-01
  2.654812e+01    1.004673e+00
  2.656399e+01    1.002813e+00
  2.657987e+01    1.000121e+00
  2.659574e+01    9.828749e-01
  2.661162e+01    9.801640e-01
  2.662749e+01    9.733467e-01
  2.664337e+01    9.707477e-01
  2.665924e+01    9.650488e-01
  2.667512e+01    9.767759e-01
  2.669100e+01    9.608394e-01
  2.670687e+01    9.624394e-01
  2.672275e+01    9.458480e-01
  2.673862e+01    9.749826e-01
  2.675450e+01    9.839712e-01
  2.677037e+01    9.690846e-01
  2.678625e+01    9.601075e-01
  2.680212e+01    9.479926e-01
  2.681800e+01    9.723661e-01
  2.683388e+01    9.731975e-01
  2.684975e+01    9.851171e-01
  2.686563e+01    9.910263e-01
  2.688150e+01    9.878699e-01
  2.689738e+01    1.001503e+00
  2.691325e+01    1.022393e+00
  2.692913e+01    1.009869e+00
  2.694501e+01    1.032596e+00
  2.696088e+01    1.046320e+00
  2.697676e+01    1.036209e+00
  2.699263e+01    1.051002e+00
  2.700851e+01    1.082477e+00
  2.702438e+01    1.138192e+00
  2.704026e+01    1.174214e+00
  2.705613e+01    1.221891e+00
  2.707201e+01    1.290202e+00
  2.708789e+01    1.380423e+00
  2.710376e+01    1.465246e+00
  2.711964e+01    1.581858e+00
  2.713551e+01    1.733490e+00
  2.715139e+01    1.820268e+00
  2.716726e+01    1.958731e+00
  2.718314e+01    2.066655e+00
  2.719901e+01    2.130268e+00
  2.721489e+01    2.208436e+00
  2.723077e+01    2.162606e+00
  2.724664e+01    2.064786e+00
  2.726252e+01    1.982896e+00
  2.727839e+01    1.871909e+00
  2.729427e+01    1.708327e+00
  2.731014e+01    1.551884e+00
  2.732602e+01    1.435725e+00
  2.734189e+01    1.368420e+00
  2.735777e+01    1.268847e+00
  2.737365e+01    1.189096e+00
  2.738952e+01    1.184825e+00
  2.740540e+01    1.124098e+00
  2.742127e+01    1.082022e+00
  2.743715e+01    1.050297e+00
  2.745302e+01    1.036587e+00
  2.746890e+01    1.034077e+00
  2.748477e+01    1.018747e+00
  2.750065e+01    9.859889e-01
  2.751653e+01    9.665678e-01
  2.753240e+01    9.627768e-01
  2.754828e+01    9.547903e-01
  2.756415e+01    9.325845e-01
  2.758003e+01    9.177336e-01
  2.759590e+01    9.171730e-01
  2.761178e+01    9.246624e-01
  2.762765e+01    9.230917e-01
  2.764353e+01    9.055662e-01
  2.765941e+01    9.265862e-01
  2.767528e+01    9.406157e-01
  2.769116e+01    9.429264e-01
  2.770703e+01    9.288694e-01
  2.772291e+01    9.119498e-01
  2.773878e+01    9.117876e-01
  2.775466e+01    9.011864e-01
  2.777054e+01    8.716612e-01
  2.778641e+01    8.825407e-01
  2.780229e+01    8.668557e-01
  2.781816e+01    8.705654e-01
  2.783404e+01    8.932194e-01
  2.784991e+01    8.717739e-01
  2.786579e+01    8.546235e-01
  2.788166e+01    8.815482e-01
  2.789754e+01    8.728573e-01
  2.791342e+01    8.694499e-01
  2.792929e+01    8.699031e-01
  2.794517e+01    8.674915e-01
  2.796104e+01    8.478470e-01
  2.797692e+01    8.570407e-01
  2.799279e+01    8.752753e-01
  2.800867e+01    8.735448e-01
  2.802454e+01    8.618465e-01
  2.804042e+01    8.672847e-01
  2.805630e+01    8.664079e-01
  2.807217e+01    8.705498e-01
  2.808805e+01    8.812856e-01
  2.810392e+01    8.764601e-01
  2.811980e+01    8.608638e-01
  2.813567e+01    8.732933e-01
  2.815155e+01    8.474038e-01
  2.816742e+01    8.772630e-01
  2.818330e+01    8.594895e-01
  2.819918e+01    8.394436e-01
  2.821505e+01    8.448005e-01
  2.823093e+01    8.693122e-01
  2.824680e+01    8.543297e-01
  2.826268e+01    8.584858e-01
  2.827855e+01    8.523267e-01
  2.829443e+01    8.506003e-01
  2.831030e+01    8.492183e-01
  2.832618e+01    8.475779e-01
  2.834206e+01    8.302916e-01
  2.835793e+01    8.419318e-01
  2.837381e+01    8.245287e-01
  2.838968e+01    8.456259e-01
  2.840556e+01    8.354496e-01
  2.842143e+01    8.388209e-01
  2.843731e+01    8.571815e-01
  2.845318e+01    8.491772e-01
  2.846906e+01    8.395312e-01
  2.848494e+01    8.386973e-01
  2.850081e+01    8.359111e-01
  2.851669e+01    8.394370e-01
  2.853256e+01    8.509477e-01
  2.854844e+01    8.477560e-01
  2.856431e+01    8.334748e-01
  2.858019e+01    8.148714e-01
  2.859606e+01    8.379110e-01
  2.861194e+01    8.353933e-01
  2.862782e+01    8.245978e-01
  2.864369e+01    8.325834e-01
  2.865957e+01    8.222795e-01
  2.867544e+01    8.287151e-01
  2.869132e+01    8.335994e-01
  2.870719e+01    8.247136e-01
  2.872307e+01    8.382486e-01
  2.873895e+01    8.335279e-01
  2.875482e+01    8.356784e-01
  2.877070e+01    8.302776e-01
  2.878657e+01    8.307778e-01
  2.880245e+01    8.186746e-01
  2.881832e+01    8.231745e-01
  2.883420e+01    8.073535e-01
  2.885007e+01    8.081573e-01
  2.886595e+01    8.299001e-01
  2.888183e+01    8.247275e-01
  2.889770e+01    7.990718e-01
  2.891358e+01    7.988794e-01
  2.892945e+01    8.178676e-01
  2.894533e+01    8.419425e-01
  2.896120e+01    8.317494e-01
  2.897708e+01    8.195870e-01
  2.899295e+01    8.264107e-01
  2.900883e+01    8.111324e-01
  2.902471e+01    8.051710e-01
  2.904058e+01    8.106246e-01
  2.905646e+01    8.178337e-01
  2.907233e+01    8.027828e-01
  2.908821e+01    8.110000e-01
  2.910408e+01    8.132201e-01
  2.911996e+01    8.099776e-01
  2.913583e+01    8.070758e-01
  2.915171e+01    8.153604e-01
  2.916759e+01    8.182587e-01
  2.918346e+01    8.082978e-01
  2.919934e+01    8.227615e-01
  2.921521e+01    8.136519e-01
  2.923109e+01    7.995778e-01
  2.924696e+01    7.984355e-01
  2.926284e+01    8.042730e-01
  2.927871e+01    7.999141e-01
  2.929459e+01    8.008056e-01
  2.931047e+01    7.878295e-01
  2.932634e+01    7.935885e-01
  2.934222e+01    8.089542e-01
  2.935809e+01    8.170106e-01
  2.937397e+01    8.059693e-01
  2.938984e+01    8.290128e-01
  2.940572e+01    8.262124e-01
  2.942159e+01    7.936115e-01
  2.943747e+01    8.185503e-01
  2.945335e+01    7.927352e-01
  2.946922e+01    7.791436e-01
  2.948510e+01    7.821864e-01
  2.950097e+01    7.917457e-01
  2.951685e+01    8.137596e-01
  2.953272e+01    8.124517e-01
  2.954860e+01    8.110195e-01
  2.956447e+01    7.821691e-01
  2.958035e+01    7.842332e-01
  2.959623e+01    8.099715e-01
  2.961210e+01    8.070102e-01
  2.962798e+01    8.163352e-01
  2.964385e+01    8.070759e-01
  2.965973e+01    8.018351e-01
  2.967560e+01    8.034242e-01
  2.969148e+01    8.039559e-01
  2.970736e+01    7.824391e-01
  2.972323e+01    7.770774e-01
  2.973911e+01    7.846200e-01
  2.975498e+01    7.961086e-01
  2.977086e+01    7.747454e-01
  2.978673e+01    7.779409e-01
  2.980261e+01    7.919331e-01
  2.981848e+01    7.884973e-01
  2.983436e+01    7.668799e-01
  2.985024e+01    7.801968e-01
  2.986611e+01    8.031037e-01
  2.988199e+01    7.899711e-01
  2.989786e+01    8.027908e-01
  2.991374e+01    7.883410e-01
  2.992961e+01    7.782882e-01
  2.994549e+01    7.827297e-01
  2.996136e+01    7.946354e-01
  2.997724e+01    7.953500e-01
  2.999312e+01    8.019481e-01
  3.000899e+01    8.019835e-01
  3.002487e+01    7.949067e-01
  3.004074e+01    8.313646e-01
  3.005662e+01    8.235189e-01
  3.007249e+01    8.062702e-01
  3.008837e+01    8.291380e-01
  3.010424e+01    8.136715e-01
  3.012012e+01    7.973333e-01
  3.013600e+01    8.081839e-01
  3.015187e+01    7.935267e-01
  3.016775e+01    7.850270e-01
  3.018362e+01    7.916982e-01
  3.019950e+01    7.937858e-01
  3.021537e+01    7.874867e-01
  3.023125e+01    7.986352e-01
  3.024712e+01    7.949210e-01
  3.026300e+01    7.808468e-01
  3.027888e+01    7.911179e-01
  3.029475e+01    8.068748e-01
  3.031063e+01    7.907928e-01
  3.032650e+01    7.818392e-01
  3.034238e+01    7.658852e-01
  3.035825e+01    7.742417e-01
  3.037413e+01    8.006775e-01
  3.039000e+01    7.904693e-01
  3.040588e+01    7.777215e-01
  3.042176e+01    7.757980e-01
  3.043763e+01    7.876819e-01
  3.045351e+01    7.735403e-01
  3.046938e+01    7.868195e-01
  3.048526e+01    7.892555e-01
  3.050113e+01    7.857971e-01
  3.051701e+01    8.068327e-01
  3.053288e+01    7.696733e-01
  3.054876e+01    7.849844e-01
  3.056464e+01    7.998119e-01
  3.058051e+01    7.819132e-01
  3.059639e+01    7.645396e-01
  3.061226e+01    7.598466e-01
  3.062814e+01    7.784576e-01
  3.064401e+01    8.033897e-01
  3.065989e+01    7.749801e-01
  3.067577e+01    7.732776e-01
  3.069164e+01    7.939103e-01
  3.070752e+01    7.605455e-01
  3.072339e+01    7.533378e-01
  3.073927e+01    7.890399e-01
  3.075514e+01    8.102045e-01
  3.077102e+01    7.771496e-01
  3.078689e+01    7.770162e-01
  3.080277e+01    7.829121e-01
  3.081865e+01    7.774415e-01
  3.083452e+01    7.721039e-01
  3.085040e+01    7.808581e-01
  3.086627e+01    7.770444e-01
  3.088215e+01    7.828007e-01
  3.089802e+01    7.758453e-01
  3.091390e+01    7.906455e-01
  3.092977e+01    7.786955e-01
  3.094565e+01    7.968084e-01
  3.096153e+01    7.981842e-01
  3.097740e+01    7.990848e-01
  3.099328e+01    7.771001e-01
  3.100915e+01    8.052591e-01
  3.102503e+01    8.074599e-01
  3.104090e+01    7.768646e-01
  3.105678e+01    7.649275e-01
  3.107265e+01    7.788657e-01
  3.108853e+01    7.663615e-01
  3.110441e+01    7.843994e-01
  3.112028e+01    7.961471e-01
  3.113616e+01    7.838235e-01
  3.115203e+01    7.870228e-01
  3.116791e+01    7.890093e-01
  3.118378e+01    7.944080e-01
  3.119966e+01    7.762886e-01
  3.121553e+01    7.885841e-01
  3.123141e+01    7.995937e-01
  3.124729e+01    8.012311e-01
  3.126316e+01    7.999145e-01
  3.127904e+01    7.910827e-01
  3.129491e+01    7.982128e-01
  3.131079e+01    7.909182e-01
  3.132666e+01    7.960140e-01
  3.134254e+01    7.990705e-01
  3.135841e+01    7.931973e-01
  3.137429e+01    7.967528e-01
  3.139017e+01    8.088494e-01
  3.140604e+01    7.875813e-01
  3.142192e+01    7.968711e-01
  3.143779e+01    8.303512e-01
  3.145367e+01    8.304363e-01
  3.146954e+01    8.126322e-01
  3.148542e+01    8.168869e-01
  3.150129e+01    7.938317e-01
  3.151717e+01    8.103148e-01
  3.153305e+01    8.107752e-01
  3.154892e+01    8.162214e-01
  3.156480e+01    8.449726e-01
  3.158067e+01    8.881307e-01
  3.159655e+01    8.764116e-01
  3.161242e+01    8.917081e-01
  3.162830e+01    8.960369e-01
  3.164418e+01    9.007003e-01
  3.166005e+01    9.144173e-01
  3.167593e+01    9.150194e-01
  3.169180e+01    9.738188e-01
  3.170768e+01    1.030370e+00
  3.172355e+01    1.074245e+00
  3.173943e+01    1.112662e+00
  3.175530e+01    1.169343e+00
  3.177118e+01    1.243109e+00
  3.178706e+01    1.334796e+00
  3.180293e+01    1.421425e+00
  3.181881e+01    1.539071e+00
  3.183468e+01    1.681036e+00
  3.185056e+01    1.793266e+00
  3.186643e+01    1.890978e+00
  3.188231e+01    2.004434e+00
  3.189818e+01    2.113160e+00
  3.191406e+01    2.086723e+00
  3.192994e+01    2.023636e+00
  3.194581e+01    1.948887e+00
  3.196169e+01    1.835036e+00
  3.197756e+01    1.700068e+00
  3.199344e+01    1.563452e+00
  3.200931e+01    1.422188e+00
  3.202519e+01    1.324080e+00
  3.204106e+01    1.235217e+00
  3.205694e+01    1.161417e+00
  3.207282e+01    1.098395e+00
  3.208869e+01    1.063644e+00
  3.210457e+01    1.001813e+00
  3.212044e+01    9.590515e-01
  3.213632e+01    9.554291e-01
  3.215219e+01    9.229215e-01
  3.216807e+01    9.029673e-01
  3.218394e+01    8.829421e-01
  3.219982e+01    8.615913e-01
  3.221570e+01    8.662911e-01
  3.223157e+01    8.287422e-01
  3.224745e+01    8.353300e-01
  3.226332e+01    8.160976e-01
  3.227920e+01    8.129222e-01
  3.229507e+01    8.446473e-01
  3.231095e+01    8.233104e-01
  3.232682e+01    8.080833e-01
  3.234270e+01    8.043656e-01
  3.235858e+01    8.054230e-01
  3.237445e+01    7.862346e-01
  3.239033e+01    7.895294e-01
  3.240620e+01    7.780238e-01
  3.242208e+01    7.915385e-01
  3.243795e+01    7.774432e-01
  3.245383e+01    7.670786e-01
  3.246970e+01    7.658749e-01
  3.248558e+01    7.786223e-01
  3.250146e+01    7.664033e-01
  3.251733e+01    7.711298e-01
  3.253321e+01    7.616197e-01
  3.254908e+01    7.587575e-01
