# == pyFAI calibration ==
# Distance Sample to Detector: 0.3999999939076516 m
# PONI: 9.750e-02, 1.135e-01 m
# Rotations: -0.000175 0.000000 -0.000000 rad
# 
# == Fit2d calibration ==
# Distance Sample-beamCenter: 400.000 mm
# Center: x=1514.000, y=1300.000 pix
# Tilt: 0.010 deg  TiltPlanRot: 0.010 deg
# 
# Detector Detector	 Spline= None	 PixelSize= 7.500e-05, 7.500e-05 m
#    Detector has a mask: False 
#    Detector has a dark current: False 
#    detector has a flat field: False 
# 
# Wavelength: 6.888e-11 m
# Mask applied: user provided
# Dark current applied: False
# Flat field applied: False
# Polarization factor: 0.99
# Normalization factor: 1.0
# --> /home/myspot/data/2024_07_Rosario/Ru-CGO-ex/2024-07-27_003_Ru-CGO-ex_Reaction_dwell_000023_data_000035.dat
#       q_nm^-1             I 
  2.003187e-02    7.712225e-02
  3.590745e-02    9.849355e-02
  5.178302e-02    1.431036e-01
  6.765859e-02    1.916930e-01
  8.353417e-02    2.007928e-01
  9.940974e-02    1.531492e-01
  1.152853e-01    5.724808e-02
  1.311609e-01    6.517801e-03
  1.470365e-01    3.294482e-02
  1.629120e-01    0.000000e+00
  1.787876e-01    2.815315e-02
  1.946632e-01    6.030644e-02
  2.105388e-01    2.777387e-02
  2.264143e-01    3.131382e-02
  2.422899e-01    2.205797e-02
  2.581655e-01    6.702667e-02
  2.740411e-01    6.075518e-02
  2.899166e-01    2.546052e-02
  3.057922e-01    4.411178e-02
  3.216678e-01    7.156198e-02
  3.375433e-01    8.738836e-02
  3.534189e-01    6.058763e-02
  3.692945e-01    2.218087e-02
  3.851701e-01    2.486180e-02
  4.010456e-01    3.502798e-02
  4.169212e-01    4.500165e-02
  4.327968e-01    6.780601e-02
  4.486724e-01    5.114741e-02
  4.645479e-01    2.810301e-02
  4.804235e-01    2.334276e-02
  4.962991e-01    3.237506e-02
  5.121747e-01    4.358401e-02
  5.280502e-01    5.691040e-02
  5.439258e-01    2.177603e-02
  5.598014e-01    3.329400e-02
  5.756770e-01    4.105614e-02
  5.915525e-01    3.818138e-02
  6.074281e-01    2.802535e-02
  6.233037e-01    3.194231e-02
  6.391793e-01    5.553959e-02
  6.550548e-01    6.233029e-02
  6.709304e-01    2.514786e-02
  6.868060e-01    2.687095e-02
  7.026815e-01    4.288171e-02
  7.185571e-01    4.837160e-02
  7.344327e-01    4.756101e-02
  7.503083e-01    5.278333e-02
  7.661838e-01    6.497090e-02
  7.820594e-01    9.761041e-02
  7.979350e-01    1.377436e-01
  8.138106e-01    1.884826e-01
  8.296861e-01    3.015855e-01
  8.455617e-01    3.769594e-01
  8.614373e-01    4.390344e-01
  8.773129e-01    5.206482e-01
  8.931884e-01    6.135466e-01
  9.090640e-01    6.265664e-01
  9.249396e-01    7.981293e-01
  9.408152e-01    8.654002e-01
  9.566907e-01    9.435976e-01
  9.725663e-01    1.033589e+00
  9.884419e-01    1.092545e+00
  1.004317e+00    1.170309e+00
  1.020193e+00    1.245104e+00
  1.036069e+00    1.281557e+00
  1.051944e+00    1.412460e+00
  1.067820e+00    1.441078e+00
  1.083695e+00    1.398418e+00
  1.099571e+00    1.513464e+00
  1.115446e+00    1.543034e+00
  1.131322e+00    1.614673e+00
  1.147198e+00    1.759394e+00
  1.163073e+00    1.755007e+00
  1.178949e+00    1.670922e+00
  1.194824e+00    1.725963e+00
  1.210700e+00    1.992389e+00
  1.226575e+00    2.266309e+00
  1.242451e+00    2.398501e+00
  1.258327e+00    2.661126e+00
  1.274202e+00    2.563693e+00
  1.290078e+00    2.654066e+00
  1.305953e+00    2.755600e+00
  1.321829e+00    2.774677e+00
  1.337705e+00    2.767723e+00
  1.353580e+00    2.791972e+00
  1.369456e+00    2.831990e+00
  1.385331e+00    2.933473e+00
  1.401207e+00    2.921992e+00
  1.417082e+00    3.003218e+00
  1.432958e+00    3.070054e+00
  1.448834e+00    2.881205e+00
  1.464709e+00    3.031215e+00
  1.480585e+00    3.108065e+00
  1.496460e+00    3.129028e+00
  1.512336e+00    3.034577e+00
  1.528211e+00    3.107529e+00
  1.544087e+00    3.268002e+00
  1.559963e+00    3.307596e+00
  1.575838e+00    3.276274e+00
  1.591714e+00    3.214211e+00
  1.607589e+00    3.221687e+00
  1.623465e+00    3.125355e+00
  1.639340e+00    3.106900e+00
  1.655216e+00    3.144082e+00
  1.671092e+00    3.263370e+00
  1.686967e+00    3.233036e+00
  1.702843e+00    3.128140e+00
  1.718718e+00    3.073918e+00
  1.734594e+00    3.039223e+00
  1.750469e+00    3.158631e+00
  1.766345e+00    3.168044e+00
  1.782221e+00    3.091284e+00
  1.798096e+00    3.072213e+00
  1.813972e+00    3.107058e+00
  1.829847e+00    3.126193e+00
  1.845723e+00    3.142102e+00
  1.861598e+00    3.171306e+00
  1.877474e+00    3.222265e+00
  1.893350e+00    3.137469e+00
  1.909225e+00    3.110511e+00
  1.925101e+00    3.165679e+00
  1.940976e+00    3.084061e+00
  1.956852e+00    3.000283e+00
  1.972727e+00    3.043346e+00
  1.988603e+00    3.131940e+00
  2.004479e+00    3.090355e+00
  2.020354e+00    3.125968e+00
  2.036230e+00    3.122831e+00
  2.052105e+00    3.011595e+00
  2.067981e+00    3.102844e+00
  2.083856e+00    3.134033e+00
  2.099732e+00    3.090718e+00
  2.115608e+00    3.177473e+00
  2.131483e+00    3.236923e+00
  2.147359e+00    3.149395e+00
  2.163234e+00    3.081242e+00
  2.179110e+00    3.132611e+00
  2.194985e+00    3.165928e+00
  2.210861e+00    3.122776e+00
  2.226737e+00    3.153484e+00
  2.242612e+00    3.146046e+00
  2.258488e+00    3.104855e+00
  2.274363e+00    3.183244e+00
  2.290239e+00    3.192247e+00
  2.306115e+00    3.192653e+00
  2.321990e+00    3.332430e+00
  2.337866e+00    3.248046e+00
  2.353741e+00    3.156069e+00
  2.369617e+00    3.173967e+00
  2.385492e+00    3.312141e+00
  2.401368e+00    3.201634e+00
  2.417244e+00    3.212713e+00
  2.433119e+00    3.112234e+00
  2.448995e+00    3.200088e+00
  2.464870e+00    3.305774e+00
  2.480746e+00    3.237644e+00
  2.496621e+00    3.134830e+00
  2.512497e+00    3.189648e+00
  2.528373e+00    3.111876e+00
  2.544248e+00    3.118754e+00
  2.560124e+00    3.115685e+00
  2.575999e+00    3.232796e+00
  2.591875e+00    3.189935e+00
  2.607750e+00    3.263454e+00
  2.623626e+00    3.289100e+00
  2.639502e+00    3.266000e+00
  2.655377e+00    3.178322e+00
  2.671253e+00    3.239673e+00
  2.687128e+00    3.229442e+00
  2.703004e+00    3.295151e+00
  2.718879e+00    3.330875e+00
  2.734755e+00    3.307666e+00
  2.750631e+00    3.298467e+00
  2.766506e+00    3.238730e+00
  2.782382e+00    3.274758e+00
  2.798257e+00    3.260678e+00
  2.814133e+00    3.255428e+00
  2.830008e+00    3.365470e+00
  2.845884e+00    3.375178e+00
  2.861760e+00    3.275739e+00
  2.877635e+00    3.273902e+00
  2.893511e+00    3.341585e+00
  2.909386e+00    3.412918e+00
  2.925262e+00    3.430306e+00
  2.941137e+00    3.437669e+00
  2.957013e+00    3.381597e+00
  2.972889e+00    3.445436e+00
  2.988764e+00    3.469074e+00
  3.004640e+00    3.411545e+00
  3.020515e+00    3.353773e+00
  3.036391e+00    3.373860e+00
  3.052266e+00    3.346107e+00
  3.068142e+00    3.279511e+00
  3.084018e+00    3.352161e+00
  3.099893e+00    3.378499e+00
  3.115769e+00    3.411657e+00
  3.131644e+00    3.499655e+00
  3.147520e+00    3.522114e+00
  3.163395e+00    3.377230e+00
  3.179271e+00    3.407488e+00
  3.195147e+00    3.482471e+00
  3.211022e+00    3.441392e+00
  3.226898e+00    3.394145e+00
  3.242773e+00    3.445092e+00
  3.258649e+00    3.431971e+00
  3.274525e+00    3.498094e+00
  3.290400e+00    3.327647e+00
  3.306276e+00    3.459760e+00
  3.322151e+00    3.473501e+00
  3.338027e+00    3.422585e+00
  3.353902e+00    3.508394e+00
  3.369778e+00    3.477957e+00
  3.385654e+00    3.493609e+00
  3.401529e+00    3.520759e+00
  3.417405e+00    3.435058e+00
  3.433280e+00    3.454004e+00
  3.449156e+00    3.435667e+00
  3.465031e+00    3.515900e+00
  3.480907e+00    3.545018e+00
  3.496783e+00    3.485107e+00
  3.512658e+00    3.516387e+00
  3.528534e+00    3.515308e+00
  3.544409e+00    3.530441e+00
  3.560285e+00    3.500400e+00
  3.576160e+00    3.536973e+00
  3.592036e+00    3.550027e+00
  3.607912e+00    3.452999e+00
  3.623787e+00    3.551898e+00
  3.639663e+00    3.615973e+00
  3.655538e+00    3.464274e+00
  3.671414e+00    3.442381e+00
  3.687289e+00    3.443479e+00
  3.703165e+00    3.562084e+00
  3.719041e+00    3.636955e+00
  3.734916e+00    3.556874e+00
  3.750792e+00    3.593654e+00
  3.766667e+00    3.535636e+00
  3.782543e+00    3.529327e+00
  3.798418e+00    3.481991e+00
  3.814294e+00    3.486144e+00
  3.830170e+00    3.503202e+00
  3.846045e+00    3.488097e+00
  3.861921e+00    3.501802e+00
  3.877796e+00    3.429710e+00
  3.893672e+00    3.510660e+00
  3.909547e+00    3.495748e+00
  3.925423e+00    3.535493e+00
  3.941299e+00    3.485199e+00
  3.957174e+00    3.610326e+00
  3.973050e+00    3.651835e+00
  3.988925e+00    3.638124e+00
  4.004801e+00    3.530524e+00
  4.020676e+00    3.593396e+00
  4.036552e+00    3.563732e+00
  4.052428e+00    3.592651e+00
  4.068303e+00    3.611877e+00
  4.084179e+00    3.569029e+00
  4.100054e+00    3.604365e+00
  4.115930e+00    3.621726e+00
  4.131806e+00    3.471630e+00
  4.147681e+00    3.511688e+00
  4.163557e+00    3.623426e+00
  4.179432e+00    3.556573e+00
  4.195308e+00    3.573676e+00
  4.211183e+00    3.621637e+00
  4.227059e+00    3.632232e+00
  4.242935e+00    3.486581e+00
  4.258810e+00    3.548194e+00
  4.274686e+00    3.648411e+00
  4.290561e+00    3.602709e+00
  4.306437e+00    3.526857e+00
  4.322312e+00    3.567392e+00
  4.338188e+00    3.654284e+00
  4.354064e+00    3.600312e+00
  4.369939e+00    3.596231e+00
  4.385815e+00    3.596699e+00
  4.401690e+00    3.575437e+00
  4.417566e+00    3.620126e+00
  4.433441e+00    3.519872e+00
  4.449317e+00    3.554615e+00
  4.465193e+00    3.533119e+00
  4.481068e+00    3.607405e+00
  4.496944e+00    3.678820e+00
  4.512819e+00    3.700895e+00
  4.528695e+00    3.646459e+00
  4.544570e+00    3.639832e+00
  4.560446e+00    3.571305e+00
  4.576322e+00    3.616943e+00
  4.592197e+00    3.700758e+00
  4.608073e+00    3.627187e+00
  4.623948e+00    3.703463e+00
  4.639824e+00    3.691053e+00
  4.655699e+00    3.708133e+00
  4.671575e+00    3.660030e+00
  4.687451e+00    3.651041e+00
  4.703326e+00    3.628149e+00
  4.719202e+00    3.655633e+00
  4.735077e+00    3.705116e+00
  4.750953e+00    3.621404e+00
  4.766828e+00    3.605309e+00
  4.782704e+00    3.531007e+00
  4.798580e+00    3.669624e+00
  4.814455e+00    3.660820e+00
  4.830331e+00    3.556542e+00
  4.846206e+00    3.606019e+00
  4.862082e+00    3.690698e+00
  4.877957e+00    3.744214e+00
  4.893833e+00    3.687124e+00
  4.909709e+00    3.547532e+00
  4.925584e+00    3.595786e+00
  4.941460e+00    3.661514e+00
  4.957335e+00    3.736931e+00
  4.973211e+00    3.740438e+00
  4.989086e+00    3.679514e+00
  5.004962e+00    3.629090e+00
  5.020838e+00    3.637440e+00
  5.036713e+00    3.647902e+00
  5.052589e+00    3.686329e+00
  5.068464e+00    3.708363e+00
  5.084340e+00    3.741065e+00
  5.100216e+00    3.641219e+00
  5.116091e+00    3.711453e+00
  5.131967e+00    3.703872e+00
  5.147842e+00    3.691530e+00
  5.163718e+00    3.673342e+00
  5.179593e+00    3.645977e+00
  5.195469e+00    3.649350e+00
  5.211345e+00    3.712192e+00
  5.227220e+00    3.660233e+00
  5.243096e+00    3.637985e+00
  5.258971e+00    3.713012e+00
  5.274847e+00    3.682032e+00
  5.290722e+00    3.640410e+00
  5.306598e+00    3.635641e+00
  5.322474e+00    3.681590e+00
  5.338349e+00    3.764215e+00
  5.354225e+00    3.760189e+00
  5.370100e+00    3.716382e+00
  5.385976e+00    3.740374e+00
  5.401851e+00    3.722339e+00
  5.417727e+00    3.621028e+00
  5.433603e+00    3.584819e+00
  5.449478e+00    3.621762e+00
  5.465354e+00    3.725838e+00
  5.481229e+00    3.649585e+00
  5.497105e+00    3.706779e+00
  5.512980e+00    3.701028e+00
  5.528856e+00    3.663174e+00
  5.544732e+00    3.637141e+00
  5.560607e+00    3.570561e+00
  5.576483e+00    3.633423e+00
  5.592358e+00    3.665942e+00
  5.608234e+00    3.691625e+00
  5.624109e+00    3.571779e+00
  5.639985e+00    3.537971e+00
  5.655861e+00    3.637964e+00
  5.671736e+00    3.568082e+00
  5.687612e+00    3.594808e+00
  5.703487e+00    3.665362e+00
  5.719363e+00    3.687551e+00
  5.735238e+00    3.653145e+00
  5.751114e+00    3.679240e+00
  5.766990e+00    3.596915e+00
  5.782865e+00    3.469847e+00
  5.798741e+00    3.550291e+00
  5.814616e+00    3.572032e+00
  5.830492e+00    3.544488e+00
  5.846367e+00    3.688190e+00
  5.862243e+00    3.608649e+00
  5.878119e+00    3.621225e+00
  5.893994e+00    3.614945e+00
  5.909870e+00    3.570425e+00
  5.925745e+00    3.608552e+00
  5.941621e+00    3.538635e+00
  5.957497e+00    3.591080e+00
  5.973372e+00    3.639123e+00
  5.989248e+00    3.639566e+00
  6.005123e+00    3.511793e+00
  6.020999e+00    3.461895e+00
  6.036874e+00    3.546906e+00
  6.052750e+00    3.577830e+00
  6.068626e+00    3.577682e+00
  6.084501e+00    3.627968e+00
  6.100377e+00    3.684111e+00
  6.116252e+00    3.636194e+00
  6.132128e+00    3.626108e+00
  6.148003e+00    3.669159e+00
  6.163879e+00    3.615442e+00
  6.179755e+00    3.604853e+00
  6.195630e+00    3.622093e+00
  6.211506e+00    3.603101e+00
  6.227381e+00    3.633428e+00
  6.243257e+00    3.622668e+00
  6.259132e+00    3.606171e+00
  6.275008e+00    3.595854e+00
  6.290884e+00    3.585775e+00
  6.306759e+00    3.604928e+00
  6.322635e+00    3.659865e+00
  6.338510e+00    3.630023e+00
  6.354386e+00    3.621166e+00
  6.370261e+00    3.604756e+00
  6.386137e+00    3.563632e+00
  6.402013e+00    3.566876e+00
  6.417888e+00    3.589670e+00
  6.433764e+00    3.631785e+00
  6.449639e+00    3.605917e+00
  6.465515e+00    3.603451e+00
  6.481390e+00    3.653388e+00
  6.497266e+00    3.583886e+00
  6.513142e+00    3.560329e+00
  6.529017e+00    3.555629e+00
  6.544893e+00    3.578470e+00
  6.560768e+00    3.579630e+00
  6.576644e+00    3.587385e+00
  6.592519e+00    3.649587e+00
  6.608395e+00    3.717004e+00
  6.624271e+00    3.648687e+00
  6.640146e+00    3.605042e+00
  6.656022e+00    3.592186e+00
  6.671897e+00    3.550307e+00
  6.687773e+00    3.597837e+00
  6.703648e+00    3.572423e+00
  6.719524e+00    3.596899e+00
  6.735400e+00    3.595992e+00
  6.751275e+00    3.507473e+00
  6.767151e+00    3.537674e+00
  6.783026e+00    3.572912e+00
  6.798902e+00    3.508799e+00
  6.814777e+00    3.493562e+00
  6.830653e+00    3.589289e+00
  6.846529e+00    3.626557e+00
  6.862404e+00    3.639946e+00
  6.878280e+00    3.586981e+00
  6.894155e+00    3.554409e+00
  6.910031e+00    3.526326e+00
  6.925907e+00    3.586338e+00
  6.941782e+00    3.542928e+00
  6.957658e+00    3.591164e+00
  6.973533e+00    3.612639e+00
  6.989409e+00    3.545819e+00
  7.005284e+00    3.508125e+00
  7.021160e+00    3.512082e+00
  7.037036e+00    3.552212e+00
  7.052911e+00    3.606253e+00
  7.068787e+00    3.578617e+00
  7.084662e+00    3.597269e+00
  7.100538e+00    3.605960e+00
  7.116413e+00    3.547960e+00
  7.132289e+00    3.480208e+00
  7.148165e+00    3.558115e+00
  7.164040e+00    3.516634e+00
  7.179916e+00    3.513328e+00
  7.195791e+00    3.507295e+00
  7.211667e+00    3.544790e+00
  7.227542e+00    3.489571e+00
  7.243418e+00    3.493602e+00
  7.259294e+00    3.547231e+00
  7.275169e+00    3.535106e+00
  7.291045e+00    3.555457e+00
  7.306920e+00    3.533896e+00
  7.322796e+00    3.565721e+00
  7.338671e+00    3.533944e+00
  7.354547e+00    3.455115e+00
  7.370423e+00    3.472000e+00
  7.386298e+00    3.481662e+00
  7.402174e+00    3.485022e+00
  7.418049e+00    3.544998e+00
  7.433925e+00    3.597207e+00
  7.449800e+00    3.515453e+00
  7.465676e+00    3.507310e+00
  7.481552e+00    3.482511e+00
  7.497427e+00    3.462735e+00
  7.513303e+00    3.534668e+00
  7.529178e+00    3.601381e+00
  7.545054e+00    3.546088e+00
  7.560929e+00    3.478984e+00
  7.576805e+00    3.455082e+00
  7.592681e+00    3.460083e+00
  7.608556e+00    3.464506e+00
  7.624432e+00    3.517266e+00
  7.640307e+00    3.487189e+00
  7.656183e+00    3.469316e+00
  7.672058e+00    3.481863e+00
  7.687934e+00    3.498796e+00
  7.703810e+00    3.523035e+00
  7.719685e+00    3.497371e+00
  7.735561e+00    3.462074e+00
  7.751436e+00    3.470227e+00
  7.767312e+00    3.493506e+00
  7.783187e+00    3.462888e+00
  7.799063e+00    3.551914e+00
  7.814939e+00    3.452658e+00
  7.830814e+00    3.465811e+00
  7.846690e+00    3.500441e+00
  7.862565e+00    3.559691e+00
  7.878441e+00    3.504448e+00
  7.894317e+00    3.448429e+00
  7.910192e+00    3.498462e+00
  7.926068e+00    3.443125e+00
  7.941943e+00    3.437404e+00
  7.957819e+00    3.480226e+00
  7.973694e+00    3.410108e+00
  7.989570e+00    3.465352e+00
  8.005446e+00    3.426494e+00
  8.021321e+00    3.477731e+00
  8.037197e+00    3.483535e+00
  8.053072e+00    3.504690e+00
  8.068948e+00    3.410861e+00
  8.084823e+00    3.377856e+00
  8.100699e+00    3.414058e+00
  8.116575e+00    3.444388e+00
  8.132450e+00    3.497431e+00
  8.148326e+00    3.461598e+00
  8.164201e+00    3.482925e+00
  8.180077e+00    3.460818e+00
  8.195952e+00    3.497432e+00
  8.211828e+00    3.500886e+00
  8.227704e+00    3.469187e+00
  8.243579e+00    3.473657e+00
  8.259455e+00    3.444211e+00
  8.275330e+00    3.480320e+00
  8.291206e+00    3.501035e+00
  8.307081e+00    3.469246e+00
  8.322957e+00    3.378840e+00
  8.338833e+00    3.425376e+00
  8.354708e+00    3.423880e+00
  8.370584e+00    3.389656e+00
  8.386459e+00    3.313922e+00
  8.402335e+00    3.397627e+00
  8.418210e+00    3.423461e+00
  8.434086e+00    3.440968e+00
  8.449962e+00    3.417296e+00
  8.465837e+00    3.422499e+00
  8.481713e+00    3.473707e+00
  8.497588e+00    3.392077e+00
  8.513464e+00    3.377054e+00
  8.529339e+00    3.408703e+00
  8.545215e+00    3.371366e+00
  8.561091e+00    3.389591e+00
  8.576966e+00    3.379229e+00
  8.592842e+00    3.388205e+00
  8.608717e+00    3.412046e+00
  8.624593e+00    3.338010e+00
  8.640468e+00    3.368943e+00
  8.656344e+00    3.330611e+00
  8.672220e+00    3.358813e+00
  8.688095e+00    3.370373e+00
  8.703971e+00    3.359063e+00
  8.719846e+00    3.388983e+00
  8.735722e+00    3.344002e+00
  8.751598e+00    3.311716e+00
  8.767473e+00    3.381420e+00
  8.783349e+00    3.402748e+00
  8.799224e+00    3.373245e+00
  8.815100e+00    3.344179e+00
  8.830975e+00    3.333056e+00
  8.846851e+00    3.299087e+00
  8.862727e+00    3.244269e+00
  8.878602e+00    3.292377e+00
  8.894478e+00    3.311445e+00
  8.910353e+00    3.285257e+00
  8.926229e+00    3.289300e+00
  8.942104e+00    3.293229e+00
  8.957980e+00    3.317976e+00
  8.973856e+00    3.340117e+00
  8.989731e+00    3.334643e+00
  9.005607e+00    3.301063e+00
  9.021482e+00    3.270124e+00
  9.037358e+00    3.279302e+00
  9.053233e+00    3.270656e+00
  9.069109e+00    3.247400e+00
  9.084985e+00    3.272825e+00
  9.100860e+00    3.231400e+00
  9.116736e+00    3.278351e+00
  9.132611e+00    3.301017e+00
  9.148487e+00    3.235070e+00
  9.164362e+00    3.239641e+00
  9.180238e+00    3.297115e+00
  9.196114e+00    3.287326e+00
  9.211989e+00    3.252297e+00
  9.227865e+00    3.270444e+00
  9.243740e+00    3.253701e+00
  9.259616e+00    3.263979e+00
  9.275491e+00    3.220507e+00
  9.291367e+00    3.220873e+00
  9.307243e+00    3.299487e+00
  9.323118e+00    3.227022e+00
  9.338994e+00    3.193115e+00
  9.354869e+00    3.220171e+00
  9.370745e+00    3.257628e+00
  9.386620e+00    3.246942e+00
  9.402496e+00    3.247179e+00
  9.418372e+00    3.231631e+00
  9.434247e+00    3.220845e+00
  9.450123e+00    3.226999e+00
  9.465998e+00    3.220623e+00
  9.481874e+00    3.251272e+00
  9.497749e+00    3.260038e+00
  9.513625e+00    3.220322e+00
  9.529501e+00    3.230146e+00
  9.545376e+00    3.232666e+00
  9.561252e+00    3.228458e+00
  9.577127e+00    3.230064e+00
  9.593003e+00    3.268722e+00
  9.608878e+00    3.243475e+00
  9.624754e+00    3.237273e+00
  9.640630e+00    3.249171e+00
  9.656505e+00    3.142003e+00
  9.672381e+00    3.160905e+00
  9.688256e+00    3.159896e+00
  9.704132e+00    3.144829e+00
  9.720008e+00    3.210289e+00
  9.735883e+00    3.213537e+00
  9.751759e+00    3.215372e+00
  9.767634e+00    3.214229e+00
  9.783510e+00    3.185206e+00
  9.799385e+00    3.182814e+00
  9.815261e+00    3.255532e+00
  9.831137e+00    3.254190e+00
  9.847012e+00    3.164485e+00
  9.862888e+00    3.106729e+00
  9.878763e+00    3.129702e+00
  9.894639e+00    3.107712e+00
  9.910514e+00    3.181074e+00
  9.926390e+00    3.179061e+00
  9.942266e+00    3.217936e+00
  9.958141e+00    3.184621e+00
  9.974017e+00    3.168390e+00
  9.989892e+00    3.163640e+00
  1.000577e+01    3.180791e+00
  1.002164e+01    3.134586e+00
  1.003752e+01    3.121968e+00
  1.005339e+01    3.083157e+00
  1.006927e+01    3.116816e+00
  1.008515e+01    3.136331e+00
  1.010102e+01    3.140215e+00
  1.011690e+01    3.108675e+00
  1.013277e+01    3.038715e+00
  1.014865e+01    3.058054e+00
  1.016452e+01    3.108733e+00
  1.018040e+01    3.108976e+00
  1.019627e+01    3.088578e+00
  1.021215e+01    3.110914e+00
  1.022803e+01    3.078979e+00
  1.024390e+01    3.063260e+00
  1.025978e+01    3.103480e+00
  1.027565e+01    3.040381e+00
  1.029153e+01    3.089922e+00
  1.030740e+01    3.096554e+00
  1.032328e+01    3.067100e+00
  1.033915e+01    3.025129e+00
  1.035503e+01    3.034525e+00
  1.037091e+01    3.035187e+00
  1.038678e+01    3.076741e+00
  1.040266e+01    3.076979e+00
  1.041853e+01    3.027556e+00
  1.043441e+01    2.975488e+00
  1.045028e+01    3.025645e+00
  1.046616e+01    3.025387e+00
  1.048204e+01    3.036176e+00
  1.049791e+01    3.033381e+00
  1.051379e+01    3.024905e+00
  1.052966e+01    3.066357e+00
  1.054554e+01    3.097907e+00
  1.056141e+01    3.005050e+00
  1.057729e+01    2.983428e+00
  1.059316e+01    2.987560e+00
  1.060904e+01    3.035962e+00
  1.062492e+01    2.983867e+00
  1.064079e+01    2.987316e+00
  1.065667e+01    3.004380e+00
  1.067254e+01    3.049221e+00
  1.068842e+01    3.029573e+00
  1.070429e+01    2.958668e+00
  1.072017e+01    2.982785e+00
  1.073604e+01    2.985125e+00
  1.075192e+01    3.003374e+00
  1.076780e+01    2.977530e+00
  1.078367e+01    2.967496e+00
  1.079955e+01    2.986841e+00
  1.081542e+01    2.940780e+00
  1.083130e+01    2.936195e+00
  1.084717e+01    2.961877e+00
  1.086305e+01    3.014270e+00
  1.087892e+01    3.005969e+00
  1.089480e+01    2.943167e+00
  1.091068e+01    2.930699e+00
  1.092655e+01    2.928898e+00
  1.094243e+01    2.907391e+00
  1.095830e+01    2.898208e+00
  1.097418e+01    2.888748e+00
  1.099005e+01    2.925190e+00
  1.100593e+01    2.970420e+00
  1.102180e+01    2.929475e+00
  1.103768e+01    2.894819e+00
  1.105356e+01    2.860396e+00
  1.106943e+01    2.881993e+00
  1.108531e+01    2.947003e+00
  1.110118e+01    2.911447e+00
  1.111706e+01    2.941127e+00
  1.113293e+01    2.936421e+00
  1.114881e+01    2.880894e+00
  1.116468e+01    2.892025e+00
  1.118056e+01    2.862132e+00
  1.119644e+01    2.891927e+00
  1.121231e+01    2.938897e+00
  1.122819e+01    2.926042e+00
  1.124406e+01    2.886670e+00
  1.125994e+01    2.864234e+00
  1.127581e+01    2.861640e+00
  1.129169e+01    2.854057e+00
  1.130756e+01    2.865149e+00
  1.132344e+01    2.866863e+00
  1.133932e+01    2.832582e+00
  1.135519e+01    2.846421e+00
  1.137107e+01    2.901722e+00
  1.138694e+01    2.871436e+00
  1.140282e+01    2.838786e+00
  1.141869e+01    2.804148e+00
  1.143457e+01    2.832682e+00
  1.145045e+01    2.832837e+00
  1.146632e+01    2.883763e+00
  1.148220e+01    2.873219e+00
  1.149807e+01    2.814847e+00
  1.151395e+01    2.847986e+00
  1.152982e+01    2.829721e+00
  1.154570e+01    2.824227e+00
  1.156157e+01    2.861892e+00
  1.157745e+01    2.817097e+00
  1.159333e+01    2.815235e+00
  1.160920e+01    2.853398e+00
  1.162508e+01    2.839403e+00
  1.164095e+01    2.799997e+00
  1.165683e+01    2.776191e+00
  1.167270e+01    2.759667e+00
  1.168858e+01    2.768435e+00
  1.170445e+01    2.761361e+00
  1.172033e+01    2.770249e+00
  1.173621e+01    2.744170e+00
  1.175208e+01    2.794740e+00
  1.176796e+01    2.788351e+00
  1.178383e+01    2.771670e+00
  1.179971e+01    2.785601e+00
  1.181558e+01    2.826279e+00
  1.183146e+01    2.740205e+00
  1.184733e+01    2.711924e+00
  1.186321e+01    2.723519e+00
  1.187909e+01    2.767658e+00
  1.189496e+01    2.733691e+00
  1.191084e+01    2.738344e+00
  1.192671e+01    2.753134e+00
  1.194259e+01    2.760134e+00
  1.195846e+01    2.711573e+00
  1.197434e+01    2.736009e+00
  1.199021e+01    2.716129e+00
  1.200609e+01    2.731512e+00
  1.202197e+01    2.737077e+00
  1.203784e+01    2.705511e+00
  1.205372e+01    2.731862e+00
  1.206959e+01    2.732645e+00
  1.208547e+01    2.721356e+00
  1.210134e+01    2.763790e+00
  1.211722e+01    2.728619e+00
  1.213309e+01    2.731120e+00
  1.214897e+01    2.698209e+00
  1.216485e+01    2.650931e+00
  1.218072e+01    2.654176e+00
  1.219660e+01    2.710093e+00
  1.221247e+01    2.724361e+00
  1.222835e+01    2.761271e+00
  1.224422e+01    2.729833e+00
  1.226010e+01    2.739228e+00
  1.227597e+01    2.735928e+00
  1.229185e+01    2.782273e+00
  1.230773e+01    2.743394e+00
  1.232360e+01    2.693816e+00
  1.233948e+01    2.683234e+00
  1.235535e+01    2.706253e+00
  1.237123e+01    2.719813e+00
  1.238710e+01    2.708012e+00
  1.240298e+01    2.752981e+00
  1.241886e+01    2.709615e+00
  1.243473e+01    2.752479e+00
  1.245061e+01    2.756902e+00
  1.246648e+01    2.729342e+00
  1.248236e+01    2.719945e+00
  1.249823e+01    2.729128e+00
  1.251411e+01    2.701129e+00
  1.252998e+01    2.732236e+00
  1.254586e+01    2.663931e+00
  1.256174e+01    2.677233e+00
  1.257761e+01    2.727653e+00
  1.259349e+01    2.764776e+00
  1.260936e+01    2.755288e+00
  1.262524e+01    2.736877e+00
  1.264111e+01    2.795707e+00
  1.265699e+01    2.809180e+00
  1.267286e+01    2.824753e+00
  1.268874e+01    2.812285e+00
  1.270462e+01    2.893754e+00
  1.272049e+01    2.899736e+00
  1.273637e+01    2.910446e+00
  1.275224e+01    2.958302e+00
  1.276812e+01    2.975177e+00
  1.278399e+01    2.987654e+00
  1.279987e+01    3.016364e+00
  1.281574e+01    3.115159e+00
  1.283162e+01    3.176950e+00
  1.284750e+01    3.188892e+00
  1.286337e+01    3.269730e+00
  1.287925e+01    3.406895e+00
  1.289512e+01    3.509463e+00
  1.291100e+01    3.666383e+00
  1.292687e+01    3.883115e+00
  1.294275e+01    4.107049e+00
  1.295862e+01    4.430719e+00
  1.297450e+01    4.782920e+00
  1.299038e+01    5.335886e+00
  1.300625e+01    6.021386e+00
  1.302213e+01    6.834218e+00
  1.303800e+01    7.829312e+00
  1.305388e+01    8.970946e+00
  1.306975e+01    1.031235e+01
  1.308563e+01    1.156353e+01
  1.310150e+01    1.288523e+01
  1.311738e+01    1.399190e+01
  1.313326e+01    1.494328e+01
  1.314913e+01    1.580991e+01
  1.316501e+01    1.644071e+01
  1.318088e+01    1.654222e+01
  1.319676e+01    1.591049e+01
  1.321263e+01    1.440267e+01
  1.322851e+01    1.264540e+01
  1.324438e+01    1.076762e+01
  1.326026e+01    9.168514e+00
  1.327614e+01    7.841498e+00
  1.329201e+01    6.809041e+00
  1.330789e+01    6.072638e+00
  1.332376e+01    5.420744e+00
  1.333964e+01    4.901332e+00
  1.335551e+01    4.477595e+00
  1.337139e+01    4.168165e+00
  1.338727e+01    3.861768e+00
  1.340314e+01    3.653605e+00
  1.341902e+01    3.503387e+00
  1.343489e+01    3.365272e+00
  1.345077e+01    3.241175e+00
  1.346664e+01    3.126370e+00
  1.348252e+01    3.093776e+00
  1.349839e+01    3.004740e+00
  1.351427e+01    2.935648e+00
  1.353015e+01    2.889161e+00
  1.354602e+01    2.777902e+00
  1.356190e+01    2.775070e+00
  1.357777e+01    2.722808e+00
  1.359365e+01    2.680052e+00
  1.360952e+01    2.641372e+00
  1.362540e+01    2.694745e+00
  1.364127e+01    2.678950e+00
  1.365715e+01    2.637655e+00
  1.367303e+01    2.614148e+00
  1.368890e+01    2.616938e+00
  1.370478e+01    2.623257e+00
  1.372065e+01    2.567627e+00
  1.373653e+01    2.572176e+00
  1.375240e+01    2.506315e+00
  1.376828e+01    2.479140e+00
  1.378415e+01    2.517162e+00
  1.380003e+01    2.521377e+00
  1.381591e+01    2.499529e+00
  1.383178e+01    2.471636e+00
  1.384766e+01    2.432637e+00
  1.386353e+01    2.408885e+00
  1.387941e+01    2.423491e+00
  1.389528e+01    2.452361e+00
  1.391116e+01    2.466590e+00
  1.392703e+01    2.472632e+00
  1.394291e+01    2.475766e+00
  1.395879e+01    2.443136e+00
  1.397466e+01    2.411398e+00
  1.399054e+01    2.407523e+00
  1.400641e+01    2.362380e+00
  1.402229e+01    2.367459e+00
  1.403816e+01    2.357470e+00
  1.405404e+01    2.351050e+00
  1.406991e+01    2.375659e+00
  1.408579e+01    2.370266e+00
  1.410167e+01    2.347065e+00
  1.411754e+01    2.330423e+00
  1.413342e+01    2.349248e+00
  1.414929e+01    2.346049e+00
  1.416517e+01    2.325671e+00
  1.418104e+01    2.328314e+00
  1.419692e+01    2.277730e+00
  1.421279e+01    2.329979e+00
  1.422867e+01    2.326417e+00
  1.424455e+01    2.249875e+00
  1.426042e+01    2.291854e+00
  1.427630e+01    2.308992e+00
  1.429217e+01    2.304426e+00
  1.430805e+01    2.286379e+00
  1.432392e+01    2.270772e+00
  1.433980e+01    2.241372e+00
  1.435568e+01    2.280504e+00
  1.437155e+01    2.240682e+00
  1.438743e+01    2.261120e+00
  1.440330e+01    2.249372e+00
  1.441918e+01    2.219328e+00
  1.443505e+01    2.252552e+00
  1.445093e+01    2.260144e+00
  1.446680e+01    2.247524e+00
  1.448268e+01    2.222814e+00
  1.449856e+01    2.244154e+00
  1.451443e+01    2.244735e+00
  1.453031e+01    2.220383e+00
  1.454618e+01    2.254621e+00
  1.456206e+01    2.264765e+00
  1.457793e+01    2.228898e+00
  1.459381e+01    2.214726e+00
  1.460968e+01    2.220742e+00
  1.462556e+01    2.241494e+00
  1.464144e+01    2.261775e+00
  1.465731e+01    2.245362e+00
  1.467319e+01    2.208767e+00
  1.468906e+01    2.261546e+00
  1.470494e+01    2.232732e+00
  1.472081e+01    2.237364e+00
  1.473669e+01    2.233306e+00
  1.475256e+01    2.202612e+00
  1.476844e+01    2.202740e+00
  1.478432e+01    2.215879e+00
  1.480019e+01    2.241172e+00
  1.481607e+01    2.257231e+00
  1.483194e+01    2.233843e+00
  1.484782e+01    2.244189e+00
  1.486369e+01    2.220973e+00
  1.487957e+01    2.196136e+00
  1.489544e+01    2.298043e+00
  1.491132e+01    2.315740e+00
  1.492720e+01    2.257506e+00
  1.494307e+01    2.303962e+00
  1.495895e+01    2.308908e+00
  1.497482e+01    2.361594e+00
  1.499070e+01    2.429785e+00
  1.500657e+01    2.467056e+00
  1.502245e+01    2.526038e+00
  1.503832e+01    2.604996e+00
  1.505420e+01    2.698930e+00
  1.507008e+01    2.898752e+00
  1.508595e+01    3.063539e+00
  1.510183e+01    3.265647e+00
  1.511770e+01    3.491330e+00
  1.513358e+01    3.768877e+00
  1.514945e+01    4.187862e+00
  1.516533e+01    4.643482e+00
  1.518120e+01    4.965552e+00
  1.519708e+01    5.215784e+00
  1.521296e+01    5.519377e+00
  1.522883e+01    5.720102e+00
  1.524471e+01    5.791933e+00
  1.526058e+01    5.883057e+00
  1.527646e+01    5.784368e+00
  1.529233e+01    5.533936e+00
  1.530821e+01    5.176729e+00
  1.532409e+01    4.703170e+00
  1.533996e+01    4.197524e+00
  1.535584e+01    3.747770e+00
  1.537171e+01    3.441859e+00
  1.538759e+01    3.178946e+00
  1.540346e+01    2.947686e+00
  1.541934e+01    2.745266e+00
  1.543521e+01    2.636974e+00
  1.545109e+01    2.554985e+00
  1.546697e+01    2.425374e+00
  1.548284e+01    2.396417e+00
  1.549872e+01    2.351915e+00
  1.551459e+01    2.289484e+00
  1.553047e+01    2.255078e+00
  1.554634e+01    2.204179e+00
  1.556222e+01    2.142430e+00
  1.557809e+01    2.145963e+00
  1.559397e+01    2.119756e+00
  1.560985e+01    2.086997e+00
  1.562572e+01    2.060081e+00
  1.564160e+01    2.053978e+00
  1.565747e+01    2.060896e+00
  1.567335e+01    2.017433e+00
  1.568922e+01    1.992442e+00
  1.570510e+01    1.962526e+00
  1.572097e+01    1.984266e+00
  1.573685e+01    1.971871e+00
  1.575273e+01    1.983328e+00
  1.576860e+01    1.961525e+00
  1.578448e+01    1.934402e+00
  1.580035e+01    1.954265e+00
  1.581623e+01    1.948076e+00
  1.583210e+01    1.924175e+00
  1.584798e+01    1.934261e+00
  1.586385e+01    1.947131e+00
  1.587973e+01    1.916932e+00
  1.589561e+01    1.912689e+00
  1.591148e+01    1.883701e+00
  1.592736e+01    1.908607e+00
  1.594323e+01    1.907320e+00
  1.595911e+01    1.894813e+00
  1.597498e+01    1.896820e+00
  1.599086e+01    1.898495e+00
  1.600673e+01    1.873994e+00
  1.602261e+01    1.909368e+00
  1.603849e+01    1.890638e+00
  1.605436e+01    1.873410e+00
  1.607024e+01    1.901238e+00
  1.608611e+01    1.867096e+00
  1.610199e+01    1.827662e+00
  1.611786e+01    1.831871e+00
  1.613374e+01    1.850694e+00
  1.614961e+01    1.867439e+00
  1.616549e+01    1.835436e+00
  1.618137e+01    1.831311e+00
  1.619724e+01    1.858410e+00
  1.621312e+01    1.836457e+00
  1.622899e+01    1.838804e+00
  1.624487e+01    1.844431e+00
  1.626074e+01    1.853872e+00
  1.627662e+01    1.849442e+00
  1.629250e+01    1.817328e+00
  1.630837e+01    1.796317e+00
  1.632425e+01    1.793806e+00
  1.634012e+01    1.808875e+00
  1.635600e+01    1.819720e+00
  1.637187e+01    1.763492e+00
  1.638775e+01    1.797042e+00
  1.640362e+01    1.796173e+00
  1.641950e+01    1.795788e+00
  1.643538e+01    1.756561e+00
  1.645125e+01    1.727983e+00
  1.646713e+01    1.742225e+00
  1.648300e+01    1.771190e+00
  1.649888e+01    1.766903e+00
  1.651475e+01    1.756731e+00
  1.653063e+01    1.733518e+00
  1.654650e+01    1.762805e+00
  1.656238e+01    1.784304e+00
  1.657826e+01    1.786518e+00
  1.659413e+01    1.754934e+00
  1.661001e+01    1.736843e+00
  1.662588e+01    1.738496e+00
  1.664176e+01    1.760754e+00
  1.665763e+01    1.777597e+00
  1.667351e+01    1.743623e+00
  1.668938e+01    1.765876e+00
  1.670526e+01    1.708987e+00
  1.672114e+01    1.715082e+00
  1.673701e+01    1.711737e+00
  1.675289e+01    1.682564e+00
  1.676876e+01    1.713468e+00
  1.678464e+01    1.709945e+00
  1.680051e+01    1.704411e+00
  1.681639e+01    1.711161e+00
  1.683226e+01    1.672776e+00
  1.684814e+01    1.707064e+00
  1.686402e+01    1.717438e+00
  1.687989e+01    1.706413e+00
  1.689577e+01    1.714013e+00
  1.691164e+01    1.698922e+00
  1.692752e+01    1.697249e+00
  1.694339e+01    1.693846e+00
  1.695927e+01    1.689067e+00
  1.697514e+01    1.686820e+00
  1.699102e+01    1.647285e+00
  1.700690e+01    1.670772e+00
  1.702277e+01    1.683499e+00
  1.703865e+01    1.665644e+00
  1.705452e+01    1.662504e+00
  1.707040e+01    1.676169e+00
  1.708627e+01    1.685867e+00
  1.710215e+01    1.657546e+00
  1.711802e+01    1.664599e+00
  1.713390e+01    1.668513e+00
  1.714978e+01    1.620393e+00
  1.716565e+01    1.601421e+00
  1.718153e+01    1.615972e+00
  1.719740e+01    1.629463e+00
  1.721328e+01    1.626136e+00
  1.722915e+01    1.654162e+00
  1.724503e+01    1.642299e+00
  1.726091e+01    1.627516e+00
  1.727678e+01    1.599389e+00
  1.729266e+01    1.591404e+00
  1.730853e+01    1.640459e+00
  1.732441e+01    1.601666e+00
  1.734028e+01    1.595585e+00
  1.735616e+01    1.600217e+00
  1.737203e+01    1.599436e+00
  1.738791e+01    1.588699e+00
  1.740379e+01    1.615510e+00
  1.741966e+01    1.638882e+00
  1.743554e+01    1.627672e+00
  1.745141e+01    1.593682e+00
  1.746729e+01    1.565508e+00
  1.748316e+01    1.599401e+00
  1.749904e+01    1.595755e+00
  1.751491e+01    1.609537e+00
  1.753079e+01    1.630183e+00
  1.754667e+01    1.575533e+00
  1.756254e+01    1.567922e+00
  1.757842e+01    1.593197e+00
  1.759429e+01    1.614449e+00
  1.761017e+01    1.602240e+00
  1.762604e+01    1.584892e+00
  1.764192e+01    1.584182e+00
  1.765779e+01    1.569530e+00
  1.767367e+01    1.589209e+00
  1.768955e+01    1.583576e+00
  1.770542e+01    1.562982e+00
  1.772130e+01    1.549857e+00
  1.773717e+01    1.558566e+00
  1.775305e+01    1.549030e+00
  1.776892e+01    1.551735e+00
  1.778480e+01    1.524405e+00
  1.780067e+01    1.547459e+00
  1.781655e+01    1.577193e+00
  1.783243e+01    1.570511e+00
  1.784830e+01    1.516360e+00
  1.786418e+01    1.490152e+00
  1.788005e+01    1.525984e+00
  1.789593e+01    1.562147e+00
  1.791180e+01    1.549155e+00
  1.792768e+01    1.536520e+00
  1.794355e+01    1.543359e+00
  1.795943e+01    1.537989e+00
  1.797531e+01    1.524373e+00
  1.799118e+01    1.505172e+00
  1.800706e+01    1.523376e+00
  1.802293e+01    1.532082e+00
  1.803881e+01    1.527669e+00
  1.805468e+01    1.509505e+00
  1.807056e+01    1.538449e+00
  1.808643e+01    1.503421e+00
  1.810231e+01    1.506371e+00
  1.811819e+01    1.485164e+00
  1.813406e+01    1.496099e+00
  1.814994e+01    1.508562e+00
  1.816581e+01    1.489705e+00
  1.818169e+01    1.491598e+00
  1.819756e+01    1.512679e+00
  1.821344e+01    1.503542e+00
  1.822932e+01    1.499717e+00
  1.824519e+01    1.492358e+00
  1.826107e+01    1.509769e+00
  1.827694e+01    1.477390e+00
  1.829282e+01    1.460322e+00
  1.830869e+01    1.461781e+00
  1.832457e+01    1.490611e+00
  1.834044e+01    1.499688e+00
  1.835632e+01    1.484882e+00
  1.837220e+01    1.484925e+00
  1.838807e+01    1.468288e+00
  1.840395e+01    1.431145e+00
  1.841982e+01    1.431718e+00
  1.843570e+01    1.450103e+00
  1.845157e+01    1.446783e+00
  1.846745e+01    1.454690e+00
  1.848332e+01    1.460479e+00
  1.849920e+01    1.482762e+00
  1.851508e+01    1.446406e+00
  1.853095e+01    1.433489e+00
  1.854683e+01    1.432895e+00
  1.856270e+01    1.442363e+00
  1.857858e+01    1.437084e+00
  1.859445e+01    1.454347e+00
  1.861033e+01    1.434289e+00
  1.862620e+01    1.407577e+00
  1.864208e+01    1.416030e+00
  1.865796e+01    1.401717e+00
  1.867383e+01    1.414098e+00
  1.868971e+01    1.411100e+00
  1.870558e+01    1.450380e+00
  1.872146e+01    1.429549e+00
  1.873733e+01    1.415672e+00
  1.875321e+01    1.409639e+00
  1.876908e+01    1.407030e+00
  1.878496e+01    1.414245e+00
  1.880084e+01    1.426718e+00
  1.881671e+01    1.449172e+00
  1.883259e+01    1.442282e+00
  1.884846e+01    1.441103e+00
  1.886434e+01    1.441046e+00
  1.888021e+01    1.408872e+00
  1.889609e+01    1.398992e+00
  1.891196e+01    1.384664e+00
  1.892784e+01    1.400068e+00
  1.894372e+01    1.393181e+00
  1.895959e+01    1.380881e+00
  1.897547e+01    1.378180e+00
  1.899134e+01    1.402154e+00
  1.900722e+01    1.401308e+00
  1.902309e+01    1.398820e+00
  1.903897e+01    1.383071e+00
  1.905484e+01    1.380712e+00
  1.907072e+01    1.381973e+00
  1.908660e+01    1.355776e+00
  1.910247e+01    1.353640e+00
  1.911835e+01    1.394943e+00
  1.913422e+01    1.367828e+00
  1.915010e+01    1.342774e+00
  1.916597e+01    1.350419e+00
  1.918185e+01    1.390425e+00
  1.919773e+01    1.379726e+00
  1.921360e+01    1.350057e+00
  1.922948e+01    1.357960e+00
  1.924535e+01    1.398708e+00
  1.926123e+01    1.401257e+00
  1.927710e+01    1.383574e+00
  1.929298e+01    1.377330e+00
  1.930885e+01    1.368415e+00
  1.932473e+01    1.365438e+00
  1.934061e+01    1.346673e+00
  1.935648e+01    1.349772e+00
  1.937236e+01    1.366289e+00
  1.938823e+01    1.347944e+00
  1.940411e+01    1.349717e+00
  1.941998e+01    1.350137e+00
  1.943586e+01    1.342418e+00
  1.945173e+01    1.322512e+00
  1.946761e+01    1.334947e+00
  1.948349e+01    1.355505e+00
  1.949936e+01    1.331375e+00
  1.951524e+01    1.330480e+00
  1.953111e+01    1.358698e+00
  1.954699e+01    1.345348e+00
  1.956286e+01    1.336251e+00
  1.957874e+01    1.308134e+00
  1.959461e+01    1.301735e+00
  1.961049e+01    1.330283e+00
  1.962637e+01    1.365009e+00
  1.964224e+01    1.299056e+00
  1.965812e+01    1.306161e+00
  1.967399e+01    1.351765e+00
  1.968987e+01    1.339892e+00
  1.970574e+01    1.316415e+00
  1.972162e+01    1.327042e+00
  1.973749e+01    1.304422e+00
  1.975337e+01    1.303224e+00
  1.976925e+01    1.306746e+00
  1.978512e+01    1.326209e+00
  1.980100e+01    1.308611e+00
  1.981687e+01    1.314713e+00
  1.983275e+01    1.321697e+00
  1.984862e+01    1.308127e+00
  1.986450e+01    1.321728e+00
  1.988037e+01    1.313294e+00
  1.989625e+01    1.311703e+00
  1.991213e+01    1.310597e+00
  1.992800e+01    1.286220e+00
  1.994388e+01    1.299528e+00
  1.995975e+01    1.277387e+00
  1.997563e+01    1.313015e+00
  1.999150e+01    1.321631e+00
  2.000738e+01    1.266834e+00
  2.002325e+01    1.261101e+00
  2.003913e+01    1.281201e+00
  2.005501e+01    1.302241e+00
  2.007088e+01    1.309776e+00
  2.008676e+01    1.278735e+00
  2.010263e+01    1.299349e+00
  2.011851e+01    1.298966e+00
  2.013438e+01    1.293467e+00
  2.015026e+01    1.273695e+00
  2.016614e+01    1.261769e+00
  2.018201e+01    1.274128e+00
  2.019789e+01    1.273284e+00
  2.021376e+01    1.279094e+00
  2.022964e+01    1.269579e+00
  2.024551e+01    1.275782e+00
  2.026139e+01    1.267080e+00
  2.027726e+01    1.273806e+00
  2.029314e+01    1.270128e+00
  2.030902e+01    1.274548e+00
  2.032489e+01    1.265790e+00
  2.034077e+01    1.282923e+00
  2.035664e+01    1.277565e+00
  2.037252e+01    1.247639e+00
  2.038839e+01    1.257675e+00
  2.040427e+01    1.254946e+00
  2.042014e+01    1.267810e+00
  2.043602e+01    1.268621e+00
  2.045190e+01    1.257422e+00
  2.046777e+01    1.258770e+00
  2.048365e+01    1.258083e+00
  2.049952e+01    1.253655e+00
  2.051540e+01    1.268166e+00
  2.053127e+01    1.252292e+00
  2.054715e+01    1.238085e+00
  2.056302e+01    1.246459e+00
  2.057890e+01    1.230600e+00
  2.059478e+01    1.232578e+00
  2.061065e+01    1.231621e+00
  2.062653e+01    1.244766e+00
  2.064240e+01    1.246307e+00
  2.065828e+01    1.224415e+00
  2.067415e+01    1.230573e+00
  2.069003e+01    1.213180e+00
  2.070590e+01    1.226627e+00
  2.072178e+01    1.213969e+00
  2.073766e+01    1.236997e+00
  2.075353e+01    1.228723e+00
  2.076941e+01    1.232326e+00
  2.078528e+01    1.235999e+00
  2.080116e+01    1.206354e+00
  2.081703e+01    1.215961e+00
  2.083291e+01    1.236911e+00
  2.084878e+01    1.219559e+00
  2.086466e+01    1.218277e+00
  2.088054e+01    1.245107e+00
  2.089641e+01    1.246866e+00
  2.091229e+01    1.223536e+00
  2.092816e+01    1.243084e+00
  2.094404e+01    1.262907e+00
  2.095991e+01    1.257832e+00
  2.097579e+01    1.245231e+00
  2.099166e+01    1.237788e+00
  2.100754e+01    1.254768e+00
  2.102342e+01    1.258004e+00
  2.103929e+01    1.239335e+00
  2.105517e+01    1.228438e+00
  2.107104e+01    1.195634e+00
  2.108692e+01    1.203450e+00
  2.110279e+01    1.246989e+00
  2.111867e+01    1.252538e+00
  2.113455e+01    1.219554e+00
  2.115042e+01    1.210271e+00
  2.116630e+01    1.227617e+00
  2.118217e+01    1.223668e+00
  2.119805e+01    1.242070e+00
  2.121392e+01    1.250496e+00
  2.122980e+01    1.262502e+00
  2.124567e+01    1.236702e+00
  2.126155e+01    1.255600e+00
  2.127743e+01    1.258233e+00
  2.129330e+01    1.263373e+00
  2.130918e+01    1.279022e+00
  2.132505e+01    1.256877e+00
  2.134093e+01    1.300470e+00
  2.135680e+01    1.278730e+00
  2.137268e+01    1.277137e+00
  2.138855e+01    1.318969e+00
  2.140443e+01    1.321234e+00
  2.142031e+01    1.307483e+00
  2.143618e+01    1.322482e+00
  2.145206e+01    1.363015e+00
  2.146793e+01    1.401979e+00
  2.148381e+01    1.394712e+00
  2.149968e+01    1.429250e+00
  2.151556e+01    1.460783e+00
  2.153143e+01    1.510677e+00
  2.154731e+01    1.536795e+00
  2.156319e+01    1.558907e+00
  2.157906e+01    1.601770e+00
  2.159494e+01    1.683354e+00
  2.161081e+01    1.766426e+00
  2.162669e+01    1.876006e+00
  2.164256e+01    2.006291e+00
  2.165844e+01    2.145015e+00
  2.167431e+01    2.331911e+00
  2.169019e+01    2.534250e+00
  2.170607e+01    2.794596e+00
  2.172194e+01    3.139954e+00
  2.173782e+01    3.574392e+00
  2.175369e+01    4.078332e+00
  2.176957e+01    4.620038e+00
  2.178544e+01    5.269195e+00
  2.180132e+01    5.929785e+00
  2.181719e+01    6.577490e+00
  2.183307e+01    7.236545e+00
  2.184895e+01    7.989826e+00
  2.186482e+01    8.420796e+00
  2.188070e+01    8.824862e+00
  2.189657e+01    9.090262e+00
  2.191245e+01    8.955215e+00
  2.192832e+01    8.348749e+00
  2.194420e+01    7.506659e+00
  2.196007e+01    6.596193e+00
  2.197595e+01    5.704439e+00
  2.199183e+01    4.905561e+00
  2.200770e+01    4.182233e+00
  2.202358e+01    3.629699e+00
  2.203945e+01    3.219436e+00
  2.205533e+01    2.847688e+00
  2.207120e+01    2.551830e+00
  2.208708e+01    2.337451e+00
  2.210296e+01    2.154191e+00
  2.211883e+01    2.010938e+00
  2.213471e+01    1.894219e+00
  2.215058e+01    1.758614e+00
  2.216646e+01    1.693693e+00
  2.218233e+01    1.624168e+00
  2.219821e+01    1.559516e+00
  2.221408e+01    1.517929e+00
  2.222996e+01    1.469827e+00
  2.224584e+01    1.388692e+00
  2.226171e+01    1.382995e+00
  2.227759e+01    1.352282e+00
  2.229346e+01    1.318312e+00
  2.230934e+01    1.309535e+00
  2.232521e+01    1.293791e+00
  2.234109e+01    1.240089e+00
  2.235696e+01    1.214136e+00
  2.237284e+01    1.231426e+00
  2.238872e+01    1.236853e+00
  2.240459e+01    1.222002e+00
  2.242047e+01    1.192212e+00
  2.243634e+01    1.194940e+00
  2.245222e+01    1.177911e+00
  2.246809e+01    1.150552e+00
  2.248397e+01    1.158319e+00
  2.249984e+01    1.141549e+00
  2.251572e+01    1.157184e+00
  2.253160e+01    1.172763e+00
  2.254747e+01    1.173645e+00
  2.256335e+01    1.134048e+00
  2.257922e+01    1.115781e+00
  2.259510e+01    1.093443e+00
  2.261097e+01    1.102922e+00
  2.262685e+01    1.118274e+00
  2.264272e+01    1.107922e+00
  2.265860e+01    1.087575e+00
  2.267448e+01    1.109832e+00
  2.269035e+01    1.092099e+00
  2.270623e+01    1.064808e+00
  2.272210e+01    1.071451e+00
  2.273798e+01    1.085491e+00
  2.275385e+01    1.093914e+00
  2.276973e+01    1.090085e+00
  2.278560e+01    1.088143e+00
  2.280148e+01    1.062333e+00
  2.281736e+01    1.060886e+00
  2.283323e+01    1.059786e+00
  2.284911e+01    1.067931e+00
  2.286498e+01    1.051666e+00
  2.288086e+01    1.030665e+00
  2.289673e+01    1.019549e+00
  2.291261e+01    1.039523e+00
  2.292848e+01    1.053511e+00
  2.294436e+01    1.048538e+00
  2.296024e+01    1.058625e+00
  2.297611e+01    1.036726e+00
  2.299199e+01    1.021463e+00
  2.300786e+01    1.019109e+00
  2.302374e+01    1.015327e+00
  2.303961e+01    1.028206e+00
  2.305549e+01    1.033644e+00
  2.307137e+01    1.024583e+00
  2.308724e+01    1.009550e+00
  2.310312e+01    1.016404e+00
  2.311899e+01    1.012184e+00
  2.313487e+01    9.985637e-01
  2.315074e+01    9.758975e-01
  2.316662e+01    9.907715e-01
  2.318249e+01    1.004207e+00
  2.319837e+01    9.998925e-01
  2.321425e+01    1.005463e+00
  2.323012e+01    1.002001e+00
  2.324600e+01    9.822835e-01
  2.326187e+01    9.959344e-01
  2.327775e+01    9.914342e-01
  2.329362e+01    9.865510e-01
  2.330950e+01    9.970070e-01
  2.332537e+01    9.826960e-01
  2.334125e+01    9.727955e-01
  2.335713e+01    9.804582e-01
  2.337300e+01    9.678129e-01
  2.338888e+01    9.879951e-01
  2.340475e+01    9.711215e-01
  2.342063e+01    9.734977e-01
  2.343650e+01    9.810092e-01
  2.345238e+01    9.864911e-01
  2.346825e+01    9.924159e-01
  2.348413e+01    9.845826e-01
  2.350001e+01    9.811200e-01
  2.351588e+01    9.681166e-01
  2.353176e+01    9.824757e-01
  2.354763e+01    9.639193e-01
  2.356351e+01    9.634826e-01
  2.357938e+01    9.458444e-01
  2.359526e+01    9.505153e-01
  2.361113e+01    9.699968e-01
  2.362701e+01    9.793795e-01
  2.364289e+01    9.773434e-01
  2.365876e+01    9.633784e-01
  2.367464e+01    9.201406e-01
  2.369051e+01    9.371942e-01
  2.370639e+01    9.558388e-01
  2.372226e+01    9.546698e-01
  2.373814e+01    9.291998e-01
  2.375401e+01    9.422507e-01
  2.376989e+01    9.496270e-01
  2.378577e+01    9.276492e-01
  2.380164e+01    9.315114e-01
  2.381752e+01    9.393114e-01
  2.383339e+01    9.316414e-01
  2.384927e+01    9.149584e-01
  2.386514e+01    9.151762e-01
  2.388102e+01    9.241732e-01
  2.389689e+01    9.363930e-01
  2.391277e+01    9.227433e-01
  2.392865e+01    9.226372e-01
  2.394452e+01    9.174103e-01
  2.396040e+01    9.276929e-01
  2.397627e+01    9.287217e-01
  2.399215e+01    9.314014e-01
  2.400802e+01    9.086259e-01
  2.402390e+01    8.974551e-01
  2.403978e+01    9.128026e-01
  2.405565e+01    9.122251e-01
  2.407153e+01    8.999555e-01
  2.408740e+01    8.881606e-01
  2.410328e+01    9.065369e-01
  2.411915e+01    8.815070e-01
  2.413503e+01    8.815041e-01
  2.415090e+01    8.782679e-01
  2.416678e+01    8.915550e-01
  2.418266e+01    9.005564e-01
  2.419853e+01    8.866373e-01
  2.421441e+01    8.957569e-01
  2.423028e+01    8.954856e-01
  2.424616e+01    8.955705e-01
  2.426203e+01    8.884785e-01
  2.427791e+01    8.724902e-01
  2.429378e+01    9.004155e-01
  2.430966e+01    9.121935e-01
  2.432554e+01    8.920637e-01
  2.434141e+01    8.919794e-01
  2.435729e+01    8.955818e-01
  2.437316e+01    8.943491e-01
  2.438904e+01    8.818539e-01
  2.440491e+01    9.116544e-01
  2.442079e+01    9.073014e-01
  2.443666e+01    9.279403e-01
  2.445254e+01    9.107187e-01
  2.446842e+01    9.076236e-01
  2.448429e+01    9.108734e-01
  2.450017e+01    9.036540e-01
  2.451604e+01    8.982347e-01
  2.453192e+01    8.958803e-01
  2.454779e+01    8.917147e-01
  2.456367e+01    8.923067e-01
  2.457954e+01    8.841736e-01
  2.459542e+01    9.142067e-01
  2.461130e+01    8.952543e-01
  2.462717e+01    8.907745e-01
  2.464305e+01    8.933204e-01
  2.465892e+01    8.954433e-01
  2.467480e+01    9.258321e-01
  2.469067e+01    9.038115e-01
  2.470655e+01    9.130887e-01
  2.472242e+01    9.052806e-01
  2.473830e+01    8.861847e-01
  2.475418e+01    8.753248e-01
  2.477005e+01    9.045347e-01
  2.478593e+01    9.082259e-01
  2.480180e+01    8.912100e-01
  2.481768e+01    8.987552e-01
  2.483355e+01    8.972042e-01
  2.484943e+01    8.976648e-01
  2.486530e+01    8.889706e-01
  2.488118e+01    9.048082e-01
  2.489706e+01    8.697605e-01
  2.491293e+01    8.740188e-01
  2.492881e+01    8.826520e-01
  2.494468e+01    9.075595e-01
  2.496056e+01    9.084887e-01
  2.497643e+01    9.029736e-01
  2.499231e+01    8.944144e-01
  2.500819e+01    9.073537e-01
  2.502406e+01    9.083431e-01
  2.503994e+01    9.081231e-01
  2.505581e+01    9.148785e-01
  2.507169e+01    9.057559e-01
  2.508756e+01    9.031112e-01
  2.510344e+01    8.886796e-01
  2.511931e+01    9.030575e-01
  2.513519e+01    9.119614e-01
  2.515107e+01    9.166697e-01
  2.516694e+01    9.131315e-01
  2.518282e+01    9.197636e-01
  2.519869e+01    9.219010e-01
  2.521457e+01    9.431760e-01
  2.523044e+01    9.232476e-01
  2.524632e+01    9.257112e-01
  2.526219e+01    9.476075e-01
  2.527807e+01    9.609709e-01
  2.529395e+01    9.524071e-01
  2.530982e+01    9.552963e-01
  2.532570e+01    9.534382e-01
  2.534157e+01    9.464087e-01
  2.535745e+01    9.856535e-01
  2.537332e+01    9.843875e-01
  2.538920e+01    1.014561e+00
  2.540507e+01    1.030540e+00
  2.542095e+01    1.026414e+00
  2.543683e+01    1.016936e+00
  2.545270e+01    1.027179e+00
  2.546858e+01    1.040779e+00
  2.548445e+01    1.055426e+00
  2.550033e+01    1.067235e+00
  2.551620e+01    1.078555e+00
  2.553208e+01    1.099020e+00
  2.554795e+01    1.109510e+00
  2.556383e+01    1.140247e+00
  2.557971e+01    1.167267e+00
  2.559558e+01    1.177567e+00
  2.561146e+01    1.208725e+00
  2.562733e+01    1.247745e+00
  2.564321e+01    1.301967e+00
  2.565908e+01    1.391366e+00
  2.567496e+01    1.429243e+00
  2.569083e+01    1.526306e+00
  2.570671e+01    1.622923e+00
  2.572259e+01    1.712000e+00
  2.573846e+01    1.856250e+00
  2.575434e+01    2.041011e+00
  2.577021e+01    2.248718e+00
  2.578609e+01    2.512486e+00
  2.580196e+01    2.847867e+00
  2.581784e+01    3.226060e+00
  2.583371e+01    3.687594e+00
  2.584959e+01    4.250300e+00
  2.586547e+01    4.737296e+00
  2.588134e+01    5.333706e+00
  2.589722e+01    5.912499e+00
  2.591309e+01    6.421049e+00
  2.592897e+01    6.852793e+00
  2.594484e+01    7.127608e+00
  2.596072e+01    7.225761e+00
  2.597660e+01    7.039308e+00
  2.599247e+01    6.683907e+00
  2.600835e+01    6.071313e+00
  2.602422e+01    5.285681e+00
  2.604010e+01    4.651339e+00
  2.605597e+01    4.015005e+00
  2.607185e+01    3.488101e+00
  2.608772e+01    3.072756e+00
  2.610360e+01    2.681530e+00
  2.611948e+01    2.376383e+00
  2.613535e+01    2.161513e+00
  2.615123e+01    1.991575e+00
  2.616710e+01    1.840347e+00
  2.618298e+01    1.693131e+00
  2.619885e+01    1.591289e+00
  2.621473e+01    1.471236e+00
  2.623060e+01    1.400668e+00
  2.624648e+01    1.351786e+00
  2.626236e+01    1.294730e+00
  2.627823e+01    1.259690e+00
  2.629411e+01    1.232322e+00
  2.630998e+01    1.181699e+00
  2.632586e+01    1.160884e+00
  2.634173e+01    1.165668e+00
  2.635761e+01    1.144257e+00
  2.637348e+01    1.101076e+00
  2.638936e+01    1.085443e+00
  2.640524e+01    1.074743e+00
  2.642111e+01    1.043660e+00
  2.643699e+01    1.046567e+00
  2.645286e+01    1.036871e+00
  2.646874e+01    1.022743e+00
  2.648461e+01    1.001145e+00
  2.650049e+01    1.021114e+00
  2.651636e+01    1.029514e+00
  2.653224e+01    1.019858e+00
  2.654812e+01    1.004959e+00
  2.656399e+01    1.005311e+00
  2.657987e+01    1.022570e+00
  2.659574e+01    1.005845e+00
  2.661162e+01    9.785179e-01
  2.662749e+01    9.764422e-01
  2.664337e+01    9.884513e-01
  2.665924e+01    9.846590e-01
  2.667512e+01    9.995762e-01
  2.669100e+01    1.003823e+00
  2.670687e+01    1.001618e+00
  2.672275e+01    9.900550e-01
  2.673862e+01    9.884778e-01
  2.675450e+01    9.882207e-01
  2.677037e+01    9.880799e-01
  2.678625e+01    9.899656e-01
  2.680212e+01    9.822435e-01
  2.681800e+01    9.951404e-01
  2.683388e+01    9.730792e-01
  2.684975e+01    9.895930e-01
  2.686563e+01    1.019091e+00
  2.688150e+01    1.015384e+00
  2.689738e+01    1.018907e+00
  2.691325e+01    1.014656e+00
  2.692913e+01    1.030098e+00
  2.694501e+01    1.026023e+00
  2.696088e+01    1.037380e+00
  2.697676e+01    1.066286e+00
  2.699263e+01    1.103279e+00
  2.700851e+01    1.125171e+00
  2.702438e+01    1.126646e+00
  2.704026e+01    1.211016e+00
  2.705613e+01    1.279399e+00
  2.707201e+01    1.335111e+00
  2.708789e+01    1.401673e+00
  2.710376e+01    1.503820e+00
  2.711964e+01    1.602362e+00
  2.713551e+01    1.726592e+00
  2.715139e+01    1.857040e+00
  2.716726e+01    2.005170e+00
  2.718314e+01    2.094746e+00
  2.719901e+01    2.149525e+00
  2.721489e+01    2.175452e+00
  2.723077e+01    2.167217e+00
  2.724664e+01    2.089906e+00
  2.726252e+01    1.993362e+00
  2.727839e+01    1.871943e+00
  2.729427e+01    1.706124e+00
  2.731014e+01    1.586822e+00
  2.732602e+01    1.464348e+00
  2.734189e+01    1.348514e+00
  2.735777e+01    1.309291e+00
  2.737365e+01    1.228866e+00
  2.738952e+01    1.152486e+00
  2.740540e+01    1.145105e+00
  2.742127e+01    1.100933e+00
  2.743715e+01    1.059752e+00
  2.745302e+01    1.040448e+00
  2.746890e+01    1.014195e+00
  2.748477e+01    1.009274e+00
  2.750065e+01    9.954056e-01
  2.751653e+01    9.742858e-01
  2.753240e+01    9.768495e-01
  2.754828e+01    9.585949e-01
  2.756415e+01    9.593751e-01
  2.758003e+01    9.555578e-01
  2.759590e+01    9.460811e-01
  2.761178e+01    9.277757e-01
  2.762765e+01    9.281873e-01
  2.764353e+01    9.294025e-01
  2.765941e+01    9.113070e-01
  2.767528e+01    8.941967e-01
  2.769116e+01    8.990561e-01
  2.770703e+01    9.025771e-01
  2.772291e+01    8.945255e-01
  2.773878e+01    8.863903e-01
  2.775466e+01    9.012750e-01
  2.777054e+01    9.136585e-01
  2.778641e+01    9.031931e-01
  2.780229e+01    8.850706e-01
  2.781816e+01    9.004024e-01
  2.783404e+01    8.922797e-01
  2.784991e+01    8.921800e-01
  2.786579e+01    8.872399e-01
  2.788166e+01    8.813888e-01
  2.789754e+01    8.733225e-01
  2.791342e+01    8.725002e-01
  2.792929e+01    8.614398e-01
  2.794517e+01    8.761055e-01
  2.796104e+01    8.734015e-01
  2.797692e+01    8.928741e-01
  2.799279e+01    8.897838e-01
  2.800867e+01    8.627353e-01
  2.802454e+01    8.847589e-01
  2.804042e+01    8.948322e-01
  2.805630e+01    8.675432e-01
  2.807217e+01    8.678592e-01
  2.808805e+01    8.541303e-01
  2.810392e+01    8.612217e-01
  2.811980e+01    8.428968e-01
  2.813567e+01    8.577548e-01
  2.815155e+01    8.745102e-01
  2.816742e+01    8.612914e-01
  2.818330e+01    8.594118e-01
  2.819918e+01    8.765785e-01
  2.821505e+01    8.777892e-01
  2.823093e+01    8.499896e-01
  2.824680e+01    8.438584e-01
  2.826268e+01    8.552417e-01
  2.827855e+01    8.500123e-01
  2.829443e+01    8.694555e-01
  2.831030e+01    8.476520e-01
  2.832618e+01    8.386805e-01
  2.834206e+01    8.663939e-01
  2.835793e+01    8.464720e-01
  2.837381e+01    8.585590e-01
  2.838968e+01    8.484986e-01
  2.840556e+01    8.504614e-01
  2.842143e+01    8.419597e-01
  2.843731e+01    8.455856e-01
  2.845318e+01    8.446425e-01
  2.846906e+01    8.230289e-01
  2.848494e+01    8.378301e-01
  2.850081e+01    8.532315e-01
  2.851669e+01    8.392065e-01
  2.853256e+01    8.633270e-01
  2.854844e+01    8.394120e-01
  2.856431e+01    8.535261e-01
  2.858019e+01    8.444262e-01
  2.859606e+01    8.353753e-01
  2.861194e+01    8.406650e-01
  2.862782e+01    8.486381e-01
  2.864369e+01    8.445649e-01
  2.865957e+01    8.426331e-01
  2.867544e+01    8.441207e-01
  2.869132e+01    8.497225e-01
  2.870719e+01    8.344277e-01
  2.872307e+01    8.260643e-01
  2.873895e+01    8.270346e-01
  2.875482e+01    8.326201e-01
  2.877070e+01    8.421719e-01
  2.878657e+01    8.418792e-01
  2.880245e+01    8.360089e-01
  2.881832e+01    8.328263e-01
  2.883420e+01    8.322639e-01
  2.885007e+01    8.495840e-01
  2.886595e+01    8.490906e-01
  2.888183e+01    8.352261e-01
  2.889770e+01    8.279237e-01
  2.891358e+01    8.218223e-01
  2.892945e+01    8.144001e-01
  2.894533e+01    8.114971e-01
  2.896120e+01    8.324137e-01
  2.897708e+01    8.388834e-01
  2.899295e+01    8.319828e-01
  2.900883e+01    8.344360e-01
  2.902471e+01    8.280489e-01
  2.904058e+01    8.329478e-01
  2.905646e+01    8.453740e-01
  2.907233e+01    8.228807e-01
  2.908821e+01    8.449744e-01
  2.910408e+01    8.384620e-01
  2.911996e+01    8.449820e-01
  2.913583e+01    8.447106e-01
  2.915171e+01    8.198146e-01
  2.916759e+01    8.088859e-01
  2.918346e+01    8.267769e-01
  2.919934e+01    8.160858e-01
  2.921521e+01    8.177703e-01
  2.923109e+01    8.253682e-01
  2.924696e+01    8.147458e-01
  2.926284e+01    8.252238e-01
  2.927871e+01    8.385453e-01
  2.929459e+01    8.013709e-01
  2.931047e+01    8.037325e-01
  2.932634e+01    7.998359e-01
  2.934222e+01    8.111623e-01
  2.935809e+01    8.372049e-01
  2.937397e+01    8.278088e-01
  2.938984e+01    8.293897e-01
  2.940572e+01    8.115090e-01
  2.942159e+01    8.071306e-01
  2.943747e+01    8.264941e-01
  2.945335e+01    8.194299e-01
  2.946922e+01    7.981893e-01
  2.948510e+01    8.210757e-01
  2.950097e+01    8.276020e-01
  2.951685e+01    8.253395e-01
  2.953272e+01    8.036166e-01
  2.954860e+01    8.264322e-01
  2.956447e+01    8.075801e-01
  2.958035e+01    7.936500e-01
  2.959623e+01    8.203532e-01
  2.961210e+01    8.147361e-01
  2.962798e+01    7.725172e-01
  2.964385e+01    7.919893e-01
  2.965973e+01    8.143731e-01
  2.967560e+01    8.289909e-01
  2.969148e+01    8.142750e-01
  2.970736e+01    8.075719e-01
  2.972323e+01    7.902790e-01
  2.973911e+01    7.970365e-01
  2.975498e+01    7.836566e-01
  2.977086e+01    8.017715e-01
  2.978673e+01    8.137897e-01
  2.980261e+01    8.151050e-01
  2.981848e+01    8.154558e-01
  2.983436e+01    8.071498e-01
  2.985024e+01    8.023853e-01
  2.986611e+01    7.873983e-01
  2.988199e+01    7.842773e-01
  2.989786e+01    7.918754e-01
  2.991374e+01    7.942317e-01
  2.992961e+01    8.003284e-01
  2.994549e+01    7.858022e-01
  2.996136e+01    7.918731e-01
  2.997724e+01    7.824317e-01
  2.999312e+01    7.908076e-01
  3.000899e+01    8.103307e-01
  3.002487e+01    8.151228e-01
  3.004074e+01    8.240054e-01
  3.005662e+01    8.203178e-01
  3.007249e+01    8.274121e-01
  3.008837e+01    8.228109e-01
  3.010424e+01    7.946029e-01
  3.012012e+01    8.115882e-01
  3.013600e+01    8.014371e-01
  3.015187e+01    8.134763e-01
  3.016775e+01    7.957829e-01
  3.018362e+01    7.889245e-01
  3.019950e+01    7.759461e-01
  3.021537e+01    8.045373e-01
  3.023125e+01    7.987385e-01
  3.024712e+01    8.023165e-01
  3.026300e+01    8.195455e-01
  3.027888e+01    7.807766e-01
  3.029475e+01    7.977514e-01
  3.031063e+01    8.067454e-01
  3.032650e+01    7.906862e-01
  3.034238e+01    7.911025e-01
  3.035825e+01    7.793522e-01
  3.037413e+01    7.811944e-01
  3.039000e+01    7.825059e-01
  3.040588e+01    8.003451e-01
  3.042176e+01    8.082113e-01
  3.043763e+01    8.105608e-01
  3.045351e+01    8.078794e-01
  3.046938e+01    7.965092e-01
  3.048526e+01    7.910964e-01
  3.050113e+01    7.971330e-01
  3.051701e+01    7.806954e-01
  3.053288e+01    7.899597e-01
  3.054876e+01    7.860443e-01
  3.056464e+01    7.894978e-01
  3.058051e+01    7.871940e-01
  3.059639e+01    7.896124e-01
  3.061226e+01    7.726586e-01
  3.062814e+01    8.071769e-01
  3.064401e+01    8.068176e-01
  3.065989e+01    7.945195e-01
  3.067577e+01    8.026698e-01
  3.069164e+01    8.178982e-01
  3.070752e+01    7.965336e-01
  3.072339e+01    8.005151e-01
  3.073927e+01    7.937540e-01
  3.075514e+01    7.878020e-01
  3.077102e+01    7.789802e-01
  3.078689e+01    7.882786e-01
  3.080277e+01    7.890956e-01
  3.081865e+01    7.877360e-01
  3.083452e+01    8.098699e-01
  3.085040e+01    7.963396e-01
  3.086627e+01    7.972174e-01
  3.088215e+01    7.990018e-01
  3.089802e+01    7.880697e-01
  3.091390e+01    7.895873e-01
  3.092977e+01    7.916130e-01
  3.094565e+01    7.949044e-01
  3.096153e+01    7.874871e-01
  3.097740e+01    7.809442e-01
  3.099328e+01    7.797969e-01
  3.100915e+01    8.080919e-01
  3.102503e+01    7.922338e-01
  3.104090e+01    8.094681e-01
  3.105678e+01    7.948094e-01
  3.107265e+01    7.923099e-01
  3.108853e+01    8.032304e-01
  3.110441e+01    7.809560e-01
  3.112028e+01    7.996324e-01
  3.113616e+01    7.994399e-01
  3.115203e+01    7.683150e-01
  3.116791e+01    7.822443e-01
  3.118378e+01    7.982534e-01
  3.119966e+01    7.934978e-01
  3.121553e+01    8.067926e-01
  3.123141e+01    8.147422e-01
  3.124729e+01    8.137323e-01
  3.126316e+01    8.270382e-01
  3.127904e+01    7.968550e-01
  3.129491e+01    7.925431e-01
  3.131079e+01    8.130541e-01
  3.132666e+01    8.215900e-01
  3.134254e+01    8.223502e-01
  3.135841e+01    8.199488e-01
  3.137429e+01    8.195183e-01
  3.139017e+01    8.131443e-01
  3.140604e+01    8.000620e-01
  3.142192e+01    8.255543e-01
  3.143779e+01    8.262959e-01
  3.145367e+01    8.347048e-01
  3.146954e+01    8.457271e-01
  3.148542e+01    8.452334e-01
  3.150129e+01    8.364627e-01
  3.151717e+01    8.323203e-01
  3.153305e+01    8.361485e-01
  3.154892e+01    8.624706e-01
  3.156480e+01    8.607569e-01
  3.158067e+01    8.642702e-01
  3.159655e+01    8.739859e-01
  3.161242e+01    8.954775e-01
  3.162830e+01    9.019161e-01
  3.164418e+01    9.525079e-01
  3.166005e+01    9.589045e-01
  3.167593e+01    9.765881e-01
  3.169180e+01    1.007361e+00
  3.170768e+01    1.033051e+00
  3.172355e+01    1.071025e+00
  3.173943e+01    1.132096e+00
  3.175530e+01    1.191704e+00
  3.177118e+01    1.261819e+00
  3.178706e+01    1.378196e+00
  3.180293e+01    1.463076e+00
  3.181881e+01    1.608047e+00
  3.183468e+01    1.768261e+00
  3.185056e+01    1.863939e+00
  3.186643e+01    1.990281e+00
  3.188231e+01    2.067830e+00
  3.189818e+01    2.123677e+00
  3.191406e+01    2.116363e+00
  3.192994e+01    2.052051e+00
  3.194581e+01    1.967003e+00
  3.196169e+01    1.833449e+00
  3.197756e+01    1.686636e+00
  3.199344e+01    1.567812e+00
  3.200931e+01    1.436371e+00
  3.202519e+01    1.307484e+00
  3.204106e+01    1.253346e+00
  3.205694e+01    1.175287e+00
  3.207282e+01    1.132754e+00
  3.208869e+01    1.060103e+00
  3.210457e+01    1.027963e+00
  3.212044e+01    9.740763e-01
  3.213632e+01    9.188954e-01
  3.215219e+01    8.996357e-01
  3.216807e+01    9.139741e-01
  3.218394e+01    8.653876e-01
  3.219982e+01    8.568755e-01
  3.221570e+01    8.587681e-01
  3.223157e+01    8.532026e-01
  3.224745e+01    8.475717e-01
  3.226332e+01    8.333213e-01
  3.227920e+01    8.355620e-01
  3.229507e+01    8.340750e-01
  3.231095e+01    8.070283e-01
  3.232682e+01    7.853593e-01
  3.234270e+01    8.073884e-01
  3.235858e+01    8.196927e-01
  3.237445e+01    8.127361e-01
  3.239033e+01    8.073263e-01
  3.240620e+01    8.007509e-01
  3.242208e+01    8.037081e-01
  3.243795e+01    8.104692e-01
  3.245383e+01    8.006081e-01
  3.246970e+01    7.864584e-01
  3.248558e+01    7.953591e-01
  3.250146e+01    7.973996e-01
  3.251733e+01    7.869508e-01
  3.253321e+01    7.834775e-01
  3.254908e+01    7.957413e-01
