# == pyFAI calibration ==
# Distance Sample to Detector: 0.3999999939076516 m
# PONI: 9.750e-02, 1.135e-01 m
# Rotations: -0.000175 0.000000 -0.000000 rad
# 
# == Fit2d calibration ==
# Distance Sample-beamCenter: 400.000 mm
# Center: x=1514.000, y=1300.000 pix
# Tilt: 0.010 deg  TiltPlanRot: 0.010 deg
# 
# Detector Detector	 Spline= None	 PixelSize= 7.500e-05, 7.500e-05 m
#    Detector has a mask: False 
#    Detector has a dark current: False 
#    detector has a flat field: False 
# 
# Wavelength: 6.888e-11 m
# Mask applied: user provided
# Dark current applied: False
# Flat field applied: False
# Polarization factor: 0.99
# Normalization factor: 1.0
# --> /home/myspot/data/2024_07_Rosario/Ru-CGO-ex/2024-07-27_003_Ru-CGO-ex_Reaction_dwell_000023_data_000141.dat
#       q_nm^-1             I 
  2.003187e-02    1.647344e-01
  3.590745e-02    3.036426e-01
  5.178302e-02    2.826205e-01
  6.765859e-02    1.117267e-01
  8.353417e-02    1.503791e-01
  9.940974e-02    1.051516e-01
  1.152853e-01    1.012952e-01
  1.311609e-01    5.474198e-02
  1.470365e-01    3.034214e-03
  1.629120e-01    4.835658e-02
  1.787876e-01    5.492707e-02
  1.946632e-01    2.380941e-02
  2.105388e-01    1.501533e-02
  2.264143e-01    3.942117e-02
  2.422899e-01    3.982959e-02
  2.581655e-01    1.394385e-02
  2.740411e-01    3.747497e-02
  2.899166e-01    7.650952e-02
  3.057922e-01    8.764774e-02
  3.216678e-01    3.909842e-02
  3.375433e-01    1.259444e-02
  3.534189e-01    3.918627e-02
  3.692945e-01    3.624133e-02
  3.851701e-01    2.365188e-02
  4.010456e-01    4.968149e-02
  4.169212e-01    7.518449e-02
  4.327968e-01    4.306528e-02
  4.486724e-01    3.296179e-02
  4.645479e-01    5.014681e-02
  4.804235e-01    4.949991e-02
  4.962991e-01    3.363420e-02
  5.121747e-01    5.712081e-02
  5.280502e-01    8.568502e-02
  5.439258e-01    5.089635e-02
  5.598014e-01    4.740614e-02
  5.756770e-01    4.428031e-02
  5.915525e-01    4.405325e-02
  6.074281e-01    1.424398e-02
  6.233037e-01    3.065535e-02
  6.391793e-01    6.181236e-02
  6.550548e-01    5.355284e-02
  6.709304e-01    3.048368e-02
  6.868060e-01    3.887012e-02
  7.026815e-01    4.392027e-02
  7.185571e-01    4.222886e-02
  7.344327e-01    4.110974e-02
  7.503083e-01    5.074051e-02
  7.661838e-01    1.030460e-01
  7.820594e-01    1.516827e-01
  7.979350e-01    2.045858e-01
  8.138106e-01    2.293901e-01
  8.296861e-01    2.576479e-01
  8.455617e-01    3.253531e-01
  8.614373e-01    3.679063e-01
  8.773129e-01    5.503868e-01
  8.931884e-01    5.497118e-01
  9.090640e-01    6.361822e-01
  9.249396e-01    7.338691e-01
  9.408152e-01    8.511933e-01
  9.566907e-01    9.286893e-01
  9.725663e-01    9.991466e-01
  9.884419e-01    1.004269e+00
  1.004317e+00    1.144541e+00
  1.020193e+00    1.268739e+00
  1.036069e+00    1.338399e+00
  1.051944e+00    1.450523e+00
  1.067820e+00    1.561828e+00
  1.083695e+00    1.462475e+00
  1.099571e+00    1.523178e+00
  1.115446e+00    1.521213e+00
  1.131322e+00    1.537904e+00
  1.147198e+00    1.565873e+00
  1.163073e+00    1.578215e+00
  1.178949e+00    1.630049e+00
  1.194824e+00    1.782083e+00
  1.210700e+00    2.110108e+00
  1.226575e+00    2.287639e+00
  1.242451e+00    2.366398e+00
  1.258327e+00    2.434630e+00
  1.274202e+00    2.677366e+00
  1.290078e+00    2.646266e+00
  1.305953e+00    2.693498e+00
  1.321829e+00    2.732109e+00
  1.337705e+00    2.778493e+00
  1.353580e+00    2.780296e+00
  1.369456e+00    2.862199e+00
  1.385331e+00    2.858974e+00
  1.401207e+00    2.781281e+00
  1.417082e+00    2.858826e+00
  1.432958e+00    2.948391e+00
  1.448834e+00    2.765738e+00
  1.464709e+00    2.920888e+00
  1.480585e+00    2.948751e+00
  1.496460e+00    3.120176e+00
  1.512336e+00    3.176957e+00
  1.528211e+00    3.150166e+00
  1.544087e+00    3.205776e+00
  1.559963e+00    3.223668e+00
  1.575838e+00    3.143886e+00
  1.591714e+00    2.940053e+00
  1.607589e+00    3.056761e+00
  1.623465e+00    3.128632e+00
  1.639340e+00    3.107440e+00
  1.655216e+00    3.175025e+00
  1.671092e+00    3.192487e+00
  1.686967e+00    3.272102e+00
  1.702843e+00    3.159111e+00
  1.718718e+00    3.159435e+00
  1.734594e+00    3.089565e+00
  1.750469e+00    3.062931e+00
  1.766345e+00    3.126449e+00
  1.782221e+00    3.118183e+00
  1.798096e+00    3.070765e+00
  1.813972e+00    2.994223e+00
  1.829847e+00    3.049036e+00
  1.845723e+00    3.110522e+00
  1.861598e+00    2.989044e+00
  1.877474e+00    3.125653e+00
  1.893350e+00    3.083448e+00
  1.909225e+00    3.067928e+00
  1.925101e+00    2.957869e+00
  1.940976e+00    2.968485e+00
  1.956852e+00    3.060220e+00
  1.972727e+00    3.006964e+00
  1.988603e+00    3.119709e+00
  2.004479e+00    3.154465e+00
  2.020354e+00    3.102168e+00
  2.036230e+00    3.029867e+00
  2.052105e+00    3.033855e+00
  2.067981e+00    3.084103e+00
  2.083856e+00    3.115708e+00
  2.099732e+00    2.990815e+00
  2.115608e+00    2.941658e+00
  2.131483e+00    3.076422e+00
  2.147359e+00    3.130163e+00
  2.163234e+00    3.036060e+00
  2.179110e+00    3.145826e+00
  2.194985e+00    3.085963e+00
  2.210861e+00    3.037646e+00
  2.226737e+00    3.176398e+00
  2.242612e+00    3.269910e+00
  2.258488e+00    3.241068e+00
  2.274363e+00    3.211611e+00
  2.290239e+00    3.234129e+00
  2.306115e+00    3.200698e+00
  2.321990e+00    3.164900e+00
  2.337866e+00    3.100540e+00
  2.353741e+00    3.131567e+00
  2.369617e+00    3.135584e+00
  2.385492e+00    3.176197e+00
  2.401368e+00    3.144436e+00
  2.417244e+00    3.117086e+00
  2.433119e+00    3.178528e+00
  2.448995e+00    3.237523e+00
  2.464870e+00    3.180350e+00
  2.480746e+00    3.077528e+00
  2.496621e+00    3.123568e+00
  2.512497e+00    3.172603e+00
  2.528373e+00    3.235165e+00
  2.544248e+00    3.176964e+00
  2.560124e+00    3.226473e+00
  2.575999e+00    3.185246e+00
  2.591875e+00    3.256225e+00
  2.607750e+00    3.316164e+00
  2.623626e+00    3.222363e+00
  2.639502e+00    3.179502e+00
  2.655377e+00    3.158270e+00
  2.671253e+00    3.192066e+00
  2.687128e+00    3.196639e+00
  2.703004e+00    3.295783e+00
  2.718879e+00    3.333742e+00
  2.734755e+00    3.181702e+00
  2.750631e+00    3.212975e+00
  2.766506e+00    3.304394e+00
  2.782382e+00    3.350342e+00
  2.798257e+00    3.333656e+00
  2.814133e+00    3.353364e+00
  2.830008e+00    3.247641e+00
  2.845884e+00    3.305707e+00
  2.861760e+00    3.407832e+00
  2.877635e+00    3.248631e+00
  2.893511e+00    3.222376e+00
  2.909386e+00    3.359032e+00
  2.925262e+00    3.334412e+00
  2.941137e+00    3.246919e+00
  2.957013e+00    3.247416e+00
  2.972889e+00    3.348540e+00
  2.988764e+00    3.319633e+00
  3.004640e+00    3.264243e+00
  3.020515e+00    3.314889e+00
  3.036391e+00    3.334812e+00
  3.052266e+00    3.508099e+00
  3.068142e+00    3.408041e+00
  3.084018e+00    3.368319e+00
  3.099893e+00    3.395468e+00
  3.115769e+00    3.349741e+00
  3.131644e+00    3.432655e+00
  3.147520e+00    3.343957e+00
  3.163395e+00    3.396414e+00
  3.179271e+00    3.324933e+00
  3.195147e+00    3.434921e+00
  3.211022e+00    3.359447e+00
  3.226898e+00    3.436261e+00
  3.242773e+00    3.548543e+00
  3.258649e+00    3.421580e+00
  3.274525e+00    3.459141e+00
  3.290400e+00    3.471384e+00
  3.306276e+00    3.392178e+00
  3.322151e+00    3.376438e+00
  3.338027e+00    3.409886e+00
  3.353902e+00    3.416125e+00
  3.369778e+00    3.397518e+00
  3.385654e+00    3.400738e+00
  3.401529e+00    3.483388e+00
  3.417405e+00    3.487529e+00
  3.433280e+00    3.525303e+00
  3.449156e+00    3.520988e+00
  3.465031e+00    3.544998e+00
  3.480907e+00    3.415656e+00
  3.496783e+00    3.456656e+00
  3.512658e+00    3.508049e+00
  3.528534e+00    3.452309e+00
  3.544409e+00    3.528828e+00
  3.560285e+00    3.480021e+00
  3.576160e+00    3.400840e+00
  3.592036e+00    3.399969e+00
  3.607912e+00    3.386549e+00
  3.623787e+00    3.362873e+00
  3.639663e+00    3.416273e+00
  3.655538e+00    3.438929e+00
  3.671414e+00    3.521699e+00
  3.687289e+00    3.487346e+00
  3.703165e+00    3.496053e+00
  3.719041e+00    3.492596e+00
  3.734916e+00    3.442067e+00
  3.750792e+00    3.418450e+00
  3.766667e+00    3.469743e+00
  3.782543e+00    3.572254e+00
  3.798418e+00    3.536266e+00
  3.814294e+00    3.476856e+00
  3.830170e+00    3.534500e+00
  3.846045e+00    3.442696e+00
  3.861921e+00    3.453280e+00
  3.877796e+00    3.502079e+00
  3.893672e+00    3.508417e+00
  3.909547e+00    3.494298e+00
  3.925423e+00    3.555933e+00
  3.941299e+00    3.552797e+00
  3.957174e+00    3.515347e+00
  3.973050e+00    3.500047e+00
  3.988925e+00    3.554597e+00
  4.004801e+00    3.640188e+00
  4.020676e+00    3.517286e+00
  4.036552e+00    3.508375e+00
  4.052428e+00    3.477676e+00
  4.068303e+00    3.430131e+00
  4.084179e+00    3.572129e+00
  4.100054e+00    3.480577e+00
  4.115930e+00    3.411805e+00
  4.131806e+00    3.476297e+00
  4.147681e+00    3.562691e+00
  4.163557e+00    3.600013e+00
  4.179432e+00    3.599650e+00
  4.195308e+00    3.582622e+00
  4.211183e+00    3.660256e+00
  4.227059e+00    3.576103e+00
  4.242935e+00    3.553275e+00
  4.258810e+00    3.559014e+00
  4.274686e+00    3.594858e+00
  4.290561e+00    3.632275e+00
  4.306437e+00    3.676673e+00
  4.322312e+00    3.580398e+00
  4.338188e+00    3.521713e+00
  4.354064e+00    3.638170e+00
  4.369939e+00    3.543064e+00
  4.385815e+00    3.553714e+00
  4.401690e+00    3.566147e+00
  4.417566e+00    3.591312e+00
  4.433441e+00    3.633657e+00
  4.449317e+00    3.628994e+00
  4.465193e+00    3.611960e+00
  4.481068e+00    3.585151e+00
  4.496944e+00    3.546917e+00
  4.512819e+00    3.570755e+00
  4.528695e+00    3.626604e+00
  4.544570e+00    3.672674e+00
  4.560446e+00    3.673222e+00
  4.576322e+00    3.632099e+00
  4.592197e+00    3.631188e+00
  4.608073e+00    3.606115e+00
  4.623948e+00    3.639176e+00
  4.639824e+00    3.564800e+00
  4.655699e+00    3.561952e+00
  4.671575e+00    3.566841e+00
  4.687451e+00    3.710880e+00
  4.703326e+00    3.739549e+00
  4.719202e+00    3.518137e+00
  4.735077e+00    3.524575e+00
  4.750953e+00    3.588854e+00
  4.766828e+00    3.628298e+00
  4.782704e+00    3.632274e+00
  4.798580e+00    3.659847e+00
  4.814455e+00    3.650311e+00
  4.830331e+00    3.513004e+00
  4.846206e+00    3.533301e+00
  4.862082e+00    3.668612e+00
  4.877957e+00    3.665832e+00
  4.893833e+00    3.679459e+00
  4.909709e+00    3.528159e+00
  4.925584e+00    3.586208e+00
  4.941460e+00    3.562745e+00
  4.957335e+00    3.636472e+00
  4.973211e+00    3.612702e+00
  4.989086e+00    3.621483e+00
  5.004962e+00    3.636557e+00
  5.020838e+00    3.563859e+00
  5.036713e+00    3.614533e+00
  5.052589e+00    3.720589e+00
  5.068464e+00    3.677558e+00
  5.084340e+00    3.651628e+00
  5.100216e+00    3.680285e+00
  5.116091e+00    3.717379e+00
  5.131967e+00    3.670876e+00
  5.147842e+00    3.681721e+00
  5.163718e+00    3.703091e+00
  5.179593e+00    3.632209e+00
  5.195469e+00    3.679787e+00
  5.211345e+00    3.666109e+00
  5.227220e+00    3.649549e+00
  5.243096e+00    3.632458e+00
  5.258971e+00    3.663281e+00
  5.274847e+00    3.723614e+00
  5.290722e+00    3.704123e+00
  5.306598e+00    3.741140e+00
  5.322474e+00    3.725791e+00
  5.338349e+00    3.659721e+00
  5.354225e+00    3.708907e+00
  5.370100e+00    3.736419e+00
  5.385976e+00    3.651525e+00
  5.401851e+00    3.615005e+00
  5.417727e+00    3.594666e+00
  5.433603e+00    3.592842e+00
  5.449478e+00    3.593260e+00
  5.465354e+00    3.635210e+00
  5.481229e+00    3.597389e+00
  5.497105e+00    3.614518e+00
  5.512980e+00    3.621675e+00
  5.528856e+00    3.577468e+00
  5.544732e+00    3.549341e+00
  5.560607e+00    3.553540e+00
  5.576483e+00    3.522165e+00
  5.592358e+00    3.488687e+00
  5.608234e+00    3.607260e+00
  5.624109e+00    3.591394e+00
  5.639985e+00    3.552444e+00
  5.655861e+00    3.558349e+00
  5.671736e+00    3.534399e+00
  5.687612e+00    3.587116e+00
  5.703487e+00    3.540920e+00
  5.719363e+00    3.524492e+00
  5.735238e+00    3.526142e+00
  5.751114e+00    3.533782e+00
  5.766990e+00    3.647339e+00
  5.782865e+00    3.677027e+00
  5.798741e+00    3.636925e+00
  5.814616e+00    3.532794e+00
  5.830492e+00    3.474956e+00
  5.846367e+00    3.550633e+00
  5.862243e+00    3.632298e+00
  5.878119e+00    3.593916e+00
  5.893994e+00    3.562771e+00
  5.909870e+00    3.526159e+00
  5.925745e+00    3.510478e+00
  5.941621e+00    3.559085e+00
  5.957497e+00    3.554360e+00
  5.973372e+00    3.536090e+00
  5.989248e+00    3.521783e+00
  6.005123e+00    3.461965e+00
  6.020999e+00    3.498539e+00
  6.036874e+00    3.582060e+00
  6.052750e+00    3.566177e+00
  6.068626e+00    3.664182e+00
  6.084501e+00    3.605499e+00
  6.100377e+00    3.543309e+00
  6.116252e+00    3.557661e+00
  6.132128e+00    3.514507e+00
  6.148003e+00    3.497724e+00
  6.163879e+00    3.633361e+00
  6.179755e+00    3.650671e+00
  6.195630e+00    3.611419e+00
  6.211506e+00    3.572676e+00
  6.227381e+00    3.573212e+00
  6.243257e+00    3.551081e+00
  6.259132e+00    3.544235e+00
  6.275008e+00    3.534053e+00
  6.290884e+00    3.503690e+00
  6.306759e+00    3.558226e+00
  6.322635e+00    3.494919e+00
  6.338510e+00    3.472788e+00
  6.354386e+00    3.513697e+00
  6.370261e+00    3.559141e+00
  6.386137e+00    3.512135e+00
  6.402013e+00    3.579579e+00
  6.417888e+00    3.597011e+00
  6.433764e+00    3.572121e+00
  6.449639e+00    3.579931e+00
  6.465515e+00    3.590016e+00
  6.481390e+00    3.521461e+00
  6.497266e+00    3.530425e+00
  6.513142e+00    3.636160e+00
  6.529017e+00    3.637844e+00
  6.544893e+00    3.637967e+00
  6.560768e+00    3.609878e+00
  6.576644e+00    3.536567e+00
  6.592519e+00    3.544152e+00
  6.608395e+00    3.559178e+00
  6.624271e+00    3.547982e+00
  6.640146e+00    3.580752e+00
  6.656022e+00    3.589014e+00
  6.671897e+00    3.560390e+00
  6.687773e+00    3.615423e+00
  6.703648e+00    3.552745e+00
  6.719524e+00    3.546496e+00
  6.735400e+00    3.548067e+00
  6.751275e+00    3.554586e+00
  6.767151e+00    3.552202e+00
  6.783026e+00    3.621737e+00
  6.798902e+00    3.607152e+00
  6.814777e+00    3.572649e+00
  6.830653e+00    3.563435e+00
  6.846529e+00    3.607669e+00
  6.862404e+00    3.548939e+00
  6.878280e+00    3.544022e+00
  6.894155e+00    3.576034e+00
  6.910031e+00    3.538859e+00
  6.925907e+00    3.515876e+00
  6.941782e+00    3.500563e+00
  6.957658e+00    3.548962e+00
  6.973533e+00    3.625340e+00
  6.989409e+00    3.530917e+00
  7.005284e+00    3.560125e+00
  7.021160e+00    3.515816e+00
  7.037036e+00    3.522163e+00
  7.052911e+00    3.552988e+00
  7.068787e+00    3.492753e+00
  7.084662e+00    3.532686e+00
  7.100538e+00    3.550085e+00
  7.116413e+00    3.588583e+00
  7.132289e+00    3.628611e+00
  7.148165e+00    3.554502e+00
  7.164040e+00    3.522049e+00
  7.179916e+00    3.533022e+00
  7.195791e+00    3.539012e+00
  7.211667e+00    3.513951e+00
  7.227542e+00    3.519629e+00
  7.243418e+00    3.528613e+00
  7.259294e+00    3.500144e+00
  7.275169e+00    3.491738e+00
  7.291045e+00    3.498183e+00
  7.306920e+00    3.487000e+00
  7.322796e+00    3.489594e+00
  7.338671e+00    3.524659e+00
  7.354547e+00    3.502958e+00
  7.370423e+00    3.535918e+00
  7.386298e+00    3.499530e+00
  7.402174e+00    3.478271e+00
  7.418049e+00    3.448389e+00
  7.433925e+00    3.505847e+00
  7.449800e+00    3.477808e+00
  7.465676e+00    3.471067e+00
  7.481552e+00    3.453929e+00
  7.497427e+00    3.502399e+00
  7.513303e+00    3.555092e+00
  7.529178e+00    3.530894e+00
  7.545054e+00    3.513756e+00
  7.560929e+00    3.467151e+00
  7.576805e+00    3.488095e+00
  7.592681e+00    3.460605e+00
  7.608556e+00    3.425399e+00
  7.624432e+00    3.432814e+00
  7.640307e+00    3.468795e+00
  7.656183e+00    3.469561e+00
  7.672058e+00    3.521864e+00
  7.687934e+00    3.519605e+00
  7.703810e+00    3.448696e+00
  7.719685e+00    3.412481e+00
  7.735561e+00    3.482520e+00
  7.751436e+00    3.524613e+00
  7.767312e+00    3.437177e+00
  7.783187e+00    3.441634e+00
  7.799063e+00    3.445299e+00
  7.814939e+00    3.464984e+00
  7.830814e+00    3.461638e+00
  7.846690e+00    3.387490e+00
  7.862565e+00    3.433027e+00
  7.878441e+00    3.417371e+00
  7.894317e+00    3.420080e+00
  7.910192e+00    3.459002e+00
  7.926068e+00    3.444206e+00
  7.941943e+00    3.400733e+00
  7.957819e+00    3.384720e+00
  7.973694e+00    3.450592e+00
  7.989570e+00    3.476888e+00
  8.005446e+00    3.401135e+00
  8.021321e+00    3.415054e+00
  8.037197e+00    3.472911e+00
  8.053072e+00    3.420471e+00
  8.068948e+00    3.371439e+00
  8.084823e+00    3.373810e+00
  8.100699e+00    3.390519e+00
  8.116575e+00    3.395847e+00
  8.132450e+00    3.457584e+00
  8.148326e+00    3.436639e+00
  8.164201e+00    3.484713e+00
  8.180077e+00    3.483385e+00
  8.195952e+00    3.524154e+00
  8.211828e+00    3.520051e+00
  8.227704e+00    3.493984e+00
  8.243579e+00    3.416037e+00
  8.259455e+00    3.429143e+00
  8.275330e+00    3.433422e+00
  8.291206e+00    3.389486e+00
  8.307081e+00    3.375175e+00
  8.322957e+00    3.344093e+00
  8.338833e+00    3.341261e+00
  8.354708e+00    3.376161e+00
  8.370584e+00    3.426119e+00
  8.386459e+00    3.406506e+00
  8.402335e+00    3.394408e+00
  8.418210e+00    3.440043e+00
  8.434086e+00    3.382158e+00
  8.449962e+00    3.283008e+00
  8.465837e+00    3.305590e+00
  8.481713e+00    3.380937e+00
  8.497588e+00    3.396144e+00
  8.513464e+00    3.400120e+00
  8.529339e+00    3.378650e+00
  8.545215e+00    3.381324e+00
  8.561091e+00    3.358986e+00
  8.576966e+00    3.333551e+00
  8.592842e+00    3.252640e+00
  8.608717e+00    3.333945e+00
  8.624593e+00    3.298090e+00
  8.640468e+00    3.310577e+00
  8.656344e+00    3.315728e+00
  8.672220e+00    3.386382e+00
  8.688095e+00    3.365595e+00
  8.703971e+00    3.404426e+00
  8.719846e+00    3.422859e+00
  8.735722e+00    3.333914e+00
  8.751598e+00    3.369524e+00
  8.767473e+00    3.331296e+00
  8.783349e+00    3.276112e+00
  8.799224e+00    3.350225e+00
  8.815100e+00    3.357588e+00
  8.830975e+00    3.325687e+00
  8.846851e+00    3.400098e+00
  8.862727e+00    3.334180e+00
  8.878602e+00    3.325139e+00
  8.894478e+00    3.339729e+00
  8.910353e+00    3.303437e+00
  8.926229e+00    3.366181e+00
  8.942104e+00    3.393405e+00
  8.957980e+00    3.389398e+00
  8.973856e+00    3.305722e+00
  8.989731e+00    3.300848e+00
  9.005607e+00    3.271874e+00
  9.021482e+00    3.307293e+00
  9.037358e+00    3.301157e+00
  9.053233e+00    3.295362e+00
  9.069109e+00    3.275817e+00
  9.084985e+00    3.279640e+00
  9.100860e+00    3.274896e+00
  9.116736e+00    3.235627e+00
  9.132611e+00    3.216618e+00
  9.148487e+00    3.175279e+00
  9.164362e+00    3.211567e+00
  9.180238e+00    3.246002e+00
  9.196114e+00    3.239064e+00
  9.211989e+00    3.244943e+00
  9.227865e+00    3.267195e+00
  9.243740e+00    3.289901e+00
  9.259616e+00    3.262829e+00
  9.275491e+00    3.247583e+00
  9.291367e+00    3.311177e+00
  9.307243e+00    3.260218e+00
  9.323118e+00    3.230728e+00
  9.338994e+00    3.260053e+00
  9.354869e+00    3.282178e+00
  9.370745e+00    3.220545e+00
  9.386620e+00    3.235305e+00
  9.402496e+00    3.269669e+00
  9.418372e+00    3.206396e+00
  9.434247e+00    3.173753e+00
  9.450123e+00    3.181415e+00
  9.465998e+00    3.202661e+00
  9.481874e+00    3.305821e+00
  9.497749e+00    3.292926e+00
  9.513625e+00    3.292975e+00
  9.529501e+00    3.289146e+00
  9.545376e+00    3.251272e+00
  9.561252e+00    3.220033e+00
  9.577127e+00    3.207086e+00
  9.593003e+00    3.187749e+00
  9.608878e+00    3.196157e+00
  9.624754e+00    3.286779e+00
  9.640630e+00    3.292640e+00
  9.656505e+00    3.244053e+00
  9.672381e+00    3.235557e+00
  9.688256e+00    3.196140e+00
  9.704132e+00    3.147644e+00
  9.720008e+00    3.214675e+00
  9.735883e+00    3.212875e+00
  9.751759e+00    3.223854e+00
  9.767634e+00    3.133441e+00
  9.783510e+00    3.229419e+00
  9.799385e+00    3.166597e+00
  9.815261e+00    3.180462e+00
  9.831137e+00    3.128177e+00
  9.847012e+00    3.139100e+00
  9.862888e+00    3.151912e+00
  9.878763e+00    3.161135e+00
  9.894639e+00    3.082124e+00
  9.910514e+00    3.108554e+00
  9.926390e+00    3.148189e+00
  9.942266e+00    3.057218e+00
  9.958141e+00    3.076279e+00
  9.974017e+00    3.056314e+00
  9.989892e+00    3.054801e+00
  1.000577e+01    3.062426e+00
  1.002164e+01    3.118126e+00
  1.003752e+01    3.097045e+00
  1.005339e+01    3.036319e+00
  1.006927e+01    3.102054e+00
  1.008515e+01    3.157136e+00
  1.010102e+01    3.109622e+00
  1.011690e+01    3.047499e+00
  1.013277e+01    3.058391e+00
  1.014865e+01    3.062622e+00
  1.016452e+01    3.067375e+00
  1.018040e+01    3.082368e+00
  1.019627e+01    3.084171e+00
  1.021215e+01    3.060382e+00
  1.022803e+01    3.109631e+00
  1.024390e+01    3.073489e+00
  1.025978e+01    3.106697e+00
  1.027565e+01    3.097150e+00
  1.029153e+01    3.079350e+00
  1.030740e+01    3.094439e+00
  1.032328e+01    3.062700e+00
  1.033915e+01    3.045165e+00
  1.035503e+01    3.075599e+00
  1.037091e+01    3.048187e+00
  1.038678e+01    3.029883e+00
  1.040266e+01    3.047172e+00
  1.041853e+01    3.049178e+00
  1.043441e+01    3.023872e+00
  1.045028e+01    2.994420e+00
  1.046616e+01    3.028033e+00
  1.048204e+01    3.049982e+00
  1.049791e+01    3.032725e+00
  1.051379e+01    3.083047e+00
  1.052966e+01    3.048247e+00
  1.054554e+01    3.022747e+00
  1.056141e+01    3.013474e+00
  1.057729e+01    3.022122e+00
  1.059316e+01    3.001056e+00
  1.060904e+01    2.982413e+00
  1.062492e+01    2.970290e+00
  1.064079e+01    2.987398e+00
  1.065667e+01    2.980986e+00
  1.067254e+01    2.978857e+00
  1.068842e+01    3.009006e+00
  1.070429e+01    2.982150e+00
  1.072017e+01    2.987793e+00
  1.073604e+01    2.960665e+00
  1.075192e+01    2.954196e+00
  1.076780e+01    2.980431e+00
  1.078367e+01    3.018193e+00
  1.079955e+01    2.968050e+00
  1.081542e+01    2.973497e+00
  1.083130e+01    2.950571e+00
  1.084717e+01    2.929364e+00
  1.086305e+01    2.941979e+00
  1.087892e+01    2.892018e+00
  1.089480e+01    2.899859e+00
  1.091068e+01    2.856283e+00
  1.092655e+01    2.843388e+00
  1.094243e+01    2.892570e+00
  1.095830e+01    2.906335e+00
  1.097418e+01    2.916545e+00
  1.099005e+01    2.931519e+00
  1.100593e+01    2.911101e+00
  1.102180e+01    2.882227e+00
  1.103768e+01    2.862876e+00
  1.105356e+01    2.853425e+00
  1.106943e+01    2.940126e+00
  1.108531e+01    2.905574e+00
  1.110118e+01    2.832434e+00
  1.111706e+01    2.850222e+00
  1.113293e+01    2.865627e+00
  1.114881e+01    2.852992e+00
  1.116468e+01    2.843693e+00
  1.118056e+01    2.853631e+00
  1.119644e+01    2.816422e+00
  1.121231e+01    2.813505e+00
  1.122819e+01    2.872657e+00
  1.124406e+01    2.861156e+00
  1.125994e+01    2.905036e+00
  1.127581e+01    2.939947e+00
  1.129169e+01    2.852618e+00
  1.130756e+01    2.843938e+00
  1.132344e+01    2.854330e+00
  1.133932e+01    2.865815e+00
  1.135519e+01    2.863462e+00
  1.137107e+01    2.897057e+00
  1.138694e+01    2.841744e+00
  1.140282e+01    2.762478e+00
  1.141869e+01    2.772997e+00
  1.143457e+01    2.842387e+00
  1.145045e+01    2.841703e+00
  1.146632e+01    2.775326e+00
  1.148220e+01    2.796851e+00
  1.149807e+01    2.813812e+00
  1.151395e+01    2.794283e+00
  1.152982e+01    2.769125e+00
  1.154570e+01    2.781241e+00
  1.156157e+01    2.787854e+00
  1.157745e+01    2.821957e+00
  1.159333e+01    2.796707e+00
  1.160920e+01    2.741409e+00
  1.162508e+01    2.763332e+00
  1.164095e+01    2.781643e+00
  1.165683e+01    2.744466e+00
  1.167270e+01    2.708918e+00
  1.168858e+01    2.778929e+00
  1.170445e+01    2.783114e+00
  1.172033e+01    2.770447e+00
  1.173621e+01    2.761636e+00
  1.175208e+01    2.740052e+00
  1.176796e+01    2.730692e+00
  1.178383e+01    2.781967e+00
  1.179971e+01    2.746317e+00
  1.181558e+01    2.727342e+00
  1.183146e+01    2.742914e+00
  1.184733e+01    2.793519e+00
  1.186321e+01    2.783494e+00
  1.187909e+01    2.739208e+00
  1.189496e+01    2.785854e+00
  1.191084e+01    2.766286e+00
  1.192671e+01    2.671565e+00
  1.194259e+01    2.684700e+00
  1.195846e+01    2.696214e+00
  1.197434e+01    2.705477e+00
  1.199021e+01    2.707561e+00
  1.200609e+01    2.731381e+00
  1.202197e+01    2.694916e+00
  1.203784e+01    2.711806e+00
  1.205372e+01    2.683927e+00
  1.206959e+01    2.703884e+00
  1.208547e+01    2.718626e+00
  1.210134e+01    2.713688e+00
  1.211722e+01    2.695599e+00
  1.213309e+01    2.701013e+00
  1.214897e+01    2.700836e+00
  1.216485e+01    2.675036e+00
  1.218072e+01    2.703685e+00
  1.219660e+01    2.690532e+00
  1.221247e+01    2.661987e+00
  1.222835e+01    2.726569e+00
  1.224422e+01    2.697367e+00
  1.226010e+01    2.613993e+00
  1.227597e+01    2.599725e+00
  1.229185e+01    2.677561e+00
  1.230773e+01    2.710120e+00
  1.232360e+01    2.701941e+00
  1.233948e+01    2.721962e+00
  1.235535e+01    2.728189e+00
  1.237123e+01    2.725894e+00
  1.238710e+01    2.706700e+00
  1.240298e+01    2.707022e+00
  1.241886e+01    2.701682e+00
  1.243473e+01    2.674537e+00
  1.245061e+01    2.696594e+00
  1.246648e+01    2.714781e+00
  1.248236e+01    2.729254e+00
  1.249823e+01    2.709157e+00
  1.251411e+01    2.704802e+00
  1.252998e+01    2.689824e+00
  1.254586e+01    2.711434e+00
  1.256174e+01    2.696519e+00
  1.257761e+01    2.695095e+00
  1.259349e+01    2.695336e+00
  1.260936e+01    2.772468e+00
  1.262524e+01    2.743560e+00
  1.264111e+01    2.748783e+00
  1.265699e+01    2.757326e+00
  1.267286e+01    2.805158e+00
  1.268874e+01    2.823607e+00
  1.270462e+01    2.768951e+00
  1.272049e+01    2.841356e+00
  1.273637e+01    2.892133e+00
  1.275224e+01    2.892722e+00
  1.276812e+01    2.890279e+00
  1.278399e+01    2.929467e+00
  1.279987e+01    3.012322e+00
  1.281574e+01    3.040387e+00
  1.283162e+01    3.109935e+00
  1.284750e+01    3.165790e+00
  1.286337e+01    3.252655e+00
  1.287925e+01    3.348031e+00
  1.289512e+01    3.491481e+00
  1.291100e+01    3.638444e+00
  1.292687e+01    3.803482e+00
  1.294275e+01    4.062774e+00
  1.295862e+01    4.367778e+00
  1.297450e+01    4.797617e+00
  1.299038e+01    5.259728e+00
  1.300625e+01    6.008492e+00
  1.302213e+01    6.833780e+00
  1.303800e+01    7.719318e+00
  1.305388e+01    8.924011e+00
  1.306975e+01    1.021491e+01
  1.308563e+01    1.147276e+01
  1.310150e+01    1.276701e+01
  1.311738e+01    1.380982e+01
  1.313326e+01    1.487197e+01
  1.314913e+01    1.574530e+01
  1.316501e+01    1.619395e+01
  1.318088e+01    1.615754e+01
  1.319676e+01    1.553705e+01
  1.321263e+01    1.420406e+01
  1.322851e+01    1.247172e+01
  1.324438e+01    1.077938e+01
  1.326026e+01    9.080175e+00
  1.327614e+01    7.701648e+00
  1.329201e+01    6.680966e+00
  1.330789e+01    5.932070e+00
  1.332376e+01    5.302085e+00
  1.333964e+01    4.835362e+00
  1.335551e+01    4.437996e+00
  1.337139e+01    4.081764e+00
  1.338727e+01    3.832443e+00
  1.340314e+01    3.655921e+00
  1.341902e+01    3.459557e+00
  1.343489e+01    3.331016e+00
  1.345077e+01    3.223391e+00
  1.346664e+01    3.112972e+00
  1.348252e+01    3.039370e+00
  1.349839e+01    2.974640e+00
  1.351427e+01    2.944082e+00
  1.353015e+01    2.883386e+00
  1.354602e+01    2.837717e+00
  1.356190e+01    2.789556e+00
  1.357777e+01    2.719873e+00
  1.359365e+01    2.695183e+00
  1.360952e+01    2.684614e+00
  1.362540e+01    2.647026e+00
  1.364127e+01    2.638858e+00
  1.365715e+01    2.576938e+00
  1.367303e+01    2.565949e+00
  1.368890e+01    2.576098e+00
  1.370478e+01    2.565859e+00
  1.372065e+01    2.503667e+00
  1.373653e+01    2.505177e+00
  1.375240e+01    2.538108e+00
  1.376828e+01    2.517957e+00
  1.378415e+01    2.463890e+00
  1.380003e+01    2.468126e+00
  1.381591e+01    2.454209e+00
  1.383178e+01    2.426045e+00
  1.384766e+01    2.411959e+00
  1.386353e+01    2.434376e+00
  1.387941e+01    2.400002e+00
  1.389528e+01    2.420852e+00
  1.391116e+01    2.415066e+00
  1.392703e+01    2.415537e+00
  1.394291e+01    2.435746e+00
  1.395879e+01    2.396940e+00
  1.397466e+01    2.388197e+00
  1.399054e+01    2.377962e+00
  1.400641e+01    2.346166e+00
  1.402229e+01    2.353942e+00
  1.403816e+01    2.359592e+00
  1.405404e+01    2.353925e+00
  1.406991e+01    2.362266e+00
  1.408579e+01    2.378042e+00
  1.410167e+01    2.310379e+00
  1.411754e+01    2.311245e+00
  1.413342e+01    2.317820e+00
  1.414929e+01    2.329372e+00
  1.416517e+01    2.283889e+00
  1.418104e+01    2.292106e+00
  1.419692e+01    2.261461e+00
  1.421279e+01    2.282682e+00
  1.422867e+01    2.282834e+00
  1.424455e+01    2.307111e+00
  1.426042e+01    2.291277e+00
  1.427630e+01    2.264789e+00
  1.429217e+01    2.254924e+00
  1.430805e+01    2.257133e+00
  1.432392e+01    2.280042e+00
  1.433980e+01    2.253783e+00
  1.435568e+01    2.210801e+00
  1.437155e+01    2.216667e+00
  1.438743e+01    2.266341e+00
  1.440330e+01    2.283716e+00
  1.441918e+01    2.278058e+00
  1.443505e+01    2.257317e+00
  1.445093e+01    2.191291e+00
  1.446680e+01    2.223114e+00
  1.448268e+01    2.234237e+00
  1.449856e+01    2.254264e+00
  1.451443e+01    2.230480e+00
  1.453031e+01    2.205127e+00
  1.454618e+01    2.213253e+00
  1.456206e+01    2.245227e+00
  1.457793e+01    2.222966e+00
  1.459381e+01    2.224891e+00
  1.460968e+01    2.246466e+00
  1.462556e+01    2.251765e+00
  1.464144e+01    2.230549e+00
  1.465731e+01    2.210291e+00
  1.467319e+01    2.193351e+00
  1.468906e+01    2.185620e+00
  1.470494e+01    2.196008e+00
  1.472081e+01    2.213139e+00
  1.473669e+01    2.174868e+00
  1.475256e+01    2.174004e+00
  1.476844e+01    2.183071e+00
  1.478432e+01    2.203962e+00
  1.480019e+01    2.250762e+00
  1.481607e+01    2.227065e+00
  1.483194e+01    2.212780e+00
  1.484782e+01    2.236423e+00
  1.486369e+01    2.234463e+00
  1.487957e+01    2.211566e+00
  1.489544e+01    2.223011e+00
  1.491132e+01    2.277840e+00
  1.492720e+01    2.296667e+00
  1.494307e+01    2.329427e+00
  1.495895e+01    2.330388e+00
  1.497482e+01    2.356375e+00
  1.499070e+01    2.402223e+00
  1.500657e+01    2.409025e+00
  1.502245e+01    2.470009e+00
  1.503832e+01    2.585008e+00
  1.505420e+01    2.732160e+00
  1.507008e+01    2.805275e+00
  1.508595e+01    3.006843e+00
  1.510183e+01    3.219121e+00
  1.511770e+01    3.514082e+00
  1.513358e+01    3.803636e+00
  1.514945e+01    4.125169e+00
  1.516533e+01    4.509329e+00
  1.518120e+01    4.923181e+00
  1.519708e+01    5.176042e+00
  1.521296e+01    5.446762e+00
  1.522883e+01    5.629086e+00
  1.524471e+01    5.698459e+00
  1.526058e+01    5.770868e+00
  1.527646e+01    5.741759e+00
  1.529233e+01    5.458808e+00
  1.530821e+01    5.092776e+00
  1.532409e+01    4.721336e+00
  1.533996e+01    4.191514e+00
  1.535584e+01    3.732614e+00
  1.537171e+01    3.400348e+00
  1.538759e+01    3.129121e+00
  1.540346e+01    2.878257e+00
  1.541934e+01    2.778709e+00
  1.543521e+01    2.638941e+00
  1.545109e+01    2.530858e+00
  1.546697e+01    2.481102e+00
  1.548284e+01    2.350259e+00
  1.549872e+01    2.297233e+00
  1.551459e+01    2.221366e+00
  1.553047e+01    2.196929e+00
  1.554634e+01    2.181967e+00
  1.556222e+01    2.156949e+00
  1.557809e+01    2.123055e+00
  1.559397e+01    2.101698e+00
  1.560985e+01    2.102952e+00
  1.562572e+01    2.053156e+00
  1.564160e+01    2.081514e+00
  1.565747e+01    2.030880e+00
  1.567335e+01    1.984223e+00
  1.568922e+01    2.008791e+00
  1.570510e+01    2.003002e+00
  1.572097e+01    1.989835e+00
  1.573685e+01    1.976401e+00
  1.575273e+01    1.968783e+00
  1.576860e+01    1.969306e+00
  1.578448e+01    1.927183e+00
  1.580035e+01    1.910490e+00
  1.581623e+01    1.916565e+00
  1.583210e+01    1.928639e+00
  1.584798e+01    1.956648e+00
  1.586385e+01    1.939778e+00
  1.587973e+01    1.920138e+00
  1.589561e+01    1.878237e+00
  1.591148e+01    1.884271e+00
  1.592736e+01    1.908711e+00
  1.594323e+01    1.909311e+00
  1.595911e+01    1.910234e+00
  1.597498e+01    1.875399e+00
  1.599086e+01    1.901778e+00
  1.600673e+01    1.887674e+00
  1.602261e+01    1.878433e+00
  1.603849e+01    1.904180e+00
  1.605436e+01    1.867555e+00
  1.607024e+01    1.825137e+00
  1.608611e+01    1.841219e+00
  1.610199e+01    1.880801e+00
  1.611786e+01    1.871983e+00
  1.613374e+01    1.843426e+00
  1.614961e+01    1.817668e+00
  1.616549e+01    1.835199e+00
  1.618137e+01    1.848658e+00
  1.619724e+01    1.822365e+00
  1.621312e+01    1.847157e+00
  1.622899e+01    1.808845e+00
  1.624487e+01    1.781674e+00
  1.626074e+01    1.792877e+00
  1.627662e+01    1.832671e+00
  1.629250e+01    1.796915e+00
  1.630837e+01    1.808924e+00
  1.632425e+01    1.804659e+00
  1.634012e+01    1.835405e+00
  1.635600e+01    1.799470e+00
  1.637187e+01    1.781588e+00
  1.638775e+01    1.799028e+00
  1.640362e+01    1.776346e+00
  1.641950e+01    1.779490e+00
  1.643538e+01    1.769138e+00
  1.645125e+01    1.764807e+00
  1.646713e+01    1.767270e+00
  1.648300e+01    1.778217e+00
  1.649888e+01    1.790870e+00
  1.651475e+01    1.765090e+00
  1.653063e+01    1.765758e+00
  1.654650e+01    1.751309e+00
  1.656238e+01    1.745883e+00
  1.657826e+01    1.755106e+00
  1.659413e+01    1.732244e+00
  1.661001e+01    1.742295e+00
  1.662588e+01    1.742271e+00
  1.664176e+01    1.733860e+00
  1.665763e+01    1.728674e+00
  1.667351e+01    1.704280e+00
  1.668938e+01    1.703010e+00
  1.670526e+01    1.715288e+00
  1.672114e+01    1.688253e+00
  1.673701e+01    1.727196e+00
  1.675289e+01    1.704454e+00
  1.676876e+01    1.694935e+00
  1.678464e+01    1.711392e+00
  1.680051e+01    1.706566e+00
  1.681639e+01    1.747586e+00
  1.683226e+01    1.688724e+00
  1.684814e+01    1.674366e+00
  1.686402e+01    1.691874e+00
  1.687989e+01    1.695827e+00
  1.689577e+01    1.665973e+00
  1.691164e+01    1.666537e+00
  1.692752e+01    1.703701e+00
  1.694339e+01    1.689683e+00
  1.695927e+01    1.667199e+00
  1.697514e+01    1.654578e+00
  1.699102e+01    1.655891e+00
  1.700690e+01    1.637970e+00
  1.702277e+01    1.665833e+00
  1.703865e+01    1.666316e+00
  1.705452e+01    1.650921e+00
  1.707040e+01    1.663150e+00
  1.708627e+01    1.663382e+00
  1.710215e+01    1.675165e+00
  1.711802e+01    1.678347e+00
  1.713390e+01    1.646061e+00
  1.714978e+01    1.636131e+00
  1.716565e+01    1.646794e+00
  1.718153e+01    1.655518e+00
  1.719740e+01    1.642476e+00
  1.721328e+01    1.633531e+00
  1.722915e+01    1.635652e+00
  1.724503e+01    1.645049e+00
  1.726091e+01    1.606051e+00
  1.727678e+01    1.613125e+00
  1.729266e+01    1.595827e+00
  1.730853e+01    1.583679e+00
  1.732441e+01    1.604185e+00
  1.734028e+01    1.626951e+00
  1.735616e+01    1.608093e+00
  1.737203e+01    1.616719e+00
  1.738791e+01    1.606110e+00
  1.740379e+01    1.587785e+00
  1.741966e+01    1.611565e+00
  1.743554e+01    1.594241e+00
  1.745141e+01    1.568839e+00
  1.746729e+01    1.582928e+00
  1.748316e+01    1.599025e+00
  1.749904e+01    1.581532e+00
  1.751491e+01    1.576020e+00
  1.753079e+01    1.586383e+00
  1.754667e+01    1.565728e+00
  1.756254e+01    1.562553e+00
  1.757842e+01    1.580252e+00
  1.759429e+01    1.567823e+00
  1.761017e+01    1.575393e+00
  1.762604e+01    1.548345e+00
  1.764192e+01    1.578230e+00
  1.765779e+01    1.576052e+00
  1.767367e+01    1.567684e+00
  1.768955e+01    1.541462e+00
  1.770542e+01    1.531540e+00
  1.772130e+01    1.563108e+00
  1.773717e+01    1.552278e+00
  1.775305e+01    1.541918e+00
  1.776892e+01    1.513101e+00
  1.778480e+01    1.507821e+00
  1.780067e+01    1.542140e+00
  1.781655e+01    1.537732e+00
  1.783243e+01    1.556302e+00
  1.784830e+01    1.554169e+00
  1.786418e+01    1.504853e+00
  1.788005e+01    1.524929e+00
  1.789593e+01    1.543672e+00
  1.791180e+01    1.562714e+00
  1.792768e+01    1.543297e+00
  1.794355e+01    1.498171e+00
  1.795943e+01    1.509439e+00
  1.797531e+01    1.513663e+00
  1.799118e+01    1.501278e+00
  1.800706e+01    1.496540e+00
  1.802293e+01    1.506232e+00
  1.803881e+01    1.518535e+00
  1.805468e+01    1.503011e+00
  1.807056e+01    1.512177e+00
  1.808643e+01    1.481836e+00
  1.810231e+01    1.483165e+00
  1.811819e+01    1.518054e+00
  1.813406e+01    1.498302e+00
  1.814994e+01    1.505432e+00
  1.816581e+01    1.521835e+00
  1.818169e+01    1.506686e+00
  1.819756e+01    1.483306e+00
  1.821344e+01    1.490238e+00
  1.822932e+01    1.470393e+00
  1.824519e+01    1.493976e+00
  1.826107e+01    1.486661e+00
  1.827694e+01    1.474959e+00
  1.829282e+01    1.473081e+00
  1.830869e+01    1.451489e+00
  1.832457e+01    1.474106e+00
  1.834044e+01    1.460614e+00
  1.835632e+01    1.462446e+00
  1.837220e+01    1.465851e+00
  1.838807e+01    1.460378e+00
  1.840395e+01    1.433031e+00
  1.841982e+01    1.432463e+00
  1.843570e+01    1.472844e+00
  1.845157e+01    1.475420e+00
  1.846745e+01    1.434324e+00
  1.848332e+01    1.438806e+00
  1.849920e+01    1.429925e+00
  1.851508e+01    1.414342e+00
  1.853095e+01    1.431385e+00
  1.854683e+01    1.423286e+00
  1.856270e+01    1.423293e+00
  1.857858e+01    1.425983e+00
  1.859445e+01    1.442720e+00
  1.861033e+01    1.441482e+00
  1.862620e+01    1.411741e+00
  1.864208e+01    1.402847e+00
  1.865796e+01    1.433795e+00
  1.867383e+01    1.420159e+00
  1.868971e+01    1.436646e+00
  1.870558e+01    1.453205e+00
  1.872146e+01    1.434311e+00
  1.873733e+01    1.411750e+00
  1.875321e+01    1.396415e+00
  1.876908e+01    1.397961e+00
  1.878496e+01    1.422840e+00
  1.880084e+01    1.415018e+00
  1.881671e+01    1.431115e+00
  1.883259e+01    1.423742e+00
  1.884846e+01    1.427971e+00
  1.886434e+01    1.410152e+00
  1.888021e+01    1.407478e+00
  1.889609e+01    1.405378e+00
  1.891196e+01    1.394844e+00
  1.892784e+01    1.377664e+00
  1.894372e+01    1.361644e+00
  1.895959e+01    1.373504e+00
  1.897547e+01    1.384316e+00
  1.899134e+01    1.424977e+00
  1.900722e+01    1.416523e+00
  1.902309e+01    1.365745e+00
  1.903897e+01    1.364303e+00
  1.905484e+01    1.386139e+00
  1.907072e+01    1.355558e+00
  1.908660e+01    1.341531e+00
  1.910247e+01    1.389843e+00
  1.911835e+01    1.382581e+00
  1.913422e+01    1.378095e+00
  1.915010e+01    1.370008e+00
  1.916597e+01    1.346200e+00
  1.918185e+01    1.364013e+00
  1.919773e+01    1.355146e+00
  1.921360e+01    1.334702e+00
  1.922948e+01    1.324836e+00
  1.924535e+01    1.338239e+00
  1.926123e+01    1.368674e+00
  1.927710e+01    1.344864e+00
  1.929298e+01    1.358022e+00
  1.930885e+01    1.372597e+00
  1.932473e+01    1.362298e+00
  1.934061e+01    1.360771e+00
  1.935648e+01    1.356878e+00
  1.937236e+01    1.344756e+00
  1.938823e+01    1.323761e+00
  1.940411e+01    1.347605e+00
  1.941998e+01    1.339125e+00
  1.943586e+01    1.339504e+00
  1.945173e+01    1.350329e+00
  1.946761e+01    1.345080e+00
  1.948349e+01    1.312785e+00
  1.949936e+01    1.300751e+00
  1.951524e+01    1.324983e+00
  1.953111e+01    1.340283e+00
  1.954699e+01    1.339706e+00
  1.956286e+01    1.335478e+00
  1.957874e+01    1.307438e+00
  1.959461e+01    1.306414e+00
  1.961049e+01    1.291218e+00
  1.962637e+01    1.289069e+00
  1.964224e+01    1.296424e+00
  1.965812e+01    1.282822e+00
  1.967399e+01    1.319467e+00
  1.968987e+01    1.304641e+00
  1.970574e+01    1.299436e+00
  1.972162e+01    1.291262e+00
  1.973749e+01    1.291164e+00
  1.975337e+01    1.325482e+00
  1.976925e+01    1.310962e+00
  1.978512e+01    1.303712e+00
  1.980100e+01    1.302404e+00
  1.981687e+01    1.297523e+00
  1.983275e+01    1.303835e+00
  1.984862e+01    1.269079e+00
  1.986450e+01    1.258214e+00
  1.988037e+01    1.274222e+00
  1.989625e+01    1.314791e+00
  1.991213e+01    1.297520e+00
  1.992800e+01    1.302395e+00
  1.994388e+01    1.286856e+00
  1.995975e+01    1.285313e+00
  1.997563e+01    1.275823e+00
  1.999150e+01    1.269787e+00
  2.000738e+01    1.297732e+00
  2.002325e+01    1.313889e+00
  2.003913e+01    1.274691e+00
  2.005501e+01    1.242263e+00
  2.007088e+01    1.254281e+00
  2.008676e+01    1.268120e+00
  2.010263e+01    1.301500e+00
  2.011851e+01    1.289806e+00
  2.013438e+01    1.280622e+00
  2.015026e+01    1.275972e+00
  2.016614e+01    1.282357e+00
  2.018201e+01    1.255230e+00
  2.019789e+01    1.256339e+00
  2.021376e+01    1.271330e+00
  2.022964e+01    1.267144e+00
  2.024551e+01    1.280737e+00
  2.026139e+01    1.279522e+00
  2.027726e+01    1.281003e+00
  2.029314e+01    1.272537e+00
  2.030902e+01    1.296857e+00
  2.032489e+01    1.264945e+00
  2.034077e+01    1.232026e+00
  2.035664e+01    1.252906e+00
  2.037252e+01    1.268937e+00
  2.038839e+01    1.249861e+00
  2.040427e+01    1.246161e+00
  2.042014e+01    1.248262e+00
  2.043602e+01    1.251535e+00
  2.045190e+01    1.259816e+00
  2.046777e+01    1.265495e+00
  2.048365e+01    1.249619e+00
  2.049952e+01    1.225098e+00
  2.051540e+01    1.238120e+00
  2.053127e+01    1.219619e+00
  2.054715e+01    1.213836e+00
  2.056302e+01    1.229373e+00
  2.057890e+01    1.218714e+00
  2.059478e+01    1.210997e+00
  2.061065e+01    1.206117e+00
  2.062653e+01    1.229229e+00
  2.064240e+01    1.242120e+00
  2.065828e+01    1.237663e+00
  2.067415e+01    1.215412e+00
  2.069003e+01    1.204481e+00
  2.070590e+01    1.222304e+00
  2.072178e+01    1.246376e+00
  2.073766e+01    1.222778e+00
  2.075353e+01    1.218874e+00
  2.076941e+01    1.243750e+00
  2.078528e+01    1.212001e+00
  2.080116e+01    1.229200e+00
  2.081703e+01    1.237273e+00
  2.083291e+01    1.225615e+00
  2.084878e+01    1.226799e+00
  2.086466e+01    1.225347e+00
  2.088054e+01    1.176980e+00
  2.089641e+01    1.181369e+00
  2.091229e+01    1.207996e+00
  2.092816e+01    1.185313e+00
  2.094404e+01    1.227175e+00
  2.095991e+01    1.219641e+00
  2.097579e+01    1.207893e+00
  2.099166e+01    1.215858e+00
  2.100754e+01    1.200701e+00
  2.102342e+01    1.200736e+00
  2.103929e+01    1.189136e+00
  2.105517e+01    1.220687e+00
  2.107104e+01    1.229410e+00
  2.108692e+01    1.202991e+00
  2.110279e+01    1.216248e+00
  2.111867e+01    1.211557e+00
  2.113455e+01    1.243928e+00
  2.115042e+01    1.245807e+00
  2.116630e+01    1.214487e+00
  2.118217e+01    1.240676e+00
  2.119805e+01    1.226752e+00
  2.121392e+01    1.206655e+00
  2.122980e+01    1.206112e+00
  2.124567e+01    1.230116e+00
  2.126155e+01    1.232301e+00
  2.127743e+01    1.220948e+00
  2.129330e+01    1.262101e+00
  2.130918e+01    1.268586e+00
  2.132505e+01    1.258086e+00
  2.134093e+01    1.282485e+00
  2.135680e+01    1.274314e+00
  2.137268e+01    1.268945e+00
  2.138855e+01    1.292286e+00
  2.140443e+01    1.305984e+00
  2.142031e+01    1.333763e+00
  2.143618e+01    1.357104e+00
  2.145206e+01    1.366761e+00
  2.146793e+01    1.370374e+00
  2.148381e+01    1.393145e+00
  2.149968e+01    1.409811e+00
  2.151556e+01    1.440804e+00
  2.153143e+01    1.496505e+00
  2.154731e+01    1.489253e+00
  2.156319e+01    1.558164e+00
  2.157906e+01    1.626497e+00
  2.159494e+01    1.654285e+00
  2.161081e+01    1.760356e+00
  2.162669e+01    1.846041e+00
  2.164256e+01    1.946351e+00
  2.165844e+01    2.095755e+00
  2.167431e+01    2.291206e+00
  2.169019e+01    2.544298e+00
  2.170607e+01    2.802612e+00
  2.172194e+01    3.126679e+00
  2.173782e+01    3.522993e+00
  2.175369e+01    4.026622e+00
  2.176957e+01    4.585670e+00
  2.178544e+01    5.180208e+00
  2.180132e+01    5.864007e+00
  2.181719e+01    6.536698e+00
  2.183307e+01    7.172912e+00
  2.184895e+01    7.788155e+00
  2.186482e+01    8.348481e+00
  2.188070e+01    8.718378e+00
  2.189657e+01    8.907457e+00
  2.191245e+01    8.729035e+00
  2.192832e+01    8.273154e+00
  2.194420e+01    7.502785e+00
  2.196007e+01    6.560628e+00
  2.197595e+01    5.669892e+00
  2.199183e+01    4.841118e+00
  2.200770e+01    4.157895e+00
  2.202358e+01    3.599603e+00
  2.203945e+01    3.177104e+00
  2.205533e+01    2.806436e+00
  2.207120e+01    2.557483e+00
  2.208708e+01    2.324506e+00
  2.210296e+01    2.109479e+00
  2.211883e+01    1.971438e+00
  2.213471e+01    1.855594e+00
  2.215058e+01    1.777233e+00
  2.216646e+01    1.697322e+00
  2.218233e+01    1.618505e+00
  2.219821e+01    1.546571e+00
  2.221408e+01    1.492791e+00
  2.222996e+01    1.445030e+00
  2.224584e+01    1.392667e+00
  2.226171e+01    1.355343e+00
  2.227759e+01    1.321004e+00
  2.229346e+01    1.297135e+00
  2.230934e+01    1.300403e+00
  2.232521e+01    1.308584e+00
  2.234109e+01    1.258497e+00
  2.235696e+01    1.247999e+00
  2.237284e+01    1.202743e+00
  2.238872e+01    1.204448e+00
  2.240459e+01    1.223607e+00
  2.242047e+01    1.203603e+00
  2.243634e+01    1.171221e+00
  2.245222e+01    1.158450e+00
  2.246809e+01    1.154679e+00
  2.248397e+01    1.171692e+00
  2.249984e+01    1.151226e+00
  2.251572e+01    1.130235e+00
  2.253160e+01    1.123373e+00
  2.254747e+01    1.139433e+00
  2.256335e+01    1.116767e+00
  2.257922e+01    1.100689e+00
  2.259510e+01    1.104668e+00
  2.261097e+01    1.094590e+00
  2.262685e+01    1.102442e+00
  2.264272e+01    1.093542e+00
  2.265860e+01    1.089482e+00
  2.267448e+01    1.070040e+00
  2.269035e+01    1.096494e+00
  2.270623e+01    1.099000e+00
  2.272210e+01    1.091424e+00
  2.273798e+01    1.087652e+00
  2.275385e+01    1.070491e+00
  2.276973e+01    1.060858e+00
  2.278560e+01    1.069610e+00
  2.280148e+01    1.059151e+00
  2.281736e+01    1.050459e+00
  2.283323e+01    1.045725e+00
  2.284911e+01    1.078463e+00
  2.286498e+01    1.057898e+00
  2.288086e+01    1.015223e+00
  2.289673e+01    1.030577e+00
  2.291261e+01    1.047484e+00
  2.292848e+01    1.027123e+00
  2.294436e+01    1.014543e+00
  2.296024e+01    1.020905e+00
  2.297611e+01    1.022945e+00
  2.299199e+01    1.037187e+00
  2.300786e+01    1.019954e+00
  2.302374e+01    1.003086e+00
  2.303961e+01    1.006465e+00
  2.305549e+01    1.016686e+00
  2.307137e+01    1.021561e+00
  2.308724e+01    1.001636e+00
  2.310312e+01    1.014560e+00
  2.311899e+01    9.992468e-01
  2.313487e+01    9.841478e-01
  2.315074e+01    9.984154e-01
  2.316662e+01    9.900876e-01
  2.318249e+01    1.000987e+00
  2.319837e+01    1.006322e+00
  2.321425e+01    9.792802e-01
  2.323012e+01    1.009931e+00
  2.324600e+01    9.881379e-01
  2.326187e+01    9.661117e-01
  2.327775e+01    9.791427e-01
  2.329362e+01    9.780592e-01
  2.330950e+01    9.812651e-01
  2.332537e+01    9.734247e-01
  2.334125e+01    9.847763e-01
  2.335713e+01    9.945909e-01
  2.337300e+01    9.662235e-01
  2.338888e+01    9.719113e-01
  2.340475e+01    9.895457e-01
  2.342063e+01    9.814390e-01
  2.343650e+01    9.712352e-01
  2.345238e+01    9.872088e-01
  2.346825e+01    9.844291e-01
  2.348413e+01    9.652939e-01
  2.350001e+01    9.525999e-01
  2.351588e+01    9.721674e-01
  2.353176e+01    9.617302e-01
  2.354763e+01    9.475794e-01
  2.356351e+01    9.531230e-01
  2.357938e+01    9.596138e-01
  2.359526e+01    9.500934e-01
  2.361113e+01    9.749671e-01
  2.362701e+01    9.653636e-01
  2.364289e+01    9.438198e-01
  2.365876e+01    9.348909e-01
  2.367464e+01    9.508553e-01
  2.369051e+01    9.528776e-01
  2.370639e+01    9.191841e-01
  2.372226e+01    9.473352e-01
  2.373814e+01    9.661188e-01
  2.375401e+01    9.405937e-01
  2.376989e+01    9.156121e-01
  2.378577e+01    9.078144e-01
  2.380164e+01    9.169264e-01
  2.381752e+01    9.097039e-01
  2.383339e+01    8.972103e-01
  2.384927e+01    9.271923e-01
  2.386514e+01    9.090879e-01
  2.388102e+01    9.190294e-01
  2.389689e+01    9.097297e-01
  2.391277e+01    9.001265e-01
  2.392865e+01    8.932468e-01
  2.394452e+01    9.040418e-01
  2.396040e+01    8.834423e-01
  2.397627e+01    8.901488e-01
  2.399215e+01    8.975989e-01
  2.400802e+01    9.044113e-01
  2.402390e+01    9.176104e-01
  2.403978e+01    8.952949e-01
  2.405565e+01    8.766837e-01
  2.407153e+01    9.015062e-01
  2.408740e+01    9.013246e-01
  2.410328e+01    8.916834e-01
  2.411915e+01    8.919058e-01
  2.413503e+01    8.934317e-01
  2.415090e+01    8.911461e-01
  2.416678e+01    8.654540e-01
  2.418266e+01    8.872745e-01
  2.419853e+01    8.941861e-01
  2.421441e+01    8.990671e-01
  2.423028e+01    8.937420e-01
  2.424616e+01    8.900677e-01
  2.426203e+01    8.902331e-01
  2.427791e+01    9.097701e-01
  2.429378e+01    8.931497e-01
  2.430966e+01    8.880414e-01
  2.432554e+01    8.986292e-01
  2.434141e+01    9.044290e-01
  2.435729e+01    9.024989e-01
  2.437316e+01    8.923863e-01
  2.438904e+01    8.903049e-01
  2.440491e+01    9.039191e-01
  2.442079e+01    8.890955e-01
  2.443666e+01    8.821741e-01
  2.445254e+01    8.927788e-01
  2.446842e+01    8.799996e-01
  2.448429e+01    8.807966e-01
  2.450017e+01    8.779010e-01
  2.451604e+01    8.706848e-01
  2.453192e+01    9.008206e-01
  2.454779e+01    8.963745e-01
  2.456367e+01    8.896209e-01
  2.457954e+01    8.939104e-01
  2.459542e+01    8.920637e-01
  2.461130e+01    8.786353e-01
  2.462717e+01    8.882588e-01
  2.464305e+01    8.949538e-01
  2.465892e+01    8.805276e-01
  2.467480e+01    8.822100e-01
  2.469067e+01    8.839383e-01
  2.470655e+01    8.718681e-01
  2.472242e+01    8.975325e-01
  2.473830e+01    8.923079e-01
  2.475418e+01    8.919209e-01
  2.477005e+01    8.937930e-01
  2.478593e+01    8.891622e-01
  2.480180e+01    8.966506e-01
  2.481768e+01    8.740305e-01
  2.483355e+01    8.678134e-01
  2.484943e+01    8.790451e-01
  2.486530e+01    8.718706e-01
  2.488118e+01    9.086058e-01
  2.489706e+01    9.007195e-01
  2.491293e+01    9.013073e-01
  2.492881e+01    9.161812e-01
  2.494468e+01    9.115496e-01
  2.496056e+01    8.952131e-01
  2.497643e+01    8.909250e-01
  2.499231e+01    8.882965e-01
  2.500819e+01    8.973747e-01
  2.502406e+01    9.075350e-01
  2.503994e+01    8.902054e-01
  2.505581e+01    8.787629e-01
  2.507169e+01    8.672641e-01
  2.508756e+01    8.885521e-01
  2.510344e+01    8.945604e-01
  2.511931e+01    8.971524e-01
  2.513519e+01    8.991948e-01
  2.515107e+01    9.141837e-01
  2.516694e+01    9.047764e-01
  2.518282e+01    9.132373e-01
  2.519869e+01    9.167734e-01
  2.521457e+01    9.019035e-01
  2.523044e+01    9.326012e-01
  2.524632e+01    9.384859e-01
  2.526219e+01    9.538534e-01
  2.527807e+01    9.664717e-01
  2.529395e+01    9.591857e-01
  2.530982e+01    9.571580e-01
  2.532570e+01    9.603525e-01
  2.534157e+01    9.664146e-01
  2.535745e+01    9.755211e-01
  2.537332e+01    9.673466e-01
  2.538920e+01    9.693373e-01
  2.540507e+01    9.981697e-01
  2.542095e+01    1.017388e+00
  2.543683e+01    1.026653e+00
  2.545270e+01    1.014570e+00
  2.546858e+01    1.013750e+00
  2.548445e+01    1.036610e+00
  2.550033e+01    1.069819e+00
  2.551620e+01    1.097183e+00
  2.553208e+01    1.106477e+00
  2.554795e+01    1.129740e+00
  2.556383e+01    1.110665e+00
  2.557971e+01    1.136522e+00
  2.559558e+01    1.186828e+00
  2.561146e+01    1.226309e+00
  2.562733e+01    1.263114e+00
  2.564321e+01    1.293349e+00
  2.565908e+01    1.365377e+00
  2.567496e+01    1.417206e+00
  2.569083e+01    1.482743e+00
  2.570671e+01    1.582143e+00
  2.572259e+01    1.716004e+00
  2.573846e+01    1.845961e+00
  2.575434e+01    2.005920e+00
  2.577021e+01    2.247304e+00
  2.578609e+01    2.493411e+00
  2.580196e+01    2.834250e+00
  2.581784e+01    3.195561e+00
  2.583371e+01    3.609858e+00
  2.584959e+01    4.116461e+00
  2.586547e+01    4.627091e+00
  2.588134e+01    5.290110e+00
  2.589722e+01    5.836607e+00
  2.591309e+01    6.318112e+00
  2.592897e+01    6.719933e+00
  2.594484e+01    7.009373e+00
  2.596072e+01    7.101964e+00
  2.597660e+01    6.957407e+00
  2.599247e+01    6.532958e+00
  2.600835e+01    5.928125e+00
  2.602422e+01    5.267554e+00
  2.604010e+01    4.565729e+00
  2.605597e+01    3.934649e+00
  2.607185e+01    3.410463e+00
  2.608772e+01    3.014863e+00
  2.610360e+01    2.646570e+00
  2.611948e+01    2.350949e+00
  2.613535e+01    2.125884e+00
  2.615123e+01    1.897334e+00
  2.616710e+01    1.741100e+00
  2.618298e+01    1.629427e+00
  2.619885e+01    1.545393e+00
  2.621473e+01    1.457266e+00
  2.623060e+01    1.408566e+00
  2.624648e+01    1.338963e+00
  2.626236e+01    1.297433e+00
  2.627823e+01    1.217920e+00
  2.629411e+01    1.207140e+00
  2.630998e+01    1.172633e+00
  2.632586e+01    1.168354e+00
  2.634173e+01    1.134222e+00
  2.635761e+01    1.095508e+00
  2.637348e+01    1.078517e+00
  2.638936e+01    1.078515e+00
  2.640524e+01    1.046298e+00
  2.642111e+01    1.022447e+00
  2.643699e+01    1.016381e+00
  2.645286e+01    1.027621e+00
  2.646874e+01    1.023558e+00
  2.648461e+01    9.880509e-01
  2.650049e+01    9.868799e-01
  2.651636e+01    1.009395e+00
  2.653224e+01    1.012727e+00
  2.654812e+01    1.010214e+00
  2.656399e+01    1.001692e+00
  2.657987e+01    9.891476e-01
  2.659574e+01    9.663153e-01
  2.661162e+01    9.894381e-01
  2.662749e+01    9.693537e-01
  2.664337e+01    9.788102e-01
  2.665924e+01    9.709293e-01
  2.667512e+01    9.541509e-01
  2.669100e+01    9.521133e-01
  2.670687e+01    9.641703e-01
  2.672275e+01    9.723955e-01
  2.673862e+01    9.687074e-01
  2.675450e+01    9.594267e-01
  2.677037e+01    9.673643e-01
  2.678625e+01    9.633474e-01
  2.680212e+01    9.551485e-01
  2.681800e+01    9.830567e-01
  2.683388e+01    9.604034e-01
  2.684975e+01    9.737851e-01
  2.686563e+01    9.998705e-01
  2.688150e+01    9.933656e-01
  2.689738e+01    9.884043e-01
  2.691325e+01    1.009918e+00
  2.692913e+01    1.008034e+00
  2.694501e+01    1.025797e+00
  2.696088e+01    1.063133e+00
  2.697676e+01    1.091008e+00
  2.699263e+01    1.080248e+00
  2.700851e+01    1.114298e+00
  2.702438e+01    1.152932e+00
  2.704026e+01    1.191019e+00
  2.705613e+01    1.256782e+00
  2.707201e+01    1.307768e+00
  2.708789e+01    1.403912e+00
  2.710376e+01    1.508476e+00
  2.711964e+01    1.610895e+00
  2.713551e+01    1.718087e+00
  2.715139e+01    1.876367e+00
  2.716726e+01    1.997714e+00
  2.718314e+01    2.073670e+00
  2.719901e+01    2.142125e+00
  2.721489e+01    2.155160e+00
  2.723077e+01    2.144880e+00
  2.724664e+01    2.049937e+00
  2.726252e+01    1.954763e+00
  2.727839e+01    1.834790e+00
  2.729427e+01    1.701108e+00
  2.731014e+01    1.568156e+00
  2.732602e+01    1.454370e+00
  2.734189e+01    1.360401e+00
  2.735777e+01    1.271958e+00
  2.737365e+01    1.186761e+00
  2.738952e+01    1.143371e+00
  2.740540e+01    1.108549e+00
  2.742127e+01    1.079711e+00
  2.743715e+01    1.048709e+00
  2.745302e+01    1.040627e+00
  2.746890e+01    1.029297e+00
  2.748477e+01    9.854862e-01
  2.750065e+01    9.741945e-01
  2.751653e+01    9.725052e-01
  2.753240e+01    9.585749e-01
  2.754828e+01    9.440032e-01
  2.756415e+01    9.417471e-01
  2.758003e+01    9.453771e-01
  2.759590e+01    9.368266e-01
  2.761178e+01    9.000036e-01
  2.762765e+01    9.298430e-01
  2.764353e+01    9.202718e-01
  2.765941e+01    9.039475e-01
  2.767528e+01    8.870336e-01
  2.769116e+01    8.891470e-01
  2.770703e+01    9.211407e-01
  2.772291e+01    8.942654e-01
  2.773878e+01    8.977202e-01
  2.775466e+01    9.136195e-01
  2.777054e+01    8.840485e-01
  2.778641e+01    8.597805e-01
  2.780229e+01    8.766635e-01
  2.781816e+01    8.861135e-01
  2.783404e+01    8.797689e-01
  2.784991e+01    8.725271e-01
  2.786579e+01    8.848941e-01
  2.788166e+01    9.138395e-01
  2.789754e+01    8.957203e-01
  2.791342e+01    9.130177e-01
  2.792929e+01    8.893046e-01
  2.794517e+01    8.702248e-01
  2.796104e+01    8.879877e-01
  2.797692e+01    8.581381e-01
  2.799279e+01    8.753987e-01
  2.800867e+01    8.593296e-01
  2.802454e+01    8.512863e-01
  2.804042e+01    8.592432e-01
  2.805630e+01    8.529723e-01
  2.807217e+01    8.813909e-01
  2.808805e+01    8.747159e-01
  2.810392e+01    8.508890e-01
  2.811980e+01    8.461190e-01
  2.813567e+01    8.478810e-01
  2.815155e+01    8.715522e-01
  2.816742e+01    8.755044e-01
  2.818330e+01    8.340909e-01
  2.819918e+01    8.311058e-01
  2.821505e+01    8.503695e-01
  2.823093e+01    8.537561e-01
  2.824680e+01    8.559449e-01
  2.826268e+01    8.627182e-01
  2.827855e+01    8.544587e-01
  2.829443e+01    8.685332e-01
  2.831030e+01    8.575401e-01
  2.832618e+01    8.664030e-01
  2.834206e+01    8.536059e-01
  2.835793e+01    8.525570e-01
  2.837381e+01    8.521153e-01
  2.838968e+01    8.663836e-01
  2.840556e+01    8.562897e-01
  2.842143e+01    8.406973e-01
  2.843731e+01    8.477937e-01
  2.845318e+01    8.535562e-01
  2.846906e+01    8.586169e-01
  2.848494e+01    8.443463e-01
  2.850081e+01    8.691637e-01
  2.851669e+01    8.491360e-01
  2.853256e+01    8.275549e-01
  2.854844e+01    8.216040e-01
  2.856431e+01    8.341909e-01
  2.858019e+01    8.400769e-01
  2.859606e+01    8.585441e-01
  2.861194e+01    8.484313e-01
  2.862782e+01    8.304760e-01
  2.864369e+01    8.459875e-01
  2.865957e+01    8.052496e-01
  2.867544e+01    8.153042e-01
  2.869132e+01    8.179708e-01
  2.870719e+01    8.223718e-01
  2.872307e+01    8.270546e-01
  2.873895e+01    8.320177e-01
  2.875482e+01    8.436602e-01
  2.877070e+01    8.174000e-01
  2.878657e+01    8.097655e-01
  2.880245e+01    8.167866e-01
  2.881832e+01    8.213113e-01
  2.883420e+01    8.263944e-01
  2.885007e+01    8.132965e-01
  2.886595e+01    8.180940e-01
  2.888183e+01    8.187116e-01
  2.889770e+01    8.197662e-01
  2.891358e+01    8.405666e-01
  2.892945e+01    8.148263e-01
  2.894533e+01    8.209615e-01
  2.896120e+01    8.224406e-01
  2.897708e+01    8.087900e-01
  2.899295e+01    8.355929e-01
  2.900883e+01    8.417512e-01
  2.902471e+01    8.203249e-01
  2.904058e+01    8.247199e-01
  2.905646e+01    8.171741e-01
  2.907233e+01    8.147581e-01
  2.908821e+01    8.135460e-01
  2.910408e+01    8.491673e-01
  2.911996e+01    8.186115e-01
  2.913583e+01    8.170934e-01
  2.915171e+01    8.027014e-01
  2.916759e+01    7.899821e-01
  2.918346e+01    7.831030e-01
  2.919934e+01    7.917721e-01
  2.921521e+01    8.027442e-01
  2.923109e+01    7.941952e-01
  2.924696e+01    7.999015e-01
  2.926284e+01    8.194060e-01
  2.927871e+01    8.156843e-01
  2.929459e+01    8.234931e-01
  2.931047e+01    8.187295e-01
  2.932634e+01    8.170586e-01
  2.934222e+01    7.853184e-01
  2.935809e+01    7.932336e-01
  2.937397e+01    7.924569e-01
  2.938984e+01    7.958679e-01
  2.940572e+01    7.943953e-01
  2.942159e+01    8.158400e-01
  2.943747e+01    8.264098e-01
  2.945335e+01    8.011701e-01
  2.946922e+01    8.007579e-01
  2.948510e+01    8.161980e-01
  2.950097e+01    8.149409e-01
  2.951685e+01    8.096616e-01
  2.953272e+01    8.256740e-01
  2.954860e+01    8.130284e-01
  2.956447e+01    8.077502e-01
  2.958035e+01    8.166155e-01
  2.959623e+01    8.296988e-01
  2.961210e+01    8.182626e-01
  2.962798e+01    8.181297e-01
  2.964385e+01    8.075882e-01
  2.965973e+01    7.984041e-01
  2.967560e+01    7.757272e-01
  2.969148e+01    7.782895e-01
  2.970736e+01    7.941580e-01
  2.972323e+01    7.937139e-01
  2.973911e+01    8.140369e-01
  2.975498e+01    7.922236e-01
  2.977086e+01    7.810339e-01
  2.978673e+01    7.799993e-01
  2.980261e+01    7.776818e-01
  2.981848e+01    7.960430e-01
  2.983436e+01    7.823679e-01
  2.985024e+01    7.904993e-01
  2.986611e+01    8.009386e-01
  2.988199e+01    8.118182e-01
  2.989786e+01    7.950183e-01
  2.991374e+01    8.053736e-01
  2.992961e+01    8.176650e-01
  2.994549e+01    7.984415e-01
  2.996136e+01    7.825530e-01
  2.997724e+01    7.864243e-01
  2.999312e+01    7.990448e-01
  3.000899e+01    8.218831e-01
  3.002487e+01    8.301305e-01
  3.004074e+01    8.044222e-01
  3.005662e+01    8.104071e-01
  3.007249e+01    8.252500e-01
  3.008837e+01    8.145193e-01
  3.010424e+01    8.058881e-01
  3.012012e+01    8.001078e-01
  3.013600e+01    8.047364e-01
  3.015187e+01    8.007202e-01
  3.016775e+01    7.548023e-01
  3.018362e+01    7.744955e-01
  3.019950e+01    8.034377e-01
  3.021537e+01    7.770215e-01
  3.023125e+01    7.937845e-01
  3.024712e+01    8.016781e-01
  3.026300e+01    8.018223e-01
  3.027888e+01    7.926049e-01
  3.029475e+01    8.118602e-01
  3.031063e+01    7.966192e-01
  3.032650e+01    7.632738e-01
  3.034238e+01    7.789968e-01
  3.035825e+01    8.007832e-01
  3.037413e+01    7.754152e-01
  3.039000e+01    7.934889e-01
  3.040588e+01    7.835556e-01
  3.042176e+01    7.821661e-01
  3.043763e+01    7.798886e-01
  3.045351e+01    7.711139e-01
  3.046938e+01    7.826517e-01
  3.048526e+01    7.870278e-01
  3.050113e+01    7.737601e-01
  3.051701e+01    8.012409e-01
  3.053288e+01    8.024216e-01
  3.054876e+01    7.855666e-01
  3.056464e+01    7.798828e-01
  3.058051e+01    8.057260e-01
  3.059639e+01    7.963206e-01
  3.061226e+01    7.959182e-01
  3.062814e+01    7.901763e-01
  3.064401e+01    7.772539e-01
  3.065989e+01    7.731103e-01
  3.067577e+01    7.845885e-01
  3.069164e+01    7.669094e-01
  3.070752e+01    7.795538e-01
  3.072339e+01    7.757345e-01
  3.073927e+01    7.815071e-01
  3.075514e+01    7.813975e-01
  3.077102e+01    7.940499e-01
  3.078689e+01    8.056211e-01
  3.080277e+01    7.969620e-01
  3.081865e+01    7.768802e-01
  3.083452e+01    7.703217e-01
  3.085040e+01    7.703500e-01
  3.086627e+01    7.908621e-01
  3.088215e+01    8.041921e-01
  3.089802e+01    7.967535e-01
  3.091390e+01    7.751588e-01
  3.092977e+01    7.885234e-01
  3.094565e+01    7.869166e-01
  3.096153e+01    7.752821e-01
  3.097740e+01    7.967881e-01
  3.099328e+01    8.081237e-01
  3.100915e+01    8.055593e-01
  3.102503e+01    8.050632e-01
  3.104090e+01    7.787905e-01
  3.105678e+01    7.642197e-01
  3.107265e+01    7.851915e-01
  3.108853e+01    8.110996e-01
  3.110441e+01    7.881486e-01
  3.112028e+01    7.739885e-01
  3.113616e+01    7.767392e-01
  3.115203e+01    7.821689e-01
  3.116791e+01    7.950234e-01
  3.118378e+01    7.981121e-01
  3.119966e+01    7.936230e-01
  3.121553e+01    7.983518e-01
  3.123141e+01    7.952307e-01
  3.124729e+01    7.839485e-01
  3.126316e+01    7.979770e-01
  3.127904e+01    8.077170e-01
  3.129491e+01    8.001379e-01
  3.131079e+01    7.857603e-01
  3.132666e+01    7.873095e-01
  3.134254e+01    8.064847e-01
  3.135841e+01    8.016569e-01
  3.137429e+01    8.094004e-01
  3.139017e+01    8.018695e-01
  3.140604e+01    7.955708e-01
  3.142192e+01    8.051404e-01
  3.143779e+01    8.115584e-01
  3.145367e+01    8.130085e-01
  3.146954e+01    7.996644e-01
  3.148542e+01    8.108745e-01
  3.150129e+01    8.430315e-01
  3.151717e+01    8.322951e-01
  3.153305e+01    8.325406e-01
  3.154892e+01    8.692230e-01
  3.156480e+01    8.781469e-01
  3.158067e+01    8.982708e-01
  3.159655e+01    8.965656e-01
  3.161242e+01    8.915294e-01
  3.162830e+01    8.980310e-01
  3.164418e+01    9.221248e-01
  3.166005e+01    9.436189e-01
  3.167593e+01    9.774016e-01
  3.169180e+01    9.728717e-01
  3.170768e+01    1.011115e+00
  3.172355e+01    1.048209e+00
  3.173943e+01    1.116880e+00
  3.175530e+01    1.166760e+00
  3.177118e+01    1.253186e+00
  3.178706e+01    1.351846e+00
  3.180293e+01    1.463964e+00
  3.181881e+01    1.581766e+00
  3.183468e+01    1.727437e+00
  3.185056e+01    1.855108e+00
  3.186643e+01    1.954601e+00
  3.188231e+01    2.027472e+00
  3.189818e+01    2.061587e+00
  3.191406e+01    2.056094e+00
  3.192994e+01    2.042029e+00
  3.194581e+01    1.954403e+00
  3.196169e+01    1.860011e+00
  3.197756e+01    1.687966e+00
  3.199344e+01    1.506542e+00
  3.200931e+01    1.384914e+00
  3.202519e+01    1.297969e+00
  3.204106e+01    1.265241e+00
  3.205694e+01    1.168562e+00
  3.207282e+01    1.081296e+00
  3.208869e+01    1.025502e+00
  3.210457e+01    9.965888e-01
  3.212044e+01    1.011056e+00
  3.213632e+01    9.506885e-01
  3.215219e+01    9.198849e-01
  3.216807e+01    8.968389e-01
  3.218394e+01    8.698284e-01
  3.219982e+01    8.531827e-01
  3.221570e+01    8.419189e-01
  3.223157e+01    8.559605e-01
  3.224745e+01    8.224053e-01
  3.226332e+01    8.282671e-01
  3.227920e+01    8.285916e-01
  3.229507e+01    8.090962e-01
  3.231095e+01    7.914266e-01
  3.232682e+01    7.844810e-01
  3.234270e+01    8.052877e-01
  3.235858e+01    8.135393e-01
  3.237445e+01    7.946452e-01
  3.239033e+01    8.042935e-01
  3.240620e+01    8.022485e-01
  3.242208e+01    7.599941e-01
  3.243795e+01    7.679220e-01
  3.245383e+01    7.802048e-01
  3.246970e+01    7.734780e-01
  3.248558e+01    8.085821e-01
  3.250146e+01    7.885740e-01
  3.251733e+01    7.756555e-01
  3.253321e+01    7.737795e-01
  3.254908e+01    7.958387e-01
