# == pyFAI calibration ==
# Distance Sample to Detector: 0.3999999939076516 m
# PONI: 9.750e-02, 1.135e-01 m
# Rotations: -0.000175 0.000000 -0.000000 rad
# 
# == Fit2d calibration ==
# Distance Sample-beamCenter: 400.000 mm
# Center: x=1514.000, y=1300.000 pix
# Tilt: 0.010 deg  TiltPlanRot: 0.010 deg
# 
# Detector Detector	 Spline= None	 PixelSize= 7.500e-05, 7.500e-05 m
#    Detector has a mask: False 
#    Detector has a dark current: False 
#    detector has a flat field: False 
# 
# Wavelength: 6.888e-11 m
# Mask applied: user provided
# Dark current applied: False
# Flat field applied: False
# Polarization factor: 0.99
# Normalization factor: 1.0
# --> /home/myspot/data/2024_07_Rosario/Ru-CGO-ex/2024-07-27_003_Ru-CGO-ex_Reaction_dwell_000023_data_000120.dat
#       q_nm^-1             I 
  2.003187e-02    0.000000e+00
  3.590745e-02    1.058695e-01
  5.178302e-02    1.655832e-01
  6.765859e-02    1.433632e-01
  8.353417e-02    1.400117e-01
  9.940974e-02    3.960410e-02
  1.152853e-01    5.198106e-02
  1.311609e-01    7.913395e-02
  1.470365e-01    6.700265e-03
  1.629120e-01    3.038792e-02
  1.787876e-01    1.797042e-03
  1.946632e-01    1.098463e-02
  2.105388e-01    3.719848e-02
  2.264143e-01    3.587987e-02
  2.422899e-01    5.163159e-02
  2.581655e-01    3.470505e-02
  2.740411e-01    3.872972e-02
  2.899166e-01    2.912064e-02
  3.057922e-01    4.629171e-02
  3.216678e-01    3.799375e-02
  3.375433e-01    4.991864e-02
  3.534189e-01    4.215618e-02
  3.692945e-01    6.477815e-02
  3.851701e-01    4.477294e-02
  4.010456e-01    2.514761e-02
  4.169212e-01    3.141159e-02
  4.327968e-01    3.441531e-02
  4.486724e-01    6.498119e-02
  4.645479e-01    4.265846e-02
  4.804235e-01    3.202543e-02
  4.962991e-01    3.260883e-02
  5.121747e-01    4.608007e-02
  5.280502e-01    5.673594e-02
  5.439258e-01    5.436987e-02
  5.598014e-01    6.639180e-02
  5.756770e-01    4.428100e-02
  5.915525e-01    1.319412e-02
  6.074281e-01    2.593832e-02
  6.233037e-01    2.126499e-02
  6.391793e-01    1.597253e-02
  6.550548e-01    1.714428e-02
  6.709304e-01    3.863023e-02
  6.868060e-01    7.631213e-02
  7.026815e-01    7.767373e-02
  7.185571e-01    4.266366e-02
  7.344327e-01    4.188338e-02
  7.503083e-01    6.973817e-02
  7.661838e-01    6.378314e-02
  7.820594e-01    8.426130e-02
  7.979350e-01    1.300473e-01
  8.138106e-01    2.139488e-01
  8.296861e-01    2.686124e-01
  8.455617e-01    3.518733e-01
  8.614373e-01    4.216995e-01
  8.773129e-01    5.728321e-01
  8.931884e-01    6.383303e-01
  9.090640e-01    7.224371e-01
  9.249396e-01    7.787191e-01
  9.408152e-01    7.537325e-01
  9.566907e-01    8.269839e-01
  9.725663e-01    8.955250e-01
  9.884419e-01    1.058339e+00
  1.004317e+00    1.223243e+00
  1.020193e+00    1.292205e+00
  1.036069e+00    1.347034e+00
  1.051944e+00    1.353039e+00
  1.067820e+00    1.559502e+00
  1.083695e+00    1.578695e+00
  1.099571e+00    1.526496e+00
  1.115446e+00    1.583298e+00
  1.131322e+00    1.660335e+00
  1.147198e+00    1.725129e+00
  1.163073e+00    1.592756e+00
  1.178949e+00    1.634782e+00
  1.194824e+00    1.874123e+00
  1.210700e+00    2.063538e+00
  1.226575e+00    2.283833e+00
  1.242451e+00    2.371031e+00
  1.258327e+00    2.436047e+00
  1.274202e+00    2.544759e+00
  1.290078e+00    2.763361e+00
  1.305953e+00    2.651090e+00
  1.321829e+00    2.675630e+00
  1.337705e+00    2.859284e+00
  1.353580e+00    2.903750e+00
  1.369456e+00    2.815540e+00
  1.385331e+00    2.746820e+00
  1.401207e+00    2.819116e+00
  1.417082e+00    2.836122e+00
  1.432958e+00    3.006667e+00
  1.448834e+00    2.947222e+00
  1.464709e+00    2.935287e+00
  1.480585e+00    3.124003e+00
  1.496460e+00    3.216908e+00
  1.512336e+00    3.150689e+00
  1.528211e+00    3.147368e+00
  1.544087e+00    3.328276e+00
  1.559963e+00    3.310506e+00
  1.575838e+00    3.135682e+00
  1.591714e+00    3.063892e+00
  1.607589e+00    3.073753e+00
  1.623465e+00    3.089849e+00
  1.639340e+00    3.103375e+00
  1.655216e+00    3.093210e+00
  1.671092e+00    3.081581e+00
  1.686967e+00    3.138616e+00
  1.702843e+00    3.107651e+00
  1.718718e+00    3.095185e+00
  1.734594e+00    3.090526e+00
  1.750469e+00    3.192678e+00
  1.766345e+00    3.155257e+00
  1.782221e+00    3.070184e+00
  1.798096e+00    2.999041e+00
  1.813972e+00    3.081589e+00
  1.829847e+00    3.212050e+00
  1.845723e+00    3.002018e+00
  1.861598e+00    3.046893e+00
  1.877474e+00    3.118612e+00
  1.893350e+00    3.008360e+00
  1.909225e+00    2.961585e+00
  1.925101e+00    2.990302e+00
  1.940976e+00    3.102431e+00
  1.956852e+00    3.160310e+00
  1.972727e+00    3.080070e+00
  1.988603e+00    2.991312e+00
  2.004479e+00    3.053367e+00
  2.020354e+00    3.030463e+00
  2.036230e+00    3.085992e+00
  2.052105e+00    3.084062e+00
  2.067981e+00    3.019750e+00
  2.083856e+00    3.031148e+00
  2.099732e+00    3.124987e+00
  2.115608e+00    3.085589e+00
  2.131483e+00    3.112089e+00
  2.147359e+00    3.153035e+00
  2.163234e+00    3.176399e+00
  2.179110e+00    3.146311e+00
  2.194985e+00    3.128909e+00
  2.210861e+00    3.171930e+00
  2.226737e+00    3.103630e+00
  2.242612e+00    3.149021e+00
  2.258488e+00    3.107654e+00
  2.274363e+00    3.044705e+00
  2.290239e+00    3.025004e+00
  2.306115e+00    3.158841e+00
  2.321990e+00    3.238277e+00
  2.337866e+00    3.212012e+00
  2.353741e+00    3.149061e+00
  2.369617e+00    3.113998e+00
  2.385492e+00    3.138719e+00
  2.401368e+00    3.183088e+00
  2.417244e+00    3.187186e+00
  2.433119e+00    3.202063e+00
  2.448995e+00    3.078383e+00
  2.464870e+00    3.086269e+00
  2.480746e+00    3.180720e+00
  2.496621e+00    3.201343e+00
  2.512497e+00    3.196630e+00
  2.528373e+00    3.259041e+00
  2.544248e+00    3.250429e+00
  2.560124e+00    3.189575e+00
  2.575999e+00    3.272838e+00
  2.591875e+00    3.228550e+00
  2.607750e+00    3.203041e+00
  2.623626e+00    3.207562e+00
  2.639502e+00    3.190040e+00
  2.655377e+00    3.175025e+00
  2.671253e+00    3.185716e+00
  2.687128e+00    3.264796e+00
  2.703004e+00    3.274936e+00
  2.718879e+00    3.286508e+00
  2.734755e+00    3.243023e+00
  2.750631e+00    3.329801e+00
  2.766506e+00    3.359509e+00
  2.782382e+00    3.356041e+00
  2.798257e+00    3.341095e+00
  2.814133e+00    3.359486e+00
  2.830008e+00    3.242680e+00
  2.845884e+00    3.253790e+00
  2.861760e+00    3.297291e+00
  2.877635e+00    3.268418e+00
  2.893511e+00    3.252876e+00
  2.909386e+00    3.338279e+00
  2.925262e+00    3.421270e+00
  2.941137e+00    3.269723e+00
  2.957013e+00    3.260648e+00
  2.972889e+00    3.348934e+00
  2.988764e+00    3.376166e+00
  3.004640e+00    3.344235e+00
  3.020515e+00    3.319915e+00
  3.036391e+00    3.312826e+00
  3.052266e+00    3.307564e+00
  3.068142e+00    3.339428e+00
  3.084018e+00    3.351159e+00
  3.099893e+00    3.333122e+00
  3.115769e+00    3.241343e+00
  3.131644e+00    3.273893e+00
  3.147520e+00    3.312367e+00
  3.163395e+00    3.365964e+00
  3.179271e+00    3.323217e+00
  3.195147e+00    3.365337e+00
  3.211022e+00    3.375167e+00
  3.226898e+00    3.422486e+00
  3.242773e+00    3.461322e+00
  3.258649e+00    3.312210e+00
  3.274525e+00    3.424883e+00
  3.290400e+00    3.448857e+00
  3.306276e+00    3.402786e+00
  3.322151e+00    3.418735e+00
  3.338027e+00    3.469384e+00
  3.353902e+00    3.355497e+00
  3.369778e+00    3.347191e+00
  3.385654e+00    3.404993e+00
  3.401529e+00    3.419762e+00
  3.417405e+00    3.449596e+00
  3.433280e+00    3.544482e+00
  3.449156e+00    3.408258e+00
  3.465031e+00    3.397204e+00
  3.480907e+00    3.401292e+00
  3.496783e+00    3.447584e+00
  3.512658e+00    3.438653e+00
  3.528534e+00    3.534955e+00
  3.544409e+00    3.642864e+00
  3.560285e+00    3.449709e+00
  3.576160e+00    3.439415e+00
  3.592036e+00    3.433099e+00
  3.607912e+00    3.505131e+00
  3.623787e+00    3.447675e+00
  3.639663e+00    3.487716e+00
  3.655538e+00    3.410394e+00
  3.671414e+00    3.429259e+00
  3.687289e+00    3.456972e+00
  3.703165e+00    3.521722e+00
  3.719041e+00    3.586768e+00
  3.734916e+00    3.483061e+00
  3.750792e+00    3.529827e+00
  3.766667e+00    3.441588e+00
  3.782543e+00    3.518075e+00
  3.798418e+00    3.539445e+00
  3.814294e+00    3.456960e+00
  3.830170e+00    3.510599e+00
  3.846045e+00    3.550015e+00
  3.861921e+00    3.505747e+00
  3.877796e+00    3.521662e+00
  3.893672e+00    3.556175e+00
  3.909547e+00    3.471069e+00
  3.925423e+00    3.508480e+00
  3.941299e+00    3.624203e+00
  3.957174e+00    3.651430e+00
  3.973050e+00    3.532329e+00
  3.988925e+00    3.487777e+00
  4.004801e+00    3.542774e+00
  4.020676e+00    3.571245e+00
  4.036552e+00    3.571041e+00
  4.052428e+00    3.479337e+00
  4.068303e+00    3.460482e+00
  4.084179e+00    3.533740e+00
  4.100054e+00    3.553932e+00
  4.115930e+00    3.489318e+00
  4.131806e+00    3.448151e+00
  4.147681e+00    3.576043e+00
  4.163557e+00    3.637849e+00
  4.179432e+00    3.556078e+00
  4.195308e+00    3.562400e+00
  4.211183e+00    3.582238e+00
  4.227059e+00    3.499821e+00
  4.242935e+00    3.508906e+00
  4.258810e+00    3.538947e+00
  4.274686e+00    3.496279e+00
  4.290561e+00    3.642217e+00
  4.306437e+00    3.618809e+00
  4.322312e+00    3.529377e+00
  4.338188e+00    3.523812e+00
  4.354064e+00    3.461129e+00
  4.369939e+00    3.544445e+00
  4.385815e+00    3.536848e+00
  4.401690e+00    3.556922e+00
  4.417566e+00    3.509691e+00
  4.433441e+00    3.581279e+00
  4.449317e+00    3.718238e+00
  4.465193e+00    3.668034e+00
  4.481068e+00    3.582653e+00
  4.496944e+00    3.520254e+00
  4.512819e+00    3.524059e+00
  4.528695e+00    3.603384e+00
  4.544570e+00    3.645509e+00
  4.560446e+00    3.588991e+00
  4.576322e+00    3.541426e+00
  4.592197e+00    3.524434e+00
  4.608073e+00    3.627677e+00
  4.623948e+00    3.551375e+00
  4.639824e+00    3.509179e+00
  4.655699e+00    3.545463e+00
  4.671575e+00    3.627479e+00
  4.687451e+00    3.616138e+00
  4.703326e+00    3.612874e+00
  4.719202e+00    3.607957e+00
  4.735077e+00    3.658833e+00
  4.750953e+00    3.598701e+00
  4.766828e+00    3.619888e+00
  4.782704e+00    3.731408e+00
  4.798580e+00    3.640476e+00
  4.814455e+00    3.750362e+00
  4.830331e+00    3.654383e+00
  4.846206e+00    3.580234e+00
  4.862082e+00    3.636399e+00
  4.877957e+00    3.650123e+00
  4.893833e+00    3.714640e+00
  4.909709e+00    3.717128e+00
  4.925584e+00    3.619744e+00
  4.941460e+00    3.536094e+00
  4.957335e+00    3.614336e+00
  4.973211e+00    3.646509e+00
  4.989086e+00    3.661945e+00
  5.004962e+00    3.706997e+00
  5.020838e+00    3.670374e+00
  5.036713e+00    3.596055e+00
  5.052589e+00    3.700986e+00
  5.068464e+00    3.622356e+00
  5.084340e+00    3.624290e+00
  5.100216e+00    3.661290e+00
  5.116091e+00    3.648338e+00
  5.131967e+00    3.632499e+00
  5.147842e+00    3.628779e+00
  5.163718e+00    3.667987e+00
  5.179593e+00    3.684791e+00
  5.195469e+00    3.626762e+00
  5.211345e+00    3.577181e+00
  5.227220e+00    3.634661e+00
  5.243096e+00    3.655572e+00
  5.258971e+00    3.602502e+00
  5.274847e+00    3.606567e+00
  5.290722e+00    3.572254e+00
  5.306598e+00    3.645482e+00
  5.322474e+00    3.682568e+00
  5.338349e+00    3.610126e+00
  5.354225e+00    3.624409e+00
  5.370100e+00    3.640946e+00
  5.385976e+00    3.680162e+00
  5.401851e+00    3.715013e+00
  5.417727e+00    3.659587e+00
  5.433603e+00    3.611543e+00
  5.449478e+00    3.687195e+00
  5.465354e+00    3.587594e+00
  5.481229e+00    3.603779e+00
  5.497105e+00    3.603589e+00
  5.512980e+00    3.524974e+00
  5.528856e+00    3.587334e+00
  5.544732e+00    3.638534e+00
  5.560607e+00    3.641825e+00
  5.576483e+00    3.681314e+00
  5.592358e+00    3.681341e+00
  5.608234e+00    3.520775e+00
  5.624109e+00    3.460598e+00
  5.639985e+00    3.550882e+00
  5.655861e+00    3.568157e+00
  5.671736e+00    3.577790e+00
  5.687612e+00    3.592824e+00
  5.703487e+00    3.625788e+00
  5.719363e+00    3.586988e+00
  5.735238e+00    3.544343e+00
  5.751114e+00    3.568932e+00
  5.766990e+00    3.623026e+00
  5.782865e+00    3.578765e+00
  5.798741e+00    3.534992e+00
  5.814616e+00    3.547285e+00
  5.830492e+00    3.451592e+00
  5.846367e+00    3.542842e+00
  5.862243e+00    3.564880e+00
  5.878119e+00    3.435275e+00
  5.893994e+00    3.479196e+00
  5.909870e+00    3.509063e+00
  5.925745e+00    3.535722e+00
  5.941621e+00    3.543822e+00
  5.957497e+00    3.491764e+00
  5.973372e+00    3.493138e+00
  5.989248e+00    3.569227e+00
  6.005123e+00    3.565509e+00
  6.020999e+00    3.509553e+00
  6.036874e+00    3.463772e+00
  6.052750e+00    3.462713e+00
  6.068626e+00    3.554139e+00
  6.084501e+00    3.562528e+00
  6.100377e+00    3.564988e+00
  6.116252e+00    3.579203e+00
  6.132128e+00    3.608246e+00
  6.148003e+00    3.514033e+00
  6.163879e+00    3.570621e+00
  6.179755e+00    3.534288e+00
  6.195630e+00    3.541184e+00
  6.211506e+00    3.564888e+00
  6.227381e+00    3.573840e+00
  6.243257e+00    3.599200e+00
  6.259132e+00    3.568773e+00
  6.275008e+00    3.512702e+00
  6.290884e+00    3.547104e+00
  6.306759e+00    3.546551e+00
  6.322635e+00    3.583854e+00
  6.338510e+00    3.523144e+00
  6.354386e+00    3.522113e+00
  6.370261e+00    3.541541e+00
  6.386137e+00    3.529300e+00
  6.402013e+00    3.538796e+00
  6.417888e+00    3.580102e+00
  6.433764e+00    3.613785e+00
  6.449639e+00    3.540744e+00
  6.465515e+00    3.518489e+00
  6.481390e+00    3.582413e+00
  6.497266e+00    3.516512e+00
  6.513142e+00    3.539454e+00
  6.529017e+00    3.567712e+00
  6.544893e+00    3.575512e+00
  6.560768e+00    3.563431e+00
  6.576644e+00    3.598501e+00
  6.592519e+00    3.545856e+00
  6.608395e+00    3.534688e+00
  6.624271e+00    3.574473e+00
  6.640146e+00    3.539938e+00
  6.656022e+00    3.475395e+00
  6.671897e+00    3.506265e+00
  6.687773e+00    3.500118e+00
  6.703648e+00    3.538540e+00
  6.719524e+00    3.545023e+00
  6.735400e+00    3.561848e+00
  6.751275e+00    3.605943e+00
  6.767151e+00    3.510323e+00
  6.783026e+00    3.512899e+00
  6.798902e+00    3.563677e+00
  6.814777e+00    3.498080e+00
  6.830653e+00    3.501078e+00
  6.846529e+00    3.494777e+00
  6.862404e+00    3.516598e+00
  6.878280e+00    3.574564e+00
  6.894155e+00    3.514370e+00
  6.910031e+00    3.541025e+00
  6.925907e+00    3.607093e+00
  6.941782e+00    3.596553e+00
  6.957658e+00    3.528434e+00
  6.973533e+00    3.601823e+00
  6.989409e+00    3.617939e+00
  7.005284e+00    3.545488e+00
  7.021160e+00    3.548895e+00
  7.037036e+00    3.554498e+00
  7.052911e+00    3.510211e+00
  7.068787e+00    3.508024e+00
  7.084662e+00    3.493469e+00
  7.100538e+00    3.502527e+00
  7.116413e+00    3.491217e+00
  7.132289e+00    3.506570e+00
  7.148165e+00    3.535122e+00
  7.164040e+00    3.533266e+00
  7.179916e+00    3.518208e+00
  7.195791e+00    3.524099e+00
  7.211667e+00    3.547352e+00
  7.227542e+00    3.530700e+00
  7.243418e+00    3.533985e+00
  7.259294e+00    3.538963e+00
  7.275169e+00    3.490313e+00
  7.291045e+00    3.485758e+00
  7.306920e+00    3.486246e+00
  7.322796e+00    3.554623e+00
  7.338671e+00    3.526641e+00
  7.354547e+00    3.473860e+00
  7.370423e+00    3.447638e+00
  7.386298e+00    3.466730e+00
  7.402174e+00    3.465462e+00
  7.418049e+00    3.539272e+00
  7.433925e+00    3.517171e+00
  7.449800e+00    3.482250e+00
  7.465676e+00    3.509462e+00
  7.481552e+00    3.582296e+00
  7.497427e+00    3.617537e+00
  7.513303e+00    3.538698e+00
  7.529178e+00    3.420107e+00
  7.545054e+00    3.470237e+00
  7.560929e+00    3.492806e+00
  7.576805e+00    3.419979e+00
  7.592681e+00    3.470965e+00
  7.608556e+00    3.499120e+00
  7.624432e+00    3.491492e+00
  7.640307e+00    3.449177e+00
  7.656183e+00    3.530343e+00
  7.672058e+00    3.448430e+00
  7.687934e+00    3.432143e+00
  7.703810e+00    3.408462e+00
  7.719685e+00    3.412728e+00
  7.735561e+00    3.449567e+00
  7.751436e+00    3.474844e+00
  7.767312e+00    3.464540e+00
  7.783187e+00    3.430776e+00
  7.799063e+00    3.441080e+00
  7.814939e+00    3.445836e+00
  7.830814e+00    3.444462e+00
  7.846690e+00    3.476472e+00
  7.862565e+00    3.504744e+00
  7.878441e+00    3.460351e+00
  7.894317e+00    3.454849e+00
  7.910192e+00    3.384739e+00
  7.926068e+00    3.338553e+00
  7.941943e+00    3.341000e+00
  7.957819e+00    3.396307e+00
  7.973694e+00    3.416391e+00
  7.989570e+00    3.430898e+00
  8.005446e+00    3.510784e+00
  8.021321e+00    3.474449e+00
  8.037197e+00    3.395063e+00
  8.053072e+00    3.400418e+00
  8.068948e+00    3.332176e+00
  8.084823e+00    3.356826e+00
  8.100699e+00    3.446204e+00
  8.116575e+00    3.420677e+00
  8.132450e+00    3.503016e+00
  8.148326e+00    3.468624e+00
  8.164201e+00    3.465203e+00
  8.180077e+00    3.432964e+00
  8.195952e+00    3.379847e+00
  8.211828e+00    3.431730e+00
  8.227704e+00    3.495018e+00
  8.243579e+00    3.420863e+00
  8.259455e+00    3.452929e+00
  8.275330e+00    3.423211e+00
  8.291206e+00    3.420378e+00
  8.307081e+00    3.415016e+00
  8.322957e+00    3.426269e+00
  8.338833e+00    3.356878e+00
  8.354708e+00    3.371896e+00
  8.370584e+00    3.347295e+00
  8.386459e+00    3.375273e+00
  8.402335e+00    3.407666e+00
  8.418210e+00    3.416848e+00
  8.434086e+00    3.337702e+00
  8.449962e+00    3.359771e+00
  8.465837e+00    3.380237e+00
  8.481713e+00    3.347203e+00
  8.497588e+00    3.341309e+00
  8.513464e+00    3.327898e+00
  8.529339e+00    3.397923e+00
  8.545215e+00    3.379769e+00
  8.561091e+00    3.332358e+00
  8.576966e+00    3.349672e+00
  8.592842e+00    3.393429e+00
  8.608717e+00    3.315423e+00
  8.624593e+00    3.301347e+00
  8.640468e+00    3.324298e+00
  8.656344e+00    3.337818e+00
  8.672220e+00    3.360369e+00
  8.688095e+00    3.341770e+00
  8.703971e+00    3.304234e+00
  8.719846e+00    3.381934e+00
  8.735722e+00    3.375728e+00
  8.751598e+00    3.398328e+00
  8.767473e+00    3.385503e+00
  8.783349e+00    3.296959e+00
  8.799224e+00    3.277233e+00
  8.815100e+00    3.366987e+00
  8.830975e+00    3.318931e+00
  8.846851e+00    3.275540e+00
  8.862727e+00    3.296504e+00
  8.878602e+00    3.285664e+00
  8.894478e+00    3.276004e+00
  8.910353e+00    3.298478e+00
  8.926229e+00    3.368541e+00
  8.942104e+00    3.404320e+00
  8.957980e+00    3.320316e+00
  8.973856e+00    3.319807e+00
  8.989731e+00    3.339718e+00
  9.005607e+00    3.313848e+00
  9.021482e+00    3.305502e+00
  9.037358e+00    3.284799e+00
  9.053233e+00    3.292936e+00
  9.069109e+00    3.245133e+00
  9.084985e+00    3.326531e+00
  9.100860e+00    3.341444e+00
  9.116736e+00    3.278109e+00
  9.132611e+00    3.265880e+00
  9.148487e+00    3.276404e+00
  9.164362e+00    3.238666e+00
  9.180238e+00    3.292050e+00
  9.196114e+00    3.273931e+00
  9.211989e+00    3.248429e+00
  9.227865e+00    3.220246e+00
  9.243740e+00    3.271944e+00
  9.259616e+00    3.329594e+00
  9.275491e+00    3.304720e+00
  9.291367e+00    3.258982e+00
  9.307243e+00    3.202674e+00
  9.323118e+00    3.206164e+00
  9.338994e+00    3.242572e+00
  9.354869e+00    3.226694e+00
  9.370745e+00    3.195814e+00
  9.386620e+00    3.204282e+00
  9.402496e+00    3.202018e+00
  9.418372e+00    3.205359e+00
  9.434247e+00    3.235726e+00
  9.450123e+00    3.212502e+00
  9.465998e+00    3.178005e+00
  9.481874e+00    3.155460e+00
  9.497749e+00    3.219260e+00
  9.513625e+00    3.198919e+00
  9.529501e+00    3.210362e+00
  9.545376e+00    3.223977e+00
  9.561252e+00    3.198858e+00
  9.577127e+00    3.147607e+00
  9.593003e+00    3.212932e+00
  9.608878e+00    3.249144e+00
  9.624754e+00    3.230792e+00
  9.640630e+00    3.226795e+00
  9.656505e+00    3.232544e+00
  9.672381e+00    3.090352e+00
  9.688256e+00    3.114853e+00
  9.704132e+00    3.183437e+00
  9.720008e+00    3.220340e+00
  9.735883e+00    3.215903e+00
  9.751759e+00    3.189931e+00
  9.767634e+00    3.187339e+00
  9.783510e+00    3.136236e+00
  9.799385e+00    3.122224e+00
  9.815261e+00    3.192099e+00
  9.831137e+00    3.100195e+00
  9.847012e+00    3.101178e+00
  9.862888e+00    3.124235e+00
  9.878763e+00    3.131616e+00
  9.894639e+00    3.100821e+00
  9.910514e+00    3.136056e+00
  9.926390e+00    3.192476e+00
  9.942266e+00    3.138401e+00
  9.958141e+00    3.079767e+00
  9.974017e+00    3.076126e+00
  9.989892e+00    3.098951e+00
  1.000577e+01    3.128474e+00
  1.002164e+01    3.141537e+00
  1.003752e+01    3.136527e+00
  1.005339e+01    3.141953e+00
  1.006927e+01    3.116782e+00
  1.008515e+01    3.065485e+00
  1.010102e+01    3.063426e+00
  1.011690e+01    3.066284e+00
  1.013277e+01    3.117501e+00
  1.014865e+01    3.079349e+00
  1.016452e+01    3.016697e+00
  1.018040e+01    3.066879e+00
  1.019627e+01    3.094611e+00
  1.021215e+01    3.081078e+00
  1.022803e+01    3.093313e+00
  1.024390e+01    3.062550e+00
  1.025978e+01    3.021657e+00
  1.027565e+01    3.016081e+00
  1.029153e+01    3.011963e+00
  1.030740e+01    3.049683e+00
  1.032328e+01    3.048744e+00
  1.033915e+01    3.063777e+00
  1.035503e+01    3.105203e+00
  1.037091e+01    3.075885e+00
  1.038678e+01    3.093947e+00
  1.040266e+01    3.046568e+00
  1.041853e+01    3.047917e+00
  1.043441e+01    3.037102e+00
  1.045028e+01    2.971702e+00
  1.046616e+01    3.003236e+00
  1.048204e+01    3.003087e+00
  1.049791e+01    2.979457e+00
  1.051379e+01    3.034214e+00
  1.052966e+01    3.007443e+00
  1.054554e+01    3.018379e+00
  1.056141e+01    3.004119e+00
  1.057729e+01    3.001878e+00
  1.059316e+01    3.018305e+00
  1.060904e+01    3.026367e+00
  1.062492e+01    3.041866e+00
  1.064079e+01    2.998258e+00
  1.065667e+01    2.987252e+00
  1.067254e+01    2.984512e+00
  1.068842e+01    2.979561e+00
  1.070429e+01    2.982159e+00
  1.072017e+01    2.945614e+00
  1.073604e+01    2.908771e+00
  1.075192e+01    2.962908e+00
  1.076780e+01    2.987478e+00
  1.078367e+01    2.966787e+00
  1.079955e+01    2.974757e+00
  1.081542e+01    2.983937e+00
  1.083130e+01    2.941597e+00
  1.084717e+01    2.895601e+00
  1.086305e+01    2.926686e+00
  1.087892e+01    2.904140e+00
  1.089480e+01    2.956940e+00
  1.091068e+01    2.904475e+00
  1.092655e+01    2.886748e+00
  1.094243e+01    2.934539e+00
  1.095830e+01    2.912192e+00
  1.097418e+01    2.923884e+00
  1.099005e+01    2.900138e+00
  1.100593e+01    2.895972e+00
  1.102180e+01    2.882792e+00
  1.103768e+01    2.903367e+00
  1.105356e+01    2.886808e+00
  1.106943e+01    2.858950e+00
  1.108531e+01    2.867064e+00
  1.110118e+01    2.917183e+00
  1.111706e+01    2.901979e+00
  1.113293e+01    2.894682e+00
  1.114881e+01    2.853965e+00
  1.116468e+01    2.895385e+00
  1.118056e+01    2.889822e+00
  1.119644e+01    2.865807e+00
  1.121231e+01    2.890716e+00
  1.122819e+01    2.845528e+00
  1.124406e+01    2.838270e+00
  1.125994e+01    2.834142e+00
  1.127581e+01    2.804165e+00
  1.129169e+01    2.812173e+00
  1.130756e+01    2.875191e+00
  1.132344e+01    2.841322e+00
  1.133932e+01    2.825675e+00
  1.135519e+01    2.823303e+00
  1.137107e+01    2.756597e+00
  1.138694e+01    2.816040e+00
  1.140282e+01    2.787227e+00
  1.141869e+01    2.818862e+00
  1.143457e+01    2.789488e+00
  1.145045e+01    2.777818e+00
  1.146632e+01    2.830119e+00
  1.148220e+01    2.841554e+00
  1.149807e+01    2.797756e+00
  1.151395e+01    2.823916e+00
  1.152982e+01    2.803873e+00
  1.154570e+01    2.758519e+00
  1.156157e+01    2.747705e+00
  1.157745e+01    2.808944e+00
  1.159333e+01    2.807524e+00
  1.160920e+01    2.797659e+00
  1.162508e+01    2.757826e+00
  1.164095e+01    2.782827e+00
  1.165683e+01    2.734965e+00
  1.167270e+01    2.791031e+00
  1.168858e+01    2.793788e+00
  1.170445e+01    2.821457e+00
  1.172033e+01    2.730100e+00
  1.173621e+01    2.696138e+00
  1.175208e+01    2.714409e+00
  1.176796e+01    2.730001e+00
  1.178383e+01    2.718036e+00
  1.179971e+01    2.750827e+00
  1.181558e+01    2.767183e+00
  1.183146e+01    2.773705e+00
  1.184733e+01    2.725910e+00
  1.186321e+01    2.735904e+00
  1.187909e+01    2.720114e+00
  1.189496e+01    2.713965e+00
  1.191084e+01    2.736345e+00
  1.192671e+01    2.686386e+00
  1.194259e+01    2.721137e+00
  1.195846e+01    2.666948e+00
  1.197434e+01    2.678519e+00
  1.199021e+01    2.726836e+00
  1.200609e+01    2.734740e+00
  1.202197e+01    2.695394e+00
  1.203784e+01    2.713401e+00
  1.205372e+01    2.719477e+00
  1.206959e+01    2.709600e+00
  1.208547e+01    2.682165e+00
  1.210134e+01    2.664651e+00
  1.211722e+01    2.683371e+00
  1.213309e+01    2.678625e+00
  1.214897e+01    2.670269e+00
  1.216485e+01    2.686031e+00
  1.218072e+01    2.695142e+00
  1.219660e+01    2.693031e+00
  1.221247e+01    2.735560e+00
  1.222835e+01    2.706412e+00
  1.224422e+01    2.718990e+00
  1.226010e+01    2.686865e+00
  1.227597e+01    2.604650e+00
  1.229185e+01    2.651499e+00
  1.230773e+01    2.649627e+00
  1.232360e+01    2.680159e+00
  1.233948e+01    2.695532e+00
  1.235535e+01    2.652541e+00
  1.237123e+01    2.685619e+00
  1.238710e+01    2.656801e+00
  1.240298e+01    2.668885e+00
  1.241886e+01    2.709824e+00
  1.243473e+01    2.740661e+00
  1.245061e+01    2.706802e+00
  1.246648e+01    2.664621e+00
  1.248236e+01    2.725580e+00
  1.249823e+01    2.745658e+00
  1.251411e+01    2.701859e+00
  1.252998e+01    2.685699e+00
  1.254586e+01    2.751455e+00
  1.256174e+01    2.699116e+00
  1.257761e+01    2.711929e+00
  1.259349e+01    2.745939e+00
  1.260936e+01    2.739043e+00
  1.262524e+01    2.757851e+00
  1.264111e+01    2.758070e+00
  1.265699e+01    2.758136e+00
  1.267286e+01    2.755244e+00
  1.268874e+01    2.801989e+00
  1.270462e+01    2.840010e+00
  1.272049e+01    2.809462e+00
  1.273637e+01    2.851666e+00
  1.275224e+01    2.920347e+00
  1.276812e+01    2.946675e+00
  1.278399e+01    2.955582e+00
  1.279987e+01    3.010233e+00
  1.281574e+01    3.047048e+00
  1.283162e+01    3.086652e+00
  1.284750e+01    3.173923e+00
  1.286337e+01    3.281011e+00
  1.287925e+01    3.387908e+00
  1.289512e+01    3.505717e+00
  1.291100e+01    3.657132e+00
  1.292687e+01    3.869542e+00
  1.294275e+01    4.089027e+00
  1.295862e+01    4.406819e+00
  1.297450e+01    4.818943e+00
  1.299038e+01    5.301001e+00
  1.300625e+01    5.864079e+00
  1.302213e+01    6.739020e+00
  1.303800e+01    7.679932e+00
  1.305388e+01    8.807816e+00
  1.306975e+01    1.016639e+01
  1.308563e+01    1.151749e+01
  1.310150e+01    1.270017e+01
  1.311738e+01    1.369106e+01
  1.313326e+01    1.481165e+01
  1.314913e+01    1.579892e+01
  1.316501e+01    1.620915e+01
  1.318088e+01    1.637411e+01
  1.319676e+01    1.587034e+01
  1.321263e+01    1.439614e+01
  1.322851e+01    1.253962e+01
  1.324438e+01    1.072106e+01
  1.326026e+01    9.100253e+00
  1.327614e+01    7.792611e+00
  1.329201e+01    6.741202e+00
  1.330789e+01    5.944824e+00
  1.332376e+01    5.333394e+00
  1.333964e+01    4.826317e+00
  1.335551e+01    4.434583e+00
  1.337139e+01    4.044740e+00
  1.338727e+01    3.767254e+00
  1.340314e+01    3.612902e+00
  1.341902e+01    3.443952e+00
  1.343489e+01    3.360615e+00
  1.345077e+01    3.218483e+00
  1.346664e+01    3.095645e+00
  1.348252e+01    3.004500e+00
  1.349839e+01    2.937926e+00
  1.351427e+01    2.917212e+00
  1.353015e+01    2.865823e+00
  1.354602e+01    2.820682e+00
  1.356190e+01    2.766760e+00
  1.357777e+01    2.764786e+00
  1.359365e+01    2.719301e+00
  1.360952e+01    2.650918e+00
  1.362540e+01    2.604972e+00
  1.364127e+01    2.630485e+00
  1.365715e+01    2.591568e+00
  1.367303e+01    2.576148e+00
  1.368890e+01    2.588411e+00
  1.370478e+01    2.599466e+00
  1.372065e+01    2.520397e+00
  1.373653e+01    2.530163e+00
  1.375240e+01    2.542774e+00
  1.376828e+01    2.543736e+00
  1.378415e+01    2.510567e+00
  1.380003e+01    2.485162e+00
  1.381591e+01    2.458382e+00
  1.383178e+01    2.434100e+00
  1.384766e+01    2.409328e+00
  1.386353e+01    2.463843e+00
  1.387941e+01    2.436325e+00
  1.389528e+01    2.439065e+00
  1.391116e+01    2.454303e+00
  1.392703e+01    2.431551e+00
  1.394291e+01    2.361197e+00
  1.395879e+01    2.400193e+00
  1.397466e+01    2.415513e+00
  1.399054e+01    2.428431e+00
  1.400641e+01    2.394949e+00
  1.402229e+01    2.319910e+00
  1.403816e+01    2.334106e+00
  1.405404e+01    2.291063e+00
  1.406991e+01    2.323435e+00
  1.408579e+01    2.327667e+00
  1.410167e+01    2.309407e+00
  1.411754e+01    2.338612e+00
  1.413342e+01    2.302784e+00
  1.414929e+01    2.337510e+00
  1.416517e+01    2.325571e+00
  1.418104e+01    2.297863e+00
  1.419692e+01    2.327848e+00
  1.421279e+01    2.282647e+00
  1.422867e+01    2.270938e+00
  1.424455e+01    2.282546e+00
  1.426042e+01    2.258354e+00
  1.427630e+01    2.260062e+00
  1.429217e+01    2.235363e+00
  1.430805e+01    2.285197e+00
  1.432392e+01    2.276635e+00
  1.433980e+01    2.235737e+00
  1.435568e+01    2.242938e+00
  1.437155e+01    2.224163e+00
  1.438743e+01    2.195525e+00
  1.440330e+01    2.213752e+00
  1.441918e+01    2.228381e+00
  1.443505e+01    2.195904e+00
  1.445093e+01    2.223386e+00
  1.446680e+01    2.210623e+00
  1.448268e+01    2.234402e+00
  1.449856e+01    2.219308e+00
  1.451443e+01    2.212940e+00
  1.453031e+01    2.229712e+00
  1.454618e+01    2.245841e+00
  1.456206e+01    2.211553e+00
  1.457793e+01    2.240813e+00
  1.459381e+01    2.222553e+00
  1.460968e+01    2.226238e+00
  1.462556e+01    2.281547e+00
  1.464144e+01    2.213299e+00
  1.465731e+01    2.243667e+00
  1.467319e+01    2.224704e+00
  1.468906e+01    2.227908e+00
  1.470494e+01    2.198779e+00
  1.472081e+01    2.224515e+00
  1.473669e+01    2.207695e+00
  1.475256e+01    2.183711e+00
  1.476844e+01    2.167009e+00
  1.478432e+01    2.190241e+00
  1.480019e+01    2.210518e+00
  1.481607e+01    2.210880e+00
  1.483194e+01    2.228323e+00
  1.484782e+01    2.208570e+00
  1.486369e+01    2.175006e+00
  1.487957e+01    2.198838e+00
  1.489544e+01    2.209059e+00
  1.491132e+01    2.233694e+00
  1.492720e+01    2.286071e+00
  1.494307e+01    2.336964e+00
  1.495895e+01    2.344457e+00
  1.497482e+01    2.382430e+00
  1.499070e+01    2.436338e+00
  1.500657e+01    2.498341e+00
  1.502245e+01    2.536198e+00
  1.503832e+01    2.611305e+00
  1.505420e+01    2.732874e+00
  1.507008e+01    2.858443e+00
  1.508595e+01    2.985995e+00
  1.510183e+01    3.287791e+00
  1.511770e+01    3.529448e+00
  1.513358e+01    3.778341e+00
  1.514945e+01    4.152977e+00
  1.516533e+01    4.560525e+00
  1.518120e+01    4.875195e+00
  1.519708e+01    5.139688e+00
  1.521296e+01    5.430096e+00
  1.522883e+01    5.657557e+00
  1.524471e+01    5.785088e+00
  1.526058e+01    5.740303e+00
  1.527646e+01    5.720372e+00
  1.529233e+01    5.470608e+00
  1.530821e+01    5.162127e+00
  1.532409e+01    4.693645e+00
  1.533996e+01    4.151628e+00
  1.535584e+01    3.746305e+00
  1.537171e+01    3.428096e+00
  1.538759e+01    3.123176e+00
  1.540346e+01    2.943001e+00
  1.541934e+01    2.750927e+00
  1.543521e+01    2.559095e+00
  1.545109e+01    2.483678e+00
  1.546697e+01    2.450507e+00
  1.548284e+01    2.366278e+00
  1.549872e+01    2.311635e+00
  1.551459e+01    2.262973e+00
  1.553047e+01    2.184672e+00
  1.554634e+01    2.187165e+00
  1.556222e+01    2.159343e+00
  1.557809e+01    2.163287e+00
  1.559397e+01    2.100327e+00
  1.560985e+01    2.080894e+00
  1.562572e+01    2.062270e+00
  1.564160e+01    2.005806e+00
  1.565747e+01    1.982587e+00
  1.567335e+01    2.038571e+00
  1.568922e+01    2.006426e+00
  1.570510e+01    2.014405e+00
  1.572097e+01    2.033344e+00
  1.573685e+01    2.000308e+00
  1.575273e+01    1.975150e+00
  1.576860e+01    1.970705e+00
  1.578448e+01    1.957944e+00
  1.580035e+01    1.989782e+00
  1.581623e+01    1.945846e+00
  1.583210e+01    1.893616e+00
  1.584798e+01    1.868932e+00
  1.586385e+01    1.885215e+00
  1.587973e+01    1.889394e+00
  1.589561e+01    1.874859e+00
  1.591148e+01    1.876312e+00
  1.592736e+01    1.885512e+00
  1.594323e+01    1.924310e+00
  1.595911e+01    1.910329e+00
  1.597498e+01    1.864398e+00
  1.599086e+01    1.891472e+00
  1.600673e+01    1.889001e+00
  1.602261e+01    1.901208e+00
  1.603849e+01    1.871858e+00
  1.605436e+01    1.860226e+00
  1.607024e+01    1.872852e+00
  1.608611e+01    1.853855e+00
  1.610199e+01    1.861997e+00
  1.611786e+01    1.851298e+00
  1.613374e+01    1.801171e+00
  1.614961e+01    1.827011e+00
  1.616549e+01    1.855077e+00
  1.618137e+01    1.790856e+00
  1.619724e+01    1.797622e+00
  1.621312e+01    1.826286e+00
  1.622899e+01    1.831764e+00
  1.624487e+01    1.840671e+00
  1.626074e+01    1.854459e+00
  1.627662e+01    1.818301e+00
  1.629250e+01    1.800627e+00
  1.630837e+01    1.794119e+00
  1.632425e+01    1.806026e+00
  1.634012e+01    1.835528e+00
  1.635600e+01    1.782935e+00
  1.637187e+01    1.781828e+00
  1.638775e+01    1.820930e+00
  1.640362e+01    1.791337e+00
  1.641950e+01    1.763206e+00
  1.643538e+01    1.790602e+00
  1.645125e+01    1.789356e+00
  1.646713e+01    1.771501e+00
  1.648300e+01    1.764131e+00
  1.649888e+01    1.755883e+00
  1.651475e+01    1.762056e+00
  1.653063e+01    1.786447e+00
  1.654650e+01    1.744299e+00
  1.656238e+01    1.719852e+00
  1.657826e+01    1.724385e+00
  1.659413e+01    1.758354e+00
  1.661001e+01    1.762814e+00
  1.662588e+01    1.756879e+00
  1.664176e+01    1.747570e+00
  1.665763e+01    1.756131e+00
  1.667351e+01    1.758432e+00
  1.668938e+01    1.700814e+00
  1.670526e+01    1.705295e+00
  1.672114e+01    1.699747e+00
  1.673701e+01    1.692058e+00
  1.675289e+01    1.707386e+00
  1.676876e+01    1.699467e+00
  1.678464e+01    1.719389e+00
  1.680051e+01    1.720049e+00
  1.681639e+01    1.693176e+00
  1.683226e+01    1.683894e+00
  1.684814e+01    1.665835e+00
  1.686402e+01    1.693417e+00
  1.687989e+01    1.691540e+00
  1.689577e+01    1.709429e+00
  1.691164e+01    1.717454e+00
  1.692752e+01    1.674044e+00
  1.694339e+01    1.680735e+00
  1.695927e+01    1.671805e+00
  1.697514e+01    1.675225e+00
  1.699102e+01    1.691614e+00
  1.700690e+01    1.661620e+00
  1.702277e+01    1.671750e+00
  1.703865e+01    1.662689e+00
  1.705452e+01    1.644550e+00
  1.707040e+01    1.644749e+00
  1.708627e+01    1.643283e+00
  1.710215e+01    1.645239e+00
  1.711802e+01    1.613988e+00
  1.713390e+01    1.632679e+00
  1.714978e+01    1.621488e+00
  1.716565e+01    1.633668e+00
  1.718153e+01    1.647038e+00
  1.719740e+01    1.621326e+00
  1.721328e+01    1.620302e+00
  1.722915e+01    1.589468e+00
  1.724503e+01    1.608829e+00
  1.726091e+01    1.624242e+00
  1.727678e+01    1.629559e+00
  1.729266e+01    1.643314e+00
  1.730853e+01    1.608824e+00
  1.732441e+01    1.601424e+00
  1.734028e+01    1.588707e+00
  1.735616e+01    1.575137e+00
  1.737203e+01    1.603058e+00
  1.738791e+01    1.596491e+00
  1.740379e+01    1.599517e+00
  1.741966e+01    1.583503e+00
  1.743554e+01    1.597928e+00
  1.745141e+01    1.581437e+00
  1.746729e+01    1.621576e+00
  1.748316e+01    1.606931e+00
  1.749904e+01    1.590597e+00
  1.751491e+01    1.584698e+00
  1.753079e+01    1.557119e+00
  1.754667e+01    1.543691e+00
  1.756254e+01    1.578067e+00
  1.757842e+01    1.594706e+00
  1.759429e+01    1.567983e+00
  1.761017e+01    1.602952e+00
  1.762604e+01    1.584303e+00
  1.764192e+01    1.573640e+00
  1.765779e+01    1.562776e+00
  1.767367e+01    1.559462e+00
  1.768955e+01    1.534582e+00
  1.770542e+01    1.524837e+00
  1.772130e+01    1.537534e+00
  1.773717e+01    1.556371e+00
  1.775305e+01    1.546491e+00
  1.776892e+01    1.544211e+00
  1.778480e+01    1.526629e+00
  1.780067e+01    1.559761e+00
  1.781655e+01    1.555091e+00
  1.783243e+01    1.596664e+00
  1.784830e+01    1.551648e+00
  1.786418e+01    1.541507e+00
  1.788005e+01    1.529896e+00
  1.789593e+01    1.506030e+00
  1.791180e+01    1.510543e+00
  1.792768e+01    1.528156e+00
  1.794355e+01    1.515204e+00
  1.795943e+01    1.497734e+00
  1.797531e+01    1.496257e+00
  1.799118e+01    1.529693e+00
  1.800706e+01    1.503685e+00
  1.802293e+01    1.478284e+00
  1.803881e+01    1.465926e+00
  1.805468e+01    1.514834e+00
  1.807056e+01    1.500931e+00
  1.808643e+01    1.522208e+00
  1.810231e+01    1.499881e+00
  1.811819e+01    1.520465e+00
  1.813406e+01    1.532526e+00
  1.814994e+01    1.517392e+00
  1.816581e+01    1.500704e+00
  1.818169e+01    1.483671e+00
  1.819756e+01    1.470630e+00
  1.821344e+01    1.496616e+00
  1.822932e+01    1.489630e+00
  1.824519e+01    1.491503e+00
  1.826107e+01    1.484540e+00
  1.827694e+01    1.471768e+00
  1.829282e+01    1.483402e+00
  1.830869e+01    1.503122e+00
  1.832457e+01    1.485638e+00
  1.834044e+01    1.509311e+00
  1.835632e+01    1.485138e+00
  1.837220e+01    1.467261e+00
  1.838807e+01    1.480585e+00
  1.840395e+01    1.495574e+00
  1.841982e+01    1.441164e+00
  1.843570e+01    1.438250e+00
  1.845157e+01    1.459157e+00
  1.846745e+01    1.432920e+00
  1.848332e+01    1.448054e+00
  1.849920e+01    1.428060e+00
  1.851508e+01    1.461795e+00
  1.853095e+01    1.471043e+00
  1.854683e+01    1.448551e+00
  1.856270e+01    1.472804e+00
  1.857858e+01    1.432659e+00
  1.859445e+01    1.431826e+00
  1.861033e+01    1.434458e+00
  1.862620e+01    1.405754e+00
  1.864208e+01    1.442325e+00
  1.865796e+01    1.444389e+00
  1.867383e+01    1.431778e+00
  1.868971e+01    1.406910e+00
  1.870558e+01    1.393730e+00
  1.872146e+01    1.424893e+00
  1.873733e+01    1.408429e+00
  1.875321e+01    1.393299e+00
  1.876908e+01    1.433216e+00
  1.878496e+01    1.436185e+00
  1.880084e+01    1.398275e+00
  1.881671e+01    1.411517e+00
  1.883259e+01    1.399414e+00
  1.884846e+01    1.407222e+00
  1.886434e+01    1.405304e+00
  1.888021e+01    1.405691e+00
  1.889609e+01    1.407700e+00
  1.891196e+01    1.407201e+00
  1.892784e+01    1.417798e+00
  1.894372e+01    1.392750e+00
  1.895959e+01    1.371703e+00
  1.897547e+01    1.392153e+00
  1.899134e+01    1.413419e+00
  1.900722e+01    1.398781e+00
  1.902309e+01    1.388206e+00
  1.903897e+01    1.380563e+00
  1.905484e+01    1.373858e+00
  1.907072e+01    1.343785e+00
  1.908660e+01    1.320398e+00
  1.910247e+01    1.354459e+00
  1.911835e+01    1.349839e+00
  1.913422e+01    1.336636e+00
  1.915010e+01    1.354868e+00
  1.916597e+01    1.364292e+00
  1.918185e+01    1.370789e+00
  1.919773e+01    1.374012e+00
  1.921360e+01    1.345382e+00
  1.922948e+01    1.350552e+00
  1.924535e+01    1.341394e+00
  1.926123e+01    1.330723e+00
  1.927710e+01    1.347562e+00
  1.929298e+01    1.349414e+00
  1.930885e+01    1.330230e+00
  1.932473e+01    1.344955e+00
  1.934061e+01    1.367485e+00
  1.935648e+01    1.375073e+00
  1.937236e+01    1.368144e+00
  1.938823e+01    1.339134e+00
  1.940411e+01    1.337954e+00
  1.941998e+01    1.348031e+00
  1.943586e+01    1.338943e+00
  1.945173e+01    1.329167e+00
  1.946761e+01    1.288191e+00
  1.948349e+01    1.324606e+00
  1.949936e+01    1.342483e+00
  1.951524e+01    1.337451e+00
  1.953111e+01    1.329973e+00
  1.954699e+01    1.324067e+00
  1.956286e+01    1.351818e+00
  1.957874e+01    1.341263e+00
  1.959461e+01    1.299349e+00
  1.961049e+01    1.304376e+00
  1.962637e+01    1.335749e+00
  1.964224e+01    1.324712e+00
  1.965812e+01    1.314807e+00
  1.967399e+01    1.308737e+00
  1.968987e+01    1.320047e+00
  1.970574e+01    1.312464e+00
  1.972162e+01    1.287078e+00
  1.973749e+01    1.300426e+00
  1.975337e+01    1.317319e+00
  1.976925e+01    1.295821e+00
  1.978512e+01    1.274528e+00
  1.980100e+01    1.302529e+00
  1.981687e+01    1.287519e+00
  1.983275e+01    1.295133e+00
  1.984862e+01    1.278719e+00
  1.986450e+01    1.304719e+00
  1.988037e+01    1.284411e+00
  1.989625e+01    1.300616e+00
  1.991213e+01    1.296493e+00
  1.992800e+01    1.312522e+00
  1.994388e+01    1.292904e+00
  1.995975e+01    1.296533e+00
  1.997563e+01    1.266844e+00
  1.999150e+01    1.274878e+00
  2.000738e+01    1.260807e+00
  2.002325e+01    1.278272e+00
  2.003913e+01    1.317072e+00
  2.005501e+01    1.323988e+00
  2.007088e+01    1.288075e+00
  2.008676e+01    1.279050e+00
  2.010263e+01    1.268985e+00
  2.011851e+01    1.273739e+00
  2.013438e+01    1.259912e+00
  2.015026e+01    1.275928e+00
  2.016614e+01    1.298154e+00
  2.018201e+01    1.260219e+00
  2.019789e+01    1.218212e+00
  2.021376e+01    1.266202e+00
  2.022964e+01    1.278913e+00
  2.024551e+01    1.258562e+00
  2.026139e+01    1.241148e+00
  2.027726e+01    1.234190e+00
  2.029314e+01    1.235464e+00
  2.030902e+01    1.286251e+00
  2.032489e+01    1.277991e+00
  2.034077e+01    1.248928e+00
  2.035664e+01    1.232860e+00
  2.037252e+01    1.237673e+00
  2.038839e+01    1.229948e+00
  2.040427e+01    1.238326e+00
  2.042014e+01    1.241670e+00
  2.043602e+01    1.243420e+00
  2.045190e+01    1.247354e+00
  2.046777e+01    1.214844e+00
  2.048365e+01    1.228178e+00
  2.049952e+01    1.228885e+00
  2.051540e+01    1.239722e+00
  2.053127e+01    1.231242e+00
  2.054715e+01    1.240279e+00
  2.056302e+01    1.261733e+00
  2.057890e+01    1.248437e+00
  2.059478e+01    1.245258e+00
  2.061065e+01    1.221457e+00
  2.062653e+01    1.238173e+00
  2.064240e+01    1.233155e+00
  2.065828e+01    1.229174e+00
  2.067415e+01    1.256848e+00
  2.069003e+01    1.216345e+00
  2.070590e+01    1.224375e+00
  2.072178e+01    1.236303e+00
  2.073766e+01    1.212084e+00
  2.075353e+01    1.205545e+00
  2.076941e+01    1.180905e+00
  2.078528e+01    1.203549e+00
  2.080116e+01    1.224960e+00
  2.081703e+01    1.215394e+00
  2.083291e+01    1.225564e+00
  2.084878e+01    1.251483e+00
  2.086466e+01    1.224774e+00
  2.088054e+01    1.253272e+00
  2.089641e+01    1.250948e+00
  2.091229e+01    1.222523e+00
  2.092816e+01    1.220145e+00
  2.094404e+01    1.247146e+00
  2.095991e+01    1.244906e+00
  2.097579e+01    1.233453e+00
  2.099166e+01    1.223166e+00
  2.100754e+01    1.234603e+00
  2.102342e+01    1.234489e+00
  2.103929e+01    1.238554e+00
  2.105517e+01    1.209994e+00
  2.107104e+01    1.208448e+00
  2.108692e+01    1.238938e+00
  2.110279e+01    1.249489e+00
  2.111867e+01    1.220067e+00
  2.113455e+01    1.209943e+00
  2.115042e+01    1.207583e+00
  2.116630e+01    1.209930e+00
  2.118217e+01    1.237174e+00
  2.119805e+01    1.252025e+00
  2.121392e+01    1.227729e+00
  2.122980e+01    1.230960e+00
  2.124567e+01    1.224574e+00
  2.126155e+01    1.246647e+00
  2.127743e+01    1.257266e+00
  2.129330e+01    1.258480e+00
  2.130918e+01    1.257962e+00
  2.132505e+01    1.265240e+00
  2.134093e+01    1.270531e+00
  2.135680e+01    1.279660e+00
  2.137268e+01    1.269160e+00
  2.138855e+01    1.286163e+00
  2.140443e+01    1.326105e+00
  2.142031e+01    1.314336e+00
  2.143618e+01    1.331032e+00
  2.145206e+01    1.351528e+00
  2.146793e+01    1.378360e+00
  2.148381e+01    1.400512e+00
  2.149968e+01    1.432750e+00
  2.151556e+01    1.471781e+00
  2.153143e+01    1.486374e+00
  2.154731e+01    1.530798e+00
  2.156319e+01    1.550005e+00
  2.157906e+01    1.611795e+00
  2.159494e+01    1.689091e+00
  2.161081e+01    1.744490e+00
  2.162669e+01    1.852164e+00
  2.164256e+01    1.965633e+00
  2.165844e+01    2.119927e+00
  2.167431e+01    2.318897e+00
  2.169019e+01    2.537126e+00
  2.170607e+01    2.773196e+00
  2.172194e+01    3.120749e+00
  2.173782e+01    3.559288e+00
  2.175369e+01    4.013702e+00
  2.176957e+01    4.604640e+00
  2.178544e+01    5.238474e+00
  2.180132e+01    5.879594e+00
  2.181719e+01    6.515089e+00
  2.183307e+01    7.205653e+00
  2.184895e+01    7.819534e+00
  2.186482e+01    8.380601e+00
  2.188070e+01    8.746551e+00
  2.189657e+01    8.899568e+00
  2.191245e+01    8.845559e+00
  2.192832e+01    8.298261e+00
  2.194420e+01    7.529807e+00
  2.196007e+01    6.538110e+00
  2.197595e+01    5.605281e+00
  2.199183e+01    4.820699e+00
  2.200770e+01    4.165178e+00
  2.202358e+01    3.622397e+00
  2.203945e+01    3.210978e+00
  2.205533e+01    2.821692e+00
  2.207120e+01    2.523356e+00
  2.208708e+01    2.338651e+00
  2.210296e+01    2.141970e+00
  2.211883e+01    1.978775e+00
  2.213471e+01    1.855274e+00
  2.215058e+01    1.775797e+00
  2.216646e+01    1.699071e+00
  2.218233e+01    1.603389e+00
  2.219821e+01    1.526923e+00
  2.221408e+01    1.494439e+00
  2.222996e+01    1.456853e+00
  2.224584e+01    1.390133e+00
  2.226171e+01    1.378509e+00
  2.227759e+01    1.330053e+00
  2.229346e+01    1.330067e+00
  2.230934e+01    1.327606e+00
  2.232521e+01    1.266414e+00
  2.234109e+01    1.246088e+00
  2.235696e+01    1.264282e+00
  2.237284e+01    1.232105e+00
  2.238872e+01    1.221668e+00
  2.240459e+01    1.188139e+00
  2.242047e+01    1.210879e+00
  2.243634e+01    1.205296e+00
  2.245222e+01    1.172902e+00
  2.246809e+01    1.163552e+00
  2.248397e+01    1.168011e+00
  2.249984e+01    1.136896e+00
  2.251572e+01    1.102444e+00
  2.253160e+01    1.116471e+00
  2.254747e+01    1.138454e+00
  2.256335e+01    1.136432e+00
  2.257922e+01    1.120269e+00
  2.259510e+01    1.134141e+00
  2.261097e+01    1.115578e+00
  2.262685e+01    1.081726e+00
  2.264272e+01    1.095928e+00
  2.265860e+01    1.092266e+00
  2.267448e+01    1.082739e+00
  2.269035e+01    1.086542e+00
  2.270623e+01    1.067905e+00
  2.272210e+01    1.077549e+00
  2.273798e+01    1.088310e+00
  2.275385e+01    1.062475e+00
  2.276973e+01    1.061862e+00
  2.278560e+01    1.071055e+00
  2.280148e+01    1.064651e+00
  2.281736e+01    1.055271e+00
  2.283323e+01    1.069494e+00
  2.284911e+01    1.051813e+00
  2.286498e+01    1.054081e+00
  2.288086e+01    1.070931e+00
  2.289673e+01    1.031747e+00
  2.291261e+01    1.018428e+00
  2.292848e+01    1.034747e+00
  2.294436e+01    1.050844e+00
  2.296024e+01    1.038582e+00
  2.297611e+01    1.029740e+00
  2.299199e+01    1.026416e+00
  2.300786e+01    1.026130e+00
  2.302374e+01    1.015201e+00
  2.303961e+01    1.020071e+00
  2.305549e+01    1.002154e+00
  2.307137e+01    1.009164e+00
  2.308724e+01    9.969307e-01
  2.310312e+01    1.001387e+00
  2.311899e+01    1.001457e+00
  2.313487e+01    9.909953e-01
  2.315074e+01    1.007624e+00
  2.316662e+01    1.003618e+00
  2.318249e+01    1.001465e+00
  2.319837e+01    9.895976e-01
  2.321425e+01    9.979920e-01
  2.323012e+01    1.002663e+00
  2.324600e+01    9.872419e-01
  2.326187e+01    9.864300e-01
  2.327775e+01    9.700439e-01
  2.329362e+01    9.584646e-01
  2.330950e+01    9.715910e-01
  2.332537e+01    9.747553e-01
  2.334125e+01    9.736511e-01
  2.335713e+01    9.727299e-01
  2.337300e+01    9.721336e-01
  2.338888e+01    9.590850e-01
  2.340475e+01    9.585881e-01
  2.342063e+01    9.539797e-01
  2.343650e+01    9.693868e-01
  2.345238e+01    9.690078e-01
  2.346825e+01    9.556545e-01
  2.348413e+01    9.670298e-01
  2.350001e+01    9.702324e-01
  2.351588e+01    9.674404e-01
  2.353176e+01    9.574861e-01
  2.354763e+01    9.568815e-01
  2.356351e+01    9.602698e-01
  2.357938e+01    9.678851e-01
  2.359526e+01    9.627914e-01
  2.361113e+01    9.673102e-01
  2.362701e+01    9.773681e-01
  2.364289e+01    9.635561e-01
  2.365876e+01    9.823832e-01
  2.367464e+01    9.473289e-01
  2.369051e+01    9.468081e-01
  2.370639e+01    9.361627e-01
  2.372226e+01    9.167024e-01
  2.373814e+01    9.308352e-01
  2.375401e+01    9.471747e-01
  2.376989e+01    9.268962e-01
  2.378577e+01    9.230357e-01
  2.380164e+01    9.017428e-01
  2.381752e+01    9.027716e-01
  2.383339e+01    9.050964e-01
  2.384927e+01    9.186702e-01
  2.386514e+01    8.943124e-01
  2.388102e+01    8.893414e-01
  2.389689e+01    9.008895e-01
  2.391277e+01    9.158355e-01
  2.392865e+01    9.289787e-01
  2.394452e+01    9.177489e-01
  2.396040e+01    9.069183e-01
  2.397627e+01    8.910545e-01
  2.399215e+01    9.032286e-01
  2.400802e+01    9.099004e-01
  2.402390e+01    9.013665e-01
  2.403978e+01    8.925714e-01
  2.405565e+01    8.885955e-01
  2.407153e+01    8.828208e-01
  2.408740e+01    8.900107e-01
  2.410328e+01    8.908418e-01
  2.411915e+01    9.055198e-01
  2.413503e+01    8.910851e-01
  2.415090e+01    8.694937e-01
  2.416678e+01    8.854641e-01
  2.418266e+01    8.924794e-01
  2.419853e+01    8.687305e-01
  2.421441e+01    8.779679e-01
  2.423028e+01    8.756142e-01
  2.424616e+01    8.788043e-01
  2.426203e+01    9.017541e-01
  2.427791e+01    9.154828e-01
  2.429378e+01    9.165270e-01
  2.430966e+01    8.933127e-01
  2.432554e+01    8.977009e-01
  2.434141e+01    9.100810e-01
  2.435729e+01    8.976582e-01
  2.437316e+01    8.846582e-01
  2.438904e+01    8.728025e-01
  2.440491e+01    8.782482e-01
  2.442079e+01    8.889762e-01
  2.443666e+01    8.984441e-01
  2.445254e+01    9.105083e-01
  2.446842e+01    8.981838e-01
  2.448429e+01    9.161597e-01
  2.450017e+01    9.308188e-01
  2.451604e+01    8.927603e-01
  2.453192e+01    8.970656e-01
  2.454779e+01    8.969223e-01
  2.456367e+01    8.893239e-01
  2.457954e+01    8.824962e-01
  2.459542e+01    8.897724e-01
  2.461130e+01    8.753403e-01
  2.462717e+01    8.865246e-01
  2.464305e+01    8.945677e-01
  2.465892e+01    8.978701e-01
  2.467480e+01    8.932900e-01
  2.469067e+01    8.872358e-01
  2.470655e+01    8.740696e-01
  2.472242e+01    8.863337e-01
  2.473830e+01    9.026744e-01
  2.475418e+01    9.112613e-01
  2.477005e+01    9.004889e-01
  2.478593e+01    9.018648e-01
  2.480180e+01    8.857220e-01
  2.481768e+01    9.093126e-01
  2.483355e+01    9.064845e-01
  2.484943e+01    9.010491e-01
  2.486530e+01    8.888624e-01
  2.488118e+01    8.851402e-01
  2.489706e+01    9.007918e-01
  2.491293e+01    8.714721e-01
  2.492881e+01    8.908876e-01
  2.494468e+01    9.004467e-01
  2.496056e+01    9.061036e-01
  2.497643e+01    9.254467e-01
  2.499231e+01    9.050394e-01
  2.500819e+01    8.869637e-01
  2.502406e+01    8.981296e-01
  2.503994e+01    9.208592e-01
  2.505581e+01    9.038697e-01
  2.507169e+01    9.054524e-01
  2.508756e+01    9.074108e-01
  2.510344e+01    9.080314e-01
  2.511931e+01    9.000338e-01
  2.513519e+01    8.956082e-01
  2.515107e+01    9.015750e-01
  2.516694e+01    9.084904e-01
  2.518282e+01    9.284129e-01
  2.519869e+01    9.479675e-01
  2.521457e+01    9.296531e-01
  2.523044e+01    9.317144e-01
  2.524632e+01    9.073866e-01
  2.526219e+01    9.211053e-01
  2.527807e+01    9.400301e-01
  2.529395e+01    9.327329e-01
  2.530982e+01    9.433360e-01
  2.532570e+01    9.584219e-01
  2.534157e+01    9.546998e-01
  2.535745e+01    9.866729e-01
  2.537332e+01    9.779099e-01
  2.538920e+01    9.994220e-01
  2.540507e+01    9.847169e-01
  2.542095e+01    1.002128e+00
  2.543683e+01    1.025601e+00
  2.545270e+01    1.038276e+00
  2.546858e+01    1.048670e+00
  2.548445e+01    1.046223e+00
  2.550033e+01    1.064279e+00
  2.551620e+01    1.053182e+00
  2.553208e+01    1.073813e+00
  2.554795e+01    1.094812e+00
  2.556383e+01    1.130889e+00
  2.557971e+01    1.148590e+00
  2.559558e+01    1.170594e+00
  2.561146e+01    1.213670e+00
  2.562733e+01    1.276740e+00
  2.564321e+01    1.305464e+00
  2.565908e+01    1.343321e+00
  2.567496e+01    1.403200e+00
  2.569083e+01    1.502668e+00
  2.570671e+01    1.592443e+00
  2.572259e+01    1.697611e+00
  2.573846e+01    1.833856e+00
  2.575434e+01    1.989833e+00
  2.577021e+01    2.192241e+00
  2.578609e+01    2.512134e+00
  2.580196e+01    2.811917e+00
  2.581784e+01    3.178626e+00
  2.583371e+01    3.640588e+00
  2.584959e+01    4.172532e+00
  2.586547e+01    4.638781e+00
  2.588134e+01    5.233821e+00
  2.589722e+01    5.816963e+00
  2.591309e+01    6.364604e+00
  2.592897e+01    6.791226e+00
  2.594484e+01    7.064325e+00
  2.596072e+01    7.129825e+00
  2.597660e+01    6.953850e+00
  2.599247e+01    6.538066e+00
  2.600835e+01    5.979028e+00
  2.602422e+01    5.286312e+00
  2.604010e+01    4.592918e+00
  2.605597e+01    3.923015e+00
  2.607185e+01    3.406263e+00
  2.608772e+01    2.993852e+00
  2.610360e+01    2.603912e+00
  2.611948e+01    2.355336e+00
  2.613535e+01    2.132726e+00
  2.615123e+01    1.960370e+00
  2.616710e+01    1.804278e+00
  2.618298e+01    1.676431e+00
  2.619885e+01    1.568432e+00
  2.621473e+01    1.501358e+00
  2.623060e+01    1.396956e+00
  2.624648e+01    1.331074e+00
  2.626236e+01    1.281756e+00
  2.627823e+01    1.263232e+00
  2.629411e+01    1.230041e+00
  2.630998e+01    1.183653e+00
  2.632586e+01    1.168528e+00
  2.634173e+01    1.122328e+00
  2.635761e+01    1.093075e+00
  2.637348e+01    1.105543e+00
  2.638936e+01    1.052148e+00
  2.640524e+01    1.031618e+00
  2.642111e+01    1.035746e+00
  2.643699e+01    1.025924e+00
  2.645286e+01    1.004176e+00
  2.646874e+01    1.027990e+00
  2.648461e+01    1.009143e+00
  2.650049e+01    9.860498e-01
  2.651636e+01    9.904028e-01
  2.653224e+01    9.943628e-01
  2.654812e+01    9.733408e-01
  2.656399e+01    9.699904e-01
  2.657987e+01    9.713907e-01
  2.659574e+01    1.009543e+00
  2.661162e+01    9.966468e-01
  2.662749e+01    9.906252e-01
  2.664337e+01    9.764968e-01
  2.665924e+01    9.794521e-01
  2.667512e+01    9.633365e-01
  2.669100e+01    9.597850e-01
  2.670687e+01    9.689361e-01
  2.672275e+01    9.826912e-01
  2.673862e+01    9.745152e-01
  2.675450e+01    9.708708e-01
  2.677037e+01    9.861045e-01
  2.678625e+01    9.934360e-01
  2.680212e+01    9.949157e-01
  2.681800e+01    9.792400e-01
  2.683388e+01    9.897467e-01
  2.684975e+01    9.911737e-01
  2.686563e+01    9.737741e-01
  2.688150e+01    9.980316e-01
  2.689738e+01    1.003335e+00
  2.691325e+01    1.012151e+00
  2.692913e+01    1.010574e+00
  2.694501e+01    1.020937e+00
  2.696088e+01    1.037862e+00
  2.697676e+01    1.055622e+00
  2.699263e+01    1.079007e+00
  2.700851e+01    1.093091e+00
  2.702438e+01    1.150194e+00
  2.704026e+01    1.189077e+00
  2.705613e+01    1.251514e+00
  2.707201e+01    1.311338e+00
  2.708789e+01    1.371799e+00
  2.710376e+01    1.486937e+00
  2.711964e+01    1.614896e+00
  2.713551e+01    1.763798e+00
  2.715139e+01    1.852510e+00
  2.716726e+01    1.952511e+00
  2.718314e+01    2.072908e+00
  2.719901e+01    2.171363e+00
  2.721489e+01    2.189141e+00
  2.723077e+01    2.200722e+00
  2.724664e+01    2.090117e+00
  2.726252e+01    1.971928e+00
  2.727839e+01    1.846322e+00
  2.729427e+01    1.720142e+00
  2.731014e+01    1.605023e+00
  2.732602e+01    1.470603e+00
  2.734189e+01    1.372258e+00
  2.735777e+01    1.289907e+00
  2.737365e+01    1.218407e+00
  2.738952e+01    1.181512e+00
  2.740540e+01    1.120610e+00
  2.742127e+01    1.092809e+00
  2.743715e+01    1.057351e+00
  2.745302e+01    1.043597e+00
  2.746890e+01    1.017419e+00
  2.748477e+01    9.971377e-01
  2.750065e+01    9.782760e-01
  2.751653e+01    9.804139e-01
  2.753240e+01    9.719651e-01
  2.754828e+01    9.728969e-01
  2.756415e+01    9.428340e-01
  2.758003e+01    9.452261e-01
  2.759590e+01    9.397669e-01
  2.761178e+01    9.394149e-01
  2.762765e+01    9.022158e-01
  2.764353e+01    9.297949e-01
  2.765941e+01    9.111071e-01
  2.767528e+01    9.203414e-01
  2.769116e+01    9.170764e-01
  2.770703e+01    9.141853e-01
  2.772291e+01    9.197474e-01
  2.773878e+01    8.986310e-01
  2.775466e+01    8.947793e-01
  2.777054e+01    8.923848e-01
  2.778641e+01    8.985842e-01
  2.780229e+01    9.110377e-01
  2.781816e+01    8.792354e-01
  2.783404e+01    8.658894e-01
  2.784991e+01    8.910702e-01
  2.786579e+01    8.732384e-01
  2.788166e+01    8.851231e-01
  2.789754e+01    8.964384e-01
  2.791342e+01    8.825325e-01
  2.792929e+01    8.721127e-01
  2.794517e+01    8.914117e-01
  2.796104e+01    8.691980e-01
  2.797692e+01    8.541414e-01
  2.799279e+01    8.640329e-01
  2.800867e+01    8.496402e-01
  2.802454e+01    8.559793e-01
  2.804042e+01    8.534998e-01
  2.805630e+01    8.701974e-01
  2.807217e+01    8.737647e-01
  2.808805e+01    8.732505e-01
  2.810392e+01    8.740295e-01
  2.811980e+01    8.801701e-01
  2.813567e+01    8.724814e-01
  2.815155e+01    8.661892e-01
  2.816742e+01    8.798266e-01
  2.818330e+01    8.615339e-01
  2.819918e+01    8.482832e-01
  2.821505e+01    8.638262e-01
  2.823093e+01    8.519772e-01
  2.824680e+01    8.589111e-01
  2.826268e+01    8.726591e-01
  2.827855e+01    8.471842e-01
  2.829443e+01    8.659040e-01
  2.831030e+01    8.390906e-01
  2.832618e+01    8.475285e-01
  2.834206e+01    8.546280e-01
  2.835793e+01    8.765202e-01
  2.837381e+01    8.528013e-01
  2.838968e+01    8.761913e-01
  2.840556e+01    8.502115e-01
  2.842143e+01    8.379205e-01
  2.843731e+01    8.547360e-01
  2.845318e+01    8.384727e-01
  2.846906e+01    8.382732e-01
  2.848494e+01    8.607324e-01
  2.850081e+01    8.265978e-01
  2.851669e+01    8.338447e-01
  2.853256e+01    8.538202e-01
  2.854844e+01    8.481333e-01
  2.856431e+01    8.299146e-01
  2.858019e+01    8.158659e-01
  2.859606e+01    8.171689e-01
  2.861194e+01    8.196463e-01
  2.862782e+01    8.517408e-01
  2.864369e+01    8.429418e-01
  2.865957e+01    8.308178e-01
  2.867544e+01    8.271227e-01
  2.869132e+01    8.396773e-01
  2.870719e+01    8.306772e-01
  2.872307e+01    8.249720e-01
  2.873895e+01    8.346409e-01
  2.875482e+01    8.305354e-01
  2.877070e+01    8.237426e-01
  2.878657e+01    8.106211e-01
  2.880245e+01    8.285143e-01
  2.881832e+01    8.318503e-01
  2.883420e+01    8.326986e-01
  2.885007e+01    8.331373e-01
  2.886595e+01    8.228822e-01
  2.888183e+01    8.277562e-01
  2.889770e+01    8.138810e-01
  2.891358e+01    8.003268e-01
  2.892945e+01    8.030502e-01
  2.894533e+01    8.327937e-01
  2.896120e+01    8.348933e-01
  2.897708e+01    8.197522e-01
  2.899295e+01    8.267269e-01
  2.900883e+01    8.065594e-01
  2.902471e+01    8.026588e-01
  2.904058e+01    8.066981e-01
  2.905646e+01    8.129012e-01
  2.907233e+01    8.182470e-01
  2.908821e+01    7.963849e-01
  2.910408e+01    7.978174e-01
  2.911996e+01    8.298182e-01
  2.913583e+01    8.241925e-01
  2.915171e+01    8.165986e-01
  2.916759e+01    8.283973e-01
  2.918346e+01    8.159800e-01
  2.919934e+01    8.071603e-01
  2.921521e+01    7.942789e-01
  2.923109e+01    8.100793e-01
  2.924696e+01    8.075863e-01
  2.926284e+01    7.752227e-01
  2.927871e+01    8.054289e-01
  2.929459e+01    8.018300e-01
  2.931047e+01    8.097872e-01
  2.932634e+01    8.118910e-01
  2.934222e+01    8.193678e-01
  2.935809e+01    7.945346e-01
  2.937397e+01    8.199649e-01
  2.938984e+01    7.867274e-01
  2.940572e+01    7.904136e-01
  2.942159e+01    8.073575e-01
  2.943747e+01    7.972830e-01
  2.945335e+01    7.995402e-01
  2.946922e+01    8.129290e-01
  2.948510e+01    8.033901e-01
  2.950097e+01    8.002808e-01
  2.951685e+01    7.953679e-01
  2.953272e+01    7.950535e-01
  2.954860e+01    7.749680e-01
  2.956447e+01    8.016037e-01
  2.958035e+01    8.244879e-01
  2.959623e+01    8.093997e-01
  2.961210e+01    7.987685e-01
  2.962798e+01    7.937428e-01
  2.964385e+01    7.914222e-01
  2.965973e+01    7.884269e-01
  2.967560e+01    7.920167e-01
  2.969148e+01    8.151600e-01
  2.970736e+01    8.272062e-01
  2.972323e+01    7.976282e-01
  2.973911e+01    7.868411e-01
  2.975498e+01    7.848488e-01
  2.977086e+01    7.903321e-01
  2.978673e+01    8.048040e-01
  2.980261e+01    8.246197e-01
  2.981848e+01    7.970776e-01
  2.983436e+01    8.032785e-01
  2.985024e+01    8.104394e-01
  2.986611e+01    8.044395e-01
  2.988199e+01    8.151301e-01
  2.989786e+01    8.053100e-01
  2.991374e+01    8.005316e-01
  2.992961e+01    8.226400e-01
  2.994549e+01    7.889767e-01
  2.996136e+01    7.840163e-01
  2.997724e+01    8.158163e-01
  2.999312e+01    8.335387e-01
  3.000899e+01    8.087589e-01
  3.002487e+01    8.214082e-01
  3.004074e+01    8.128295e-01
  3.005662e+01    8.014729e-01
  3.007249e+01    8.099011e-01
  3.008837e+01    8.012929e-01
  3.010424e+01    8.159651e-01
  3.012012e+01    8.129216e-01
  3.013600e+01    8.096995e-01
  3.015187e+01    7.989724e-01
  3.016775e+01    7.866794e-01
  3.018362e+01    7.856121e-01
  3.019950e+01    7.747855e-01
  3.021537e+01    7.817511e-01
  3.023125e+01    7.663838e-01
  3.024712e+01    7.648237e-01
  3.026300e+01    7.885289e-01
  3.027888e+01    7.990773e-01
  3.029475e+01    7.945330e-01
  3.031063e+01    7.753087e-01
  3.032650e+01    7.879602e-01
  3.034238e+01    7.939636e-01
  3.035825e+01    7.738649e-01
  3.037413e+01    7.667677e-01
  3.039000e+01    7.869358e-01
  3.040588e+01    7.724701e-01
  3.042176e+01    7.804562e-01
  3.043763e+01    7.749580e-01
  3.045351e+01    7.807273e-01
  3.046938e+01    7.890574e-01
  3.048526e+01    7.977650e-01
  3.050113e+01    7.926478e-01
  3.051701e+01    7.797363e-01
  3.053288e+01    8.011036e-01
  3.054876e+01    7.958088e-01
  3.056464e+01    7.814162e-01
  3.058051e+01    7.857794e-01
  3.059639e+01    7.879045e-01
  3.061226e+01    7.759757e-01
  3.062814e+01    7.898372e-01
  3.064401e+01    7.915848e-01
  3.065989e+01    7.853622e-01
  3.067577e+01    7.715079e-01
  3.069164e+01    7.770460e-01
  3.070752e+01    7.843186e-01
  3.072339e+01    7.860807e-01
  3.073927e+01    7.537039e-01
  3.075514e+01    7.667253e-01
  3.077102e+01    7.778813e-01
  3.078689e+01    7.567960e-01
  3.080277e+01    7.813636e-01
  3.081865e+01    7.697851e-01
  3.083452e+01    7.812943e-01
  3.085040e+01    7.813089e-01
  3.086627e+01    7.816676e-01
  3.088215e+01    7.940304e-01
  3.089802e+01    7.760703e-01
  3.091390e+01    7.625256e-01
  3.092977e+01    7.746281e-01
  3.094565e+01    7.916597e-01
  3.096153e+01    7.628039e-01
  3.097740e+01    7.853669e-01
  3.099328e+01    7.986144e-01
  3.100915e+01    7.940381e-01
  3.102503e+01    7.776375e-01
  3.104090e+01    7.962408e-01
  3.105678e+01    7.960164e-01
  3.107265e+01    7.837800e-01
  3.108853e+01    7.873271e-01
  3.110441e+01    7.854790e-01
  3.112028e+01    7.893351e-01
  3.113616e+01    7.769347e-01
  3.115203e+01    7.872821e-01
  3.116791e+01    7.916312e-01
  3.118378e+01    8.044968e-01
  3.119966e+01    8.099455e-01
  3.121553e+01    8.245367e-01
  3.123141e+01    8.101496e-01
  3.124729e+01    8.046770e-01
  3.126316e+01    8.078765e-01
  3.127904e+01    8.020656e-01
  3.129491e+01    7.919978e-01
  3.131079e+01    7.910932e-01
  3.132666e+01    7.896317e-01
  3.134254e+01    7.854216e-01
  3.135841e+01    7.941955e-01
  3.137429e+01    8.179842e-01
  3.139017e+01    8.216347e-01
  3.140604e+01    8.096420e-01
  3.142192e+01    8.050944e-01
  3.143779e+01    8.134843e-01
  3.145367e+01    8.069648e-01
  3.146954e+01    8.289663e-01
  3.148542e+01    8.322876e-01
  3.150129e+01    8.229965e-01
  3.151717e+01    8.126166e-01
  3.153305e+01    8.574421e-01
  3.154892e+01    8.625706e-01
  3.156480e+01    8.797612e-01
  3.158067e+01    8.807501e-01
  3.159655e+01    8.633603e-01
  3.161242e+01    8.920676e-01
  3.162830e+01    9.055269e-01
  3.164418e+01    9.159831e-01
  3.166005e+01    9.376459e-01
  3.167593e+01    9.546161e-01
  3.169180e+01    9.790268e-01
  3.170768e+01    1.018455e+00
  3.172355e+01    1.080900e+00
  3.173943e+01    1.141871e+00
  3.175530e+01    1.177935e+00
  3.177118e+01    1.262220e+00
  3.178706e+01    1.355724e+00
  3.180293e+01    1.467166e+00
  3.181881e+01    1.564460e+00
  3.183468e+01    1.725822e+00
  3.185056e+01    1.849833e+00
  3.186643e+01    1.965124e+00
  3.188231e+01    2.024834e+00
  3.189818e+01    2.095174e+00
  3.191406e+01    2.094674e+00
  3.192994e+01    2.041356e+00
  3.194581e+01    1.929447e+00
  3.196169e+01    1.827343e+00
  3.197756e+01    1.655642e+00
  3.199344e+01    1.530806e+00
  3.200931e+01    1.424264e+00
  3.202519e+01    1.325696e+00
  3.204106e+01    1.235864e+00
  3.205694e+01    1.167790e+00
  3.207282e+01    1.087868e+00
  3.208869e+01    1.044345e+00
  3.210457e+01    1.024244e+00
  3.212044e+01    9.878134e-01
  3.213632e+01    9.618386e-01
  3.215219e+01    9.372141e-01
  3.216807e+01    8.989726e-01
  3.218394e+01    8.914234e-01
  3.219982e+01    8.684813e-01
  3.221570e+01    8.700911e-01
  3.223157e+01    8.451861e-01
  3.224745e+01    8.288823e-01
  3.226332e+01    8.155129e-01
  3.227920e+01    8.157248e-01
  3.229507e+01    8.118418e-01
  3.231095e+01    8.018185e-01
  3.232682e+01    8.208365e-01
  3.234270e+01    8.233843e-01
  3.235858e+01    8.070830e-01
  3.237445e+01    8.041767e-01
  3.239033e+01    7.997918e-01
  3.240620e+01    7.896149e-01
  3.242208e+01    7.737639e-01
  3.243795e+01    7.749577e-01
  3.245383e+01    7.645406e-01
  3.246970e+01    7.562342e-01
  3.248558e+01    7.671986e-01
  3.250146e+01    7.762222e-01
  3.251733e+01    7.693746e-01
  3.253321e+01    7.871192e-01
  3.254908e+01    7.736268e-01
