# == pyFAI calibration ==
# Distance Sample to Detector: 0.3999999939076516 m
# PONI: 9.750e-02, 1.135e-01 m
# Rotations: -0.000175 0.000000 -0.000000 rad
# 
# == Fit2d calibration ==
# Distance Sample-beamCenter: 400.000 mm
# Center: x=1514.000, y=1300.000 pix
# Tilt: 0.010 deg  TiltPlanRot: 0.010 deg
# 
# Detector Detector	 Spline= None	 PixelSize= 7.500e-05, 7.500e-05 m
#    Detector has a mask: False 
#    Detector has a dark current: False 
#    detector has a flat field: False 
# 
# Wavelength: 6.888e-11 m
# Mask applied: user provided
# Dark current applied: False
# Flat field applied: False
# Polarization factor: 0.99
# Normalization factor: 1.0
# --> /home/myspot/data/2024_07_Rosario/Ru-CGO-ex/2024-07-27_003_Ru-CGO-ex_Reaction_dwell_000023_data_000036.dat
#       q_nm^-1             I 
  2.003187e-02    0.000000e+00
  3.590745e-02    3.427850e-02
  5.178302e-02    9.529690e-02
  6.765859e-02    1.393336e-01
  8.353417e-02    1.373329e-01
  9.940974e-02    7.542086e-02
  1.152853e-01    5.601212e-02
  1.311609e-01    9.776739e-02
  1.470365e-01    1.065547e-01
  1.629120e-01    9.628811e-02
  1.787876e-01    2.968168e-02
  1.946632e-01    4.291363e-02
  2.105388e-01    7.134536e-02
  2.264143e-01    4.447369e-02
  2.422899e-01    2.201815e-02
  2.581655e-01    0.000000e+00
  2.740411e-01    2.446120e-02
  2.899166e-01    3.091295e-02
  3.057922e-01    2.379742e-02
  3.216678e-01    4.943597e-02
  3.375433e-01    4.922249e-02
  3.534189e-01    3.964544e-02
  3.692945e-01    3.505735e-02
  3.851701e-01    1.650912e-02
  4.010456e-01    6.173045e-02
  4.169212e-01    4.781665e-02
  4.327968e-01    2.420691e-02
  4.486724e-01    4.067721e-02
  4.645479e-01    3.031134e-02
  4.804235e-01    2.026092e-02
  4.962991e-01    2.973786e-02
  5.121747e-01    2.181487e-02
  5.280502e-01    4.035365e-02
  5.439258e-01    5.974754e-02
  5.598014e-01    4.158792e-02
  5.756770e-01    4.155223e-02
  5.915525e-01    4.124725e-02
  6.074281e-01    4.307421e-02
  6.233037e-01    5.165049e-02
  6.391793e-01    6.821802e-02
  6.550548e-01    5.402306e-02
  6.709304e-01    3.802884e-02
  6.868060e-01    4.336724e-02
  7.026815e-01    2.745063e-02
  7.185571e-01    3.916945e-02
  7.344327e-01    2.733936e-02
  7.503083e-01    3.778048e-02
  7.661838e-01    6.180795e-02
  7.820594e-01    9.668720e-02
  7.979350e-01    1.696692e-01
  8.138106e-01    2.436858e-01
  8.296861e-01    2.993041e-01
  8.455617e-01    3.301305e-01
  8.614373e-01    4.064654e-01
  8.773129e-01    4.741969e-01
  8.931884e-01    5.683156e-01
  9.090640e-01    6.625822e-01
  9.249396e-01    6.992074e-01
  9.408152e-01    8.252622e-01
  9.566907e-01    8.440610e-01
  9.725663e-01    9.409481e-01
  9.884419e-01    1.167998e+00
  1.004317e+00    1.252231e+00
  1.020193e+00    1.309533e+00
  1.036069e+00    1.375420e+00
  1.051944e+00    1.385543e+00
  1.067820e+00    1.511931e+00
  1.083695e+00    1.505368e+00
  1.099571e+00    1.569058e+00
  1.115446e+00    1.686072e+00
  1.131322e+00    1.663977e+00
  1.147198e+00    1.677321e+00
  1.163073e+00    1.641885e+00
  1.178949e+00    1.597581e+00
  1.194824e+00    1.662200e+00
  1.210700e+00    1.935385e+00
  1.226575e+00    2.239683e+00
  1.242451e+00    2.313976e+00
  1.258327e+00    2.334117e+00
  1.274202e+00    2.551359e+00
  1.290078e+00    2.649758e+00
  1.305953e+00    2.850601e+00
  1.321829e+00    2.825789e+00
  1.337705e+00    2.827027e+00
  1.353580e+00    2.864079e+00
  1.369456e+00    2.866934e+00
  1.385331e+00    2.803625e+00
  1.401207e+00    3.000160e+00
  1.417082e+00    2.917797e+00
  1.432958e+00    2.919509e+00
  1.448834e+00    2.946205e+00
  1.464709e+00    3.106725e+00
  1.480585e+00    3.153719e+00
  1.496460e+00    3.115246e+00
  1.512336e+00    3.086795e+00
  1.528211e+00    3.168980e+00
  1.544087e+00    3.115527e+00
  1.559963e+00    3.137520e+00
  1.575838e+00    3.247846e+00
  1.591714e+00    3.164572e+00
  1.607589e+00    3.134503e+00
  1.623465e+00    3.197308e+00
  1.639340e+00    3.304562e+00
  1.655216e+00    3.156951e+00
  1.671092e+00    3.222282e+00
  1.686967e+00    3.252878e+00
  1.702843e+00    3.026453e+00
  1.718718e+00    3.098467e+00
  1.734594e+00    3.135116e+00
  1.750469e+00    3.106865e+00
  1.766345e+00    3.136293e+00
  1.782221e+00    3.144657e+00
  1.798096e+00    3.104251e+00
  1.813972e+00    3.068730e+00
  1.829847e+00    2.939844e+00
  1.845723e+00    3.004727e+00
  1.861598e+00    3.128925e+00
  1.877474e+00    3.191083e+00
  1.893350e+00    3.054712e+00
  1.909225e+00    3.091364e+00
  1.925101e+00    3.107789e+00
  1.940976e+00    3.109955e+00
  1.956852e+00    3.200845e+00
  1.972727e+00    3.296294e+00
  1.988603e+00    3.216135e+00
  2.004479e+00    3.092904e+00
  2.020354e+00    3.086814e+00
  2.036230e+00    3.096258e+00
  2.052105e+00    3.102057e+00
  2.067981e+00    3.176264e+00
  2.083856e+00    3.164451e+00
  2.099732e+00    3.076096e+00
  2.115608e+00    3.047905e+00
  2.131483e+00    3.140954e+00
  2.147359e+00    3.081458e+00
  2.163234e+00    3.045272e+00
  2.179110e+00    3.125022e+00
  2.194985e+00    3.126786e+00
  2.210861e+00    3.095428e+00
  2.226737e+00    3.148720e+00
  2.242612e+00    3.076100e+00
  2.258488e+00    3.131078e+00
  2.274363e+00    3.178571e+00
  2.290239e+00    3.174380e+00
  2.306115e+00    3.249898e+00
  2.321990e+00    3.300401e+00
  2.337866e+00    3.274004e+00
  2.353741e+00    3.154402e+00
  2.369617e+00    3.156132e+00
  2.385492e+00    3.237060e+00
  2.401368e+00    3.037785e+00
  2.417244e+00    3.083931e+00
  2.433119e+00    3.153775e+00
  2.448995e+00    3.127484e+00
  2.464870e+00    3.188497e+00
  2.480746e+00    3.194698e+00
  2.496621e+00    3.113297e+00
  2.512497e+00    3.136846e+00
  2.528373e+00    3.109314e+00
  2.544248e+00    3.076919e+00
  2.560124e+00    3.135677e+00
  2.575999e+00    3.142820e+00
  2.591875e+00    3.177409e+00
  2.607750e+00    3.195364e+00
  2.623626e+00    3.250060e+00
  2.639502e+00    3.253331e+00
  2.655377e+00    3.330781e+00
  2.671253e+00    3.310255e+00
  2.687128e+00    3.357732e+00
  2.703004e+00    3.295123e+00
  2.718879e+00    3.228146e+00
  2.734755e+00    3.269875e+00
  2.750631e+00    3.174773e+00
  2.766506e+00    3.113925e+00
  2.782382e+00    3.164800e+00
  2.798257e+00    3.363057e+00
  2.814133e+00    3.354455e+00
  2.830008e+00    3.332930e+00
  2.845884e+00    3.208628e+00
  2.861760e+00    3.272043e+00
  2.877635e+00    3.440169e+00
  2.893511e+00    3.366586e+00
  2.909386e+00    3.238076e+00
  2.925262e+00    3.330426e+00
  2.941137e+00    3.420805e+00
  2.957013e+00    3.388319e+00
  2.972889e+00    3.378742e+00
  2.988764e+00    3.433096e+00
  3.004640e+00    3.397693e+00
  3.020515e+00    3.360890e+00
  3.036391e+00    3.369636e+00
  3.052266e+00    3.307989e+00
  3.068142e+00    3.336417e+00
  3.084018e+00    3.355047e+00
  3.099893e+00    3.363786e+00
  3.115769e+00    3.410446e+00
  3.131644e+00    3.435718e+00
  3.147520e+00    3.350412e+00
  3.163395e+00    3.291671e+00
  3.179271e+00    3.340528e+00
  3.195147e+00    3.376296e+00
  3.211022e+00    3.370486e+00
  3.226898e+00    3.403034e+00
  3.242773e+00    3.426322e+00
  3.258649e+00    3.465142e+00
  3.274525e+00    3.359733e+00
  3.290400e+00    3.347120e+00
  3.306276e+00    3.484766e+00
  3.322151e+00    3.432781e+00
  3.338027e+00    3.452669e+00
  3.353902e+00    3.434642e+00
  3.369778e+00    3.509830e+00
  3.385654e+00    3.551206e+00
  3.401529e+00    3.514485e+00
  3.417405e+00    3.369042e+00
  3.433280e+00    3.408576e+00
  3.449156e+00    3.484635e+00
  3.465031e+00    3.452211e+00
  3.480907e+00    3.496190e+00
  3.496783e+00    3.562559e+00
  3.512658e+00    3.502348e+00
  3.528534e+00    3.557356e+00
  3.544409e+00    3.538607e+00
  3.560285e+00    3.524694e+00
  3.576160e+00    3.402195e+00
  3.592036e+00    3.362169e+00
  3.607912e+00    3.387367e+00
  3.623787e+00    3.501227e+00
  3.639663e+00    3.449398e+00
  3.655538e+00    3.505040e+00
  3.671414e+00    3.524918e+00
  3.687289e+00    3.518244e+00
  3.703165e+00    3.541615e+00
  3.719041e+00    3.467877e+00
  3.734916e+00    3.450606e+00
  3.750792e+00    3.540096e+00
  3.766667e+00    3.494022e+00
  3.782543e+00    3.600090e+00
  3.798418e+00    3.549288e+00
  3.814294e+00    3.517399e+00
  3.830170e+00    3.539058e+00
  3.846045e+00    3.536105e+00
  3.861921e+00    3.529660e+00
  3.877796e+00    3.539991e+00
  3.893672e+00    3.568320e+00
  3.909547e+00    3.603217e+00
  3.925423e+00    3.650412e+00
  3.941299e+00    3.619655e+00
  3.957174e+00    3.500350e+00
  3.973050e+00    3.517752e+00
  3.988925e+00    3.538001e+00
  4.004801e+00    3.563525e+00
  4.020676e+00    3.544932e+00
  4.036552e+00    3.529400e+00
  4.052428e+00    3.598309e+00
  4.068303e+00    3.586942e+00
  4.084179e+00    3.567127e+00
  4.100054e+00    3.632452e+00
  4.115930e+00    3.577477e+00
  4.131806e+00    3.469464e+00
  4.147681e+00    3.500161e+00
  4.163557e+00    3.519999e+00
  4.179432e+00    3.579767e+00
  4.195308e+00    3.610757e+00
  4.211183e+00    3.623973e+00
  4.227059e+00    3.589714e+00
  4.242935e+00    3.545894e+00
  4.258810e+00    3.614537e+00
  4.274686e+00    3.604982e+00
  4.290561e+00    3.640842e+00
  4.306437e+00    3.514865e+00
  4.322312e+00    3.508003e+00
  4.338188e+00    3.590139e+00
  4.354064e+00    3.622236e+00
  4.369939e+00    3.609480e+00
  4.385815e+00    3.630579e+00
  4.401690e+00    3.559224e+00
  4.417566e+00    3.598861e+00
  4.433441e+00    3.550687e+00
  4.449317e+00    3.647335e+00
  4.465193e+00    3.628464e+00
  4.481068e+00    3.552178e+00
  4.496944e+00    3.554027e+00
  4.512819e+00    3.597386e+00
  4.528695e+00    3.695832e+00
  4.544570e+00    3.637013e+00
  4.560446e+00    3.587971e+00
  4.576322e+00    3.523373e+00
  4.592197e+00    3.640573e+00
  4.608073e+00    3.702536e+00
  4.623948e+00    3.583248e+00
  4.639824e+00    3.609941e+00
  4.655699e+00    3.685514e+00
  4.671575e+00    3.674858e+00
  4.687451e+00    3.664590e+00
  4.703326e+00    3.613303e+00
  4.719202e+00    3.614321e+00
  4.735077e+00    3.630765e+00
  4.750953e+00    3.693165e+00
  4.766828e+00    3.649145e+00
  4.782704e+00    3.704964e+00
  4.798580e+00    3.686986e+00
  4.814455e+00    3.696071e+00
  4.830331e+00    3.703884e+00
  4.846206e+00    3.704991e+00
  4.862082e+00    3.640610e+00
  4.877957e+00    3.685378e+00
  4.893833e+00    3.669553e+00
  4.909709e+00    3.635991e+00
  4.925584e+00    3.633810e+00
  4.941460e+00    3.665662e+00
  4.957335e+00    3.656190e+00
  4.973211e+00    3.714097e+00
  4.989086e+00    3.662237e+00
  5.004962e+00    3.660408e+00
  5.020838e+00    3.698270e+00
  5.036713e+00    3.734143e+00
  5.052589e+00    3.717426e+00
  5.068464e+00    3.676751e+00
  5.084340e+00    3.798166e+00
  5.100216e+00    3.724895e+00
  5.116091e+00    3.635726e+00
  5.131967e+00    3.655416e+00
  5.147842e+00    3.655557e+00
  5.163718e+00    3.612113e+00
  5.179593e+00    3.718965e+00
  5.195469e+00    3.698658e+00
  5.211345e+00    3.675272e+00
  5.227220e+00    3.626264e+00
  5.243096e+00    3.698363e+00
  5.258971e+00    3.707508e+00
  5.274847e+00    3.646312e+00
  5.290722e+00    3.679577e+00
  5.306598e+00    3.696284e+00
  5.322474e+00    3.646775e+00
  5.338349e+00    3.642924e+00
  5.354225e+00    3.638474e+00
  5.370100e+00    3.694587e+00
  5.385976e+00    3.626557e+00
  5.401851e+00    3.632474e+00
  5.417727e+00    3.674435e+00
  5.433603e+00    3.664188e+00
  5.449478e+00    3.720151e+00
  5.465354e+00    3.667336e+00
  5.481229e+00    3.610567e+00
  5.497105e+00    3.640387e+00
  5.512980e+00    3.600578e+00
  5.528856e+00    3.503740e+00
  5.544732e+00    3.542283e+00
  5.560607e+00    3.641044e+00
  5.576483e+00    3.669412e+00
  5.592358e+00    3.653641e+00
  5.608234e+00    3.567635e+00
  5.624109e+00    3.563233e+00
  5.639985e+00    3.655703e+00
  5.655861e+00    3.596346e+00
  5.671736e+00    3.557115e+00
  5.687612e+00    3.557752e+00
  5.703487e+00    3.680571e+00
  5.719363e+00    3.679834e+00
  5.735238e+00    3.691878e+00
  5.751114e+00    3.699167e+00
  5.766990e+00    3.678970e+00
  5.782865e+00    3.600641e+00
  5.798741e+00    3.526371e+00
  5.814616e+00    3.579386e+00
  5.830492e+00    3.607980e+00
  5.846367e+00    3.523175e+00
  5.862243e+00    3.544014e+00
  5.878119e+00    3.595664e+00
  5.893994e+00    3.645617e+00
  5.909870e+00    3.584050e+00
  5.925745e+00    3.572330e+00
  5.941621e+00    3.566049e+00
  5.957497e+00    3.574793e+00
  5.973372e+00    3.558882e+00
  5.989248e+00    3.547841e+00
  6.005123e+00    3.590908e+00
  6.020999e+00    3.572038e+00
  6.036874e+00    3.600581e+00
  6.052750e+00    3.660057e+00
  6.068626e+00    3.694844e+00
  6.084501e+00    3.557085e+00
  6.100377e+00    3.495256e+00
  6.116252e+00    3.653050e+00
  6.132128e+00    3.666462e+00
  6.148003e+00    3.557986e+00
  6.163879e+00    3.568296e+00
  6.179755e+00    3.624116e+00
  6.195630e+00    3.656925e+00
  6.211506e+00    3.601723e+00
  6.227381e+00    3.577730e+00
  6.243257e+00    3.586815e+00
  6.259132e+00    3.548380e+00
  6.275008e+00    3.599231e+00
  6.290884e+00    3.584258e+00
  6.306759e+00    3.577765e+00
  6.322635e+00    3.591476e+00
  6.338510e+00    3.580751e+00
  6.354386e+00    3.551962e+00
  6.370261e+00    3.599253e+00
  6.386137e+00    3.645600e+00
  6.402013e+00    3.608366e+00
  6.417888e+00    3.598170e+00
  6.433764e+00    3.586399e+00
  6.449639e+00    3.642017e+00
  6.465515e+00    3.649357e+00
  6.481390e+00    3.639602e+00
  6.497266e+00    3.578032e+00
  6.513142e+00    3.596329e+00
  6.529017e+00    3.623003e+00
  6.544893e+00    3.586852e+00
  6.560768e+00    3.500968e+00
  6.576644e+00    3.505427e+00
  6.592519e+00    3.614008e+00
  6.608395e+00    3.671860e+00
  6.624271e+00    3.628670e+00
  6.640146e+00    3.638434e+00
  6.656022e+00    3.572867e+00
  6.671897e+00    3.634376e+00
  6.687773e+00    3.617458e+00
  6.703648e+00    3.599728e+00
  6.719524e+00    3.607637e+00
  6.735400e+00    3.616704e+00
  6.751275e+00    3.615158e+00
  6.767151e+00    3.644268e+00
  6.783026e+00    3.595649e+00
  6.798902e+00    3.546872e+00
  6.814777e+00    3.607757e+00
  6.830653e+00    3.652257e+00
  6.846529e+00    3.568466e+00
  6.862404e+00    3.532870e+00
  6.878280e+00    3.547634e+00
  6.894155e+00    3.630818e+00
  6.910031e+00    3.586076e+00
  6.925907e+00    3.568330e+00
  6.941782e+00    3.588286e+00
  6.957658e+00    3.609760e+00
  6.973533e+00    3.610152e+00
  6.989409e+00    3.543607e+00
  7.005284e+00    3.508354e+00
  7.021160e+00    3.590805e+00
  7.037036e+00    3.635795e+00
  7.052911e+00    3.605115e+00
  7.068787e+00    3.589521e+00
  7.084662e+00    3.615985e+00
  7.100538e+00    3.595966e+00
  7.116413e+00    3.556071e+00
  7.132289e+00    3.554124e+00
  7.148165e+00    3.607433e+00
  7.164040e+00    3.607594e+00
  7.179916e+00    3.498342e+00
  7.195791e+00    3.508232e+00
  7.211667e+00    3.522426e+00
  7.227542e+00    3.540151e+00
  7.243418e+00    3.505350e+00
  7.259294e+00    3.495275e+00
  7.275169e+00    3.508611e+00
  7.291045e+00    3.589868e+00
  7.306920e+00    3.610795e+00
  7.322796e+00    3.585972e+00
  7.338671e+00    3.542372e+00
  7.354547e+00    3.535608e+00
  7.370423e+00    3.522848e+00
  7.386298e+00    3.514492e+00
  7.402174e+00    3.529195e+00
  7.418049e+00    3.497330e+00
  7.433925e+00    3.520223e+00
  7.449800e+00    3.541813e+00
  7.465676e+00    3.486480e+00
  7.481552e+00    3.449895e+00
  7.497427e+00    3.558536e+00
  7.513303e+00    3.534328e+00
  7.529178e+00    3.441364e+00
  7.545054e+00    3.448066e+00
  7.560929e+00    3.535659e+00
  7.576805e+00    3.551247e+00
  7.592681e+00    3.550817e+00
  7.608556e+00    3.497660e+00
  7.624432e+00    3.535846e+00
  7.640307e+00    3.559701e+00
  7.656183e+00    3.591044e+00
  7.672058e+00    3.497388e+00
  7.687934e+00    3.528108e+00
  7.703810e+00    3.567590e+00
  7.719685e+00    3.516844e+00
  7.735561e+00    3.482482e+00
  7.751436e+00    3.511449e+00
  7.767312e+00    3.520484e+00
  7.783187e+00    3.457327e+00
  7.799063e+00    3.419758e+00
  7.814939e+00    3.458609e+00
  7.830814e+00    3.457787e+00
  7.846690e+00    3.459375e+00
  7.862565e+00    3.495871e+00
  7.878441e+00    3.505200e+00
  7.894317e+00    3.478859e+00
  7.910192e+00    3.512146e+00
  7.926068e+00    3.502255e+00
  7.941943e+00    3.458441e+00
  7.957819e+00    3.454064e+00
  7.973694e+00    3.463404e+00
  7.989570e+00    3.422235e+00
  8.005446e+00    3.411624e+00
  8.021321e+00    3.424057e+00
  8.037197e+00    3.452579e+00
  8.053072e+00    3.398548e+00
  8.068948e+00    3.469354e+00
  8.084823e+00    3.494715e+00
  8.100699e+00    3.480390e+00
  8.116575e+00    3.495987e+00
  8.132450e+00    3.469762e+00
  8.148326e+00    3.481132e+00
  8.164201e+00    3.461234e+00
  8.180077e+00    3.437517e+00
  8.195952e+00    3.409606e+00
  8.211828e+00    3.474939e+00
  8.227704e+00    3.546885e+00
  8.243579e+00    3.488351e+00
  8.259455e+00    3.454745e+00
  8.275330e+00    3.451766e+00
  8.291206e+00    3.389353e+00
  8.307081e+00    3.407518e+00
  8.322957e+00    3.386320e+00
  8.338833e+00    3.360786e+00
  8.354708e+00    3.474013e+00
  8.370584e+00    3.428960e+00
  8.386459e+00    3.407874e+00
  8.402335e+00    3.368739e+00
  8.418210e+00    3.354244e+00
  8.434086e+00    3.440741e+00
  8.449962e+00    3.433429e+00
  8.465837e+00    3.349040e+00
  8.481713e+00    3.364455e+00
  8.497588e+00    3.348035e+00
  8.513464e+00    3.393911e+00
  8.529339e+00    3.422930e+00
  8.545215e+00    3.443754e+00
  8.561091e+00    3.431957e+00
  8.576966e+00    3.400917e+00
  8.592842e+00    3.363140e+00
  8.608717e+00    3.359213e+00
  8.624593e+00    3.396367e+00
  8.640468e+00    3.412450e+00
  8.656344e+00    3.306685e+00
  8.672220e+00    3.349278e+00
  8.688095e+00    3.360471e+00
  8.703971e+00    3.371170e+00
  8.719846e+00    3.368692e+00
  8.735722e+00    3.344427e+00
  8.751598e+00    3.406787e+00
  8.767473e+00    3.451734e+00
  8.783349e+00    3.382826e+00
  8.799224e+00    3.396267e+00
  8.815100e+00    3.328885e+00
  8.830975e+00    3.336076e+00
  8.846851e+00    3.369927e+00
  8.862727e+00    3.368415e+00
  8.878602e+00    3.342803e+00
  8.894478e+00    3.328268e+00
  8.910353e+00    3.375956e+00
  8.926229e+00    3.292817e+00
  8.942104e+00    3.280468e+00
  8.957980e+00    3.322697e+00
  8.973856e+00    3.321887e+00
  8.989731e+00    3.339889e+00
  9.005607e+00    3.376444e+00
  9.021482e+00    3.318982e+00
  9.037358e+00    3.255522e+00
  9.053233e+00    3.277765e+00
  9.069109e+00    3.283894e+00
  9.084985e+00    3.366066e+00
  9.100860e+00    3.318269e+00
  9.116736e+00    3.220767e+00
  9.132611e+00    3.246885e+00
  9.148487e+00    3.291278e+00
  9.164362e+00    3.373452e+00
  9.180238e+00    3.354034e+00
  9.196114e+00    3.324330e+00
  9.211989e+00    3.291965e+00
  9.227865e+00    3.288959e+00
  9.243740e+00    3.303371e+00
  9.259616e+00    3.210981e+00
  9.275491e+00    3.230191e+00
  9.291367e+00    3.243501e+00
  9.307243e+00    3.210923e+00
  9.323118e+00    3.241676e+00
  9.338994e+00    3.276034e+00
  9.354869e+00    3.238902e+00
  9.370745e+00    3.218211e+00
  9.386620e+00    3.161687e+00
  9.402496e+00    3.182875e+00
  9.418372e+00    3.243351e+00
  9.434247e+00    3.265323e+00
  9.450123e+00    3.232805e+00
  9.465998e+00    3.173190e+00
  9.481874e+00    3.182543e+00
  9.497749e+00    3.236080e+00
  9.513625e+00    3.259852e+00
  9.529501e+00    3.336019e+00
  9.545376e+00    3.315164e+00
  9.561252e+00    3.300371e+00
  9.577127e+00    3.301341e+00
  9.593003e+00    3.296855e+00
  9.608878e+00    3.266042e+00
  9.624754e+00    3.240913e+00
  9.640630e+00    3.252356e+00
  9.656505e+00    3.199576e+00
  9.672381e+00    3.210623e+00
  9.688256e+00    3.255217e+00
  9.704132e+00    3.243184e+00
  9.720008e+00    3.222397e+00
  9.735883e+00    3.182677e+00
  9.751759e+00    3.169222e+00
  9.767634e+00    3.201701e+00
  9.783510e+00    3.166313e+00
  9.799385e+00    3.158321e+00
  9.815261e+00    3.166095e+00
  9.831137e+00    3.156433e+00
  9.847012e+00    3.145645e+00
  9.862888e+00    3.172927e+00
  9.878763e+00    3.167828e+00
  9.894639e+00    3.191789e+00
  9.910514e+00    3.150810e+00
  9.926390e+00    3.075426e+00
  9.942266e+00    3.111128e+00
  9.958141e+00    3.156658e+00
  9.974017e+00    3.166491e+00
  9.989892e+00    3.122991e+00
  1.000577e+01    3.162020e+00
  1.002164e+01    3.164271e+00
  1.003752e+01    3.156705e+00
  1.005339e+01    3.083728e+00
  1.006927e+01    3.084228e+00
  1.008515e+01    3.085679e+00
  1.010102e+01    3.106074e+00
  1.011690e+01    3.128304e+00
  1.013277e+01    3.135705e+00
  1.014865e+01    3.147078e+00
  1.016452e+01    3.110153e+00
  1.018040e+01    3.095034e+00
  1.019627e+01    3.090106e+00
  1.021215e+01    3.071969e+00
  1.022803e+01    3.052883e+00
  1.024390e+01    3.054827e+00
  1.025978e+01    3.075052e+00
  1.027565e+01    3.075661e+00
  1.029153e+01    3.037182e+00
  1.030740e+01    3.078940e+00
  1.032328e+01    3.030506e+00
  1.033915e+01    3.089538e+00
  1.035503e+01    3.098171e+00
  1.037091e+01    3.106828e+00
  1.038678e+01    3.099554e+00
  1.040266e+01    3.073110e+00
  1.041853e+01    3.068991e+00
  1.043441e+01    3.023414e+00
  1.045028e+01    3.058800e+00
  1.046616e+01    3.061177e+00
  1.048204e+01    2.995279e+00
  1.049791e+01    3.020910e+00
  1.051379e+01    3.023990e+00
  1.052966e+01    2.967164e+00
  1.054554e+01    3.068578e+00
  1.056141e+01    3.024286e+00
  1.057729e+01    3.027278e+00
  1.059316e+01    2.985650e+00
  1.060904e+01    3.045911e+00
  1.062492e+01    3.040295e+00
  1.064079e+01    2.932562e+00
  1.065667e+01    2.953488e+00
  1.067254e+01    2.961774e+00
  1.068842e+01    2.993085e+00
  1.070429e+01    3.067066e+00
  1.072017e+01    3.049174e+00
  1.073604e+01    2.960305e+00
  1.075192e+01    2.939562e+00
  1.076780e+01    2.987571e+00
  1.078367e+01    2.957207e+00
  1.079955e+01    2.963440e+00
  1.081542e+01    2.952929e+00
  1.083130e+01    2.939197e+00
  1.084717e+01    2.959244e+00
  1.086305e+01    2.948268e+00
  1.087892e+01    2.991184e+00
  1.089480e+01    2.990863e+00
  1.091068e+01    2.964239e+00
  1.092655e+01    2.989009e+00
  1.094243e+01    2.967522e+00
  1.095830e+01    2.962115e+00
  1.097418e+01    2.914322e+00
  1.099005e+01    2.935568e+00
  1.100593e+01    2.949111e+00
  1.102180e+01    2.968781e+00
  1.103768e+01    2.909240e+00
  1.105356e+01    2.884022e+00
  1.106943e+01    2.898313e+00
  1.108531e+01    2.930772e+00
  1.110118e+01    2.878802e+00
  1.111706e+01    2.833383e+00
  1.113293e+01    2.880162e+00
  1.114881e+01    2.924591e+00
  1.116468e+01    2.898189e+00
  1.118056e+01    2.884068e+00
  1.119644e+01    2.905718e+00
  1.121231e+01    2.887589e+00
  1.122819e+01    2.891463e+00
  1.124406e+01    2.877681e+00
  1.125994e+01    2.843361e+00
  1.127581e+01    2.824666e+00
  1.129169e+01    2.867277e+00
  1.130756e+01    2.825184e+00
  1.132344e+01    2.860029e+00
  1.133932e+01    2.881097e+00
  1.135519e+01    2.874470e+00
  1.137107e+01    2.867772e+00
  1.138694e+01    2.877845e+00
  1.140282e+01    2.865571e+00
  1.141869e+01    2.837547e+00
  1.143457e+01    2.795165e+00
  1.145045e+01    2.850846e+00
  1.146632e+01    2.881428e+00
  1.148220e+01    2.876752e+00
  1.149807e+01    2.891248e+00
  1.151395e+01    2.898440e+00
  1.152982e+01    2.880231e+00
  1.154570e+01    2.782201e+00
  1.156157e+01    2.791554e+00
  1.157745e+01    2.799435e+00
  1.159333e+01    2.803849e+00
  1.160920e+01    2.773480e+00
  1.162508e+01    2.797889e+00
  1.164095e+01    2.822803e+00
  1.165683e+01    2.813002e+00
  1.167270e+01    2.827203e+00
  1.168858e+01    2.788745e+00
  1.170445e+01    2.763502e+00
  1.172033e+01    2.788901e+00
  1.173621e+01    2.844633e+00
  1.175208e+01    2.798505e+00
  1.176796e+01    2.760039e+00
  1.178383e+01    2.750433e+00
  1.179971e+01    2.761824e+00
  1.181558e+01    2.785946e+00
  1.183146e+01    2.726735e+00
  1.184733e+01    2.773351e+00
  1.186321e+01    2.759479e+00
  1.187909e+01    2.786097e+00
  1.189496e+01    2.762101e+00
  1.191084e+01    2.684198e+00
  1.192671e+01    2.728728e+00
  1.194259e+01    2.748347e+00
  1.195846e+01    2.759845e+00
  1.197434e+01    2.785811e+00
  1.199021e+01    2.720492e+00
  1.200609e+01    2.753508e+00
  1.202197e+01    2.774393e+00
  1.203784e+01    2.747700e+00
  1.205372e+01    2.712510e+00
  1.206959e+01    2.672363e+00
  1.208547e+01    2.674758e+00
  1.210134e+01    2.713797e+00
  1.211722e+01    2.717698e+00
  1.213309e+01    2.746225e+00
  1.214897e+01    2.687529e+00
  1.216485e+01    2.668008e+00
  1.218072e+01    2.688676e+00
  1.219660e+01    2.640794e+00
  1.221247e+01    2.681078e+00
  1.222835e+01    2.714722e+00
  1.224422e+01    2.678514e+00
  1.226010e+01    2.623696e+00
  1.227597e+01    2.658172e+00
  1.229185e+01    2.726789e+00
  1.230773e+01    2.684415e+00
  1.232360e+01    2.742010e+00
  1.233948e+01    2.732992e+00
  1.235535e+01    2.681567e+00
  1.237123e+01    2.697572e+00
  1.238710e+01    2.702626e+00
  1.240298e+01    2.709810e+00
  1.241886e+01    2.747092e+00
  1.243473e+01    2.737023e+00
  1.245061e+01    2.733178e+00
  1.246648e+01    2.702620e+00
  1.248236e+01    2.737310e+00
  1.249823e+01    2.710108e+00
  1.251411e+01    2.678907e+00
  1.252998e+01    2.703632e+00
  1.254586e+01    2.769022e+00
  1.256174e+01    2.749383e+00
  1.257761e+01    2.769521e+00
  1.259349e+01    2.770189e+00
  1.260936e+01    2.762341e+00
  1.262524e+01    2.798438e+00
  1.264111e+01    2.786402e+00
  1.265699e+01    2.774883e+00
  1.267286e+01    2.813188e+00
  1.268874e+01    2.783817e+00
  1.270462e+01    2.830797e+00
  1.272049e+01    2.852101e+00
  1.273637e+01    2.851352e+00
  1.275224e+01    2.893650e+00
  1.276812e+01    2.959463e+00
  1.278399e+01    2.969652e+00
  1.279987e+01    2.996198e+00
  1.281574e+01    3.060754e+00
  1.283162e+01    3.110990e+00
  1.284750e+01    3.189209e+00
  1.286337e+01    3.268761e+00
  1.287925e+01    3.391376e+00
  1.289512e+01    3.509726e+00
  1.291100e+01    3.704883e+00
  1.292687e+01    3.878165e+00
  1.294275e+01    4.140355e+00
  1.295862e+01    4.460877e+00
  1.297450e+01    4.858224e+00
  1.299038e+01    5.375293e+00
  1.300625e+01    5.983150e+00
  1.302213e+01    6.813798e+00
  1.303800e+01    7.815031e+00
  1.305388e+01    9.036949e+00
  1.306975e+01    1.040339e+01
  1.308563e+01    1.157668e+01
  1.310150e+01    1.274525e+01
  1.311738e+01    1.401433e+01
  1.313326e+01    1.505482e+01
  1.314913e+01    1.589887e+01
  1.316501e+01    1.642546e+01
  1.318088e+01    1.650289e+01
  1.319676e+01    1.577403e+01
  1.321263e+01    1.436581e+01
  1.322851e+01    1.256396e+01
  1.324438e+01    1.080356e+01
  1.326026e+01    9.161529e+00
  1.327614e+01    7.894573e+00
  1.329201e+01    6.822677e+00
  1.330789e+01    6.055213e+00
  1.332376e+01    5.343184e+00
  1.333964e+01    4.878341e+00
  1.335551e+01    4.527072e+00
  1.337139e+01    4.157373e+00
  1.338727e+01    3.853119e+00
  1.340314e+01    3.722982e+00
  1.341902e+01    3.524044e+00
  1.343489e+01    3.346684e+00
  1.345077e+01    3.219902e+00
  1.346664e+01    3.149200e+00
  1.348252e+01    3.114073e+00
  1.349839e+01    3.019598e+00
  1.351427e+01    2.987166e+00
  1.353015e+01    2.897553e+00
  1.354602e+01    2.862287e+00
  1.356190e+01    2.812756e+00
  1.357777e+01    2.741497e+00
  1.359365e+01    2.703408e+00
  1.360952e+01    2.734401e+00
  1.362540e+01    2.707827e+00
  1.364127e+01    2.641412e+00
  1.365715e+01    2.606507e+00
  1.367303e+01    2.585824e+00
  1.368890e+01    2.566948e+00
  1.370478e+01    2.546633e+00
  1.372065e+01    2.502721e+00
  1.373653e+01    2.534050e+00
  1.375240e+01    2.506218e+00
  1.376828e+01    2.478211e+00
  1.378415e+01    2.505560e+00
  1.380003e+01    2.523363e+00
  1.381591e+01    2.487490e+00
  1.383178e+01    2.475653e+00
  1.384766e+01    2.462766e+00
  1.386353e+01    2.437261e+00
  1.387941e+01    2.456452e+00
  1.389528e+01    2.467996e+00
  1.391116e+01    2.435781e+00
  1.392703e+01    2.431161e+00
  1.394291e+01    2.412111e+00
  1.395879e+01    2.418845e+00
  1.397466e+01    2.401743e+00
  1.399054e+01    2.365969e+00
  1.400641e+01    2.379121e+00
  1.402229e+01    2.413973e+00
  1.403816e+01    2.373705e+00
  1.405404e+01    2.326285e+00
  1.406991e+01    2.357726e+00
  1.408579e+01    2.363425e+00
  1.410167e+01    2.321690e+00
  1.411754e+01    2.356671e+00
  1.413342e+01    2.353681e+00
  1.414929e+01    2.327435e+00
  1.416517e+01    2.317103e+00
  1.418104e+01    2.334213e+00
  1.419692e+01    2.359520e+00
  1.421279e+01    2.287948e+00
  1.422867e+01    2.318864e+00
  1.424455e+01    2.314008e+00
  1.426042e+01    2.322177e+00
  1.427630e+01    2.334516e+00
  1.429217e+01    2.336019e+00
  1.430805e+01    2.275745e+00
  1.432392e+01    2.290943e+00
  1.433980e+01    2.291291e+00
  1.435568e+01    2.272586e+00
  1.437155e+01    2.290608e+00
  1.438743e+01    2.294847e+00
  1.440330e+01    2.302059e+00
  1.441918e+01    2.268284e+00
  1.443505e+01    2.228805e+00
  1.445093e+01    2.198765e+00
  1.446680e+01    2.181609e+00
  1.448268e+01    2.226367e+00
  1.449856e+01    2.241002e+00
  1.451443e+01    2.250093e+00
  1.453031e+01    2.260365e+00
  1.454618e+01    2.231343e+00
  1.456206e+01    2.206543e+00
  1.457793e+01    2.240143e+00
  1.459381e+01    2.217220e+00
  1.460968e+01    2.201989e+00
  1.462556e+01    2.207968e+00
  1.464144e+01    2.214233e+00
  1.465731e+01    2.179164e+00
  1.467319e+01    2.200151e+00
  1.468906e+01    2.203005e+00
  1.470494e+01    2.190365e+00
  1.472081e+01    2.219844e+00
  1.473669e+01    2.229958e+00
  1.475256e+01    2.217504e+00
  1.476844e+01    2.224848e+00
  1.478432e+01    2.225506e+00
  1.480019e+01    2.203933e+00
  1.481607e+01    2.230792e+00
  1.483194e+01    2.241579e+00
  1.484782e+01    2.257763e+00
  1.486369e+01    2.249840e+00
  1.487957e+01    2.242488e+00
  1.489544e+01    2.218751e+00
  1.491132e+01    2.234257e+00
  1.492720e+01    2.274943e+00
  1.494307e+01    2.356795e+00
  1.495895e+01    2.387909e+00
  1.497482e+01    2.382981e+00
  1.499070e+01    2.423043e+00
  1.500657e+01    2.495987e+00
  1.502245e+01    2.531819e+00
  1.503832e+01    2.606625e+00
  1.505420e+01    2.722118e+00
  1.507008e+01    2.850283e+00
  1.508595e+01    3.017501e+00
  1.510183e+01    3.193352e+00
  1.511770e+01    3.453445e+00
  1.513358e+01    3.796962e+00
  1.514945e+01    4.219860e+00
  1.516533e+01    4.625431e+00
  1.518120e+01    5.022251e+00
  1.519708e+01    5.294203e+00
  1.521296e+01    5.533525e+00
  1.522883e+01    5.721530e+00
  1.524471e+01    5.784644e+00
  1.526058e+01    5.786198e+00
  1.527646e+01    5.760414e+00
  1.529233e+01    5.507416e+00
  1.530821e+01    5.141223e+00
  1.532409e+01    4.706940e+00
  1.533996e+01    4.280417e+00
  1.535584e+01    3.791993e+00
  1.537171e+01    3.437866e+00
  1.538759e+01    3.152800e+00
  1.540346e+01    2.924051e+00
  1.541934e+01    2.750113e+00
  1.543521e+01    2.588467e+00
  1.545109e+01    2.529512e+00
  1.546697e+01    2.435530e+00
  1.548284e+01    2.358382e+00
  1.549872e+01    2.333359e+00
  1.551459e+01    2.267066e+00
  1.553047e+01    2.208432e+00
  1.554634e+01    2.212636e+00
  1.556222e+01    2.170738e+00
  1.557809e+01    2.133528e+00
  1.559397e+01    2.096361e+00
  1.560985e+01    2.094567e+00
  1.562572e+01    2.064261e+00
  1.564160e+01    2.066876e+00
  1.565747e+01    2.061344e+00
  1.567335e+01    2.046104e+00
  1.568922e+01    2.018431e+00
  1.570510e+01    1.984295e+00
  1.572097e+01    1.964006e+00
  1.573685e+01    1.974572e+00
  1.575273e+01    1.970190e+00
  1.576860e+01    1.984300e+00
  1.578448e+01    1.923899e+00
  1.580035e+01    1.922526e+00
  1.581623e+01    1.951732e+00
  1.583210e+01    1.987034e+00
  1.584798e+01    1.968651e+00
  1.586385e+01    1.955709e+00
  1.587973e+01    1.924289e+00
  1.589561e+01    1.939579e+00
  1.591148e+01    1.901400e+00
  1.592736e+01    1.912233e+00
  1.594323e+01    1.938329e+00
  1.595911e+01    1.932388e+00
  1.597498e+01    1.928824e+00
  1.599086e+01    1.876980e+00
  1.600673e+01    1.851848e+00
  1.602261e+01    1.856357e+00
  1.603849e+01    1.862150e+00
  1.605436e+01    1.875617e+00
  1.607024e+01    1.898650e+00
  1.608611e+01    1.898830e+00
  1.610199e+01    1.922824e+00
  1.611786e+01    1.919131e+00
  1.613374e+01    1.868044e+00
  1.614961e+01    1.841591e+00
  1.616549e+01    1.855001e+00
  1.618137e+01    1.847073e+00
  1.619724e+01    1.809606e+00
  1.621312e+01    1.796753e+00
  1.622899e+01    1.810111e+00
  1.624487e+01    1.812439e+00
  1.626074e+01    1.835675e+00
  1.627662e+01    1.830118e+00
  1.629250e+01    1.823347e+00
  1.630837e+01    1.812801e+00
  1.632425e+01    1.805546e+00
  1.634012e+01    1.805250e+00
  1.635600e+01    1.823560e+00
  1.637187e+01    1.781932e+00
  1.638775e+01    1.742866e+00
  1.640362e+01    1.790971e+00
  1.641950e+01    1.777167e+00
  1.643538e+01    1.783480e+00
  1.645125e+01    1.779605e+00
  1.646713e+01    1.769729e+00
  1.648300e+01    1.773505e+00
  1.649888e+01    1.790511e+00
  1.651475e+01    1.779945e+00
  1.653063e+01    1.768361e+00
  1.654650e+01    1.752267e+00
  1.656238e+01    1.734779e+00
  1.657826e+01    1.747355e+00
  1.659413e+01    1.758329e+00
  1.661001e+01    1.761939e+00
  1.662588e+01    1.756542e+00
  1.664176e+01    1.753332e+00
  1.665763e+01    1.751789e+00
  1.667351e+01    1.741368e+00
  1.668938e+01    1.732341e+00
  1.670526e+01    1.746464e+00
  1.672114e+01    1.744261e+00
  1.673701e+01    1.742305e+00
  1.675289e+01    1.738402e+00
  1.676876e+01    1.727153e+00
  1.678464e+01    1.735068e+00
  1.680051e+01    1.767056e+00
  1.681639e+01    1.702947e+00
  1.683226e+01    1.704971e+00
  1.684814e+01    1.719079e+00
  1.686402e+01    1.693792e+00
  1.687989e+01    1.681712e+00
  1.689577e+01    1.696905e+00
  1.691164e+01    1.698006e+00
  1.692752e+01    1.720167e+00
  1.694339e+01    1.701422e+00
  1.695927e+01    1.677798e+00
  1.697514e+01    1.673863e+00
  1.699102e+01    1.663729e+00
  1.700690e+01    1.683651e+00
  1.702277e+01    1.676124e+00
  1.703865e+01    1.656141e+00
  1.705452e+01    1.650211e+00
  1.707040e+01    1.650336e+00
  1.708627e+01    1.677541e+00
  1.710215e+01    1.672199e+00
  1.711802e+01    1.653186e+00
  1.713390e+01    1.669223e+00
  1.714978e+01    1.659702e+00
  1.716565e+01    1.648650e+00
  1.718153e+01    1.651357e+00
  1.719740e+01    1.657830e+00
  1.721328e+01    1.641445e+00
  1.722915e+01    1.652599e+00
  1.724503e+01    1.647188e+00
  1.726091e+01    1.646972e+00
  1.727678e+01    1.636684e+00
  1.729266e+01    1.636624e+00
  1.730853e+01    1.601169e+00
  1.732441e+01    1.593685e+00
  1.734028e+01    1.595351e+00
  1.735616e+01    1.625177e+00
  1.737203e+01    1.630775e+00
  1.738791e+01    1.649828e+00
  1.740379e+01    1.631632e+00
  1.741966e+01    1.647376e+00
  1.743554e+01    1.596461e+00
  1.745141e+01    1.585386e+00
  1.746729e+01    1.571756e+00
  1.748316e+01    1.588411e+00
  1.749904e+01    1.615175e+00
  1.751491e+01    1.617122e+00
  1.753079e+01    1.565618e+00
  1.754667e+01    1.556600e+00
  1.756254e+01    1.570332e+00
  1.757842e+01    1.562850e+00
  1.759429e+01    1.563957e+00
  1.761017e+01    1.565429e+00
  1.762604e+01    1.571757e+00
  1.764192e+01    1.577390e+00
  1.765779e+01    1.579825e+00
  1.767367e+01    1.540203e+00
  1.768955e+01    1.594813e+00
  1.770542e+01    1.580552e+00
  1.772130e+01    1.555631e+00
  1.773717e+01    1.559989e+00
  1.775305e+01    1.570586e+00
  1.776892e+01    1.564851e+00
  1.778480e+01    1.554581e+00
  1.780067e+01    1.525826e+00
  1.781655e+01    1.534244e+00
  1.783243e+01    1.550460e+00
  1.784830e+01    1.564514e+00
  1.786418e+01    1.542620e+00
  1.788005e+01    1.507728e+00
  1.789593e+01    1.523239e+00
  1.791180e+01    1.523926e+00
  1.792768e+01    1.536700e+00
  1.794355e+01    1.541452e+00
  1.795943e+01    1.535800e+00
  1.797531e+01    1.519876e+00
  1.799118e+01    1.517135e+00
  1.800706e+01    1.499994e+00
  1.802293e+01    1.537179e+00
  1.803881e+01    1.548288e+00
  1.805468e+01    1.513840e+00
  1.807056e+01    1.533065e+00
  1.808643e+01    1.551337e+00
  1.810231e+01    1.528392e+00
  1.811819e+01    1.519812e+00
  1.813406e+01    1.462401e+00
  1.814994e+01    1.487706e+00
  1.816581e+01    1.502722e+00
  1.818169e+01    1.514325e+00
  1.819756e+01    1.502995e+00
  1.821344e+01    1.479648e+00
  1.822932e+01    1.499927e+00
  1.824519e+01    1.481014e+00
  1.826107e+01    1.476203e+00
  1.827694e+01    1.465032e+00
  1.829282e+01    1.497535e+00
  1.830869e+01    1.502562e+00
  1.832457e+01    1.480662e+00
  1.834044e+01    1.463497e+00
  1.835632e+01    1.471482e+00
  1.837220e+01    1.472133e+00
  1.838807e+01    1.483278e+00
  1.840395e+01    1.489942e+00
  1.841982e+01    1.489527e+00
  1.843570e+01    1.449252e+00
  1.845157e+01    1.430493e+00
  1.846745e+01    1.457407e+00
  1.848332e+01    1.428054e+00
  1.849920e+01    1.443072e+00
  1.851508e+01    1.454120e+00
  1.853095e+01    1.458831e+00
  1.854683e+01    1.468682e+00
  1.856270e+01    1.450646e+00
  1.857858e+01    1.458120e+00
  1.859445e+01    1.458755e+00
  1.861033e+01    1.454489e+00
  1.862620e+01    1.449155e+00
  1.864208e+01    1.452800e+00
  1.865796e+01    1.430007e+00
  1.867383e+01    1.424202e+00
  1.868971e+01    1.448560e+00
  1.870558e+01    1.465123e+00
  1.872146e+01    1.436816e+00
  1.873733e+01    1.420902e+00
  1.875321e+01    1.428255e+00
  1.876908e+01    1.435992e+00
  1.878496e+01    1.427229e+00
  1.880084e+01    1.428095e+00
  1.881671e+01    1.405474e+00
  1.883259e+01    1.442685e+00
  1.884846e+01    1.406803e+00
  1.886434e+01    1.399277e+00
  1.888021e+01    1.398103e+00
  1.889609e+01    1.407448e+00
  1.891196e+01    1.387766e+00
  1.892784e+01    1.390242e+00
  1.894372e+01    1.385037e+00
  1.895959e+01    1.389217e+00
  1.897547e+01    1.434168e+00
  1.899134e+01    1.405404e+00
  1.900722e+01    1.378492e+00
  1.902309e+01    1.399989e+00
  1.903897e+01    1.391470e+00
  1.905484e+01    1.359228e+00
  1.907072e+01    1.392601e+00
  1.908660e+01    1.373160e+00
  1.910247e+01    1.374553e+00
  1.911835e+01    1.368439e+00
  1.913422e+01    1.375456e+00
  1.915010e+01    1.358446e+00
  1.916597e+01    1.364993e+00
  1.918185e+01    1.383021e+00
  1.919773e+01    1.392960e+00
  1.921360e+01    1.385593e+00
  1.922948e+01    1.353950e+00
  1.924535e+01    1.390727e+00
  1.926123e+01    1.387590e+00
  1.927710e+01    1.349899e+00
  1.929298e+01    1.343111e+00
  1.930885e+01    1.366106e+00
  1.932473e+01    1.384943e+00
  1.934061e+01    1.384970e+00
  1.935648e+01    1.368193e+00
  1.937236e+01    1.353527e+00
  1.938823e+01    1.347568e+00
  1.940411e+01    1.358232e+00
  1.941998e+01    1.332162e+00
  1.943586e+01    1.319146e+00
  1.945173e+01    1.331681e+00
  1.946761e+01    1.350787e+00
  1.948349e+01    1.366223e+00
  1.949936e+01    1.359304e+00
  1.951524e+01    1.348914e+00
  1.953111e+01    1.354135e+00
  1.954699e+01    1.347722e+00
  1.956286e+01    1.336767e+00
  1.957874e+01    1.345210e+00
  1.959461e+01    1.353925e+00
  1.961049e+01    1.357034e+00
  1.962637e+01    1.343373e+00
  1.964224e+01    1.333523e+00
  1.965812e+01    1.345852e+00
  1.967399e+01    1.332942e+00
  1.968987e+01    1.292781e+00
  1.970574e+01    1.330564e+00
  1.972162e+01    1.321919e+00
  1.973749e+01    1.314275e+00
  1.975337e+01    1.305432e+00
  1.976925e+01    1.296203e+00
  1.978512e+01    1.291664e+00
  1.980100e+01    1.294115e+00
  1.981687e+01    1.298841e+00
  1.983275e+01    1.287248e+00
  1.984862e+01    1.297755e+00
  1.986450e+01    1.263862e+00
  1.988037e+01    1.275815e+00
  1.989625e+01    1.298057e+00
  1.991213e+01    1.274020e+00
  1.992800e+01    1.273592e+00
  1.994388e+01    1.265927e+00
  1.995975e+01    1.290797e+00
  1.997563e+01    1.310131e+00
  1.999150e+01    1.295238e+00
  2.000738e+01    1.279528e+00
  2.002325e+01    1.288087e+00
  2.003913e+01    1.271596e+00
  2.005501e+01    1.291782e+00
  2.007088e+01    1.302118e+00
  2.008676e+01    1.289070e+00
  2.010263e+01    1.295751e+00
  2.011851e+01    1.325848e+00
  2.013438e+01    1.309562e+00
  2.015026e+01    1.286474e+00
  2.016614e+01    1.275507e+00
  2.018201e+01    1.259725e+00
  2.019789e+01    1.256614e+00
  2.021376e+01    1.245432e+00
  2.022964e+01    1.268464e+00
  2.024551e+01    1.278473e+00
  2.026139e+01    1.272362e+00
  2.027726e+01    1.267167e+00
  2.029314e+01    1.284716e+00
  2.030902e+01    1.264698e+00
  2.032489e+01    1.266992e+00
  2.034077e+01    1.239204e+00
  2.035664e+01    1.228152e+00
  2.037252e+01    1.260943e+00
  2.038839e+01    1.249153e+00
  2.040427e+01    1.269217e+00
  2.042014e+01    1.275870e+00
  2.043602e+01    1.255675e+00
  2.045190e+01    1.241630e+00
  2.046777e+01    1.242040e+00
  2.048365e+01    1.273491e+00
  2.049952e+01    1.263956e+00
  2.051540e+01    1.259448e+00
  2.053127e+01    1.269478e+00
  2.054715e+01    1.261686e+00
  2.056302e+01    1.221134e+00
  2.057890e+01    1.257039e+00
  2.059478e+01    1.257878e+00
  2.061065e+01    1.240447e+00
  2.062653e+01    1.241423e+00
  2.064240e+01    1.243476e+00
  2.065828e+01    1.259682e+00
  2.067415e+01    1.249695e+00
  2.069003e+01    1.237605e+00
  2.070590e+01    1.259381e+00
  2.072178e+01    1.253752e+00
  2.073766e+01    1.242359e+00
  2.075353e+01    1.243747e+00
  2.076941e+01    1.242306e+00
  2.078528e+01    1.241836e+00
  2.080116e+01    1.234590e+00
  2.081703e+01    1.235038e+00
  2.083291e+01    1.245214e+00
  2.084878e+01    1.238338e+00
  2.086466e+01    1.243626e+00
  2.088054e+01    1.234668e+00
  2.089641e+01    1.252799e+00
  2.091229e+01    1.249801e+00
  2.092816e+01    1.245066e+00
  2.094404e+01    1.234299e+00
  2.095991e+01    1.229193e+00
  2.097579e+01    1.238263e+00
  2.099166e+01    1.226539e+00
  2.100754e+01    1.256823e+00
  2.102342e+01    1.244943e+00
  2.103929e+01    1.236730e+00
  2.105517e+01    1.242927e+00
  2.107104e+01    1.263238e+00
  2.108692e+01    1.247624e+00
  2.110279e+01    1.217600e+00
  2.111867e+01    1.216684e+00
  2.113455e+01    1.226560e+00
  2.115042e+01    1.237551e+00
  2.116630e+01    1.231131e+00
  2.118217e+01    1.238483e+00
  2.119805e+01    1.284253e+00
  2.121392e+01    1.288320e+00
  2.122980e+01    1.258634e+00
  2.124567e+01    1.273078e+00
  2.126155e+01    1.271873e+00
  2.127743e+01    1.259888e+00
  2.129330e+01    1.261424e+00
  2.130918e+01    1.277768e+00
  2.132505e+01    1.284929e+00
  2.134093e+01    1.291463e+00
  2.135680e+01    1.313334e+00
  2.137268e+01    1.316221e+00
  2.138855e+01    1.320273e+00
  2.140443e+01    1.310544e+00
  2.142031e+01    1.311602e+00
  2.143618e+01    1.341441e+00
  2.145206e+01    1.381238e+00
  2.146793e+01    1.390628e+00
  2.148381e+01    1.393224e+00
  2.149968e+01    1.429175e+00
  2.151556e+01    1.470345e+00
  2.153143e+01    1.529886e+00
  2.154731e+01    1.549422e+00
  2.156319e+01    1.572851e+00
  2.157906e+01    1.644474e+00
  2.159494e+01    1.724131e+00
  2.161081e+01    1.763590e+00
  2.162669e+01    1.868376e+00
  2.164256e+01    2.034300e+00
  2.165844e+01    2.172870e+00
  2.167431e+01    2.322966e+00
  2.169019e+01    2.557085e+00
  2.170607e+01    2.826095e+00
  2.172194e+01    3.167033e+00
  2.173782e+01    3.591198e+00
  2.175369e+01    4.090079e+00
  2.176957e+01    4.679630e+00
  2.178544e+01    5.282401e+00
  2.180132e+01    5.980330e+00
  2.181719e+01    6.665752e+00
  2.183307e+01    7.349053e+00
  2.184895e+01    8.002870e+00
  2.186482e+01    8.530853e+00
  2.188070e+01    8.865623e+00
  2.189657e+01    9.046894e+00
  2.191245e+01    8.851387e+00
  2.192832e+01    8.348145e+00
  2.194420e+01    7.557539e+00
  2.196007e+01    6.568861e+00
  2.197595e+01    5.617972e+00
  2.199183e+01    4.892028e+00
  2.200770e+01    4.184386e+00
  2.202358e+01    3.624972e+00
  2.203945e+01    3.153697e+00
  2.205533e+01    2.832126e+00
  2.207120e+01    2.586567e+00
  2.208708e+01    2.337126e+00
  2.210296e+01    2.166156e+00
  2.211883e+01    2.019809e+00
  2.213471e+01    1.867569e+00
  2.215058e+01    1.758070e+00
  2.216646e+01    1.681300e+00
  2.218233e+01    1.624895e+00
  2.219821e+01    1.554565e+00
  2.221408e+01    1.508855e+00
  2.222996e+01    1.462547e+00
  2.224584e+01    1.402857e+00
  2.226171e+01    1.378355e+00
  2.227759e+01    1.350303e+00
  2.229346e+01    1.329407e+00
  2.230934e+01    1.303261e+00
  2.232521e+01    1.303888e+00
  2.234109e+01    1.264935e+00
  2.235696e+01    1.224095e+00
  2.237284e+01    1.231442e+00
  2.238872e+01    1.242087e+00
  2.240459e+01    1.226110e+00
  2.242047e+01    1.221813e+00
  2.243634e+01    1.188860e+00
  2.245222e+01    1.190275e+00
  2.246809e+01    1.163431e+00
  2.248397e+01    1.149717e+00
  2.249984e+01    1.137958e+00
  2.251572e+01    1.123859e+00
  2.253160e+01    1.127900e+00
  2.254747e+01    1.128294e+00
  2.256335e+01    1.141003e+00
  2.257922e+01    1.132032e+00
  2.259510e+01    1.137199e+00
  2.261097e+01    1.135341e+00
  2.262685e+01    1.118824e+00
  2.264272e+01    1.085785e+00
  2.265860e+01    1.107715e+00
  2.267448e+01    1.100528e+00
  2.269035e+01    1.091646e+00
  2.270623e+01    1.074166e+00
  2.272210e+01    1.091375e+00
  2.273798e+01    1.090524e+00
  2.275385e+01    1.054209e+00
  2.276973e+01    1.062364e+00
  2.278560e+01    1.056960e+00
  2.280148e+01    1.070779e+00
  2.281736e+01    1.068805e+00
  2.283323e+01    1.057281e+00
  2.284911e+01    1.069215e+00
  2.286498e+01    1.057122e+00
  2.288086e+01    1.039690e+00
  2.289673e+01    1.058292e+00
  2.291261e+01    1.051135e+00
  2.292848e+01    1.054705e+00
  2.294436e+01    1.041883e+00
  2.296024e+01    1.044081e+00
  2.297611e+01    1.036312e+00
  2.299199e+01    1.009516e+00
  2.300786e+01    1.020666e+00
  2.302374e+01    1.029990e+00
  2.303961e+01    1.019673e+00
  2.305549e+01    1.017071e+00
  2.307137e+01    1.030372e+00
  2.308724e+01    1.025577e+00
  2.310312e+01    1.025520e+00
  2.311899e+01    1.014490e+00
  2.313487e+01    9.987347e-01
  2.315074e+01    1.002044e+00
  2.316662e+01    1.022969e+00
  2.318249e+01    9.981094e-01
  2.319837e+01    1.004472e+00
  2.321425e+01    1.008689e+00
  2.323012e+01    9.963310e-01
  2.324600e+01    1.005915e+00
  2.326187e+01    9.848009e-01
  2.327775e+01    9.848125e-01
  2.329362e+01    9.979262e-01
  2.330950e+01    9.951279e-01
  2.332537e+01    9.979975e-01
  2.334125e+01    9.891740e-01
  2.335713e+01    9.737579e-01
  2.337300e+01    9.656276e-01
  2.338888e+01    9.824145e-01
  2.340475e+01    1.006341e+00
  2.342063e+01    9.969005e-01
  2.343650e+01    9.825898e-01
  2.345238e+01    9.599504e-01
  2.346825e+01    9.836796e-01
  2.348413e+01    9.789449e-01
  2.350001e+01    9.648482e-01
  2.351588e+01    9.901814e-01
  2.353176e+01    9.772465e-01
  2.354763e+01    9.754529e-01
  2.356351e+01    9.825260e-01
  2.357938e+01    9.784119e-01
  2.359526e+01    9.673697e-01
  2.361113e+01    9.594181e-01
  2.362701e+01    9.612336e-01
  2.364289e+01    9.613320e-01
  2.365876e+01    9.654792e-01
  2.367464e+01    9.698851e-01
  2.369051e+01    9.615894e-01
  2.370639e+01    9.328766e-01
  2.372226e+01    9.363968e-01
  2.373814e+01    9.335083e-01
  2.375401e+01    9.404692e-01
  2.376989e+01    9.272951e-01
  2.378577e+01    9.319101e-01
  2.380164e+01    9.443142e-01
  2.381752e+01    9.364766e-01
  2.383339e+01    9.273683e-01
  2.384927e+01    9.433734e-01
  2.386514e+01    9.369411e-01
  2.388102e+01    9.214314e-01
  2.389689e+01    9.164872e-01
  2.391277e+01    9.170483e-01
  2.392865e+01    9.185184e-01
  2.394452e+01    8.965764e-01
  2.396040e+01    8.930588e-01
  2.397627e+01    8.994781e-01
  2.399215e+01    9.219301e-01
  2.400802e+01    9.191333e-01
  2.402390e+01    9.258362e-01
  2.403978e+01    8.998228e-01
  2.405565e+01    8.790491e-01
  2.407153e+01    8.744980e-01
  2.408740e+01    8.756790e-01
  2.410328e+01    8.735976e-01
  2.411915e+01    8.735588e-01
  2.413503e+01    8.959090e-01
  2.415090e+01    8.831754e-01
  2.416678e+01    8.908322e-01
  2.418266e+01    8.884591e-01
  2.419853e+01    8.946282e-01
  2.421441e+01    8.897787e-01
  2.423028e+01    8.867550e-01
  2.424616e+01    8.863601e-01
  2.426203e+01    8.814772e-01
  2.427791e+01    9.007494e-01
  2.429378e+01    8.920566e-01
  2.430966e+01    8.935878e-01
  2.432554e+01    8.931782e-01
  2.434141e+01    9.067323e-01
  2.435729e+01    8.884784e-01
  2.437316e+01    8.730724e-01
  2.438904e+01    8.828439e-01
  2.440491e+01    8.700699e-01
  2.442079e+01    8.903236e-01
  2.443666e+01    8.921909e-01
  2.445254e+01    8.725946e-01
  2.446842e+01    8.855493e-01
  2.448429e+01    8.991688e-01
  2.450017e+01    8.872339e-01
  2.451604e+01    9.029506e-01
  2.453192e+01    8.920579e-01
  2.454779e+01    9.035959e-01
  2.456367e+01    9.067273e-01
  2.457954e+01    9.009705e-01
  2.459542e+01    9.107011e-01
  2.461130e+01    9.152666e-01
  2.462717e+01    9.002437e-01
  2.464305e+01    9.094758e-01
  2.465892e+01    9.032241e-01
  2.467480e+01    8.968360e-01
  2.469067e+01    8.954810e-01
  2.470655e+01    8.907743e-01
  2.472242e+01    8.939885e-01
  2.473830e+01    8.731198e-01
  2.475418e+01    8.729517e-01
  2.477005e+01    9.105764e-01
  2.478593e+01    9.100218e-01
  2.480180e+01    8.918780e-01
  2.481768e+01    8.914167e-01
  2.483355e+01    9.053270e-01
  2.484943e+01    9.123279e-01
  2.486530e+01    9.078407e-01
  2.488118e+01    9.086362e-01
  2.489706e+01    8.997108e-01
  2.491293e+01    9.134175e-01
  2.492881e+01    8.840616e-01
  2.494468e+01    8.978600e-01
  2.496056e+01    9.092466e-01
  2.497643e+01    9.081547e-01
  2.499231e+01    9.086285e-01
  2.500819e+01    9.005808e-01
  2.502406e+01    8.902308e-01
  2.503994e+01    8.863645e-01
  2.505581e+01    9.114956e-01
  2.507169e+01    9.200132e-01
  2.508756e+01    9.183613e-01
  2.510344e+01    9.034598e-01
  2.511931e+01    9.098006e-01
  2.513519e+01    8.920738e-01
  2.515107e+01    9.176809e-01
  2.516694e+01    9.210634e-01
  2.518282e+01    9.261675e-01
  2.519869e+01    9.241320e-01
  2.521457e+01    9.211177e-01
  2.523044e+01    9.294655e-01
  2.524632e+01    9.364012e-01
  2.526219e+01    9.491811e-01
  2.527807e+01    9.609723e-01
  2.529395e+01    9.600321e-01
  2.530982e+01    9.608753e-01
  2.532570e+01    9.522969e-01
  2.534157e+01    9.612474e-01
  2.535745e+01    9.698920e-01
  2.537332e+01    9.902694e-01
  2.538920e+01    1.002174e+00
  2.540507e+01    1.013187e+00
  2.542095e+01    1.020037e+00
  2.543683e+01    1.012909e+00
  2.545270e+01    1.043494e+00
  2.546858e+01    1.043531e+00
  2.548445e+01    1.049934e+00
  2.550033e+01    1.078924e+00
  2.551620e+01    1.087889e+00
  2.553208e+01    1.082890e+00
  2.554795e+01    1.115631e+00
  2.556383e+01    1.141451e+00
  2.557971e+01    1.180211e+00
  2.559558e+01    1.212670e+00
  2.561146e+01    1.235175e+00
  2.562733e+01    1.278411e+00
  2.564321e+01    1.312060e+00
  2.565908e+01    1.375609e+00
  2.567496e+01    1.452415e+00
  2.569083e+01    1.512329e+00
  2.570671e+01    1.637334e+00
  2.572259e+01    1.754242e+00
  2.573846e+01    1.888977e+00
  2.575434e+01    2.077037e+00
  2.577021e+01    2.291778e+00
  2.578609e+01    2.571147e+00
  2.580196e+01    2.868645e+00
  2.581784e+01    3.257861e+00
  2.583371e+01    3.687765e+00
  2.584959e+01    4.180627e+00
  2.586547e+01    4.781985e+00
  2.588134e+01    5.328533e+00
  2.589722e+01    5.898580e+00
  2.591309e+01    6.487190e+00
  2.592897e+01    6.906593e+00
  2.594484e+01    7.205777e+00
  2.596072e+01    7.198305e+00
  2.597660e+01    6.967318e+00
  2.599247e+01    6.627912e+00
  2.600835e+01    6.049921e+00
  2.602422e+01    5.323183e+00
  2.604010e+01    4.618393e+00
  2.605597e+01    3.964898e+00
  2.607185e+01    3.462539e+00
  2.608772e+01    3.025491e+00
  2.610360e+01    2.663341e+00
  2.611948e+01    2.396964e+00
  2.613535e+01    2.139828e+00
  2.615123e+01    1.942894e+00
  2.616710e+01    1.815687e+00
  2.618298e+01    1.691403e+00
  2.619885e+01    1.602374e+00
  2.621473e+01    1.495218e+00
  2.623060e+01    1.393706e+00
  2.624648e+01    1.343542e+00
  2.626236e+01    1.311170e+00
  2.627823e+01    1.283834e+00
  2.629411e+01    1.218599e+00
  2.630998e+01    1.195382e+00
  2.632586e+01    1.156395e+00
  2.634173e+01    1.125468e+00
  2.635761e+01    1.109986e+00
  2.637348e+01    1.091030e+00
  2.638936e+01    1.066044e+00
  2.640524e+01    1.038850e+00
  2.642111e+01    1.039888e+00
  2.643699e+01    1.047567e+00
  2.645286e+01    1.032249e+00
  2.646874e+01    1.025729e+00
  2.648461e+01    1.039600e+00
  2.650049e+01    1.021726e+00
  2.651636e+01    1.015882e+00
  2.653224e+01    1.007311e+00
  2.654812e+01    1.010744e+00
  2.656399e+01    1.014095e+00
  2.657987e+01    1.000171e+00
  2.659574e+01    9.820009e-01
  2.661162e+01    9.956489e-01
  2.662749e+01    9.858865e-01
  2.664337e+01    9.943322e-01
  2.665924e+01    9.953859e-01
  2.667512e+01    9.706998e-01
  2.669100e+01    9.779339e-01
  2.670687e+01    9.694443e-01
  2.672275e+01    9.660324e-01
  2.673862e+01    9.807065e-01
  2.675450e+01    9.811398e-01
  2.677037e+01    9.619681e-01
  2.678625e+01    9.554680e-01
  2.680212e+01    9.660420e-01
  2.681800e+01    9.814282e-01
  2.683388e+01    9.716726e-01
  2.684975e+01    9.847633e-01
  2.686563e+01    9.958409e-01
  2.688150e+01    1.003155e+00
  2.689738e+01    9.902751e-01
  2.691325e+01    9.963058e-01
  2.692913e+01    9.836458e-01
  2.694501e+01    1.009608e+00
  2.696088e+01    1.043271e+00
  2.697676e+01    1.071579e+00
  2.699263e+01    1.099195e+00
  2.700851e+01    1.137037e+00
  2.702438e+01    1.143944e+00
  2.704026e+01    1.209138e+00
  2.705613e+01    1.277434e+00
  2.707201e+01    1.332692e+00
  2.708789e+01    1.396613e+00
  2.710376e+01    1.525236e+00
  2.711964e+01    1.663963e+00
  2.713551e+01    1.776622e+00
  2.715139e+01    1.904389e+00
  2.716726e+01    1.985176e+00
  2.718314e+01    2.074367e+00
  2.719901e+01    2.129789e+00
  2.721489e+01    2.170029e+00
  2.723077e+01    2.154485e+00
  2.724664e+01    2.099833e+00
  2.726252e+01    1.982822e+00
  2.727839e+01    1.857373e+00
  2.729427e+01    1.728217e+00
  2.731014e+01    1.594627e+00
  2.732602e+01    1.467785e+00
  2.734189e+01    1.362151e+00
  2.735777e+01    1.295473e+00
  2.737365e+01    1.226451e+00
  2.738952e+01    1.152937e+00
  2.740540e+01    1.119275e+00
  2.742127e+01    1.077017e+00
  2.743715e+01    1.062139e+00
  2.745302e+01    1.069018e+00
  2.746890e+01    1.027790e+00
  2.748477e+01    9.944038e-01
  2.750065e+01    9.761146e-01
  2.751653e+01    9.766207e-01
  2.753240e+01    9.629224e-01
  2.754828e+01    9.598309e-01
  2.756415e+01    9.499986e-01
  2.758003e+01    9.254099e-01
  2.759590e+01    9.173241e-01
  2.761178e+01    9.263803e-01
  2.762765e+01    9.406245e-01
  2.764353e+01    9.253829e-01
  2.765941e+01    9.194580e-01
  2.767528e+01    9.037196e-01
  2.769116e+01    9.051505e-01
  2.770703e+01    9.061294e-01
  2.772291e+01    9.038860e-01
  2.773878e+01    9.067290e-01
  2.775466e+01    9.116473e-01
  2.777054e+01    9.157376e-01
  2.778641e+01    9.042358e-01
  2.780229e+01    8.862862e-01
  2.781816e+01    8.841933e-01
  2.783404e+01    8.889695e-01
  2.784991e+01    9.057376e-01
  2.786579e+01    8.973666e-01
  2.788166e+01    8.628258e-01
  2.789754e+01    8.724822e-01
  2.791342e+01    8.900667e-01
  2.792929e+01    8.974908e-01
  2.794517e+01    8.784198e-01
  2.796104e+01    8.666064e-01
  2.797692e+01    8.727353e-01
  2.799279e+01    8.761236e-01
  2.800867e+01    8.866736e-01
  2.802454e+01    8.586556e-01
  2.804042e+01    8.635693e-01
  2.805630e+01    8.757283e-01
  2.807217e+01    8.765870e-01
  2.808805e+01    8.717926e-01
  2.810392e+01    8.729854e-01
  2.811980e+01    8.793859e-01
  2.813567e+01    8.910940e-01
  2.815155e+01    8.843164e-01
  2.816742e+01    8.663931e-01
  2.818330e+01    8.501114e-01
  2.819918e+01    8.539600e-01
  2.821505e+01    8.742793e-01
  2.823093e+01    8.510206e-01
  2.824680e+01    8.598601e-01
  2.826268e+01    8.484306e-01
  2.827855e+01    8.305586e-01
  2.829443e+01    8.493451e-01
  2.831030e+01    8.552396e-01
  2.832618e+01    8.602423e-01
  2.834206e+01    8.568164e-01
  2.835793e+01    8.748269e-01
  2.837381e+01    8.472540e-01
  2.838968e+01    8.451281e-01
  2.840556e+01    8.569654e-01
  2.842143e+01    8.463480e-01
  2.843731e+01    8.477836e-01
  2.845318e+01    8.493613e-01
  2.846906e+01    8.400426e-01
  2.848494e+01    8.248767e-01
  2.850081e+01    8.528336e-01
  2.851669e+01    8.499194e-01
  2.853256e+01    8.350981e-01
  2.854844e+01    8.246478e-01
  2.856431e+01    8.271911e-01
  2.858019e+01    8.385199e-01
  2.859606e+01    8.473095e-01
  2.861194e+01    8.275357e-01
  2.862782e+01    8.162810e-01
  2.864369e+01    8.283576e-01
  2.865957e+01    8.227372e-01
  2.867544e+01    8.390254e-01
  2.869132e+01    8.245201e-01
  2.870719e+01    8.325157e-01
  2.872307e+01    8.302290e-01
  2.873895e+01    8.050682e-01
  2.875482e+01    8.503942e-01
  2.877070e+01    8.465949e-01
  2.878657e+01    8.666502e-01
  2.880245e+01    8.539820e-01
  2.881832e+01    8.418177e-01
  2.883420e+01    8.225509e-01
  2.885007e+01    8.317552e-01
  2.886595e+01    8.309246e-01
  2.888183e+01    8.069917e-01
  2.889770e+01    8.466796e-01
  2.891358e+01    8.489249e-01
  2.892945e+01    8.379390e-01
  2.894533e+01    8.092060e-01
  2.896120e+01    8.288006e-01
  2.897708e+01    8.224937e-01
  2.899295e+01    8.406056e-01
  2.900883e+01    8.203265e-01
  2.902471e+01    8.132983e-01
  2.904058e+01    8.233407e-01
  2.905646e+01    8.331338e-01
  2.907233e+01    8.453850e-01
  2.908821e+01    8.248733e-01
  2.910408e+01    8.287230e-01
  2.911996e+01    8.360603e-01
  2.913583e+01    8.215687e-01
  2.915171e+01    8.102657e-01
  2.916759e+01    8.289840e-01
  2.918346e+01    8.368233e-01
  2.919934e+01    8.366775e-01
  2.921521e+01    8.368577e-01
  2.923109e+01    8.241078e-01
  2.924696e+01    8.192997e-01
  2.926284e+01    8.081182e-01
  2.927871e+01    8.046227e-01
  2.929459e+01    8.256144e-01
  2.931047e+01    8.222252e-01
  2.932634e+01    8.217834e-01
  2.934222e+01    8.296538e-01
  2.935809e+01    8.267272e-01
  2.937397e+01    8.170274e-01
  2.938984e+01    8.149568e-01
  2.940572e+01    7.978657e-01
  2.942159e+01    8.266411e-01
  2.943747e+01    8.289425e-01
  2.945335e+01    8.152914e-01
  2.946922e+01    7.908711e-01
  2.948510e+01    8.029968e-01
  2.950097e+01    8.174648e-01
  2.951685e+01    8.052900e-01
  2.953272e+01    7.980013e-01
  2.954860e+01    8.266002e-01
  2.956447e+01    8.303189e-01
  2.958035e+01    8.196540e-01
  2.959623e+01    7.999147e-01
  2.961210e+01    7.971230e-01
  2.962798e+01    8.059573e-01
  2.964385e+01    8.266950e-01
  2.965973e+01    8.264469e-01
  2.967560e+01    7.832118e-01
  2.969148e+01    8.113118e-01
  2.970736e+01    8.242379e-01
  2.972323e+01    7.822213e-01
  2.973911e+01    7.576481e-01
  2.975498e+01    7.871936e-01
  2.977086e+01    8.012350e-01
  2.978673e+01    8.027448e-01
  2.980261e+01    8.141936e-01
  2.981848e+01    8.057696e-01
  2.983436e+01    7.865317e-01
  2.985024e+01    8.040988e-01
  2.986611e+01    7.899120e-01
  2.988199e+01    8.090685e-01
  2.989786e+01    8.027303e-01
  2.991374e+01    8.178246e-01
  2.992961e+01    8.262558e-01
  2.994549e+01    8.162133e-01
  2.996136e+01    8.107474e-01
  2.997724e+01    7.814026e-01
  2.999312e+01    7.963857e-01
  3.000899e+01    8.137654e-01
  3.002487e+01    8.234318e-01
  3.004074e+01    8.400944e-01
  3.005662e+01    8.402777e-01
  3.007249e+01    8.201445e-01
  3.008837e+01    8.152114e-01
  3.010424e+01    8.132150e-01
  3.012012e+01    8.017078e-01
  3.013600e+01    7.920593e-01
  3.015187e+01    7.981222e-01
  3.016775e+01    8.070311e-01
  3.018362e+01    7.881797e-01
  3.019950e+01    7.955727e-01
  3.021537e+01    8.017470e-01
  3.023125e+01    7.897981e-01
  3.024712e+01    7.825521e-01
  3.026300e+01    7.834567e-01
  3.027888e+01    7.879993e-01
  3.029475e+01    8.004097e-01
  3.031063e+01    7.991647e-01
  3.032650e+01    7.920569e-01
  3.034238e+01    7.711826e-01
  3.035825e+01    7.852342e-01
  3.037413e+01    7.872896e-01
  3.039000e+01    7.929943e-01
  3.040588e+01    7.755645e-01
  3.042176e+01    7.804670e-01
  3.043763e+01    7.883856e-01
  3.045351e+01    7.916531e-01
  3.046938e+01    8.054636e-01
  3.048526e+01    7.979004e-01
  3.050113e+01    8.111205e-01
  3.051701e+01    8.109393e-01
  3.053288e+01    7.896414e-01
  3.054876e+01    7.727689e-01
  3.056464e+01    7.965415e-01
  3.058051e+01    8.247069e-01
  3.059639e+01    7.854686e-01
  3.061226e+01    7.718990e-01
  3.062814e+01    7.772653e-01
  3.064401e+01    7.909181e-01
  3.065989e+01    8.010518e-01
  3.067577e+01    7.915590e-01
  3.069164e+01    7.997736e-01
  3.070752e+01    7.880309e-01
  3.072339e+01    7.690886e-01
  3.073927e+01    7.902560e-01
  3.075514e+01    7.951592e-01
  3.077102e+01    7.967314e-01
  3.078689e+01    7.824846e-01
  3.080277e+01    7.837882e-01
  3.081865e+01    7.706787e-01
  3.083452e+01    7.838176e-01
  3.085040e+01    7.916124e-01
  3.086627e+01    7.889073e-01
  3.088215e+01    8.122784e-01
  3.089802e+01    8.172693e-01
  3.091390e+01    8.064545e-01
  3.092977e+01    7.940636e-01
  3.094565e+01    7.937218e-01
  3.096153e+01    7.929375e-01
  3.097740e+01    7.977108e-01
  3.099328e+01    7.988919e-01
  3.100915e+01    7.929212e-01
  3.102503e+01    7.912043e-01
  3.104090e+01    7.983726e-01
  3.105678e+01    7.668644e-01
  3.107265e+01    7.894219e-01
  3.108853e+01    8.094409e-01
  3.110441e+01    7.992468e-01
  3.112028e+01    7.760575e-01
  3.113616e+01    7.992073e-01
  3.115203e+01    7.954525e-01
  3.116791e+01    7.988521e-01
  3.118378e+01    8.090407e-01
  3.119966e+01    7.892516e-01
  3.121553e+01    7.903305e-01
  3.123141e+01    8.148515e-01
  3.124729e+01    8.048120e-01
  3.126316e+01    8.148322e-01
  3.127904e+01    8.046165e-01
  3.129491e+01    8.027898e-01
  3.131079e+01    8.317016e-01
  3.132666e+01    8.302481e-01
  3.134254e+01    8.184386e-01
  3.135841e+01    8.342498e-01
  3.137429e+01    8.253260e-01
  3.139017e+01    8.211453e-01
  3.140604e+01    8.255469e-01
  3.142192e+01    8.274212e-01
  3.143779e+01    8.186009e-01
  3.145367e+01    8.439404e-01
  3.146954e+01    8.347807e-01
  3.148542e+01    8.133942e-01
  3.150129e+01    8.422701e-01
  3.151717e+01    8.535410e-01
  3.153305e+01    8.288898e-01
  3.154892e+01    8.471698e-01
  3.156480e+01    8.619978e-01
  3.158067e+01    8.655242e-01
  3.159655e+01    8.839061e-01
  3.161242e+01    8.883615e-01
  3.162830e+01    8.848290e-01
  3.164418e+01    9.217989e-01
  3.166005e+01    9.473370e-01
  3.167593e+01    9.584828e-01
  3.169180e+01    9.946627e-01
  3.170768e+01    1.043367e+00
  3.172355e+01    1.085933e+00
  3.173943e+01    1.134796e+00
  3.175530e+01    1.220387e+00
  3.177118e+01    1.299975e+00
  3.178706e+01    1.391183e+00
  3.180293e+01    1.516046e+00
  3.181881e+01    1.614507e+00
  3.183468e+01    1.725046e+00
  3.185056e+01    1.879642e+00
  3.186643e+01    2.008162e+00
  3.188231e+01    2.089699e+00
  3.189818e+01    2.110933e+00
  3.191406e+01    2.077394e+00
  3.192994e+01    2.070137e+00
  3.194581e+01    1.957638e+00
  3.196169e+01    1.802444e+00
  3.197756e+01    1.689968e+00
  3.199344e+01    1.556462e+00
  3.200931e+01    1.468235e+00
  3.202519e+01    1.330400e+00
  3.204106e+01    1.242779e+00
  3.205694e+01    1.119862e+00
  3.207282e+01    1.101485e+00
  3.208869e+01    1.032031e+00
  3.210457e+01    1.014874e+00
  3.212044e+01    9.980970e-01
  3.213632e+01    9.642546e-01
  3.215219e+01    9.121258e-01
  3.216807e+01    8.858849e-01
  3.218394e+01    8.799800e-01
  3.219982e+01    8.985217e-01
  3.221570e+01    8.605475e-01
  3.223157e+01    8.306867e-01
  3.224745e+01    8.464628e-01
  3.226332e+01    8.368123e-01
  3.227920e+01    8.471612e-01
  3.229507e+01    8.159119e-01
  3.231095e+01    8.172829e-01
  3.232682e+01    8.240969e-01
  3.234270e+01    8.087952e-01
  3.235858e+01    8.089923e-01
  3.237445e+01    7.938070e-01
  3.239033e+01    7.982385e-01
  3.240620e+01    8.036955e-01
  3.242208e+01    8.031278e-01
  3.243795e+01    7.846956e-01
  3.245383e+01    7.663559e-01
  3.246970e+01    7.871713e-01
  3.248558e+01    7.853697e-01
  3.250146e+01    7.754710e-01
  3.251733e+01    7.639091e-01
  3.253321e+01    7.911456e-01
  3.254908e+01    7.819820e-01
