# == pyFAI calibration ==
# Distance Sample to Detector: 0.3999999939076516 m
# PONI: 9.750e-02, 1.135e-01 m
# Rotations: -0.000175 0.000000 -0.000000 rad
# 
# == Fit2d calibration ==
# Distance Sample-beamCenter: 400.000 mm
# Center: x=1514.000, y=1300.000 pix
# Tilt: 0.010 deg  TiltPlanRot: 0.010 deg
# 
# Detector Detector	 Spline= None	 PixelSize= 7.500e-05, 7.500e-05 m
#    Detector has a mask: False 
#    Detector has a dark current: False 
#    detector has a flat field: False 
# 
# Wavelength: 6.888e-11 m
# Mask applied: user provided
# Dark current applied: False
# Flat field applied: False
# Polarization factor: 0.99
# Normalization factor: 1.0
# --> /home/myspot/data/2024_07_Rosario/Ru-CGO-ex/2024-07-27_003_Ru-CGO-ex_Reaction_dwell_000023_data_000067.dat
#       q_nm^-1             I 
  2.003187e-02    0.000000e+00
  3.590745e-02    0.000000e+00
  5.178302e-02    2.670345e-02
  6.765859e-02    2.319307e-01
  8.353417e-02    3.169171e-01
  9.940974e-02    1.404088e-01
  1.152853e-01    1.124813e-01
  1.311609e-01    6.506148e-02
  1.470365e-01    6.602252e-02
  1.629120e-01    2.226640e-03
  1.787876e-01    3.993881e-02
  1.946632e-01    4.694314e-02
  2.105388e-01    4.461325e-02
  2.264143e-01    5.461368e-02
  2.422899e-01    7.966809e-02
  2.581655e-01    3.342705e-02
  2.740411e-01    2.672603e-02
  2.899166e-01    2.260320e-02
  3.057922e-01    4.808360e-02
  3.216678e-01    3.795072e-02
  3.375433e-01    1.594121e-02
  3.534189e-01    7.128271e-02
  3.692945e-01    6.617536e-02
  3.851701e-01    9.700108e-02
  4.010456e-01    5.992525e-02
  4.169212e-01    3.494990e-02
  4.327968e-01    2.975128e-02
  4.486724e-01    4.560847e-02
  4.645479e-01    6.334612e-02
  4.804235e-01    5.362635e-02
  4.962991e-01    2.481589e-02
  5.121747e-01    2.662902e-02
  5.280502e-01    3.018853e-02
  5.439258e-01    2.989335e-02
  5.598014e-01    5.206558e-02
  5.756770e-01    3.091926e-02
  5.915525e-01    5.711834e-02
  6.074281e-01    4.394955e-02
  6.233037e-01    5.225912e-02
  6.391793e-01    4.419807e-02
  6.550548e-01    5.225569e-02
  6.709304e-01    6.664369e-02
  6.868060e-01    5.608198e-02
  7.026815e-01    5.754433e-02
  7.185571e-01    3.952074e-02
  7.344327e-01    3.652287e-02
  7.503083e-01    5.555425e-02
  7.661838e-01    6.753073e-02
  7.820594e-01    1.196371e-01
  7.979350e-01    1.945906e-01
  8.138106e-01    2.428769e-01
  8.296861e-01    3.329976e-01
  8.455617e-01    4.156780e-01
  8.614373e-01    4.324081e-01
  8.773129e-01    4.815513e-01
  8.931884e-01    5.443267e-01
  9.090640e-01    6.678389e-01
  9.249396e-01    7.578739e-01
  9.408152e-01    8.218347e-01
  9.566907e-01    8.842300e-01
  9.725663e-01    1.004429e+00
  9.884419e-01    1.128048e+00
  1.004317e+00    1.181167e+00
  1.020193e+00    1.299494e+00
  1.036069e+00    1.319386e+00
  1.051944e+00    1.531451e+00
  1.067820e+00    1.671924e+00
  1.083695e+00    1.610785e+00
  1.099571e+00    1.605964e+00
  1.115446e+00    1.554777e+00
  1.131322e+00    1.561990e+00
  1.147198e+00    1.739467e+00
  1.163073e+00    1.789748e+00
  1.178949e+00    1.748217e+00
  1.194824e+00    1.820497e+00
  1.210700e+00    2.013802e+00
  1.226575e+00    2.260546e+00
  1.242451e+00    2.273542e+00
  1.258327e+00    2.420224e+00
  1.274202e+00    2.570652e+00
  1.290078e+00    2.654579e+00
  1.305953e+00    2.715384e+00
  1.321829e+00    2.686405e+00
  1.337705e+00    2.716553e+00
  1.353580e+00    2.725756e+00
  1.369456e+00    2.767910e+00
  1.385331e+00    2.905972e+00
  1.401207e+00    2.895777e+00
  1.417082e+00    2.922520e+00
  1.432958e+00    3.054971e+00
  1.448834e+00    3.184830e+00
  1.464709e+00    3.088400e+00
  1.480585e+00    3.114360e+00
  1.496460e+00    3.166726e+00
  1.512336e+00    3.219476e+00
  1.528211e+00    3.215469e+00
  1.544087e+00    3.133452e+00
  1.559963e+00    3.104628e+00
  1.575838e+00    3.048393e+00
  1.591714e+00    3.143738e+00
  1.607589e+00    3.144212e+00
  1.623465e+00    3.230507e+00
  1.639340e+00    3.269239e+00
  1.655216e+00    3.067180e+00
  1.671092e+00    3.105549e+00
  1.686967e+00    3.101962e+00
  1.702843e+00    3.100192e+00
  1.718718e+00    3.083494e+00
  1.734594e+00    3.164399e+00
  1.750469e+00    3.105068e+00
  1.766345e+00    3.097317e+00
  1.782221e+00    2.962552e+00
  1.798096e+00    2.982191e+00
  1.813972e+00    3.025531e+00
  1.829847e+00    2.941876e+00
  1.845723e+00    2.906107e+00
  1.861598e+00    3.036337e+00
  1.877474e+00    3.074580e+00
  1.893350e+00    3.020746e+00
  1.909225e+00    3.142327e+00
  1.925101e+00    3.068147e+00
  1.940976e+00    3.113209e+00
  1.956852e+00    3.011248e+00
  1.972727e+00    3.146983e+00
  1.988603e+00    3.242771e+00
  2.004479e+00    3.244667e+00
  2.020354e+00    2.990464e+00
  2.036230e+00    3.015021e+00
  2.052105e+00    2.994396e+00
  2.067981e+00    2.992605e+00
  2.083856e+00    3.145552e+00
  2.099732e+00    3.098001e+00
  2.115608e+00    3.181566e+00
  2.131483e+00    3.096055e+00
  2.147359e+00    3.095844e+00
  2.163234e+00    3.188131e+00
  2.179110e+00    3.196908e+00
  2.194985e+00    3.191613e+00
  2.210861e+00    3.135254e+00
  2.226737e+00    3.107986e+00
  2.242612e+00    3.174196e+00
  2.258488e+00    3.045182e+00
  2.274363e+00    3.054244e+00
  2.290239e+00    3.099816e+00
  2.306115e+00    3.138597e+00
  2.321990e+00    3.210076e+00
  2.337866e+00    3.235079e+00
  2.353741e+00    3.225811e+00
  2.369617e+00    3.142235e+00
  2.385492e+00    3.109424e+00
  2.401368e+00    3.153198e+00
  2.417244e+00    3.162656e+00
  2.433119e+00    3.144306e+00
  2.448995e+00    3.170279e+00
  2.464870e+00    3.103014e+00
  2.480746e+00    3.163828e+00
  2.496621e+00    3.118998e+00
  2.512497e+00    3.097505e+00
  2.528373e+00    3.201313e+00
  2.544248e+00    3.247870e+00
  2.560124e+00    3.208132e+00
  2.575999e+00    3.137990e+00
  2.591875e+00    3.121973e+00
  2.607750e+00    3.278207e+00
  2.623626e+00    3.333008e+00
  2.639502e+00    3.303693e+00
  2.655377e+00    3.356834e+00
  2.671253e+00    3.224230e+00
  2.687128e+00    3.147161e+00
  2.703004e+00    3.157835e+00
  2.718879e+00    3.136309e+00
  2.734755e+00    3.180290e+00
  2.750631e+00    3.216303e+00
  2.766506e+00    3.257113e+00
  2.782382e+00    3.223725e+00
  2.798257e+00    3.288996e+00
  2.814133e+00    3.279052e+00
  2.830008e+00    3.320046e+00
  2.845884e+00    3.256397e+00
  2.861760e+00    3.335253e+00
  2.877635e+00    3.378283e+00
  2.893511e+00    3.292844e+00
  2.909386e+00    3.341969e+00
  2.925262e+00    3.440530e+00
  2.941137e+00    3.402043e+00
  2.957013e+00    3.303426e+00
  2.972889e+00    3.237399e+00
  2.988764e+00    3.283700e+00
  3.004640e+00    3.324580e+00
  3.020515e+00    3.339563e+00
  3.036391e+00    3.349415e+00
  3.052266e+00    3.279535e+00
  3.068142e+00    3.397739e+00
  3.084018e+00    3.419087e+00
  3.099893e+00    3.378924e+00
  3.115769e+00    3.426836e+00
  3.131644e+00    3.440928e+00
  3.147520e+00    3.406304e+00
  3.163395e+00    3.379205e+00
  3.179271e+00    3.319160e+00
  3.195147e+00    3.364588e+00
  3.211022e+00    3.363078e+00
  3.226898e+00    3.379487e+00
  3.242773e+00    3.372393e+00
  3.258649e+00    3.433333e+00
  3.274525e+00    3.408878e+00
  3.290400e+00    3.440125e+00
  3.306276e+00    3.465776e+00
  3.322151e+00    3.430002e+00
  3.338027e+00    3.421481e+00
  3.353902e+00    3.358595e+00
  3.369778e+00    3.390711e+00
  3.385654e+00    3.434994e+00
  3.401529e+00    3.420437e+00
  3.417405e+00    3.453773e+00
  3.433280e+00    3.546473e+00
  3.449156e+00    3.608172e+00
  3.465031e+00    3.477658e+00
  3.480907e+00    3.441242e+00
  3.496783e+00    3.496325e+00
  3.512658e+00    3.419950e+00
  3.528534e+00    3.492139e+00
  3.544409e+00    3.462203e+00
  3.560285e+00    3.412845e+00
  3.576160e+00    3.452159e+00
  3.592036e+00    3.523639e+00
  3.607912e+00    3.414088e+00
  3.623787e+00    3.418484e+00
  3.639663e+00    3.425632e+00
  3.655538e+00    3.504592e+00
  3.671414e+00    3.532560e+00
  3.687289e+00    3.413159e+00
  3.703165e+00    3.420731e+00
  3.719041e+00    3.510157e+00
  3.734916e+00    3.517061e+00
  3.750792e+00    3.519298e+00
  3.766667e+00    3.505378e+00
  3.782543e+00    3.459979e+00
  3.798418e+00    3.494473e+00
  3.814294e+00    3.546548e+00
  3.830170e+00    3.544738e+00
  3.846045e+00    3.526879e+00
  3.861921e+00    3.564966e+00
  3.877796e+00    3.600310e+00
  3.893672e+00    3.572170e+00
  3.909547e+00    3.500946e+00
  3.925423e+00    3.582567e+00
  3.941299e+00    3.539491e+00
  3.957174e+00    3.532415e+00
  3.973050e+00    3.488191e+00
  3.988925e+00    3.490684e+00
  4.004801e+00    3.547731e+00
  4.020676e+00    3.566858e+00
  4.036552e+00    3.508125e+00
  4.052428e+00    3.594577e+00
  4.068303e+00    3.575571e+00
  4.084179e+00    3.509122e+00
  4.100054e+00    3.574739e+00
  4.115930e+00    3.557943e+00
  4.131806e+00    3.563991e+00
  4.147681e+00    3.580173e+00
  4.163557e+00    3.561944e+00
  4.179432e+00    3.580601e+00
  4.195308e+00    3.570533e+00
  4.211183e+00    3.523536e+00
  4.227059e+00    3.527974e+00
  4.242935e+00    3.595665e+00
  4.258810e+00    3.620702e+00
  4.274686e+00    3.674678e+00
  4.290561e+00    3.724384e+00
  4.306437e+00    3.568983e+00
  4.322312e+00    3.537692e+00
  4.338188e+00    3.563134e+00
  4.354064e+00    3.520589e+00
  4.369939e+00    3.495862e+00
  4.385815e+00    3.469208e+00
  4.401690e+00    3.584650e+00
  4.417566e+00    3.593718e+00
  4.433441e+00    3.698650e+00
  4.449317e+00    3.595214e+00
  4.465193e+00    3.594872e+00
  4.481068e+00    3.592285e+00
  4.496944e+00    3.583620e+00
  4.512819e+00    3.547121e+00
  4.528695e+00    3.528124e+00
  4.544570e+00    3.607007e+00
  4.560446e+00    3.569490e+00
  4.576322e+00    3.558282e+00
  4.592197e+00    3.501313e+00
  4.608073e+00    3.575464e+00
  4.623948e+00    3.572730e+00
  4.639824e+00    3.575010e+00
  4.655699e+00    3.551846e+00
  4.671575e+00    3.581482e+00
  4.687451e+00    3.600843e+00
  4.703326e+00    3.568501e+00
  4.719202e+00    3.533696e+00
  4.735077e+00    3.603751e+00
  4.750953e+00    3.531210e+00
  4.766828e+00    3.534015e+00
  4.782704e+00    3.632780e+00
  4.798580e+00    3.651948e+00
  4.814455e+00    3.665563e+00
  4.830331e+00    3.709471e+00
  4.846206e+00    3.702294e+00
  4.862082e+00    3.621262e+00
  4.877957e+00    3.653487e+00
  4.893833e+00    3.601086e+00
  4.909709e+00    3.682047e+00
  4.925584e+00    3.757038e+00
  4.941460e+00    3.624433e+00
  4.957335e+00    3.603636e+00
  4.973211e+00    3.622099e+00
  4.989086e+00    3.565464e+00
  5.004962e+00    3.625273e+00
  5.020838e+00    3.653786e+00
  5.036713e+00    3.726987e+00
  5.052589e+00    3.734612e+00
  5.068464e+00    3.701987e+00
  5.084340e+00    3.707839e+00
  5.100216e+00    3.557516e+00
  5.116091e+00    3.570458e+00
  5.131967e+00    3.675496e+00
  5.147842e+00    3.713803e+00
  5.163718e+00    3.698558e+00
  5.179593e+00    3.601126e+00
  5.195469e+00    3.603262e+00
  5.211345e+00    3.639305e+00
  5.227220e+00    3.618294e+00
  5.243096e+00    3.652242e+00
  5.258971e+00    3.621773e+00
  5.274847e+00    3.604774e+00
  5.290722e+00    3.621732e+00
  5.306598e+00    3.680044e+00
  5.322474e+00    3.737143e+00
  5.338349e+00    3.679584e+00
  5.354225e+00    3.593493e+00
  5.370100e+00    3.653411e+00
  5.385976e+00    3.704276e+00
  5.401851e+00    3.746307e+00
  5.417727e+00    3.657704e+00
  5.433603e+00    3.606569e+00
  5.449478e+00    3.622645e+00
  5.465354e+00    3.607605e+00
  5.481229e+00    3.565516e+00
  5.497105e+00    3.559117e+00
  5.512980e+00    3.590957e+00
  5.528856e+00    3.561316e+00
  5.544732e+00    3.591185e+00
  5.560607e+00    3.544314e+00
  5.576483e+00    3.607160e+00
  5.592358e+00    3.662328e+00
  5.608234e+00    3.650852e+00
  5.624109e+00    3.618667e+00
  5.639985e+00    3.565988e+00
  5.655861e+00    3.562794e+00
  5.671736e+00    3.565134e+00
  5.687612e+00    3.622481e+00
  5.703487e+00    3.634576e+00
  5.719363e+00    3.586213e+00
  5.735238e+00    3.537052e+00
  5.751114e+00    3.571474e+00
  5.766990e+00    3.562709e+00
  5.782865e+00    3.537985e+00
  5.798741e+00    3.565957e+00
  5.814616e+00    3.593505e+00
  5.830492e+00    3.605346e+00
  5.846367e+00    3.629502e+00
  5.862243e+00    3.624973e+00
  5.878119e+00    3.626231e+00
  5.893994e+00    3.646635e+00
  5.909870e+00    3.609953e+00
  5.925745e+00    3.559458e+00
  5.941621e+00    3.481268e+00
  5.957497e+00    3.563335e+00
  5.973372e+00    3.504949e+00
  5.989248e+00    3.457275e+00
  6.005123e+00    3.493285e+00
  6.020999e+00    3.472097e+00
  6.036874e+00    3.514970e+00
  6.052750e+00    3.555200e+00
  6.068626e+00    3.591872e+00
  6.084501e+00    3.610597e+00
  6.100377e+00    3.547679e+00
  6.116252e+00    3.570843e+00
  6.132128e+00    3.600478e+00
  6.148003e+00    3.634099e+00
  6.163879e+00    3.618444e+00
  6.179755e+00    3.566524e+00
  6.195630e+00    3.577416e+00
  6.211506e+00    3.557428e+00
  6.227381e+00    3.533024e+00
  6.243257e+00    3.520154e+00
  6.259132e+00    3.549879e+00
  6.275008e+00    3.544622e+00
  6.290884e+00    3.519146e+00
  6.306759e+00    3.558096e+00
  6.322635e+00    3.559970e+00
  6.338510e+00    3.548073e+00
  6.354386e+00    3.567746e+00
  6.370261e+00    3.622780e+00
  6.386137e+00    3.540207e+00
  6.402013e+00    3.512891e+00
  6.417888e+00    3.538702e+00
  6.433764e+00    3.603467e+00
  6.449639e+00    3.553849e+00
  6.465515e+00    3.517804e+00
  6.481390e+00    3.568378e+00
  6.497266e+00    3.584417e+00
  6.513142e+00    3.529921e+00
  6.529017e+00    3.564991e+00
  6.544893e+00    3.538558e+00
  6.560768e+00    3.601844e+00
  6.576644e+00    3.558360e+00
  6.592519e+00    3.543681e+00
  6.608395e+00    3.534456e+00
  6.624271e+00    3.536650e+00
  6.640146e+00    3.521790e+00
  6.656022e+00    3.492283e+00
  6.671897e+00    3.476622e+00
  6.687773e+00    3.480893e+00
  6.703648e+00    3.523036e+00
  6.719524e+00    3.603157e+00
  6.735400e+00    3.569180e+00
  6.751275e+00    3.512975e+00
  6.767151e+00    3.507694e+00
  6.783026e+00    3.548444e+00
  6.798902e+00    3.513754e+00
  6.814777e+00    3.562906e+00
  6.830653e+00    3.524942e+00
  6.846529e+00    3.536170e+00
  6.862404e+00    3.530871e+00
  6.878280e+00    3.579202e+00
  6.894155e+00    3.629501e+00
  6.910031e+00    3.596611e+00
  6.925907e+00    3.550908e+00
  6.941782e+00    3.516977e+00
  6.957658e+00    3.512316e+00
  6.973533e+00    3.507335e+00
  6.989409e+00    3.578926e+00
  7.005284e+00    3.518896e+00
  7.021160e+00    3.506239e+00
  7.037036e+00    3.500138e+00
  7.052911e+00    3.499070e+00
  7.068787e+00    3.639543e+00
  7.084662e+00    3.668111e+00
  7.100538e+00    3.603206e+00
  7.116413e+00    3.485652e+00
  7.132289e+00    3.505768e+00
  7.148165e+00    3.535265e+00
  7.164040e+00    3.454212e+00
  7.179916e+00    3.467841e+00
  7.195791e+00    3.486112e+00
  7.211667e+00    3.514923e+00
  7.227542e+00    3.532759e+00
  7.243418e+00    3.556298e+00
  7.259294e+00    3.533321e+00
  7.275169e+00    3.508423e+00
  7.291045e+00    3.528559e+00
  7.306920e+00    3.542568e+00
  7.322796e+00    3.524760e+00
  7.338671e+00    3.469926e+00
  7.354547e+00    3.480670e+00
  7.370423e+00    3.415032e+00
  7.386298e+00    3.496147e+00
  7.402174e+00    3.551938e+00
  7.418049e+00    3.469041e+00
  7.433925e+00    3.480320e+00
  7.449800e+00    3.476750e+00
  7.465676e+00    3.464236e+00
  7.481552e+00    3.425456e+00
  7.497427e+00    3.469960e+00
  7.513303e+00    3.470419e+00
  7.529178e+00    3.441612e+00
  7.545054e+00    3.434833e+00
  7.560929e+00    3.441594e+00
  7.576805e+00    3.404977e+00
  7.592681e+00    3.509820e+00
  7.608556e+00    3.533534e+00
  7.624432e+00    3.510335e+00
  7.640307e+00    3.486126e+00
  7.656183e+00    3.448229e+00
  7.672058e+00    3.449960e+00
  7.687934e+00    3.460670e+00
  7.703810e+00    3.514772e+00
  7.719685e+00    3.518206e+00
  7.735561e+00    3.446357e+00
  7.751436e+00    3.417726e+00
  7.767312e+00    3.392791e+00
  7.783187e+00    3.421682e+00
  7.799063e+00    3.440171e+00
  7.814939e+00    3.440399e+00
  7.830814e+00    3.453236e+00
  7.846690e+00    3.457745e+00
  7.862565e+00    3.437208e+00
  7.878441e+00    3.432760e+00
  7.894317e+00    3.412575e+00
  7.910192e+00    3.402915e+00
  7.926068e+00    3.396754e+00
  7.941943e+00    3.462809e+00
  7.957819e+00    3.469301e+00
  7.973694e+00    3.396271e+00
  7.989570e+00    3.440992e+00
  8.005446e+00    3.426300e+00
  8.021321e+00    3.422685e+00
  8.037197e+00    3.399606e+00
  8.053072e+00    3.379539e+00
  8.068948e+00    3.434785e+00
  8.084823e+00    3.389065e+00
  8.100699e+00    3.466918e+00
  8.116575e+00    3.505936e+00
  8.132450e+00    3.488590e+00
  8.148326e+00    3.471104e+00
  8.164201e+00    3.443998e+00
  8.180077e+00    3.470958e+00
  8.195952e+00    3.494197e+00
  8.211828e+00    3.509180e+00
  8.227704e+00    3.539440e+00
  8.243579e+00    3.514997e+00
  8.259455e+00    3.486505e+00
  8.275330e+00    3.392502e+00
  8.291206e+00    3.352506e+00
  8.307081e+00    3.428860e+00
  8.322957e+00    3.416098e+00
  8.338833e+00    3.323489e+00
  8.354708e+00    3.290140e+00
  8.370584e+00    3.369325e+00
  8.386459e+00    3.396619e+00
  8.402335e+00    3.423781e+00
  8.418210e+00    3.463666e+00
  8.434086e+00    3.409150e+00
  8.449962e+00    3.380964e+00
  8.465837e+00    3.326962e+00
  8.481713e+00    3.407389e+00
  8.497588e+00    3.407224e+00
  8.513464e+00    3.400820e+00
  8.529339e+00    3.361516e+00
  8.545215e+00    3.313022e+00
  8.561091e+00    3.359443e+00
  8.576966e+00    3.321445e+00
  8.592842e+00    3.357497e+00
  8.608717e+00    3.351682e+00
  8.624593e+00    3.327607e+00
  8.640468e+00    3.259741e+00
  8.656344e+00    3.334815e+00
  8.672220e+00    3.389460e+00
  8.688095e+00    3.402695e+00
  8.703971e+00    3.333631e+00
  8.719846e+00    3.295901e+00
  8.735722e+00    3.290712e+00
  8.751598e+00    3.341584e+00
  8.767473e+00    3.345546e+00
  8.783349e+00    3.356243e+00
  8.799224e+00    3.350446e+00
  8.815100e+00    3.344814e+00
  8.830975e+00    3.316598e+00
  8.846851e+00    3.295527e+00
  8.862727e+00    3.330583e+00
  8.878602e+00    3.312207e+00
  8.894478e+00    3.309036e+00
  8.910353e+00    3.276609e+00
  8.926229e+00    3.277976e+00
  8.942104e+00    3.286994e+00
  8.957980e+00    3.213826e+00
  8.973856e+00    3.296033e+00
  8.989731e+00    3.331701e+00
  9.005607e+00    3.326455e+00
  9.021482e+00    3.262022e+00
  9.037358e+00    3.259563e+00
  9.053233e+00    3.295420e+00
  9.069109e+00    3.303164e+00
  9.084985e+00    3.290053e+00
  9.100860e+00    3.324479e+00
  9.116736e+00    3.325760e+00
  9.132611e+00    3.288490e+00
  9.148487e+00    3.260572e+00
  9.164362e+00    3.250413e+00
  9.180238e+00    3.288056e+00
  9.196114e+00    3.230747e+00
  9.211989e+00    3.221933e+00
  9.227865e+00    3.264140e+00
  9.243740e+00    3.297354e+00
  9.259616e+00    3.261634e+00
  9.275491e+00    3.219992e+00
  9.291367e+00    3.192642e+00
  9.307243e+00    3.228801e+00
  9.323118e+00    3.211952e+00
  9.338994e+00    3.185588e+00
  9.354869e+00    3.257475e+00
  9.370745e+00    3.261894e+00
  9.386620e+00    3.216100e+00
  9.402496e+00    3.208154e+00
  9.418372e+00    3.228007e+00
  9.434247e+00    3.226219e+00
  9.450123e+00    3.182041e+00
  9.465998e+00    3.168449e+00
  9.481874e+00    3.217726e+00
  9.497749e+00    3.236567e+00
  9.513625e+00    3.194591e+00
  9.529501e+00    3.181593e+00
  9.545376e+00    3.255922e+00
  9.561252e+00    3.217270e+00
  9.577127e+00    3.211447e+00
  9.593003e+00    3.269750e+00
  9.608878e+00    3.247003e+00
  9.624754e+00    3.273700e+00
  9.640630e+00    3.124001e+00
  9.656505e+00    3.204610e+00
  9.672381e+00    3.215378e+00
  9.688256e+00    3.158458e+00
  9.704132e+00    3.211447e+00
  9.720008e+00    3.169459e+00
  9.735883e+00    3.138037e+00
  9.751759e+00    3.130160e+00
  9.767634e+00    3.102007e+00
  9.783510e+00    3.092116e+00
  9.799385e+00    3.134893e+00
  9.815261e+00    3.173116e+00
  9.831137e+00    3.123643e+00
  9.847012e+00    3.141437e+00
  9.862888e+00    3.176552e+00
  9.878763e+00    3.106780e+00
  9.894639e+00    3.113917e+00
  9.910514e+00    3.121543e+00
  9.926390e+00    3.097364e+00
  9.942266e+00    3.150494e+00
  9.958141e+00    3.122876e+00
  9.974017e+00    3.066929e+00
  9.989892e+00    3.105730e+00
  1.000577e+01    3.138354e+00
  1.002164e+01    3.055327e+00
  1.003752e+01    3.073954e+00
  1.005339e+01    3.066612e+00
  1.006927e+01    3.118088e+00
  1.008515e+01    3.077766e+00
  1.010102e+01    3.155214e+00
  1.011690e+01    3.225239e+00
  1.013277e+01    3.122609e+00
  1.014865e+01    3.094146e+00
  1.016452e+01    3.105995e+00
  1.018040e+01    3.068556e+00
  1.019627e+01    3.042807e+00
  1.021215e+01    3.046455e+00
  1.022803e+01    3.062637e+00
  1.024390e+01    3.114068e+00
  1.025978e+01    3.018060e+00
  1.027565e+01    3.019876e+00
  1.029153e+01    2.989403e+00
  1.030740e+01    3.032998e+00
  1.032328e+01    3.086596e+00
  1.033915e+01    3.033081e+00
  1.035503e+01    3.037906e+00
  1.037091e+01    3.037895e+00
  1.038678e+01    3.012767e+00
  1.040266e+01    2.999387e+00
  1.041853e+01    3.004700e+00
  1.043441e+01    3.017646e+00
  1.045028e+01    2.988663e+00
  1.046616e+01    3.009697e+00
  1.048204e+01    3.033929e+00
  1.049791e+01    3.064932e+00
  1.051379e+01    3.033130e+00
  1.052966e+01    3.041739e+00
  1.054554e+01    3.007692e+00
  1.056141e+01    2.981766e+00
  1.057729e+01    2.992039e+00
  1.059316e+01    2.957157e+00
  1.060904e+01    2.979643e+00
  1.062492e+01    2.953352e+00
  1.064079e+01    2.971393e+00
  1.065667e+01    3.003321e+00
  1.067254e+01    3.000732e+00
  1.068842e+01    2.933425e+00
  1.070429e+01    2.974470e+00
  1.072017e+01    2.981972e+00
  1.073604e+01    2.981144e+00
  1.075192e+01    2.997754e+00
  1.076780e+01    2.932582e+00
  1.078367e+01    2.903614e+00
  1.079955e+01    2.904985e+00
  1.081542e+01    2.954410e+00
  1.083130e+01    2.969570e+00
  1.084717e+01    2.986952e+00
  1.086305e+01    2.949954e+00
  1.087892e+01    2.938918e+00
  1.089480e+01    2.960289e+00
  1.091068e+01    2.936580e+00
  1.092655e+01    2.953360e+00
  1.094243e+01    2.949891e+00
  1.095830e+01    2.917479e+00
  1.097418e+01    2.871166e+00
  1.099005e+01    2.882670e+00
  1.100593e+01    2.863067e+00
  1.102180e+01    2.899488e+00
  1.103768e+01    2.876221e+00
  1.105356e+01    2.878756e+00
  1.106943e+01    2.894967e+00
  1.108531e+01    2.869823e+00
  1.110118e+01    2.853428e+00
  1.111706e+01    2.884269e+00
  1.113293e+01    2.923525e+00
  1.114881e+01    2.895798e+00
  1.116468e+01    2.889073e+00
  1.118056e+01    2.862577e+00
  1.119644e+01    2.880881e+00
  1.121231e+01    2.874447e+00
  1.122819e+01    2.828629e+00
  1.124406e+01    2.861714e+00
  1.125994e+01    2.865774e+00
  1.127581e+01    2.840139e+00
  1.129169e+01    2.849246e+00
  1.130756e+01    2.833819e+00
  1.132344e+01    2.829798e+00
  1.133932e+01    2.790808e+00
  1.135519e+01    2.838070e+00
  1.137107e+01    2.821168e+00
  1.138694e+01    2.774356e+00
  1.140282e+01    2.822086e+00
  1.141869e+01    2.852865e+00
  1.143457e+01    2.799577e+00
  1.145045e+01    2.830632e+00
  1.146632e+01    2.813940e+00
  1.148220e+01    2.758815e+00
  1.149807e+01    2.791648e+00
  1.151395e+01    2.812917e+00
  1.152982e+01    2.818599e+00
  1.154570e+01    2.786533e+00
  1.156157e+01    2.837361e+00
  1.157745e+01    2.801913e+00
  1.159333e+01    2.789443e+00
  1.160920e+01    2.791721e+00
  1.162508e+01    2.843263e+00
  1.164095e+01    2.824988e+00
  1.165683e+01    2.734177e+00
  1.167270e+01    2.730134e+00
  1.168858e+01    2.800347e+00
  1.170445e+01    2.771780e+00
  1.172033e+01    2.746064e+00
  1.173621e+01    2.754655e+00
  1.175208e+01    2.762883e+00
  1.176796e+01    2.764939e+00
  1.178383e+01    2.764629e+00
  1.179971e+01    2.753246e+00
  1.181558e+01    2.725428e+00
  1.183146e+01    2.732532e+00
  1.184733e+01    2.719752e+00
  1.186321e+01    2.750872e+00
  1.187909e+01    2.753149e+00
  1.189496e+01    2.702409e+00
  1.191084e+01    2.693465e+00
  1.192671e+01    2.709502e+00
  1.194259e+01    2.718494e+00
  1.195846e+01    2.720644e+00
  1.197434e+01    2.726180e+00
  1.199021e+01    2.739264e+00
  1.200609e+01    2.698357e+00
  1.202197e+01    2.709428e+00
  1.203784e+01    2.730252e+00
  1.205372e+01    2.723014e+00
  1.206959e+01    2.701727e+00
  1.208547e+01    2.711270e+00
  1.210134e+01    2.679879e+00
  1.211722e+01    2.689224e+00
  1.213309e+01    2.725400e+00
  1.214897e+01    2.665691e+00
  1.216485e+01    2.653140e+00
  1.218072e+01    2.660434e+00
  1.219660e+01    2.659549e+00
  1.221247e+01    2.640004e+00
  1.222835e+01    2.736855e+00
  1.224422e+01    2.735759e+00
  1.226010e+01    2.715430e+00
  1.227597e+01    2.737264e+00
  1.229185e+01    2.689888e+00
  1.230773e+01    2.720144e+00
  1.232360e+01    2.683492e+00
  1.233948e+01    2.666812e+00
  1.235535e+01    2.619329e+00
  1.237123e+01    2.711711e+00
  1.238710e+01    2.772233e+00
  1.240298e+01    2.714316e+00
  1.241886e+01    2.740805e+00
  1.243473e+01    2.743205e+00
  1.245061e+01    2.699109e+00
  1.246648e+01    2.659786e+00
  1.248236e+01    2.678423e+00
  1.249823e+01    2.721465e+00
  1.251411e+01    2.719151e+00
  1.252998e+01    2.702327e+00
  1.254586e+01    2.721146e+00
  1.256174e+01    2.767914e+00
  1.257761e+01    2.737381e+00
  1.259349e+01    2.745106e+00
  1.260936e+01    2.779525e+00
  1.262524e+01    2.765453e+00
  1.264111e+01    2.776121e+00
  1.265699e+01    2.816875e+00
  1.267286e+01    2.822511e+00
  1.268874e+01    2.823889e+00
  1.270462e+01    2.858417e+00
  1.272049e+01    2.839456e+00
  1.273637e+01    2.859774e+00
  1.275224e+01    2.894027e+00
  1.276812e+01    2.931666e+00
  1.278399e+01    2.938173e+00
  1.279987e+01    2.948294e+00
  1.281574e+01    3.006231e+00
  1.283162e+01    3.092596e+00
  1.284750e+01    3.163458e+00
  1.286337e+01    3.306435e+00
  1.287925e+01    3.417037e+00
  1.289512e+01    3.524129e+00
  1.291100e+01    3.656792e+00
  1.292687e+01    3.850055e+00
  1.294275e+01    4.078137e+00
  1.295862e+01    4.408946e+00
  1.297450e+01    4.795704e+00
  1.299038e+01    5.317935e+00
  1.300625e+01    5.891901e+00
  1.302213e+01    6.730332e+00
  1.303800e+01    7.782543e+00
  1.305388e+01    8.989154e+00
  1.306975e+01    1.020815e+01
  1.308563e+01    1.143930e+01
  1.310150e+01    1.283554e+01
  1.311738e+01    1.388575e+01
  1.313326e+01    1.480560e+01
  1.314913e+01    1.570937e+01
  1.316501e+01    1.628277e+01
  1.318088e+01    1.625357e+01
  1.319676e+01    1.553485e+01
  1.321263e+01    1.412192e+01
  1.322851e+01    1.239230e+01
  1.324438e+01    1.064330e+01
  1.326026e+01    9.154071e+00
  1.327614e+01    7.775019e+00
  1.329201e+01    6.669765e+00
  1.330789e+01    5.908021e+00
  1.332376e+01    5.288309e+00
  1.333964e+01    4.791283e+00
  1.335551e+01    4.392800e+00
  1.337139e+01    4.064101e+00
  1.338727e+01    3.790017e+00
  1.340314e+01    3.637034e+00
  1.341902e+01    3.467673e+00
  1.343489e+01    3.357574e+00
  1.345077e+01    3.204645e+00
  1.346664e+01    3.090408e+00
  1.348252e+01    3.066442e+00
  1.349839e+01    3.036952e+00
  1.351427e+01    2.931617e+00
  1.353015e+01    2.831878e+00
  1.354602e+01    2.792879e+00
  1.356190e+01    2.806134e+00
  1.357777e+01    2.766539e+00
  1.359365e+01    2.705139e+00
  1.360952e+01    2.714827e+00
  1.362540e+01    2.691454e+00
  1.364127e+01    2.613354e+00
  1.365715e+01    2.589250e+00
  1.367303e+01    2.582207e+00
  1.368890e+01    2.581971e+00
  1.370478e+01    2.540132e+00
  1.372065e+01    2.521032e+00
  1.373653e+01    2.495815e+00
  1.375240e+01    2.474311e+00
  1.376828e+01    2.435220e+00
  1.378415e+01    2.443157e+00
  1.380003e+01    2.465020e+00
  1.381591e+01    2.458087e+00
  1.383178e+01    2.424096e+00
  1.384766e+01    2.386725e+00
  1.386353e+01    2.426066e+00
  1.387941e+01    2.438108e+00
  1.389528e+01    2.460205e+00
  1.391116e+01    2.409054e+00
  1.392703e+01    2.431375e+00
  1.394291e+01    2.421323e+00
  1.395879e+01    2.393103e+00
  1.397466e+01    2.368061e+00
  1.399054e+01    2.355577e+00
  1.400641e+01    2.386349e+00
  1.402229e+01    2.391200e+00
  1.403816e+01    2.394156e+00
  1.405404e+01    2.321672e+00
  1.406991e+01    2.306104e+00
  1.408579e+01    2.331840e+00
  1.410167e+01    2.304007e+00
  1.411754e+01    2.281739e+00
  1.413342e+01    2.302364e+00
  1.414929e+01    2.301292e+00
  1.416517e+01    2.312432e+00
  1.418104e+01    2.306464e+00
  1.419692e+01    2.251999e+00
  1.421279e+01    2.258995e+00
  1.422867e+01    2.254585e+00
  1.424455e+01    2.320631e+00
  1.426042e+01    2.266684e+00
  1.427630e+01    2.261204e+00
  1.429217e+01    2.277748e+00
  1.430805e+01    2.273037e+00
  1.432392e+01    2.284964e+00
  1.433980e+01    2.283249e+00
  1.435568e+01    2.253747e+00
  1.437155e+01    2.253703e+00
  1.438743e+01    2.250682e+00
  1.440330e+01    2.217124e+00
  1.441918e+01    2.207515e+00
  1.443505e+01    2.242265e+00
  1.445093e+01    2.218237e+00
  1.446680e+01    2.245239e+00
  1.448268e+01    2.236356e+00
  1.449856e+01    2.208685e+00
  1.451443e+01    2.237458e+00
  1.453031e+01    2.230763e+00
  1.454618e+01    2.231379e+00
  1.456206e+01    2.214156e+00
  1.457793e+01    2.200582e+00
  1.459381e+01    2.238216e+00
  1.460968e+01    2.195433e+00
  1.462556e+01    2.181573e+00
  1.464144e+01    2.218522e+00
  1.465731e+01    2.228767e+00
  1.467319e+01    2.196968e+00
  1.468906e+01    2.193818e+00
  1.470494e+01    2.192307e+00
  1.472081e+01    2.203799e+00
  1.473669e+01    2.186334e+00
  1.475256e+01    2.178347e+00
  1.476844e+01    2.176137e+00
  1.478432e+01    2.183432e+00
  1.480019e+01    2.168458e+00
  1.481607e+01    2.208811e+00
  1.483194e+01    2.225403e+00
  1.484782e+01    2.218462e+00
  1.486369e+01    2.190377e+00
  1.487957e+01    2.225550e+00
  1.489544e+01    2.264090e+00
  1.491132e+01    2.245155e+00
  1.492720e+01    2.254817e+00
  1.494307e+01    2.261603e+00
  1.495895e+01    2.307972e+00
  1.497482e+01    2.348158e+00
  1.499070e+01    2.386993e+00
  1.500657e+01    2.504449e+00
  1.502245e+01    2.570207e+00
  1.503832e+01    2.616901e+00
  1.505420e+01    2.685989e+00
  1.507008e+01    2.825289e+00
  1.508595e+01    3.019372e+00
  1.510183e+01    3.282493e+00
  1.511770e+01    3.569290e+00
  1.513358e+01    3.824651e+00
  1.514945e+01    4.206842e+00
  1.516533e+01    4.553489e+00
  1.518120e+01    4.906092e+00
  1.519708e+01    5.218946e+00
  1.521296e+01    5.421679e+00
  1.522883e+01    5.643698e+00
  1.524471e+01    5.699196e+00
  1.526058e+01    5.779218e+00
  1.527646e+01    5.778741e+00
  1.529233e+01    5.456647e+00
  1.530821e+01    5.107999e+00
  1.532409e+01    4.645190e+00
  1.533996e+01    4.183121e+00
  1.535584e+01    3.710881e+00
  1.537171e+01    3.409901e+00
  1.538759e+01    3.150846e+00
  1.540346e+01    2.956543e+00
  1.541934e+01    2.795609e+00
  1.543521e+01    2.605137e+00
  1.545109e+01    2.480567e+00
  1.546697e+01    2.412065e+00
  1.548284e+01    2.359014e+00
  1.549872e+01    2.272413e+00
  1.551459e+01    2.243964e+00
  1.553047e+01    2.229045e+00
  1.554634e+01    2.194373e+00
  1.556222e+01    2.149401e+00
  1.557809e+01    2.152946e+00
  1.559397e+01    2.077458e+00
  1.560985e+01    2.084290e+00
  1.562572e+01    2.075743e+00
  1.564160e+01    2.024107e+00
  1.565747e+01    2.027186e+00
  1.567335e+01    2.024854e+00
  1.568922e+01    2.001084e+00
  1.570510e+01    2.008399e+00
  1.572097e+01    2.013304e+00
  1.573685e+01    1.999708e+00
  1.575273e+01    1.991386e+00
  1.576860e+01    1.973878e+00
  1.578448e+01    1.959882e+00
  1.580035e+01    1.974678e+00
  1.581623e+01    1.968086e+00
  1.583210e+01    1.945213e+00
  1.584798e+01    1.938306e+00
  1.586385e+01    1.903362e+00
  1.587973e+01    1.899778e+00
  1.589561e+01    1.921132e+00
  1.591148e+01    1.904701e+00
  1.592736e+01    1.910955e+00
  1.594323e+01    1.905343e+00
  1.595911e+01    1.907834e+00
  1.597498e+01    1.887841e+00
  1.599086e+01    1.862302e+00
  1.600673e+01    1.807754e+00
  1.602261e+01    1.834745e+00
  1.603849e+01    1.875052e+00
  1.605436e+01    1.854617e+00
  1.607024e+01    1.844788e+00
  1.608611e+01    1.854372e+00
  1.610199e+01    1.848604e+00
  1.611786e+01    1.843840e+00
  1.613374e+01    1.829833e+00
  1.614961e+01    1.851454e+00
  1.616549e+01    1.859231e+00
  1.618137e+01    1.836164e+00
  1.619724e+01    1.798406e+00
  1.621312e+01    1.769932e+00
  1.622899e+01    1.825427e+00
  1.624487e+01    1.837503e+00
  1.626074e+01    1.816914e+00
  1.627662e+01    1.794023e+00
  1.629250e+01    1.809413e+00
  1.630837e+01    1.815016e+00
  1.632425e+01    1.777194e+00
  1.634012e+01    1.795377e+00
  1.635600e+01    1.814658e+00
  1.637187e+01    1.788250e+00
  1.638775e+01    1.782291e+00
  1.640362e+01    1.765896e+00
  1.641950e+01    1.785470e+00
  1.643538e+01    1.772763e+00
  1.645125e+01    1.735962e+00
  1.646713e+01    1.763836e+00
  1.648300e+01    1.744751e+00
  1.649888e+01    1.754500e+00
  1.651475e+01    1.773027e+00
  1.653063e+01    1.761873e+00
  1.654650e+01    1.745711e+00
  1.656238e+01    1.727089e+00
  1.657826e+01    1.737586e+00
  1.659413e+01    1.712803e+00
  1.661001e+01    1.742607e+00
  1.662588e+01    1.721619e+00
  1.664176e+01    1.702419e+00
  1.665763e+01    1.719598e+00
  1.667351e+01    1.715464e+00
  1.668938e+01    1.715221e+00
  1.670526e+01    1.690275e+00
  1.672114e+01    1.705176e+00
  1.673701e+01    1.719836e+00
  1.675289e+01    1.731466e+00
  1.676876e+01    1.722381e+00
  1.678464e+01    1.716216e+00
  1.680051e+01    1.720270e+00
  1.681639e+01    1.735414e+00
  1.683226e+01    1.735755e+00
  1.684814e+01    1.711615e+00
  1.686402e+01    1.718425e+00
  1.687989e+01    1.703291e+00
  1.689577e+01    1.686864e+00
  1.691164e+01    1.692441e+00
  1.692752e+01    1.681329e+00
  1.694339e+01    1.705695e+00
  1.695927e+01    1.682666e+00
  1.697514e+01    1.686208e+00
  1.699102e+01    1.652002e+00
  1.700690e+01    1.645931e+00
  1.702277e+01    1.637794e+00
  1.703865e+01    1.664138e+00
  1.705452e+01    1.671585e+00
  1.707040e+01    1.698653e+00
  1.708627e+01    1.696915e+00
  1.710215e+01    1.676118e+00
  1.711802e+01    1.676881e+00
  1.713390e+01    1.655237e+00
  1.714978e+01    1.647895e+00
  1.716565e+01    1.613025e+00
  1.718153e+01    1.654745e+00
  1.719740e+01    1.642405e+00
  1.721328e+01    1.645206e+00
  1.722915e+01    1.661779e+00
  1.724503e+01    1.639794e+00
  1.726091e+01    1.651183e+00
  1.727678e+01    1.632960e+00
  1.729266e+01    1.617142e+00
  1.730853e+01    1.620016e+00
  1.732441e+01    1.612261e+00
  1.734028e+01    1.618418e+00
  1.735616e+01    1.618484e+00
  1.737203e+01    1.650611e+00
  1.738791e+01    1.609846e+00
  1.740379e+01    1.580495e+00
  1.741966e+01    1.569422e+00
  1.743554e+01    1.606533e+00
  1.745141e+01    1.582837e+00
  1.746729e+01    1.585175e+00
  1.748316e+01    1.589770e+00
  1.749904e+01    1.587771e+00
  1.751491e+01    1.575025e+00
  1.753079e+01    1.589444e+00
  1.754667e+01    1.552401e+00
  1.756254e+01    1.585249e+00
  1.757842e+01    1.570370e+00
  1.759429e+01    1.568884e+00
  1.761017e+01    1.588339e+00
  1.762604e+01    1.586485e+00
  1.764192e+01    1.580200e+00
  1.765779e+01    1.555591e+00
  1.767367e+01    1.550287e+00
  1.768955e+01    1.564822e+00
  1.770542e+01    1.540233e+00
  1.772130e+01    1.553654e+00
  1.773717e+01    1.563876e+00
  1.775305e+01    1.521604e+00
  1.776892e+01    1.542242e+00
  1.778480e+01    1.533341e+00
  1.780067e+01    1.545505e+00
  1.781655e+01    1.533080e+00
  1.783243e+01    1.522730e+00
  1.784830e+01    1.528610e+00
  1.786418e+01    1.486227e+00
  1.788005e+01    1.522454e+00
  1.789593e+01    1.546081e+00
  1.791180e+01    1.534676e+00
  1.792768e+01    1.513227e+00
  1.794355e+01    1.500137e+00
  1.795943e+01    1.542882e+00
  1.797531e+01    1.504536e+00
  1.799118e+01    1.518484e+00
  1.800706e+01    1.520117e+00
  1.802293e+01    1.501759e+00
  1.803881e+01    1.487702e+00
  1.805468e+01    1.475609e+00
  1.807056e+01    1.459364e+00
  1.808643e+01    1.468042e+00
  1.810231e+01    1.483434e+00
  1.811819e+01    1.497027e+00
  1.813406e+01    1.475415e+00
  1.814994e+01    1.511813e+00
  1.816581e+01    1.508646e+00
  1.818169e+01    1.458443e+00
  1.819756e+01    1.463476e+00
  1.821344e+01    1.472248e+00
  1.822932e+01    1.474970e+00
  1.824519e+01    1.482196e+00
  1.826107e+01    1.458319e+00
  1.827694e+01    1.455853e+00
  1.829282e+01    1.467620e+00
  1.830869e+01    1.468744e+00
  1.832457e+01    1.503870e+00
  1.834044e+01    1.470365e+00
  1.835632e+01    1.466076e+00
  1.837220e+01    1.439416e+00
  1.838807e+01    1.453951e+00
  1.840395e+01    1.466721e+00
  1.841982e+01    1.435459e+00
  1.843570e+01    1.437073e+00
  1.845157e+01    1.452763e+00
  1.846745e+01    1.457561e+00
  1.848332e+01    1.466854e+00
  1.849920e+01    1.497465e+00
  1.851508e+01    1.453439e+00
  1.853095e+01    1.436739e+00
  1.854683e+01    1.421862e+00
  1.856270e+01    1.407223e+00
  1.857858e+01    1.441541e+00
  1.859445e+01    1.443475e+00
  1.861033e+01    1.412017e+00
  1.862620e+01    1.402740e+00
  1.864208e+01    1.419055e+00
  1.865796e+01    1.436823e+00
  1.867383e+01    1.426923e+00
  1.868971e+01    1.416409e+00
  1.870558e+01    1.429460e+00
  1.872146e+01    1.412532e+00
  1.873733e+01    1.429574e+00
  1.875321e+01    1.407222e+00
  1.876908e+01    1.405164e+00
  1.878496e+01    1.409566e+00
  1.880084e+01    1.447165e+00
  1.881671e+01    1.414846e+00
  1.883259e+01    1.418222e+00
  1.884846e+01    1.417117e+00
  1.886434e+01    1.375631e+00
  1.888021e+01    1.356420e+00
  1.889609e+01    1.388596e+00
  1.891196e+01    1.407372e+00
  1.892784e+01    1.398057e+00
  1.894372e+01    1.393990e+00
  1.895959e+01    1.406634e+00
  1.897547e+01    1.414165e+00
  1.899134e+01    1.405263e+00
  1.900722e+01    1.423538e+00
  1.902309e+01    1.414385e+00
  1.903897e+01    1.392548e+00
  1.905484e+01    1.399111e+00
  1.907072e+01    1.388267e+00
  1.908660e+01    1.367454e+00
  1.910247e+01    1.337949e+00
  1.911835e+01    1.371571e+00
  1.913422e+01    1.396530e+00
  1.915010e+01    1.397983e+00
  1.916597e+01    1.372031e+00
  1.918185e+01    1.353783e+00
  1.919773e+01    1.358829e+00
  1.921360e+01    1.369841e+00
  1.922948e+01    1.341951e+00
  1.924535e+01    1.377398e+00
  1.926123e+01    1.363983e+00
  1.927710e+01    1.350479e+00
  1.929298e+01    1.351845e+00
  1.930885e+01    1.350735e+00
  1.932473e+01    1.332789e+00
  1.934061e+01    1.338742e+00
  1.935648e+01    1.344367e+00
  1.937236e+01    1.346193e+00
  1.938823e+01    1.358659e+00
  1.940411e+01    1.358538e+00
  1.941998e+01    1.349614e+00
  1.943586e+01    1.342319e+00
  1.945173e+01    1.344927e+00
  1.946761e+01    1.325045e+00
  1.948349e+01    1.353181e+00
  1.949936e+01    1.352413e+00
  1.951524e+01    1.344094e+00
  1.953111e+01    1.356207e+00
  1.954699e+01    1.348110e+00
  1.956286e+01    1.333297e+00
  1.957874e+01    1.320552e+00
  1.959461e+01    1.317010e+00
  1.961049e+01    1.313438e+00
  1.962637e+01    1.337403e+00
  1.964224e+01    1.291824e+00
  1.965812e+01    1.292372e+00
  1.967399e+01    1.306286e+00
  1.968987e+01    1.310722e+00
  1.970574e+01    1.315025e+00
  1.972162e+01    1.303016e+00
  1.973749e+01    1.301745e+00
  1.975337e+01    1.291889e+00
  1.976925e+01    1.298923e+00
  1.978512e+01    1.301656e+00
  1.980100e+01    1.309018e+00
  1.981687e+01    1.303497e+00
  1.983275e+01    1.310434e+00
  1.984862e+01    1.310057e+00
  1.986450e+01    1.318149e+00
  1.988037e+01    1.303341e+00
  1.989625e+01    1.272517e+00
  1.991213e+01    1.282629e+00
  1.992800e+01    1.264498e+00
  1.994388e+01    1.260060e+00
  1.995975e+01    1.271462e+00
  1.997563e+01    1.293697e+00
  1.999150e+01    1.283886e+00
  2.000738e+01    1.269458e+00
  2.002325e+01    1.296112e+00
  2.003913e+01    1.304086e+00
  2.005501e+01    1.297426e+00
  2.007088e+01    1.282911e+00
  2.008676e+01    1.246175e+00
  2.010263e+01    1.247958e+00
  2.011851e+01    1.264862e+00
  2.013438e+01    1.248919e+00
  2.015026e+01    1.249649e+00
  2.016614e+01    1.264916e+00
  2.018201e+01    1.270004e+00
  2.019789e+01    1.262533e+00
  2.021376e+01    1.266015e+00
  2.022964e+01    1.293656e+00
  2.024551e+01    1.248065e+00
  2.026139e+01    1.241003e+00
  2.027726e+01    1.243238e+00
  2.029314e+01    1.216073e+00
  2.030902e+01    1.202038e+00
  2.032489e+01    1.207155e+00
  2.034077e+01    1.231852e+00
  2.035664e+01    1.269904e+00
  2.037252e+01    1.291007e+00
  2.038839e+01    1.267340e+00
  2.040427e+01    1.235694e+00
  2.042014e+01    1.244715e+00
  2.043602e+01    1.261656e+00
  2.045190e+01    1.234130e+00
  2.046777e+01    1.237131e+00
  2.048365e+01    1.233928e+00
  2.049952e+01    1.242798e+00
  2.051540e+01    1.248988e+00
  2.053127e+01    1.254092e+00
  2.054715e+01    1.245750e+00
  2.056302e+01    1.243162e+00
  2.057890e+01    1.227933e+00
  2.059478e+01    1.229261e+00
  2.061065e+01    1.236757e+00
  2.062653e+01    1.219985e+00
  2.064240e+01    1.235931e+00
  2.065828e+01    1.233413e+00
  2.067415e+01    1.205012e+00
  2.069003e+01    1.231284e+00
  2.070590e+01    1.230192e+00
  2.072178e+01    1.239468e+00
  2.073766e+01    1.267815e+00
  2.075353e+01    1.260723e+00
  2.076941e+01    1.243828e+00
  2.078528e+01    1.242914e+00
  2.080116e+01    1.227019e+00
  2.081703e+01    1.231516e+00
  2.083291e+01    1.229327e+00
  2.084878e+01    1.233101e+00
  2.086466e+01    1.235876e+00
  2.088054e+01    1.233258e+00
  2.089641e+01    1.232733e+00
  2.091229e+01    1.213257e+00
  2.092816e+01    1.234776e+00
  2.094404e+01    1.237465e+00
  2.095991e+01    1.215699e+00
  2.097579e+01    1.206329e+00
  2.099166e+01    1.232279e+00
  2.100754e+01    1.225541e+00
  2.102342e+01    1.210099e+00
  2.103929e+01    1.227734e+00
  2.105517e+01    1.214258e+00
  2.107104e+01    1.235970e+00
  2.108692e+01    1.225433e+00
  2.110279e+01    1.201705e+00
  2.111867e+01    1.204904e+00
  2.113455e+01    1.240649e+00
  2.115042e+01    1.245963e+00
  2.116630e+01    1.228823e+00
  2.118217e+01    1.229270e+00
  2.119805e+01    1.236523e+00
  2.121392e+01    1.243524e+00
  2.122980e+01    1.229547e+00
  2.124567e+01    1.213512e+00
  2.126155e+01    1.254359e+00
  2.127743e+01    1.274830e+00
  2.129330e+01    1.253061e+00
  2.130918e+01    1.241489e+00
  2.132505e+01    1.277782e+00
  2.134093e+01    1.264293e+00
  2.135680e+01    1.283278e+00
  2.137268e+01    1.295512e+00
  2.138855e+01    1.309691e+00
  2.140443e+01    1.327197e+00
  2.142031e+01    1.339723e+00
  2.143618e+01    1.341668e+00
  2.145206e+01    1.362957e+00
  2.146793e+01    1.371833e+00
  2.148381e+01    1.409255e+00
  2.149968e+01    1.462851e+00
  2.151556e+01    1.444812e+00
  2.153143e+01    1.483818e+00
  2.154731e+01    1.526383e+00
  2.156319e+01    1.566156e+00
  2.157906e+01    1.632943e+00
  2.159494e+01    1.693095e+00
  2.161081e+01    1.792059e+00
  2.162669e+01    1.847682e+00
  2.164256e+01    1.978048e+00
  2.165844e+01    2.135461e+00
  2.167431e+01    2.318718e+00
  2.169019e+01    2.563419e+00
  2.170607e+01    2.794671e+00
  2.172194e+01    3.151472e+00
  2.173782e+01    3.551032e+00
  2.175369e+01    4.052052e+00
  2.176957e+01    4.621509e+00
  2.178544e+01    5.253294e+00
  2.180132e+01    5.940361e+00
  2.181719e+01    6.578479e+00
  2.183307e+01    7.220533e+00
  2.184895e+01    7.885328e+00
  2.186482e+01    8.372714e+00
  2.188070e+01    8.790692e+00
  2.189657e+01    8.924315e+00
  2.191245e+01    8.646315e+00
  2.192832e+01    8.074301e+00
  2.194420e+01    7.379590e+00
  2.196007e+01    6.491395e+00
  2.197595e+01    5.544955e+00
  2.199183e+01    4.817132e+00
  2.200770e+01    4.112176e+00
  2.202358e+01    3.570032e+00
  2.203945e+01    3.139043e+00
  2.205533e+01    2.837042e+00
  2.207120e+01    2.545192e+00
  2.208708e+01    2.291828e+00
  2.210296e+01    2.155790e+00
  2.211883e+01    1.994183e+00
  2.213471e+01    1.859655e+00
  2.215058e+01    1.744638e+00
  2.216646e+01    1.659874e+00
  2.218233e+01    1.593773e+00
  2.219821e+01    1.513242e+00
  2.221408e+01    1.465133e+00
  2.222996e+01    1.442015e+00
  2.224584e+01    1.424840e+00
  2.226171e+01    1.365558e+00
  2.227759e+01    1.317560e+00
  2.229346e+01    1.311782e+00
  2.230934e+01    1.275025e+00
  2.232521e+01    1.277957e+00
  2.234109e+01    1.240007e+00
  2.235696e+01    1.238108e+00
  2.237284e+01    1.214031e+00
  2.238872e+01    1.199999e+00
  2.240459e+01    1.183751e+00
  2.242047e+01    1.180972e+00
  2.243634e+01    1.194647e+00
  2.245222e+01    1.214230e+00
  2.246809e+01    1.175506e+00
  2.248397e+01    1.173400e+00
  2.249984e+01    1.141611e+00
  2.251572e+01    1.141264e+00
  2.253160e+01    1.134893e+00
  2.254747e+01    1.123873e+00
  2.256335e+01    1.116262e+00
  2.257922e+01    1.118079e+00
  2.259510e+01    1.114204e+00
  2.261097e+01    1.105734e+00
  2.262685e+01    1.115101e+00
  2.264272e+01    1.100185e+00
  2.265860e+01    1.085112e+00
  2.267448e+01    1.099277e+00
  2.269035e+01    1.084516e+00
  2.270623e+01    1.058687e+00
  2.272210e+01    1.067369e+00
  2.273798e+01    1.087472e+00
  2.275385e+01    1.071215e+00
  2.276973e+01    1.077186e+00
  2.278560e+01    1.089183e+00
  2.280148e+01    1.054722e+00
  2.281736e+01    1.082215e+00
  2.283323e+01    1.073963e+00
  2.284911e+01    1.061718e+00
  2.286498e+01    1.056945e+00
  2.288086e+01    1.054332e+00
  2.289673e+01    1.053792e+00
  2.291261e+01    1.063884e+00
  2.292848e+01    1.045086e+00
  2.294436e+01    1.011129e+00
  2.296024e+01    9.994517e-01
  2.297611e+01    1.028431e+00
  2.299199e+01    1.009246e+00
  2.300786e+01    1.013666e+00
  2.302374e+01    1.019892e+00
  2.303961e+01    1.009900e+00
  2.305549e+01    1.006358e+00
  2.307137e+01    1.007603e+00
  2.308724e+01    1.003813e+00
  2.310312e+01    1.011217e+00
  2.311899e+01    9.854982e-01
  2.313487e+01    1.010115e+00
  2.315074e+01    1.017714e+00
  2.316662e+01    1.007850e+00
  2.318249e+01    1.003797e+00
  2.319837e+01    9.969060e-01
  2.321425e+01    9.931635e-01
  2.323012e+01    1.011869e+00
  2.324600e+01    9.979544e-01
  2.326187e+01    9.892765e-01
  2.327775e+01    9.798278e-01
  2.329362e+01    9.730783e-01
  2.330950e+01    9.884106e-01
  2.332537e+01    9.727713e-01
  2.334125e+01    9.696064e-01
  2.335713e+01    9.857177e-01
  2.337300e+01    9.881002e-01
  2.338888e+01    9.883740e-01
  2.340475e+01    9.836457e-01
  2.342063e+01    9.702157e-01
  2.343650e+01    9.697267e-01
  2.345238e+01    9.556443e-01
  2.346825e+01    9.840254e-01
  2.348413e+01    9.720873e-01
  2.350001e+01    9.557309e-01
  2.351588e+01    9.742267e-01
  2.353176e+01    9.581720e-01
  2.354763e+01    9.432852e-01
  2.356351e+01    9.519823e-01
  2.357938e+01    9.528554e-01
  2.359526e+01    9.694740e-01
  2.361113e+01    9.787595e-01
  2.362701e+01    9.504188e-01
  2.364289e+01    9.397321e-01
  2.365876e+01    9.581832e-01
  2.367464e+01    9.558986e-01
  2.369051e+01    9.428277e-01
  2.370639e+01    9.467049e-01
  2.372226e+01    9.536011e-01
  2.373814e+01    9.355031e-01
  2.375401e+01    9.305897e-01
  2.376989e+01    9.192333e-01
  2.378577e+01    8.950846e-01
  2.380164e+01    9.144866e-01
  2.381752e+01    9.199283e-01
  2.383339e+01    9.227424e-01
  2.384927e+01    9.044293e-01
  2.386514e+01    9.103220e-01
  2.388102e+01    9.223881e-01
  2.389689e+01    9.332524e-01
  2.391277e+01    9.195316e-01
  2.392865e+01    8.945949e-01
  2.394452e+01    8.805095e-01
  2.396040e+01    9.014480e-01
  2.397627e+01    9.109762e-01
  2.399215e+01    9.028310e-01
  2.400802e+01    8.896108e-01
  2.402390e+01    8.823202e-01
  2.403978e+01    9.032318e-01
  2.405565e+01    8.805436e-01
  2.407153e+01    8.937770e-01
  2.408740e+01    9.125505e-01
  2.410328e+01    9.104148e-01
  2.411915e+01    9.079976e-01
  2.413503e+01    9.006343e-01
  2.415090e+01    8.867865e-01
  2.416678e+01    8.823147e-01
  2.418266e+01    8.708786e-01
  2.419853e+01    8.774086e-01
  2.421441e+01    8.686243e-01
  2.423028e+01    8.875160e-01
  2.424616e+01    8.778030e-01
  2.426203e+01    8.890387e-01
  2.427791e+01    8.994702e-01
  2.429378e+01    8.925121e-01
  2.430966e+01    8.760760e-01
  2.432554e+01    9.051889e-01
  2.434141e+01    9.111166e-01
  2.435729e+01    8.838658e-01
  2.437316e+01    8.818647e-01
  2.438904e+01    8.848175e-01
  2.440491e+01    8.813509e-01
  2.442079e+01    8.837680e-01
  2.443666e+01    8.940246e-01
  2.445254e+01    8.728770e-01
  2.446842e+01    8.727511e-01
  2.448429e+01    8.943399e-01
  2.450017e+01    8.967755e-01
  2.451604e+01    8.982348e-01
  2.453192e+01    8.932783e-01
  2.454779e+01    8.787323e-01
  2.456367e+01    8.903708e-01
  2.457954e+01    8.868870e-01
  2.459542e+01    8.868427e-01
  2.461130e+01    8.917985e-01
  2.462717e+01    8.782011e-01
  2.464305e+01    8.975931e-01
  2.465892e+01    8.981044e-01
  2.467480e+01    9.059335e-01
  2.469067e+01    9.095978e-01
  2.470655e+01    8.948610e-01
  2.472242e+01    8.790429e-01
  2.473830e+01    8.932266e-01
  2.475418e+01    8.927213e-01
  2.477005e+01    8.744811e-01
  2.478593e+01    8.839603e-01
  2.480180e+01    9.003769e-01
  2.481768e+01    9.146923e-01
  2.483355e+01    8.960125e-01
  2.484943e+01    8.973754e-01
  2.486530e+01    8.946845e-01
  2.488118e+01    8.785265e-01
  2.489706e+01    8.978354e-01
  2.491293e+01    9.006156e-01
  2.492881e+01    8.969829e-01
  2.494468e+01    8.883407e-01
  2.496056e+01    9.148747e-01
  2.497643e+01    9.020451e-01
  2.499231e+01    9.031565e-01
  2.500819e+01    8.890607e-01
  2.502406e+01    8.877257e-01
  2.503994e+01    8.970084e-01
  2.505581e+01    9.038270e-01
  2.507169e+01    9.014164e-01
  2.508756e+01    9.088849e-01
  2.510344e+01    8.972343e-01
  2.511931e+01    9.101424e-01
  2.513519e+01    9.083014e-01
  2.515107e+01    9.035203e-01
  2.516694e+01    9.132772e-01
  2.518282e+01    9.241986e-01
  2.519869e+01    9.291129e-01
  2.521457e+01    9.300049e-01
  2.523044e+01    9.103869e-01
  2.524632e+01    9.197528e-01
  2.526219e+01    9.427312e-01
  2.527807e+01    9.585537e-01
  2.529395e+01    9.485343e-01
  2.530982e+01    9.545147e-01
  2.532570e+01    9.553068e-01
  2.534157e+01    9.674976e-01
  2.535745e+01    9.617617e-01
  2.537332e+01    9.833987e-01
  2.538920e+01    1.004949e+00
  2.540507e+01    1.001441e+00
  2.542095e+01    9.851789e-01
  2.543683e+01    9.809113e-01
  2.545270e+01    1.012420e+00
  2.546858e+01    1.049382e+00
  2.548445e+01    1.029755e+00
  2.550033e+01    1.047859e+00
  2.551620e+01    1.052478e+00
  2.553208e+01    1.102842e+00
  2.554795e+01    1.097104e+00
  2.556383e+01    1.118377e+00
  2.557971e+01    1.162642e+00
  2.559558e+01    1.188876e+00
  2.561146e+01    1.219581e+00
  2.562733e+01    1.246933e+00
  2.564321e+01    1.298941e+00
  2.565908e+01    1.366341e+00
  2.567496e+01    1.430816e+00
  2.569083e+01    1.537641e+00
  2.570671e+01    1.619504e+00
  2.572259e+01    1.718220e+00
  2.573846e+01    1.859477e+00
  2.575434e+01    2.076993e+00
  2.577021e+01    2.296299e+00
  2.578609e+01    2.541526e+00
  2.580196e+01    2.826059e+00
  2.581784e+01    3.219305e+00
  2.583371e+01    3.723186e+00
  2.584959e+01    4.225812e+00
  2.586547e+01    4.700211e+00
  2.588134e+01    5.310309e+00
  2.589722e+01    5.912008e+00
  2.591309e+01    6.394759e+00
  2.592897e+01    6.838592e+00
  2.594484e+01    7.105195e+00
  2.596072e+01    7.165961e+00
  2.597660e+01    6.914715e+00
  2.599247e+01    6.483057e+00
  2.600835e+01    5.913274e+00
  2.602422e+01    5.192920e+00
  2.604010e+01    4.496678e+00
  2.605597e+01    3.873302e+00
  2.607185e+01    3.372894e+00
  2.608772e+01    2.954286e+00
  2.610360e+01    2.633596e+00
  2.611948e+01    2.357540e+00
  2.613535e+01    2.124806e+00
  2.615123e+01    1.908552e+00
  2.616710e+01    1.760105e+00
  2.618298e+01    1.664833e+00
  2.619885e+01    1.576425e+00
  2.621473e+01    1.486169e+00
  2.623060e+01    1.396225e+00
  2.624648e+01    1.353073e+00
  2.626236e+01    1.275667e+00
  2.627823e+01    1.264385e+00
  2.629411e+01    1.228696e+00
  2.630998e+01    1.161468e+00
  2.632586e+01    1.136750e+00
  2.634173e+01    1.123483e+00
  2.635761e+01    1.112475e+00
  2.637348e+01    1.104639e+00
  2.638936e+01    1.075582e+00
  2.640524e+01    1.041171e+00
  2.642111e+01    1.047899e+00
  2.643699e+01    1.046035e+00
  2.645286e+01    1.042249e+00
  2.646874e+01    1.034291e+00
  2.648461e+01    1.003419e+00
  2.650049e+01    1.005684e+00
  2.651636e+01    1.014804e+00
  2.653224e+01    1.007192e+00
  2.654812e+01    1.005809e+00
  2.656399e+01    9.899271e-01
  2.657987e+01    9.810793e-01
  2.659574e+01    9.784181e-01
  2.661162e+01    9.935451e-01
  2.662749e+01    9.949285e-01
  2.664337e+01    9.703107e-01
  2.665924e+01    9.622436e-01
  2.667512e+01    9.544691e-01
  2.669100e+01    9.676796e-01
  2.670687e+01    9.617175e-01
  2.672275e+01    9.413242e-01
  2.673862e+01    9.527736e-01
  2.675450e+01    9.726001e-01
  2.677037e+01    9.754268e-01
  2.678625e+01    9.937541e-01
  2.680212e+01    9.969504e-01
  2.681800e+01    9.699566e-01
  2.683388e+01    9.788749e-01
  2.684975e+01    9.691784e-01
  2.686563e+01    9.723542e-01
  2.688150e+01    9.901375e-01
  2.689738e+01    9.699512e-01
  2.691325e+01    9.904039e-01
  2.692913e+01    1.010959e+00
  2.694501e+01    1.011267e+00
  2.696088e+01    1.041866e+00
  2.697676e+01    1.064206e+00
  2.699263e+01    1.087858e+00
  2.700851e+01    1.133889e+00
  2.702438e+01    1.154321e+00
  2.704026e+01    1.176726e+00
  2.705613e+01    1.239473e+00
  2.707201e+01    1.328739e+00
  2.708789e+01    1.408648e+00
  2.710376e+01    1.491583e+00
  2.711964e+01    1.621008e+00
  2.713551e+01    1.763137e+00
  2.715139e+01    1.855425e+00
  2.716726e+01    1.980876e+00
  2.718314e+01    2.065777e+00
  2.719901e+01    2.117305e+00
  2.721489e+01    2.190954e+00
  2.723077e+01    2.127791e+00
  2.724664e+01    2.068069e+00
  2.726252e+01    1.983827e+00
  2.727839e+01    1.842157e+00
  2.729427e+01    1.684383e+00
  2.731014e+01    1.565348e+00
  2.732602e+01    1.452259e+00
  2.734189e+01    1.363149e+00
  2.735777e+01    1.259126e+00
  2.737365e+01    1.229159e+00
  2.738952e+01    1.164403e+00
  2.740540e+01    1.121140e+00
  2.742127e+01    1.075232e+00
  2.743715e+01    1.027725e+00
  2.745302e+01    1.012827e+00
  2.746890e+01    9.872422e-01
  2.748477e+01    1.011111e+00
  2.750065e+01    1.017450e+00
  2.751653e+01    9.773986e-01
  2.753240e+01    9.371262e-01
  2.754828e+01    9.335177e-01
  2.756415e+01    9.405089e-01
  2.758003e+01    9.259326e-01
  2.759590e+01    9.272414e-01
  2.761178e+01    9.327379e-01
  2.762765e+01    9.318408e-01
  2.764353e+01    8.902641e-01
  2.765941e+01    8.942227e-01
  2.767528e+01    9.179534e-01
  2.769116e+01    8.832138e-01
  2.770703e+01    8.953308e-01
  2.772291e+01    9.029043e-01
  2.773878e+01    8.768915e-01
  2.775466e+01    8.823439e-01
  2.777054e+01    8.952155e-01
  2.778641e+01    8.819810e-01
  2.780229e+01    8.803232e-01
  2.781816e+01    8.600049e-01
  2.783404e+01    8.744361e-01
  2.784991e+01    8.942950e-01
  2.786579e+01    8.892828e-01
  2.788166e+01    8.805125e-01
  2.789754e+01    8.747833e-01
  2.791342e+01    8.793041e-01
  2.792929e+01    8.655657e-01
  2.794517e+01    8.766728e-01
  2.796104e+01    8.685961e-01
  2.797692e+01    8.605493e-01
  2.799279e+01    8.460855e-01
  2.800867e+01    8.505660e-01
  2.802454e+01    8.593228e-01
  2.804042e+01    8.962441e-01
  2.805630e+01    8.819096e-01
  2.807217e+01    8.896322e-01
  2.808805e+01    8.928612e-01
  2.810392e+01    8.841057e-01
  2.811980e+01    8.541644e-01
  2.813567e+01    8.669615e-01
  2.815155e+01    8.523548e-01
  2.816742e+01    8.653476e-01
  2.818330e+01    8.644415e-01
  2.819918e+01    8.396404e-01
  2.821505e+01    8.514310e-01
  2.823093e+01    8.513187e-01
  2.824680e+01    8.508964e-01
  2.826268e+01    8.394413e-01
  2.827855e+01    8.662579e-01
  2.829443e+01    8.398760e-01
  2.831030e+01    8.361872e-01
  2.832618e+01    8.443120e-01
  2.834206e+01    8.543335e-01
  2.835793e+01    8.686027e-01
  2.837381e+01    8.297067e-01
  2.838968e+01    8.508132e-01
  2.840556e+01    8.510829e-01
  2.842143e+01    8.407090e-01
  2.843731e+01    8.517560e-01
  2.845318e+01    8.624661e-01
  2.846906e+01    8.337558e-01
  2.848494e+01    8.576093e-01
  2.850081e+01    8.696064e-01
  2.851669e+01    8.762549e-01
  2.853256e+01    8.605028e-01
  2.854844e+01    8.430409e-01
  2.856431e+01    8.342589e-01
  2.858019e+01    8.368837e-01
  2.859606e+01    8.158579e-01
  2.861194e+01    8.346232e-01
  2.862782e+01    8.252440e-01
  2.864369e+01    8.661034e-01
  2.865957e+01    8.363209e-01
  2.867544e+01    8.142867e-01
  2.869132e+01    8.519570e-01
  2.870719e+01    8.627727e-01
  2.872307e+01    8.349435e-01
  2.873895e+01    8.283309e-01
  2.875482e+01    8.515481e-01
  2.877070e+01    8.235121e-01
  2.878657e+01    8.435511e-01
  2.880245e+01    8.188785e-01
  2.881832e+01    8.263039e-01
  2.883420e+01    8.235951e-01
  2.885007e+01    8.106570e-01
  2.886595e+01    8.044235e-01
  2.888183e+01    8.181075e-01
  2.889770e+01    7.970942e-01
  2.891358e+01    8.023990e-01
  2.892945e+01    8.176994e-01
  2.894533e+01    8.207957e-01
  2.896120e+01    8.155436e-01
  2.897708e+01    8.335340e-01
  2.899295e+01    8.315820e-01
  2.900883e+01    8.126312e-01
  2.902471e+01    7.975297e-01
  2.904058e+01    8.131166e-01
  2.905646e+01    8.207124e-01
  2.907233e+01    8.221102e-01
  2.908821e+01    8.087962e-01
  2.910408e+01    8.061820e-01
  2.911996e+01    8.167171e-01
  2.913583e+01    8.194326e-01
  2.915171e+01    8.250676e-01
  2.916759e+01    8.230073e-01
  2.918346e+01    8.270776e-01
  2.919934e+01    8.314242e-01
  2.921521e+01    8.207895e-01
  2.923109e+01    8.051401e-01
  2.924696e+01    8.042051e-01
  2.926284e+01    8.241653e-01
  2.927871e+01    8.223670e-01
  2.929459e+01    8.094499e-01
  2.931047e+01    8.182914e-01
  2.932634e+01    8.239997e-01
  2.934222e+01    8.056337e-01
  2.935809e+01    7.771087e-01
  2.937397e+01    8.140938e-01
  2.938984e+01    8.325995e-01
  2.940572e+01    8.118398e-01
  2.942159e+01    8.018795e-01
  2.943747e+01    8.008272e-01
  2.945335e+01    7.907111e-01
  2.946922e+01    8.052288e-01
  2.948510e+01    8.264033e-01
  2.950097e+01    8.243499e-01
  2.951685e+01    7.849377e-01
  2.953272e+01    8.042321e-01
  2.954860e+01    8.193007e-01
  2.956447e+01    8.087063e-01
  2.958035e+01    8.018729e-01
  2.959623e+01    8.170133e-01
  2.961210e+01    7.925927e-01
  2.962798e+01    7.855088e-01
  2.964385e+01    8.005632e-01
  2.965973e+01    8.067104e-01
  2.967560e+01    8.108971e-01
  2.969148e+01    8.073786e-01
  2.970736e+01    7.800544e-01
  2.972323e+01    7.826312e-01
  2.973911e+01    8.116438e-01
  2.975498e+01    8.110992e-01
  2.977086e+01    8.037720e-01
  2.978673e+01    8.043222e-01
  2.980261e+01    8.003365e-01
  2.981848e+01    7.842177e-01
  2.983436e+01    7.695045e-01
  2.985024e+01    7.902821e-01
  2.986611e+01    8.101729e-01
  2.988199e+01    7.868931e-01
  2.989786e+01    7.963364e-01
  2.991374e+01    7.888654e-01
  2.992961e+01    7.697400e-01
  2.994549e+01    7.860635e-01
  2.996136e+01    7.742190e-01
  2.997724e+01    8.034664e-01
  2.999312e+01    8.228633e-01
  3.000899e+01    8.289909e-01
  3.002487e+01    8.075811e-01
  3.004074e+01    8.022617e-01
  3.005662e+01    8.198328e-01
  3.007249e+01    8.326576e-01
  3.008837e+01    7.999628e-01
  3.010424e+01    8.010409e-01
  3.012012e+01    8.099083e-01
  3.013600e+01    8.101472e-01
  3.015187e+01    7.763433e-01
  3.016775e+01    7.769714e-01
  3.018362e+01    8.025575e-01
  3.019950e+01    7.991717e-01
  3.021537e+01    7.782596e-01
  3.023125e+01    7.694761e-01
  3.024712e+01    7.928423e-01
  3.026300e+01    7.957962e-01
  3.027888e+01    8.059683e-01
  3.029475e+01    7.904711e-01
  3.031063e+01    7.860758e-01
  3.032650e+01    7.902131e-01
  3.034238e+01    7.793935e-01
  3.035825e+01    7.937759e-01
  3.037413e+01    8.048391e-01
  3.039000e+01    7.839219e-01
  3.040588e+01    7.757570e-01
  3.042176e+01    7.901022e-01
  3.043763e+01    7.819592e-01
  3.045351e+01    7.900543e-01
  3.046938e+01    7.874978e-01
  3.048526e+01    7.672461e-01
  3.050113e+01    7.841336e-01
  3.051701e+01    7.870913e-01
  3.053288e+01    7.633495e-01
  3.054876e+01    7.843199e-01
  3.056464e+01    7.950677e-01
  3.058051e+01    7.904814e-01
  3.059639e+01    7.874310e-01
  3.061226e+01    7.775558e-01
  3.062814e+01    7.798366e-01
  3.064401e+01    7.998222e-01
  3.065989e+01    8.070431e-01
  3.067577e+01    7.861144e-01
  3.069164e+01    7.735225e-01
  3.070752e+01    7.638786e-01
  3.072339e+01    7.456553e-01
  3.073927e+01    7.767093e-01
  3.075514e+01    8.013572e-01
  3.077102e+01    7.836592e-01
  3.078689e+01    7.645093e-01
  3.080277e+01    7.819737e-01
  3.081865e+01    7.827206e-01
  3.083452e+01    7.921099e-01
  3.085040e+01    7.920562e-01
  3.086627e+01    7.903717e-01
  3.088215e+01    7.788545e-01
  3.089802e+01    7.752891e-01
  3.091390e+01    7.766526e-01
  3.092977e+01    7.903625e-01
  3.094565e+01    7.832302e-01
  3.096153e+01    7.657008e-01
  3.097740e+01    7.782533e-01
  3.099328e+01    7.772228e-01
  3.100915e+01    7.954604e-01
  3.102503e+01    7.833903e-01
  3.104090e+01    7.857049e-01
  3.105678e+01    8.125749e-01
  3.107265e+01    7.985283e-01
  3.108853e+01    7.939742e-01
  3.110441e+01    7.889490e-01
  3.112028e+01    8.060299e-01
  3.113616e+01    8.052695e-01
  3.115203e+01    7.849948e-01
  3.116791e+01    7.305138e-01
  3.118378e+01    7.808826e-01
  3.119966e+01    8.021427e-01
  3.121553e+01    7.699524e-01
  3.123141e+01    7.971705e-01
  3.124729e+01    7.962608e-01
  3.126316e+01    7.872332e-01
  3.127904e+01    8.078392e-01
  3.129491e+01    7.909436e-01
  3.131079e+01    8.061171e-01
  3.132666e+01    7.977090e-01
  3.134254e+01    8.003861e-01
  3.135841e+01    8.098574e-01
  3.137429e+01    8.124256e-01
  3.139017e+01    7.947726e-01
  3.140604e+01    8.008074e-01
  3.142192e+01    8.121663e-01
  3.143779e+01    8.103238e-01
  3.145367e+01    8.097283e-01
  3.146954e+01    8.195153e-01
  3.148542e+01    8.247999e-01
  3.150129e+01    8.240728e-01
  3.151717e+01    8.573463e-01
  3.153305e+01    8.618580e-01
  3.154892e+01    8.329699e-01
  3.156480e+01    8.532305e-01
  3.158067e+01    8.565814e-01
  3.159655e+01    8.956384e-01
  3.161242e+01    8.989220e-01
  3.162830e+01    8.928835e-01
  3.164418e+01    9.114462e-01
  3.166005e+01    9.303536e-01
  3.167593e+01    9.714582e-01
  3.169180e+01    9.984042e-01
  3.170768e+01    1.044046e+00
  3.172355e+01    1.074695e+00
  3.173943e+01    1.131095e+00
  3.175530e+01    1.201143e+00
  3.177118e+01    1.279275e+00
  3.178706e+01    1.355684e+00
  3.180293e+01    1.480827e+00
  3.181881e+01    1.616090e+00
  3.183468e+01    1.722066e+00
  3.185056e+01    1.856971e+00
  3.186643e+01    1.972241e+00
  3.188231e+01    2.027063e+00
  3.189818e+01    2.044981e+00
  3.191406e+01    2.060990e+00
  3.192994e+01    2.019862e+00
  3.194581e+01    1.902410e+00
  3.196169e+01    1.784982e+00
  3.197756e+01    1.652968e+00
  3.199344e+01    1.531946e+00
  3.200931e+01    1.388546e+00
  3.202519e+01    1.306225e+00
  3.204106e+01    1.236268e+00
  3.205694e+01    1.168050e+00
  3.207282e+01    1.098453e+00
  3.208869e+01    1.035978e+00
  3.210457e+01    1.006779e+00
  3.212044e+01    9.787848e-01
  3.213632e+01    9.439473e-01
  3.215219e+01    9.001931e-01
  3.216807e+01    8.919653e-01
  3.218394e+01    8.720529e-01
  3.219982e+01    8.532237e-01
  3.221570e+01    8.646538e-01
  3.223157e+01    8.810133e-01
  3.224745e+01    8.470266e-01
  3.226332e+01    8.006973e-01
  3.227920e+01    7.998937e-01
  3.229507e+01    7.970178e-01
  3.231095e+01    8.042185e-01
  3.232682e+01    8.211821e-01
  3.234270e+01    7.983180e-01
  3.235858e+01    7.875777e-01
  3.237445e+01    7.960016e-01
  3.239033e+01    7.861832e-01
  3.240620e+01    7.657201e-01
  3.242208e+01    7.692001e-01
  3.243795e+01    7.750306e-01
  3.245383e+01    7.625357e-01
  3.246970e+01    7.717355e-01
  3.248558e+01    7.838942e-01
  3.250146e+01    7.881398e-01
  3.251733e+01    8.051358e-01
  3.253321e+01    8.001687e-01
  3.254908e+01    7.650052e-01
