# == pyFAI calibration ==
# Distance Sample to Detector: 0.3999999939076516 m
# PONI: 9.750e-02, 1.135e-01 m
# Rotations: -0.000175 0.000000 -0.000000 rad
# 
# == Fit2d calibration ==
# Distance Sample-beamCenter: 400.000 mm
# Center: x=1514.000, y=1300.000 pix
# Tilt: 0.010 deg  TiltPlanRot: 0.010 deg
# 
# Detector Detector	 Spline= None	 PixelSize= 7.500e-05, 7.500e-05 m
#    Detector has a mask: False 
#    Detector has a dark current: False 
#    detector has a flat field: False 
# 
# Wavelength: 6.888e-11 m
# Mask applied: user provided
# Dark current applied: False
# Flat field applied: False
# Polarization factor: 0.99
# Normalization factor: 1.0
# --> /home/myspot/data/2024_07_Rosario/Ru-CGO-ex/2024-07-27_003_Ru-CGO-ex_Reaction_dwell_000023_data_000092.dat
#       q_nm^-1             I 
  2.003187e-02    1.424646e-01
  3.590745e-02    0.000000e+00
  5.178302e-02    4.717196e-02
  6.765859e-02    1.422497e-01
  8.353417e-02    1.142546e-01
  9.940974e-02    1.979287e-02
  1.152853e-01    3.267415e-02
  1.311609e-01    1.006304e-02
  1.470365e-01    2.542182e-02
  1.629120e-01    2.659214e-02
  1.787876e-01    7.229460e-02
  1.946632e-01    1.410490e-01
  2.105388e-01    1.227941e-01
  2.264143e-01    6.690432e-02
  2.422899e-01    4.412343e-02
  2.581655e-01    1.741771e-02
  2.740411e-01    1.252661e-02
  2.899166e-01    2.355716e-02
  3.057922e-01    3.599738e-02
  3.216678e-01    7.096413e-02
  3.375433e-01    4.222831e-02
  3.534189e-01    3.654204e-02
  3.692945e-01    2.610497e-02
  3.851701e-01    8.330905e-03
  4.010456e-01    5.522910e-02
  4.169212e-01    4.066836e-02
  4.327968e-01    4.931575e-02
  4.486724e-01    3.480995e-02
  4.645479e-01    4.273254e-02
  4.804235e-01    3.299093e-02
  4.962991e-01    2.032189e-02
  5.121747e-01    3.936481e-02
  5.280502e-01    3.919718e-02
  5.439258e-01    4.401372e-02
  5.598014e-01    2.965877e-02
  5.756770e-01    2.610313e-02
  5.915525e-01    2.877824e-02
  6.074281e-01    3.477938e-02
  6.233037e-01    1.894541e-02
  6.391793e-01    2.599855e-02
  6.550548e-01    4.142692e-02
  6.709304e-01    4.014146e-02
  6.868060e-01    3.766008e-02
  7.026815e-01    3.351571e-02
  7.185571e-01    3.742230e-02
  7.344327e-01    2.945577e-02
  7.503083e-01    7.353429e-02
  7.661838e-01    1.161694e-01
  7.820594e-01    9.039945e-02
  7.979350e-01    1.206495e-01
  8.138106e-01    2.382002e-01
  8.296861e-01    2.873827e-01
  8.455617e-01    3.578873e-01
  8.614373e-01    3.661796e-01
  8.773129e-01    4.540507e-01
  8.931884e-01    5.609860e-01
  9.090640e-01    5.964566e-01
  9.249396e-01    6.933475e-01
  9.408152e-01    7.554662e-01
  9.566907e-01    8.702429e-01
  9.725663e-01    1.084371e+00
  9.884419e-01    1.170360e+00
  1.004317e+00    1.208143e+00
  1.020193e+00    1.329764e+00
  1.036069e+00    1.395865e+00
  1.051944e+00    1.417217e+00
  1.067820e+00    1.509383e+00
  1.083695e+00    1.558350e+00
  1.099571e+00    1.466653e+00
  1.115446e+00    1.569831e+00
  1.131322e+00    1.589436e+00
  1.147198e+00    1.612308e+00
  1.163073e+00    1.731874e+00
  1.178949e+00    1.833454e+00
  1.194824e+00    1.842377e+00
  1.210700e+00    1.990803e+00
  1.226575e+00    2.233610e+00
  1.242451e+00    2.297202e+00
  1.258327e+00    2.456498e+00
  1.274202e+00    2.467408e+00
  1.290078e+00    2.696868e+00
  1.305953e+00    2.763408e+00
  1.321829e+00    2.638376e+00
  1.337705e+00    2.620181e+00
  1.353580e+00    2.773879e+00
  1.369456e+00    2.915323e+00
  1.385331e+00    2.925236e+00
  1.401207e+00    2.889137e+00
  1.417082e+00    2.849886e+00
  1.432958e+00    3.003960e+00
  1.448834e+00    3.071487e+00
  1.464709e+00    3.100245e+00
  1.480585e+00    3.185395e+00
  1.496460e+00    3.186512e+00
  1.512336e+00    3.080965e+00
  1.528211e+00    3.075818e+00
  1.544087e+00    3.185421e+00
  1.559963e+00    3.211874e+00
  1.575838e+00    2.927379e+00
  1.591714e+00    3.194290e+00
  1.607589e+00    3.173555e+00
  1.623465e+00    3.162329e+00
  1.639340e+00    3.210748e+00
  1.655216e+00    3.247974e+00
  1.671092e+00    3.191964e+00
  1.686967e+00    3.079024e+00
  1.702843e+00    3.077154e+00
  1.718718e+00    3.026027e+00
  1.734594e+00    3.015178e+00
  1.750469e+00    3.044372e+00
  1.766345e+00    3.016278e+00
  1.782221e+00    3.094287e+00
  1.798096e+00    3.065287e+00
  1.813972e+00    3.062087e+00
  1.829847e+00    2.950890e+00
  1.845723e+00    2.948454e+00
  1.861598e+00    3.019669e+00
  1.877474e+00    3.085213e+00
  1.893350e+00    3.021578e+00
  1.909225e+00    3.099266e+00
  1.925101e+00    3.044882e+00
  1.940976e+00    2.939972e+00
  1.956852e+00    3.070967e+00
  1.972727e+00    3.189594e+00
  1.988603e+00    3.095253e+00
  2.004479e+00    3.100470e+00
  2.020354e+00    3.090649e+00
  2.036230e+00    2.912638e+00
  2.052105e+00    3.049948e+00
  2.067981e+00    3.115417e+00
  2.083856e+00    3.088855e+00
  2.099732e+00    3.057938e+00
  2.115608e+00    3.086724e+00
  2.131483e+00    3.021420e+00
  2.147359e+00    3.069805e+00
  2.163234e+00    3.126309e+00
  2.179110e+00    3.150716e+00
  2.194985e+00    3.260133e+00
  2.210861e+00    3.141127e+00
  2.226737e+00    3.162525e+00
  2.242612e+00    3.232794e+00
  2.258488e+00    3.089105e+00
  2.274363e+00    3.084500e+00
  2.290239e+00    3.148076e+00
  2.306115e+00    3.124286e+00
  2.321990e+00    3.243139e+00
  2.337866e+00    3.174721e+00
  2.353741e+00    3.215845e+00
  2.369617e+00    3.232454e+00
  2.385492e+00    3.141908e+00
  2.401368e+00    3.142703e+00
  2.417244e+00    3.260708e+00
  2.433119e+00    3.225057e+00
  2.448995e+00    3.190834e+00
  2.464870e+00    3.106204e+00
  2.480746e+00    3.179351e+00
  2.496621e+00    3.246146e+00
  2.512497e+00    3.246362e+00
  2.528373e+00    3.146389e+00
  2.544248e+00    3.085923e+00
  2.560124e+00    3.209379e+00
  2.575999e+00    3.196040e+00
  2.591875e+00    3.234805e+00
  2.607750e+00    3.215424e+00
  2.623626e+00    3.140672e+00
  2.639502e+00    3.136575e+00
  2.655377e+00    3.216329e+00
  2.671253e+00    3.259813e+00
  2.687128e+00    3.329479e+00
  2.703004e+00    3.230925e+00
  2.718879e+00    3.223855e+00
  2.734755e+00    3.304604e+00
  2.750631e+00    3.303221e+00
  2.766506e+00    3.201086e+00
  2.782382e+00    3.253829e+00
  2.798257e+00    3.250484e+00
  2.814133e+00    3.260562e+00
  2.830008e+00    3.260983e+00
  2.845884e+00    3.282866e+00
  2.861760e+00    3.300361e+00
  2.877635e+00    3.311854e+00
  2.893511e+00    3.303216e+00
  2.909386e+00    3.254519e+00
  2.925262e+00    3.245279e+00
  2.941137e+00    3.293023e+00
  2.957013e+00    3.256822e+00
  2.972889e+00    3.393621e+00
  2.988764e+00    3.379835e+00
  3.004640e+00    3.299839e+00
  3.020515e+00    3.197308e+00
  3.036391e+00    3.295930e+00
  3.052266e+00    3.371168e+00
  3.068142e+00    3.335899e+00
  3.084018e+00    3.398553e+00
  3.099893e+00    3.367243e+00
  3.115769e+00    3.278790e+00
  3.131644e+00    3.382450e+00
  3.147520e+00    3.407330e+00
  3.163395e+00    3.402482e+00
  3.179271e+00    3.381365e+00
  3.195147e+00    3.353673e+00
  3.211022e+00    3.323546e+00
  3.226898e+00    3.381994e+00
  3.242773e+00    3.417986e+00
  3.258649e+00    3.390002e+00
  3.274525e+00    3.440879e+00
  3.290400e+00    3.488831e+00
  3.306276e+00    3.466115e+00
  3.322151e+00    3.481957e+00
  3.338027e+00    3.529352e+00
  3.353902e+00    3.441139e+00
  3.369778e+00    3.430275e+00
  3.385654e+00    3.427899e+00
  3.401529e+00    3.434001e+00
  3.417405e+00    3.531670e+00
  3.433280e+00    3.521910e+00
  3.449156e+00    3.457018e+00
  3.465031e+00    3.454165e+00
  3.480907e+00    3.502538e+00
  3.496783e+00    3.460722e+00
  3.512658e+00    3.411809e+00
  3.528534e+00    3.454321e+00
  3.544409e+00    3.418186e+00
  3.560285e+00    3.556416e+00
  3.576160e+00    3.594983e+00
  3.592036e+00    3.471129e+00
  3.607912e+00    3.402127e+00
  3.623787e+00    3.409050e+00
  3.639663e+00    3.392721e+00
  3.655538e+00    3.421726e+00
  3.671414e+00    3.471330e+00
  3.687289e+00    3.566247e+00
  3.703165e+00    3.489728e+00
  3.719041e+00    3.497789e+00
  3.734916e+00    3.526184e+00
  3.750792e+00    3.435886e+00
  3.766667e+00    3.472690e+00
  3.782543e+00    3.467865e+00
  3.798418e+00    3.515442e+00
  3.814294e+00    3.504119e+00
  3.830170e+00    3.541259e+00
  3.846045e+00    3.579227e+00
  3.861921e+00    3.550275e+00
  3.877796e+00    3.489207e+00
  3.893672e+00    3.415567e+00
  3.909547e+00    3.419070e+00
  3.925423e+00    3.531191e+00
  3.941299e+00    3.547912e+00
  3.957174e+00    3.529708e+00
  3.973050e+00    3.634132e+00
  3.988925e+00    3.484271e+00
  4.004801e+00    3.499093e+00
  4.020676e+00    3.551610e+00
  4.036552e+00    3.563934e+00
  4.052428e+00    3.510007e+00
  4.068303e+00    3.613287e+00
  4.084179e+00    3.560476e+00
  4.100054e+00    3.478926e+00
  4.115930e+00    3.524400e+00
  4.131806e+00    3.654272e+00
  4.147681e+00    3.559872e+00
  4.163557e+00    3.429601e+00
  4.179432e+00    3.482232e+00
  4.195308e+00    3.515728e+00
  4.211183e+00    3.487997e+00
  4.227059e+00    3.549288e+00
  4.242935e+00    3.486607e+00
  4.258810e+00    3.559890e+00
  4.274686e+00    3.625216e+00
  4.290561e+00    3.576143e+00
  4.306437e+00    3.581686e+00
  4.322312e+00    3.513191e+00
  4.338188e+00    3.514591e+00
  4.354064e+00    3.579863e+00
  4.369939e+00    3.633527e+00
  4.385815e+00    3.629655e+00
  4.401690e+00    3.603987e+00
  4.417566e+00    3.617557e+00
  4.433441e+00    3.661812e+00
  4.449317e+00    3.621550e+00
  4.465193e+00    3.572522e+00
  4.481068e+00    3.552694e+00
  4.496944e+00    3.544104e+00
  4.512819e+00    3.523699e+00
  4.528695e+00    3.546634e+00
  4.544570e+00    3.619917e+00
  4.560446e+00    3.648771e+00
  4.576322e+00    3.591876e+00
  4.592197e+00    3.617659e+00
  4.608073e+00    3.645952e+00
  4.623948e+00    3.617410e+00
  4.639824e+00    3.648195e+00
  4.655699e+00    3.630920e+00
  4.671575e+00    3.626662e+00
  4.687451e+00    3.686316e+00
  4.703326e+00    3.572020e+00
  4.719202e+00    3.601259e+00
  4.735077e+00    3.637245e+00
  4.750953e+00    3.597730e+00
  4.766828e+00    3.551023e+00
  4.782704e+00    3.613941e+00
  4.798580e+00    3.665108e+00
  4.814455e+00    3.642645e+00
  4.830331e+00    3.659461e+00
  4.846206e+00    3.596246e+00
  4.862082e+00    3.684004e+00
  4.877957e+00    3.596845e+00
  4.893833e+00    3.576225e+00
  4.909709e+00    3.698604e+00
  4.925584e+00    3.705402e+00
  4.941460e+00    3.664334e+00
  4.957335e+00    3.640072e+00
  4.973211e+00    3.639830e+00
  4.989086e+00    3.612570e+00
  5.004962e+00    3.681485e+00
  5.020838e+00    3.685407e+00
  5.036713e+00    3.693907e+00
  5.052589e+00    3.692488e+00
  5.068464e+00    3.645833e+00
  5.084340e+00    3.589480e+00
  5.100216e+00    3.725736e+00
  5.116091e+00    3.698256e+00
  5.131967e+00    3.640593e+00
  5.147842e+00    3.578862e+00
  5.163718e+00    3.624363e+00
  5.179593e+00    3.686240e+00
  5.195469e+00    3.658664e+00
  5.211345e+00    3.706411e+00
  5.227220e+00    3.677055e+00
  5.243096e+00    3.643970e+00
  5.258971e+00    3.619308e+00
  5.274847e+00    3.684109e+00
  5.290722e+00    3.717556e+00
  5.306598e+00    3.734894e+00
  5.322474e+00    3.715174e+00
  5.338349e+00    3.629723e+00
  5.354225e+00    3.592817e+00
  5.370100e+00    3.707615e+00
  5.385976e+00    3.725769e+00
  5.401851e+00    3.643049e+00
  5.417727e+00    3.627057e+00
  5.433603e+00    3.611076e+00
  5.449478e+00    3.565924e+00
  5.465354e+00    3.577253e+00
  5.481229e+00    3.572436e+00
  5.497105e+00    3.596376e+00
  5.512980e+00    3.585120e+00
  5.528856e+00    3.581362e+00
  5.544732e+00    3.525881e+00
  5.560607e+00    3.541786e+00
  5.576483e+00    3.552216e+00
  5.592358e+00    3.615001e+00
  5.608234e+00    3.665836e+00
  5.624109e+00    3.558320e+00
  5.639985e+00    3.597928e+00
  5.655861e+00    3.608974e+00
  5.671736e+00    3.621464e+00
  5.687612e+00    3.588912e+00
  5.703487e+00    3.600348e+00
  5.719363e+00    3.584807e+00
  5.735238e+00    3.642281e+00
  5.751114e+00    3.585707e+00
  5.766990e+00    3.604652e+00
  5.782865e+00    3.591050e+00
  5.798741e+00    3.610392e+00
  5.814616e+00    3.631990e+00
  5.830492e+00    3.589668e+00
  5.846367e+00    3.521129e+00
  5.862243e+00    3.509544e+00
  5.878119e+00    3.563294e+00
  5.893994e+00    3.489590e+00
  5.909870e+00    3.519236e+00
  5.925745e+00    3.537850e+00
  5.941621e+00    3.520901e+00
  5.957497e+00    3.537870e+00
  5.973372e+00    3.558303e+00
  5.989248e+00    3.477936e+00
  6.005123e+00    3.532707e+00
  6.020999e+00    3.447089e+00
  6.036874e+00    3.411951e+00
  6.052750e+00    3.443825e+00
  6.068626e+00    3.513283e+00
  6.084501e+00    3.528230e+00
  6.100377e+00    3.548945e+00
  6.116252e+00    3.582199e+00
  6.132128e+00    3.569043e+00
  6.148003e+00    3.577376e+00
  6.163879e+00    3.622818e+00
  6.179755e+00    3.617302e+00
  6.195630e+00    3.638210e+00
  6.211506e+00    3.605268e+00
  6.227381e+00    3.507586e+00
  6.243257e+00    3.567711e+00
  6.259132e+00    3.585957e+00
  6.275008e+00    3.646657e+00
  6.290884e+00    3.630505e+00
  6.306759e+00    3.551374e+00
  6.322635e+00    3.536674e+00
  6.338510e+00    3.569586e+00
  6.354386e+00    3.647487e+00
  6.370261e+00    3.580931e+00
  6.386137e+00    3.570500e+00
  6.402013e+00    3.551040e+00
  6.417888e+00    3.557790e+00
  6.433764e+00    3.574526e+00
  6.449639e+00    3.599577e+00
  6.465515e+00    3.527781e+00
  6.481390e+00    3.516413e+00
  6.497266e+00    3.512837e+00
  6.513142e+00    3.523476e+00
  6.529017e+00    3.526649e+00
  6.544893e+00    3.502156e+00
  6.560768e+00    3.474666e+00
  6.576644e+00    3.528323e+00
  6.592519e+00    3.538251e+00
  6.608395e+00    3.606836e+00
  6.624271e+00    3.608360e+00
  6.640146e+00    3.509801e+00
  6.656022e+00    3.523611e+00
  6.671897e+00    3.526462e+00
  6.687773e+00    3.504460e+00
  6.703648e+00    3.551650e+00
  6.719524e+00    3.639541e+00
  6.735400e+00    3.583193e+00
  6.751275e+00    3.574231e+00
  6.767151e+00    3.582493e+00
  6.783026e+00    3.602689e+00
  6.798902e+00    3.543834e+00
  6.814777e+00    3.539672e+00
  6.830653e+00    3.590758e+00
  6.846529e+00    3.570349e+00
  6.862404e+00    3.522007e+00
  6.878280e+00    3.503660e+00
  6.894155e+00    3.530634e+00
  6.910031e+00    3.558112e+00
  6.925907e+00    3.561215e+00
  6.941782e+00    3.537034e+00
  6.957658e+00    3.571537e+00
  6.973533e+00    3.598612e+00
  6.989409e+00    3.556986e+00
  7.005284e+00    3.637832e+00
  7.021160e+00    3.608220e+00
  7.037036e+00    3.485456e+00
  7.052911e+00    3.483385e+00
  7.068787e+00    3.487494e+00
  7.084662e+00    3.519728e+00
  7.100538e+00    3.566176e+00
  7.116413e+00    3.527678e+00
  7.132289e+00    3.526627e+00
  7.148165e+00    3.482038e+00
  7.164040e+00    3.560862e+00
  7.179916e+00    3.486053e+00
  7.195791e+00    3.567234e+00
  7.211667e+00    3.553835e+00
  7.227542e+00    3.517661e+00
  7.243418e+00    3.520940e+00
  7.259294e+00    3.504949e+00
  7.275169e+00    3.597408e+00
  7.291045e+00    3.557893e+00
  7.306920e+00    3.459078e+00
  7.322796e+00    3.480836e+00
  7.338671e+00    3.446072e+00
  7.354547e+00    3.478437e+00
  7.370423e+00    3.495285e+00
  7.386298e+00    3.501872e+00
  7.402174e+00    3.432067e+00
  7.418049e+00    3.399551e+00
  7.433925e+00    3.471816e+00
  7.449800e+00    3.483512e+00
  7.465676e+00    3.467901e+00
  7.481552e+00    3.499171e+00
  7.497427e+00    3.407881e+00
  7.513303e+00    3.465916e+00
  7.529178e+00    3.559936e+00
  7.545054e+00    3.479710e+00
  7.560929e+00    3.492262e+00
  7.576805e+00    3.429079e+00
  7.592681e+00    3.489094e+00
  7.608556e+00    3.474756e+00
  7.624432e+00    3.445799e+00
  7.640307e+00    3.447393e+00
  7.656183e+00    3.463888e+00
  7.672058e+00    3.456853e+00
  7.687934e+00    3.529635e+00
  7.703810e+00    3.426902e+00
  7.719685e+00    3.393514e+00
  7.735561e+00    3.434941e+00
  7.751436e+00    3.501281e+00
  7.767312e+00    3.456041e+00
  7.783187e+00    3.434460e+00
  7.799063e+00    3.418019e+00
  7.814939e+00    3.462790e+00
  7.830814e+00    3.479074e+00
  7.846690e+00    3.463184e+00
  7.862565e+00    3.405441e+00
  7.878441e+00    3.350550e+00
  7.894317e+00    3.417929e+00
  7.910192e+00    3.467401e+00
  7.926068e+00    3.404626e+00
  7.941943e+00    3.418988e+00
  7.957819e+00    3.434617e+00
  7.973694e+00    3.455230e+00
  7.989570e+00    3.372554e+00
  8.005446e+00    3.459533e+00
  8.021321e+00    3.440085e+00
  8.037197e+00    3.425695e+00
  8.053072e+00    3.461332e+00
  8.068948e+00    3.445038e+00
  8.084823e+00    3.394178e+00
  8.100699e+00    3.413536e+00
  8.116575e+00    3.419719e+00
  8.132450e+00    3.445967e+00
  8.148326e+00    3.484396e+00
  8.164201e+00    3.493249e+00
  8.180077e+00    3.451596e+00
  8.195952e+00    3.514290e+00
  8.211828e+00    3.473593e+00
  8.227704e+00    3.477089e+00
  8.243579e+00    3.492157e+00
  8.259455e+00    3.380531e+00
  8.275330e+00    3.450563e+00
  8.291206e+00    3.459882e+00
  8.307081e+00    3.442511e+00
  8.322957e+00    3.446436e+00
  8.338833e+00    3.412785e+00
  8.354708e+00    3.417165e+00
  8.370584e+00    3.331460e+00
  8.386459e+00    3.345116e+00
  8.402335e+00    3.402294e+00
  8.418210e+00    3.385823e+00
  8.434086e+00    3.382987e+00
  8.449962e+00    3.411420e+00
  8.465837e+00    3.425549e+00
  8.481713e+00    3.356911e+00
  8.497588e+00    3.375282e+00
  8.513464e+00    3.375332e+00
  8.529339e+00    3.361247e+00
  8.545215e+00    3.343390e+00
  8.561091e+00    3.338594e+00
  8.576966e+00    3.363696e+00
  8.592842e+00    3.380717e+00
  8.608717e+00    3.351679e+00
  8.624593e+00    3.316531e+00
  8.640468e+00    3.326629e+00
  8.656344e+00    3.339958e+00
  8.672220e+00    3.333639e+00
  8.688095e+00    3.336000e+00
  8.703971e+00    3.323333e+00
  8.719846e+00    3.336217e+00
  8.735722e+00    3.371202e+00
  8.751598e+00    3.335925e+00
  8.767473e+00    3.316478e+00
  8.783349e+00    3.324664e+00
  8.799224e+00    3.262876e+00
  8.815100e+00    3.361353e+00
  8.830975e+00    3.347426e+00
  8.846851e+00    3.291955e+00
  8.862727e+00    3.316595e+00
  8.878602e+00    3.250447e+00
  8.894478e+00    3.260402e+00
  8.910353e+00    3.357297e+00
  8.926229e+00    3.303902e+00
  8.942104e+00    3.277551e+00
  8.957980e+00    3.333927e+00
  8.973856e+00    3.299567e+00
  8.989731e+00    3.287182e+00
  9.005607e+00    3.349164e+00
  9.021482e+00    3.265230e+00
  9.037358e+00    3.321053e+00
  9.053233e+00    3.372262e+00
  9.069109e+00    3.258473e+00
  9.084985e+00    3.250447e+00
  9.100860e+00    3.254368e+00
  9.116736e+00    3.294929e+00
  9.132611e+00    3.271766e+00
  9.148487e+00    3.212205e+00
  9.164362e+00    3.233077e+00
  9.180238e+00    3.273624e+00
  9.196114e+00    3.275191e+00
  9.211989e+00    3.301454e+00
  9.227865e+00    3.302771e+00
  9.243740e+00    3.255989e+00
  9.259616e+00    3.245303e+00
  9.275491e+00    3.256687e+00
  9.291367e+00    3.339823e+00
  9.307243e+00    3.252820e+00
  9.323118e+00    3.237210e+00
  9.338994e+00    3.250352e+00
  9.354869e+00    3.211077e+00
  9.370745e+00    3.194103e+00
  9.386620e+00    3.169738e+00
  9.402496e+00    3.196573e+00
  9.418372e+00    3.203154e+00
  9.434247e+00    3.190201e+00
  9.450123e+00    3.236906e+00
  9.465998e+00    3.198623e+00
  9.481874e+00    3.228089e+00
  9.497749e+00    3.244726e+00
  9.513625e+00    3.231114e+00
  9.529501e+00    3.257617e+00
  9.545376e+00    3.223674e+00
  9.561252e+00    3.168051e+00
  9.577127e+00    3.209175e+00
  9.593003e+00    3.278434e+00
  9.608878e+00    3.258592e+00
  9.624754e+00    3.192394e+00
  9.640630e+00    3.210025e+00
  9.656505e+00    3.212798e+00
  9.672381e+00    3.169634e+00
  9.688256e+00    3.182856e+00
  9.704132e+00    3.198090e+00
  9.720008e+00    3.174821e+00
  9.735883e+00    3.209195e+00
  9.751759e+00    3.150475e+00
  9.767634e+00    3.166712e+00
  9.783510e+00    3.185836e+00
  9.799385e+00    3.205235e+00
  9.815261e+00    3.206364e+00
  9.831137e+00    3.240800e+00
  9.847012e+00    3.172735e+00
  9.862888e+00    3.141293e+00
  9.878763e+00    3.134033e+00
  9.894639e+00    3.153955e+00
  9.910514e+00    3.127622e+00
  9.926390e+00    3.122239e+00
  9.942266e+00    3.142016e+00
  9.958141e+00    3.162742e+00
  9.974017e+00    3.175120e+00
  9.989892e+00    3.180345e+00
  1.000577e+01    3.162948e+00
  1.002164e+01    3.084306e+00
  1.003752e+01    3.105928e+00
  1.005339e+01    3.091179e+00
  1.006927e+01    3.075128e+00
  1.008515e+01    3.064324e+00
  1.010102e+01    3.075983e+00
  1.011690e+01    3.063922e+00
  1.013277e+01    3.050683e+00
  1.014865e+01    3.055936e+00
  1.016452e+01    3.085176e+00
  1.018040e+01    3.099921e+00
  1.019627e+01    3.089230e+00
  1.021215e+01    3.057471e+00
  1.022803e+01    3.047951e+00
  1.024390e+01    3.065978e+00
  1.025978e+01    3.070721e+00
  1.027565e+01    3.091398e+00
  1.029153e+01    3.097345e+00
  1.030740e+01    3.042532e+00
  1.032328e+01    3.053061e+00
  1.033915e+01    3.113467e+00
  1.035503e+01    3.071362e+00
  1.037091e+01    3.053426e+00
  1.038678e+01    3.079470e+00
  1.040266e+01    3.071063e+00
  1.041853e+01    3.123631e+00
  1.043441e+01    3.081644e+00
  1.045028e+01    3.038471e+00
  1.046616e+01    2.983227e+00
  1.048204e+01    2.985365e+00
  1.049791e+01    3.003059e+00
  1.051379e+01    2.994454e+00
  1.052966e+01    3.025429e+00
  1.054554e+01    3.012507e+00
  1.056141e+01    2.952408e+00
  1.057729e+01    3.005511e+00
  1.059316e+01    2.998964e+00
  1.060904e+01    2.982060e+00
  1.062492e+01    3.000039e+00
  1.064079e+01    3.016727e+00
  1.065667e+01    3.008642e+00
  1.067254e+01    3.012970e+00
  1.068842e+01    2.979084e+00
  1.070429e+01    3.009443e+00
  1.072017e+01    3.037389e+00
  1.073604e+01    2.950579e+00
  1.075192e+01    2.965747e+00
  1.076780e+01    2.949091e+00
  1.078367e+01    3.017529e+00
  1.079955e+01    2.940223e+00
  1.081542e+01    2.963252e+00
  1.083130e+01    2.962330e+00
  1.084717e+01    2.933374e+00
  1.086305e+01    2.951540e+00
  1.087892e+01    2.943244e+00
  1.089480e+01    2.935894e+00
  1.091068e+01    2.940077e+00
  1.092655e+01    2.926027e+00
  1.094243e+01    2.916039e+00
  1.095830e+01    2.929365e+00
  1.097418e+01    2.897604e+00
  1.099005e+01    2.874698e+00
  1.100593e+01    2.897542e+00
  1.102180e+01    2.858823e+00
  1.103768e+01    2.875608e+00
  1.105356e+01    2.861515e+00
  1.106943e+01    2.881676e+00
  1.108531e+01    2.866127e+00
  1.110118e+01    2.865503e+00
  1.111706e+01    2.876757e+00
  1.113293e+01    2.875211e+00
  1.114881e+01    2.863603e+00
  1.116468e+01    2.899859e+00
  1.118056e+01    2.903391e+00
  1.119644e+01    2.878386e+00
  1.121231e+01    2.887753e+00
  1.122819e+01    2.869545e+00
  1.124406e+01    2.901431e+00
  1.125994e+01    2.891632e+00
  1.127581e+01    2.864865e+00
  1.129169e+01    2.821920e+00
  1.130756e+01    2.855736e+00
  1.132344e+01    2.845900e+00
  1.133932e+01    2.837304e+00
  1.135519e+01    2.863223e+00
  1.137107e+01    2.813812e+00
  1.138694e+01    2.841829e+00
  1.140282e+01    2.875839e+00
  1.141869e+01    2.846415e+00
  1.143457e+01    2.816474e+00
  1.145045e+01    2.769212e+00
  1.146632e+01    2.762040e+00
  1.148220e+01    2.799863e+00
  1.149807e+01    2.793829e+00
  1.151395e+01    2.826653e+00
  1.152982e+01    2.789056e+00
  1.154570e+01    2.776455e+00
  1.156157e+01    2.770813e+00
  1.157745e+01    2.763295e+00
  1.159333e+01    2.753583e+00
  1.160920e+01    2.770602e+00
  1.162508e+01    2.830231e+00
  1.164095e+01    2.785781e+00
  1.165683e+01    2.797191e+00
  1.167270e+01    2.755486e+00
  1.168858e+01    2.709679e+00
  1.170445e+01    2.752565e+00
  1.172033e+01    2.782626e+00
  1.173621e+01    2.744524e+00
  1.175208e+01    2.763188e+00
  1.176796e+01    2.763430e+00
  1.178383e+01    2.736315e+00
  1.179971e+01    2.791057e+00
  1.181558e+01    2.744437e+00
  1.183146e+01    2.698667e+00
  1.184733e+01    2.706540e+00
  1.186321e+01    2.675117e+00
  1.187909e+01    2.741512e+00
  1.189496e+01    2.738602e+00
  1.191084e+01    2.738910e+00
  1.192671e+01    2.729374e+00
  1.194259e+01    2.717163e+00
  1.195846e+01    2.716000e+00
  1.197434e+01    2.776515e+00
  1.199021e+01    2.734391e+00
  1.200609e+01    2.687184e+00
  1.202197e+01    2.688996e+00
  1.203784e+01    2.718568e+00
  1.205372e+01    2.702078e+00
  1.206959e+01    2.681649e+00
  1.208547e+01    2.688889e+00
  1.210134e+01    2.742859e+00
  1.211722e+01    2.703916e+00
  1.213309e+01    2.730385e+00
  1.214897e+01    2.674989e+00
  1.216485e+01    2.730259e+00
  1.218072e+01    2.760427e+00
  1.219660e+01    2.740185e+00
  1.221247e+01    2.691340e+00
  1.222835e+01    2.685901e+00
  1.224422e+01    2.692279e+00
  1.226010e+01    2.713140e+00
  1.227597e+01    2.679373e+00
  1.229185e+01    2.670844e+00
  1.230773e+01    2.646030e+00
  1.232360e+01    2.651820e+00
  1.233948e+01    2.654922e+00
  1.235535e+01    2.686367e+00
  1.237123e+01    2.723217e+00
  1.238710e+01    2.712845e+00
  1.240298e+01    2.705105e+00
  1.241886e+01    2.705989e+00
  1.243473e+01    2.736169e+00
  1.245061e+01    2.765220e+00
  1.246648e+01    2.699767e+00
  1.248236e+01    2.702975e+00
  1.249823e+01    2.742915e+00
  1.251411e+01    2.716321e+00
  1.252998e+01    2.742171e+00
  1.254586e+01    2.702450e+00
  1.256174e+01    2.670573e+00
  1.257761e+01    2.716058e+00
  1.259349e+01    2.711576e+00
  1.260936e+01    2.758443e+00
  1.262524e+01    2.774560e+00
  1.264111e+01    2.765308e+00
  1.265699e+01    2.765129e+00
  1.267286e+01    2.794126e+00
  1.268874e+01    2.795600e+00
  1.270462e+01    2.827505e+00
  1.272049e+01    2.835578e+00
  1.273637e+01    2.890890e+00
  1.275224e+01    2.936776e+00
  1.276812e+01    2.992045e+00
  1.278399e+01    2.968507e+00
  1.279987e+01    2.984617e+00
  1.281574e+01    3.082888e+00
  1.283162e+01    3.138246e+00
  1.284750e+01    3.190377e+00
  1.286337e+01    3.295078e+00
  1.287925e+01    3.367704e+00
  1.289512e+01    3.444502e+00
  1.291100e+01    3.608395e+00
  1.292687e+01    3.773941e+00
  1.294275e+01    4.043127e+00
  1.295862e+01    4.374566e+00
  1.297450e+01    4.793422e+00
  1.299038e+01    5.271636e+00
  1.300625e+01    5.842792e+00
  1.302213e+01    6.708316e+00
  1.303800e+01    7.736407e+00
  1.305388e+01    8.849707e+00
  1.306975e+01    1.008254e+01
  1.308563e+01    1.146739e+01
  1.310150e+01    1.257212e+01
  1.311738e+01    1.371159e+01
  1.313326e+01    1.484702e+01
  1.314913e+01    1.564466e+01
  1.316501e+01    1.615209e+01
  1.318088e+01    1.631481e+01
  1.319676e+01    1.565488e+01
  1.321263e+01    1.432832e+01
  1.322851e+01    1.257330e+01
  1.324438e+01    1.072593e+01
  1.326026e+01    9.033556e+00
  1.327614e+01    7.827614e+00
  1.329201e+01    6.861648e+00
  1.330789e+01    5.947187e+00
  1.332376e+01    5.353627e+00
  1.333964e+01    4.835457e+00
  1.335551e+01    4.392206e+00
  1.337139e+01    4.088451e+00
  1.338727e+01    3.876176e+00
  1.340314e+01    3.716797e+00
  1.341902e+01    3.497048e+00
  1.343489e+01    3.341109e+00
  1.345077e+01    3.276081e+00
  1.346664e+01    3.180594e+00
  1.348252e+01    3.045489e+00
  1.349839e+01    2.924165e+00
  1.351427e+01    2.946237e+00
  1.353015e+01    2.894521e+00
  1.354602e+01    2.766871e+00
  1.356190e+01    2.737495e+00
  1.357777e+01    2.740596e+00
  1.359365e+01    2.728449e+00
  1.360952e+01    2.714305e+00
  1.362540e+01    2.664749e+00
  1.364127e+01    2.600771e+00
  1.365715e+01    2.604814e+00
  1.367303e+01    2.549268e+00
  1.368890e+01    2.531660e+00
  1.370478e+01    2.520365e+00
  1.372065e+01    2.543377e+00
  1.373653e+01    2.511073e+00
  1.375240e+01    2.483528e+00
  1.376828e+01    2.504356e+00
  1.378415e+01    2.464322e+00
  1.380003e+01    2.516806e+00
  1.381591e+01    2.504848e+00
  1.383178e+01    2.447985e+00
  1.384766e+01    2.429950e+00
  1.386353e+01    2.424513e+00
  1.387941e+01    2.382001e+00
  1.389528e+01    2.404975e+00
  1.391116e+01    2.435362e+00
  1.392703e+01    2.405502e+00
  1.394291e+01    2.359592e+00
  1.395879e+01    2.369721e+00
  1.397466e+01    2.373137e+00
  1.399054e+01    2.391172e+00
  1.400641e+01    2.372417e+00
  1.402229e+01    2.376563e+00
  1.403816e+01    2.332582e+00
  1.405404e+01    2.323978e+00
  1.406991e+01    2.358867e+00
  1.408579e+01    2.363919e+00
  1.410167e+01    2.377071e+00
  1.411754e+01    2.307956e+00
  1.413342e+01    2.296633e+00
  1.414929e+01    2.348303e+00
  1.416517e+01    2.344121e+00
  1.418104e+01    2.296783e+00
  1.419692e+01    2.218070e+00
  1.421279e+01    2.235573e+00
  1.422867e+01    2.290814e+00
  1.424455e+01    2.291091e+00
  1.426042e+01    2.333503e+00
  1.427630e+01    2.304413e+00
  1.429217e+01    2.256864e+00
  1.430805e+01    2.245671e+00
  1.432392e+01    2.286175e+00
  1.433980e+01    2.275874e+00
  1.435568e+01    2.270351e+00
  1.437155e+01    2.250568e+00
  1.438743e+01    2.246891e+00
  1.440330e+01    2.279044e+00
  1.441918e+01    2.250701e+00
  1.443505e+01    2.229288e+00
  1.445093e+01    2.271651e+00
  1.446680e+01    2.255386e+00
  1.448268e+01    2.234422e+00
  1.449856e+01    2.230410e+00
  1.451443e+01    2.211864e+00
  1.453031e+01    2.221619e+00
  1.454618e+01    2.194753e+00
  1.456206e+01    2.178441e+00
  1.457793e+01    2.234030e+00
  1.459381e+01    2.194858e+00
  1.460968e+01    2.202728e+00
  1.462556e+01    2.229126e+00
  1.464144e+01    2.287864e+00
  1.465731e+01    2.285314e+00
  1.467319e+01    2.246883e+00
  1.468906e+01    2.192667e+00
  1.470494e+01    2.188454e+00
  1.472081e+01    2.236147e+00
  1.473669e+01    2.175289e+00
  1.475256e+01    2.153765e+00
  1.476844e+01    2.216090e+00
  1.478432e+01    2.226161e+00
  1.480019e+01    2.226312e+00
  1.481607e+01    2.213678e+00
  1.483194e+01    2.198106e+00
  1.484782e+01    2.198841e+00
  1.486369e+01    2.195781e+00
  1.487957e+01    2.234483e+00
  1.489544e+01    2.237523e+00
  1.491132e+01    2.241044e+00
  1.492720e+01    2.275376e+00
  1.494307e+01    2.273710e+00
  1.495895e+01    2.313601e+00
  1.497482e+01    2.337171e+00
  1.499070e+01    2.366013e+00
  1.500657e+01    2.432265e+00
  1.502245e+01    2.491659e+00
  1.503832e+01    2.581071e+00
  1.505420e+01    2.644040e+00
  1.507008e+01    2.751533e+00
  1.508595e+01    2.981784e+00
  1.510183e+01    3.193599e+00
  1.511770e+01    3.447966e+00
  1.513358e+01    3.779704e+00
  1.514945e+01    4.153846e+00
  1.516533e+01    4.578371e+00
  1.518120e+01    4.861773e+00
  1.519708e+01    5.065227e+00
  1.521296e+01    5.331283e+00
  1.522883e+01    5.617902e+00
  1.524471e+01    5.785522e+00
  1.526058e+01    5.769496e+00
  1.527646e+01    5.733734e+00
  1.529233e+01    5.508244e+00
  1.530821e+01    5.095474e+00
  1.532409e+01    4.662123e+00
  1.533996e+01    4.226353e+00
  1.535584e+01    3.821897e+00
  1.537171e+01    3.420237e+00
  1.538759e+01    3.159432e+00
  1.540346e+01    2.988228e+00
  1.541934e+01    2.780403e+00
  1.543521e+01    2.671907e+00
  1.545109e+01    2.564592e+00
  1.546697e+01    2.448125e+00
  1.548284e+01    2.354566e+00
  1.549872e+01    2.288572e+00
  1.551459e+01    2.257375e+00
  1.553047e+01    2.229432e+00
  1.554634e+01    2.210077e+00
  1.556222e+01    2.170957e+00
  1.557809e+01    2.135827e+00
  1.559397e+01    2.114257e+00
  1.560985e+01    2.084457e+00
  1.562572e+01    2.051236e+00
  1.564160e+01    2.041147e+00
  1.565747e+01    2.054972e+00
  1.567335e+01    2.040642e+00
  1.568922e+01    2.049984e+00
  1.570510e+01    2.035191e+00
  1.572097e+01    1.983329e+00
  1.573685e+01    1.984625e+00
  1.575273e+01    1.992482e+00
  1.576860e+01    1.966054e+00
  1.578448e+01    1.979332e+00
  1.580035e+01    1.962161e+00
  1.581623e+01    1.933012e+00
  1.583210e+01    1.923288e+00
  1.584798e+01    1.930907e+00
  1.586385e+01    1.900095e+00
  1.587973e+01    1.877046e+00
  1.589561e+01    1.919205e+00
  1.591148e+01    1.915441e+00
  1.592736e+01    1.937158e+00
  1.594323e+01    1.947206e+00
  1.595911e+01    1.932418e+00
  1.597498e+01    1.916420e+00
  1.599086e+01    1.915204e+00
  1.600673e+01    1.902421e+00
  1.602261e+01    1.878794e+00
  1.603849e+01    1.854610e+00
  1.605436e+01    1.874051e+00
  1.607024e+01    1.877914e+00
  1.608611e+01    1.887690e+00
  1.610199e+01    1.839832e+00
  1.611786e+01    1.846891e+00
  1.613374e+01    1.827957e+00
  1.614961e+01    1.847082e+00
  1.616549e+01    1.811795e+00
  1.618137e+01    1.782484e+00
  1.619724e+01    1.801647e+00
  1.621312e+01    1.807709e+00
  1.622899e+01    1.841412e+00
  1.624487e+01    1.840418e+00
  1.626074e+01    1.784227e+00
  1.627662e+01    1.778114e+00
  1.629250e+01    1.779242e+00
  1.630837e+01    1.826388e+00
  1.632425e+01    1.824854e+00
  1.634012e+01    1.817069e+00
  1.635600e+01    1.761105e+00
  1.637187e+01    1.780840e+00
  1.638775e+01    1.771509e+00
  1.640362e+01    1.737359e+00
  1.641950e+01    1.769950e+00
  1.643538e+01    1.763460e+00
  1.645125e+01    1.773229e+00
  1.646713e+01    1.788297e+00
  1.648300e+01    1.782953e+00
  1.649888e+01    1.772192e+00
  1.651475e+01    1.750883e+00
  1.653063e+01    1.725504e+00
  1.654650e+01    1.753692e+00
  1.656238e+01    1.734800e+00
  1.657826e+01    1.732469e+00
  1.659413e+01    1.749668e+00
  1.661001e+01    1.746681e+00
  1.662588e+01    1.748966e+00
  1.664176e+01    1.746502e+00
  1.665763e+01    1.763208e+00
  1.667351e+01    1.752050e+00
  1.668938e+01    1.741319e+00
  1.670526e+01    1.705481e+00
  1.672114e+01    1.689401e+00
  1.673701e+01    1.733261e+00
  1.675289e+01    1.747599e+00
  1.676876e+01    1.711006e+00
  1.678464e+01    1.700305e+00
  1.680051e+01    1.723049e+00
  1.681639e+01    1.673908e+00
  1.683226e+01    1.712896e+00
  1.684814e+01    1.707292e+00
  1.686402e+01    1.709352e+00
  1.687989e+01    1.707018e+00
  1.689577e+01    1.677430e+00
  1.691164e+01    1.703867e+00
  1.692752e+01    1.682376e+00
  1.694339e+01    1.671864e+00
  1.695927e+01    1.680242e+00
  1.697514e+01    1.679042e+00
  1.699102e+01    1.651700e+00
  1.700690e+01    1.657864e+00
  1.702277e+01    1.644611e+00
  1.703865e+01    1.682200e+00
  1.705452e+01    1.672760e+00
  1.707040e+01    1.649246e+00
  1.708627e+01    1.635790e+00
  1.710215e+01    1.642220e+00
  1.711802e+01    1.652542e+00
  1.713390e+01    1.653577e+00
  1.714978e+01    1.671504e+00
  1.716565e+01    1.667624e+00
  1.718153e+01    1.594733e+00
  1.719740e+01    1.610357e+00
  1.721328e+01    1.619116e+00
  1.722915e+01    1.639867e+00
  1.724503e+01    1.673555e+00
  1.726091e+01    1.651991e+00
  1.727678e+01    1.595005e+00
  1.729266e+01    1.593860e+00
  1.730853e+01    1.643243e+00
  1.732441e+01    1.619355e+00
  1.734028e+01    1.618468e+00
  1.735616e+01    1.609044e+00
  1.737203e+01    1.579797e+00
  1.738791e+01    1.578499e+00
  1.740379e+01    1.605546e+00
  1.741966e+01    1.610857e+00
  1.743554e+01    1.571517e+00
  1.745141e+01    1.574451e+00
  1.746729e+01    1.600441e+00
  1.748316e+01    1.592504e+00
  1.749904e+01    1.606849e+00
  1.751491e+01    1.593325e+00
  1.753079e+01    1.590680e+00
  1.754667e+01    1.596443e+00
  1.756254e+01    1.587396e+00
  1.757842e+01    1.603925e+00
  1.759429e+01    1.583450e+00
  1.761017e+01    1.566866e+00
  1.762604e+01    1.557550e+00
  1.764192e+01    1.535855e+00
  1.765779e+01    1.540410e+00
  1.767367e+01    1.570804e+00
  1.768955e+01    1.553769e+00
  1.770542e+01    1.554168e+00
  1.772130e+01    1.558807e+00
  1.773717e+01    1.564897e+00
  1.775305e+01    1.571948e+00
  1.776892e+01    1.555423e+00
  1.778480e+01    1.532519e+00
  1.780067e+01    1.522328e+00
  1.781655e+01    1.558774e+00
  1.783243e+01    1.544831e+00
  1.784830e+01    1.548183e+00
  1.786418e+01    1.564288e+00
  1.788005e+01    1.521693e+00
  1.789593e+01    1.519914e+00
  1.791180e+01    1.545007e+00
  1.792768e+01    1.530626e+00
  1.794355e+01    1.525034e+00
  1.795943e+01    1.524175e+00
  1.797531e+01    1.506717e+00
  1.799118e+01    1.510253e+00
  1.800706e+01    1.515670e+00
  1.802293e+01    1.491982e+00
  1.803881e+01    1.485086e+00
  1.805468e+01    1.503641e+00
  1.807056e+01    1.494942e+00
  1.808643e+01    1.505342e+00
  1.810231e+01    1.534922e+00
  1.811819e+01    1.516439e+00
  1.813406e+01    1.489768e+00
  1.814994e+01    1.486967e+00
  1.816581e+01    1.458287e+00
  1.818169e+01    1.499469e+00
  1.819756e+01    1.524936e+00
  1.821344e+01    1.478942e+00
  1.822932e+01    1.489692e+00
  1.824519e+01    1.492842e+00
  1.826107e+01    1.492902e+00
  1.827694e+01    1.500640e+00
  1.829282e+01    1.487102e+00
  1.830869e+01    1.462796e+00
  1.832457e+01    1.486860e+00
  1.834044e+01    1.453078e+00
  1.835632e+01    1.457549e+00
  1.837220e+01    1.464750e+00
  1.838807e+01    1.480007e+00
  1.840395e+01    1.452810e+00
  1.841982e+01    1.448983e+00
  1.843570e+01    1.462757e+00
  1.845157e+01    1.493832e+00
  1.846745e+01    1.473732e+00
  1.848332e+01    1.432981e+00
  1.849920e+01    1.418965e+00
  1.851508e+01    1.445951e+00
  1.853095e+01    1.456679e+00
  1.854683e+01    1.407458e+00
  1.856270e+01    1.397232e+00
  1.857858e+01    1.417092e+00
  1.859445e+01    1.434744e+00
  1.861033e+01    1.450312e+00
  1.862620e+01    1.431814e+00
  1.864208e+01    1.425372e+00
  1.865796e+01    1.413791e+00
  1.867383e+01    1.399981e+00
  1.868971e+01    1.426901e+00
  1.870558e+01    1.440742e+00
  1.872146e+01    1.434824e+00
  1.873733e+01    1.456076e+00
  1.875321e+01    1.450973e+00
  1.876908e+01    1.427180e+00
  1.878496e+01    1.417828e+00
  1.880084e+01    1.397034e+00
  1.881671e+01    1.380734e+00
  1.883259e+01    1.398573e+00
  1.884846e+01    1.390093e+00
  1.886434e+01    1.413109e+00
  1.888021e+01    1.404800e+00
  1.889609e+01    1.389652e+00
  1.891196e+01    1.385621e+00
  1.892784e+01    1.389027e+00
  1.894372e+01    1.396737e+00
  1.895959e+01    1.407086e+00
  1.897547e+01    1.407070e+00
  1.899134e+01    1.369356e+00
  1.900722e+01    1.382220e+00
  1.902309e+01    1.378787e+00
  1.903897e+01    1.391536e+00
  1.905484e+01    1.378415e+00
  1.907072e+01    1.376711e+00
  1.908660e+01    1.378289e+00
  1.910247e+01    1.383475e+00
  1.911835e+01    1.375146e+00
  1.913422e+01    1.382249e+00
  1.915010e+01    1.404697e+00
  1.916597e+01    1.380045e+00
  1.918185e+01    1.364276e+00
  1.919773e+01    1.360681e+00
  1.921360e+01    1.379290e+00
  1.922948e+01    1.364824e+00
  1.924535e+01    1.363357e+00
  1.926123e+01    1.368481e+00
  1.927710e+01    1.346517e+00
  1.929298e+01    1.360963e+00
  1.930885e+01    1.354301e+00
  1.932473e+01    1.374449e+00
  1.934061e+01    1.348653e+00
  1.935648e+01    1.351112e+00
  1.937236e+01    1.328614e+00
  1.938823e+01    1.334015e+00
  1.940411e+01    1.327674e+00
  1.941998e+01    1.340464e+00
  1.943586e+01    1.349073e+00
  1.945173e+01    1.327484e+00
  1.946761e+01    1.333640e+00
  1.948349e+01    1.320353e+00
  1.949936e+01    1.327840e+00
  1.951524e+01    1.356476e+00
  1.953111e+01    1.333262e+00
  1.954699e+01    1.345495e+00
  1.956286e+01    1.336688e+00
  1.957874e+01    1.352509e+00
  1.959461e+01    1.339090e+00
  1.961049e+01    1.303512e+00
  1.962637e+01    1.332347e+00
  1.964224e+01    1.343822e+00
  1.965812e+01    1.328716e+00
  1.967399e+01    1.314821e+00
  1.968987e+01    1.299217e+00
  1.970574e+01    1.295527e+00
  1.972162e+01    1.272143e+00
  1.973749e+01    1.304026e+00
  1.975337e+01    1.313046e+00
  1.976925e+01    1.292465e+00
  1.978512e+01    1.269367e+00
  1.980100e+01    1.285122e+00
  1.981687e+01    1.307348e+00
  1.983275e+01    1.310171e+00
  1.984862e+01    1.316613e+00
  1.986450e+01    1.270308e+00
  1.988037e+01    1.289011e+00
  1.989625e+01    1.308467e+00
  1.991213e+01    1.283549e+00
  1.992800e+01    1.273813e+00
  1.994388e+01    1.293249e+00
  1.995975e+01    1.284497e+00
  1.997563e+01    1.279145e+00
  1.999150e+01    1.289074e+00
  2.000738e+01    1.300210e+00
  2.002325e+01    1.268019e+00
  2.003913e+01    1.288269e+00
  2.005501e+01    1.279807e+00
  2.007088e+01    1.257973e+00
  2.008676e+01    1.294746e+00
  2.010263e+01    1.292287e+00
  2.011851e+01    1.254373e+00
  2.013438e+01    1.271145e+00
  2.015026e+01    1.265287e+00
  2.016614e+01    1.265451e+00
  2.018201e+01    1.288304e+00
  2.019789e+01    1.275960e+00
  2.021376e+01    1.277764e+00
  2.022964e+01    1.270005e+00
  2.024551e+01    1.272344e+00
  2.026139e+01    1.292516e+00
  2.027726e+01    1.274240e+00
  2.029314e+01    1.252553e+00
  2.030902e+01    1.277748e+00
  2.032489e+01    1.270454e+00
  2.034077e+01    1.248304e+00
  2.035664e+01    1.243205e+00
  2.037252e+01    1.264223e+00
  2.038839e+01    1.266592e+00
  2.040427e+01    1.244940e+00
  2.042014e+01    1.247626e+00
  2.043602e+01    1.260409e+00
  2.045190e+01    1.249678e+00
  2.046777e+01    1.227344e+00
  2.048365e+01    1.217273e+00
  2.049952e+01    1.225866e+00
  2.051540e+01    1.235492e+00
  2.053127e+01    1.238003e+00
  2.054715e+01    1.226163e+00
  2.056302e+01    1.230538e+00
  2.057890e+01    1.241661e+00
  2.059478e+01    1.234459e+00
  2.061065e+01    1.225298e+00
  2.062653e+01    1.227501e+00
  2.064240e+01    1.237391e+00
  2.065828e+01    1.228805e+00
  2.067415e+01    1.250114e+00
  2.069003e+01    1.230443e+00
  2.070590e+01    1.216795e+00
  2.072178e+01    1.256913e+00
  2.073766e+01    1.253974e+00
  2.075353e+01    1.246221e+00
  2.076941e+01    1.213309e+00
  2.078528e+01    1.211177e+00
  2.080116e+01    1.236328e+00
  2.081703e+01    1.210355e+00
  2.083291e+01    1.244002e+00
  2.084878e+01    1.235645e+00
  2.086466e+01    1.222743e+00
  2.088054e+01    1.216074e+00
  2.089641e+01    1.209340e+00
  2.091229e+01    1.221350e+00
  2.092816e+01    1.226383e+00
  2.094404e+01    1.229693e+00
  2.095991e+01    1.241139e+00
  2.097579e+01    1.231284e+00
  2.099166e+01    1.211389e+00
  2.100754e+01    1.206878e+00
  2.102342e+01    1.236983e+00
  2.103929e+01    1.238077e+00
  2.105517e+01    1.249584e+00
  2.107104e+01    1.239023e+00
  2.108692e+01    1.228823e+00
  2.110279e+01    1.266483e+00
  2.111867e+01    1.232294e+00
  2.113455e+01    1.224899e+00
  2.115042e+01    1.238284e+00
  2.116630e+01    1.231182e+00
  2.118217e+01    1.220474e+00
  2.119805e+01    1.225544e+00
  2.121392e+01    1.228141e+00
  2.122980e+01    1.245489e+00
  2.124567e+01    1.237865e+00
  2.126155e+01    1.246842e+00
  2.127743e+01    1.237461e+00
  2.129330e+01    1.268166e+00
  2.130918e+01    1.258510e+00
  2.132505e+01    1.269682e+00
  2.134093e+01    1.282225e+00
  2.135680e+01    1.283535e+00
  2.137268e+01    1.278720e+00
  2.138855e+01    1.292392e+00
  2.140443e+01    1.327105e+00
  2.142031e+01    1.310792e+00
  2.143618e+01    1.328293e+00
  2.145206e+01    1.336225e+00
  2.146793e+01    1.353600e+00
  2.148381e+01    1.369442e+00
  2.149968e+01    1.395996e+00
  2.151556e+01    1.411116e+00
  2.153143e+01    1.469285e+00
  2.154731e+01    1.516807e+00
  2.156319e+01    1.533804e+00
  2.157906e+01    1.609114e+00
  2.159494e+01    1.670566e+00
  2.161081e+01    1.767938e+00
  2.162669e+01    1.855484e+00
  2.164256e+01    1.963389e+00
  2.165844e+01    2.110115e+00
  2.167431e+01    2.283684e+00
  2.169019e+01    2.482455e+00
  2.170607e+01    2.755961e+00
  2.172194e+01    3.118942e+00
  2.173782e+01    3.544738e+00
  2.175369e+01    3.997372e+00
  2.176957e+01    4.536864e+00
  2.178544e+01    5.158204e+00
  2.180132e+01    5.788517e+00
  2.181719e+01    6.470570e+00
  2.183307e+01    7.133351e+00
  2.184895e+01    7.748194e+00
  2.186482e+01    8.343893e+00
  2.188070e+01    8.774604e+00
  2.189657e+01    8.999113e+00
  2.191245e+01    8.801093e+00
  2.192832e+01    8.298657e+00
  2.194420e+01    7.561104e+00
  2.196007e+01    6.600475e+00
  2.197595e+01    5.748214e+00
  2.199183e+01    4.886035e+00
  2.200770e+01    4.226372e+00
  2.202358e+01    3.634217e+00
  2.203945e+01    3.167404e+00
  2.205533e+01    2.834898e+00
  2.207120e+01    2.570656e+00
  2.208708e+01    2.355514e+00
  2.210296e+01    2.161038e+00
  2.211883e+01    1.976766e+00
  2.213471e+01    1.892300e+00
  2.215058e+01    1.780897e+00
  2.216646e+01    1.700474e+00
  2.218233e+01    1.620642e+00
  2.219821e+01    1.565582e+00
  2.221408e+01    1.485651e+00
  2.222996e+01    1.430505e+00
  2.224584e+01    1.384451e+00
  2.226171e+01    1.365967e+00
  2.227759e+01    1.365464e+00
  2.229346e+01    1.347278e+00
  2.230934e+01    1.299683e+00
  2.232521e+01    1.265656e+00
  2.234109e+01    1.234555e+00
  2.235696e+01    1.209655e+00
  2.237284e+01    1.221674e+00
  2.238872e+01    1.209193e+00
  2.240459e+01    1.179726e+00
  2.242047e+01    1.176887e+00
  2.243634e+01    1.199176e+00
  2.245222e+01    1.182633e+00
  2.246809e+01    1.178388e+00
  2.248397e+01    1.144595e+00
  2.249984e+01    1.144171e+00
  2.251572e+01    1.125125e+00
  2.253160e+01    1.121256e+00
  2.254747e+01    1.145315e+00
  2.256335e+01    1.130842e+00
  2.257922e+01    1.125190e+00
  2.259510e+01    1.126796e+00
  2.261097e+01    1.072789e+00
  2.262685e+01    1.093844e+00
  2.264272e+01    1.093432e+00
  2.265860e+01    1.070948e+00
  2.267448e+01    1.082638e+00
  2.269035e+01    1.078672e+00
  2.270623e+01    1.059471e+00
  2.272210e+01    1.091057e+00
  2.273798e+01    1.090095e+00
  2.275385e+01    1.057397e+00
  2.276973e+01    1.045510e+00
  2.278560e+01    1.048939e+00
  2.280148e+01    1.070403e+00
  2.281736e+01    1.043975e+00
  2.283323e+01    1.051680e+00
  2.284911e+01    1.044095e+00
  2.286498e+01    1.047685e+00
  2.288086e+01    1.061696e+00
  2.289673e+01    1.051295e+00
  2.291261e+01    1.053067e+00
  2.292848e+01    1.048520e+00
  2.294436e+01    1.012676e+00
  2.296024e+01    1.043356e+00
  2.297611e+01    1.058530e+00
  2.299199e+01    1.032008e+00
  2.300786e+01    1.043881e+00
  2.302374e+01    1.020501e+00
  2.303961e+01    1.035878e+00
  2.305549e+01    1.033415e+00
  2.307137e+01    1.009421e+00
  2.308724e+01    9.880920e-01
  2.310312e+01    9.852874e-01
  2.311899e+01    1.001292e+00
  2.313487e+01    9.852702e-01
  2.315074e+01    9.961891e-01
  2.316662e+01    9.919472e-01
  2.318249e+01    1.014152e+00
  2.319837e+01    1.002990e+00
  2.321425e+01    1.004333e+00
  2.323012e+01    1.010955e+00
  2.324600e+01    9.925982e-01
  2.326187e+01    9.832907e-01
  2.327775e+01    9.808916e-01
  2.329362e+01    9.916098e-01
  2.330950e+01    9.837352e-01
  2.332537e+01    9.954062e-01
  2.334125e+01    9.950883e-01
  2.335713e+01    9.768647e-01
  2.337300e+01    9.842378e-01
  2.338888e+01    9.700661e-01
  2.340475e+01    9.525996e-01
  2.342063e+01    9.595456e-01
  2.343650e+01    9.699652e-01
  2.345238e+01    9.665803e-01
  2.346825e+01    9.691680e-01
  2.348413e+01    9.589923e-01
  2.350001e+01    9.515333e-01
  2.351588e+01    9.586241e-01
  2.353176e+01    9.626595e-01
  2.354763e+01    9.705613e-01
  2.356351e+01    9.653108e-01
  2.357938e+01    9.469787e-01
  2.359526e+01    9.602932e-01
  2.361113e+01    9.506202e-01
  2.362701e+01    9.671119e-01
  2.364289e+01    9.657962e-01
  2.365876e+01    9.504021e-01
  2.367464e+01    9.330931e-01
  2.369051e+01    9.437976e-01
  2.370639e+01    9.421759e-01
  2.372226e+01    9.496523e-01
  2.373814e+01    9.475639e-01
  2.375401e+01    9.376528e-01
  2.376989e+01    9.257042e-01
  2.378577e+01    9.149545e-01
  2.380164e+01    9.351245e-01
  2.381752e+01    9.375603e-01
  2.383339e+01    9.178849e-01
  2.384927e+01    9.271213e-01
  2.386514e+01    9.226184e-01
  2.388102e+01    8.962470e-01
  2.389689e+01    9.068179e-01
  2.391277e+01    9.099508e-01
  2.392865e+01    9.191824e-01
  2.394452e+01    9.049444e-01
  2.396040e+01    8.878012e-01
  2.397627e+01    8.827958e-01
  2.399215e+01    8.960582e-01
  2.400802e+01    9.003339e-01
  2.402390e+01    8.834167e-01
  2.403978e+01    9.016126e-01
  2.405565e+01    8.982500e-01
  2.407153e+01    8.745887e-01
  2.408740e+01    8.765031e-01
  2.410328e+01    8.989286e-01
  2.411915e+01    8.902007e-01
  2.413503e+01    8.710979e-01
  2.415090e+01    8.867630e-01
  2.416678e+01    8.808193e-01
  2.418266e+01    8.878046e-01
  2.419853e+01    8.934941e-01
  2.421441e+01    8.774404e-01
  2.423028e+01    8.830429e-01
  2.424616e+01    8.901188e-01
  2.426203e+01    8.757142e-01
  2.427791e+01    8.858761e-01
  2.429378e+01    8.850663e-01
  2.430966e+01    8.961838e-01
  2.432554e+01    8.783249e-01
  2.434141e+01    8.960397e-01
  2.435729e+01    9.081621e-01
  2.437316e+01    9.060507e-01
  2.438904e+01    9.002524e-01
  2.440491e+01    8.756444e-01
  2.442079e+01    8.974422e-01
  2.443666e+01    9.065936e-01
  2.445254e+01    9.017569e-01
  2.446842e+01    8.960620e-01
  2.448429e+01    8.851361e-01
  2.450017e+01    8.838370e-01
  2.451604e+01    8.897503e-01
  2.453192e+01    8.867206e-01
  2.454779e+01    8.938186e-01
  2.456367e+01    9.034449e-01
  2.457954e+01    9.024698e-01
  2.459542e+01    8.972599e-01
  2.461130e+01    8.800644e-01
  2.462717e+01    8.961408e-01
  2.464305e+01    8.956638e-01
  2.465892e+01    8.867810e-01
  2.467480e+01    8.925617e-01
  2.469067e+01    9.002622e-01
  2.470655e+01    9.005468e-01
  2.472242e+01    8.882713e-01
  2.473830e+01    8.937775e-01
  2.475418e+01    9.036829e-01
  2.477005e+01    9.136528e-01
  2.478593e+01    9.177808e-01
  2.480180e+01    8.984337e-01
  2.481768e+01    9.040232e-01
  2.483355e+01    8.861349e-01
  2.484943e+01    8.973008e-01
  2.486530e+01    9.206263e-01
  2.488118e+01    8.962733e-01
  2.489706e+01    8.936807e-01
  2.491293e+01    8.787375e-01
  2.492881e+01    8.906644e-01
  2.494468e+01    9.044917e-01
  2.496056e+01    8.989217e-01
  2.497643e+01    8.930086e-01
  2.499231e+01    8.925101e-01
  2.500819e+01    8.961685e-01
  2.502406e+01    8.950736e-01
  2.503994e+01    9.161332e-01
  2.505581e+01    9.032748e-01
  2.507169e+01    9.115693e-01
  2.508756e+01    9.094216e-01
  2.510344e+01    9.094878e-01
  2.511931e+01    8.994987e-01
  2.513519e+01    9.011523e-01
  2.515107e+01    9.078773e-01
  2.516694e+01    9.202382e-01
  2.518282e+01    9.167029e-01
  2.519869e+01    9.395840e-01
  2.521457e+01    9.392955e-01
  2.523044e+01    9.387661e-01
  2.524632e+01    9.300027e-01
  2.526219e+01    9.312652e-01
  2.527807e+01    9.425427e-01
  2.529395e+01    9.506354e-01
  2.530982e+01    9.492705e-01
  2.532570e+01    9.619223e-01
  2.534157e+01    9.614435e-01
  2.535745e+01    9.653601e-01
  2.537332e+01    9.688739e-01
  2.538920e+01    1.002020e+00
  2.540507e+01    1.012852e+00
  2.542095e+01    1.001362e+00
  2.543683e+01    9.983329e-01
  2.545270e+01    1.026398e+00
  2.546858e+01    1.033758e+00
  2.548445e+01    1.050350e+00
  2.550033e+01    1.085490e+00
  2.551620e+01    1.074868e+00
  2.553208e+01    1.084228e+00
  2.554795e+01    1.095119e+00
  2.556383e+01    1.126192e+00
  2.557971e+01    1.148276e+00
  2.559558e+01    1.173093e+00
  2.561146e+01    1.240132e+00
  2.562733e+01    1.264213e+00
  2.564321e+01    1.304783e+00
  2.565908e+01    1.335069e+00
  2.567496e+01    1.407754e+00
  2.569083e+01    1.477442e+00
  2.570671e+01    1.590068e+00
  2.572259e+01    1.694229e+00
  2.573846e+01    1.832910e+00
  2.575434e+01    1.990584e+00
  2.577021e+01    2.236469e+00
  2.578609e+01    2.531227e+00
  2.580196e+01    2.791364e+00
  2.581784e+01    3.162308e+00
  2.583371e+01    3.629014e+00
  2.584959e+01    4.122242e+00
  2.586547e+01    4.663222e+00
  2.588134e+01    5.258357e+00
  2.589722e+01    5.808430e+00
  2.591309e+01    6.268317e+00
  2.592897e+01    6.752978e+00
  2.594484e+01    7.013790e+00
  2.596072e+01    7.086636e+00
  2.597660e+01    6.980403e+00
  2.599247e+01    6.523752e+00
  2.600835e+01    5.993240e+00
  2.602422e+01    5.361912e+00
  2.604010e+01    4.619038e+00
  2.605597e+01    4.017402e+00
  2.607185e+01    3.496848e+00
  2.608772e+01    3.037436e+00
  2.610360e+01    2.669865e+00
  2.611948e+01    2.383005e+00
  2.613535e+01    2.135966e+00
  2.615123e+01    1.958849e+00
  2.616710e+01    1.833849e+00
  2.618298e+01    1.679297e+00
  2.619885e+01    1.574426e+00
  2.621473e+01    1.472028e+00
  2.623060e+01    1.386356e+00
  2.624648e+01    1.335966e+00
  2.626236e+01    1.279683e+00
  2.627823e+01    1.270083e+00
  2.629411e+01    1.227283e+00
  2.630998e+01    1.162750e+00
  2.632586e+01    1.155083e+00
  2.634173e+01    1.141689e+00
  2.635761e+01    1.112886e+00
  2.637348e+01    1.104736e+00
  2.638936e+01    1.092649e+00
  2.640524e+01    1.052837e+00
  2.642111e+01    1.036438e+00
  2.643699e+01    1.038841e+00
  2.645286e+01    1.030425e+00
  2.646874e+01    1.039567e+00
  2.648461e+01    1.022870e+00
  2.650049e+01    1.004378e+00
  2.651636e+01    9.997961e-01
  2.653224e+01    9.818792e-01
  2.654812e+01    1.010173e+00
  2.656399e+01    9.971414e-01
  2.657987e+01    9.832481e-01
  2.659574e+01    9.761773e-01
  2.661162e+01    9.724797e-01
  2.662749e+01    9.855596e-01
  2.664337e+01    9.836559e-01
  2.665924e+01    9.732845e-01
  2.667512e+01    9.852393e-01
  2.669100e+01    9.698170e-01
  2.670687e+01    9.744437e-01
  2.672275e+01    9.833244e-01
  2.673862e+01    1.004023e+00
  2.675450e+01    9.723725e-01
  2.677037e+01    9.612926e-01
  2.678625e+01    9.839334e-01
  2.680212e+01    9.844267e-01
  2.681800e+01    9.608563e-01
  2.683388e+01    9.957069e-01
  2.684975e+01    9.980237e-01
  2.686563e+01    9.965255e-01
  2.688150e+01    1.007905e+00
  2.689738e+01    1.026172e+00
  2.691325e+01    1.007636e+00
  2.692913e+01    1.021319e+00
  2.694501e+01    1.058695e+00
  2.696088e+01    1.054121e+00
  2.697676e+01    1.043697e+00
  2.699263e+01    1.073094e+00
  2.700851e+01    1.113837e+00
  2.702438e+01    1.143021e+00
  2.704026e+01    1.198488e+00
  2.705613e+01    1.229634e+00
  2.707201e+01    1.296232e+00
  2.708789e+01    1.400879e+00
  2.710376e+01    1.493670e+00
  2.711964e+01    1.626620e+00
  2.713551e+01    1.753486e+00
  2.715139e+01    1.833616e+00
  2.716726e+01    1.940318e+00
  2.718314e+01    2.040577e+00
  2.719901e+01    2.121394e+00
  2.721489e+01    2.184841e+00
  2.723077e+01    2.165456e+00
  2.724664e+01    2.113597e+00
  2.726252e+01    1.970341e+00
  2.727839e+01    1.802508e+00
  2.729427e+01    1.695802e+00
  2.731014e+01    1.587996e+00
  2.732602e+01    1.453980e+00
  2.734189e+01    1.346391e+00
  2.735777e+01    1.270880e+00
  2.737365e+01    1.222409e+00
  2.738952e+01    1.179468e+00
  2.740540e+01    1.146782e+00
  2.742127e+01    1.100788e+00
  2.743715e+01    1.070243e+00
  2.745302e+01    1.049115e+00
  2.746890e+01    1.022584e+00
  2.748477e+01    9.954235e-01
  2.750065e+01    1.000836e+00
  2.751653e+01    9.882768e-01
  2.753240e+01    9.716693e-01
  2.754828e+01    9.898648e-01
  2.756415e+01    9.699119e-01
  2.758003e+01    9.476830e-01
  2.759590e+01    9.527236e-01
  2.761178e+01    9.229004e-01
  2.762765e+01    9.105971e-01
  2.764353e+01    9.046520e-01
  2.765941e+01    9.164832e-01
  2.767528e+01    9.004049e-01
  2.769116e+01    9.097320e-01
  2.770703e+01    9.292501e-01
  2.772291e+01    9.318030e-01
  2.773878e+01    9.128168e-01
  2.775466e+01    8.889701e-01
  2.777054e+01    8.748150e-01
  2.778641e+01    9.042146e-01
  2.780229e+01    8.965853e-01
  2.781816e+01    8.918061e-01
  2.783404e+01    8.825089e-01
  2.784991e+01    8.672853e-01
  2.786579e+01    8.701813e-01
  2.788166e+01    8.880396e-01
  2.789754e+01    8.890665e-01
  2.791342e+01    8.778980e-01
  2.792929e+01    8.799621e-01
  2.794517e+01    8.798254e-01
  2.796104e+01    8.861616e-01
  2.797692e+01    8.669235e-01
  2.799279e+01    8.708755e-01
  2.800867e+01    8.677517e-01
  2.802454e+01    8.708517e-01
  2.804042e+01    8.639618e-01
  2.805630e+01    8.705416e-01
  2.807217e+01    8.572232e-01
  2.808805e+01    8.591462e-01
  2.810392e+01    8.643309e-01
  2.811980e+01    8.590990e-01
  2.813567e+01    8.381556e-01
  2.815155e+01    8.483106e-01
  2.816742e+01    8.435339e-01
  2.818330e+01    8.537980e-01
  2.819918e+01    8.564806e-01
  2.821505e+01    8.684229e-01
  2.823093e+01    8.760087e-01
  2.824680e+01    8.520194e-01
  2.826268e+01    8.605554e-01
  2.827855e+01    8.470823e-01
  2.829443e+01    8.424602e-01
  2.831030e+01    8.565377e-01
  2.832618e+01    8.761892e-01
  2.834206e+01    8.552905e-01
  2.835793e+01    8.572507e-01
  2.837381e+01    8.413938e-01
  2.838968e+01    8.647218e-01
  2.840556e+01    8.724822e-01
  2.842143e+01    8.498726e-01
  2.843731e+01    8.612604e-01
  2.845318e+01    8.251543e-01
  2.846906e+01    8.363506e-01
  2.848494e+01    8.491288e-01
  2.850081e+01    8.650881e-01
  2.851669e+01    8.603054e-01
  2.853256e+01    8.451969e-01
  2.854844e+01    8.491319e-01
  2.856431e+01    8.381933e-01
  2.858019e+01    8.207049e-01
  2.859606e+01    8.136443e-01
  2.861194e+01    8.357992e-01
  2.862782e+01    8.192725e-01
  2.864369e+01    8.373899e-01
  2.865957e+01    8.326035e-01
  2.867544e+01    8.188627e-01
  2.869132e+01    8.124474e-01
  2.870719e+01    8.267545e-01
  2.872307e+01    8.265221e-01
  2.873895e+01    8.281085e-01
  2.875482e+01    8.272131e-01
  2.877070e+01    8.321932e-01
  2.878657e+01    8.458672e-01
  2.880245e+01    8.206416e-01
  2.881832e+01    8.236672e-01
  2.883420e+01    8.408495e-01
  2.885007e+01    8.287110e-01
  2.886595e+01    8.160300e-01
  2.888183e+01    8.361193e-01
  2.889770e+01    8.224349e-01
  2.891358e+01    8.324830e-01
  2.892945e+01    8.486962e-01
  2.894533e+01    8.499220e-01
  2.896120e+01    8.189411e-01
  2.897708e+01    8.024638e-01
  2.899295e+01    8.112007e-01
  2.900883e+01    8.168827e-01
  2.902471e+01    8.060606e-01
  2.904058e+01    8.166427e-01
  2.905646e+01    8.070942e-01
  2.907233e+01    8.120982e-01
  2.908821e+01    8.306897e-01
  2.910408e+01    8.343418e-01
  2.911996e+01    8.391829e-01
  2.913583e+01    8.251108e-01
  2.915171e+01    8.120795e-01
  2.916759e+01    8.151091e-01
  2.918346e+01    8.094194e-01
  2.919934e+01    8.156489e-01
  2.921521e+01    8.244036e-01
  2.923109e+01    8.157818e-01
  2.924696e+01    8.043692e-01
  2.926284e+01    8.072490e-01
  2.927871e+01    8.136792e-01
  2.929459e+01    8.083320e-01
  2.931047e+01    7.989821e-01
  2.932634e+01    8.011972e-01
  2.934222e+01    8.160719e-01
  2.935809e+01    7.915510e-01
  2.937397e+01    7.963263e-01
  2.938984e+01    7.974821e-01
  2.940572e+01    8.047403e-01
  2.942159e+01    8.157214e-01
  2.943747e+01    8.149089e-01
  2.945335e+01    8.230164e-01
  2.946922e+01    8.236701e-01
  2.948510e+01    8.106060e-01
  2.950097e+01    7.750167e-01
  2.951685e+01    7.848859e-01
  2.953272e+01    8.127021e-01
  2.954860e+01    8.037494e-01
  2.956447e+01    7.931862e-01
  2.958035e+01    7.951204e-01
  2.959623e+01    7.969984e-01
  2.961210e+01    8.170503e-01
  2.962798e+01    8.093797e-01
  2.964385e+01    8.103715e-01
  2.965973e+01    7.934134e-01
  2.967560e+01    7.847179e-01
  2.969148e+01    8.010666e-01
  2.970736e+01    7.951283e-01
  2.972323e+01    7.817257e-01
  2.973911e+01    7.967523e-01
  2.975498e+01    8.197800e-01
  2.977086e+01    7.812209e-01
  2.978673e+01    7.977237e-01
  2.980261e+01    8.268219e-01
  2.981848e+01    7.998623e-01
  2.983436e+01    8.163078e-01
  2.985024e+01    8.149177e-01
  2.986611e+01    8.126498e-01
  2.988199e+01    7.798632e-01
  2.989786e+01    7.742447e-01
  2.991374e+01    7.872280e-01
  2.992961e+01    7.897497e-01
  2.994549e+01    7.666727e-01
  2.996136e+01    7.850575e-01
  2.997724e+01    8.021955e-01
  2.999312e+01    7.968307e-01
  3.000899e+01    8.034793e-01
  3.002487e+01    8.053818e-01
  3.004074e+01    7.952303e-01
  3.005662e+01    7.943624e-01
  3.007249e+01    8.039560e-01
  3.008837e+01    8.075495e-01
  3.010424e+01    8.002285e-01
  3.012012e+01    7.811227e-01
  3.013600e+01    7.761225e-01
  3.015187e+01    8.156817e-01
  3.016775e+01    8.063264e-01
  3.018362e+01    7.724419e-01
  3.019950e+01    8.022476e-01
  3.021537e+01    7.772529e-01
  3.023125e+01    7.821436e-01
  3.024712e+01    8.008876e-01
  3.026300e+01    7.979238e-01
  3.027888e+01    7.920833e-01
  3.029475e+01    7.902541e-01
  3.031063e+01    7.998945e-01
  3.032650e+01    7.864655e-01
  3.034238e+01    7.851843e-01
  3.035825e+01    7.871408e-01
  3.037413e+01    7.879518e-01
  3.039000e+01    7.807619e-01
  3.040588e+01    7.768854e-01
  3.042176e+01    7.769489e-01
  3.043763e+01    7.937138e-01
  3.045351e+01    7.888780e-01
  3.046938e+01    7.830364e-01
  3.048526e+01    7.889033e-01
  3.050113e+01    7.886454e-01
  3.051701e+01    7.925922e-01
  3.053288e+01    7.930264e-01
  3.054876e+01    8.030382e-01
  3.056464e+01    7.900290e-01
  3.058051e+01    7.796719e-01
  3.059639e+01    7.516580e-01
  3.061226e+01    7.652375e-01
  3.062814e+01    7.782654e-01
  3.064401e+01    8.083469e-01
  3.065989e+01    7.849278e-01
  3.067577e+01    7.818850e-01
  3.069164e+01    7.854198e-01
  3.070752e+01    7.802898e-01
  3.072339e+01    7.937840e-01
  3.073927e+01    7.669033e-01
  3.075514e+01    7.661729e-01
  3.077102e+01    7.808894e-01
  3.078689e+01    7.860736e-01
  3.080277e+01    8.001215e-01
  3.081865e+01    8.182678e-01
  3.083452e+01    8.184694e-01
  3.085040e+01    7.863448e-01
  3.086627e+01    7.678292e-01
  3.088215e+01    7.814972e-01
  3.089802e+01    7.761174e-01
  3.091390e+01    7.824893e-01
  3.092977e+01    7.596083e-01
  3.094565e+01    7.567765e-01
  3.096153e+01    7.805210e-01
  3.097740e+01    7.914851e-01
  3.099328e+01    7.966861e-01
  3.100915e+01    7.960424e-01
  3.102503e+01    7.857024e-01
  3.104090e+01    7.935508e-01
  3.105678e+01    7.782564e-01
  3.107265e+01    7.633141e-01
  3.108853e+01    7.871396e-01
  3.110441e+01    7.894533e-01
  3.112028e+01    8.029367e-01
  3.113616e+01    8.034006e-01
  3.115203e+01    7.915418e-01
  3.116791e+01    8.047107e-01
  3.118378e+01    7.992173e-01
  3.119966e+01    7.816087e-01
  3.121553e+01    8.007490e-01
  3.123141e+01    8.109220e-01
  3.124729e+01    7.974023e-01
  3.126316e+01    7.882802e-01
  3.127904e+01    7.952629e-01
  3.129491e+01    7.928860e-01
  3.131079e+01    7.990717e-01
  3.132666e+01    8.133253e-01
  3.134254e+01    7.873372e-01
  3.135841e+01    7.882251e-01
  3.137429e+01    7.938654e-01
  3.139017e+01    7.856556e-01
  3.140604e+01    8.195149e-01
  3.142192e+01    8.132657e-01
  3.143779e+01    8.174676e-01
  3.145367e+01    8.230876e-01
  3.146954e+01    8.169925e-01
  3.148542e+01    8.210701e-01
  3.150129e+01    8.212973e-01
  3.151717e+01    8.306662e-01
  3.153305e+01    8.429605e-01
  3.154892e+01    8.444246e-01
  3.156480e+01    8.470088e-01
  3.158067e+01    8.617664e-01
  3.159655e+01    9.031396e-01
  3.161242e+01    9.044689e-01
  3.162830e+01    9.020877e-01
  3.164418e+01    8.992544e-01
  3.166005e+01    9.430885e-01
  3.167593e+01    9.727044e-01
  3.169180e+01    9.895338e-01
  3.170768e+01    1.040233e+00
  3.172355e+01    1.071176e+00
  3.173943e+01    1.088103e+00
  3.175530e+01    1.173257e+00
  3.177118e+01    1.249451e+00
  3.178706e+01    1.340879e+00
  3.180293e+01    1.489199e+00
  3.181881e+01    1.590805e+00
  3.183468e+01    1.732715e+00
  3.185056e+01    1.851357e+00
  3.186643e+01    1.927558e+00
  3.188231e+01    2.025476e+00
  3.189818e+01    2.060236e+00
  3.191406e+01    2.055073e+00
  3.192994e+01    2.009706e+00
  3.194581e+01    1.965924e+00
  3.196169e+01    1.841601e+00
  3.197756e+01    1.716964e+00
  3.199344e+01    1.568862e+00
  3.200931e+01    1.460937e+00
  3.202519e+01    1.339996e+00
  3.204106e+01    1.230666e+00
  3.205694e+01    1.152965e+00
  3.207282e+01    1.081551e+00
  3.208869e+01    1.038805e+00
  3.210457e+01    1.008103e+00
  3.212044e+01    9.931521e-01
  3.213632e+01    9.273894e-01
  3.215219e+01    9.082018e-01
  3.216807e+01    8.883346e-01
  3.218394e+01    8.770607e-01
  3.219982e+01    8.915136e-01
  3.221570e+01    8.511328e-01
  3.223157e+01    8.194273e-01
  3.224745e+01    8.142703e-01
  3.226332e+01    8.326393e-01
  3.227920e+01    8.291717e-01
  3.229507e+01    8.147207e-01
  3.231095e+01    8.064533e-01
  3.232682e+01    8.135626e-01
  3.234270e+01    8.143919e-01
  3.235858e+01    7.965187e-01
  3.237445e+01    7.996418e-01
  3.239033e+01    7.862900e-01
  3.240620e+01    7.895766e-01
  3.242208e+01    7.589768e-01
  3.243795e+01    7.666379e-01
  3.245383e+01    7.846738e-01
  3.246970e+01    7.736056e-01
  3.248558e+01    7.689039e-01
  3.250146e+01    7.773020e-01
  3.251733e+01    7.648671e-01
  3.253321e+01    7.521614e-01
  3.254908e+01    7.752544e-01
