# == pyFAI calibration ==
# Distance Sample to Detector: 0.3999999939076516 m
# PONI: 9.750e-02, 1.135e-01 m
# Rotations: -0.000175 0.000000 -0.000000 rad
# 
# == Fit2d calibration ==
# Distance Sample-beamCenter: 400.000 mm
# Center: x=1514.000, y=1300.000 pix
# Tilt: 0.010 deg  TiltPlanRot: 0.010 deg
# 
# Detector Detector	 Spline= None	 PixelSize= 7.500e-05, 7.500e-05 m
#    Detector has a mask: False 
#    Detector has a dark current: False 
#    detector has a flat field: False 
# 
# Wavelength: 6.888e-11 m
# Mask applied: user provided
# Dark current applied: False
# Flat field applied: False
# Polarization factor: 0.99
# Normalization factor: 1.0
# --> /home/myspot/data/2024_07_Rosario/Ru-CGO-ex/2024-07-27_003_Ru-CGO-ex_Reaction_dwell_000023_data_000045.dat
#       q_nm^-1             I 
  2.003187e-02    0.000000e+00
  3.590745e-02    3.428878e-02
  5.178302e-02    2.107374e-01
  6.765859e-02    2.344438e-01
  8.353417e-02    1.369407e-01
  9.940974e-02    3.837023e-02
  1.152853e-01    1.798156e-02
  1.311609e-01    2.716236e-02
  1.470365e-01    3.442902e-03
  1.629120e-01    2.405991e-02
  1.787876e-01    7.178192e-03
  1.946632e-01    2.367535e-02
  2.105388e-01    4.565799e-02
  2.264143e-01    5.575010e-02
  2.422899e-01    7.159980e-02
  2.581655e-01    4.287046e-02
  2.740411e-01    5.447853e-02
  2.899166e-01    8.013467e-02
  3.057922e-01    6.238627e-02
  3.216678e-01    2.935474e-02
  3.375433e-01    3.025384e-02
  3.534189e-01    4.952655e-02
  3.692945e-01    4.319875e-02
  3.851701e-01    3.673589e-02
  4.010456e-01    2.498044e-02
  4.169212e-01    5.971478e-02
  4.327968e-01    7.310507e-02
  4.486724e-01    5.000813e-02
  4.645479e-01    6.009320e-02
  4.804235e-01    4.413933e-02
  4.962991e-01    5.050163e-02
  5.121747e-01    3.247961e-02
  5.280502e-01    4.592345e-02
  5.439258e-01    2.610182e-02
  5.598014e-01    3.186997e-02
  5.756770e-01    3.495513e-02
  5.915525e-01    4.128005e-02
  6.074281e-01    2.853466e-02
  6.233037e-01    2.997679e-02
  6.391793e-01    3.902904e-02
  6.550548e-01    2.082939e-02
  6.709304e-01    1.795399e-02
  6.868060e-01    2.098493e-02
  7.026815e-01    5.041600e-02
  7.185571e-01    6.210318e-02
  7.344327e-01    3.756363e-02
  7.503083e-01    5.030186e-02
  7.661838e-01    4.318538e-02
  7.820594e-01    1.140657e-01
  7.979350e-01    1.891672e-01
  8.138106e-01    2.133662e-01
  8.296861e-01    2.785356e-01
  8.455617e-01    3.565909e-01
  8.614373e-01    4.139241e-01
  8.773129e-01    4.546209e-01
  8.931884e-01    5.639381e-01
  9.090640e-01    6.988167e-01
  9.249396e-01    7.346840e-01
  9.408152e-01    8.114682e-01
  9.566907e-01    8.589253e-01
  9.725663e-01    1.085240e+00
  9.884419e-01    1.138675e+00
  1.004317e+00    1.241606e+00
  1.020193e+00    1.288201e+00
  1.036069e+00    1.293576e+00
  1.051944e+00    1.354557e+00
  1.067820e+00    1.459476e+00
  1.083695e+00    1.503840e+00
  1.099571e+00    1.526635e+00
  1.115446e+00    1.551345e+00
  1.131322e+00    1.562946e+00
  1.147198e+00    1.686633e+00
  1.163073e+00    1.767211e+00
  1.178949e+00    1.863373e+00
  1.194824e+00    1.873599e+00
  1.210700e+00    1.986488e+00
  1.226575e+00    2.220140e+00
  1.242451e+00    2.440008e+00
  1.258327e+00    2.458271e+00
  1.274202e+00    2.469043e+00
  1.290078e+00    2.555638e+00
  1.305953e+00    2.689070e+00
  1.321829e+00    2.742696e+00
  1.337705e+00    2.719762e+00
  1.353580e+00    2.834912e+00
  1.369456e+00    2.824749e+00
  1.385331e+00    2.914471e+00
  1.401207e+00    2.862454e+00
  1.417082e+00    2.860073e+00
  1.432958e+00    2.941038e+00
  1.448834e+00    3.003999e+00
  1.464709e+00    3.055042e+00
  1.480585e+00    3.010207e+00
  1.496460e+00    3.049247e+00
  1.512336e+00    3.017531e+00
  1.528211e+00    3.112137e+00
  1.544087e+00    3.111596e+00
  1.559963e+00    3.054698e+00
  1.575838e+00    3.304072e+00
  1.591714e+00    3.261719e+00
  1.607589e+00    3.123597e+00
  1.623465e+00    3.046695e+00
  1.639340e+00    3.147877e+00
  1.655216e+00    3.225022e+00
  1.671092e+00    3.247830e+00
  1.686967e+00    3.165628e+00
  1.702843e+00    3.206164e+00
  1.718718e+00    3.294305e+00
  1.734594e+00    3.237830e+00
  1.750469e+00    3.170528e+00
  1.766345e+00    3.017017e+00
  1.782221e+00    2.968432e+00
  1.798096e+00    2.981622e+00
  1.813972e+00    3.006240e+00
  1.829847e+00    3.075061e+00
  1.845723e+00    2.896373e+00
  1.861598e+00    2.916940e+00
  1.877474e+00    2.905217e+00
  1.893350e+00    2.915504e+00
  1.909225e+00    2.939556e+00
  1.925101e+00    3.058363e+00
  1.940976e+00    3.176550e+00
  1.956852e+00    3.120695e+00
  1.972727e+00    3.066407e+00
  1.988603e+00    3.095719e+00
  2.004479e+00    3.073633e+00
  2.020354e+00    3.068131e+00
  2.036230e+00    3.145527e+00
  2.052105e+00    3.109814e+00
  2.067981e+00    3.213665e+00
  2.083856e+00    3.141205e+00
  2.099732e+00    3.027937e+00
  2.115608e+00    3.129772e+00
  2.131483e+00    3.198805e+00
  2.147359e+00    3.200893e+00
  2.163234e+00    3.172680e+00
  2.179110e+00    3.097260e+00
  2.194985e+00    3.080902e+00
  2.210861e+00    3.016584e+00
  2.226737e+00    3.108320e+00
  2.242612e+00    3.182245e+00
  2.258488e+00    3.134836e+00
  2.274363e+00    3.267158e+00
  2.290239e+00    3.199235e+00
  2.306115e+00    3.169960e+00
  2.321990e+00    3.147416e+00
  2.337866e+00    3.178942e+00
  2.353741e+00    3.060034e+00
  2.369617e+00    3.192580e+00
  2.385492e+00    3.233812e+00
  2.401368e+00    3.124710e+00
  2.417244e+00    3.221787e+00
  2.433119e+00    3.368397e+00
  2.448995e+00    3.182014e+00
  2.464870e+00    3.204993e+00
  2.480746e+00    3.294466e+00
  2.496621e+00    3.227972e+00
  2.512497e+00    3.188396e+00
  2.528373e+00    3.222893e+00
  2.544248e+00    3.253984e+00
  2.560124e+00    3.096647e+00
  2.575999e+00    3.139125e+00
  2.591875e+00    3.306717e+00
  2.607750e+00    3.255918e+00
  2.623626e+00    3.141598e+00
  2.639502e+00    3.226430e+00
  2.655377e+00    3.219336e+00
  2.671253e+00    3.183276e+00
  2.687128e+00    3.246205e+00
  2.703004e+00    3.199896e+00
  2.718879e+00    3.155864e+00
  2.734755e+00    3.198970e+00
  2.750631e+00    3.375137e+00
  2.766506e+00    3.387380e+00
  2.782382e+00    3.308789e+00
  2.798257e+00    3.350732e+00
  2.814133e+00    3.385684e+00
  2.830008e+00    3.301493e+00
  2.845884e+00    3.283219e+00
  2.861760e+00    3.366446e+00
  2.877635e+00    3.373674e+00
  2.893511e+00    3.369988e+00
  2.909386e+00    3.327853e+00
  2.925262e+00    3.421059e+00
  2.941137e+00    3.323743e+00
  2.957013e+00    3.253605e+00
  2.972889e+00    3.341252e+00
  2.988764e+00    3.462812e+00
  3.004640e+00    3.400831e+00
  3.020515e+00    3.369251e+00
  3.036391e+00    3.413221e+00
  3.052266e+00    3.417537e+00
  3.068142e+00    3.332790e+00
  3.084018e+00    3.471751e+00
  3.099893e+00    3.404186e+00
  3.115769e+00    3.270740e+00
  3.131644e+00    3.401184e+00
  3.147520e+00    3.426265e+00
  3.163395e+00    3.405308e+00
  3.179271e+00    3.403580e+00
  3.195147e+00    3.403867e+00
  3.211022e+00    3.385766e+00
  3.226898e+00    3.342602e+00
  3.242773e+00    3.231999e+00
  3.258649e+00    3.416155e+00
  3.274525e+00    3.407555e+00
  3.290400e+00    3.397444e+00
  3.306276e+00    3.395038e+00
  3.322151e+00    3.360561e+00
  3.338027e+00    3.405082e+00
  3.353902e+00    3.327943e+00
  3.369778e+00    3.292318e+00
  3.385654e+00    3.389879e+00
  3.401529e+00    3.490548e+00
  3.417405e+00    3.443946e+00
  3.433280e+00    3.447778e+00
  3.449156e+00    3.540845e+00
  3.465031e+00    3.488325e+00
  3.480907e+00    3.424789e+00
  3.496783e+00    3.425328e+00
  3.512658e+00    3.432302e+00
  3.528534e+00    3.450629e+00
  3.544409e+00    3.521392e+00
  3.560285e+00    3.422503e+00
  3.576160e+00    3.409103e+00
  3.592036e+00    3.477341e+00
  3.607912e+00    3.447275e+00
  3.623787e+00    3.422411e+00
  3.639663e+00    3.465983e+00
  3.655538e+00    3.485845e+00
  3.671414e+00    3.382891e+00
  3.687289e+00    3.493408e+00
  3.703165e+00    3.521810e+00
  3.719041e+00    3.515093e+00
  3.734916e+00    3.393043e+00
  3.750792e+00    3.473884e+00
  3.766667e+00    3.496737e+00
  3.782543e+00    3.517017e+00
  3.798418e+00    3.588147e+00
  3.814294e+00    3.577224e+00
  3.830170e+00    3.496742e+00
  3.846045e+00    3.413521e+00
  3.861921e+00    3.429760e+00
  3.877796e+00    3.561838e+00
  3.893672e+00    3.477139e+00
  3.909547e+00    3.541662e+00
  3.925423e+00    3.497858e+00
  3.941299e+00    3.468659e+00
  3.957174e+00    3.482267e+00
  3.973050e+00    3.507267e+00
  3.988925e+00    3.545569e+00
  4.004801e+00    3.580884e+00
  4.020676e+00    3.567878e+00
  4.036552e+00    3.525018e+00
  4.052428e+00    3.534768e+00
  4.068303e+00    3.587164e+00
  4.084179e+00    3.544939e+00
  4.100054e+00    3.554623e+00
  4.115930e+00    3.476917e+00
  4.131806e+00    3.522574e+00
  4.147681e+00    3.542079e+00
  4.163557e+00    3.503746e+00
  4.179432e+00    3.557053e+00
  4.195308e+00    3.517286e+00
  4.211183e+00    3.504545e+00
  4.227059e+00    3.584624e+00
  4.242935e+00    3.529449e+00
  4.258810e+00    3.558779e+00
  4.274686e+00    3.608487e+00
  4.290561e+00    3.532904e+00
  4.306437e+00    3.469754e+00
  4.322312e+00    3.538592e+00
  4.338188e+00    3.684255e+00
  4.354064e+00    3.669113e+00
  4.369939e+00    3.672382e+00
  4.385815e+00    3.583052e+00
  4.401690e+00    3.623827e+00
  4.417566e+00    3.628314e+00
  4.433441e+00    3.542122e+00
  4.449317e+00    3.571819e+00
  4.465193e+00    3.714957e+00
  4.481068e+00    3.634225e+00
  4.496944e+00    3.640651e+00
  4.512819e+00    3.655344e+00
  4.528695e+00    3.575556e+00
  4.544570e+00    3.523235e+00
  4.560446e+00    3.592171e+00
  4.576322e+00    3.666658e+00
  4.592197e+00    3.612731e+00
  4.608073e+00    3.605990e+00
  4.623948e+00    3.584350e+00
  4.639824e+00    3.584795e+00
  4.655699e+00    3.607969e+00
  4.671575e+00    3.728602e+00
  4.687451e+00    3.623782e+00
  4.703326e+00    3.542066e+00
  4.719202e+00    3.604593e+00
  4.735077e+00    3.651926e+00
  4.750953e+00    3.639031e+00
  4.766828e+00    3.689785e+00
  4.782704e+00    3.706615e+00
  4.798580e+00    3.618068e+00
  4.814455e+00    3.588775e+00
  4.830331e+00    3.662170e+00
  4.846206e+00    3.724355e+00
  4.862082e+00    3.731982e+00
  4.877957e+00    3.712729e+00
  4.893833e+00    3.672666e+00
  4.909709e+00    3.709628e+00
  4.925584e+00    3.664403e+00
  4.941460e+00    3.598970e+00
  4.957335e+00    3.598133e+00
  4.973211e+00    3.614564e+00
  4.989086e+00    3.585128e+00
  5.004962e+00    3.664274e+00
  5.020838e+00    3.692204e+00
  5.036713e+00    3.721767e+00
  5.052589e+00    3.672291e+00
  5.068464e+00    3.592142e+00
  5.084340e+00    3.593822e+00
  5.100216e+00    3.627735e+00
  5.116091e+00    3.567001e+00
  5.131967e+00    3.665078e+00
  5.147842e+00    3.744574e+00
  5.163718e+00    3.735171e+00
  5.179593e+00    3.728248e+00
  5.195469e+00    3.750437e+00
  5.211345e+00    3.679235e+00
  5.227220e+00    3.660680e+00
  5.243096e+00    3.580173e+00
  5.258971e+00    3.587363e+00
  5.274847e+00    3.786103e+00
  5.290722e+00    3.737509e+00
  5.306598e+00    3.708367e+00
  5.322474e+00    3.710128e+00
  5.338349e+00    3.712802e+00
  5.354225e+00    3.657170e+00
  5.370100e+00    3.599135e+00
  5.385976e+00    3.670324e+00
  5.401851e+00    3.611410e+00
  5.417727e+00    3.558047e+00
  5.433603e+00    3.583266e+00
  5.449478e+00    3.630418e+00
  5.465354e+00    3.697097e+00
  5.481229e+00    3.702527e+00
  5.497105e+00    3.667071e+00
  5.512980e+00    3.628673e+00
  5.528856e+00    3.603637e+00
  5.544732e+00    3.733480e+00
  5.560607e+00    3.683803e+00
  5.576483e+00    3.675622e+00
  5.592358e+00    3.664286e+00
  5.608234e+00    3.567708e+00
  5.624109e+00    3.654509e+00
  5.639985e+00    3.662295e+00
  5.655861e+00    3.666214e+00
  5.671736e+00    3.617602e+00
  5.687612e+00    3.677531e+00
  5.703487e+00    3.658700e+00
  5.719363e+00    3.557722e+00
  5.735238e+00    3.516068e+00
  5.751114e+00    3.545142e+00
  5.766990e+00    3.541444e+00
  5.782865e+00    3.598970e+00
  5.798741e+00    3.692906e+00
  5.814616e+00    3.682872e+00
  5.830492e+00    3.584024e+00
  5.846367e+00    3.615892e+00
  5.862243e+00    3.610677e+00
  5.878119e+00    3.478708e+00
  5.893994e+00    3.564198e+00
  5.909870e+00    3.550130e+00
  5.925745e+00    3.575595e+00
  5.941621e+00    3.589376e+00
  5.957497e+00    3.528930e+00
  5.973372e+00    3.501259e+00
  5.989248e+00    3.419367e+00
  6.005123e+00    3.500176e+00
  6.020999e+00    3.567571e+00
  6.036874e+00    3.518348e+00
  6.052750e+00    3.563841e+00
  6.068626e+00    3.632347e+00
  6.084501e+00    3.557815e+00
  6.100377e+00    3.583371e+00
  6.116252e+00    3.591540e+00
  6.132128e+00    3.632359e+00
  6.148003e+00    3.725961e+00
  6.163879e+00    3.625880e+00
  6.179755e+00    3.573213e+00
  6.195630e+00    3.516444e+00
  6.211506e+00    3.589448e+00
  6.227381e+00    3.595366e+00
  6.243257e+00    3.613381e+00
  6.259132e+00    3.628947e+00
  6.275008e+00    3.610029e+00
  6.290884e+00    3.545666e+00
  6.306759e+00    3.550019e+00
  6.322635e+00    3.621005e+00
  6.338510e+00    3.612352e+00
  6.354386e+00    3.596850e+00
  6.370261e+00    3.550082e+00
  6.386137e+00    3.579813e+00
  6.402013e+00    3.548630e+00
  6.417888e+00    3.598309e+00
  6.433764e+00    3.584095e+00
  6.449639e+00    3.551928e+00
  6.465515e+00    3.600400e+00
  6.481390e+00    3.559422e+00
  6.497266e+00    3.524414e+00
  6.513142e+00    3.535618e+00
  6.529017e+00    3.568862e+00
  6.544893e+00    3.618904e+00
  6.560768e+00    3.627601e+00
  6.576644e+00    3.535173e+00
  6.592519e+00    3.541351e+00
  6.608395e+00    3.552781e+00
  6.624271e+00    3.512843e+00
  6.640146e+00    3.515080e+00
  6.656022e+00    3.529467e+00
  6.671897e+00    3.500991e+00
  6.687773e+00    3.598434e+00
  6.703648e+00    3.609316e+00
  6.719524e+00    3.546285e+00
  6.735400e+00    3.529599e+00
  6.751275e+00    3.576879e+00
  6.767151e+00    3.585826e+00
  6.783026e+00    3.557302e+00
  6.798902e+00    3.517498e+00
  6.814777e+00    3.568211e+00
  6.830653e+00    3.516297e+00
  6.846529e+00    3.521459e+00
  6.862404e+00    3.597291e+00
  6.878280e+00    3.636298e+00
  6.894155e+00    3.630029e+00
  6.910031e+00    3.546522e+00
  6.925907e+00    3.536141e+00
  6.941782e+00    3.623750e+00
  6.957658e+00    3.672621e+00
  6.973533e+00    3.576278e+00
  6.989409e+00    3.468641e+00
  7.005284e+00    3.491493e+00
  7.021160e+00    3.505873e+00
  7.037036e+00    3.551612e+00
  7.052911e+00    3.555697e+00
  7.068787e+00    3.540220e+00
  7.084662e+00    3.497269e+00
  7.100538e+00    3.474967e+00
  7.116413e+00    3.501159e+00
  7.132289e+00    3.503265e+00
  7.148165e+00    3.469297e+00
  7.164040e+00    3.552008e+00
  7.179916e+00    3.535780e+00
  7.195791e+00    3.543124e+00
  7.211667e+00    3.585067e+00
  7.227542e+00    3.594391e+00
  7.243418e+00    3.554124e+00
  7.259294e+00    3.544105e+00
  7.275169e+00    3.564314e+00
  7.291045e+00    3.464137e+00
  7.306920e+00    3.476746e+00
  7.322796e+00    3.521388e+00
  7.338671e+00    3.552841e+00
  7.354547e+00    3.557169e+00
  7.370423e+00    3.522684e+00
  7.386298e+00    3.552930e+00
  7.402174e+00    3.570065e+00
  7.418049e+00    3.514219e+00
  7.433925e+00    3.434140e+00
  7.449800e+00    3.474884e+00
  7.465676e+00    3.477436e+00
  7.481552e+00    3.466618e+00
  7.497427e+00    3.503166e+00
  7.513303e+00    3.450497e+00
  7.529178e+00    3.502816e+00
  7.545054e+00    3.585355e+00
  7.560929e+00    3.620457e+00
  7.576805e+00    3.498592e+00
  7.592681e+00    3.465915e+00
  7.608556e+00    3.470401e+00
  7.624432e+00    3.487699e+00
  7.640307e+00    3.464258e+00
  7.656183e+00    3.455715e+00
  7.672058e+00    3.436153e+00
  7.687934e+00    3.468745e+00
  7.703810e+00    3.483666e+00
  7.719685e+00    3.491373e+00
  7.735561e+00    3.497924e+00
  7.751436e+00    3.481555e+00
  7.767312e+00    3.512661e+00
  7.783187e+00    3.528562e+00
  7.799063e+00    3.472231e+00
  7.814939e+00    3.417523e+00
  7.830814e+00    3.342141e+00
  7.846690e+00    3.444785e+00
  7.862565e+00    3.465505e+00
  7.878441e+00    3.477260e+00
  7.894317e+00    3.398105e+00
  7.910192e+00    3.377462e+00
  7.926068e+00    3.520720e+00
  7.941943e+00    3.426256e+00
  7.957819e+00    3.425192e+00
  7.973694e+00    3.427398e+00
  7.989570e+00    3.406981e+00
  8.005446e+00    3.434500e+00
  8.021321e+00    3.424802e+00
  8.037197e+00    3.467454e+00
  8.053072e+00    3.403498e+00
  8.068948e+00    3.430990e+00
  8.084823e+00    3.423688e+00
  8.100699e+00    3.443816e+00
  8.116575e+00    3.427527e+00
  8.132450e+00    3.476088e+00
  8.148326e+00    3.457499e+00
  8.164201e+00    3.469712e+00
  8.180077e+00    3.504951e+00
  8.195952e+00    3.485295e+00
  8.211828e+00    3.455635e+00
  8.227704e+00    3.444818e+00
  8.243579e+00    3.526982e+00
  8.259455e+00    3.474673e+00
  8.275330e+00    3.416922e+00
  8.291206e+00    3.367731e+00
  8.307081e+00    3.355319e+00
  8.322957e+00    3.408461e+00
  8.338833e+00    3.430064e+00
  8.354708e+00    3.383223e+00
  8.370584e+00    3.343686e+00
  8.386459e+00    3.308130e+00
  8.402335e+00    3.323689e+00
  8.418210e+00    3.307745e+00
  8.434086e+00    3.390261e+00
  8.449962e+00    3.356838e+00
  8.465837e+00    3.306585e+00
  8.481713e+00    3.343582e+00
  8.497588e+00    3.346051e+00
  8.513464e+00    3.370628e+00
  8.529339e+00    3.356347e+00
  8.545215e+00    3.375231e+00
  8.561091e+00    3.340454e+00
  8.576966e+00    3.322292e+00
  8.592842e+00    3.402351e+00
  8.608717e+00    3.390841e+00
  8.624593e+00    3.388685e+00
  8.640468e+00    3.413008e+00
  8.656344e+00    3.354473e+00
  8.672220e+00    3.299531e+00
  8.688095e+00    3.408364e+00
  8.703971e+00    3.367725e+00
  8.719846e+00    3.345152e+00
  8.735722e+00    3.337740e+00
  8.751598e+00    3.317309e+00
  8.767473e+00    3.329177e+00
  8.783349e+00    3.301915e+00
  8.799224e+00    3.338332e+00
  8.815100e+00    3.314545e+00
  8.830975e+00    3.347801e+00
  8.846851e+00    3.348146e+00
  8.862727e+00    3.402400e+00
  8.878602e+00    3.308080e+00
  8.894478e+00    3.277668e+00
  8.910353e+00    3.335747e+00
  8.926229e+00    3.308797e+00
  8.942104e+00    3.286647e+00
  8.957980e+00    3.273509e+00
  8.973856e+00    3.303462e+00
  8.989731e+00    3.275325e+00
  9.005607e+00    3.255820e+00
  9.021482e+00    3.287089e+00
  9.037358e+00    3.297285e+00
  9.053233e+00    3.249095e+00
  9.069109e+00    3.243143e+00
  9.084985e+00    3.236034e+00
  9.100860e+00    3.242401e+00
  9.116736e+00    3.300082e+00
  9.132611e+00    3.239246e+00
  9.148487e+00    3.236925e+00
  9.164362e+00    3.276297e+00
  9.180238e+00    3.263701e+00
  9.196114e+00    3.222262e+00
  9.211989e+00    3.251769e+00
  9.227865e+00    3.212019e+00
  9.243740e+00    3.227110e+00
  9.259616e+00    3.254897e+00
  9.275491e+00    3.287849e+00
  9.291367e+00    3.298435e+00
  9.307243e+00    3.284082e+00
  9.323118e+00    3.258992e+00
  9.338994e+00    3.279899e+00
  9.354869e+00    3.221328e+00
  9.370745e+00    3.202074e+00
  9.386620e+00    3.202461e+00
  9.402496e+00    3.213640e+00
  9.418372e+00    3.229710e+00
  9.434247e+00    3.172055e+00
  9.450123e+00    3.176632e+00
  9.465998e+00    3.233533e+00
  9.481874e+00    3.238653e+00
  9.497749e+00    3.240789e+00
  9.513625e+00    3.223795e+00
  9.529501e+00    3.245411e+00
  9.545376e+00    3.187387e+00
  9.561252e+00    3.182862e+00
  9.577127e+00    3.184759e+00
  9.593003e+00    3.209715e+00
  9.608878e+00    3.242306e+00
  9.624754e+00    3.286309e+00
  9.640630e+00    3.274847e+00
  9.656505e+00    3.219465e+00
  9.672381e+00    3.217561e+00
  9.688256e+00    3.286654e+00
  9.704132e+00    3.134336e+00
  9.720008e+00    3.180547e+00
  9.735883e+00    3.212199e+00
  9.751759e+00    3.142930e+00
  9.767634e+00    3.144675e+00
  9.783510e+00    3.199407e+00
  9.799385e+00    3.184325e+00
  9.815261e+00    3.153889e+00
  9.831137e+00    3.187714e+00
  9.847012e+00    3.185185e+00
  9.862888e+00    3.185899e+00
  9.878763e+00    3.123865e+00
  9.894639e+00    3.121646e+00
  9.910514e+00    3.137065e+00
  9.926390e+00    3.120420e+00
  9.942266e+00    3.100673e+00
  9.958141e+00    3.136230e+00
  9.974017e+00    3.123803e+00
  9.989892e+00    3.169374e+00
  1.000577e+01    3.178310e+00
  1.002164e+01    3.162922e+00
  1.003752e+01    3.105717e+00
  1.005339e+01    3.120290e+00
  1.006927e+01    3.117262e+00
  1.008515e+01    3.070732e+00
  1.010102e+01    3.049455e+00
  1.011690e+01    3.087590e+00
  1.013277e+01    3.057267e+00
  1.014865e+01    3.142525e+00
  1.016452e+01    3.132468e+00
  1.018040e+01    3.100384e+00
  1.019627e+01    3.079714e+00
  1.021215e+01    3.058279e+00
  1.022803e+01    3.108619e+00
  1.024390e+01    3.125064e+00
  1.025978e+01    3.068875e+00
  1.027565e+01    3.078614e+00
  1.029153e+01    3.035640e+00
  1.030740e+01    2.998366e+00
  1.032328e+01    3.038464e+00
  1.033915e+01    3.045434e+00
  1.035503e+01    3.100845e+00
  1.037091e+01    3.143276e+00
  1.038678e+01    3.065479e+00
  1.040266e+01    3.068953e+00
  1.041853e+01    3.062037e+00
  1.043441e+01    3.037820e+00
  1.045028e+01    3.022609e+00
  1.046616e+01    3.061529e+00
  1.048204e+01    3.012260e+00
  1.049791e+01    2.986519e+00
  1.051379e+01    3.059280e+00
  1.052966e+01    3.035291e+00
  1.054554e+01    3.029590e+00
  1.056141e+01    3.038725e+00
  1.057729e+01    3.020670e+00
  1.059316e+01    3.004912e+00
  1.060904e+01    3.019185e+00
  1.062492e+01    3.046429e+00
  1.064079e+01    3.046145e+00
  1.065667e+01    3.042035e+00
  1.067254e+01    2.988517e+00
  1.068842e+01    2.974118e+00
  1.070429e+01    2.985250e+00
  1.072017e+01    3.003155e+00
  1.073604e+01    2.988451e+00
  1.075192e+01    2.993526e+00
  1.076780e+01    2.958104e+00
  1.078367e+01    2.941372e+00
  1.079955e+01    2.954120e+00
  1.081542e+01    2.974727e+00
  1.083130e+01    2.985467e+00
  1.084717e+01    2.938694e+00
  1.086305e+01    2.931808e+00
  1.087892e+01    2.970161e+00
  1.089480e+01    2.993281e+00
  1.091068e+01    2.951596e+00
  1.092655e+01    2.916040e+00
  1.094243e+01    2.891223e+00
  1.095830e+01    2.886877e+00
  1.097418e+01    2.939804e+00
  1.099005e+01    2.920652e+00
  1.100593e+01    2.950450e+00
  1.102180e+01    2.954019e+00
  1.103768e+01    2.926011e+00
  1.105356e+01    2.898914e+00
  1.106943e+01    2.918817e+00
  1.108531e+01    2.928747e+00
  1.110118e+01    2.933354e+00
  1.111706e+01    2.884226e+00
  1.113293e+01    2.871770e+00
  1.114881e+01    2.886688e+00
  1.116468e+01    2.934695e+00
  1.118056e+01    2.907714e+00
  1.119644e+01    2.870709e+00
  1.121231e+01    2.848855e+00
  1.122819e+01    2.877706e+00
  1.124406e+01    2.849694e+00
  1.125994e+01    2.875711e+00
  1.127581e+01    2.872588e+00
  1.129169e+01    2.867790e+00
  1.130756e+01    2.846309e+00
  1.132344e+01    2.850257e+00
  1.133932e+01    2.859136e+00
  1.135519e+01    2.849446e+00
  1.137107e+01    2.849288e+00
  1.138694e+01    2.853282e+00
  1.140282e+01    2.862631e+00
  1.141869e+01    2.847610e+00
  1.143457e+01    2.818409e+00
  1.145045e+01    2.811072e+00
  1.146632e+01    2.817585e+00
  1.148220e+01    2.807771e+00
  1.149807e+01    2.782785e+00
  1.151395e+01    2.751680e+00
  1.152982e+01    2.785048e+00
  1.154570e+01    2.832663e+00
  1.156157e+01    2.792034e+00
  1.157745e+01    2.768782e+00
  1.159333e+01    2.781098e+00
  1.160920e+01    2.818130e+00
  1.162508e+01    2.823828e+00
  1.164095e+01    2.768471e+00
  1.165683e+01    2.745624e+00
  1.167270e+01    2.743711e+00
  1.168858e+01    2.710337e+00
  1.170445e+01    2.751647e+00
  1.172033e+01    2.767337e+00
  1.173621e+01    2.728174e+00
  1.175208e+01    2.711134e+00
  1.176796e+01    2.756834e+00
  1.178383e+01    2.745052e+00
  1.179971e+01    2.740746e+00
  1.181558e+01    2.743993e+00
  1.183146e+01    2.710839e+00
  1.184733e+01    2.756779e+00
  1.186321e+01    2.725300e+00
  1.187909e+01    2.736200e+00
  1.189496e+01    2.774288e+00
  1.191084e+01    2.729198e+00
  1.192671e+01    2.741204e+00
  1.194259e+01    2.718339e+00
  1.195846e+01    2.673852e+00
  1.197434e+01    2.728416e+00
  1.199021e+01    2.747704e+00
  1.200609e+01    2.759948e+00
  1.202197e+01    2.742555e+00
  1.203784e+01    2.743717e+00
  1.205372e+01    2.729637e+00
  1.206959e+01    2.724284e+00
  1.208547e+01    2.746582e+00
  1.210134e+01    2.795451e+00
  1.211722e+01    2.737434e+00
  1.213309e+01    2.726404e+00
  1.214897e+01    2.747941e+00
  1.216485e+01    2.735179e+00
  1.218072e+01    2.702660e+00
  1.219660e+01    2.738161e+00
  1.221247e+01    2.734794e+00
  1.222835e+01    2.690660e+00
  1.224422e+01    2.708757e+00
  1.226010e+01    2.684262e+00
  1.227597e+01    2.686958e+00
  1.229185e+01    2.718890e+00
  1.230773e+01    2.721622e+00
  1.232360e+01    2.738931e+00
  1.233948e+01    2.675204e+00
  1.235535e+01    2.633444e+00
  1.237123e+01    2.668494e+00
  1.238710e+01    2.679388e+00
  1.240298e+01    2.683178e+00
  1.241886e+01    2.707271e+00
  1.243473e+01    2.725178e+00
  1.245061e+01    2.736627e+00
  1.246648e+01    2.708562e+00
  1.248236e+01    2.731714e+00
  1.249823e+01    2.678839e+00
  1.251411e+01    2.636032e+00
  1.252998e+01    2.702254e+00
  1.254586e+01    2.749662e+00
  1.256174e+01    2.768532e+00
  1.257761e+01    2.798164e+00
  1.259349e+01    2.772065e+00
  1.260936e+01    2.754711e+00
  1.262524e+01    2.781827e+00
  1.264111e+01    2.819495e+00
  1.265699e+01    2.800324e+00
  1.267286e+01    2.782159e+00
  1.268874e+01    2.764941e+00
  1.270462e+01    2.815789e+00
  1.272049e+01    2.855407e+00
  1.273637e+01    2.853673e+00
  1.275224e+01    2.804068e+00
  1.276812e+01    2.832087e+00
  1.278399e+01    2.963513e+00
  1.279987e+01    3.034626e+00
  1.281574e+01    3.099558e+00
  1.283162e+01    3.147959e+00
  1.284750e+01    3.266550e+00
  1.286337e+01    3.318867e+00
  1.287925e+01    3.358580e+00
  1.289512e+01    3.480795e+00
  1.291100e+01    3.635552e+00
  1.292687e+01    3.876036e+00
  1.294275e+01    4.104052e+00
  1.295862e+01    4.388254e+00
  1.297450e+01    4.741080e+00
  1.299038e+01    5.204326e+00
  1.300625e+01    5.873670e+00
  1.302213e+01    6.656552e+00
  1.303800e+01    7.634053e+00
  1.305388e+01    8.787738e+00
  1.306975e+01    1.008779e+01
  1.308563e+01    1.137853e+01
  1.310150e+01    1.262256e+01
  1.311738e+01    1.374222e+01
  1.313326e+01    1.474020e+01
  1.314913e+01    1.563215e+01
  1.316501e+01    1.615016e+01
  1.318088e+01    1.634093e+01
  1.319676e+01    1.566951e+01
  1.321263e+01    1.439518e+01
  1.322851e+01    1.257666e+01
  1.324438e+01    1.078369e+01
  1.326026e+01    9.104074e+00
  1.327614e+01    7.817601e+00
  1.329201e+01    6.754215e+00
  1.330789e+01    5.944922e+00
  1.332376e+01    5.344560e+00
  1.333964e+01    4.824506e+00
  1.335551e+01    4.446372e+00
  1.337139e+01    4.115685e+00
  1.338727e+01    3.884548e+00
  1.340314e+01    3.663480e+00
  1.341902e+01    3.481956e+00
  1.343489e+01    3.363029e+00
  1.345077e+01    3.238957e+00
  1.346664e+01    3.124571e+00
  1.348252e+01    3.084456e+00
  1.349839e+01    2.985692e+00
  1.351427e+01    2.959349e+00
  1.353015e+01    2.892226e+00
  1.354602e+01    2.819997e+00
  1.356190e+01    2.764013e+00
  1.357777e+01    2.732723e+00
  1.359365e+01    2.717786e+00
  1.360952e+01    2.745391e+00
  1.362540e+01    2.669601e+00
  1.364127e+01    2.623666e+00
  1.365715e+01    2.592749e+00
  1.367303e+01    2.588147e+00
  1.368890e+01    2.554470e+00
  1.370478e+01    2.547725e+00
  1.372065e+01    2.579025e+00
  1.373653e+01    2.531185e+00
  1.375240e+01    2.518823e+00
  1.376828e+01    2.513049e+00
  1.378415e+01    2.466584e+00
  1.380003e+01    2.459836e+00
  1.381591e+01    2.501086e+00
  1.383178e+01    2.462239e+00
  1.384766e+01    2.466100e+00
  1.386353e+01    2.414615e+00
  1.387941e+01    2.457239e+00
  1.389528e+01    2.449610e+00
  1.391116e+01    2.398568e+00
  1.392703e+01    2.419880e+00
  1.394291e+01    2.376993e+00
  1.395879e+01    2.408740e+00
  1.397466e+01    2.430714e+00
  1.399054e+01    2.384798e+00
  1.400641e+01    2.399359e+00
  1.402229e+01    2.358036e+00
  1.403816e+01    2.373074e+00
  1.405404e+01    2.340210e+00
  1.406991e+01    2.311081e+00
  1.408579e+01    2.305051e+00
  1.410167e+01    2.325263e+00
  1.411754e+01    2.392459e+00
  1.413342e+01    2.347834e+00
  1.414929e+01    2.310729e+00
  1.416517e+01    2.329332e+00
  1.418104e+01    2.329404e+00
  1.419692e+01    2.287574e+00
  1.421279e+01    2.304965e+00
  1.422867e+01    2.336341e+00
  1.424455e+01    2.304321e+00
  1.426042e+01    2.299390e+00
  1.427630e+01    2.299996e+00
  1.429217e+01    2.316596e+00
  1.430805e+01    2.308193e+00
  1.432392e+01    2.298667e+00
  1.433980e+01    2.244045e+00
  1.435568e+01    2.248036e+00
  1.437155e+01    2.248206e+00
  1.438743e+01    2.231449e+00
  1.440330e+01    2.227158e+00
  1.441918e+01    2.225810e+00
  1.443505e+01    2.227416e+00
  1.445093e+01    2.244830e+00
  1.446680e+01    2.241916e+00
  1.448268e+01    2.252445e+00
  1.449856e+01    2.243404e+00
  1.451443e+01    2.248044e+00
  1.453031e+01    2.210754e+00
  1.454618e+01    2.198873e+00
  1.456206e+01    2.209153e+00
  1.457793e+01    2.199964e+00
  1.459381e+01    2.225251e+00
  1.460968e+01    2.249170e+00
  1.462556e+01    2.266105e+00
  1.464144e+01    2.230181e+00
  1.465731e+01    2.218783e+00
  1.467319e+01    2.227396e+00
  1.468906e+01    2.220576e+00
  1.470494e+01    2.192281e+00
  1.472081e+01    2.216280e+00
  1.473669e+01    2.205929e+00
  1.475256e+01    2.203881e+00
  1.476844e+01    2.200050e+00
  1.478432e+01    2.169987e+00
  1.480019e+01    2.191053e+00
  1.481607e+01    2.239746e+00
  1.483194e+01    2.255469e+00
  1.484782e+01    2.201046e+00
  1.486369e+01    2.183680e+00
  1.487957e+01    2.219976e+00
  1.489544e+01    2.226548e+00
  1.491132e+01    2.249252e+00
  1.492720e+01    2.256147e+00
  1.494307e+01    2.270081e+00
  1.495895e+01    2.334306e+00
  1.497482e+01    2.338496e+00
  1.499070e+01    2.393499e+00
  1.500657e+01    2.394552e+00
  1.502245e+01    2.506845e+00
  1.503832e+01    2.586048e+00
  1.505420e+01    2.678400e+00
  1.507008e+01    2.798017e+00
  1.508595e+01    2.970878e+00
  1.510183e+01    3.166879e+00
  1.511770e+01    3.441851e+00
  1.513358e+01    3.757997e+00
  1.514945e+01    4.140947e+00
  1.516533e+01    4.547072e+00
  1.518120e+01    4.857683e+00
  1.519708e+01    5.134210e+00
  1.521296e+01    5.372681e+00
  1.522883e+01    5.571839e+00
  1.524471e+01    5.710081e+00
  1.526058e+01    5.816530e+00
  1.527646e+01    5.744869e+00
  1.529233e+01    5.516813e+00
  1.530821e+01    5.147344e+00
  1.532409e+01    4.642488e+00
  1.533996e+01    4.180875e+00
  1.535584e+01    3.773372e+00
  1.537171e+01    3.434462e+00
  1.538759e+01    3.116493e+00
  1.540346e+01    2.942987e+00
  1.541934e+01    2.774327e+00
  1.543521e+01    2.627129e+00
  1.545109e+01    2.536794e+00
  1.546697e+01    2.414067e+00
  1.548284e+01    2.323788e+00
  1.549872e+01    2.302009e+00
  1.551459e+01    2.263544e+00
  1.553047e+01    2.233948e+00
  1.554634e+01    2.182372e+00
  1.556222e+01    2.157056e+00
  1.557809e+01    2.154577e+00
  1.559397e+01    2.127874e+00
  1.560985e+01    2.059361e+00
  1.562572e+01    2.075444e+00
  1.564160e+01    2.083788e+00
  1.565747e+01    2.055507e+00
  1.567335e+01    2.045497e+00
  1.568922e+01    2.011067e+00
  1.570510e+01    2.002255e+00
  1.572097e+01    1.996596e+00
  1.573685e+01    1.950920e+00
  1.575273e+01    1.957986e+00
  1.576860e+01    1.924191e+00
  1.578448e+01    1.909229e+00
  1.580035e+01    1.949176e+00
  1.581623e+01    1.957540e+00
  1.583210e+01    1.965483e+00
  1.584798e+01    1.957817e+00
  1.586385e+01    1.895547e+00
  1.587973e+01    1.893165e+00
  1.589561e+01    1.917382e+00
  1.591148e+01    1.921357e+00
  1.592736e+01    1.907994e+00
  1.594323e+01    1.920144e+00
  1.595911e+01    1.922247e+00
  1.597498e+01    1.882169e+00
  1.599086e+01    1.846680e+00
  1.600673e+01    1.876033e+00
  1.602261e+01    1.885633e+00
  1.603849e+01    1.893759e+00
  1.605436e+01    1.893057e+00
  1.607024e+01    1.890918e+00
  1.608611e+01    1.885774e+00
  1.610199e+01    1.837719e+00
  1.611786e+01    1.839825e+00
  1.613374e+01    1.876768e+00
  1.614961e+01    1.837903e+00
  1.616549e+01    1.841522e+00
  1.618137e+01    1.826294e+00
  1.619724e+01    1.810755e+00
  1.621312e+01    1.835487e+00
  1.622899e+01    1.800203e+00
  1.624487e+01    1.827927e+00
  1.626074e+01    1.806877e+00
  1.627662e+01    1.826757e+00
  1.629250e+01    1.816495e+00
  1.630837e+01    1.811630e+00
  1.632425e+01    1.806693e+00
  1.634012e+01    1.787180e+00
  1.635600e+01    1.790960e+00
  1.637187e+01    1.789528e+00
  1.638775e+01    1.813917e+00
  1.640362e+01    1.802762e+00
  1.641950e+01    1.792140e+00
  1.643538e+01    1.784028e+00
  1.645125e+01    1.789052e+00
  1.646713e+01    1.757822e+00
  1.648300e+01    1.825364e+00
  1.649888e+01    1.786119e+00
  1.651475e+01    1.764273e+00
  1.653063e+01    1.752765e+00
  1.654650e+01    1.768128e+00
  1.656238e+01    1.777481e+00
  1.657826e+01    1.757657e+00
  1.659413e+01    1.763276e+00
  1.661001e+01    1.752871e+00
  1.662588e+01    1.754199e+00
  1.664176e+01    1.735037e+00
  1.665763e+01    1.703856e+00
  1.667351e+01    1.745583e+00
  1.668938e+01    1.733759e+00
  1.670526e+01    1.725285e+00
  1.672114e+01    1.732972e+00
  1.673701e+01    1.712520e+00
  1.675289e+01    1.691859e+00
  1.676876e+01    1.692873e+00
  1.678464e+01    1.700670e+00
  1.680051e+01    1.723255e+00
  1.681639e+01    1.694453e+00
  1.683226e+01    1.701062e+00
  1.684814e+01    1.717502e+00
  1.686402e+01    1.673526e+00
  1.687989e+01    1.675182e+00
  1.689577e+01    1.695088e+00
  1.691164e+01    1.681931e+00
  1.692752e+01    1.679559e+00
  1.694339e+01    1.677852e+00
  1.695927e+01    1.701082e+00
  1.697514e+01    1.674804e+00
  1.699102e+01    1.666303e+00
  1.700690e+01    1.671592e+00
  1.702277e+01    1.654802e+00
  1.703865e+01    1.662932e+00
  1.705452e+01    1.647887e+00
  1.707040e+01    1.662693e+00
  1.708627e+01    1.642619e+00
  1.710215e+01    1.642035e+00
  1.711802e+01    1.643945e+00
  1.713390e+01    1.644120e+00
  1.714978e+01    1.639166e+00
  1.716565e+01    1.621143e+00
  1.718153e+01    1.618896e+00
  1.719740e+01    1.635164e+00
  1.721328e+01    1.614788e+00
  1.722915e+01    1.640560e+00
  1.724503e+01    1.634878e+00
  1.726091e+01    1.651553e+00
  1.727678e+01    1.620520e+00
  1.729266e+01    1.622205e+00
  1.730853e+01    1.625821e+00
  1.732441e+01    1.587057e+00
  1.734028e+01    1.609408e+00
  1.735616e+01    1.641160e+00
  1.737203e+01    1.620476e+00
  1.738791e+01    1.625691e+00
  1.740379e+01    1.625165e+00
  1.741966e+01    1.627004e+00
  1.743554e+01    1.602249e+00
  1.745141e+01    1.611716e+00
  1.746729e+01    1.620764e+00
  1.748316e+01    1.595083e+00
  1.749904e+01    1.601049e+00
  1.751491e+01    1.577285e+00
  1.753079e+01    1.547674e+00
  1.754667e+01    1.576506e+00
  1.756254e+01    1.609042e+00
  1.757842e+01    1.594412e+00
  1.759429e+01    1.570414e+00
  1.761017e+01    1.579530e+00
  1.762604e+01    1.593665e+00
  1.764192e+01    1.566901e+00
  1.765779e+01    1.573390e+00
  1.767367e+01    1.563483e+00
  1.768955e+01    1.540695e+00
  1.770542e+01    1.554838e+00
  1.772130e+01    1.570171e+00
  1.773717e+01    1.561477e+00
  1.775305e+01    1.539431e+00
  1.776892e+01    1.545165e+00
  1.778480e+01    1.567963e+00
  1.780067e+01    1.559536e+00
  1.781655e+01    1.550714e+00
  1.783243e+01    1.529871e+00
  1.784830e+01    1.519041e+00
  1.786418e+01    1.513709e+00
  1.788005e+01    1.526109e+00
  1.789593e+01    1.504455e+00
  1.791180e+01    1.516659e+00
  1.792768e+01    1.506540e+00
  1.794355e+01    1.480764e+00
  1.795943e+01    1.506848e+00
  1.797531e+01    1.522226e+00
  1.799118e+01    1.511391e+00
  1.800706e+01    1.509223e+00
  1.802293e+01    1.486109e+00
  1.803881e+01    1.471153e+00
  1.805468e+01    1.464581e+00
  1.807056e+01    1.481710e+00
  1.808643e+01    1.512340e+00
  1.810231e+01    1.537084e+00
  1.811819e+01    1.489004e+00
  1.813406e+01    1.493292e+00
  1.814994e+01    1.501952e+00
  1.816581e+01    1.506142e+00
  1.818169e+01    1.497029e+00
  1.819756e+01    1.499578e+00
  1.821344e+01    1.488069e+00
  1.822932e+01    1.486120e+00
  1.824519e+01    1.486290e+00
  1.826107e+01    1.474282e+00
  1.827694e+01    1.482870e+00
  1.829282e+01    1.475006e+00
  1.830869e+01    1.453536e+00
  1.832457e+01    1.455935e+00
  1.834044e+01    1.469414e+00
  1.835632e+01    1.475088e+00
  1.837220e+01    1.471247e+00
  1.838807e+01    1.472158e+00
  1.840395e+01    1.470746e+00
  1.841982e+01    1.464182e+00
  1.843570e+01    1.452813e+00
  1.845157e+01    1.436562e+00
  1.846745e+01    1.456517e+00
  1.848332e+01    1.460859e+00
  1.849920e+01    1.452529e+00
  1.851508e+01    1.443726e+00
  1.853095e+01    1.453339e+00
  1.854683e+01    1.477591e+00
  1.856270e+01    1.448015e+00
  1.857858e+01    1.411959e+00
  1.859445e+01    1.404616e+00
  1.861033e+01    1.445935e+00
  1.862620e+01    1.436786e+00
  1.864208e+01    1.441924e+00
  1.865796e+01    1.426349e+00
  1.867383e+01    1.419174e+00
  1.868971e+01    1.413113e+00
  1.870558e+01    1.421212e+00
  1.872146e+01    1.410450e+00
  1.873733e+01    1.399676e+00
  1.875321e+01    1.405313e+00
  1.876908e+01    1.405052e+00
  1.878496e+01    1.391823e+00
  1.880084e+01    1.425106e+00
  1.881671e+01    1.414137e+00
  1.883259e+01    1.414761e+00
  1.884846e+01    1.377219e+00
  1.886434e+01    1.397117e+00
  1.888021e+01    1.386227e+00
  1.889609e+01    1.404778e+00
  1.891196e+01    1.383407e+00
  1.892784e+01    1.406651e+00
  1.894372e+01    1.400709e+00
  1.895959e+01    1.398412e+00
  1.897547e+01    1.401495e+00
  1.899134e+01    1.380822e+00
  1.900722e+01    1.382103e+00
  1.902309e+01    1.368275e+00
  1.903897e+01    1.365813e+00
  1.905484e+01    1.373192e+00
  1.907072e+01    1.394255e+00
  1.908660e+01    1.391748e+00
  1.910247e+01    1.370942e+00
  1.911835e+01    1.382890e+00
  1.913422e+01    1.370784e+00
  1.915010e+01    1.395043e+00
  1.916597e+01    1.392643e+00
  1.918185e+01    1.381704e+00
  1.919773e+01    1.360749e+00
  1.921360e+01    1.336262e+00
  1.922948e+01    1.326863e+00
  1.924535e+01    1.371603e+00
  1.926123e+01    1.372153e+00
  1.927710e+01    1.364397e+00
  1.929298e+01    1.333572e+00
  1.930885e+01    1.367890e+00
  1.932473e+01    1.351241e+00
  1.934061e+01    1.369549e+00
  1.935648e+01    1.329821e+00
  1.937236e+01    1.327668e+00
  1.938823e+01    1.324302e+00
  1.940411e+01    1.345590e+00
  1.941998e+01    1.334414e+00
  1.943586e+01    1.344509e+00
  1.945173e+01    1.335984e+00
  1.946761e+01    1.318157e+00
  1.948349e+01    1.316224e+00
  1.949936e+01    1.350061e+00
  1.951524e+01    1.356867e+00
  1.953111e+01    1.353586e+00
  1.954699e+01    1.348025e+00
  1.956286e+01    1.319047e+00
  1.957874e+01    1.317554e+00
  1.959461e+01    1.318201e+00
  1.961049e+01    1.326045e+00
  1.962637e+01    1.334760e+00
  1.964224e+01    1.310611e+00
  1.965812e+01    1.317256e+00
  1.967399e+01    1.312554e+00
  1.968987e+01    1.323923e+00
  1.970574e+01    1.301587e+00
  1.972162e+01    1.287131e+00
  1.973749e+01    1.284840e+00
  1.975337e+01    1.273952e+00
  1.976925e+01    1.325263e+00
  1.978512e+01    1.326909e+00
  1.980100e+01    1.324394e+00
  1.981687e+01    1.297384e+00
  1.983275e+01    1.273145e+00
  1.984862e+01    1.295739e+00
  1.986450e+01    1.311391e+00
  1.988037e+01    1.289739e+00
  1.989625e+01    1.313535e+00
  1.991213e+01    1.308387e+00
  1.992800e+01    1.278423e+00
  1.994388e+01    1.285136e+00
  1.995975e+01    1.310459e+00
  1.997563e+01    1.318467e+00
  1.999150e+01    1.298195e+00
  2.000738e+01    1.295278e+00
  2.002325e+01    1.291495e+00
  2.003913e+01    1.271303e+00
  2.005501e+01    1.276918e+00
  2.007088e+01    1.278978e+00
  2.008676e+01    1.291395e+00
  2.010263e+01    1.285539e+00
  2.011851e+01    1.294550e+00
  2.013438e+01    1.291784e+00
  2.015026e+01    1.281059e+00
  2.016614e+01    1.272420e+00
  2.018201e+01    1.268451e+00
  2.019789e+01    1.264496e+00
  2.021376e+01    1.253111e+00
  2.022964e+01    1.300721e+00
  2.024551e+01    1.267144e+00
  2.026139e+01    1.250663e+00
  2.027726e+01    1.263714e+00
  2.029314e+01    1.254668e+00
  2.030902e+01    1.262154e+00
  2.032489e+01    1.229459e+00
  2.034077e+01    1.267349e+00
  2.035664e+01    1.263063e+00
  2.037252e+01    1.247303e+00
  2.038839e+01    1.252921e+00
  2.040427e+01    1.240366e+00
  2.042014e+01    1.237681e+00
  2.043602e+01    1.264234e+00
  2.045190e+01    1.275954e+00
  2.046777e+01    1.256094e+00
  2.048365e+01    1.240390e+00
  2.049952e+01    1.244818e+00
  2.051540e+01    1.241694e+00
  2.053127e+01    1.240614e+00
  2.054715e+01    1.242013e+00
  2.056302e+01    1.244782e+00
  2.057890e+01    1.237295e+00
  2.059478e+01    1.249480e+00
  2.061065e+01    1.261304e+00
  2.062653e+01    1.246652e+00
  2.064240e+01    1.246125e+00
  2.065828e+01    1.244542e+00
  2.067415e+01    1.237577e+00
  2.069003e+01    1.233546e+00
  2.070590e+01    1.260515e+00
  2.072178e+01    1.232748e+00
  2.073766e+01    1.229820e+00
  2.075353e+01    1.216969e+00
  2.076941e+01    1.238686e+00
  2.078528e+01    1.243500e+00
  2.080116e+01    1.252796e+00
  2.081703e+01    1.245735e+00
  2.083291e+01    1.230256e+00
  2.084878e+01    1.223588e+00
  2.086466e+01    1.216072e+00
  2.088054e+01    1.228894e+00
  2.089641e+01    1.228743e+00
  2.091229e+01    1.239556e+00
  2.092816e+01    1.223579e+00
  2.094404e+01    1.210538e+00
  2.095991e+01    1.228704e+00
  2.097579e+01    1.238047e+00
  2.099166e+01    1.224642e+00
  2.100754e+01    1.228908e+00
  2.102342e+01    1.240308e+00
  2.103929e+01    1.222860e+00
  2.105517e+01    1.226866e+00
  2.107104e+01    1.224637e+00
  2.108692e+01    1.215008e+00
  2.110279e+01    1.212621e+00
  2.111867e+01    1.223983e+00
  2.113455e+01    1.232753e+00
  2.115042e+01    1.244658e+00
  2.116630e+01    1.251659e+00
  2.118217e+01    1.252316e+00
  2.119805e+01    1.228166e+00
  2.121392e+01    1.241699e+00
  2.122980e+01    1.254538e+00
  2.124567e+01    1.268615e+00
  2.126155e+01    1.244786e+00
  2.127743e+01    1.243407e+00
  2.129330e+01    1.255651e+00
  2.130918e+01    1.260467e+00
  2.132505e+01    1.263932e+00
  2.134093e+01    1.275969e+00
  2.135680e+01    1.279664e+00
  2.137268e+01    1.294228e+00
  2.138855e+01    1.308843e+00
  2.140443e+01    1.309268e+00
  2.142031e+01    1.332645e+00
  2.143618e+01    1.358477e+00
  2.145206e+01    1.353798e+00
  2.146793e+01    1.383998e+00
  2.148381e+01    1.385875e+00
  2.149968e+01    1.429203e+00
  2.151556e+01    1.468475e+00
  2.153143e+01    1.486989e+00
  2.154731e+01    1.526690e+00
  2.156319e+01    1.561969e+00
  2.157906e+01    1.615006e+00
  2.159494e+01    1.678015e+00
  2.161081e+01    1.752622e+00
  2.162669e+01    1.859040e+00
  2.164256e+01    1.974564e+00
  2.165844e+01    2.098951e+00
  2.167431e+01    2.289736e+00
  2.169019e+01    2.498375e+00
  2.170607e+01    2.814511e+00
  2.172194e+01    3.124339e+00
  2.173782e+01    3.573187e+00
  2.175369e+01    4.030023e+00
  2.176957e+01    4.530240e+00
  2.178544e+01    5.117714e+00
  2.180132e+01    5.779329e+00
  2.181719e+01    6.488012e+00
  2.183307e+01    7.125782e+00
  2.184895e+01    7.745822e+00
  2.186482e+01    8.318938e+00
  2.188070e+01    8.727786e+00
  2.189657e+01    8.885959e+00
  2.191245e+01    8.698763e+00
  2.192832e+01    8.247314e+00
  2.194420e+01    7.566845e+00
  2.196007e+01    6.635278e+00
  2.197595e+01    5.716243e+00
  2.199183e+01    4.903540e+00
  2.200770e+01    4.203898e+00
  2.202358e+01    3.632497e+00
  2.203945e+01    3.179379e+00
  2.205533e+01    2.849066e+00
  2.207120e+01    2.569048e+00
  2.208708e+01    2.328803e+00
  2.210296e+01    2.150948e+00
  2.211883e+01    2.008946e+00
  2.213471e+01    1.857080e+00
  2.215058e+01    1.752111e+00
  2.216646e+01    1.685448e+00
  2.218233e+01    1.618690e+00
  2.219821e+01    1.557592e+00
  2.221408e+01    1.492029e+00
  2.222996e+01    1.448098e+00
  2.224584e+01    1.401007e+00
  2.226171e+01    1.392642e+00
  2.227759e+01    1.368302e+00
  2.229346e+01    1.318923e+00
  2.230934e+01    1.307697e+00
  2.232521e+01    1.288914e+00
  2.234109e+01    1.266792e+00
  2.235696e+01    1.258538e+00
  2.237284e+01    1.233157e+00
  2.238872e+01    1.235757e+00
  2.240459e+01    1.208282e+00
  2.242047e+01    1.204567e+00
  2.243634e+01    1.179280e+00
  2.245222e+01    1.165249e+00
  2.246809e+01    1.179678e+00
  2.248397e+01    1.150482e+00
  2.249984e+01    1.148895e+00
  2.251572e+01    1.141724e+00
  2.253160e+01    1.146386e+00
  2.254747e+01    1.135935e+00
  2.256335e+01    1.117162e+00
  2.257922e+01    1.116905e+00
  2.259510e+01    1.093434e+00
  2.261097e+01    1.131119e+00
  2.262685e+01    1.111418e+00
  2.264272e+01    1.111855e+00
  2.265860e+01    1.097061e+00
  2.267448e+01    1.070554e+00
  2.269035e+01    1.076455e+00
  2.270623e+01    1.083915e+00
  2.272210e+01    1.101484e+00
  2.273798e+01    1.082288e+00
  2.275385e+01    1.091087e+00
  2.276973e+01    1.084063e+00
  2.278560e+01    1.083585e+00
  2.280148e+01    1.069689e+00
  2.281736e+01    1.060882e+00
  2.283323e+01    1.059188e+00
  2.284911e+01    1.043833e+00
  2.286498e+01    1.042958e+00
  2.288086e+01    1.040200e+00
  2.289673e+01    1.030151e+00
  2.291261e+01    1.052848e+00
  2.292848e+01    1.063425e+00
  2.294436e+01    1.052086e+00
  2.296024e+01    1.033900e+00
  2.297611e+01    1.049508e+00
  2.299199e+01    1.033579e+00
  2.300786e+01    1.012756e+00
  2.302374e+01    1.031288e+00
  2.303961e+01    1.026603e+00
  2.305549e+01    1.020401e+00
  2.307137e+01    1.003243e+00
  2.308724e+01    9.998738e-01
  2.310312e+01    9.938937e-01
  2.311899e+01    1.008066e+00
  2.313487e+01    1.005876e+00
  2.315074e+01    9.980355e-01
  2.316662e+01    1.001179e+00
  2.318249e+01    1.017295e+00
  2.319837e+01    1.006489e+00
  2.321425e+01    1.013868e+00
  2.323012e+01    9.998387e-01
  2.324600e+01    9.980155e-01
  2.326187e+01    9.911765e-01
  2.327775e+01    1.001050e+00
  2.329362e+01    1.012814e+00
  2.330950e+01    1.008662e+00
  2.332537e+01    9.881546e-01
  2.334125e+01    1.005357e+00
  2.335713e+01    9.854741e-01
  2.337300e+01    9.903834e-01
  2.338888e+01    9.676210e-01
  2.340475e+01    9.801676e-01
  2.342063e+01    9.909250e-01
  2.343650e+01    9.848500e-01
  2.345238e+01    9.662722e-01
  2.346825e+01    9.640195e-01
  2.348413e+01    9.787328e-01
  2.350001e+01    9.807752e-01
  2.351588e+01    9.754615e-01
  2.353176e+01    9.483620e-01
  2.354763e+01    9.564359e-01
  2.356351e+01    9.691269e-01
  2.357938e+01    9.639643e-01
  2.359526e+01    9.688225e-01
  2.361113e+01    9.781422e-01
  2.362701e+01    9.664294e-01
  2.364289e+01    9.698048e-01
  2.365876e+01    9.445387e-01
  2.367464e+01    9.460414e-01
  2.369051e+01    9.410680e-01
  2.370639e+01    9.238140e-01
  2.372226e+01    9.291594e-01
  2.373814e+01    9.533276e-01
  2.375401e+01    9.425759e-01
  2.376989e+01    9.555120e-01
  2.378577e+01    9.567618e-01
  2.380164e+01    9.470211e-01
  2.381752e+01    9.482613e-01
  2.383339e+01    9.430031e-01
  2.384927e+01    9.319236e-01
  2.386514e+01    9.025794e-01
  2.388102e+01    9.105036e-01
  2.389689e+01    9.085402e-01
  2.391277e+01    9.014421e-01
  2.392865e+01    8.993708e-01
  2.394452e+01    8.974105e-01
  2.396040e+01    9.001039e-01
  2.397627e+01    8.991179e-01
  2.399215e+01    9.097036e-01
  2.400802e+01    9.154901e-01
  2.402390e+01    9.009358e-01
  2.403978e+01    8.979969e-01
  2.405565e+01    8.993972e-01
  2.407153e+01    9.007699e-01
  2.408740e+01    8.966464e-01
  2.410328e+01    8.676719e-01
  2.411915e+01    8.633103e-01
  2.413503e+01    8.797198e-01
  2.415090e+01    8.868152e-01
  2.416678e+01    8.864317e-01
  2.418266e+01    8.875361e-01
  2.419853e+01    8.613930e-01
  2.421441e+01    8.783664e-01
  2.423028e+01    8.869687e-01
  2.424616e+01    8.995031e-01
  2.426203e+01    8.815596e-01
  2.427791e+01    8.980941e-01
  2.429378e+01    9.096362e-01
  2.430966e+01    8.933640e-01
  2.432554e+01    8.699776e-01
  2.434141e+01    8.834091e-01
  2.435729e+01    8.727328e-01
  2.437316e+01    8.886347e-01
  2.438904e+01    8.807779e-01
  2.440491e+01    8.925542e-01
  2.442079e+01    8.976184e-01
  2.443666e+01    9.042386e-01
  2.445254e+01    8.985183e-01
  2.446842e+01    8.948346e-01
  2.448429e+01    8.911752e-01
  2.450017e+01    8.883033e-01
  2.451604e+01    8.852996e-01
  2.453192e+01    8.900748e-01
  2.454779e+01    8.950605e-01
  2.456367e+01    8.946111e-01
  2.457954e+01    9.081659e-01
  2.459542e+01    8.951979e-01
  2.461130e+01    9.051971e-01
  2.462717e+01    8.869406e-01
  2.464305e+01    8.684762e-01
  2.465892e+01    8.942902e-01
  2.467480e+01    9.186606e-01
  2.469067e+01    9.055930e-01
  2.470655e+01    8.892545e-01
  2.472242e+01    8.756129e-01
  2.473830e+01    8.889312e-01
  2.475418e+01    8.946961e-01
  2.477005e+01    9.056649e-01
  2.478593e+01    9.125909e-01
  2.480180e+01    9.065836e-01
  2.481768e+01    8.921255e-01
  2.483355e+01    9.150509e-01
  2.484943e+01    8.996488e-01
  2.486530e+01    8.858647e-01
  2.488118e+01    9.188265e-01
  2.489706e+01    8.928963e-01
  2.491293e+01    9.024355e-01
  2.492881e+01    9.080513e-01
  2.494468e+01    8.836337e-01
  2.496056e+01    9.027143e-01
  2.497643e+01    9.045544e-01
  2.499231e+01    8.823431e-01
  2.500819e+01    8.726719e-01
  2.502406e+01    9.109480e-01
  2.503994e+01    9.027170e-01
  2.505581e+01    9.258618e-01
  2.507169e+01    9.072205e-01
  2.508756e+01    9.154285e-01
  2.510344e+01    8.994365e-01
  2.511931e+01    9.035300e-01
  2.513519e+01    9.290746e-01
  2.515107e+01    9.081059e-01
  2.516694e+01    9.204414e-01
  2.518282e+01    9.264131e-01
  2.519869e+01    9.471931e-01
  2.521457e+01    9.381031e-01
  2.523044e+01    9.325848e-01
  2.524632e+01    9.527328e-01
  2.526219e+01    9.326803e-01
  2.527807e+01    9.257451e-01
  2.529395e+01    9.350280e-01
  2.530982e+01    9.527269e-01
  2.532570e+01    9.516989e-01
  2.534157e+01    9.475587e-01
  2.535745e+01    1.004573e+00
  2.537332e+01    9.975120e-01
  2.538920e+01    9.811907e-01
  2.540507e+01    9.819351e-01
  2.542095e+01    1.005203e+00
  2.543683e+01    1.000168e+00
  2.545270e+01    1.008554e+00
  2.546858e+01    1.031733e+00
  2.548445e+01    1.060867e+00
  2.550033e+01    1.076882e+00
  2.551620e+01    1.070791e+00
  2.553208e+01    1.068804e+00
  2.554795e+01    1.075517e+00
  2.556383e+01    1.114188e+00
  2.557971e+01    1.158967e+00
  2.559558e+01    1.188259e+00
  2.561146e+01    1.232295e+00
  2.562733e+01    1.251640e+00
  2.564321e+01    1.296983e+00
  2.565908e+01    1.329644e+00
  2.567496e+01    1.408119e+00
  2.569083e+01    1.519456e+00
  2.570671e+01    1.582615e+00
  2.572259e+01    1.698045e+00
  2.573846e+01    1.826808e+00
  2.575434e+01    1.997193e+00
  2.577021e+01    2.167069e+00
  2.578609e+01    2.445867e+00
  2.580196e+01    2.809397e+00
  2.581784e+01    3.179327e+00
  2.583371e+01    3.590705e+00
  2.584959e+01    4.080791e+00
  2.586547e+01    4.686354e+00
  2.588134e+01    5.251462e+00
  2.589722e+01    5.768334e+00
  2.591309e+01    6.277241e+00
  2.592897e+01    6.781904e+00
  2.594484e+01    6.990049e+00
  2.596072e+01    7.116330e+00
  2.597660e+01    6.965500e+00
  2.599247e+01    6.541928e+00
  2.600835e+01    6.016163e+00
  2.602422e+01    5.343171e+00
  2.604010e+01    4.674484e+00
  2.605597e+01    3.974696e+00
  2.607185e+01    3.465531e+00
  2.608772e+01    3.033355e+00
  2.610360e+01    2.713591e+00
  2.611948e+01    2.379241e+00
  2.613535e+01    2.159644e+00
  2.615123e+01    1.991737e+00
  2.616710e+01    1.820522e+00
  2.618298e+01    1.699453e+00
  2.619885e+01    1.613434e+00
  2.621473e+01    1.507808e+00
  2.623060e+01    1.388456e+00
  2.624648e+01    1.351393e+00
  2.626236e+01    1.308607e+00
  2.627823e+01    1.273293e+00
  2.629411e+01    1.208679e+00
  2.630998e+01    1.175755e+00
  2.632586e+01    1.146808e+00
  2.634173e+01    1.125123e+00
  2.635761e+01    1.116151e+00
  2.637348e+01    1.090575e+00
  2.638936e+01    1.057499e+00
  2.640524e+01    1.051583e+00
  2.642111e+01    1.036069e+00
  2.643699e+01    1.014487e+00
  2.645286e+01    1.013559e+00
  2.646874e+01    1.026105e+00
  2.648461e+01    1.012344e+00
  2.650049e+01    1.009932e+00
  2.651636e+01    1.033267e+00
  2.653224e+01    1.012918e+00
  2.654812e+01    1.025758e+00
  2.656399e+01    9.842534e-01
  2.657987e+01    9.923542e-01
  2.659574e+01    9.898072e-01
  2.661162e+01    9.701791e-01
  2.662749e+01    9.662232e-01
  2.664337e+01    9.803526e-01
  2.665924e+01    9.743705e-01
  2.667512e+01    9.567398e-01
  2.669100e+01    9.651087e-01
  2.670687e+01    9.695657e-01
  2.672275e+01    9.581534e-01
  2.673862e+01    9.551540e-01
  2.675450e+01    9.713953e-01
  2.677037e+01    9.608806e-01
  2.678625e+01    9.695706e-01
  2.680212e+01    9.893218e-01
  2.681800e+01    9.871222e-01
  2.683388e+01    9.942055e-01
  2.684975e+01    1.000313e+00
  2.686563e+01    9.744765e-01
  2.688150e+01    9.952292e-01
  2.689738e+01    1.010876e+00
  2.691325e+01    1.006363e+00
  2.692913e+01    1.026494e+00
  2.694501e+01    1.008858e+00
  2.696088e+01    1.017074e+00
  2.697676e+01    1.049237e+00
  2.699263e+01    1.081128e+00
  2.700851e+01    1.104209e+00
  2.702438e+01    1.151393e+00
  2.704026e+01    1.203488e+00
  2.705613e+01    1.257178e+00
  2.707201e+01    1.320534e+00
  2.708789e+01    1.374390e+00
  2.710376e+01    1.443641e+00
  2.711964e+01    1.574209e+00
  2.713551e+01    1.712643e+00
  2.715139e+01    1.855791e+00
  2.716726e+01    1.974129e+00
  2.718314e+01    2.075022e+00
  2.719901e+01    2.156053e+00
  2.721489e+01    2.186509e+00
  2.723077e+01    2.194465e+00
  2.724664e+01    2.090531e+00
  2.726252e+01    1.955301e+00
  2.727839e+01    1.825630e+00
  2.729427e+01    1.720555e+00
  2.731014e+01    1.613595e+00
  2.732602e+01    1.452762e+00
  2.734189e+01    1.361467e+00
  2.735777e+01    1.283937e+00
  2.737365e+01    1.218724e+00
  2.738952e+01    1.166476e+00
  2.740540e+01    1.146822e+00
  2.742127e+01    1.077636e+00
  2.743715e+01    1.058825e+00
  2.745302e+01    1.042057e+00
  2.746890e+01    1.022216e+00
  2.748477e+01    1.014923e+00
  2.750065e+01    9.800034e-01
  2.751653e+01    9.580346e-01
  2.753240e+01    9.563513e-01
  2.754828e+01    9.420023e-01
  2.756415e+01    9.470838e-01
  2.758003e+01    9.292848e-01
  2.759590e+01    9.312235e-01
  2.761178e+01    9.446666e-01
  2.762765e+01    9.145806e-01
  2.764353e+01    9.075372e-01
  2.765941e+01    9.129554e-01
  2.767528e+01    9.310309e-01
  2.769116e+01    9.303174e-01
  2.770703e+01    8.896446e-01
  2.772291e+01    8.970225e-01
  2.773878e+01    8.944328e-01
  2.775466e+01    8.844053e-01
  2.777054e+01    9.057144e-01
  2.778641e+01    8.997043e-01
  2.780229e+01    8.952206e-01
  2.781816e+01    8.921782e-01
  2.783404e+01    9.082718e-01
  2.784991e+01    8.744023e-01
  2.786579e+01    8.799464e-01
  2.788166e+01    9.009773e-01
  2.789754e+01    8.938411e-01
  2.791342e+01    8.785595e-01
  2.792929e+01    8.793575e-01
  2.794517e+01    8.683996e-01
  2.796104e+01    8.599195e-01
  2.797692e+01    8.715532e-01
  2.799279e+01    8.576450e-01
  2.800867e+01    8.492491e-01
  2.802454e+01    8.760398e-01
  2.804042e+01    8.562300e-01
  2.805630e+01    8.485076e-01
  2.807217e+01    8.840789e-01
  2.808805e+01    8.820810e-01
  2.810392e+01    8.651011e-01
  2.811980e+01    8.484971e-01
  2.813567e+01    8.656107e-01
  2.815155e+01    8.923343e-01
  2.816742e+01    8.768222e-01
  2.818330e+01    8.440738e-01
  2.819918e+01    8.692936e-01
  2.821505e+01    8.703660e-01
  2.823093e+01    8.497915e-01
  2.824680e+01    8.545784e-01
  2.826268e+01    8.436933e-01
  2.827855e+01    8.459743e-01
  2.829443e+01    8.681979e-01
  2.831030e+01    8.687321e-01
  2.832618e+01    8.493274e-01
  2.834206e+01    8.448006e-01
  2.835793e+01    8.322312e-01
  2.837381e+01    8.398070e-01
  2.838968e+01    8.512795e-01
  2.840556e+01    8.417776e-01
  2.842143e+01    8.282927e-01
  2.843731e+01    8.295860e-01
  2.845318e+01    8.252468e-01
  2.846906e+01    8.196761e-01
  2.848494e+01    8.340306e-01
  2.850081e+01    8.316933e-01
  2.851669e+01    8.157836e-01
  2.853256e+01    8.532131e-01
  2.854844e+01    8.430904e-01
  2.856431e+01    8.375575e-01
  2.858019e+01    8.429580e-01
  2.859606e+01    8.346502e-01
  2.861194e+01    8.420409e-01
  2.862782e+01    8.484159e-01
  2.864369e+01    8.591218e-01
  2.865957e+01    8.580696e-01
  2.867544e+01    8.348802e-01
  2.869132e+01    8.405842e-01
  2.870719e+01    8.477176e-01
  2.872307e+01    8.307881e-01
  2.873895e+01    8.102503e-01
  2.875482e+01    8.063987e-01
  2.877070e+01    8.112186e-01
  2.878657e+01    8.191903e-01
  2.880245e+01    8.389894e-01
  2.881832e+01    8.264312e-01
  2.883420e+01    8.400646e-01
  2.885007e+01    8.367060e-01
  2.886595e+01    8.466968e-01
  2.888183e+01    8.241813e-01
  2.889770e+01    8.130141e-01
  2.891358e+01    8.341617e-01
  2.892945e+01    8.376710e-01
  2.894533e+01    8.351622e-01
  2.896120e+01    8.123695e-01
  2.897708e+01    8.157068e-01
  2.899295e+01    8.220230e-01
  2.900883e+01    8.336946e-01
  2.902471e+01    8.182831e-01
  2.904058e+01    8.259100e-01
  2.905646e+01    8.192800e-01
  2.907233e+01    8.098466e-01
  2.908821e+01    8.119665e-01
  2.910408e+01    7.990628e-01
  2.911996e+01    8.127177e-01
  2.913583e+01    8.203614e-01
  2.915171e+01    8.190559e-01
  2.916759e+01    8.056877e-01
  2.918346e+01    8.375343e-01
  2.919934e+01    8.277257e-01
  2.921521e+01    8.280841e-01
  2.923109e+01    8.249170e-01
  2.924696e+01    7.991873e-01
  2.926284e+01    8.122469e-01
  2.927871e+01    8.105078e-01
  2.929459e+01    8.084227e-01
  2.931047e+01    8.307473e-01
  2.932634e+01    8.275414e-01
  2.934222e+01    8.244182e-01
  2.935809e+01    8.180231e-01
  2.937397e+01    8.102848e-01
  2.938984e+01    8.258584e-01
  2.940572e+01    8.102288e-01
  2.942159e+01    8.101350e-01
  2.943747e+01    7.991523e-01
  2.945335e+01    8.302125e-01
  2.946922e+01    8.251131e-01
  2.948510e+01    7.987401e-01
  2.950097e+01    7.785466e-01
  2.951685e+01    8.001598e-01
  2.953272e+01    8.120795e-01
  2.954860e+01    7.960218e-01
  2.956447e+01    8.112811e-01
  2.958035e+01    7.914631e-01
  2.959623e+01    7.847406e-01
  2.961210e+01    7.830694e-01
  2.962798e+01    8.112352e-01
  2.964385e+01    8.327152e-01
  2.965973e+01    7.918037e-01
  2.967560e+01    7.870730e-01
  2.969148e+01    7.993616e-01
  2.970736e+01    8.139385e-01
  2.972323e+01    7.768602e-01
  2.973911e+01    7.643307e-01
  2.975498e+01    7.662404e-01
  2.977086e+01    7.760646e-01
  2.978673e+01    8.028283e-01
  2.980261e+01    7.841914e-01
  2.981848e+01    7.887368e-01
  2.983436e+01    8.145820e-01
  2.985024e+01    8.191981e-01
  2.986611e+01    7.901371e-01
  2.988199e+01    7.764770e-01
  2.989786e+01    7.761946e-01
  2.991374e+01    7.954374e-01
  2.992961e+01    7.892671e-01
  2.994549e+01    8.121680e-01
  2.996136e+01    8.083979e-01
  2.997724e+01    7.862620e-01
  2.999312e+01    8.056825e-01
  3.000899e+01    8.184593e-01
  3.002487e+01    8.095785e-01
  3.004074e+01    8.150390e-01
  3.005662e+01    8.111774e-01
  3.007249e+01    8.181878e-01
  3.008837e+01    8.446614e-01
  3.010424e+01    8.040476e-01
  3.012012e+01    7.978970e-01
  3.013600e+01    7.816875e-01
  3.015187e+01    7.831035e-01
  3.016775e+01    7.948472e-01
  3.018362e+01    7.877358e-01
  3.019950e+01    7.954335e-01
  3.021537e+01    7.985271e-01
  3.023125e+01    7.800686e-01
  3.024712e+01    7.885737e-01
  3.026300e+01    7.957914e-01
  3.027888e+01    7.966905e-01
  3.029475e+01    8.026985e-01
  3.031063e+01    8.123314e-01
  3.032650e+01    7.891458e-01
  3.034238e+01    7.793640e-01
  3.035825e+01    7.802335e-01
  3.037413e+01    8.005589e-01
  3.039000e+01    7.906554e-01
  3.040588e+01    7.874576e-01
  3.042176e+01    7.784423e-01
  3.043763e+01    7.844590e-01
  3.045351e+01    7.850324e-01
  3.046938e+01    7.745242e-01
  3.048526e+01    7.657448e-01
  3.050113e+01    7.860433e-01
  3.051701e+01    7.827889e-01
  3.053288e+01    7.988425e-01
  3.054876e+01    8.042280e-01
  3.056464e+01    7.918435e-01
  3.058051e+01    7.832663e-01
  3.059639e+01    7.889566e-01
  3.061226e+01    7.956628e-01
  3.062814e+01    8.119822e-01
  3.064401e+01    7.999297e-01
  3.065989e+01    7.891294e-01
  3.067577e+01    7.749119e-01
  3.069164e+01    7.763961e-01
  3.070752e+01    7.893450e-01
  3.072339e+01    7.752615e-01
  3.073927e+01    7.786180e-01
  3.075514e+01    7.963770e-01
  3.077102e+01    7.856524e-01
  3.078689e+01    7.618942e-01
  3.080277e+01    7.776212e-01
  3.081865e+01    7.897742e-01
  3.083452e+01    7.784324e-01
  3.085040e+01    8.028732e-01
  3.086627e+01    7.705618e-01
  3.088215e+01    7.839687e-01
  3.089802e+01    7.754584e-01
  3.091390e+01    7.916272e-01
  3.092977e+01    7.831144e-01
  3.094565e+01    7.849822e-01
  3.096153e+01    7.918748e-01
  3.097740e+01    8.181620e-01
  3.099328e+01    7.848228e-01
  3.100915e+01    7.773141e-01
  3.102503e+01    8.001171e-01
  3.104090e+01    8.071944e-01
  3.105678e+01    7.819362e-01
  3.107265e+01    7.834538e-01
  3.108853e+01    7.891343e-01
  3.110441e+01    7.911633e-01
  3.112028e+01    7.834538e-01
  3.113616e+01    7.915608e-01
  3.115203e+01    7.716563e-01
  3.116791e+01    7.986448e-01
  3.118378e+01    8.217230e-01
  3.119966e+01    8.060189e-01
  3.121553e+01    7.916380e-01
  3.123141e+01    7.916481e-01
  3.124729e+01    7.810763e-01
  3.126316e+01    7.754280e-01
  3.127904e+01    8.156156e-01
  3.129491e+01    8.110418e-01
  3.131079e+01    8.080610e-01
  3.132666e+01    8.114411e-01
  3.134254e+01    7.979605e-01
  3.135841e+01    8.045865e-01
  3.137429e+01    7.976946e-01
  3.139017e+01    8.207492e-01
  3.140604e+01    8.478290e-01
  3.142192e+01    8.509126e-01
  3.143779e+01    8.182960e-01
  3.145367e+01    8.104892e-01
  3.146954e+01    8.153321e-01
  3.148542e+01    8.332427e-01
  3.150129e+01    8.352476e-01
  3.151717e+01    8.218312e-01
  3.153305e+01    8.227952e-01
  3.154892e+01    8.407855e-01
  3.156480e+01    8.446218e-01
  3.158067e+01    8.449131e-01
  3.159655e+01    8.886082e-01
  3.161242e+01    9.023533e-01
  3.162830e+01    9.074709e-01
  3.164418e+01    9.192182e-01
  3.166005e+01    9.486291e-01
  3.167593e+01    9.791423e-01
  3.169180e+01    9.716462e-01
  3.170768e+01    1.006747e+00
  3.172355e+01    1.034435e+00
  3.173943e+01    1.106193e+00
  3.175530e+01    1.174181e+00
  3.177118e+01    1.246999e+00
  3.178706e+01    1.348027e+00
  3.180293e+01    1.437164e+00
  3.181881e+01    1.540892e+00
  3.183468e+01    1.722632e+00
  3.185056e+01    1.845421e+00
  3.186643e+01    1.941479e+00
  3.188231e+01    2.045821e+00
  3.189818e+01    2.079874e+00
  3.191406e+01    2.087652e+00
  3.192994e+01    2.030796e+00
  3.194581e+01    1.926740e+00
  3.196169e+01    1.823248e+00
  3.197756e+01    1.724262e+00
  3.199344e+01    1.582219e+00
  3.200931e+01    1.426786e+00
  3.202519e+01    1.345931e+00
  3.204106e+01    1.239600e+00
  3.205694e+01    1.142769e+00
  3.207282e+01    1.103490e+00
  3.208869e+01    1.050536e+00
  3.210457e+01    1.035752e+00
  3.212044e+01    9.872517e-01
  3.213632e+01    9.297820e-01
  3.215219e+01    9.145489e-01
  3.216807e+01    8.895254e-01
  3.218394e+01    8.937757e-01
  3.219982e+01    8.725525e-01
  3.221570e+01    8.512599e-01
  3.223157e+01    8.502699e-01
  3.224745e+01    8.295378e-01
  3.226332e+01    8.050859e-01
  3.227920e+01    8.288803e-01
  3.229507e+01    8.200927e-01
  3.231095e+01    8.196653e-01
  3.232682e+01    8.168992e-01
  3.234270e+01    8.242739e-01
  3.235858e+01    8.069813e-01
  3.237445e+01    7.906737e-01
  3.239033e+01    7.881434e-01
  3.240620e+01    8.142943e-01
  3.242208e+01    8.177187e-01
  3.243795e+01    7.709326e-01
  3.245383e+01    7.662976e-01
  3.246970e+01    7.723496e-01
  3.248558e+01    8.165061e-01
  3.250146e+01    7.728156e-01
  3.251733e+01    7.727132e-01
  3.253321e+01    7.612650e-01
  3.254908e+01    7.610106e-01
