# == pyFAI calibration ==
# Distance Sample to Detector: 0.3999999939076516 m
# PONI: 9.750e-02, 1.135e-01 m
# Rotations: -0.000175 0.000000 -0.000000 rad
# 
# == Fit2d calibration ==
# Distance Sample-beamCenter: 400.000 mm
# Center: x=1514.000, y=1300.000 pix
# Tilt: 0.010 deg  TiltPlanRot: 0.010 deg
# 
# Detector Detector	 Spline= None	 PixelSize= 7.500e-05, 7.500e-05 m
#    Detector has a mask: False 
#    Detector has a dark current: False 
#    detector has a flat field: False 
# 
# Wavelength: 6.888e-11 m
# Mask applied: user provided
# Dark current applied: False
# Flat field applied: False
# Polarization factor: 0.99
# Normalization factor: 1.0
# --> /home/myspot/data/2024_07_Rosario/Ru-CGO-ex/2024-07-27_003_Ru-CGO-ex_Reaction_dwell_000023_data_000042.dat
#       q_nm^-1             I 
  2.003187e-02    1.424646e-01
  3.590745e-02    3.428878e-02
  5.178302e-02    2.176143e-01
  6.765859e-02    3.370628e-01
  8.353417e-02    1.553111e-01
  9.940974e-02    3.235624e-03
  1.152853e-01    5.069032e-02
  1.311609e-01    1.278702e-01
  1.470365e-01    1.045082e-01
  1.629120e-01    4.479076e-02
  1.787876e-01    2.470293e-04
  1.946632e-01    2.098279e-02
  2.105388e-01    5.367864e-02
  2.264143e-01    3.494225e-02
  2.422899e-01    4.441640e-02
  2.581655e-01    5.163352e-02
  2.740411e-01    2.391337e-02
  2.899166e-01    1.861866e-02
  3.057922e-01    2.813412e-02
  3.216678e-01    8.430205e-02
  3.375433e-01    5.757168e-02
  3.534189e-01    1.673928e-02
  3.692945e-01    1.467897e-02
  3.851701e-01    4.689493e-02
  4.010456e-01    4.251790e-02
  4.169212e-01    4.400414e-02
  4.327968e-01    4.113811e-02
  4.486724e-01    2.233800e-02
  4.645479e-01    4.813151e-02
  4.804235e-01    2.949008e-02
  4.962991e-01    4.122569e-02
  5.121747e-01    2.550158e-02
  5.280502e-01    2.923621e-02
  5.439258e-01    2.495365e-02
  5.598014e-01    1.496061e-02
  5.756770e-01    3.754517e-02
  5.915525e-01    3.285399e-02
  6.074281e-01    3.874581e-02
  6.233037e-01    3.876024e-02
  6.391793e-01    4.510758e-02
  6.550548e-01    2.388374e-02
  6.709304e-01    3.516701e-02
  6.868060e-01    5.868392e-02
  7.026815e-01    4.239073e-02
  7.185571e-01    5.682091e-02
  7.344327e-01    5.654586e-02
  7.503083e-01    4.640009e-02
  7.661838e-01    8.895755e-02
  7.820594e-01    1.117945e-01
  7.979350e-01    1.509267e-01
  8.138106e-01    1.934350e-01
  8.296861e-01    2.673470e-01
  8.455617e-01    3.437500e-01
  8.614373e-01    4.620433e-01
  8.773129e-01    4.894460e-01
  8.931884e-01    5.087159e-01
  9.090640e-01    5.961905e-01
  9.249396e-01    7.507505e-01
  9.408152e-01    8.913958e-01
  9.566907e-01    9.148871e-01
  9.725663e-01    9.321639e-01
  9.884419e-01    1.120663e+00
  1.004317e+00    1.194851e+00
  1.020193e+00    1.317094e+00
  1.036069e+00    1.398491e+00
  1.051944e+00    1.444492e+00
  1.067820e+00    1.480903e+00
  1.083695e+00    1.459526e+00
  1.099571e+00    1.527415e+00
  1.115446e+00    1.655118e+00
  1.131322e+00    1.755441e+00
  1.147198e+00    1.662844e+00
  1.163073e+00    1.615614e+00
  1.178949e+00    1.805977e+00
  1.194824e+00    1.844514e+00
  1.210700e+00    2.029906e+00
  1.226575e+00    2.244265e+00
  1.242451e+00    2.410750e+00
  1.258327e+00    2.373659e+00
  1.274202e+00    2.616794e+00
  1.290078e+00    2.785669e+00
  1.305953e+00    2.723208e+00
  1.321829e+00    2.853171e+00
  1.337705e+00    2.693540e+00
  1.353580e+00    2.727205e+00
  1.369456e+00    2.882257e+00
  1.385331e+00    2.739366e+00
  1.401207e+00    2.740755e+00
  1.417082e+00    2.922223e+00
  1.432958e+00    3.082893e+00
  1.448834e+00    2.990388e+00
  1.464709e+00    3.067439e+00
  1.480585e+00    3.178424e+00
  1.496460e+00    3.178416e+00
  1.512336e+00    3.197735e+00
  1.528211e+00    3.173692e+00
  1.544087e+00    3.149803e+00
  1.559963e+00    3.203639e+00
  1.575838e+00    3.129408e+00
  1.591714e+00    3.188111e+00
  1.607589e+00    3.225562e+00
  1.623465e+00    3.070387e+00
  1.639340e+00    3.021355e+00
  1.655216e+00    3.144055e+00
  1.671092e+00    3.204317e+00
  1.686967e+00    3.222066e+00
  1.702843e+00    2.995934e+00
  1.718718e+00    3.102208e+00
  1.734594e+00    3.120157e+00
  1.750469e+00    3.201697e+00
  1.766345e+00    3.250861e+00
  1.782221e+00    3.058065e+00
  1.798096e+00    3.060568e+00
  1.813972e+00    3.136303e+00
  1.829847e+00    3.045859e+00
  1.845723e+00    2.987572e+00
  1.861598e+00    3.112731e+00
  1.877474e+00    2.919439e+00
  1.893350e+00    3.022025e+00
  1.909225e+00    3.073171e+00
  1.925101e+00    3.023283e+00
  1.940976e+00    3.114363e+00
  1.956852e+00    3.090113e+00
  1.972727e+00    3.071789e+00
  1.988603e+00    3.098308e+00
  2.004479e+00    3.064451e+00
  2.020354e+00    3.102171e+00
  2.036230e+00    3.072961e+00
  2.052105e+00    3.161703e+00
  2.067981e+00    3.093747e+00
  2.083856e+00    3.064327e+00
  2.099732e+00    3.105631e+00
  2.115608e+00    3.144344e+00
  2.131483e+00    3.141143e+00
  2.147359e+00    3.152570e+00
  2.163234e+00    3.094458e+00
  2.179110e+00    3.181387e+00
  2.194985e+00    3.048277e+00
  2.210861e+00    2.952806e+00
  2.226737e+00    2.964573e+00
  2.242612e+00    3.019169e+00
  2.258488e+00    3.170616e+00
  2.274363e+00    3.116704e+00
  2.290239e+00    3.171125e+00
  2.306115e+00    3.126193e+00
  2.321990e+00    3.150890e+00
  2.337866e+00    3.091584e+00
  2.353741e+00    3.184085e+00
  2.369617e+00    3.098406e+00
  2.385492e+00    3.215220e+00
  2.401368e+00    3.191709e+00
  2.417244e+00    3.133252e+00
  2.433119e+00    3.183880e+00
  2.448995e+00    3.256823e+00
  2.464870e+00    3.265572e+00
  2.480746e+00    3.141381e+00
  2.496621e+00    3.149115e+00
  2.512497e+00    3.242917e+00
  2.528373e+00    3.375300e+00
  2.544248e+00    3.281791e+00
  2.560124e+00    3.217915e+00
  2.575999e+00    3.236279e+00
  2.591875e+00    3.263613e+00
  2.607750e+00    3.199233e+00
  2.623626e+00    3.236731e+00
  2.639502e+00    3.359133e+00
  2.655377e+00    3.328632e+00
  2.671253e+00    3.270058e+00
  2.687128e+00    3.338272e+00
  2.703004e+00    3.301067e+00
  2.718879e+00    3.273886e+00
  2.734755e+00    3.271068e+00
  2.750631e+00    3.190725e+00
  2.766506e+00    3.137141e+00
  2.782382e+00    3.291877e+00
  2.798257e+00    3.257263e+00
  2.814133e+00    3.266097e+00
  2.830008e+00    3.333547e+00
  2.845884e+00    3.312564e+00
  2.861760e+00    3.362930e+00
  2.877635e+00    3.347331e+00
  2.893511e+00    3.249758e+00
  2.909386e+00    3.310384e+00
  2.925262e+00    3.338901e+00
  2.941137e+00    3.293022e+00
  2.957013e+00    3.250533e+00
  2.972889e+00    3.344791e+00
  2.988764e+00    3.400847e+00
  3.004640e+00    3.396726e+00
  3.020515e+00    3.473860e+00
  3.036391e+00    3.410115e+00
  3.052266e+00    3.432074e+00
  3.068142e+00    3.445347e+00
  3.084018e+00    3.316711e+00
  3.099893e+00    3.270854e+00
  3.115769e+00    3.337122e+00
  3.131644e+00    3.424565e+00
  3.147520e+00    3.465872e+00
  3.163395e+00    3.396658e+00
  3.179271e+00    3.350535e+00
  3.195147e+00    3.296467e+00
  3.211022e+00    3.307961e+00
  3.226898e+00    3.277077e+00
  3.242773e+00    3.363758e+00
  3.258649e+00    3.445024e+00
  3.274525e+00    3.405686e+00
  3.290400e+00    3.388685e+00
  3.306276e+00    3.418738e+00
  3.322151e+00    3.496154e+00
  3.338027e+00    3.550164e+00
  3.353902e+00    3.527765e+00
  3.369778e+00    3.395473e+00
  3.385654e+00    3.321494e+00
  3.401529e+00    3.404193e+00
  3.417405e+00    3.436040e+00
  3.433280e+00    3.416741e+00
  3.449156e+00    3.341070e+00
  3.465031e+00    3.425424e+00
  3.480907e+00    3.488577e+00
  3.496783e+00    3.485988e+00
  3.512658e+00    3.472626e+00
  3.528534e+00    3.441446e+00
  3.544409e+00    3.541287e+00
  3.560285e+00    3.511645e+00
  3.576160e+00    3.388999e+00
  3.592036e+00    3.475717e+00
  3.607912e+00    3.541471e+00
  3.623787e+00    3.599950e+00
  3.639663e+00    3.496592e+00
  3.655538e+00    3.479032e+00
  3.671414e+00    3.539207e+00
  3.687289e+00    3.575505e+00
  3.703165e+00    3.554915e+00
  3.719041e+00    3.444592e+00
  3.734916e+00    3.400396e+00
  3.750792e+00    3.510800e+00
  3.766667e+00    3.496513e+00
  3.782543e+00    3.454397e+00
  3.798418e+00    3.441582e+00
  3.814294e+00    3.387078e+00
  3.830170e+00    3.514237e+00
  3.846045e+00    3.607036e+00
  3.861921e+00    3.522220e+00
  3.877796e+00    3.486976e+00
  3.893672e+00    3.471848e+00
  3.909547e+00    3.453675e+00
  3.925423e+00    3.561982e+00
  3.941299e+00    3.587137e+00
  3.957174e+00    3.498687e+00
  3.973050e+00    3.451949e+00
  3.988925e+00    3.578413e+00
  4.004801e+00    3.769192e+00
  4.020676e+00    3.658926e+00
  4.036552e+00    3.590549e+00
  4.052428e+00    3.520045e+00
  4.068303e+00    3.523270e+00
  4.084179e+00    3.566426e+00
  4.100054e+00    3.576441e+00
  4.115930e+00    3.603050e+00
  4.131806e+00    3.567502e+00
  4.147681e+00    3.558718e+00
  4.163557e+00    3.516268e+00
  4.179432e+00    3.490030e+00
  4.195308e+00    3.517626e+00
  4.211183e+00    3.624565e+00
  4.227059e+00    3.526105e+00
  4.242935e+00    3.611468e+00
  4.258810e+00    3.646816e+00
  4.274686e+00    3.578915e+00
  4.290561e+00    3.565402e+00
  4.306437e+00    3.611761e+00
  4.322312e+00    3.603765e+00
  4.338188e+00    3.630988e+00
  4.354064e+00    3.576642e+00
  4.369939e+00    3.533749e+00
  4.385815e+00    3.563980e+00
  4.401690e+00    3.595341e+00
  4.417566e+00    3.563229e+00
  4.433441e+00    3.556924e+00
  4.449317e+00    3.530099e+00
  4.465193e+00    3.547013e+00
  4.481068e+00    3.553022e+00
  4.496944e+00    3.658159e+00
  4.512819e+00    3.712074e+00
  4.528695e+00    3.588381e+00
  4.544570e+00    3.589372e+00
  4.560446e+00    3.634145e+00
  4.576322e+00    3.596808e+00
  4.592197e+00    3.615355e+00
  4.608073e+00    3.643140e+00
  4.623948e+00    3.685118e+00
  4.639824e+00    3.653867e+00
  4.655699e+00    3.644408e+00
  4.671575e+00    3.585709e+00
  4.687451e+00    3.679705e+00
  4.703326e+00    3.633313e+00
  4.719202e+00    3.571833e+00
  4.735077e+00    3.629613e+00
  4.750953e+00    3.696321e+00
  4.766828e+00    3.648463e+00
  4.782704e+00    3.627333e+00
  4.798580e+00    3.644886e+00
  4.814455e+00    3.566225e+00
  4.830331e+00    3.641146e+00
  4.846206e+00    3.658683e+00
  4.862082e+00    3.644769e+00
  4.877957e+00    3.624208e+00
  4.893833e+00    3.673795e+00
  4.909709e+00    3.760032e+00
  4.925584e+00    3.684763e+00
  4.941460e+00    3.696505e+00
  4.957335e+00    3.706830e+00
  4.973211e+00    3.619738e+00
  4.989086e+00    3.607264e+00
  5.004962e+00    3.593805e+00
  5.020838e+00    3.682757e+00
  5.036713e+00    3.697034e+00
  5.052589e+00    3.786155e+00
  5.068464e+00    3.651641e+00
  5.084340e+00    3.682036e+00
  5.100216e+00    3.723401e+00
  5.116091e+00    3.685967e+00
  5.131967e+00    3.709965e+00
  5.147842e+00    3.753300e+00
  5.163718e+00    3.776531e+00
  5.179593e+00    3.684259e+00
  5.195469e+00    3.621479e+00
  5.211345e+00    3.630480e+00
  5.227220e+00    3.687203e+00
  5.243096e+00    3.665625e+00
  5.258971e+00    3.641307e+00
  5.274847e+00    3.625024e+00
  5.290722e+00    3.686724e+00
  5.306598e+00    3.713654e+00
  5.322474e+00    3.640676e+00
  5.338349e+00    3.668644e+00
  5.354225e+00    3.699527e+00
  5.370100e+00    3.707416e+00
  5.385976e+00    3.747954e+00
  5.401851e+00    3.737622e+00
  5.417727e+00    3.642790e+00
  5.433603e+00    3.589716e+00
  5.449478e+00    3.664761e+00
  5.465354e+00    3.674776e+00
  5.481229e+00    3.678192e+00
  5.497105e+00    3.608759e+00
  5.512980e+00    3.588101e+00
  5.528856e+00    3.560188e+00
  5.544732e+00    3.680816e+00
  5.560607e+00    3.620928e+00
  5.576483e+00    3.666658e+00
  5.592358e+00    3.632665e+00
  5.608234e+00    3.609598e+00
  5.624109e+00    3.588945e+00
  5.639985e+00    3.611403e+00
  5.655861e+00    3.582595e+00
  5.671736e+00    3.604815e+00
  5.687612e+00    3.590773e+00
  5.703487e+00    3.605095e+00
  5.719363e+00    3.597733e+00
  5.735238e+00    3.580456e+00
  5.751114e+00    3.576969e+00
  5.766990e+00    3.594526e+00
  5.782865e+00    3.560660e+00
  5.798741e+00    3.571148e+00
  5.814616e+00    3.578776e+00
  5.830492e+00    3.627349e+00
  5.846367e+00    3.632231e+00
  5.862243e+00    3.694904e+00
  5.878119e+00    3.643319e+00
  5.893994e+00    3.514243e+00
  5.909870e+00    3.557122e+00
  5.925745e+00    3.556476e+00
  5.941621e+00    3.583642e+00
  5.957497e+00    3.595027e+00
  5.973372e+00    3.555265e+00
  5.989248e+00    3.608025e+00
  6.005123e+00    3.603574e+00
  6.020999e+00    3.515705e+00
  6.036874e+00    3.496933e+00
  6.052750e+00    3.569144e+00
  6.068626e+00    3.659277e+00
  6.084501e+00    3.597435e+00
  6.100377e+00    3.551209e+00
  6.116252e+00    3.649119e+00
  6.132128e+00    3.649507e+00
  6.148003e+00    3.578363e+00
  6.163879e+00    3.599008e+00
  6.179755e+00    3.553576e+00
  6.195630e+00    3.540071e+00
  6.211506e+00    3.644746e+00
  6.227381e+00    3.680798e+00
  6.243257e+00    3.559290e+00
  6.259132e+00    3.548552e+00
  6.275008e+00    3.582247e+00
  6.290884e+00    3.598305e+00
  6.306759e+00    3.492834e+00
  6.322635e+00    3.519817e+00
  6.338510e+00    3.595330e+00
  6.354386e+00    3.625737e+00
  6.370261e+00    3.779452e+00
  6.386137e+00    3.743081e+00
  6.402013e+00    3.699321e+00
  6.417888e+00    3.645761e+00
  6.433764e+00    3.585971e+00
  6.449639e+00    3.675259e+00
  6.465515e+00    3.566799e+00
  6.481390e+00    3.577118e+00
  6.497266e+00    3.607924e+00
  6.513142e+00    3.584541e+00
  6.529017e+00    3.565753e+00
  6.544893e+00    3.558496e+00
  6.560768e+00    3.634949e+00
  6.576644e+00    3.569823e+00
  6.592519e+00    3.590958e+00
  6.608395e+00    3.532638e+00
  6.624271e+00    3.533501e+00
  6.640146e+00    3.568981e+00
  6.656022e+00    3.523939e+00
  6.671897e+00    3.520724e+00
  6.687773e+00    3.579563e+00
  6.703648e+00    3.509540e+00
  6.719524e+00    3.605469e+00
  6.735400e+00    3.639508e+00
  6.751275e+00    3.526996e+00
  6.767151e+00    3.587732e+00
  6.783026e+00    3.603157e+00
  6.798902e+00    3.648098e+00
  6.814777e+00    3.601585e+00
  6.830653e+00    3.557082e+00
  6.846529e+00    3.610970e+00
  6.862404e+00    3.594686e+00
  6.878280e+00    3.483463e+00
  6.894155e+00    3.553468e+00
  6.910031e+00    3.533196e+00
  6.925907e+00    3.523774e+00
  6.941782e+00    3.528956e+00
  6.957658e+00    3.510279e+00
  6.973533e+00    3.592646e+00
  6.989409e+00    3.578457e+00
  7.005284e+00    3.566987e+00
  7.021160e+00    3.636237e+00
  7.037036e+00    3.582906e+00
  7.052911e+00    3.552689e+00
  7.068787e+00    3.555748e+00
  7.084662e+00    3.578668e+00
  7.100538e+00    3.643163e+00
  7.116413e+00    3.531466e+00
  7.132289e+00    3.456056e+00
  7.148165e+00    3.539622e+00
  7.164040e+00    3.509764e+00
  7.179916e+00    3.435876e+00
  7.195791e+00    3.515873e+00
  7.211667e+00    3.556703e+00
  7.227542e+00    3.545114e+00
  7.243418e+00    3.532419e+00
  7.259294e+00    3.538275e+00
  7.275169e+00    3.516888e+00
  7.291045e+00    3.512827e+00
  7.306920e+00    3.497415e+00
  7.322796e+00    3.473670e+00
  7.338671e+00    3.460803e+00
  7.354547e+00    3.490796e+00
  7.370423e+00    3.475773e+00
  7.386298e+00    3.462356e+00
  7.402174e+00    3.525600e+00
  7.418049e+00    3.534941e+00
  7.433925e+00    3.580099e+00
  7.449800e+00    3.547043e+00
  7.465676e+00    3.587019e+00
  7.481552e+00    3.546367e+00
  7.497427e+00    3.488531e+00
  7.513303e+00    3.461365e+00
  7.529178e+00    3.472866e+00
  7.545054e+00    3.490617e+00
  7.560929e+00    3.448360e+00
  7.576805e+00    3.443710e+00
  7.592681e+00    3.514603e+00
  7.608556e+00    3.482674e+00
  7.624432e+00    3.482290e+00
  7.640307e+00    3.487177e+00
  7.656183e+00    3.482497e+00
  7.672058e+00    3.520082e+00
  7.687934e+00    3.529722e+00
  7.703810e+00    3.503121e+00
  7.719685e+00    3.457683e+00
  7.735561e+00    3.426249e+00
  7.751436e+00    3.475384e+00
  7.767312e+00    3.508043e+00
  7.783187e+00    3.454147e+00
  7.799063e+00    3.437016e+00
  7.814939e+00    3.411412e+00
  7.830814e+00    3.508938e+00
  7.846690e+00    3.467321e+00
  7.862565e+00    3.471386e+00
  7.878441e+00    3.506681e+00
  7.894317e+00    3.431474e+00
  7.910192e+00    3.413394e+00
  7.926068e+00    3.425069e+00
  7.941943e+00    3.450803e+00
  7.957819e+00    3.459448e+00
  7.973694e+00    3.431159e+00
  7.989570e+00    3.514094e+00
  8.005446e+00    3.424505e+00
  8.021321e+00    3.419657e+00
  8.037197e+00    3.420532e+00
  8.053072e+00    3.484511e+00
  8.068948e+00    3.436821e+00
  8.084823e+00    3.444207e+00
  8.100699e+00    3.487948e+00
  8.116575e+00    3.463043e+00
  8.132450e+00    3.440338e+00
  8.148326e+00    3.448550e+00
  8.164201e+00    3.498157e+00
  8.180077e+00    3.481596e+00
  8.195952e+00    3.511172e+00
  8.211828e+00    3.540795e+00
  8.227704e+00    3.472321e+00
  8.243579e+00    3.493343e+00
  8.259455e+00    3.483048e+00
  8.275330e+00    3.422246e+00
  8.291206e+00    3.412506e+00
  8.307081e+00    3.420610e+00
  8.322957e+00    3.409431e+00
  8.338833e+00    3.461543e+00
  8.354708e+00    3.420307e+00
  8.370584e+00    3.408554e+00
  8.386459e+00    3.456984e+00
  8.402335e+00    3.373100e+00
  8.418210e+00    3.401808e+00
  8.434086e+00    3.412745e+00
  8.449962e+00    3.403467e+00
  8.465837e+00    3.403649e+00
  8.481713e+00    3.316064e+00
  8.497588e+00    3.368072e+00
  8.513464e+00    3.417022e+00
  8.529339e+00    3.398497e+00
  8.545215e+00    3.361796e+00
  8.561091e+00    3.349530e+00
  8.576966e+00    3.399707e+00
  8.592842e+00    3.291820e+00
  8.608717e+00    3.300290e+00
  8.624593e+00    3.274040e+00
  8.640468e+00    3.335751e+00
  8.656344e+00    3.377000e+00
  8.672220e+00    3.351966e+00
  8.688095e+00    3.332811e+00
  8.703971e+00    3.327855e+00
  8.719846e+00    3.346716e+00
  8.735722e+00    3.355476e+00
  8.751598e+00    3.337141e+00
  8.767473e+00    3.335026e+00
  8.783349e+00    3.351272e+00
  8.799224e+00    3.390459e+00
  8.815100e+00    3.392204e+00
  8.830975e+00    3.317618e+00
  8.846851e+00    3.350474e+00
  8.862727e+00    3.367359e+00
  8.878602e+00    3.341010e+00
  8.894478e+00    3.370865e+00
  8.910353e+00    3.418749e+00
  8.926229e+00    3.323677e+00
  8.942104e+00    3.344721e+00
  8.957980e+00    3.343210e+00
  8.973856e+00    3.304668e+00
  8.989731e+00    3.294398e+00
  9.005607e+00    3.259849e+00
  9.021482e+00    3.304703e+00
  9.037358e+00    3.326618e+00
  9.053233e+00    3.347886e+00
  9.069109e+00    3.325929e+00
  9.084985e+00    3.351134e+00
  9.100860e+00    3.304848e+00
  9.116736e+00    3.231233e+00
  9.132611e+00    3.279320e+00
  9.148487e+00    3.295609e+00
  9.164362e+00    3.287902e+00
  9.180238e+00    3.328090e+00
  9.196114e+00    3.306798e+00
  9.211989e+00    3.254413e+00
  9.227865e+00    3.276061e+00
  9.243740e+00    3.277844e+00
  9.259616e+00    3.314719e+00
  9.275491e+00    3.282751e+00
  9.291367e+00    3.253026e+00
  9.307243e+00    3.224005e+00
  9.323118e+00    3.273443e+00
  9.338994e+00    3.279147e+00
  9.354869e+00    3.327855e+00
  9.370745e+00    3.314894e+00
  9.386620e+00    3.208839e+00
  9.402496e+00    3.257282e+00
  9.418372e+00    3.260592e+00
  9.434247e+00    3.210227e+00
  9.450123e+00    3.286909e+00
  9.465998e+00    3.267663e+00
  9.481874e+00    3.277179e+00
  9.497749e+00    3.201910e+00
  9.513625e+00    3.194462e+00
  9.529501e+00    3.196544e+00
  9.545376e+00    3.269795e+00
  9.561252e+00    3.292728e+00
  9.577127e+00    3.273452e+00
  9.593003e+00    3.231469e+00
  9.608878e+00    3.200046e+00
  9.624754e+00    3.218267e+00
  9.640630e+00    3.217271e+00
  9.656505e+00    3.187018e+00
  9.672381e+00    3.256533e+00
  9.688256e+00    3.240007e+00
  9.704132e+00    3.189240e+00
  9.720008e+00    3.150206e+00
  9.735883e+00    3.198220e+00
  9.751759e+00    3.153898e+00
  9.767634e+00    3.161510e+00
  9.783510e+00    3.250088e+00
  9.799385e+00    3.200963e+00
  9.815261e+00    3.248333e+00
  9.831137e+00    3.267742e+00
  9.847012e+00    3.189944e+00
  9.862888e+00    3.146024e+00
  9.878763e+00    3.153336e+00
  9.894639e+00    3.205612e+00
  9.910514e+00    3.192353e+00
  9.926390e+00    3.146175e+00
  9.942266e+00    3.173372e+00
  9.958141e+00    3.148171e+00
  9.974017e+00    3.161136e+00
  9.989892e+00    3.170939e+00
  1.000577e+01    3.122944e+00
  1.002164e+01    3.075215e+00
  1.003752e+01    3.112958e+00
  1.005339e+01    3.136854e+00
  1.006927e+01    3.140313e+00
  1.008515e+01    3.138090e+00
  1.010102e+01    3.081302e+00
  1.011690e+01    3.077034e+00
  1.013277e+01    3.095929e+00
  1.014865e+01    3.075010e+00
  1.016452e+01    3.053436e+00
  1.018040e+01    3.077636e+00
  1.019627e+01    3.179929e+00
  1.021215e+01    3.107429e+00
  1.022803e+01    3.064332e+00
  1.024390e+01    3.074147e+00
  1.025978e+01    3.069491e+00
  1.027565e+01    3.117539e+00
  1.029153e+01    3.084972e+00
  1.030740e+01    3.030145e+00
  1.032328e+01    3.014972e+00
  1.033915e+01    3.038357e+00
  1.035503e+01    3.015404e+00
  1.037091e+01    3.044254e+00
  1.038678e+01    3.090699e+00
  1.040266e+01    3.037561e+00
  1.041853e+01    3.074137e+00
  1.043441e+01    3.053239e+00
  1.045028e+01    2.992076e+00
  1.046616e+01    2.994142e+00
  1.048204e+01    2.952693e+00
  1.049791e+01    3.019644e+00
  1.051379e+01    3.053907e+00
  1.052966e+01    3.042429e+00
  1.054554e+01    3.042970e+00
  1.056141e+01    2.985098e+00
  1.057729e+01    2.974437e+00
  1.059316e+01    3.024091e+00
  1.060904e+01    3.032165e+00
  1.062492e+01    3.011452e+00
  1.064079e+01    3.003833e+00
  1.065667e+01    3.003857e+00
  1.067254e+01    2.976779e+00
  1.068842e+01    2.978587e+00
  1.070429e+01    2.963825e+00
  1.072017e+01    2.991771e+00
  1.073604e+01    3.040151e+00
  1.075192e+01    3.000106e+00
  1.076780e+01    2.935421e+00
  1.078367e+01    2.931443e+00
  1.079955e+01    2.935993e+00
  1.081542e+01    2.974547e+00
  1.083130e+01    3.005213e+00
  1.084717e+01    2.989112e+00
  1.086305e+01    2.964964e+00
  1.087892e+01    2.993116e+00
  1.089480e+01    2.945601e+00
  1.091068e+01    2.947794e+00
  1.092655e+01    2.941857e+00
  1.094243e+01    2.909627e+00
  1.095830e+01    2.934903e+00
  1.097418e+01    2.937615e+00
  1.099005e+01    2.918240e+00
  1.100593e+01    2.933318e+00
  1.102180e+01    2.906471e+00
  1.103768e+01    2.875778e+00
  1.105356e+01    2.874988e+00
  1.106943e+01    2.917085e+00
  1.108531e+01    2.955352e+00
  1.110118e+01    2.944694e+00
  1.111706e+01    2.890335e+00
  1.113293e+01    2.869567e+00
  1.114881e+01    2.943994e+00
  1.116468e+01    2.879031e+00
  1.118056e+01    2.842681e+00
  1.119644e+01    2.852057e+00
  1.121231e+01    2.844998e+00
  1.122819e+01    2.902011e+00
  1.124406e+01    2.873194e+00
  1.125994e+01    2.851440e+00
  1.127581e+01    2.853243e+00
  1.129169e+01    2.867306e+00
  1.130756e+01    2.869168e+00
  1.132344e+01    2.855822e+00
  1.133932e+01    2.833876e+00
  1.135519e+01    2.833530e+00
  1.137107e+01    2.873719e+00
  1.138694e+01    2.898263e+00
  1.140282e+01    2.859928e+00
  1.141869e+01    2.864327e+00
  1.143457e+01    2.832013e+00
  1.145045e+01    2.798114e+00
  1.146632e+01    2.815047e+00
  1.148220e+01    2.856999e+00
  1.149807e+01    2.847227e+00
  1.151395e+01    2.810325e+00
  1.152982e+01    2.808224e+00
  1.154570e+01    2.836987e+00
  1.156157e+01    2.817223e+00
  1.157745e+01    2.791524e+00
  1.159333e+01    2.797449e+00
  1.160920e+01    2.814997e+00
  1.162508e+01    2.776399e+00
  1.164095e+01    2.770759e+00
  1.165683e+01    2.770576e+00
  1.167270e+01    2.770558e+00
  1.168858e+01    2.799731e+00
  1.170445e+01    2.750364e+00
  1.172033e+01    2.766238e+00
  1.173621e+01    2.778513e+00
  1.175208e+01    2.772533e+00
  1.176796e+01    2.758395e+00
  1.178383e+01    2.716998e+00
  1.179971e+01    2.699816e+00
  1.181558e+01    2.718355e+00
  1.183146e+01    2.771371e+00
  1.184733e+01    2.783981e+00
  1.186321e+01    2.754592e+00
  1.187909e+01    2.803466e+00
  1.189496e+01    2.772690e+00
  1.191084e+01    2.752777e+00
  1.192671e+01    2.817697e+00
  1.194259e+01    2.772855e+00
  1.195846e+01    2.734674e+00
  1.197434e+01    2.745957e+00
  1.199021e+01    2.730062e+00
  1.200609e+01    2.702355e+00
  1.202197e+01    2.729671e+00
  1.203784e+01    2.704897e+00
  1.205372e+01    2.723534e+00
  1.206959e+01    2.741676e+00
  1.208547e+01    2.730239e+00
  1.210134e+01    2.700463e+00
  1.211722e+01    2.718928e+00
  1.213309e+01    2.712481e+00
  1.214897e+01    2.725746e+00
  1.216485e+01    2.648308e+00
  1.218072e+01    2.703449e+00
  1.219660e+01    2.753751e+00
  1.221247e+01    2.729899e+00
  1.222835e+01    2.721152e+00
  1.224422e+01    2.717179e+00
  1.226010e+01    2.672684e+00
  1.227597e+01    2.654206e+00
  1.229185e+01    2.727288e+00
  1.230773e+01    2.735298e+00
  1.232360e+01    2.750439e+00
  1.233948e+01    2.702413e+00
  1.235535e+01    2.677245e+00
  1.237123e+01    2.683015e+00
  1.238710e+01    2.725142e+00
  1.240298e+01    2.701616e+00
  1.241886e+01    2.664019e+00
  1.243473e+01    2.694501e+00
  1.245061e+01    2.706000e+00
  1.246648e+01    2.688687e+00
  1.248236e+01    2.682176e+00
  1.249823e+01    2.709275e+00
  1.251411e+01    2.746993e+00
  1.252998e+01    2.762720e+00
  1.254586e+01    2.746769e+00
  1.256174e+01    2.730355e+00
  1.257761e+01    2.774066e+00
  1.259349e+01    2.751061e+00
  1.260936e+01    2.751482e+00
  1.262524e+01    2.794144e+00
  1.264111e+01    2.834976e+00
  1.265699e+01    2.822797e+00
  1.267286e+01    2.803546e+00
  1.268874e+01    2.855049e+00
  1.270462e+01    2.795085e+00
  1.272049e+01    2.815277e+00
  1.273637e+01    2.878055e+00
  1.275224e+01    2.922517e+00
  1.276812e+01    2.914512e+00
  1.278399e+01    2.968444e+00
  1.279987e+01    3.030762e+00
  1.281574e+01    3.056003e+00
  1.283162e+01    3.145163e+00
  1.284750e+01    3.215820e+00
  1.286337e+01    3.319745e+00
  1.287925e+01    3.408880e+00
  1.289512e+01    3.523564e+00
  1.291100e+01    3.657577e+00
  1.292687e+01    3.859389e+00
  1.294275e+01    4.095398e+00
  1.295862e+01    4.401405e+00
  1.297450e+01    4.808749e+00
  1.299038e+01    5.294480e+00
  1.300625e+01    6.000520e+00
  1.302213e+01    6.758792e+00
  1.303800e+01    7.670279e+00
  1.305388e+01    8.820282e+00
  1.306975e+01    1.015595e+01
  1.308563e+01    1.152020e+01
  1.310150e+01    1.276804e+01
  1.311738e+01    1.383774e+01
  1.313326e+01    1.489778e+01
  1.314913e+01    1.564350e+01
  1.316501e+01    1.636928e+01
  1.318088e+01    1.645183e+01
  1.319676e+01    1.569787e+01
  1.321263e+01    1.444107e+01
  1.322851e+01    1.256074e+01
  1.324438e+01    1.077262e+01
  1.326026e+01    9.112207e+00
  1.327614e+01    7.823675e+00
  1.329201e+01    6.831006e+00
  1.330789e+01    5.989248e+00
  1.332376e+01    5.410664e+00
  1.333964e+01    4.867885e+00
  1.335551e+01    4.469075e+00
  1.337139e+01    4.117381e+00
  1.338727e+01    3.873747e+00
  1.340314e+01    3.696987e+00
  1.341902e+01    3.540450e+00
  1.343489e+01    3.408710e+00
  1.345077e+01    3.284487e+00
  1.346664e+01    3.150103e+00
  1.348252e+01    3.045072e+00
  1.349839e+01    2.992158e+00
  1.351427e+01    2.952229e+00
  1.353015e+01    2.858557e+00
  1.354602e+01    2.811277e+00
  1.356190e+01    2.822949e+00
  1.357777e+01    2.775215e+00
  1.359365e+01    2.716182e+00
  1.360952e+01    2.689770e+00
  1.362540e+01    2.644226e+00
  1.364127e+01    2.625426e+00
  1.365715e+01    2.642969e+00
  1.367303e+01    2.658947e+00
  1.368890e+01    2.592109e+00
  1.370478e+01    2.569596e+00
  1.372065e+01    2.544874e+00
  1.373653e+01    2.530617e+00
  1.375240e+01    2.542061e+00
  1.376828e+01    2.482169e+00
  1.378415e+01    2.476183e+00
  1.380003e+01    2.500833e+00
  1.381591e+01    2.430915e+00
  1.383178e+01    2.452700e+00
  1.384766e+01    2.471974e+00
  1.386353e+01    2.422852e+00
  1.387941e+01    2.403964e+00
  1.389528e+01    2.430399e+00
  1.391116e+01    2.448123e+00
  1.392703e+01    2.446450e+00
  1.394291e+01    2.412908e+00
  1.395879e+01    2.431681e+00
  1.397466e+01    2.399974e+00
  1.399054e+01    2.407315e+00
  1.400641e+01    2.423530e+00
  1.402229e+01    2.394050e+00
  1.403816e+01    2.379035e+00
  1.405404e+01    2.341959e+00
  1.406991e+01    2.326547e+00
  1.408579e+01    2.316106e+00
  1.410167e+01    2.359839e+00
  1.411754e+01    2.376031e+00
  1.413342e+01    2.358026e+00
  1.414929e+01    2.328081e+00
  1.416517e+01    2.346427e+00
  1.418104e+01    2.306944e+00
  1.419692e+01    2.289956e+00
  1.421279e+01    2.315591e+00
  1.422867e+01    2.322337e+00
  1.424455e+01    2.284070e+00
  1.426042e+01    2.330494e+00
  1.427630e+01    2.317707e+00
  1.429217e+01    2.259949e+00
  1.430805e+01    2.286712e+00
  1.432392e+01    2.315185e+00
  1.433980e+01    2.259520e+00
  1.435568e+01    2.255922e+00
  1.437155e+01    2.265342e+00
  1.438743e+01    2.266211e+00
  1.440330e+01    2.243608e+00
  1.441918e+01    2.234212e+00
  1.443505e+01    2.252882e+00
  1.445093e+01    2.232780e+00
  1.446680e+01    2.214144e+00
  1.448268e+01    2.243154e+00
  1.449856e+01    2.214688e+00
  1.451443e+01    2.233789e+00
  1.453031e+01    2.229848e+00
  1.454618e+01    2.215231e+00
  1.456206e+01    2.213475e+00
  1.457793e+01    2.228834e+00
  1.459381e+01    2.248633e+00
  1.460968e+01    2.227015e+00
  1.462556e+01    2.203032e+00
  1.464144e+01    2.248933e+00
  1.465731e+01    2.247089e+00
  1.467319e+01    2.245489e+00
  1.468906e+01    2.214879e+00
  1.470494e+01    2.212608e+00
  1.472081e+01    2.197609e+00
  1.473669e+01    2.193130e+00
  1.475256e+01    2.234484e+00
  1.476844e+01    2.200378e+00
  1.478432e+01    2.202381e+00
  1.480019e+01    2.212051e+00
  1.481607e+01    2.200608e+00
  1.483194e+01    2.209192e+00
  1.484782e+01    2.229983e+00
  1.486369e+01    2.215654e+00
  1.487957e+01    2.204586e+00
  1.489544e+01    2.226662e+00
  1.491132e+01    2.261662e+00
  1.492720e+01    2.279314e+00
  1.494307e+01    2.322698e+00
  1.495895e+01    2.325344e+00
  1.497482e+01    2.311873e+00
  1.499070e+01    2.420531e+00
  1.500657e+01    2.493054e+00
  1.502245e+01    2.515582e+00
  1.503832e+01    2.595840e+00
  1.505420e+01    2.722916e+00
  1.507008e+01    2.827456e+00
  1.508595e+01    2.988654e+00
  1.510183e+01    3.212909e+00
  1.511770e+01    3.501566e+00
  1.513358e+01    3.848511e+00
  1.514945e+01    4.205894e+00
  1.516533e+01    4.581827e+00
  1.518120e+01    4.877080e+00
  1.519708e+01    5.184888e+00
  1.521296e+01    5.442101e+00
  1.522883e+01    5.642363e+00
  1.524471e+01    5.781079e+00
  1.526058e+01    5.846008e+00
  1.527646e+01    5.713655e+00
  1.529233e+01    5.498214e+00
  1.530821e+01    5.160009e+00
  1.532409e+01    4.740091e+00
  1.533996e+01    4.216607e+00
  1.535584e+01    3.794161e+00
  1.537171e+01    3.425427e+00
  1.538759e+01    3.179311e+00
  1.540346e+01    2.937299e+00
  1.541934e+01    2.751138e+00
  1.543521e+01    2.620871e+00
  1.545109e+01    2.479133e+00
  1.546697e+01    2.432653e+00
  1.548284e+01    2.369810e+00
  1.549872e+01    2.343184e+00
  1.551459e+01    2.276851e+00
  1.553047e+01    2.210670e+00
  1.554634e+01    2.195446e+00
  1.556222e+01    2.168111e+00
  1.557809e+01    2.150286e+00
  1.559397e+01    2.151922e+00
  1.560985e+01    2.103476e+00
  1.562572e+01    2.059163e+00
  1.564160e+01    2.039593e+00
  1.565747e+01    2.062418e+00
  1.567335e+01    2.038167e+00
  1.568922e+01    2.021952e+00
  1.570510e+01    2.018718e+00
  1.572097e+01    1.985952e+00
  1.573685e+01    1.991329e+00
  1.575273e+01    1.966997e+00
  1.576860e+01    1.955124e+00
  1.578448e+01    1.933292e+00
  1.580035e+01    1.942592e+00
  1.581623e+01    1.965758e+00
  1.583210e+01    1.917699e+00
  1.584798e+01    1.927302e+00
  1.586385e+01    1.923883e+00
  1.587973e+01    1.933810e+00
  1.589561e+01    1.897299e+00
  1.591148e+01    1.896009e+00
  1.592736e+01    1.889315e+00
  1.594323e+01    1.876929e+00
  1.595911e+01    1.885239e+00
  1.597498e+01    1.871699e+00
  1.599086e+01    1.862599e+00
  1.600673e+01    1.873040e+00
  1.602261e+01    1.867619e+00
  1.603849e+01    1.849462e+00
  1.605436e+01    1.887022e+00
  1.607024e+01    1.903018e+00
  1.608611e+01    1.887648e+00
  1.610199e+01    1.912793e+00
  1.611786e+01    1.879211e+00
  1.613374e+01    1.826138e+00
  1.614961e+01    1.824005e+00
  1.616549e+01    1.845159e+00
  1.618137e+01    1.874624e+00
  1.619724e+01    1.849318e+00
  1.621312e+01    1.858924e+00
  1.622899e+01    1.868822e+00
  1.624487e+01    1.831163e+00
  1.626074e+01    1.836390e+00
  1.627662e+01    1.834131e+00
  1.629250e+01    1.829880e+00
  1.630837e+01    1.831951e+00
  1.632425e+01    1.781685e+00
  1.634012e+01    1.795401e+00
  1.635600e+01    1.770224e+00
  1.637187e+01    1.746543e+00
  1.638775e+01    1.758821e+00
  1.640362e+01    1.756144e+00
  1.641950e+01    1.783832e+00
  1.643538e+01    1.801870e+00
  1.645125e+01    1.777437e+00
  1.646713e+01    1.786672e+00
  1.648300e+01    1.759054e+00
  1.649888e+01    1.742833e+00
  1.651475e+01    1.720636e+00
  1.653063e+01    1.720541e+00
  1.654650e+01    1.748487e+00
  1.656238e+01    1.742784e+00
  1.657826e+01    1.719079e+00
  1.659413e+01    1.755445e+00
  1.661001e+01    1.776957e+00
  1.662588e+01    1.758946e+00
  1.664176e+01    1.729385e+00
  1.665763e+01    1.751061e+00
  1.667351e+01    1.729149e+00
  1.668938e+01    1.702178e+00
  1.670526e+01    1.731243e+00
  1.672114e+01    1.740346e+00
  1.673701e+01    1.726447e+00
  1.675289e+01    1.692332e+00
  1.676876e+01    1.725415e+00
  1.678464e+01    1.717131e+00
  1.680051e+01    1.742727e+00
  1.681639e+01    1.743860e+00
  1.683226e+01    1.748954e+00
  1.684814e+01    1.727680e+00
  1.686402e+01    1.692510e+00
  1.687989e+01    1.712357e+00
  1.689577e+01    1.691147e+00
  1.691164e+01    1.710973e+00
  1.692752e+01    1.710502e+00
  1.694339e+01    1.683695e+00
  1.695927e+01    1.681328e+00
  1.697514e+01    1.650733e+00
  1.699102e+01    1.668462e+00
  1.700690e+01    1.668118e+00
  1.702277e+01    1.661269e+00
  1.703865e+01    1.666019e+00
  1.705452e+01    1.686404e+00
  1.707040e+01    1.640819e+00
  1.708627e+01    1.636217e+00
  1.710215e+01    1.639260e+00
  1.711802e+01    1.649074e+00
  1.713390e+01    1.629892e+00
  1.714978e+01    1.659754e+00
  1.716565e+01    1.671292e+00
  1.718153e+01    1.653940e+00
  1.719740e+01    1.634787e+00
  1.721328e+01    1.625607e+00
  1.722915e+01    1.653981e+00
  1.724503e+01    1.606480e+00
  1.726091e+01    1.629045e+00
  1.727678e+01    1.638611e+00
  1.729266e+01    1.658614e+00
  1.730853e+01    1.658127e+00
  1.732441e+01    1.628835e+00
  1.734028e+01    1.603724e+00
  1.735616e+01    1.601922e+00
  1.737203e+01    1.578143e+00
  1.738791e+01    1.611249e+00
  1.740379e+01    1.594559e+00
  1.741966e+01    1.605709e+00
  1.743554e+01    1.586331e+00
  1.745141e+01    1.585441e+00
  1.746729e+01    1.593664e+00
  1.748316e+01    1.608052e+00
  1.749904e+01    1.591471e+00
  1.751491e+01    1.588333e+00
  1.753079e+01    1.599485e+00
  1.754667e+01    1.579996e+00
  1.756254e+01    1.592996e+00
  1.757842e+01    1.622936e+00
  1.759429e+01    1.587644e+00
  1.761017e+01    1.561108e+00
  1.762604e+01    1.566388e+00
  1.764192e+01    1.571896e+00
  1.765779e+01    1.565732e+00
  1.767367e+01    1.551810e+00
  1.768955e+01    1.560856e+00
  1.770542e+01    1.566484e+00
  1.772130e+01    1.564445e+00
  1.773717e+01    1.569567e+00
  1.775305e+01    1.550079e+00
  1.776892e+01    1.577542e+00
  1.778480e+01    1.562065e+00
  1.780067e+01    1.527055e+00
  1.781655e+01    1.522449e+00
  1.783243e+01    1.553277e+00
  1.784830e+01    1.572168e+00
  1.786418e+01    1.533677e+00
  1.788005e+01    1.519315e+00
  1.789593e+01    1.532560e+00
  1.791180e+01    1.544231e+00
  1.792768e+01    1.529679e+00
  1.794355e+01    1.507268e+00
  1.795943e+01    1.502242e+00
  1.797531e+01    1.526647e+00
  1.799118e+01    1.524033e+00
  1.800706e+01    1.516172e+00
  1.802293e+01    1.529810e+00
  1.803881e+01    1.496624e+00
  1.805468e+01    1.489056e+00
  1.807056e+01    1.496345e+00
  1.808643e+01    1.485905e+00
  1.810231e+01    1.483848e+00
  1.811819e+01    1.498633e+00
  1.813406e+01    1.501989e+00
  1.814994e+01    1.478845e+00
  1.816581e+01    1.469868e+00
  1.818169e+01    1.495560e+00
  1.819756e+01    1.486499e+00
  1.821344e+01    1.489449e+00
  1.822932e+01    1.505787e+00
  1.824519e+01    1.471002e+00
  1.826107e+01    1.472449e+00
  1.827694e+01    1.505596e+00
  1.829282e+01    1.483510e+00
  1.830869e+01    1.486126e+00
  1.832457e+01    1.487762e+00
  1.834044e+01    1.457823e+00
  1.835632e+01    1.473930e+00
  1.837220e+01    1.476710e+00
  1.838807e+01    1.493582e+00
  1.840395e+01    1.469803e+00
  1.841982e+01    1.465536e+00
  1.843570e+01    1.477351e+00
  1.845157e+01    1.473116e+00
  1.846745e+01    1.448983e+00
  1.848332e+01    1.447541e+00
  1.849920e+01    1.454784e+00
  1.851508e+01    1.443210e+00
  1.853095e+01    1.441734e+00
  1.854683e+01    1.432865e+00
  1.856270e+01    1.439816e+00
  1.857858e+01    1.466013e+00
  1.859445e+01    1.461904e+00
  1.861033e+01    1.456508e+00
  1.862620e+01    1.441974e+00
  1.864208e+01    1.434404e+00
  1.865796e+01    1.415422e+00
  1.867383e+01    1.455139e+00
  1.868971e+01    1.442446e+00
  1.870558e+01    1.429056e+00
  1.872146e+01    1.405111e+00
  1.873733e+01    1.403558e+00
  1.875321e+01    1.407014e+00
  1.876908e+01    1.415510e+00
  1.878496e+01    1.421508e+00
  1.880084e+01    1.435643e+00
  1.881671e+01    1.437810e+00
  1.883259e+01    1.441008e+00
  1.884846e+01    1.425133e+00
  1.886434e+01    1.407478e+00
  1.888021e+01    1.409955e+00
  1.889609e+01    1.425902e+00
  1.891196e+01    1.419457e+00
  1.892784e+01    1.423031e+00
  1.894372e+01    1.410569e+00
  1.895959e+01    1.414615e+00
  1.897547e+01    1.419530e+00
  1.899134e+01    1.422436e+00
  1.900722e+01    1.396856e+00
  1.902309e+01    1.394097e+00
  1.903897e+01    1.400663e+00
  1.905484e+01    1.377510e+00
  1.907072e+01    1.385669e+00
  1.908660e+01    1.383648e+00
  1.910247e+01    1.366561e+00
  1.911835e+01    1.386409e+00
  1.913422e+01    1.391891e+00
  1.915010e+01    1.376579e+00
  1.916597e+01    1.371985e+00
  1.918185e+01    1.378127e+00
  1.919773e+01    1.365116e+00
  1.921360e+01    1.356705e+00
  1.922948e+01    1.355739e+00
  1.924535e+01    1.362856e+00
  1.926123e+01    1.364677e+00
  1.927710e+01    1.402797e+00
  1.929298e+01    1.366222e+00
  1.930885e+01    1.385259e+00
  1.932473e+01    1.353511e+00
  1.934061e+01    1.326526e+00
  1.935648e+01    1.359211e+00
  1.937236e+01    1.350840e+00
  1.938823e+01    1.365482e+00
  1.940411e+01    1.362971e+00
  1.941998e+01    1.370040e+00
  1.943586e+01    1.355672e+00
  1.945173e+01    1.344889e+00
  1.946761e+01    1.349423e+00
  1.948349e+01    1.341310e+00
  1.949936e+01    1.358161e+00
  1.951524e+01    1.344670e+00
  1.953111e+01    1.336102e+00
  1.954699e+01    1.336874e+00
  1.956286e+01    1.333187e+00
  1.957874e+01    1.340623e+00
  1.959461e+01    1.352553e+00
  1.961049e+01    1.320657e+00
  1.962637e+01    1.324521e+00
  1.964224e+01    1.323027e+00
  1.965812e+01    1.315588e+00
  1.967399e+01    1.294437e+00
  1.968987e+01    1.302343e+00
  1.970574e+01    1.310678e+00
  1.972162e+01    1.315058e+00
  1.973749e+01    1.317528e+00
  1.975337e+01    1.287572e+00
  1.976925e+01    1.324819e+00
  1.978512e+01    1.347875e+00
  1.980100e+01    1.321812e+00
  1.981687e+01    1.311417e+00
  1.983275e+01    1.297908e+00
  1.984862e+01    1.308846e+00
  1.986450e+01    1.313325e+00
  1.988037e+01    1.335158e+00
  1.989625e+01    1.314066e+00
  1.991213e+01    1.320710e+00
  1.992800e+01    1.304541e+00
  1.994388e+01    1.295962e+00
  1.995975e+01    1.281505e+00
  1.997563e+01    1.275371e+00
  1.999150e+01    1.287322e+00
  2.000738e+01    1.271206e+00
  2.002325e+01    1.267643e+00
  2.003913e+01    1.283886e+00
  2.005501e+01    1.292163e+00
  2.007088e+01    1.278781e+00
  2.008676e+01    1.272077e+00
  2.010263e+01    1.256423e+00
  2.011851e+01    1.255931e+00
  2.013438e+01    1.277694e+00
  2.015026e+01    1.289221e+00
  2.016614e+01    1.273113e+00
  2.018201e+01    1.265985e+00
  2.019789e+01    1.302630e+00
  2.021376e+01    1.266471e+00
  2.022964e+01    1.272450e+00
  2.024551e+01    1.253461e+00
  2.026139e+01    1.274374e+00
  2.027726e+01    1.272597e+00
  2.029314e+01    1.287647e+00
  2.030902e+01    1.261588e+00
  2.032489e+01    1.249277e+00
  2.034077e+01    1.253414e+00
  2.035664e+01    1.249957e+00
  2.037252e+01    1.239467e+00
  2.038839e+01    1.271501e+00
  2.040427e+01    1.258829e+00
  2.042014e+01    1.272683e+00
  2.043602e+01    1.265195e+00
  2.045190e+01    1.264489e+00
  2.046777e+01    1.256796e+00
  2.048365e+01    1.264245e+00
  2.049952e+01    1.220426e+00
  2.051540e+01    1.222661e+00
  2.053127e+01    1.243848e+00
  2.054715e+01    1.248557e+00
  2.056302e+01    1.266916e+00
  2.057890e+01    1.251038e+00
  2.059478e+01    1.238125e+00
  2.061065e+01    1.242245e+00
  2.062653e+01    1.264495e+00
  2.064240e+01    1.245206e+00
  2.065828e+01    1.245774e+00
  2.067415e+01    1.224497e+00
  2.069003e+01    1.237335e+00
  2.070590e+01    1.254015e+00
  2.072178e+01    1.249817e+00
  2.073766e+01    1.235811e+00
  2.075353e+01    1.218363e+00
  2.076941e+01    1.235515e+00
  2.078528e+01    1.225233e+00
  2.080116e+01    1.235769e+00
  2.081703e+01    1.229257e+00
  2.083291e+01    1.237942e+00
  2.084878e+01    1.234182e+00
  2.086466e+01    1.215347e+00
  2.088054e+01    1.239691e+00
  2.089641e+01    1.250474e+00
  2.091229e+01    1.231772e+00
  2.092816e+01    1.235070e+00
  2.094404e+01    1.244262e+00
  2.095991e+01    1.235379e+00
  2.097579e+01    1.216079e+00
  2.099166e+01    1.217870e+00
  2.100754e+01    1.224568e+00
  2.102342e+01    1.210565e+00
  2.103929e+01    1.216806e+00
  2.105517e+01    1.194750e+00
  2.107104e+01    1.216956e+00
  2.108692e+01    1.232891e+00
  2.110279e+01    1.239892e+00
  2.111867e+01    1.225599e+00
  2.113455e+01    1.238691e+00
  2.115042e+01    1.232410e+00
  2.116630e+01    1.234263e+00
  2.118217e+01    1.245073e+00
  2.119805e+01    1.241331e+00
  2.121392e+01    1.237261e+00
  2.122980e+01    1.242852e+00
  2.124567e+01    1.236414e+00
  2.126155e+01    1.245877e+00
  2.127743e+01    1.263149e+00
  2.129330e+01    1.269191e+00
  2.130918e+01    1.251987e+00
  2.132505e+01    1.295890e+00
  2.134093e+01    1.280852e+00
  2.135680e+01    1.297656e+00
  2.137268e+01    1.309245e+00
  2.138855e+01    1.327062e+00
  2.140443e+01    1.321003e+00
  2.142031e+01    1.327397e+00
  2.143618e+01    1.339585e+00
  2.145206e+01    1.376793e+00
  2.146793e+01    1.412861e+00
  2.148381e+01    1.394303e+00
  2.149968e+01    1.418153e+00
  2.151556e+01    1.456131e+00
  2.153143e+01    1.490892e+00
  2.154731e+01    1.538648e+00
  2.156319e+01    1.556466e+00
  2.157906e+01    1.596697e+00
  2.159494e+01    1.697327e+00
  2.161081e+01    1.809609e+00
  2.162669e+01    1.861147e+00
  2.164256e+01    1.973173e+00
  2.165844e+01    2.126158e+00
  2.167431e+01    2.275573e+00
  2.169019e+01    2.544456e+00
  2.170607e+01    2.805382e+00
  2.172194e+01    3.100121e+00
  2.173782e+01    3.503177e+00
  2.175369e+01    4.025488e+00
  2.176957e+01    4.628602e+00
  2.178544e+01    5.226622e+00
  2.180132e+01    5.867975e+00
  2.181719e+01    6.491285e+00
  2.183307e+01    7.174386e+00
  2.184895e+01    7.863422e+00
  2.186482e+01    8.409342e+00
  2.188070e+01    8.805681e+00
  2.189657e+01    8.958126e+00
  2.191245e+01    8.818249e+00
  2.192832e+01    8.292205e+00
  2.194420e+01    7.508309e+00
  2.196007e+01    6.651823e+00
  2.197595e+01    5.733322e+00
  2.199183e+01    4.865695e+00
  2.200770e+01    4.187488e+00
  2.202358e+01    3.653974e+00
  2.203945e+01    3.192366e+00
  2.205533e+01    2.837848e+00
  2.207120e+01    2.554481e+00
  2.208708e+01    2.351605e+00
  2.210296e+01    2.179854e+00
  2.211883e+01    2.020730e+00
  2.213471e+01    1.895440e+00
  2.215058e+01    1.800030e+00
  2.216646e+01    1.732140e+00
  2.218233e+01    1.649940e+00
  2.219821e+01    1.576818e+00
  2.221408e+01    1.509427e+00
  2.222996e+01    1.446164e+00
  2.224584e+01    1.407217e+00
  2.226171e+01    1.397612e+00
  2.227759e+01    1.389345e+00
  2.229346e+01    1.345530e+00
  2.230934e+01    1.319197e+00
  2.232521e+01    1.274126e+00
  2.234109e+01    1.257509e+00
  2.235696e+01    1.233733e+00
  2.237284e+01    1.233539e+00
  2.238872e+01    1.234344e+00
  2.240459e+01    1.202276e+00
  2.242047e+01    1.189516e+00
  2.243634e+01    1.173993e+00
  2.245222e+01    1.184386e+00
  2.246809e+01    1.183783e+00
  2.248397e+01    1.154691e+00
  2.249984e+01    1.147820e+00
  2.251572e+01    1.142381e+00
  2.253160e+01    1.127398e+00
  2.254747e+01    1.129013e+00
  2.256335e+01    1.136902e+00
  2.257922e+01    1.124539e+00
  2.259510e+01    1.097431e+00
  2.261097e+01    1.096833e+00
  2.262685e+01    1.080216e+00
  2.264272e+01    1.104878e+00
  2.265860e+01    1.120326e+00
  2.267448e+01    1.091867e+00
  2.269035e+01    1.092109e+00
  2.270623e+01    1.093867e+00
  2.272210e+01    1.083307e+00
  2.273798e+01    1.104274e+00
  2.275385e+01    1.090499e+00
  2.276973e+01    1.084924e+00
  2.278560e+01    1.089034e+00
  2.280148e+01    1.073252e+00
  2.281736e+01    1.053501e+00
  2.283323e+01    1.063084e+00
  2.284911e+01    1.077868e+00
  2.286498e+01    1.045939e+00
  2.288086e+01    1.037622e+00
  2.289673e+01    1.041981e+00
  2.291261e+01    1.031106e+00
  2.292848e+01    1.042059e+00
  2.294436e+01    1.031039e+00
  2.296024e+01    1.028995e+00
  2.297611e+01    1.034978e+00
  2.299199e+01    1.036836e+00
  2.300786e+01    1.028112e+00
  2.302374e+01    1.016555e+00
  2.303961e+01    1.002062e+00
  2.305549e+01    1.008036e+00
  2.307137e+01    9.940326e-01
  2.308724e+01    1.009833e+00
  2.310312e+01    9.897424e-01
  2.311899e+01    9.861909e-01
  2.313487e+01    9.963129e-01
  2.315074e+01    1.027756e+00
  2.316662e+01    1.015948e+00
  2.318249e+01    9.929052e-01
  2.319837e+01    9.914370e-01
  2.321425e+01    1.011579e+00
  2.323012e+01    1.017501e+00
  2.324600e+01    9.899930e-01
  2.326187e+01    1.006802e+00
  2.327775e+01    9.877512e-01
  2.329362e+01    9.842490e-01
  2.330950e+01    9.946560e-01
  2.332537e+01    9.843149e-01
  2.334125e+01    9.719940e-01
  2.335713e+01    9.664621e-01
  2.337300e+01    9.882493e-01
  2.338888e+01    1.004309e+00
  2.340475e+01    9.876043e-01
  2.342063e+01    9.662853e-01
  2.343650e+01    9.813881e-01
  2.345238e+01    9.729612e-01
  2.346825e+01    9.819012e-01
  2.348413e+01    9.677978e-01
  2.350001e+01    9.403931e-01
  2.351588e+01    9.512239e-01
  2.353176e+01    9.647653e-01
  2.354763e+01    9.640914e-01
  2.356351e+01    9.623381e-01
  2.357938e+01    9.538966e-01
  2.359526e+01    9.693998e-01
  2.361113e+01    9.727941e-01
  2.362701e+01    9.758396e-01
  2.364289e+01    9.685898e-01
  2.365876e+01    9.740533e-01
  2.367464e+01    9.507723e-01
  2.369051e+01    9.352292e-01
  2.370639e+01    9.623854e-01
  2.372226e+01    9.626688e-01
  2.373814e+01    9.158927e-01
  2.375401e+01    9.323342e-01
  2.376989e+01    9.362639e-01
  2.378577e+01    9.064437e-01
  2.380164e+01    9.231695e-01
  2.381752e+01    9.193440e-01
  2.383339e+01    9.275286e-01
  2.384927e+01    9.247602e-01
  2.386514e+01    9.185982e-01
  2.388102e+01    9.229262e-01
  2.389689e+01    9.086960e-01
  2.391277e+01    9.154632e-01
  2.392865e+01    9.064163e-01
  2.394452e+01    9.068643e-01
  2.396040e+01    9.108709e-01
  2.397627e+01    9.280087e-01
  2.399215e+01    9.087027e-01
  2.400802e+01    9.036860e-01
  2.402390e+01    8.940316e-01
  2.403978e+01    9.096044e-01
  2.405565e+01    9.173354e-01
  2.407153e+01    9.076620e-01
  2.408740e+01    8.967826e-01
  2.410328e+01    8.876430e-01
  2.411915e+01    8.889503e-01
  2.413503e+01    8.792033e-01
  2.415090e+01    8.777378e-01
  2.416678e+01    8.676132e-01
  2.418266e+01    8.771881e-01
  2.419853e+01    8.836364e-01
  2.421441e+01    8.743926e-01
  2.423028e+01    8.715629e-01
  2.424616e+01    9.067708e-01
  2.426203e+01    9.007165e-01
  2.427791e+01    9.069989e-01
  2.429378e+01    9.120566e-01
  2.430966e+01    8.891484e-01
  2.432554e+01    8.881341e-01
  2.434141e+01    8.945104e-01
  2.435729e+01    8.917742e-01
  2.437316e+01    8.888879e-01
  2.438904e+01    8.893613e-01
  2.440491e+01    8.904220e-01
  2.442079e+01    8.908044e-01
  2.443666e+01    8.980719e-01
  2.445254e+01    8.858717e-01
  2.446842e+01    9.139601e-01
  2.448429e+01    9.072636e-01
  2.450017e+01    9.212304e-01
  2.451604e+01    8.845562e-01
  2.453192e+01    8.872882e-01
  2.454779e+01    9.036235e-01
  2.456367e+01    9.038209e-01
  2.457954e+01    9.043431e-01
  2.459542e+01    8.872826e-01
  2.461130e+01    8.838580e-01
  2.462717e+01    8.937884e-01
  2.464305e+01    9.090179e-01
  2.465892e+01    9.033851e-01
  2.467480e+01    8.976479e-01
  2.469067e+01    8.919412e-01
  2.470655e+01    9.138840e-01
  2.472242e+01    8.812305e-01
  2.473830e+01    9.006523e-01
  2.475418e+01    9.105504e-01
  2.477005e+01    8.901443e-01
  2.478593e+01    8.905923e-01
  2.480180e+01    8.772662e-01
  2.481768e+01    8.734579e-01
  2.483355e+01    8.891411e-01
  2.484943e+01    9.011524e-01
  2.486530e+01    9.076862e-01
  2.488118e+01    8.988727e-01
  2.489706e+01    8.882599e-01
  2.491293e+01    8.890487e-01
  2.492881e+01    8.850416e-01
  2.494468e+01    8.955358e-01
  2.496056e+01    9.109302e-01
  2.497643e+01    9.027777e-01
  2.499231e+01    9.006084e-01
  2.500819e+01    9.121538e-01
  2.502406e+01    9.166695e-01
  2.503994e+01    8.965629e-01
  2.505581e+01    9.084150e-01
  2.507169e+01    8.992534e-01
  2.508756e+01    9.188914e-01
  2.510344e+01    9.049822e-01
  2.511931e+01    9.006895e-01
  2.513519e+01    9.123796e-01
  2.515107e+01    9.259527e-01
  2.516694e+01    9.318184e-01
  2.518282e+01    9.375167e-01
  2.519869e+01    9.355457e-01
  2.521457e+01    9.274125e-01
  2.523044e+01    9.275650e-01
  2.524632e+01    9.430827e-01
  2.526219e+01    9.474073e-01
  2.527807e+01    9.677083e-01
  2.529395e+01    9.625502e-01
  2.530982e+01    9.518445e-01
  2.532570e+01    9.572207e-01
  2.534157e+01    9.784097e-01
  2.535745e+01    9.911443e-01
  2.537332e+01    9.757652e-01
  2.538920e+01    1.000296e+00
  2.540507e+01    1.011323e+00
  2.542095e+01    9.803932e-01
  2.543683e+01    1.007363e+00
  2.545270e+01    1.043456e+00
  2.546858e+01    1.019910e+00
  2.548445e+01    1.033575e+00
  2.550033e+01    1.072215e+00
  2.551620e+01    1.072848e+00
  2.553208e+01    1.104876e+00
  2.554795e+01    1.153113e+00
  2.556383e+01    1.148220e+00
  2.557971e+01    1.172612e+00
  2.559558e+01    1.189889e+00
  2.561146e+01    1.232133e+00
  2.562733e+01    1.274622e+00
  2.564321e+01    1.302163e+00
  2.565908e+01    1.344474e+00
  2.567496e+01    1.413135e+00
  2.569083e+01    1.493816e+00
  2.570671e+01    1.590189e+00
  2.572259e+01    1.680689e+00
  2.573846e+01    1.837167e+00
  2.575434e+01    1.988790e+00
  2.577021e+01    2.221337e+00
  2.578609e+01    2.506083e+00
  2.580196e+01    2.782686e+00
  2.581784e+01    3.169929e+00
  2.583371e+01    3.665449e+00
  2.584959e+01    4.134470e+00
  2.586547e+01    4.664554e+00
  2.588134e+01    5.240478e+00
  2.589722e+01    5.882401e+00
  2.591309e+01    6.406936e+00
  2.592897e+01    6.832796e+00
  2.594484e+01    7.076467e+00
  2.596072e+01    7.138659e+00
  2.597660e+01    7.044897e+00
  2.599247e+01    6.582506e+00
  2.600835e+01    6.044962e+00
  2.602422e+01    5.331200e+00
  2.604010e+01    4.658565e+00
  2.605597e+01    4.027009e+00
  2.607185e+01    3.489500e+00
  2.608772e+01    3.012609e+00
  2.610360e+01    2.654914e+00
  2.611948e+01    2.378522e+00
  2.613535e+01    2.144133e+00
  2.615123e+01    1.987983e+00
  2.616710e+01    1.803868e+00
  2.618298e+01    1.682891e+00
  2.619885e+01    1.569649e+00
  2.621473e+01    1.484942e+00
  2.623060e+01    1.411543e+00
  2.624648e+01    1.353504e+00
  2.626236e+01    1.294678e+00
  2.627823e+01    1.236577e+00
  2.629411e+01    1.210030e+00
  2.630998e+01    1.199915e+00
  2.632586e+01    1.171084e+00
  2.634173e+01    1.136129e+00
  2.635761e+01    1.115305e+00
  2.637348e+01    1.068117e+00
  2.638936e+01    1.044149e+00
  2.640524e+01    1.074061e+00
  2.642111e+01    1.064833e+00
  2.643699e+01    1.055336e+00
  2.645286e+01    1.063011e+00
  2.646874e+01    1.044466e+00
  2.648461e+01    1.013172e+00
  2.650049e+01    1.006904e+00
  2.651636e+01    9.961088e-01
  2.653224e+01    9.947971e-01
  2.654812e+01    1.010568e+00
  2.656399e+01    9.828912e-01
  2.657987e+01    9.957411e-01
  2.659574e+01    9.906297e-01
  2.661162e+01    9.858888e-01
  2.662749e+01    9.693589e-01
  2.664337e+01    9.863645e-01
  2.665924e+01    9.613678e-01
  2.667512e+01    9.970421e-01
  2.669100e+01    9.936229e-01
  2.670687e+01    9.692776e-01
  2.672275e+01    9.570838e-01
  2.673862e+01    9.756571e-01
  2.675450e+01    9.811999e-01
  2.677037e+01    9.781806e-01
  2.678625e+01    9.812605e-01
  2.680212e+01    9.678392e-01
  2.681800e+01    9.749776e-01
  2.683388e+01    9.974235e-01
  2.684975e+01    9.945325e-01
  2.686563e+01    9.786183e-01
  2.688150e+01    1.005835e+00
  2.689738e+01    1.023348e+00
  2.691325e+01    1.034879e+00
  2.692913e+01    1.022007e+00
  2.694501e+01    1.046039e+00
  2.696088e+01    1.049697e+00
  2.697676e+01    1.065379e+00
  2.699263e+01    1.074716e+00
  2.700851e+01    1.104304e+00
  2.702438e+01    1.166659e+00
  2.704026e+01    1.215385e+00
  2.705613e+01    1.279913e+00
  2.707201e+01    1.316217e+00
  2.708789e+01    1.392082e+00
  2.710376e+01    1.476972e+00
  2.711964e+01    1.597082e+00
  2.713551e+01    1.713201e+00
  2.715139e+01    1.840916e+00
  2.716726e+01    1.972735e+00
  2.718314e+01    2.107440e+00
  2.719901e+01    2.169568e+00
  2.721489e+01    2.190027e+00
  2.723077e+01    2.142067e+00
  2.724664e+01    2.058468e+00
  2.726252e+01    1.975572e+00
  2.727839e+01    1.824845e+00
  2.729427e+01    1.705189e+00
  2.731014e+01    1.590389e+00
  2.732602e+01    1.450851e+00
  2.734189e+01    1.376066e+00
  2.735777e+01    1.282746e+00
  2.737365e+01    1.227843e+00
  2.738952e+01    1.167735e+00
  2.740540e+01    1.134278e+00
  2.742127e+01    1.109372e+00
  2.743715e+01    1.064314e+00
  2.745302e+01    1.044685e+00
  2.746890e+01    1.028360e+00
  2.748477e+01    1.008151e+00
  2.750065e+01    9.899743e-01
  2.751653e+01    9.675099e-01
  2.753240e+01    9.669315e-01
  2.754828e+01    9.795269e-01
  2.756415e+01    9.472421e-01
  2.758003e+01    9.297981e-01
  2.759590e+01    9.440646e-01
  2.761178e+01    9.222044e-01
  2.762765e+01    9.145910e-01
  2.764353e+01    9.085071e-01
  2.765941e+01    9.038371e-01
  2.767528e+01    9.063645e-01
  2.769116e+01    9.393635e-01
  2.770703e+01    9.011598e-01
  2.772291e+01    9.092216e-01
  2.773878e+01    9.071582e-01
  2.775466e+01    9.188527e-01
  2.777054e+01    8.972846e-01
  2.778641e+01    8.821272e-01
  2.780229e+01    8.973114e-01
  2.781816e+01    8.915786e-01
  2.783404e+01    9.062731e-01
  2.784991e+01    8.742363e-01
  2.786579e+01    8.553314e-01
  2.788166e+01    8.768614e-01
  2.789754e+01    8.609490e-01
  2.791342e+01    8.969255e-01
  2.792929e+01    9.023548e-01
  2.794517e+01    8.773786e-01
  2.796104e+01    8.783560e-01
  2.797692e+01    8.856488e-01
  2.799279e+01    8.769920e-01
  2.800867e+01    8.672077e-01
  2.802454e+01    8.805459e-01
  2.804042e+01    8.698909e-01
  2.805630e+01    8.883216e-01
  2.807217e+01    8.714478e-01
  2.808805e+01    8.533627e-01
  2.810392e+01    8.718297e-01
  2.811980e+01    8.631296e-01
  2.813567e+01    8.656975e-01
  2.815155e+01    8.739343e-01
  2.816742e+01    8.541570e-01
  2.818330e+01    8.563976e-01
  2.819918e+01    8.644689e-01
  2.821505e+01    8.709653e-01
  2.823093e+01    8.510299e-01
  2.824680e+01    8.312660e-01
  2.826268e+01    8.498958e-01
  2.827855e+01    8.615225e-01
  2.829443e+01    8.590714e-01
  2.831030e+01    8.526379e-01
  2.832618e+01    8.361359e-01
  2.834206e+01    8.399127e-01
  2.835793e+01    8.617150e-01
  2.837381e+01    8.601549e-01
  2.838968e+01    8.712878e-01
  2.840556e+01    8.676350e-01
  2.842143e+01    8.631803e-01
  2.843731e+01    8.471368e-01
  2.845318e+01    8.449134e-01
  2.846906e+01    8.338394e-01
  2.848494e+01    8.251487e-01
  2.850081e+01    8.443489e-01
  2.851669e+01    8.566475e-01
  2.853256e+01    8.394683e-01
  2.854844e+01    8.219793e-01
  2.856431e+01    8.321211e-01
  2.858019e+01    8.386015e-01
  2.859606e+01    8.385866e-01
  2.861194e+01    8.410928e-01
  2.862782e+01    8.579994e-01
  2.864369e+01    8.521217e-01
  2.865957e+01    8.319012e-01
  2.867544e+01    8.291653e-01
  2.869132e+01    8.324169e-01
  2.870719e+01    8.421717e-01
  2.872307e+01    8.366601e-01
  2.873895e+01    8.345051e-01
  2.875482e+01    8.086601e-01
  2.877070e+01    8.006756e-01
  2.878657e+01    8.098022e-01
  2.880245e+01    8.337722e-01
  2.881832e+01    8.503304e-01
  2.883420e+01    8.398282e-01
  2.885007e+01    8.210240e-01
  2.886595e+01    8.196405e-01
  2.888183e+01    8.092936e-01
  2.889770e+01    8.045480e-01
  2.891358e+01    8.209726e-01
  2.892945e+01    8.348674e-01
  2.894533e+01    8.336478e-01
  2.896120e+01    8.319996e-01
  2.897708e+01    8.217452e-01
  2.899295e+01    8.341122e-01
  2.900883e+01    8.271726e-01
  2.902471e+01    8.150218e-01
  2.904058e+01    8.044394e-01
  2.905646e+01    8.208353e-01
  2.907233e+01    8.143919e-01
  2.908821e+01    8.258384e-01
  2.910408e+01    8.255504e-01
  2.911996e+01    8.129450e-01
  2.913583e+01    8.250852e-01
  2.915171e+01    8.145047e-01
  2.916759e+01    8.125034e-01
  2.918346e+01    8.255946e-01
  2.919934e+01    8.102291e-01
  2.921521e+01    8.058483e-01
  2.923109e+01    8.099419e-01
  2.924696e+01    8.052014e-01
  2.926284e+01    8.211185e-01
  2.927871e+01    8.259640e-01
  2.929459e+01    8.202234e-01
  2.931047e+01    8.270192e-01
  2.932634e+01    8.387891e-01
  2.934222e+01    8.157477e-01
  2.935809e+01    8.094292e-01
  2.937397e+01    8.055162e-01
  2.938984e+01    8.066956e-01
  2.940572e+01    8.122891e-01
  2.942159e+01    7.977105e-01
  2.943747e+01    7.858015e-01
  2.945335e+01    8.075975e-01
  2.946922e+01    8.290284e-01
  2.948510e+01    8.254712e-01
  2.950097e+01    7.944326e-01
  2.951685e+01    7.864943e-01
  2.953272e+01    8.124391e-01
  2.954860e+01    8.330979e-01
  2.956447e+01    8.183665e-01
  2.958035e+01    8.303336e-01
  2.959623e+01    8.203940e-01
  2.961210e+01    8.201374e-01
  2.962798e+01    8.156105e-01
  2.964385e+01    8.108103e-01
  2.965973e+01    8.000482e-01
  2.967560e+01    8.170834e-01
  2.969148e+01    8.003994e-01
  2.970736e+01    7.938414e-01
  2.972323e+01    8.201159e-01
  2.973911e+01    8.004819e-01
  2.975498e+01    8.187276e-01
  2.977086e+01    8.010761e-01
  2.978673e+01    8.023494e-01
  2.980261e+01    8.117646e-01
  2.981848e+01    7.983789e-01
  2.983436e+01    7.922224e-01
  2.985024e+01    8.008191e-01
  2.986611e+01    7.887684e-01
  2.988199e+01    7.848849e-01
  2.989786e+01    7.972038e-01
  2.991374e+01    7.990093e-01
  2.992961e+01    7.895492e-01
  2.994549e+01    7.965436e-01
  2.996136e+01    7.845065e-01
  2.997724e+01    7.916945e-01
  2.999312e+01    8.276199e-01
  3.000899e+01    8.151252e-01
  3.002487e+01    8.140507e-01
  3.004074e+01    8.067107e-01
  3.005662e+01    8.117326e-01
  3.007249e+01    8.081950e-01
  3.008837e+01    7.982801e-01
  3.010424e+01    8.051676e-01
  3.012012e+01    8.188072e-01
  3.013600e+01    8.292097e-01
  3.015187e+01    8.028335e-01
  3.016775e+01    7.868248e-01
  3.018362e+01    7.985867e-01
  3.019950e+01    7.935708e-01
  3.021537e+01    7.858735e-01
  3.023125e+01    7.792975e-01
  3.024712e+01    7.932689e-01
  3.026300e+01    7.988815e-01
  3.027888e+01    7.958353e-01
  3.029475e+01    7.742851e-01
  3.031063e+01    7.916496e-01
  3.032650e+01    8.068228e-01
  3.034238e+01    8.042637e-01
  3.035825e+01    7.893234e-01
  3.037413e+01    7.959890e-01
  3.039000e+01    8.084171e-01
  3.040588e+01    7.774261e-01
  3.042176e+01    7.891891e-01
  3.043763e+01    8.144368e-01
  3.045351e+01    8.087181e-01
  3.046938e+01    7.860456e-01
  3.048526e+01    8.014759e-01
  3.050113e+01    7.874587e-01
  3.051701e+01    7.867817e-01
  3.053288e+01    7.749103e-01
  3.054876e+01    7.820015e-01
  3.056464e+01    7.918614e-01
  3.058051e+01    7.885220e-01
  3.059639e+01    8.194488e-01
  3.061226e+01    7.939358e-01
  3.062814e+01    7.984520e-01
  3.064401e+01    7.848083e-01
  3.065989e+01    7.722861e-01
  3.067577e+01    7.848096e-01
  3.069164e+01    7.784891e-01
  3.070752e+01    7.703303e-01
  3.072339e+01    7.900519e-01
  3.073927e+01    8.068818e-01
  3.075514e+01    7.977891e-01
  3.077102e+01    7.656575e-01
  3.078689e+01    7.692193e-01
  3.080277e+01    7.800104e-01
  3.081865e+01    7.937379e-01
  3.083452e+01    7.989538e-01
  3.085040e+01    7.731996e-01
  3.086627e+01    7.693217e-01
  3.088215e+01    7.833115e-01
  3.089802e+01    8.060182e-01
  3.091390e+01    8.089669e-01
  3.092977e+01    7.914515e-01
  3.094565e+01    7.908078e-01
  3.096153e+01    7.898280e-01
  3.097740e+01    7.906896e-01
  3.099328e+01    7.648534e-01
  3.100915e+01    7.894291e-01
  3.102503e+01    8.038030e-01
  3.104090e+01    7.969844e-01
  3.105678e+01    7.740002e-01
  3.107265e+01    7.935979e-01
  3.108853e+01    7.806247e-01
  3.110441e+01    7.663409e-01
  3.112028e+01    7.689117e-01
  3.113616e+01    7.958500e-01
  3.115203e+01    8.021275e-01
  3.116791e+01    7.995933e-01
  3.118378e+01    7.823931e-01
  3.119966e+01    7.916125e-01
  3.121553e+01    7.917538e-01
  3.123141e+01    7.936786e-01
  3.124729e+01    7.919974e-01
  3.126316e+01    7.729293e-01
  3.127904e+01    7.799570e-01
  3.129491e+01    7.765808e-01
  3.131079e+01    8.134007e-01
  3.132666e+01    8.002212e-01
  3.134254e+01    8.135082e-01
  3.135841e+01    8.088937e-01
  3.137429e+01    7.990704e-01
  3.139017e+01    7.905065e-01
  3.140604e+01    7.804448e-01
  3.142192e+01    7.960085e-01
  3.143779e+01    7.945446e-01
  3.145367e+01    8.027974e-01
  3.146954e+01    8.190493e-01
  3.148542e+01    8.281813e-01
  3.150129e+01    8.189116e-01
  3.151717e+01    8.302243e-01
  3.153305e+01    8.348432e-01
  3.154892e+01    8.583742e-01
  3.156480e+01    8.754845e-01
  3.158067e+01    8.890683e-01
  3.159655e+01    8.788288e-01
  3.161242e+01    8.881719e-01
  3.162830e+01    9.095698e-01
  3.164418e+01    8.964728e-01
  3.166005e+01    9.338927e-01
  3.167593e+01    9.996476e-01
  3.169180e+01    1.015728e+00
  3.170768e+01    1.025461e+00
  3.172355e+01    1.063309e+00
  3.173943e+01    1.128773e+00
  3.175530e+01    1.207765e+00
  3.177118e+01    1.251762e+00
  3.178706e+01    1.345103e+00
  3.180293e+01    1.457887e+00
  3.181881e+01    1.574042e+00
  3.183468e+01    1.742106e+00
  3.185056e+01    1.875803e+00
  3.186643e+01    1.995421e+00
  3.188231e+01    2.082069e+00
  3.189818e+01    2.159136e+00
  3.191406e+01    2.085395e+00
  3.192994e+01    2.037055e+00
  3.194581e+01    1.959143e+00
  3.196169e+01    1.845215e+00
  3.197756e+01    1.677339e+00
  3.199344e+01    1.543197e+00
  3.200931e+01    1.445096e+00
  3.202519e+01    1.321424e+00
  3.204106e+01    1.236558e+00
  3.205694e+01    1.182864e+00
  3.207282e+01    1.107129e+00
  3.208869e+01    1.063911e+00
  3.210457e+01    9.980240e-01
  3.212044e+01    9.749683e-01
  3.213632e+01    9.638040e-01
  3.215219e+01    9.203532e-01
  3.216807e+01    9.012178e-01
  3.218394e+01    8.774123e-01
  3.219982e+01    8.556437e-01
  3.221570e+01    8.581021e-01
  3.223157e+01    8.524945e-01
  3.224745e+01    8.275289e-01
  3.226332e+01    8.473781e-01
  3.227920e+01    8.580844e-01
  3.229507e+01    8.267397e-01
  3.231095e+01    8.282388e-01
  3.232682e+01    8.153703e-01
  3.234270e+01    8.193627e-01
  3.235858e+01    8.246793e-01
  3.237445e+01    8.275511e-01
  3.239033e+01    8.153289e-01
  3.240620e+01    8.045237e-01
  3.242208e+01    7.850883e-01
  3.243795e+01    7.854643e-01
  3.245383e+01    7.975872e-01
  3.246970e+01    7.788791e-01
  3.248558e+01    7.697387e-01
  3.250146e+01    7.901824e-01
  3.251733e+01    7.852693e-01
  3.253321e+01    7.943431e-01
  3.254908e+01    7.635452e-01
