# == pyFAI calibration ==
# Distance Sample to Detector: 0.3999999939076516 m
# PONI: 9.750e-02, 1.135e-01 m
# Rotations: -0.000175 0.000000 -0.000000 rad
# 
# == Fit2d calibration ==
# Distance Sample-beamCenter: 400.000 mm
# Center: x=1514.000, y=1300.000 pix
# Tilt: 0.010 deg  TiltPlanRot: 0.010 deg
# 
# Detector Detector	 Spline= None	 PixelSize= 7.500e-05, 7.500e-05 m
#    Detector has a mask: False 
#    Detector has a dark current: False 
#    detector has a flat field: False 
# 
# Wavelength: 6.888e-11 m
# Mask applied: user provided
# Dark current applied: False
# Flat field applied: False
# Polarization factor: 0.99
# Normalization factor: 1.0
# --> /home/myspot/data/2024_07_Rosario/Ru-CGO-ex/2024-07-27_003_Ru-CGO-ex_Reaction_dwell_000023_data_000173.dat
#       q_nm^-1             I 
  2.003187e-02    0.000000e+00
  3.590745e-02    1.058928e-01
  5.178302e-02    2.872754e-01
  6.765859e-02    2.805904e-01
  8.353417e-02    1.124306e-01
  9.940974e-02    5.011238e-02
  1.152853e-01    2.037442e-02
  1.311609e-01    6.008370e-02
  1.470365e-01    6.853118e-02
  1.629120e-01    6.201458e-02
  1.787876e-01    3.080164e-02
  1.946632e-01    2.381372e-02
  2.105388e-01    2.297118e-02
  2.264143e-01    4.206526e-02
  2.422899e-01    6.960701e-02
  2.581655e-01    4.012069e-02
  2.740411e-01    5.910945e-02
  2.899166e-01    7.204080e-02
  3.057922e-01    2.783319e-02
  3.216678e-01    1.706838e-02
  3.375433e-01    4.609650e-02
  3.534189e-01    1.796530e-02
  3.692945e-01    2.858536e-02
  3.851701e-01    3.679458e-02
  4.010456e-01    5.529681e-02
  4.169212e-01    2.953437e-02
  4.327968e-01    3.387208e-02
  4.486724e-01    3.924764e-02
  4.645479e-01    6.274588e-02
  4.804235e-01    7.712466e-02
  4.962991e-01    4.775519e-02
  5.121747e-01    3.594349e-02
  5.280502e-01    4.511129e-02
  5.439258e-01    2.851409e-02
  5.598014e-01    2.836559e-02
  5.756770e-01    3.638584e-02
  5.915525e-01    3.662471e-02
  6.074281e-01    2.836853e-02
  6.233037e-01    3.906751e-02
  6.391793e-01    4.428050e-02
  6.550548e-01    3.401040e-02
  6.709304e-01    4.047981e-02
  6.868060e-01    2.792000e-02
  7.026815e-01    5.959515e-02
  7.185571e-01    4.910164e-02
  7.344327e-01    2.132546e-02
  7.503083e-01    3.909719e-02
  7.661838e-01    5.402405e-02
  7.820594e-01    7.683489e-02
  7.979350e-01    1.385163e-01
  8.138106e-01    1.998079e-01
  8.296861e-01    2.497160e-01
  8.455617e-01    3.279393e-01
  8.614373e-01    3.958127e-01
  8.773129e-01    4.502515e-01
  8.931884e-01    6.039766e-01
  9.090640e-01    6.721050e-01
  9.249396e-01    7.665014e-01
  9.408152e-01    8.657993e-01
  9.566907e-01    9.377334e-01
  9.725663e-01    1.037089e+00
  9.884419e-01    1.117396e+00
  1.004317e+00    1.216550e+00
  1.020193e+00    1.407844e+00
  1.036069e+00    1.341752e+00
  1.051944e+00    1.259580e+00
  1.067820e+00    1.357444e+00
  1.083695e+00    1.504208e+00
  1.099571e+00    1.626482e+00
  1.115446e+00    1.626201e+00
  1.131322e+00    1.672421e+00
  1.147198e+00    1.670310e+00
  1.163073e+00    1.635333e+00
  1.178949e+00    1.662359e+00
  1.194824e+00    1.846073e+00
  1.210700e+00    2.106688e+00
  1.226575e+00    2.206437e+00
  1.242451e+00    2.424863e+00
  1.258327e+00    2.448044e+00
  1.274202e+00    2.424098e+00
  1.290078e+00    2.657068e+00
  1.305953e+00    2.745738e+00
  1.321829e+00    2.657496e+00
  1.337705e+00    2.600681e+00
  1.353580e+00    2.748255e+00
  1.369456e+00    2.847272e+00
  1.385331e+00    2.851137e+00
  1.401207e+00    2.851632e+00
  1.417082e+00    2.933964e+00
  1.432958e+00    2.975763e+00
  1.448834e+00    3.013687e+00
  1.464709e+00    2.919119e+00
  1.480585e+00    3.012806e+00
  1.496460e+00    3.165235e+00
  1.512336e+00    3.125638e+00
  1.528211e+00    3.151043e+00
  1.544087e+00    3.115233e+00
  1.559963e+00    3.083866e+00
  1.575838e+00    3.073102e+00
  1.591714e+00    3.262446e+00
  1.607589e+00    3.303155e+00
  1.623465e+00    3.107238e+00
  1.639340e+00    3.067861e+00
  1.655216e+00    3.176691e+00
  1.671092e+00    3.182567e+00
  1.686967e+00    3.066543e+00
  1.702843e+00    2.989209e+00
  1.718718e+00    2.986170e+00
  1.734594e+00    3.056942e+00
  1.750469e+00    3.087041e+00
  1.766345e+00    3.112821e+00
  1.782221e+00    3.094543e+00
  1.798096e+00    3.015612e+00
  1.813972e+00    2.961780e+00
  1.829847e+00    2.987398e+00
  1.845723e+00    3.057133e+00
  1.861598e+00    3.018641e+00
  1.877474e+00    2.929318e+00
  1.893350e+00    2.957464e+00
  1.909225e+00    3.074958e+00
  1.925101e+00    3.061729e+00
  1.940976e+00    3.060727e+00
  1.956852e+00    3.117389e+00
  1.972727e+00    3.202296e+00
  1.988603e+00    3.116525e+00
  2.004479e+00    3.020512e+00
  2.020354e+00    3.004272e+00
  2.036230e+00    3.077458e+00
  2.052105e+00    2.938890e+00
  2.067981e+00    2.989831e+00
  2.083856e+00    3.100184e+00
  2.099732e+00    3.028991e+00
  2.115608e+00    3.119462e+00
  2.131483e+00    3.084471e+00
  2.147359e+00    3.011341e+00
  2.163234e+00    3.095066e+00
  2.179110e+00    3.143314e+00
  2.194985e+00    3.178984e+00
  2.210861e+00    3.161919e+00
  2.226737e+00    3.063909e+00
  2.242612e+00    3.084149e+00
  2.258488e+00    3.167269e+00
  2.274363e+00    3.116441e+00
  2.290239e+00    3.034453e+00
  2.306115e+00    3.095054e+00
  2.321990e+00    3.138392e+00
  2.337866e+00    3.175075e+00
  2.353741e+00    3.139888e+00
  2.369617e+00    3.057694e+00
  2.385492e+00    2.995965e+00
  2.401368e+00    3.146131e+00
  2.417244e+00    3.186895e+00
  2.433119e+00    3.088727e+00
  2.448995e+00    3.091727e+00
  2.464870e+00    3.270475e+00
  2.480746e+00    3.170652e+00
  2.496621e+00    3.077774e+00
  2.512497e+00    3.065011e+00
  2.528373e+00    3.115626e+00
  2.544248e+00    3.124120e+00
  2.560124e+00    3.081493e+00
  2.575999e+00    3.114293e+00
  2.591875e+00    3.186018e+00
  2.607750e+00    3.127725e+00
  2.623626e+00    3.161594e+00
  2.639502e+00    3.166384e+00
  2.655377e+00    3.247300e+00
  2.671253e+00    3.262156e+00
  2.687128e+00    3.135868e+00
  2.703004e+00    3.231737e+00
  2.718879e+00    3.194361e+00
  2.734755e+00    3.178940e+00
  2.750631e+00    3.188813e+00
  2.766506e+00    3.183217e+00
  2.782382e+00    3.281931e+00
  2.798257e+00    3.228943e+00
  2.814133e+00    3.243535e+00
  2.830008e+00    3.252602e+00
  2.845884e+00    3.247706e+00
  2.861760e+00    3.171199e+00
  2.877635e+00    3.275329e+00
  2.893511e+00    3.266049e+00
  2.909386e+00    3.311524e+00
  2.925262e+00    3.345634e+00
  2.941137e+00    3.331702e+00
  2.957013e+00    3.335715e+00
  2.972889e+00    3.301177e+00
  2.988764e+00    3.266785e+00
  3.004640e+00    3.310941e+00
  3.020515e+00    3.335416e+00
  3.036391e+00    3.256386e+00
  3.052266e+00    3.238802e+00
  3.068142e+00    3.416619e+00
  3.084018e+00    3.396566e+00
  3.099893e+00    3.381814e+00
  3.115769e+00    3.360862e+00
  3.131644e+00    3.316974e+00
  3.147520e+00    3.449367e+00
  3.163395e+00    3.434453e+00
  3.179271e+00    3.411193e+00
  3.195147e+00    3.325949e+00
  3.211022e+00    3.364383e+00
  3.226898e+00    3.296185e+00
  3.242773e+00    3.275485e+00
  3.258649e+00    3.331104e+00
  3.274525e+00    3.431929e+00
  3.290400e+00    3.368769e+00
  3.306276e+00    3.411293e+00
  3.322151e+00    3.348279e+00
  3.338027e+00    3.341172e+00
  3.353902e+00    3.273743e+00
  3.369778e+00    3.284787e+00
  3.385654e+00    3.332566e+00
  3.401529e+00    3.413433e+00
  3.417405e+00    3.521185e+00
  3.433280e+00    3.361428e+00
  3.449156e+00    3.385229e+00
  3.465031e+00    3.387423e+00
  3.480907e+00    3.418194e+00
  3.496783e+00    3.377072e+00
  3.512658e+00    3.394942e+00
  3.528534e+00    3.487633e+00
  3.544409e+00    3.481588e+00
  3.560285e+00    3.394023e+00
  3.576160e+00    3.325713e+00
  3.592036e+00    3.393841e+00
  3.607912e+00    3.459031e+00
  3.623787e+00    3.494566e+00
  3.639663e+00    3.422147e+00
  3.655538e+00    3.384170e+00
  3.671414e+00    3.436702e+00
  3.687289e+00    3.442699e+00
  3.703165e+00    3.473354e+00
  3.719041e+00    3.394711e+00
  3.734916e+00    3.416581e+00
  3.750792e+00    3.418005e+00
  3.766667e+00    3.314171e+00
  3.782543e+00    3.345389e+00
  3.798418e+00    3.391887e+00
  3.814294e+00    3.403470e+00
  3.830170e+00    3.440963e+00
  3.846045e+00    3.542432e+00
  3.861921e+00    3.542906e+00
  3.877796e+00    3.518265e+00
  3.893672e+00    3.518439e+00
  3.909547e+00    3.451153e+00
  3.925423e+00    3.446645e+00
  3.941299e+00    3.424752e+00
  3.957174e+00    3.504431e+00
  3.973050e+00    3.493357e+00
  3.988925e+00    3.451137e+00
  4.004801e+00    3.449919e+00
  4.020676e+00    3.448949e+00
  4.036552e+00    3.493500e+00
  4.052428e+00    3.515157e+00
  4.068303e+00    3.471777e+00
  4.084179e+00    3.453115e+00
  4.100054e+00    3.393449e+00
  4.115930e+00    3.388614e+00
  4.131806e+00    3.455271e+00
  4.147681e+00    3.486205e+00
  4.163557e+00    3.417976e+00
  4.179432e+00    3.418153e+00
  4.195308e+00    3.479480e+00
  4.211183e+00    3.524097e+00
  4.227059e+00    3.541300e+00
  4.242935e+00    3.525237e+00
  4.258810e+00    3.601055e+00
  4.274686e+00    3.558033e+00
  4.290561e+00    3.494087e+00
  4.306437e+00    3.497612e+00
  4.322312e+00    3.452362e+00
  4.338188e+00    3.568083e+00
  4.354064e+00    3.530967e+00
  4.369939e+00    3.592927e+00
  4.385815e+00    3.606371e+00
  4.401690e+00    3.602619e+00
  4.417566e+00    3.539774e+00
  4.433441e+00    3.637804e+00
  4.449317e+00    3.593520e+00
  4.465193e+00    3.590264e+00
  4.481068e+00    3.572008e+00
  4.496944e+00    3.573015e+00
  4.512819e+00    3.595895e+00
  4.528695e+00    3.471945e+00
  4.544570e+00    3.535042e+00
  4.560446e+00    3.504449e+00
  4.576322e+00    3.516351e+00
  4.592197e+00    3.543827e+00
  4.608073e+00    3.539935e+00
  4.623948e+00    3.554735e+00
  4.639824e+00    3.530473e+00
  4.655699e+00    3.515839e+00
  4.671575e+00    3.557918e+00
  4.687451e+00    3.552210e+00
  4.703326e+00    3.527777e+00
  4.719202e+00    3.497678e+00
  4.735077e+00    3.509749e+00
  4.750953e+00    3.539697e+00
  4.766828e+00    3.593210e+00
  4.782704e+00    3.641358e+00
  4.798580e+00    3.545698e+00
  4.814455e+00    3.571383e+00
  4.830331e+00    3.628677e+00
  4.846206e+00    3.592525e+00
  4.862082e+00    3.571494e+00
  4.877957e+00    3.595707e+00
  4.893833e+00    3.601983e+00
  4.909709e+00    3.607756e+00
  4.925584e+00    3.686575e+00
  4.941460e+00    3.683804e+00
  4.957335e+00    3.577158e+00
  4.973211e+00    3.516603e+00
  4.989086e+00    3.602448e+00
  5.004962e+00    3.642438e+00
  5.020838e+00    3.623288e+00
  5.036713e+00    3.667660e+00
  5.052589e+00    3.532342e+00
  5.068464e+00    3.529311e+00
  5.084340e+00    3.560488e+00
  5.100216e+00    3.574091e+00
  5.116091e+00    3.522060e+00
  5.131967e+00    3.581918e+00
  5.147842e+00    3.670347e+00
  5.163718e+00    3.594742e+00
  5.179593e+00    3.567246e+00
  5.195469e+00    3.675734e+00
  5.211345e+00    3.563539e+00
  5.227220e+00    3.646979e+00
  5.243096e+00    3.624027e+00
  5.258971e+00    3.590888e+00
  5.274847e+00    3.605913e+00
  5.290722e+00    3.609354e+00
  5.306598e+00    3.660938e+00
  5.322474e+00    3.633161e+00
  5.338349e+00    3.628197e+00
  5.354225e+00    3.621549e+00
  5.370100e+00    3.581955e+00
  5.385976e+00    3.577429e+00
  5.401851e+00    3.583117e+00
  5.417727e+00    3.605318e+00
  5.433603e+00    3.595037e+00
  5.449478e+00    3.587845e+00
  5.465354e+00    3.551345e+00
  5.481229e+00    3.531376e+00
  5.497105e+00    3.536609e+00
  5.512980e+00    3.569709e+00
  5.528856e+00    3.621176e+00
  5.544732e+00    3.576352e+00
  5.560607e+00    3.579315e+00
  5.576483e+00    3.650378e+00
  5.592358e+00    3.600646e+00
  5.608234e+00    3.534554e+00
  5.624109e+00    3.469496e+00
  5.639985e+00    3.492802e+00
  5.655861e+00    3.555768e+00
  5.671736e+00    3.580549e+00
  5.687612e+00    3.545493e+00
  5.703487e+00    3.561027e+00
  5.719363e+00    3.547575e+00
  5.735238e+00    3.498919e+00
  5.751114e+00    3.497161e+00
  5.766990e+00    3.490293e+00
  5.782865e+00    3.419085e+00
  5.798741e+00    3.387861e+00
  5.814616e+00    3.480273e+00
  5.830492e+00    3.564996e+00
  5.846367e+00    3.496417e+00
  5.862243e+00    3.467027e+00
  5.878119e+00    3.523150e+00
  5.893994e+00    3.546275e+00
  5.909870e+00    3.442607e+00
  5.925745e+00    3.573109e+00
  5.941621e+00    3.539761e+00
  5.957497e+00    3.539904e+00
  5.973372e+00    3.579345e+00
  5.989248e+00    3.543860e+00
  6.005123e+00    3.505536e+00
  6.020999e+00    3.463342e+00
  6.036874e+00    3.455773e+00
  6.052750e+00    3.522128e+00
  6.068626e+00    3.570278e+00
  6.084501e+00    3.590837e+00
  6.100377e+00    3.628369e+00
  6.116252e+00    3.619724e+00
  6.132128e+00    3.592638e+00
  6.148003e+00    3.558002e+00
  6.163879e+00    3.531172e+00
  6.179755e+00    3.596992e+00
  6.195630e+00    3.511196e+00
  6.211506e+00    3.497648e+00
  6.227381e+00    3.541083e+00
  6.243257e+00    3.514983e+00
  6.259132e+00    3.512604e+00
  6.275008e+00    3.522117e+00
  6.290884e+00    3.527937e+00
  6.306759e+00    3.576097e+00
  6.322635e+00    3.575761e+00
  6.338510e+00    3.507117e+00
  6.354386e+00    3.531672e+00
  6.370261e+00    3.570843e+00
  6.386137e+00    3.534866e+00
  6.402013e+00    3.502136e+00
  6.417888e+00    3.534721e+00
  6.433764e+00    3.493543e+00
  6.449639e+00    3.575240e+00
  6.465515e+00    3.530688e+00
  6.481390e+00    3.437676e+00
  6.497266e+00    3.521390e+00
  6.513142e+00    3.535105e+00
  6.529017e+00    3.559719e+00
  6.544893e+00    3.496160e+00
  6.560768e+00    3.577171e+00
  6.576644e+00    3.572420e+00
  6.592519e+00    3.543007e+00
  6.608395e+00    3.544269e+00
  6.624271e+00    3.531842e+00
  6.640146e+00    3.569349e+00
  6.656022e+00    3.572738e+00
  6.671897e+00    3.507341e+00
  6.687773e+00    3.507231e+00
  6.703648e+00    3.521787e+00
  6.719524e+00    3.470020e+00
  6.735400e+00    3.525924e+00
  6.751275e+00    3.565182e+00
  6.767151e+00    3.503191e+00
  6.783026e+00    3.530819e+00
  6.798902e+00    3.520413e+00
  6.814777e+00    3.497425e+00
  6.830653e+00    3.468825e+00
  6.846529e+00    3.497842e+00
  6.862404e+00    3.419099e+00
  6.878280e+00    3.493877e+00
  6.894155e+00    3.434432e+00
  6.910031e+00    3.445335e+00
  6.925907e+00    3.590699e+00
  6.941782e+00    3.602654e+00
  6.957658e+00    3.486972e+00
  6.973533e+00    3.448466e+00
  6.989409e+00    3.431298e+00
  7.005284e+00    3.451514e+00
  7.021160e+00    3.440265e+00
  7.037036e+00    3.484832e+00
  7.052911e+00    3.504499e+00
  7.068787e+00    3.425981e+00
  7.084662e+00    3.413187e+00
  7.100538e+00    3.466255e+00
  7.116413e+00    3.495061e+00
  7.132289e+00    3.495571e+00
  7.148165e+00    3.388609e+00
  7.164040e+00    3.479202e+00
  7.179916e+00    3.498348e+00
  7.195791e+00    3.527860e+00
  7.211667e+00    3.494891e+00
  7.227542e+00    3.543965e+00
  7.243418e+00    3.470972e+00
  7.259294e+00    3.439042e+00
  7.275169e+00    3.414052e+00
  7.291045e+00    3.368110e+00
  7.306920e+00    3.421268e+00
  7.322796e+00    3.488877e+00
  7.338671e+00    3.440479e+00
  7.354547e+00    3.477014e+00
  7.370423e+00    3.491563e+00
  7.386298e+00    3.520672e+00
  7.402174e+00    3.478956e+00
  7.418049e+00    3.486435e+00
  7.433925e+00    3.430734e+00
  7.449800e+00    3.373839e+00
  7.465676e+00    3.431257e+00
  7.481552e+00    3.442757e+00
  7.497427e+00    3.404317e+00
  7.513303e+00    3.426852e+00
  7.529178e+00    3.402000e+00
  7.545054e+00    3.397998e+00
  7.560929e+00    3.391569e+00
  7.576805e+00    3.392847e+00
  7.592681e+00    3.399821e+00
  7.608556e+00    3.426335e+00
  7.624432e+00    3.397192e+00
  7.640307e+00    3.349800e+00
  7.656183e+00    3.324651e+00
  7.672058e+00    3.363032e+00
  7.687934e+00    3.412432e+00
  7.703810e+00    3.381500e+00
  7.719685e+00    3.399500e+00
  7.735561e+00    3.417311e+00
  7.751436e+00    3.394148e+00
  7.767312e+00    3.373917e+00
  7.783187e+00    3.370303e+00
  7.799063e+00    3.394321e+00
  7.814939e+00    3.412062e+00
  7.830814e+00    3.377403e+00
  7.846690e+00    3.425444e+00
  7.862565e+00    3.420672e+00
  7.878441e+00    3.396943e+00
  7.894317e+00    3.411503e+00
  7.910192e+00    3.398432e+00
  7.926068e+00    3.370916e+00
  7.941943e+00    3.397726e+00
  7.957819e+00    3.397414e+00
  7.973694e+00    3.413178e+00
  7.989570e+00    3.401036e+00
  8.005446e+00    3.408078e+00
  8.021321e+00    3.354481e+00
  8.037197e+00    3.351630e+00
  8.053072e+00    3.449621e+00
  8.068948e+00    3.424550e+00
  8.084823e+00    3.413460e+00
  8.100699e+00    3.415566e+00
  8.116575e+00    3.397223e+00
  8.132450e+00    3.413508e+00
  8.148326e+00    3.390525e+00
  8.164201e+00    3.394049e+00
  8.180077e+00    3.418862e+00
  8.195952e+00    3.412315e+00
  8.211828e+00    3.419858e+00
  8.227704e+00    3.370979e+00
  8.243579e+00    3.330082e+00
  8.259455e+00    3.338905e+00
  8.275330e+00    3.395038e+00
  8.291206e+00    3.365149e+00
  8.307081e+00    3.365579e+00
  8.322957e+00    3.422913e+00
  8.338833e+00    3.324908e+00
  8.354708e+00    3.367636e+00
  8.370584e+00    3.348443e+00
  8.386459e+00    3.350057e+00
  8.402335e+00    3.387216e+00
  8.418210e+00    3.301477e+00
  8.434086e+00    3.274712e+00
  8.449962e+00    3.327169e+00
  8.465837e+00    3.330380e+00
  8.481713e+00    3.384149e+00
  8.497588e+00    3.345351e+00
  8.513464e+00    3.371759e+00
  8.529339e+00    3.325327e+00
  8.545215e+00    3.316799e+00
  8.561091e+00    3.338839e+00
  8.576966e+00    3.307602e+00
  8.592842e+00    3.384007e+00
  8.608717e+00    3.373370e+00
  8.624593e+00    3.334876e+00
  8.640468e+00    3.328976e+00
  8.656344e+00    3.317607e+00
  8.672220e+00    3.275091e+00
  8.688095e+00    3.253376e+00
  8.703971e+00    3.255630e+00
  8.719846e+00    3.286199e+00
  8.735722e+00    3.301591e+00
  8.751598e+00    3.224530e+00
  8.767473e+00    3.256327e+00
  8.783349e+00    3.290375e+00
  8.799224e+00    3.288579e+00
  8.815100e+00    3.275566e+00
  8.830975e+00    3.261881e+00
  8.846851e+00    3.247595e+00
  8.862727e+00    3.276515e+00
  8.878602e+00    3.280184e+00
  8.894478e+00    3.216903e+00
  8.910353e+00    3.239888e+00
  8.926229e+00    3.204304e+00
  8.942104e+00    3.207049e+00
  8.957980e+00    3.252012e+00
  8.973856e+00    3.267686e+00
  8.989731e+00    3.230800e+00
  9.005607e+00    3.202625e+00
  9.021482e+00    3.271978e+00
  9.037358e+00    3.278136e+00
  9.053233e+00    3.201191e+00
  9.069109e+00    3.200156e+00
  9.084985e+00    3.154753e+00
  9.100860e+00    3.168380e+00
  9.116736e+00    3.262055e+00
  9.132611e+00    3.251971e+00
  9.148487e+00    3.204076e+00
  9.164362e+00    3.215305e+00
  9.180238e+00    3.159929e+00
  9.196114e+00    3.216085e+00
  9.211989e+00    3.211125e+00
  9.227865e+00    3.236402e+00
  9.243740e+00    3.232886e+00
  9.259616e+00    3.204990e+00
  9.275491e+00    3.198560e+00
  9.291367e+00    3.211194e+00
  9.307243e+00    3.163706e+00
  9.323118e+00    3.157063e+00
  9.338994e+00    3.177727e+00
  9.354869e+00    3.144547e+00
  9.370745e+00    3.121993e+00
  9.386620e+00    3.147399e+00
  9.402496e+00    3.182812e+00
  9.418372e+00    3.167778e+00
  9.434247e+00    3.173541e+00
  9.450123e+00    3.181638e+00
  9.465998e+00    3.169808e+00
  9.481874e+00    3.156500e+00
  9.497749e+00    3.207091e+00
  9.513625e+00    3.188785e+00
  9.529501e+00    3.160238e+00
  9.545376e+00    3.152693e+00
  9.561252e+00    3.139114e+00
  9.577127e+00    3.168489e+00
  9.593003e+00    3.119776e+00
  9.608878e+00    3.146918e+00
  9.624754e+00    3.174430e+00
  9.640630e+00    3.161266e+00
  9.656505e+00    3.103957e+00
  9.672381e+00    3.115361e+00
  9.688256e+00    3.112372e+00
  9.704132e+00    3.078943e+00
  9.720008e+00    3.157511e+00
  9.735883e+00    3.127024e+00
  9.751759e+00    3.110661e+00
  9.767634e+00    3.086074e+00
  9.783510e+00    3.097255e+00
  9.799385e+00    3.101920e+00
  9.815261e+00    3.091010e+00
  9.831137e+00    3.060447e+00
  9.847012e+00    3.093085e+00
  9.862888e+00    3.119935e+00
  9.878763e+00    3.121555e+00
  9.894639e+00    3.126228e+00
  9.910514e+00    3.102149e+00
  9.926390e+00    3.059434e+00
  9.942266e+00    3.128493e+00
  9.958141e+00    3.091478e+00
  9.974017e+00    3.076227e+00
  9.989892e+00    3.067899e+00
  1.000577e+01    3.088712e+00
  1.002164e+01    3.058143e+00
  1.003752e+01    3.083768e+00
  1.005339e+01    3.097662e+00
  1.006927e+01    3.058344e+00
  1.008515e+01    3.033462e+00
  1.010102e+01    3.068567e+00
  1.011690e+01    3.129631e+00
  1.013277e+01    3.086431e+00
  1.014865e+01    3.082805e+00
  1.016452e+01    3.070584e+00
  1.018040e+01    2.997398e+00
  1.019627e+01    2.975612e+00
  1.021215e+01    3.006475e+00
  1.022803e+01    3.047846e+00
  1.024390e+01    3.047508e+00
  1.025978e+01    3.047979e+00
  1.027565e+01    3.053948e+00
  1.029153e+01    3.039033e+00
  1.030740e+01    3.010615e+00
  1.032328e+01    2.989640e+00
  1.033915e+01    3.004020e+00
  1.035503e+01    2.978798e+00
  1.037091e+01    2.981522e+00
  1.038678e+01    2.962991e+00
  1.040266e+01    3.003182e+00
  1.041853e+01    3.017177e+00
  1.043441e+01    2.997489e+00
  1.045028e+01    3.023186e+00
  1.046616e+01    2.964124e+00
  1.048204e+01    2.927257e+00
  1.049791e+01    2.938125e+00
  1.051379e+01    2.948852e+00
  1.052966e+01    2.930124e+00
  1.054554e+01    2.935893e+00
  1.056141e+01    2.936464e+00
  1.057729e+01    2.964641e+00
  1.059316e+01    2.972712e+00
  1.060904e+01    2.951917e+00
  1.062492e+01    2.930908e+00
  1.064079e+01    2.949515e+00
  1.065667e+01    2.956441e+00
  1.067254e+01    2.933967e+00
  1.068842e+01    2.974814e+00
  1.070429e+01    2.986716e+00
  1.072017e+01    2.949651e+00
  1.073604e+01    2.967036e+00
  1.075192e+01    2.927717e+00
  1.076780e+01    2.876053e+00
  1.078367e+01    2.943338e+00
  1.079955e+01    2.922250e+00
  1.081542e+01    2.861621e+00
  1.083130e+01    2.887585e+00
  1.084717e+01    2.914303e+00
  1.086305e+01    2.953671e+00
  1.087892e+01    2.886676e+00
  1.089480e+01    2.858217e+00
  1.091068e+01    2.914252e+00
  1.092655e+01    2.856029e+00
  1.094243e+01    2.878766e+00
  1.095830e+01    2.856942e+00
  1.097418e+01    2.855778e+00
  1.099005e+01    2.859800e+00
  1.100593e+01    2.847268e+00
  1.102180e+01    2.895753e+00
  1.103768e+01    2.901537e+00
  1.105356e+01    2.846328e+00
  1.106943e+01    2.814670e+00
  1.108531e+01    2.855498e+00
  1.110118e+01    2.917149e+00
  1.111706e+01    2.871813e+00
  1.113293e+01    2.776283e+00
  1.114881e+01    2.769709e+00
  1.116468e+01    2.836864e+00
  1.118056e+01    2.810158e+00
  1.119644e+01    2.765684e+00
  1.121231e+01    2.759513e+00
  1.122819e+01    2.784762e+00
  1.124406e+01    2.784446e+00
  1.125994e+01    2.790376e+00
  1.127581e+01    2.829242e+00
  1.129169e+01    2.725100e+00
  1.130756e+01    2.786205e+00
  1.132344e+01    2.833803e+00
  1.133932e+01    2.818166e+00
  1.135519e+01    2.835474e+00
  1.137107e+01    2.785069e+00
  1.138694e+01    2.805398e+00
  1.140282e+01    2.798180e+00
  1.141869e+01    2.795466e+00
  1.143457e+01    2.819416e+00
  1.145045e+01    2.792801e+00
  1.146632e+01    2.816082e+00
  1.148220e+01    2.771402e+00
  1.149807e+01    2.756530e+00
  1.151395e+01    2.740010e+00
  1.152982e+01    2.742454e+00
  1.154570e+01    2.775985e+00
  1.156157e+01    2.735129e+00
  1.157745e+01    2.682309e+00
  1.159333e+01    2.731784e+00
  1.160920e+01    2.748461e+00
  1.162508e+01    2.741102e+00
  1.164095e+01    2.741909e+00
  1.165683e+01    2.772861e+00
  1.167270e+01    2.765648e+00
  1.168858e+01    2.726942e+00
  1.170445e+01    2.708207e+00
  1.172033e+01    2.737497e+00
  1.173621e+01    2.753676e+00
  1.175208e+01    2.671902e+00
  1.176796e+01    2.635201e+00
  1.178383e+01    2.646462e+00
  1.179971e+01    2.737941e+00
  1.181558e+01    2.743339e+00
  1.183146e+01    2.733123e+00
  1.184733e+01    2.666844e+00
  1.186321e+01    2.671300e+00
  1.187909e+01    2.729479e+00
  1.189496e+01    2.714483e+00
  1.191084e+01    2.686660e+00
  1.192671e+01    2.664119e+00
  1.194259e+01    2.661829e+00
  1.195846e+01    2.705553e+00
  1.197434e+01    2.669983e+00
  1.199021e+01    2.639033e+00
  1.200609e+01    2.627685e+00
  1.202197e+01    2.640947e+00
  1.203784e+01    2.676875e+00
  1.205372e+01    2.679478e+00
  1.206959e+01    2.662004e+00
  1.208547e+01    2.648707e+00
  1.210134e+01    2.665717e+00
  1.211722e+01    2.689830e+00
  1.213309e+01    2.664003e+00
  1.214897e+01    2.668593e+00
  1.216485e+01    2.691258e+00
  1.218072e+01    2.622357e+00
  1.219660e+01    2.591507e+00
  1.221247e+01    2.621383e+00
  1.222835e+01    2.664125e+00
  1.224422e+01    2.674115e+00
  1.226010e+01    2.686430e+00
  1.227597e+01    2.641326e+00
  1.229185e+01    2.612897e+00
  1.230773e+01    2.616502e+00
  1.232360e+01    2.634761e+00
  1.233948e+01    2.673313e+00
  1.235535e+01    2.665058e+00
  1.237123e+01    2.631670e+00
  1.238710e+01    2.630588e+00
  1.240298e+01    2.679189e+00
  1.241886e+01    2.678426e+00
  1.243473e+01    2.671524e+00
  1.245061e+01    2.630903e+00
  1.246648e+01    2.630530e+00
  1.248236e+01    2.640149e+00
  1.249823e+01    2.686547e+00
  1.251411e+01    2.685540e+00
  1.252998e+01    2.642023e+00
  1.254586e+01    2.653197e+00
  1.256174e+01    2.676280e+00
  1.257761e+01    2.665989e+00
  1.259349e+01    2.705729e+00
  1.260936e+01    2.702338e+00
  1.262524e+01    2.719956e+00
  1.264111e+01    2.760292e+00
  1.265699e+01    2.729219e+00
  1.267286e+01    2.722838e+00
  1.268874e+01    2.820182e+00
  1.270462e+01    2.845176e+00
  1.272049e+01    2.791635e+00
  1.273637e+01    2.790373e+00
  1.275224e+01    2.837727e+00
  1.276812e+01    2.904621e+00
  1.278399e+01    2.954983e+00
  1.279987e+01    2.956985e+00
  1.281574e+01    2.978525e+00
  1.283162e+01    3.087500e+00
  1.284750e+01    3.195016e+00
  1.286337e+01    3.282523e+00
  1.287925e+01    3.349953e+00
  1.289512e+01    3.418547e+00
  1.291100e+01    3.578373e+00
  1.292687e+01    3.768270e+00
  1.294275e+01    4.050396e+00
  1.295862e+01    4.345104e+00
  1.297450e+01    4.680778e+00
  1.299038e+01    5.250286e+00
  1.300625e+01    5.919864e+00
  1.302213e+01    6.732650e+00
  1.303800e+01    7.724674e+00
  1.305388e+01    8.872125e+00
  1.306975e+01    1.010825e+01
  1.308563e+01    1.144636e+01
  1.310150e+01    1.259744e+01
  1.311738e+01    1.368244e+01
  1.313326e+01    1.466021e+01
  1.314913e+01    1.549397e+01
  1.316501e+01    1.604473e+01
  1.318088e+01    1.613191e+01
  1.319676e+01    1.540417e+01
  1.321263e+01    1.403553e+01
  1.322851e+01    1.236049e+01
  1.324438e+01    1.047971e+01
  1.326026e+01    8.902416e+00
  1.327614e+01    7.553278e+00
  1.329201e+01    6.569814e+00
  1.330789e+01    5.743540e+00
  1.332376e+01    5.156996e+00
  1.333964e+01    4.743994e+00
  1.335551e+01    4.351177e+00
  1.337139e+01    4.031090e+00
  1.338727e+01    3.782677e+00
  1.340314e+01    3.618460e+00
  1.341902e+01    3.454345e+00
  1.343489e+01    3.285182e+00
  1.345077e+01    3.175792e+00
  1.346664e+01    3.069434e+00
  1.348252e+01    2.996140e+00
  1.349839e+01    2.922922e+00
  1.351427e+01    2.866055e+00
  1.353015e+01    2.834064e+00
  1.354602e+01    2.763502e+00
  1.356190e+01    2.671514e+00
  1.357777e+01    2.735080e+00
  1.359365e+01    2.679118e+00
  1.360952e+01    2.601521e+00
  1.362540e+01    2.629741e+00
  1.364127e+01    2.609700e+00
  1.365715e+01    2.601683e+00
  1.367303e+01    2.563603e+00
  1.368890e+01    2.552413e+00
  1.370478e+01    2.501195e+00
  1.372065e+01    2.482568e+00
  1.373653e+01    2.473316e+00
  1.375240e+01    2.449524e+00
  1.376828e+01    2.445112e+00
  1.378415e+01    2.447644e+00
  1.380003e+01    2.436431e+00
  1.381591e+01    2.389493e+00
  1.383178e+01    2.354564e+00
  1.384766e+01    2.353735e+00
  1.386353e+01    2.339399e+00
  1.387941e+01    2.365900e+00
  1.389528e+01    2.316590e+00
  1.391116e+01    2.331622e+00
  1.392703e+01    2.359175e+00
  1.394291e+01    2.327950e+00
  1.395879e+01    2.303682e+00
  1.397466e+01    2.345333e+00
  1.399054e+01    2.363723e+00
  1.400641e+01    2.335957e+00
  1.402229e+01    2.291741e+00
  1.403816e+01    2.336756e+00
  1.405404e+01    2.284926e+00
  1.406991e+01    2.302368e+00
  1.408579e+01    2.281180e+00
  1.410167e+01    2.234514e+00
  1.411754e+01    2.284091e+00
  1.413342e+01    2.289865e+00
  1.414929e+01    2.266430e+00
  1.416517e+01    2.244283e+00
  1.418104e+01    2.281795e+00
  1.419692e+01    2.236825e+00
  1.421279e+01    2.227291e+00
  1.422867e+01    2.262451e+00
  1.424455e+01    2.256890e+00
  1.426042e+01    2.256083e+00
  1.427630e+01    2.265870e+00
  1.429217e+01    2.237285e+00
  1.430805e+01    2.206191e+00
  1.432392e+01    2.246512e+00
  1.433980e+01    2.225576e+00
  1.435568e+01    2.260351e+00
  1.437155e+01    2.229483e+00
  1.438743e+01    2.218443e+00
  1.440330e+01    2.243423e+00
  1.441918e+01    2.219191e+00
  1.443505e+01    2.188643e+00
  1.445093e+01    2.211711e+00
  1.446680e+01    2.190374e+00
  1.448268e+01    2.170959e+00
  1.449856e+01    2.193997e+00
  1.451443e+01    2.208295e+00
  1.453031e+01    2.155723e+00
  1.454618e+01    2.178971e+00
  1.456206e+01    2.195714e+00
  1.457793e+01    2.213979e+00
  1.459381e+01    2.208973e+00
  1.460968e+01    2.195830e+00
  1.462556e+01    2.185825e+00
  1.464144e+01    2.190631e+00
  1.465731e+01    2.164130e+00
  1.467319e+01    2.177400e+00
  1.468906e+01    2.150174e+00
  1.470494e+01    2.146487e+00
  1.472081e+01    2.154053e+00
  1.473669e+01    2.157419e+00
  1.475256e+01    2.133829e+00
  1.476844e+01    2.141430e+00
  1.478432e+01    2.177442e+00
  1.480019e+01    2.150939e+00
  1.481607e+01    2.182748e+00
  1.483194e+01    2.184696e+00
  1.484782e+01    2.190640e+00
  1.486369e+01    2.145854e+00
  1.487957e+01    2.169248e+00
  1.489544e+01    2.208015e+00
  1.491132e+01    2.173447e+00
  1.492720e+01    2.209214e+00
  1.494307e+01    2.282443e+00
  1.495895e+01    2.256579e+00
  1.497482e+01    2.313815e+00
  1.499070e+01    2.356061e+00
  1.500657e+01    2.394226e+00
  1.502245e+01    2.526317e+00
  1.503832e+01    2.601656e+00
  1.505420e+01    2.668596e+00
  1.507008e+01    2.778584e+00
  1.508595e+01    2.962991e+00
  1.510183e+01    3.214920e+00
  1.511770e+01    3.441630e+00
  1.513358e+01    3.728874e+00
  1.514945e+01    4.083375e+00
  1.516533e+01    4.451623e+00
  1.518120e+01    4.826858e+00
  1.519708e+01    5.131754e+00
  1.521296e+01    5.365072e+00
  1.522883e+01    5.464660e+00
  1.524471e+01    5.577507e+00
  1.526058e+01    5.706143e+00
  1.527646e+01    5.606501e+00
  1.529233e+01    5.331952e+00
  1.530821e+01    5.016002e+00
  1.532409e+01    4.528938e+00
  1.533996e+01    4.078269e+00
  1.535584e+01    3.670699e+00
  1.537171e+01    3.356411e+00
  1.538759e+01    3.115943e+00
  1.540346e+01    2.898430e+00
  1.541934e+01    2.685895e+00
  1.543521e+01    2.559400e+00
  1.545109e+01    2.463284e+00
  1.546697e+01    2.383611e+00
  1.548284e+01    2.324386e+00
  1.549872e+01    2.259689e+00
  1.551459e+01    2.220971e+00
  1.553047e+01    2.185064e+00
  1.554634e+01    2.154403e+00
  1.556222e+01    2.102256e+00
  1.557809e+01    2.082152e+00
  1.559397e+01    2.041773e+00
  1.560985e+01    2.022854e+00
  1.562572e+01    2.015053e+00
  1.564160e+01    2.003633e+00
  1.565747e+01    1.991380e+00
  1.567335e+01    2.004802e+00
  1.568922e+01    1.977681e+00
  1.570510e+01    1.986094e+00
  1.572097e+01    1.947803e+00
  1.573685e+01    1.938607e+00
  1.575273e+01    1.913920e+00
  1.576860e+01    1.883128e+00
  1.578448e+01    1.872581e+00
  1.580035e+01    1.929448e+00
  1.581623e+01    1.927622e+00
  1.583210e+01    1.903372e+00
  1.584798e+01    1.882076e+00
  1.586385e+01    1.873993e+00
  1.587973e+01    1.860328e+00
  1.589561e+01    1.893080e+00
  1.591148e+01    1.895799e+00
  1.592736e+01    1.865234e+00
  1.594323e+01    1.848485e+00
  1.595911e+01    1.842701e+00
  1.597498e+01    1.847174e+00
  1.599086e+01    1.863929e+00
  1.600673e+01    1.867374e+00
  1.602261e+01    1.869590e+00
  1.603849e+01    1.859518e+00
  1.605436e+01    1.845190e+00
  1.607024e+01    1.838470e+00
  1.608611e+01    1.827628e+00
  1.610199e+01    1.835092e+00
  1.611786e+01    1.827635e+00
  1.613374e+01    1.834281e+00
  1.614961e+01    1.815708e+00
  1.616549e+01    1.824241e+00
  1.618137e+01    1.795076e+00
  1.619724e+01    1.822138e+00
  1.621312e+01    1.801231e+00
  1.622899e+01    1.779353e+00
  1.624487e+01    1.780477e+00
  1.626074e+01    1.784822e+00
  1.627662e+01    1.791212e+00
  1.629250e+01    1.826185e+00
  1.630837e+01    1.776984e+00
  1.632425e+01    1.780898e+00
  1.634012e+01    1.794780e+00
  1.635600e+01    1.783138e+00
  1.637187e+01    1.767636e+00
  1.638775e+01    1.726892e+00
  1.640362e+01    1.740648e+00
  1.641950e+01    1.725306e+00
  1.643538e+01    1.727801e+00
  1.645125e+01    1.694657e+00
  1.646713e+01    1.742772e+00
  1.648300e+01    1.751959e+00
  1.649888e+01    1.730631e+00
  1.651475e+01    1.710119e+00
  1.653063e+01    1.730759e+00
  1.654650e+01    1.690453e+00
  1.656238e+01    1.731058e+00
  1.657826e+01    1.714632e+00
  1.659413e+01    1.704339e+00
  1.661001e+01    1.708343e+00
  1.662588e+01    1.709736e+00
  1.664176e+01    1.725913e+00
  1.665763e+01    1.710112e+00
  1.667351e+01    1.701007e+00
  1.668938e+01    1.687933e+00
  1.670526e+01    1.694283e+00
  1.672114e+01    1.680990e+00
  1.673701e+01    1.707938e+00
  1.675289e+01    1.703408e+00
  1.676876e+01    1.705776e+00
  1.678464e+01    1.697421e+00
  1.680051e+01    1.669890e+00
  1.681639e+01    1.681518e+00
  1.683226e+01    1.656002e+00
  1.684814e+01    1.649975e+00
  1.686402e+01    1.662014e+00
  1.687989e+01    1.658364e+00
  1.689577e+01    1.690877e+00
  1.691164e+01    1.675656e+00
  1.692752e+01    1.650967e+00
  1.694339e+01    1.670191e+00
  1.695927e+01    1.661256e+00
  1.697514e+01    1.635122e+00
  1.699102e+01    1.642442e+00
  1.700690e+01    1.644785e+00
  1.702277e+01    1.657946e+00
  1.703865e+01    1.658918e+00
  1.705452e+01    1.617868e+00
  1.707040e+01    1.608189e+00
  1.708627e+01    1.633009e+00
  1.710215e+01    1.624042e+00
  1.711802e+01    1.648436e+00
  1.713390e+01    1.633129e+00
  1.714978e+01    1.606319e+00
  1.716565e+01    1.599550e+00
  1.718153e+01    1.607633e+00
  1.719740e+01    1.617084e+00
  1.721328e+01    1.599202e+00
  1.722915e+01    1.596055e+00
  1.724503e+01    1.569093e+00
  1.726091e+01    1.570731e+00
  1.727678e+01    1.580950e+00
  1.729266e+01    1.577842e+00
  1.730853e+01    1.563273e+00
  1.732441e+01    1.588108e+00
  1.734028e+01    1.590848e+00
  1.735616e+01    1.561426e+00
  1.737203e+01    1.585512e+00
  1.738791e+01    1.597033e+00
  1.740379e+01    1.568042e+00
  1.741966e+01    1.564096e+00
  1.743554e+01    1.557541e+00
  1.745141e+01    1.551226e+00
  1.746729e+01    1.580673e+00
  1.748316e+01    1.609737e+00
  1.749904e+01    1.560202e+00
  1.751491e+01    1.564211e+00
  1.753079e+01    1.566177e+00
  1.754667e+01    1.534294e+00
  1.756254e+01    1.551686e+00
  1.757842e+01    1.553406e+00
  1.759429e+01    1.556394e+00
  1.761017e+01    1.526699e+00
  1.762604e+01    1.530475e+00
  1.764192e+01    1.547548e+00
  1.765779e+01    1.535686e+00
  1.767367e+01    1.513150e+00
  1.768955e+01    1.527911e+00
  1.770542e+01    1.536781e+00
  1.772130e+01    1.561474e+00
  1.773717e+01    1.563324e+00
  1.775305e+01    1.526181e+00
  1.776892e+01    1.537258e+00
  1.778480e+01    1.531840e+00
  1.780067e+01    1.514785e+00
  1.781655e+01    1.499167e+00
  1.783243e+01    1.511616e+00
  1.784830e+01    1.527476e+00
  1.786418e+01    1.540730e+00
  1.788005e+01    1.541495e+00
  1.789593e+01    1.533796e+00
  1.791180e+01    1.531140e+00
  1.792768e+01    1.507542e+00
  1.794355e+01    1.491772e+00
  1.795943e+01    1.520115e+00
  1.797531e+01    1.510019e+00
  1.799118e+01    1.499951e+00
  1.800706e+01    1.497956e+00
  1.802293e+01    1.482417e+00
  1.803881e+01    1.476867e+00
  1.805468e+01    1.491204e+00
  1.807056e+01    1.530750e+00
  1.808643e+01    1.489233e+00
  1.810231e+01    1.457998e+00
  1.811819e+01    1.460876e+00
  1.813406e+01    1.459882e+00
  1.814994e+01    1.470859e+00
  1.816581e+01    1.437729e+00
  1.818169e+01    1.458650e+00
  1.819756e+01    1.482972e+00
  1.821344e+01    1.474280e+00
  1.822932e+01    1.463964e+00
  1.824519e+01    1.465082e+00
  1.826107e+01    1.461342e+00
  1.827694e+01    1.478387e+00
  1.829282e+01    1.441816e+00
  1.830869e+01    1.429886e+00
  1.832457e+01    1.450491e+00
  1.834044e+01    1.450845e+00
  1.835632e+01    1.431552e+00
  1.837220e+01    1.399488e+00
  1.838807e+01    1.415673e+00
  1.840395e+01    1.438339e+00
  1.841982e+01    1.434342e+00
  1.843570e+01    1.424315e+00
  1.845157e+01    1.432413e+00
  1.846745e+01    1.425325e+00
  1.848332e+01    1.432763e+00
  1.849920e+01    1.428924e+00
  1.851508e+01    1.410208e+00
  1.853095e+01    1.409104e+00
  1.854683e+01    1.396754e+00
  1.856270e+01    1.406576e+00
  1.857858e+01    1.384716e+00
  1.859445e+01    1.365791e+00
  1.861033e+01    1.427727e+00
  1.862620e+01    1.407469e+00
  1.864208e+01    1.404606e+00
  1.865796e+01    1.409830e+00
  1.867383e+01    1.413979e+00
  1.868971e+01    1.414347e+00
  1.870558e+01    1.415969e+00
  1.872146e+01    1.400117e+00
  1.873733e+01    1.375539e+00
  1.875321e+01    1.397871e+00
  1.876908e+01    1.411586e+00
  1.878496e+01    1.397925e+00
  1.880084e+01    1.388335e+00
  1.881671e+01    1.382663e+00
  1.883259e+01    1.364153e+00
  1.884846e+01    1.379668e+00
  1.886434e+01    1.382116e+00
  1.888021e+01    1.373511e+00
  1.889609e+01    1.386558e+00
  1.891196e+01    1.386596e+00
  1.892784e+01    1.340044e+00
  1.894372e+01    1.327163e+00
  1.895959e+01    1.347596e+00
  1.897547e+01    1.347887e+00
  1.899134e+01    1.355451e+00
  1.900722e+01    1.368385e+00
  1.902309e+01    1.372389e+00
  1.903897e+01    1.348621e+00
  1.905484e+01    1.342924e+00
  1.907072e+01    1.346680e+00
  1.908660e+01    1.365426e+00
  1.910247e+01    1.359765e+00
  1.911835e+01    1.359157e+00
  1.913422e+01    1.372553e+00
  1.915010e+01    1.358662e+00
  1.916597e+01    1.348915e+00
  1.918185e+01    1.328090e+00
  1.919773e+01    1.326131e+00
  1.921360e+01    1.354723e+00
  1.922948e+01    1.362330e+00
  1.924535e+01    1.365191e+00
  1.926123e+01    1.347492e+00
  1.927710e+01    1.335327e+00
  1.929298e+01    1.353092e+00
  1.930885e+01    1.360774e+00
  1.932473e+01    1.309316e+00
  1.934061e+01    1.280996e+00
  1.935648e+01    1.308372e+00
  1.937236e+01    1.327421e+00
  1.938823e+01    1.319024e+00
  1.940411e+01    1.318360e+00
  1.941998e+01    1.339177e+00
  1.943586e+01    1.343048e+00
  1.945173e+01    1.324710e+00
  1.946761e+01    1.351448e+00
  1.948349e+01    1.335747e+00
  1.949936e+01    1.321074e+00
  1.951524e+01    1.291842e+00
  1.953111e+01    1.297165e+00
  1.954699e+01    1.301551e+00
  1.956286e+01    1.300469e+00
  1.957874e+01    1.305668e+00
  1.959461e+01    1.288469e+00
  1.961049e+01    1.288484e+00
  1.962637e+01    1.297690e+00
  1.964224e+01    1.324912e+00
  1.965812e+01    1.289374e+00
  1.967399e+01    1.255521e+00
  1.968987e+01    1.274174e+00
  1.970574e+01    1.287101e+00
  1.972162e+01    1.292477e+00
  1.973749e+01    1.308190e+00
  1.975337e+01    1.303192e+00
  1.976925e+01    1.304209e+00
  1.978512e+01    1.294996e+00
  1.980100e+01    1.269807e+00
  1.981687e+01    1.273907e+00
  1.983275e+01    1.295731e+00
  1.984862e+01    1.319280e+00
  1.986450e+01    1.315763e+00
  1.988037e+01    1.248596e+00
  1.989625e+01    1.266607e+00
  1.991213e+01    1.262178e+00
  1.992800e+01    1.260439e+00
  1.994388e+01    1.271270e+00
  1.995975e+01    1.253008e+00
  1.997563e+01    1.268592e+00
  1.999150e+01    1.262293e+00
  2.000738e+01    1.230914e+00
  2.002325e+01    1.260356e+00
  2.003913e+01    1.267130e+00
  2.005501e+01    1.247804e+00
  2.007088e+01    1.237357e+00
  2.008676e+01    1.233874e+00
  2.010263e+01    1.240034e+00
  2.011851e+01    1.263244e+00
  2.013438e+01    1.251498e+00
  2.015026e+01    1.247927e+00
  2.016614e+01    1.266127e+00
  2.018201e+01    1.253199e+00
  2.019789e+01    1.258547e+00
  2.021376e+01    1.246944e+00
  2.022964e+01    1.263554e+00
  2.024551e+01    1.235189e+00
  2.026139e+01    1.244435e+00
  2.027726e+01    1.253548e+00
  2.029314e+01    1.233109e+00
  2.030902e+01    1.248397e+00
  2.032489e+01    1.235802e+00
  2.034077e+01    1.227880e+00
  2.035664e+01    1.237682e+00
  2.037252e+01    1.243140e+00
  2.038839e+01    1.232638e+00
  2.040427e+01    1.217226e+00
  2.042014e+01    1.203300e+00
  2.043602e+01    1.244509e+00
  2.045190e+01    1.263156e+00
  2.046777e+01    1.273903e+00
  2.048365e+01    1.239189e+00
  2.049952e+01    1.240459e+00
  2.051540e+01    1.254331e+00
  2.053127e+01    1.235870e+00
  2.054715e+01    1.233556e+00
  2.056302e+01    1.223530e+00
  2.057890e+01    1.235737e+00
  2.059478e+01    1.226486e+00
  2.061065e+01    1.193164e+00
  2.062653e+01    1.221025e+00
  2.064240e+01    1.203452e+00
  2.065828e+01    1.208652e+00
  2.067415e+01    1.205186e+00
  2.069003e+01    1.197768e+00
  2.070590e+01    1.203065e+00
  2.072178e+01    1.239240e+00
  2.073766e+01    1.217387e+00
  2.075353e+01    1.203051e+00
  2.076941e+01    1.202243e+00
  2.078528e+01    1.194691e+00
  2.080116e+01    1.188011e+00
  2.081703e+01    1.189721e+00
  2.083291e+01    1.217971e+00
  2.084878e+01    1.215773e+00
  2.086466e+01    1.209177e+00
  2.088054e+01    1.192975e+00
  2.089641e+01    1.220075e+00
  2.091229e+01    1.218392e+00
  2.092816e+01    1.209786e+00
  2.094404e+01    1.190669e+00
  2.095991e+01    1.192347e+00
  2.097579e+01    1.201763e+00
  2.099166e+01    1.197711e+00
  2.100754e+01    1.192476e+00
  2.102342e+01    1.189584e+00
  2.103929e+01    1.197741e+00
  2.105517e+01    1.197282e+00
  2.107104e+01    1.220687e+00
  2.108692e+01    1.214821e+00
  2.110279e+01    1.203828e+00
  2.111867e+01    1.250076e+00
  2.113455e+01    1.217611e+00
  2.115042e+01    1.214381e+00
  2.116630e+01    1.232630e+00
  2.118217e+01    1.233147e+00
  2.119805e+01    1.230579e+00
  2.121392e+01    1.225642e+00
  2.122980e+01    1.221561e+00
  2.124567e+01    1.226048e+00
  2.126155e+01    1.218957e+00
  2.127743e+01    1.216733e+00
  2.129330e+01    1.256501e+00
  2.130918e+01    1.274394e+00
  2.132505e+01    1.253872e+00
  2.134093e+01    1.287742e+00
  2.135680e+01    1.277335e+00
  2.137268e+01    1.287442e+00
  2.138855e+01    1.251062e+00
  2.140443e+01    1.275934e+00
  2.142031e+01    1.300711e+00
  2.143618e+01    1.304815e+00
  2.145206e+01    1.323386e+00
  2.146793e+01    1.350928e+00
  2.148381e+01    1.377169e+00
  2.149968e+01    1.394443e+00
  2.151556e+01    1.427892e+00
  2.153143e+01    1.469241e+00
  2.154731e+01    1.485153e+00
  2.156319e+01    1.537389e+00
  2.157906e+01    1.586656e+00
  2.159494e+01    1.662220e+00
  2.161081e+01    1.728906e+00
  2.162669e+01    1.823691e+00
  2.164256e+01    1.953309e+00
  2.165844e+01    2.111504e+00
  2.167431e+01    2.281119e+00
  2.169019e+01    2.499641e+00
  2.170607e+01    2.781934e+00
  2.172194e+01    3.107995e+00
  2.173782e+01    3.534046e+00
  2.175369e+01    4.029091e+00
  2.176957e+01    4.643485e+00
  2.178544e+01    5.262849e+00
  2.180132e+01    5.902114e+00
  2.181719e+01    6.524740e+00
  2.183307e+01    7.159639e+00
  2.184895e+01    7.738028e+00
  2.186482e+01    8.302194e+00
  2.188070e+01    8.669340e+00
  2.189657e+01    8.849672e+00
  2.191245e+01    8.634717e+00
  2.192832e+01    8.102219e+00
  2.194420e+01    7.346057e+00
  2.196007e+01    6.415181e+00
  2.197595e+01    5.467779e+00
  2.199183e+01    4.664407e+00
  2.200770e+01    3.987900e+00
  2.202358e+01    3.549806e+00
  2.203945e+01    3.103589e+00
  2.205533e+01    2.796327e+00
  2.207120e+01    2.532567e+00
  2.208708e+01    2.296356e+00
  2.210296e+01    2.100045e+00
  2.211883e+01    1.988564e+00
  2.213471e+01    1.857463e+00
  2.215058e+01    1.748275e+00
  2.216646e+01    1.668968e+00
  2.218233e+01    1.575369e+00
  2.219821e+01    1.528244e+00
  2.221408e+01    1.489638e+00
  2.222996e+01    1.430512e+00
  2.224584e+01    1.383604e+00
  2.226171e+01    1.348269e+00
  2.227759e+01    1.295608e+00
  2.229346e+01    1.302309e+00
  2.230934e+01    1.253115e+00
  2.232521e+01    1.239686e+00
  2.234109e+01    1.236621e+00
  2.235696e+01    1.227882e+00
  2.237284e+01    1.232385e+00
  2.238872e+01    1.212798e+00
  2.240459e+01    1.194221e+00
  2.242047e+01    1.188370e+00
  2.243634e+01    1.163161e+00
  2.245222e+01    1.155473e+00
  2.246809e+01    1.127080e+00
  2.248397e+01    1.131477e+00
  2.249984e+01    1.141873e+00
  2.251572e+01    1.128725e+00
  2.253160e+01    1.112795e+00
  2.254747e+01    1.115509e+00
  2.256335e+01    1.083788e+00
  2.257922e+01    1.077270e+00
  2.259510e+01    1.091228e+00
  2.261097e+01    1.090570e+00
  2.262685e+01    1.098179e+00
  2.264272e+01    1.078201e+00
  2.265860e+01    1.068616e+00
  2.267448e+01    1.072516e+00
  2.269035e+01    1.063624e+00
  2.270623e+01    1.050267e+00
  2.272210e+01    1.054454e+00
  2.273798e+01    1.060038e+00
  2.275385e+01    1.051146e+00
  2.276973e+01    1.046408e+00
  2.278560e+01    1.058327e+00
  2.280148e+01    1.057313e+00
  2.281736e+01    1.035682e+00
  2.283323e+01    1.007838e+00
  2.284911e+01    1.020981e+00
  2.286498e+01    1.008702e+00
  2.288086e+01    1.011799e+00
  2.289673e+01    1.032971e+00
  2.291261e+01    1.024981e+00
  2.292848e+01    1.042734e+00
  2.294436e+01    1.056039e+00
  2.296024e+01    1.040442e+00
  2.297611e+01    1.040396e+00
  2.299199e+01    1.036267e+00
  2.300786e+01    1.012895e+00
  2.302374e+01    9.950190e-01
  2.303961e+01    1.001074e+00
  2.305549e+01    9.719738e-01
  2.307137e+01    9.884007e-01
  2.308724e+01    1.004629e+00
  2.310312e+01    9.818443e-01
  2.311899e+01    9.921967e-01
  2.313487e+01    9.834521e-01
  2.315074e+01    9.861035e-01
  2.316662e+01    9.775084e-01
  2.318249e+01    9.802228e-01
  2.319837e+01    1.018311e+00
  2.321425e+01    9.924237e-01
  2.323012e+01    9.716706e-01
  2.324600e+01    9.620811e-01
  2.326187e+01    9.505017e-01
  2.327775e+01    9.484192e-01
  2.329362e+01    9.701997e-01
  2.330950e+01    9.741725e-01
  2.332537e+01    9.708485e-01
  2.334125e+01    9.569744e-01
  2.335713e+01    9.495081e-01
  2.337300e+01    9.597032e-01
  2.338888e+01    9.555627e-01
  2.340475e+01    9.315768e-01
  2.342063e+01    9.441515e-01
  2.343650e+01    9.369156e-01
  2.345238e+01    9.414983e-01
  2.346825e+01    9.380212e-01
  2.348413e+01    9.549252e-01
  2.350001e+01    9.415078e-01
  2.351588e+01    9.398586e-01
  2.353176e+01    9.587932e-01
  2.354763e+01    9.595613e-01
  2.356351e+01    9.578243e-01
  2.357938e+01    9.513490e-01
  2.359526e+01    9.470001e-01
  2.361113e+01    9.240615e-01
  2.362701e+01    9.554899e-01
  2.364289e+01    9.627172e-01
  2.365876e+01    9.305245e-01
  2.367464e+01    9.366538e-01
  2.369051e+01    9.219587e-01
  2.370639e+01    9.218195e-01
  2.372226e+01    9.297395e-01
  2.373814e+01    9.148214e-01
  2.375401e+01    9.010617e-01
  2.376989e+01    9.101890e-01
  2.378577e+01    9.202780e-01
  2.380164e+01    9.317389e-01
  2.381752e+01    9.087821e-01
  2.383339e+01    9.199135e-01
  2.384927e+01    9.020118e-01
  2.386514e+01    8.826135e-01
  2.388102e+01    8.840349e-01
  2.389689e+01    9.011171e-01
  2.391277e+01    9.015217e-01
  2.392865e+01    8.961520e-01
  2.394452e+01    9.047623e-01
  2.396040e+01    8.939307e-01
  2.397627e+01    8.808217e-01
  2.399215e+01    8.875347e-01
  2.400802e+01    8.926359e-01
  2.402390e+01    8.844718e-01
  2.403978e+01    8.692216e-01
  2.405565e+01    8.907605e-01
  2.407153e+01    9.072424e-01
  2.408740e+01    8.754382e-01
  2.410328e+01    8.702601e-01
  2.411915e+01    8.708698e-01
  2.413503e+01    8.730440e-01
  2.415090e+01    8.849465e-01
  2.416678e+01    8.916758e-01
  2.418266e+01    8.743573e-01
  2.419853e+01    8.785065e-01
  2.421441e+01    8.579805e-01
  2.423028e+01    8.668878e-01
  2.424616e+01    8.623663e-01
  2.426203e+01    8.866600e-01
  2.427791e+01    8.800313e-01
  2.429378e+01    8.849838e-01
  2.430966e+01    8.942553e-01
  2.432554e+01    8.825893e-01
  2.434141e+01    8.832783e-01
  2.435729e+01    8.529331e-01
  2.437316e+01    8.789253e-01
  2.438904e+01    8.898321e-01
  2.440491e+01    8.931511e-01
  2.442079e+01    8.672872e-01
  2.443666e+01    8.651404e-01
  2.445254e+01    8.897160e-01
  2.446842e+01    8.969952e-01
  2.448429e+01    8.774235e-01
  2.450017e+01    9.027025e-01
  2.451604e+01    8.895085e-01
  2.453192e+01    8.918166e-01
  2.454779e+01    8.622661e-01
  2.456367e+01    8.528153e-01
  2.457954e+01    8.577870e-01
  2.459542e+01    8.801718e-01
  2.461130e+01    8.868213e-01
  2.462717e+01    8.986061e-01
  2.464305e+01    8.773819e-01
  2.465892e+01    8.657170e-01
  2.467480e+01    8.784437e-01
  2.469067e+01    9.069799e-01
  2.470655e+01    9.063833e-01
  2.472242e+01    8.746625e-01
  2.473830e+01    8.788611e-01
  2.475418e+01    9.127059e-01
  2.477005e+01    8.787854e-01
  2.478593e+01    8.683357e-01
  2.480180e+01    8.623525e-01
  2.481768e+01    8.819605e-01
  2.483355e+01    8.767338e-01
  2.484943e+01    8.996213e-01
  2.486530e+01    8.918127e-01
  2.488118e+01    8.990048e-01
  2.489706e+01    8.879744e-01
  2.491293e+01    8.799700e-01
  2.492881e+01    8.786409e-01
  2.494468e+01    8.916011e-01
  2.496056e+01    8.912342e-01
  2.497643e+01    8.752004e-01
  2.499231e+01    8.863270e-01
  2.500819e+01    8.768067e-01
  2.502406e+01    8.827194e-01
  2.503994e+01    8.824899e-01
  2.505581e+01    8.709900e-01
  2.507169e+01    8.808628e-01
  2.508756e+01    8.915624e-01
  2.510344e+01    8.827417e-01
  2.511931e+01    8.907724e-01
  2.513519e+01    8.660138e-01
  2.515107e+01    8.796424e-01
  2.516694e+01    8.990249e-01
  2.518282e+01    9.215134e-01
  2.519869e+01    9.236237e-01
  2.521457e+01    9.155713e-01
  2.523044e+01    9.398553e-01
  2.524632e+01    9.486626e-01
  2.526219e+01    9.567116e-01
  2.527807e+01    9.295110e-01
  2.529395e+01    9.430073e-01
  2.530982e+01    9.396178e-01
  2.532570e+01    9.324821e-01
  2.534157e+01    9.694303e-01
  2.535745e+01    9.666774e-01
  2.537332e+01    9.390297e-01
  2.538920e+01    9.615718e-01
  2.540507e+01    9.931896e-01
  2.542095e+01    9.847182e-01
  2.543683e+01    1.000675e+00
  2.545270e+01    1.016969e+00
  2.546858e+01    1.034659e+00
  2.548445e+01    1.051754e+00
  2.550033e+01    1.053448e+00
  2.551620e+01    1.046762e+00
  2.553208e+01    1.060598e+00
  2.554795e+01    1.083567e+00
  2.556383e+01    1.109128e+00
  2.557971e+01    1.143247e+00
  2.559558e+01    1.188940e+00
  2.561146e+01    1.202570e+00
  2.562733e+01    1.251526e+00
  2.564321e+01    1.299452e+00
  2.565908e+01    1.363518e+00
  2.567496e+01    1.422318e+00
  2.569083e+01    1.490550e+00
  2.570671e+01    1.594248e+00
  2.572259e+01    1.717544e+00
  2.573846e+01    1.873164e+00
  2.575434e+01    2.020779e+00
  2.577021e+01    2.217523e+00
  2.578609e+01    2.486264e+00
  2.580196e+01    2.810341e+00
  2.581784e+01    3.215991e+00
  2.583371e+01    3.637638e+00
  2.584959e+01    4.147827e+00
  2.586547e+01    4.710356e+00
  2.588134e+01    5.303566e+00
  2.589722e+01    5.796957e+00
  2.591309e+01    6.352954e+00
  2.592897e+01    6.701005e+00
  2.594484e+01    6.967080e+00
  2.596072e+01    7.006214e+00
  2.597660e+01    6.776820e+00
  2.599247e+01    6.381106e+00
  2.600835e+01    5.815341e+00
  2.602422e+01    5.095562e+00
  2.604010e+01    4.429132e+00
  2.605597e+01    3.850409e+00
  2.607185e+01    3.351279e+00
  2.608772e+01    2.878865e+00
  2.610360e+01    2.543261e+00
  2.611948e+01    2.332853e+00
  2.613535e+01    2.084533e+00
  2.615123e+01    1.910518e+00
  2.616710e+01    1.756823e+00
  2.618298e+01    1.628224e+00
  2.619885e+01    1.541119e+00
  2.621473e+01    1.483996e+00
  2.623060e+01    1.382718e+00
  2.624648e+01    1.322646e+00
  2.626236e+01    1.267367e+00
  2.627823e+01    1.239165e+00
  2.629411e+01    1.194624e+00
  2.630998e+01    1.142732e+00
  2.632586e+01    1.136212e+00
  2.634173e+01    1.106479e+00
  2.635761e+01    1.069788e+00
  2.637348e+01    1.066294e+00
  2.638936e+01    1.047889e+00
  2.640524e+01    1.055387e+00
  2.642111e+01    1.035786e+00
  2.643699e+01    1.041656e+00
  2.645286e+01    1.040234e+00
  2.646874e+01    1.017758e+00
  2.648461e+01    9.973520e-01
  2.650049e+01    9.940468e-01
  2.651636e+01    9.911240e-01
  2.653224e+01    1.020149e+00
  2.654812e+01    9.932718e-01
  2.656399e+01    9.749219e-01
  2.657987e+01    9.873574e-01
  2.659574e+01    9.736704e-01
  2.661162e+01    9.703776e-01
  2.662749e+01    9.732248e-01
  2.664337e+01    9.796655e-01
  2.665924e+01    9.520342e-01
  2.667512e+01    9.461951e-01
  2.669100e+01    9.587852e-01
  2.670687e+01    9.629533e-01
  2.672275e+01    9.507358e-01
  2.673862e+01    9.676802e-01
  2.675450e+01    9.566267e-01
  2.677037e+01    9.519184e-01
  2.678625e+01    9.591784e-01
  2.680212e+01    9.576452e-01
  2.681800e+01    9.404132e-01
  2.683388e+01    9.260808e-01
  2.684975e+01    9.451084e-01
  2.686563e+01    9.684713e-01
  2.688150e+01    9.744582e-01
  2.689738e+01    9.695019e-01
  2.691325e+01    1.014824e+00
  2.692913e+01    1.000794e+00
  2.694501e+01    9.972084e-01
  2.696088e+01    1.016229e+00
  2.697676e+01    1.046105e+00
  2.699263e+01    1.072884e+00
  2.700851e+01    1.111929e+00
  2.702438e+01    1.133843e+00
  2.704026e+01    1.147777e+00
  2.705613e+01    1.229160e+00
  2.707201e+01    1.289769e+00
  2.708789e+01    1.383035e+00
  2.710376e+01    1.482292e+00
  2.711964e+01    1.579085e+00
  2.713551e+01    1.713236e+00
  2.715139e+01    1.853198e+00
  2.716726e+01    1.966403e+00
  2.718314e+01    2.050234e+00
  2.719901e+01    2.148019e+00
  2.721489e+01    2.153395e+00
  2.723077e+01    2.107827e+00
  2.724664e+01    2.067081e+00
  2.726252e+01    1.946432e+00
  2.727839e+01    1.803682e+00
  2.729427e+01    1.645616e+00
  2.731014e+01    1.522465e+00
  2.732602e+01    1.439588e+00
  2.734189e+01    1.354460e+00
  2.735777e+01    1.266898e+00
  2.737365e+01    1.212278e+00
  2.738952e+01    1.164161e+00
  2.740540e+01    1.085096e+00
  2.742127e+01    1.068816e+00
  2.743715e+01    1.052765e+00
  2.745302e+01    1.032252e+00
  2.746890e+01    1.011588e+00
  2.748477e+01    9.925583e-01
  2.750065e+01    9.842604e-01
  2.751653e+01    9.716245e-01
  2.753240e+01    9.543890e-01
  2.754828e+01    9.341105e-01
  2.756415e+01    9.312810e-01
  2.758003e+01    9.147632e-01
  2.759590e+01    9.114759e-01
  2.761178e+01    8.904874e-01
  2.762765e+01    9.096743e-01
  2.764353e+01    9.046471e-01
  2.765941e+01    8.772299e-01
  2.767528e+01    8.973199e-01
  2.769116e+01    8.994196e-01
  2.770703e+01    8.914880e-01
  2.772291e+01    8.950688e-01
  2.773878e+01    8.890592e-01
  2.775466e+01    8.782082e-01
  2.777054e+01    8.824323e-01
  2.778641e+01    8.539904e-01
  2.780229e+01    8.649841e-01
  2.781816e+01    8.504936e-01
  2.783404e+01    8.588054e-01
  2.784991e+01    8.746247e-01
  2.786579e+01    8.837579e-01
  2.788166e+01    8.729197e-01
  2.789754e+01    8.804907e-01
  2.791342e+01    8.779939e-01
  2.792929e+01    8.625572e-01
  2.794517e+01    8.630356e-01
  2.796104e+01    8.535257e-01
  2.797692e+01    8.607293e-01
  2.799279e+01    8.587396e-01
  2.800867e+01    8.558951e-01
  2.802454e+01    8.519424e-01
  2.804042e+01    8.696921e-01
  2.805630e+01    8.706994e-01
  2.807217e+01    8.647649e-01
  2.808805e+01    8.739164e-01
  2.810392e+01    8.617890e-01
  2.811980e+01    8.703236e-01
  2.813567e+01    8.722542e-01
  2.815155e+01    8.576305e-01
  2.816742e+01    8.426505e-01
  2.818330e+01    8.581108e-01
  2.819918e+01    8.335457e-01
  2.821505e+01    8.386053e-01
  2.823093e+01    8.431745e-01
  2.824680e+01    8.478497e-01
  2.826268e+01    8.488499e-01
  2.827855e+01    8.425171e-01
  2.829443e+01    8.485585e-01
  2.831030e+01    8.321543e-01
  2.832618e+01    8.225147e-01
  2.834206e+01    8.162645e-01
  2.835793e+01    8.285964e-01
  2.837381e+01    8.334689e-01
  2.838968e+01    8.375750e-01
  2.840556e+01    8.100788e-01
  2.842143e+01    8.322461e-01
  2.843731e+01    8.461396e-01
  2.845318e+01    8.464617e-01
  2.846906e+01    8.411966e-01
  2.848494e+01    8.515550e-01
  2.850081e+01    8.415560e-01
  2.851669e+01    8.439332e-01
  2.853256e+01    8.231281e-01
  2.854844e+01    8.284258e-01
  2.856431e+01    8.136764e-01
  2.858019e+01    8.106952e-01
  2.859606e+01    8.210817e-01
  2.861194e+01    7.974087e-01
  2.862782e+01    8.195347e-01
  2.864369e+01    8.401428e-01
  2.865957e+01    8.177630e-01
  2.867544e+01    8.283698e-01
  2.869132e+01    8.530561e-01
  2.870719e+01    8.454986e-01
  2.872307e+01    8.273596e-01
  2.873895e+01    8.429965e-01
  2.875482e+01    8.130322e-01
  2.877070e+01    8.346311e-01
  2.878657e+01    7.948903e-01
  2.880245e+01    8.228592e-01
  2.881832e+01    8.070144e-01
  2.883420e+01    8.232414e-01
  2.885007e+01    8.278145e-01
  2.886595e+01    8.181519e-01
  2.888183e+01    8.197499e-01
  2.889770e+01    8.054933e-01
  2.891358e+01    8.069414e-01
  2.892945e+01    7.991990e-01
  2.894533e+01    7.945403e-01
  2.896120e+01    8.146136e-01
  2.897708e+01    8.148748e-01
  2.899295e+01    8.021531e-01
  2.900883e+01    7.705200e-01
  2.902471e+01    8.019896e-01
  2.904058e+01    8.147298e-01
  2.905646e+01    8.070462e-01
  2.907233e+01    7.875707e-01
  2.908821e+01    8.133962e-01
  2.910408e+01    8.238353e-01
  2.911996e+01    8.164554e-01
  2.913583e+01    7.978940e-01
  2.915171e+01    7.910015e-01
  2.916759e+01    8.172807e-01
  2.918346e+01    8.047894e-01
  2.919934e+01    7.901930e-01
  2.921521e+01    8.114343e-01
  2.923109e+01    8.367672e-01
  2.924696e+01    8.028997e-01
  2.926284e+01    7.962016e-01
  2.927871e+01    7.955307e-01
  2.929459e+01    8.013998e-01
  2.931047e+01    8.115520e-01
  2.932634e+01    7.973207e-01
  2.934222e+01    8.089888e-01
  2.935809e+01    8.048713e-01
  2.937397e+01    8.102720e-01
  2.938984e+01    7.789348e-01
  2.940572e+01    7.816902e-01
  2.942159e+01    7.993422e-01
  2.943747e+01    8.226038e-01
  2.945335e+01    8.149020e-01
  2.946922e+01    8.045945e-01
  2.948510e+01    7.893435e-01
  2.950097e+01    8.085384e-01
  2.951685e+01    7.932811e-01
  2.953272e+01    7.853893e-01
  2.954860e+01    8.083560e-01
  2.956447e+01    8.020729e-01
  2.958035e+01    7.871644e-01
  2.959623e+01    7.852617e-01
  2.961210e+01    7.772358e-01
  2.962798e+01    7.874761e-01
  2.964385e+01    7.877828e-01
  2.965973e+01    7.877871e-01
  2.967560e+01    7.756225e-01
  2.969148e+01    8.021537e-01
  2.970736e+01    8.005739e-01
  2.972323e+01    7.988736e-01
  2.973911e+01    7.911823e-01
  2.975498e+01    7.818434e-01
  2.977086e+01    7.783528e-01
  2.978673e+01    7.668540e-01
  2.980261e+01    7.767162e-01
  2.981848e+01    7.789803e-01
  2.983436e+01    7.734555e-01
  2.985024e+01    7.633923e-01
  2.986611e+01    7.711198e-01
  2.988199e+01    7.751743e-01
  2.989786e+01    7.917958e-01
  2.991374e+01    7.884477e-01
  2.992961e+01    7.877793e-01
  2.994549e+01    7.932692e-01
  2.996136e+01    8.080450e-01
  2.997724e+01    8.029338e-01
  2.999312e+01    7.957169e-01
  3.000899e+01    8.016182e-01
  3.002487e+01    7.961507e-01
  3.004074e+01    8.012401e-01
  3.005662e+01    8.143502e-01
  3.007249e+01    7.961242e-01
  3.008837e+01    7.925971e-01
  3.010424e+01    8.006819e-01
  3.012012e+01    7.926816e-01
  3.013600e+01    7.497192e-01
  3.015187e+01    7.657506e-01
  3.016775e+01    7.858077e-01
  3.018362e+01    7.665990e-01
  3.019950e+01    7.750401e-01
  3.021537e+01    7.890364e-01
  3.023125e+01    7.820017e-01
  3.024712e+01    7.858964e-01
  3.026300e+01    7.814946e-01
  3.027888e+01    8.015118e-01
  3.029475e+01    7.778776e-01
  3.031063e+01    7.940079e-01
  3.032650e+01    7.781752e-01
  3.034238e+01    7.745296e-01
  3.035825e+01    7.861654e-01
  3.037413e+01    7.795836e-01
  3.039000e+01    7.772533e-01
  3.040588e+01    8.061673e-01
  3.042176e+01    7.858843e-01
  3.043763e+01    7.695486e-01
  3.045351e+01    7.659407e-01
  3.046938e+01    7.924650e-01
  3.048526e+01    7.631276e-01
  3.050113e+01    7.749398e-01
  3.051701e+01    7.880201e-01
  3.053288e+01    8.094730e-01
  3.054876e+01    7.782993e-01
  3.056464e+01    7.626349e-01
  3.058051e+01    7.832972e-01
  3.059639e+01    7.735426e-01
  3.061226e+01    7.833655e-01
  3.062814e+01    7.822174e-01
  3.064401e+01    7.920563e-01
  3.065989e+01    7.723647e-01
  3.067577e+01    7.829335e-01
  3.069164e+01    7.487763e-01
  3.070752e+01    7.414776e-01
  3.072339e+01    7.659670e-01
  3.073927e+01    7.801251e-01
  3.075514e+01    7.641974e-01
  3.077102e+01    7.738611e-01
  3.078689e+01    7.741576e-01
  3.080277e+01    7.570804e-01
  3.081865e+01    7.724270e-01
  3.083452e+01    7.756661e-01
  3.085040e+01    7.568470e-01
  3.086627e+01    7.563789e-01
  3.088215e+01    7.652048e-01
  3.089802e+01    7.674227e-01
  3.091390e+01    7.622274e-01
  3.092977e+01    7.680717e-01
  3.094565e+01    7.842787e-01
  3.096153e+01    7.932580e-01
  3.097740e+01    7.849775e-01
  3.099328e+01    7.637946e-01
  3.100915e+01    7.711451e-01
  3.102503e+01    7.736630e-01
  3.104090e+01    7.721110e-01
  3.105678e+01    7.722756e-01
  3.107265e+01    7.722403e-01
  3.108853e+01    7.798426e-01
  3.110441e+01    7.937917e-01
  3.112028e+01    7.729278e-01
  3.113616e+01    7.776624e-01
  3.115203e+01    7.816793e-01
  3.116791e+01    7.863677e-01
  3.118378e+01    7.794188e-01
  3.119966e+01    7.835977e-01
  3.121553e+01    7.775283e-01
  3.123141e+01    7.800015e-01
  3.124729e+01    7.721440e-01
  3.126316e+01    7.900866e-01
  3.127904e+01    7.904893e-01
  3.129491e+01    7.884734e-01
  3.131079e+01    7.904927e-01
  3.132666e+01    7.882130e-01
  3.134254e+01    7.948161e-01
  3.135841e+01    7.996827e-01
  3.137429e+01    7.892698e-01
  3.139017e+01    7.905042e-01
  3.140604e+01    8.191132e-01
  3.142192e+01    8.175175e-01
  3.143779e+01    7.857695e-01
  3.145367e+01    8.047562e-01
  3.146954e+01    7.995030e-01
  3.148542e+01    7.867035e-01
  3.150129e+01    7.909387e-01
  3.151717e+01    8.106769e-01
  3.153305e+01    8.405411e-01
  3.154892e+01    8.596907e-01
  3.156480e+01    8.418660e-01
  3.158067e+01    8.556333e-01
  3.159655e+01    8.817727e-01
  3.161242e+01    8.892247e-01
  3.162830e+01    8.667278e-01
  3.164418e+01    9.199745e-01
  3.166005e+01    9.187321e-01
  3.167593e+01    9.409218e-01
  3.169180e+01    9.789571e-01
  3.170768e+01    1.010701e+00
  3.172355e+01    1.058650e+00
  3.173943e+01    1.116513e+00
  3.175530e+01    1.192278e+00
  3.177118e+01    1.250103e+00
  3.178706e+01    1.365818e+00
  3.180293e+01    1.445555e+00
  3.181881e+01    1.567168e+00
  3.183468e+01    1.714533e+00
  3.185056e+01    1.817261e+00
  3.186643e+01    1.959823e+00
  3.188231e+01    2.029750e+00
  3.189818e+01    2.090384e+00
  3.191406e+01    2.073264e+00
  3.192994e+01    1.977105e+00
  3.194581e+01    1.918778e+00
  3.196169e+01    1.796696e+00
  3.197756e+01    1.674637e+00
  3.199344e+01    1.514998e+00
  3.200931e+01    1.349384e+00
  3.202519e+01    1.275807e+00
  3.204106e+01    1.219762e+00
  3.205694e+01    1.131002e+00
  3.207282e+01    1.054970e+00
  3.208869e+01    1.015330e+00
  3.210457e+01    9.930230e-01
  3.212044e+01    9.666299e-01
  3.213632e+01    9.247810e-01
  3.215219e+01    8.952094e-01
  3.216807e+01    8.816896e-01
  3.218394e+01    8.649481e-01
  3.219982e+01    8.830382e-01
  3.221570e+01    8.759908e-01
  3.223157e+01    8.596172e-01
  3.224745e+01    8.396379e-01
  3.226332e+01    8.223343e-01
  3.227920e+01    8.036473e-01
  3.229507e+01    7.975585e-01
  3.231095e+01    7.832782e-01
  3.232682e+01    7.707533e-01
  3.234270e+01    7.836044e-01
  3.235858e+01    8.026855e-01
  3.237445e+01    7.895170e-01
  3.239033e+01    7.743111e-01
  3.240620e+01    7.698206e-01
  3.242208e+01    7.780582e-01
  3.243795e+01    7.781263e-01
  3.245383e+01    7.696747e-01
  3.246970e+01    7.812902e-01
  3.248558e+01    7.940300e-01
  3.250146e+01    7.802075e-01
  3.251733e+01    7.597443e-01
  3.253321e+01    7.723809e-01
  3.254908e+01    7.620846e-01
