# == pyFAI calibration ==
# Distance Sample to Detector: 0.3999999939076516 m
# PONI: 9.750e-02, 1.135e-01 m
# Rotations: -0.000175 0.000000 -0.000000 rad
# 
# == Fit2d calibration ==
# Distance Sample-beamCenter: 400.000 mm
# Center: x=1514.000, y=1300.000 pix
# Tilt: 0.010 deg  TiltPlanRot: 0.010 deg
# 
# Detector Detector	 Spline= None	 PixelSize= 7.500e-05, 7.500e-05 m
#    Detector has a mask: False 
#    Detector has a dark current: False 
#    detector has a flat field: False 
# 
# Wavelength: 6.888e-11 m
# Mask applied: user provided
# Dark current applied: False
# Flat field applied: False
# Polarization factor: 0.99
# Normalization factor: 1.0
# --> /home/myspot/data/2024_07_Rosario/Ru-CGO-ex/2024-07-27_003_Ru-CGO-ex_Reaction_dwell_000023_data_000172.dat
#       q_nm^-1             I 
  2.003187e-02    0.000000e+00
  3.590745e-02    1.774838e-01
  5.178302e-02    2.420963e-01
  6.765859e-02    1.904730e-01
  8.353417e-02    1.450771e-01
  9.940974e-02    9.220099e-02
  1.152853e-01    8.300212e-02
  1.311609e-01    1.852704e-02
  1.470365e-01    3.450372e-03
  1.629120e-01    5.456008e-02
  1.787876e-01    8.506069e-02
  1.946632e-01    4.756768e-02
  2.105388e-01    6.940652e-02
  2.264143e-01    7.806379e-02
  2.422899e-01    5.583143e-02
  2.581655e-01    2.869654e-02
  2.740411e-01    4.731344e-02
  2.899166e-01    3.999757e-02
  3.057922e-01    1.460049e-02
  3.216678e-01    4.211634e-02
  3.375433e-01    2.253948e-02
  3.534189e-01    2.647509e-02
  3.692945e-01    4.321291e-02
  3.851701e-01    1.992850e-02
  4.010456e-01    1.845774e-02
  4.169212e-01    4.131799e-02
  4.327968e-01    5.407380e-02
  4.486724e-01    5.108740e-02
  4.645479e-01    3.085894e-02
  4.804235e-01    4.356112e-02
  4.962991e-01    2.987794e-02
  5.121747e-01    5.298632e-02
  5.280502e-01    6.499717e-02
  5.439258e-01    5.996446e-02
  5.598014e-01    4.529456e-02
  5.756770e-01    2.459626e-02
  5.915525e-01    4.731006e-02
  6.074281e-01    4.690043e-02
  6.233037e-01    5.621283e-02
  6.391793e-01    3.329268e-02
  6.550548e-01    4.887584e-02
  6.709304e-01    5.501974e-02
  6.868060e-01    6.325556e-02
  7.026815e-01    3.457267e-02
  7.185571e-01    4.864096e-02
  7.344327e-01    5.028819e-02
  7.503083e-01    2.322022e-02
  7.661838e-01    8.911146e-02
  7.820594e-01    1.586570e-01
  7.979350e-01    1.601257e-01
  8.138106e-01    2.322554e-01
  8.296861e-01    2.810189e-01
  8.455617e-01    3.773185e-01
  8.614373e-01    4.261577e-01
  8.773129e-01    5.082029e-01
  8.931884e-01    5.971345e-01
  9.090640e-01    6.258323e-01
  9.249396e-01    6.869280e-01
  9.408152e-01    7.825234e-01
  9.566907e-01    8.489366e-01
  9.725663e-01    9.493774e-01
  9.884419e-01    1.107275e+00
  1.004317e+00    1.201814e+00
  1.020193e+00    1.314487e+00
  1.036069e+00    1.412801e+00
  1.051944e+00    1.542421e+00
  1.067820e+00    1.490425e+00
  1.083695e+00    1.490469e+00
  1.099571e+00    1.454607e+00
  1.115446e+00    1.535931e+00
  1.131322e+00    1.527782e+00
  1.147198e+00    1.708864e+00
  1.163073e+00    1.792089e+00
  1.178949e+00    1.687715e+00
  1.194824e+00    1.715405e+00
  1.210700e+00    1.943511e+00
  1.226575e+00    2.167716e+00
  1.242451e+00    2.253186e+00
  1.258327e+00    2.326046e+00
  1.274202e+00    2.383551e+00
  1.290078e+00    2.616106e+00
  1.305953e+00    2.728331e+00
  1.321829e+00    2.603067e+00
  1.337705e+00    2.639564e+00
  1.353580e+00    2.687172e+00
  1.369456e+00    2.759749e+00
  1.385331e+00    2.720470e+00
  1.401207e+00    2.787641e+00
  1.417082e+00    2.855821e+00
  1.432958e+00    3.079369e+00
  1.448834e+00    2.953102e+00
  1.464709e+00    3.024803e+00
  1.480585e+00    3.145987e+00
  1.496460e+00    3.011117e+00
  1.512336e+00    3.010389e+00
  1.528211e+00    3.127705e+00
  1.544087e+00    3.291250e+00
  1.559963e+00    3.376539e+00
  1.575838e+00    3.374498e+00
  1.591714e+00    3.252147e+00
  1.607589e+00    3.104447e+00
  1.623465e+00    3.274371e+00
  1.639340e+00    3.290787e+00
  1.655216e+00    3.141416e+00
  1.671092e+00    3.131507e+00
  1.686967e+00    3.244769e+00
  1.702843e+00    3.072644e+00
  1.718718e+00    3.076694e+00
  1.734594e+00    3.076328e+00
  1.750469e+00    2.989933e+00
  1.766345e+00    2.907808e+00
  1.782221e+00    2.914562e+00
  1.798096e+00    3.015512e+00
  1.813972e+00    3.015508e+00
  1.829847e+00    3.057329e+00
  1.845723e+00    3.041515e+00
  1.861598e+00    2.925410e+00
  1.877474e+00    2.908665e+00
  1.893350e+00    2.892018e+00
  1.909225e+00    2.991765e+00
  1.925101e+00    3.079684e+00
  1.940976e+00    3.184492e+00
  1.956852e+00    3.135580e+00
  1.972727e+00    3.069217e+00
  1.988603e+00    3.002714e+00
  2.004479e+00    3.068857e+00
  2.020354e+00    3.151378e+00
  2.036230e+00    3.007875e+00
  2.052105e+00    2.916512e+00
  2.067981e+00    2.927943e+00
  2.083856e+00    2.978445e+00
  2.099732e+00    2.972188e+00
  2.115608e+00    2.970563e+00
  2.131483e+00    3.151113e+00
  2.147359e+00    3.096537e+00
  2.163234e+00    2.988272e+00
  2.179110e+00    3.018811e+00
  2.194985e+00    2.990726e+00
  2.210861e+00    2.996038e+00
  2.226737e+00    2.987605e+00
  2.242612e+00    3.047182e+00
  2.258488e+00    3.074382e+00
  2.274363e+00    2.980924e+00
  2.290239e+00    3.065156e+00
  2.306115e+00    3.185358e+00
  2.321990e+00    3.155822e+00
  2.337866e+00    3.150742e+00
  2.353741e+00    3.096378e+00
  2.369617e+00    3.097205e+00
  2.385492e+00    3.156137e+00
  2.401368e+00    3.192555e+00
  2.417244e+00    3.144171e+00
  2.433119e+00    2.994050e+00
  2.448995e+00    3.059202e+00
  2.464870e+00    3.030144e+00
  2.480746e+00    3.115475e+00
  2.496621e+00    3.214880e+00
  2.512497e+00    3.087534e+00
  2.528373e+00    3.167176e+00
  2.544248e+00    3.184550e+00
  2.560124e+00    3.200564e+00
  2.575999e+00    3.157294e+00
  2.591875e+00    3.205198e+00
  2.607750e+00    3.235910e+00
  2.623626e+00    3.186404e+00
  2.639502e+00    3.043140e+00
  2.655377e+00    3.097298e+00
  2.671253e+00    3.182055e+00
  2.687128e+00    3.194660e+00
  2.703004e+00    3.205704e+00
  2.718879e+00    3.146566e+00
  2.734755e+00    3.140773e+00
  2.750631e+00    3.134785e+00
  2.766506e+00    3.248226e+00
  2.782382e+00    3.298752e+00
  2.798257e+00    3.233361e+00
  2.814133e+00    3.156369e+00
  2.830008e+00    3.243737e+00
  2.845884e+00    3.296238e+00
  2.861760e+00    3.303413e+00
  2.877635e+00    3.174479e+00
  2.893511e+00    3.327673e+00
  2.909386e+00    3.323151e+00
  2.925262e+00    3.275717e+00
  2.941137e+00    3.307909e+00
  2.957013e+00    3.329611e+00
  2.972889e+00    3.267083e+00
  2.988764e+00    3.323765e+00
  3.004640e+00    3.391661e+00
  3.020515e+00    3.391229e+00
  3.036391e+00    3.337487e+00
  3.052266e+00    3.288545e+00
  3.068142e+00    3.399660e+00
  3.084018e+00    3.443647e+00
  3.099893e+00    3.326457e+00
  3.115769e+00    3.335398e+00
  3.131644e+00    3.367238e+00
  3.147520e+00    3.207316e+00
  3.163395e+00    3.250941e+00
  3.179271e+00    3.298363e+00
  3.195147e+00    3.311458e+00
  3.211022e+00    3.267941e+00
  3.226898e+00    3.154598e+00
  3.242773e+00    3.309062e+00
  3.258649e+00    3.367705e+00
  3.274525e+00    3.395005e+00
  3.290400e+00    3.420218e+00
  3.306276e+00    3.380809e+00
  3.322151e+00    3.386158e+00
  3.338027e+00    3.389156e+00
  3.353902e+00    3.362019e+00
  3.369778e+00    3.239614e+00
  3.385654e+00    3.302377e+00
  3.401529e+00    3.381844e+00
  3.417405e+00    3.376376e+00
  3.433280e+00    3.426176e+00
  3.449156e+00    3.406151e+00
  3.465031e+00    3.360260e+00
  3.480907e+00    3.428223e+00
  3.496783e+00    3.417595e+00
  3.512658e+00    3.362529e+00
  3.528534e+00    3.356136e+00
  3.544409e+00    3.467847e+00
  3.560285e+00    3.527936e+00
  3.576160e+00    3.448076e+00
  3.592036e+00    3.380110e+00
  3.607912e+00    3.336386e+00
  3.623787e+00    3.307149e+00
  3.639663e+00    3.267460e+00
  3.655538e+00    3.396860e+00
  3.671414e+00    3.524343e+00
  3.687289e+00    3.470561e+00
  3.703165e+00    3.347795e+00
  3.719041e+00    3.351433e+00
  3.734916e+00    3.340103e+00
  3.750792e+00    3.343421e+00
  3.766667e+00    3.363837e+00
  3.782543e+00    3.387212e+00
  3.798418e+00    3.415547e+00
  3.814294e+00    3.527547e+00
  3.830170e+00    3.559528e+00
  3.846045e+00    3.488253e+00
  3.861921e+00    3.530825e+00
  3.877796e+00    3.478657e+00
  3.893672e+00    3.438831e+00
  3.909547e+00    3.393024e+00
  3.925423e+00    3.375412e+00
  3.941299e+00    3.399054e+00
  3.957174e+00    3.564364e+00
  3.973050e+00    3.543857e+00
  3.988925e+00    3.487200e+00
  4.004801e+00    3.501598e+00
  4.020676e+00    3.533788e+00
  4.036552e+00    3.466078e+00
  4.052428e+00    3.430681e+00
  4.068303e+00    3.483209e+00
  4.084179e+00    3.421544e+00
  4.100054e+00    3.501789e+00
  4.115930e+00    3.500164e+00
  4.131806e+00    3.511283e+00
  4.147681e+00    3.547059e+00
  4.163557e+00    3.422475e+00
  4.179432e+00    3.426926e+00
  4.195308e+00    3.457298e+00
  4.211183e+00    3.507938e+00
  4.227059e+00    3.474668e+00
  4.242935e+00    3.443735e+00
  4.258810e+00    3.491719e+00
  4.274686e+00    3.466842e+00
  4.290561e+00    3.558524e+00
  4.306437e+00    3.529359e+00
  4.322312e+00    3.513093e+00
  4.338188e+00    3.515914e+00
  4.354064e+00    3.543201e+00
  4.369939e+00    3.518790e+00
  4.385815e+00    3.517486e+00
  4.401690e+00    3.476055e+00
  4.417566e+00    3.583859e+00
  4.433441e+00    3.594264e+00
  4.449317e+00    3.511617e+00
  4.465193e+00    3.539760e+00
  4.481068e+00    3.519637e+00
  4.496944e+00    3.480020e+00
  4.512819e+00    3.496890e+00
  4.528695e+00    3.548352e+00
  4.544570e+00    3.488744e+00
  4.560446e+00    3.487732e+00
  4.576322e+00    3.528214e+00
  4.592197e+00    3.475841e+00
  4.608073e+00    3.515888e+00
  4.623948e+00    3.533922e+00
  4.639824e+00    3.510797e+00
  4.655699e+00    3.545027e+00
  4.671575e+00    3.631784e+00
  4.687451e+00    3.613329e+00
  4.703326e+00    3.578358e+00
  4.719202e+00    3.593435e+00
  4.735077e+00    3.681871e+00
  4.750953e+00    3.628109e+00
  4.766828e+00    3.492049e+00
  4.782704e+00    3.579447e+00
  4.798580e+00    3.611976e+00
  4.814455e+00    3.625336e+00
  4.830331e+00    3.698867e+00
  4.846206e+00    3.663326e+00
  4.862082e+00    3.562904e+00
  4.877957e+00    3.527993e+00
  4.893833e+00    3.596053e+00
  4.909709e+00    3.600738e+00
  4.925584e+00    3.512092e+00
  4.941460e+00    3.626294e+00
  4.957335e+00    3.644380e+00
  4.973211e+00    3.587961e+00
  4.989086e+00    3.588633e+00
  5.004962e+00    3.589314e+00
  5.020838e+00    3.545562e+00
  5.036713e+00    3.541112e+00
  5.052589e+00    3.552271e+00
  5.068464e+00    3.629339e+00
  5.084340e+00    3.586154e+00
  5.100216e+00    3.640914e+00
  5.116091e+00    3.587461e+00
  5.131967e+00    3.607634e+00
  5.147842e+00    3.567932e+00
  5.163718e+00    3.495434e+00
  5.179593e+00    3.515721e+00
  5.195469e+00    3.609601e+00
  5.211345e+00    3.563865e+00
  5.227220e+00    3.538206e+00
  5.243096e+00    3.607914e+00
  5.258971e+00    3.665186e+00
  5.274847e+00    3.665502e+00
  5.290722e+00    3.564761e+00
  5.306598e+00    3.589148e+00
  5.322474e+00    3.600808e+00
  5.338349e+00    3.570648e+00
  5.354225e+00    3.657478e+00
  5.370100e+00    3.659148e+00
  5.385976e+00    3.620679e+00
  5.401851e+00    3.629583e+00
  5.417727e+00    3.648716e+00
  5.433603e+00    3.525443e+00
  5.449478e+00    3.530486e+00
  5.465354e+00    3.565709e+00
  5.481229e+00    3.560279e+00
  5.497105e+00    3.549421e+00
  5.512980e+00    3.501133e+00
  5.528856e+00    3.549854e+00
  5.544732e+00    3.543343e+00
  5.560607e+00    3.460478e+00
  5.576483e+00    3.573340e+00
  5.592358e+00    3.611084e+00
  5.608234e+00    3.556605e+00
  5.624109e+00    3.535763e+00
  5.639985e+00    3.521013e+00
  5.655861e+00    3.600293e+00
  5.671736e+00    3.563184e+00
  5.687612e+00    3.638484e+00
  5.703487e+00    3.500990e+00
  5.719363e+00    3.572967e+00
  5.735238e+00    3.625743e+00
  5.751114e+00    3.504100e+00
  5.766990e+00    3.506436e+00
  5.782865e+00    3.523769e+00
  5.798741e+00    3.530199e+00
  5.814616e+00    3.529875e+00
  5.830492e+00    3.553437e+00
  5.846367e+00    3.526084e+00
  5.862243e+00    3.533608e+00
  5.878119e+00    3.530273e+00
  5.893994e+00    3.549246e+00
  5.909870e+00    3.557540e+00
  5.925745e+00    3.547129e+00
  5.941621e+00    3.475151e+00
  5.957497e+00    3.327550e+00
  5.973372e+00    3.466317e+00
  5.989248e+00    3.528053e+00
  6.005123e+00    3.561126e+00
  6.020999e+00    3.592119e+00
  6.036874e+00    3.584921e+00
  6.052750e+00    3.506599e+00
  6.068626e+00    3.529032e+00
  6.084501e+00    3.524147e+00
  6.100377e+00    3.551209e+00
  6.116252e+00    3.546459e+00
  6.132128e+00    3.623824e+00
  6.148003e+00    3.596672e+00
  6.163879e+00    3.538514e+00
  6.179755e+00    3.479784e+00
  6.195630e+00    3.529249e+00
  6.211506e+00    3.510818e+00
  6.227381e+00    3.550675e+00
  6.243257e+00    3.578386e+00
  6.259132e+00    3.499062e+00
  6.275008e+00    3.489052e+00
  6.290884e+00    3.433102e+00
  6.306759e+00    3.440689e+00
  6.322635e+00    3.552727e+00
  6.338510e+00    3.469774e+00
  6.354386e+00    3.466153e+00
  6.370261e+00    3.482021e+00
  6.386137e+00    3.457602e+00
  6.402013e+00    3.503652e+00
  6.417888e+00    3.566335e+00
  6.433764e+00    3.447609e+00
  6.449639e+00    3.507843e+00
  6.465515e+00    3.515204e+00
  6.481390e+00    3.580234e+00
  6.497266e+00    3.552716e+00
  6.513142e+00    3.565444e+00
  6.529017e+00    3.552445e+00
  6.544893e+00    3.504931e+00
  6.560768e+00    3.494712e+00
  6.576644e+00    3.489529e+00
  6.592519e+00    3.538915e+00
  6.608395e+00    3.487628e+00
  6.624271e+00    3.499933e+00
  6.640146e+00    3.540944e+00
  6.656022e+00    3.586732e+00
  6.671897e+00    3.521992e+00
  6.687773e+00    3.501528e+00
  6.703648e+00    3.558299e+00
  6.719524e+00    3.531011e+00
  6.735400e+00    3.517620e+00
  6.751275e+00    3.574383e+00
  6.767151e+00    3.510772e+00
  6.783026e+00    3.470206e+00
  6.798902e+00    3.466393e+00
  6.814777e+00    3.485445e+00
  6.830653e+00    3.452805e+00
  6.846529e+00    3.527443e+00
  6.862404e+00    3.503564e+00
  6.878280e+00    3.434507e+00
  6.894155e+00    3.482939e+00
  6.910031e+00    3.442518e+00
  6.925907e+00    3.504962e+00
  6.941782e+00    3.506395e+00
  6.957658e+00    3.520020e+00
  6.973533e+00    3.445420e+00
  6.989409e+00    3.445356e+00
  7.005284e+00    3.454278e+00
  7.021160e+00    3.480765e+00
  7.037036e+00    3.484681e+00
  7.052911e+00    3.528612e+00
  7.068787e+00    3.414020e+00
  7.084662e+00    3.388501e+00
  7.100538e+00    3.462493e+00
  7.116413e+00    3.521152e+00
  7.132289e+00    3.458918e+00
  7.148165e+00    3.451123e+00
  7.164040e+00    3.523748e+00
  7.179916e+00    3.582770e+00
  7.195791e+00    3.518603e+00
  7.211667e+00    3.499373e+00
  7.227542e+00    3.469944e+00
  7.243418e+00    3.438412e+00
  7.259294e+00    3.408847e+00
  7.275169e+00    3.424463e+00
  7.291045e+00    3.528233e+00
  7.306920e+00    3.472991e+00
  7.322796e+00    3.426442e+00
  7.338671e+00    3.430295e+00
  7.354547e+00    3.488730e+00
  7.370423e+00    3.437710e+00
  7.386298e+00    3.452143e+00
  7.402174e+00    3.473489e+00
  7.418049e+00    3.440229e+00
  7.433925e+00    3.418567e+00
  7.449800e+00    3.450197e+00
  7.465676e+00    3.493729e+00
  7.481552e+00    3.422524e+00
  7.497427e+00    3.528764e+00
  7.513303e+00    3.494236e+00
  7.529178e+00    3.452574e+00
  7.545054e+00    3.489863e+00
  7.560929e+00    3.450823e+00
  7.576805e+00    3.434694e+00
  7.592681e+00    3.474432e+00
  7.608556e+00    3.394654e+00
  7.624432e+00    3.421085e+00
  7.640307e+00    3.421634e+00
  7.656183e+00    3.368086e+00
  7.672058e+00    3.481585e+00
  7.687934e+00    3.477967e+00
  7.703810e+00    3.387003e+00
  7.719685e+00    3.420408e+00
  7.735561e+00    3.357165e+00
  7.751436e+00    3.354823e+00
  7.767312e+00    3.409247e+00
  7.783187e+00    3.437839e+00
  7.799063e+00    3.416459e+00
  7.814939e+00    3.413241e+00
  7.830814e+00    3.423815e+00
  7.846690e+00    3.400995e+00
  7.862565e+00    3.370961e+00
  7.878441e+00    3.359798e+00
  7.894317e+00    3.410537e+00
  7.910192e+00    3.353940e+00
  7.926068e+00    3.433132e+00
  7.941943e+00    3.423652e+00
  7.957819e+00    3.387740e+00
  7.973694e+00    3.350856e+00
  7.989570e+00    3.355919e+00
  8.005446e+00    3.431842e+00
  8.021321e+00    3.473993e+00
  8.037197e+00    3.445405e+00
  8.053072e+00    3.394194e+00
  8.068948e+00    3.393053e+00
  8.084823e+00    3.333842e+00
  8.100699e+00    3.372594e+00
  8.116575e+00    3.326747e+00
  8.132450e+00    3.388454e+00
  8.148326e+00    3.424009e+00
  8.164201e+00    3.431228e+00
  8.180077e+00    3.399234e+00
  8.195952e+00    3.395962e+00
  8.211828e+00    3.432651e+00
  8.227704e+00    3.466814e+00
  8.243579e+00    3.434585e+00
  8.259455e+00    3.436050e+00
  8.275330e+00    3.377002e+00
  8.291206e+00    3.350399e+00
  8.307081e+00    3.337873e+00
  8.322957e+00    3.333807e+00
  8.338833e+00    3.256480e+00
  8.354708e+00    3.287228e+00
  8.370584e+00    3.341339e+00
  8.386459e+00    3.277208e+00
  8.402335e+00    3.298448e+00
  8.418210e+00    3.386785e+00
  8.434086e+00    3.408708e+00
  8.449962e+00    3.420640e+00
  8.465837e+00    3.412885e+00
  8.481713e+00    3.436716e+00
  8.497588e+00    3.423070e+00
  8.513464e+00    3.330386e+00
  8.529339e+00    3.313058e+00
  8.545215e+00    3.325013e+00
  8.561091e+00    3.292660e+00
  8.576966e+00    3.272004e+00
  8.592842e+00    3.270210e+00
  8.608717e+00    3.307236e+00
  8.624593e+00    3.360799e+00
  8.640468e+00    3.307784e+00
  8.656344e+00    3.300562e+00
  8.672220e+00    3.268997e+00
  8.688095e+00    3.274272e+00
  8.703971e+00    3.297620e+00
  8.719846e+00    3.268508e+00
  8.735722e+00    3.293454e+00
  8.751598e+00    3.308569e+00
  8.767473e+00    3.365428e+00
  8.783349e+00    3.356248e+00
  8.799224e+00    3.319485e+00
  8.815100e+00    3.245602e+00
  8.830975e+00    3.231336e+00
  8.846851e+00    3.315263e+00
  8.862727e+00    3.337767e+00
  8.878602e+00    3.350871e+00
  8.894478e+00    3.285964e+00
  8.910353e+00    3.211091e+00
  8.926229e+00    3.229765e+00
  8.942104e+00    3.177733e+00
  8.957980e+00    3.234713e+00
  8.973856e+00    3.247603e+00
  8.989731e+00    3.193051e+00
  9.005607e+00    3.185739e+00
  9.021482e+00    3.191208e+00
  9.037358e+00    3.194879e+00
  9.053233e+00    3.246730e+00
  9.069109e+00    3.187849e+00
  9.084985e+00    3.226741e+00
  9.100860e+00    3.233638e+00
  9.116736e+00    3.191787e+00
  9.132611e+00    3.143883e+00
  9.148487e+00    3.186352e+00
  9.164362e+00    3.251445e+00
  9.180238e+00    3.236882e+00
  9.196114e+00    3.231958e+00
  9.211989e+00    3.233063e+00
  9.227865e+00    3.264637e+00
  9.243740e+00    3.259655e+00
  9.259616e+00    3.233351e+00
  9.275491e+00    3.218058e+00
  9.291367e+00    3.183751e+00
  9.307243e+00    3.192211e+00
  9.323118e+00    3.189052e+00
  9.338994e+00    3.173072e+00
  9.354869e+00    3.179202e+00
  9.370745e+00    3.238030e+00
  9.386620e+00    3.201659e+00
  9.402496e+00    3.190629e+00
  9.418372e+00    3.189512e+00
  9.434247e+00    3.183278e+00
  9.450123e+00    3.192914e+00
  9.465998e+00    3.193093e+00
  9.481874e+00    3.163103e+00
  9.497749e+00    3.137880e+00
  9.513625e+00    3.180663e+00
  9.529501e+00    3.195496e+00
  9.545376e+00    3.204521e+00
  9.561252e+00    3.210166e+00
  9.577127e+00    3.203884e+00
  9.593003e+00    3.078526e+00
  9.608878e+00    3.126289e+00
  9.624754e+00    3.122255e+00
  9.640630e+00    3.099226e+00
  9.656505e+00    3.127115e+00
  9.672381e+00    3.172052e+00
  9.688256e+00    3.227050e+00
  9.704132e+00    3.234663e+00
  9.720008e+00    3.132699e+00
  9.735883e+00    3.162519e+00
  9.751759e+00    3.224051e+00
  9.767634e+00    3.180780e+00
  9.783510e+00    3.174894e+00
  9.799385e+00    3.131028e+00
  9.815261e+00    3.084500e+00
  9.831137e+00    3.125601e+00
  9.847012e+00    3.106780e+00
  9.862888e+00    3.144625e+00
  9.878763e+00    3.068599e+00
  9.894639e+00    3.069747e+00
  9.910514e+00    3.099001e+00
  9.926390e+00    3.118297e+00
  9.942266e+00    3.063309e+00
  9.958141e+00    3.040345e+00
  9.974017e+00    3.072813e+00
  9.989892e+00    3.062900e+00
  1.000577e+01    3.033322e+00
  1.002164e+01    3.057221e+00
  1.003752e+01    3.073858e+00
  1.005339e+01    3.055952e+00
  1.006927e+01    3.034995e+00
  1.008515e+01    3.047614e+00
  1.010102e+01    3.043124e+00
  1.011690e+01    3.047100e+00
  1.013277e+01    3.028719e+00
  1.014865e+01    3.089831e+00
  1.016452e+01    3.082538e+00
  1.018040e+01    2.984413e+00
  1.019627e+01    2.962772e+00
  1.021215e+01    3.033325e+00
  1.022803e+01    3.060886e+00
  1.024390e+01    3.052340e+00
  1.025978e+01    3.039529e+00
  1.027565e+01    3.050832e+00
  1.029153e+01    3.056684e+00
  1.030740e+01    3.090100e+00
  1.032328e+01    3.014679e+00
  1.033915e+01    2.998955e+00
  1.035503e+01    2.986385e+00
  1.037091e+01    2.987167e+00
  1.038678e+01    3.059196e+00
  1.040266e+01    3.048589e+00
  1.041853e+01    3.035140e+00
  1.043441e+01    3.020262e+00
  1.045028e+01    2.984206e+00
  1.046616e+01    2.968057e+00
  1.048204e+01    2.999514e+00
  1.049791e+01    2.955227e+00
  1.051379e+01    2.966540e+00
  1.052966e+01    2.984292e+00
  1.054554e+01    2.995308e+00
  1.056141e+01    2.963418e+00
  1.057729e+01    2.978299e+00
  1.059316e+01    2.963690e+00
  1.060904e+01    2.998347e+00
  1.062492e+01    3.041863e+00
  1.064079e+01    2.996243e+00
  1.065667e+01    2.937300e+00
  1.067254e+01    2.920195e+00
  1.068842e+01    2.920295e+00
  1.070429e+01    2.935405e+00
  1.072017e+01    2.956157e+00
  1.073604e+01    2.907090e+00
  1.075192e+01    2.923827e+00
  1.076780e+01    2.935009e+00
  1.078367e+01    2.883084e+00
  1.079955e+01    2.919925e+00
  1.081542e+01    2.934447e+00
  1.083130e+01    2.917953e+00
  1.084717e+01    2.964707e+00
  1.086305e+01    2.903539e+00
  1.087892e+01    2.862132e+00
  1.089480e+01    2.890173e+00
  1.091068e+01    2.902130e+00
  1.092655e+01    2.893746e+00
  1.094243e+01    2.875666e+00
  1.095830e+01    2.874140e+00
  1.097418e+01    2.889862e+00
  1.099005e+01    2.889182e+00
  1.100593e+01    2.874187e+00
  1.102180e+01    2.869146e+00
  1.103768e+01    2.856221e+00
  1.105356e+01    2.814522e+00
  1.106943e+01    2.843385e+00
  1.108531e+01    2.827010e+00
  1.110118e+01    2.817629e+00
  1.111706e+01    2.874923e+00
  1.113293e+01    2.893545e+00
  1.114881e+01    2.828942e+00
  1.116468e+01    2.840238e+00
  1.118056e+01    2.803319e+00
  1.119644e+01    2.806470e+00
  1.121231e+01    2.845706e+00
  1.122819e+01    2.830754e+00
  1.124406e+01    2.823833e+00
  1.125994e+01    2.828302e+00
  1.127581e+01    2.767820e+00
  1.129169e+01    2.830718e+00
  1.130756e+01    2.799453e+00
  1.132344e+01    2.819988e+00
  1.133932e+01    2.769020e+00
  1.135519e+01    2.807168e+00
  1.137107e+01    2.813557e+00
  1.138694e+01    2.816965e+00
  1.140282e+01    2.785255e+00
  1.141869e+01    2.784512e+00
  1.143457e+01    2.798719e+00
  1.145045e+01    2.722656e+00
  1.146632e+01    2.698825e+00
  1.148220e+01    2.768221e+00
  1.149807e+01    2.753568e+00
  1.151395e+01    2.718746e+00
  1.152982e+01    2.769455e+00
  1.154570e+01    2.735590e+00
  1.156157e+01    2.760382e+00
  1.157745e+01    2.736490e+00
  1.159333e+01    2.752310e+00
  1.160920e+01    2.733677e+00
  1.162508e+01    2.708012e+00
  1.164095e+01    2.702298e+00
  1.165683e+01    2.740321e+00
  1.167270e+01    2.722811e+00
  1.168858e+01    2.751959e+00
  1.170445e+01    2.754339e+00
  1.172033e+01    2.700054e+00
  1.173621e+01    2.719097e+00
  1.175208e+01    2.669574e+00
  1.176796e+01    2.703748e+00
  1.178383e+01    2.782157e+00
  1.179971e+01    2.706033e+00
  1.181558e+01    2.691442e+00
  1.183146e+01    2.695581e+00
  1.184733e+01    2.639156e+00
  1.186321e+01    2.682261e+00
  1.187909e+01    2.678532e+00
  1.189496e+01    2.699656e+00
  1.191084e+01    2.669348e+00
  1.192671e+01    2.701482e+00
  1.194259e+01    2.654530e+00
  1.195846e+01    2.664104e+00
  1.197434e+01    2.690944e+00
  1.199021e+01    2.686732e+00
  1.200609e+01    2.651785e+00
  1.202197e+01    2.651389e+00
  1.203784e+01    2.700240e+00
  1.205372e+01    2.659892e+00
  1.206959e+01    2.662629e+00
  1.208547e+01    2.641776e+00
  1.210134e+01    2.643051e+00
  1.211722e+01    2.636651e+00
  1.213309e+01    2.627097e+00
  1.214897e+01    2.645631e+00
  1.216485e+01    2.655509e+00
  1.218072e+01    2.684641e+00
  1.219660e+01    2.673934e+00
  1.221247e+01    2.684439e+00
  1.222835e+01    2.685090e+00
  1.224422e+01    2.649048e+00
  1.226010e+01    2.659052e+00
  1.227597e+01    2.637310e+00
  1.229185e+01    2.603555e+00
  1.230773e+01    2.639802e+00
  1.232360e+01    2.641403e+00
  1.233948e+01    2.651307e+00
  1.235535e+01    2.669806e+00
  1.237123e+01    2.682007e+00
  1.238710e+01    2.664559e+00
  1.240298e+01    2.683756e+00
  1.241886e+01    2.689237e+00
  1.243473e+01    2.658716e+00
  1.245061e+01    2.622137e+00
  1.246648e+01    2.636019e+00
  1.248236e+01    2.665319e+00
  1.249823e+01    2.660726e+00
  1.251411e+01    2.635070e+00
  1.252998e+01    2.656016e+00
  1.254586e+01    2.717909e+00
  1.256174e+01    2.731132e+00
  1.257761e+01    2.745158e+00
  1.259349e+01    2.773163e+00
  1.260936e+01    2.729299e+00
  1.262524e+01    2.724176e+00
  1.264111e+01    2.703133e+00
  1.265699e+01    2.707022e+00
  1.267286e+01    2.763561e+00
  1.268874e+01    2.813348e+00
  1.270462e+01    2.773719e+00
  1.272049e+01    2.777237e+00
  1.273637e+01    2.790634e+00
  1.275224e+01    2.836896e+00
  1.276812e+01    2.892968e+00
  1.278399e+01    2.935101e+00
  1.279987e+01    2.924109e+00
  1.281574e+01    3.011035e+00
  1.283162e+01    3.071162e+00
  1.284750e+01    3.103678e+00
  1.286337e+01    3.219304e+00
  1.287925e+01    3.368951e+00
  1.289512e+01    3.456888e+00
  1.291100e+01    3.608234e+00
  1.292687e+01    3.806000e+00
  1.294275e+01    4.057213e+00
  1.295862e+01    4.382640e+00
  1.297450e+01    4.743555e+00
  1.299038e+01    5.157561e+00
  1.300625e+01    5.778924e+00
  1.302213e+01    6.634247e+00
  1.303800e+01    7.667065e+00
  1.305388e+01    8.834926e+00
  1.306975e+01    1.016441e+01
  1.308563e+01    1.140849e+01
  1.310150e+01    1.266028e+01
  1.311738e+01    1.371410e+01
  1.313326e+01    1.467219e+01
  1.314913e+01    1.552903e+01
  1.316501e+01    1.613400e+01
  1.318088e+01    1.623581e+01
  1.319676e+01    1.555687e+01
  1.321263e+01    1.401077e+01
  1.322851e+01    1.227778e+01
  1.324438e+01    1.037246e+01
  1.326026e+01    8.907431e+00
  1.327614e+01    7.643174e+00
  1.329201e+01    6.610739e+00
  1.330789e+01    5.913406e+00
  1.332376e+01    5.230588e+00
  1.333964e+01    4.726452e+00
  1.335551e+01    4.407674e+00
  1.337139e+01    4.051018e+00
  1.338727e+01    3.722240e+00
  1.340314e+01    3.533041e+00
  1.341902e+01    3.403939e+00
  1.343489e+01    3.256300e+00
  1.345077e+01    3.214521e+00
  1.346664e+01    3.129574e+00
  1.348252e+01    3.029956e+00
  1.349839e+01    2.929432e+00
  1.351427e+01    2.869754e+00
  1.353015e+01    2.848492e+00
  1.354602e+01    2.804668e+00
  1.356190e+01    2.725906e+00
  1.357777e+01    2.710615e+00
  1.359365e+01    2.666345e+00
  1.360952e+01    2.660856e+00
  1.362540e+01    2.629813e+00
  1.364127e+01    2.596135e+00
  1.365715e+01    2.557555e+00
  1.367303e+01    2.533123e+00
  1.368890e+01    2.553430e+00
  1.370478e+01    2.519081e+00
  1.372065e+01    2.489520e+00
  1.373653e+01    2.442536e+00
  1.375240e+01    2.426340e+00
  1.376828e+01    2.461329e+00
  1.378415e+01    2.450261e+00
  1.380003e+01    2.462937e+00
  1.381591e+01    2.485565e+00
  1.383178e+01    2.457975e+00
  1.384766e+01    2.400341e+00
  1.386353e+01    2.388152e+00
  1.387941e+01    2.374585e+00
  1.389528e+01    2.371452e+00
  1.391116e+01    2.409972e+00
  1.392703e+01    2.397727e+00
  1.394291e+01    2.389585e+00
  1.395879e+01    2.352687e+00
  1.397466e+01    2.363986e+00
  1.399054e+01    2.381544e+00
  1.400641e+01    2.388894e+00
  1.402229e+01    2.344725e+00
  1.403816e+01    2.316568e+00
  1.405404e+01    2.316961e+00
  1.406991e+01    2.322832e+00
  1.408579e+01    2.354767e+00
  1.410167e+01    2.325271e+00
  1.411754e+01    2.314903e+00
  1.413342e+01    2.322360e+00
  1.414929e+01    2.315016e+00
  1.416517e+01    2.293043e+00
  1.418104e+01    2.272205e+00
  1.419692e+01    2.248212e+00
  1.421279e+01    2.249733e+00
  1.422867e+01    2.244341e+00
  1.424455e+01    2.238302e+00
  1.426042e+01    2.265650e+00
  1.427630e+01    2.241064e+00
  1.429217e+01    2.244713e+00
  1.430805e+01    2.304476e+00
  1.432392e+01    2.292982e+00
  1.433980e+01    2.267043e+00
  1.435568e+01    2.217935e+00
  1.437155e+01    2.209450e+00
  1.438743e+01    2.210438e+00
  1.440330e+01    2.209389e+00
  1.441918e+01    2.152020e+00
  1.443505e+01    2.157860e+00
  1.445093e+01    2.218752e+00
  1.446680e+01    2.230401e+00
  1.448268e+01    2.201005e+00
  1.449856e+01    2.183853e+00
  1.451443e+01    2.179509e+00
  1.453031e+01    2.200553e+00
  1.454618e+01    2.196534e+00
  1.456206e+01    2.225991e+00
  1.457793e+01    2.178702e+00
  1.459381e+01    2.160665e+00
  1.460968e+01    2.144112e+00
  1.462556e+01    2.165153e+00
  1.464144e+01    2.200013e+00
  1.465731e+01    2.211566e+00
  1.467319e+01    2.192371e+00
  1.468906e+01    2.175759e+00
  1.470494e+01    2.148999e+00
  1.472081e+01    2.172423e+00
  1.473669e+01    2.175450e+00
  1.475256e+01    2.165634e+00
  1.476844e+01    2.188091e+00
  1.478432e+01    2.178693e+00
  1.480019e+01    2.202954e+00
  1.481607e+01    2.212178e+00
  1.483194e+01    2.183347e+00
  1.484782e+01    2.206547e+00
  1.486369e+01    2.168918e+00
  1.487957e+01    2.220444e+00
  1.489544e+01    2.218789e+00
  1.491132e+01    2.238443e+00
  1.492720e+01    2.248094e+00
  1.494307e+01    2.277422e+00
  1.495895e+01    2.272453e+00
  1.497482e+01    2.292851e+00
  1.499070e+01    2.368609e+00
  1.500657e+01    2.394913e+00
  1.502245e+01    2.471370e+00
  1.503832e+01    2.571178e+00
  1.505420e+01    2.688967e+00
  1.507008e+01    2.786649e+00
  1.508595e+01    2.958599e+00
  1.510183e+01    3.176753e+00
  1.511770e+01    3.419457e+00
  1.513358e+01    3.722252e+00
  1.514945e+01    4.143269e+00
  1.516533e+01    4.488692e+00
  1.518120e+01    4.853926e+00
  1.519708e+01    5.135577e+00
  1.521296e+01    5.347651e+00
  1.522883e+01    5.525894e+00
  1.524471e+01    5.684867e+00
  1.526058e+01    5.737311e+00
  1.527646e+01    5.632733e+00
  1.529233e+01    5.357783e+00
  1.530821e+01    4.992249e+00
  1.532409e+01    4.606000e+00
  1.533996e+01    4.114122e+00
  1.535584e+01    3.683178e+00
  1.537171e+01    3.384141e+00
  1.538759e+01    3.069997e+00
  1.540346e+01    2.863643e+00
  1.541934e+01    2.723284e+00
  1.543521e+01    2.559693e+00
  1.545109e+01    2.487135e+00
  1.546697e+01    2.368533e+00
  1.548284e+01    2.305608e+00
  1.549872e+01    2.277094e+00
  1.551459e+01    2.223880e+00
  1.553047e+01    2.152879e+00
  1.554634e+01    2.153444e+00
  1.556222e+01    2.127831e+00
  1.557809e+01    2.092073e+00
  1.559397e+01    2.042891e+00
  1.560985e+01    2.057111e+00
  1.562572e+01    2.068138e+00
  1.564160e+01    2.019051e+00
  1.565747e+01    2.033134e+00
  1.567335e+01    2.009891e+00
  1.568922e+01    1.961369e+00
  1.570510e+01    1.931317e+00
  1.572097e+01    1.934948e+00
  1.573685e+01    1.965565e+00
  1.575273e+01    1.973780e+00
  1.576860e+01    1.943386e+00
  1.578448e+01    1.931294e+00
  1.580035e+01    1.931547e+00
  1.581623e+01    1.899035e+00
  1.583210e+01    1.864556e+00
  1.584798e+01    1.890089e+00
  1.586385e+01    1.896408e+00
  1.587973e+01    1.878537e+00
  1.589561e+01    1.885674e+00
  1.591148e+01    1.888240e+00
  1.592736e+01    1.852112e+00
  1.594323e+01    1.870233e+00
  1.595911e+01    1.865058e+00
  1.597498e+01    1.840598e+00
  1.599086e+01    1.844664e+00
  1.600673e+01    1.818141e+00
  1.602261e+01    1.826022e+00
  1.603849e+01    1.836895e+00
  1.605436e+01    1.831100e+00
  1.607024e+01    1.807842e+00
  1.608611e+01    1.817014e+00
  1.610199e+01    1.810826e+00
  1.611786e+01    1.828201e+00
  1.613374e+01    1.792047e+00
  1.614961e+01    1.816746e+00
  1.616549e+01    1.817797e+00
  1.618137e+01    1.811246e+00
  1.619724e+01    1.783631e+00
  1.621312e+01    1.769440e+00
  1.622899e+01    1.800560e+00
  1.624487e+01    1.823441e+00
  1.626074e+01    1.780133e+00
  1.627662e+01    1.742934e+00
  1.629250e+01    1.754094e+00
  1.630837e+01    1.767952e+00
  1.632425e+01    1.782903e+00
  1.634012e+01    1.759925e+00
  1.635600e+01    1.771544e+00
  1.637187e+01    1.781762e+00
  1.638775e+01    1.779057e+00
  1.640362e+01    1.764784e+00
  1.641950e+01    1.747763e+00
  1.643538e+01    1.745505e+00
  1.645125e+01    1.758733e+00
  1.646713e+01    1.756691e+00
  1.648300e+01    1.760237e+00
  1.649888e+01    1.745019e+00
  1.651475e+01    1.728896e+00
  1.653063e+01    1.699745e+00
  1.654650e+01    1.739484e+00
  1.656238e+01    1.732446e+00
  1.657826e+01    1.715462e+00
  1.659413e+01    1.709236e+00
  1.661001e+01    1.715412e+00
  1.662588e+01    1.736915e+00
  1.664176e+01    1.718458e+00
  1.665763e+01    1.698751e+00
  1.667351e+01    1.722360e+00
  1.668938e+01    1.709732e+00
  1.670526e+01    1.680962e+00
  1.672114e+01    1.646505e+00
  1.673701e+01    1.685529e+00
  1.675289e+01    1.660461e+00
  1.676876e+01    1.681498e+00
  1.678464e+01    1.662048e+00
  1.680051e+01    1.660680e+00
  1.681639e+01    1.688505e+00
  1.683226e+01    1.689647e+00
  1.684814e+01    1.678744e+00
  1.686402e+01    1.660913e+00
  1.687989e+01    1.643552e+00
  1.689577e+01    1.667470e+00
  1.691164e+01    1.689228e+00
  1.692752e+01    1.652660e+00
  1.694339e+01    1.644207e+00
  1.695927e+01    1.678399e+00
  1.697514e+01    1.659372e+00
  1.699102e+01    1.661429e+00
  1.700690e+01    1.672480e+00
  1.702277e+01    1.670092e+00
  1.703865e+01    1.662912e+00
  1.705452e+01    1.641951e+00
  1.707040e+01    1.631773e+00
  1.708627e+01    1.614490e+00
  1.710215e+01    1.618105e+00
  1.711802e+01    1.621889e+00
  1.713390e+01    1.649432e+00
  1.714978e+01    1.608174e+00
  1.716565e+01    1.599741e+00
  1.718153e+01    1.616831e+00
  1.719740e+01    1.603900e+00
  1.721328e+01    1.599819e+00
  1.722915e+01    1.596359e+00
  1.724503e+01    1.588449e+00
  1.726091e+01    1.587045e+00
  1.727678e+01    1.597159e+00
  1.729266e+01    1.590844e+00
  1.730853e+01    1.599244e+00
  1.732441e+01    1.589035e+00
  1.734028e+01    1.564520e+00
  1.735616e+01    1.578401e+00
  1.737203e+01    1.582332e+00
  1.738791e+01    1.541277e+00
  1.740379e+01    1.582433e+00
  1.741966e+01    1.566537e+00
  1.743554e+01    1.549301e+00
  1.745141e+01    1.550225e+00
  1.746729e+01    1.527997e+00
  1.748316e+01    1.573232e+00
  1.749904e+01    1.586440e+00
  1.751491e+01    1.544827e+00
  1.753079e+01    1.541529e+00
  1.754667e+01    1.550579e+00
  1.756254e+01    1.539308e+00
  1.757842e+01    1.551050e+00
  1.759429e+01    1.539205e+00
  1.761017e+01    1.537277e+00
  1.762604e+01    1.552360e+00
  1.764192e+01    1.543885e+00
  1.765779e+01    1.527256e+00
  1.767367e+01    1.516976e+00
  1.768955e+01    1.544435e+00
  1.770542e+01    1.537421e+00
  1.772130e+01    1.554988e+00
  1.773717e+01    1.547662e+00
  1.775305e+01    1.541228e+00
  1.776892e+01    1.552253e+00
  1.778480e+01    1.539372e+00
  1.780067e+01    1.532757e+00
  1.781655e+01    1.523621e+00
  1.783243e+01    1.512043e+00
  1.784830e+01    1.514591e+00
  1.786418e+01    1.493583e+00
  1.788005e+01    1.505576e+00
  1.789593e+01    1.521703e+00
  1.791180e+01    1.479218e+00
  1.792768e+01    1.510848e+00
  1.794355e+01    1.520791e+00
  1.795943e+01    1.505878e+00
  1.797531e+01    1.501528e+00
  1.799118e+01    1.498092e+00
  1.800706e+01    1.507016e+00
  1.802293e+01    1.482335e+00
  1.803881e+01    1.465016e+00
  1.805468e+01    1.471447e+00
  1.807056e+01    1.470068e+00
  1.808643e+01    1.488398e+00
  1.810231e+01    1.486587e+00
  1.811819e+01    1.497643e+00
  1.813406e+01    1.483043e+00
  1.814994e+01    1.506436e+00
  1.816581e+01    1.476006e+00
  1.818169e+01    1.462497e+00
  1.819756e+01    1.463651e+00
  1.821344e+01    1.461360e+00
  1.822932e+01    1.453467e+00
  1.824519e+01    1.435559e+00
  1.826107e+01    1.450066e+00
  1.827694e+01    1.463833e+00
  1.829282e+01    1.453840e+00
  1.830869e+01    1.446885e+00
  1.832457e+01    1.489851e+00
  1.834044e+01    1.465141e+00
  1.835632e+01    1.440909e+00
  1.837220e+01    1.418143e+00
  1.838807e+01    1.413040e+00
  1.840395e+01    1.433044e+00
  1.841982e+01    1.443814e+00
  1.843570e+01    1.418702e+00
  1.845157e+01    1.421615e+00
  1.846745e+01    1.412996e+00
  1.848332e+01    1.441126e+00
  1.849920e+01    1.453280e+00
  1.851508e+01    1.436078e+00
  1.853095e+01    1.411335e+00
  1.854683e+01    1.415128e+00
  1.856270e+01    1.430706e+00
  1.857858e+01    1.418737e+00
  1.859445e+01    1.414460e+00
  1.861033e+01    1.411892e+00
  1.862620e+01    1.412599e+00
  1.864208e+01    1.407952e+00
  1.865796e+01    1.402166e+00
  1.867383e+01    1.394485e+00
  1.868971e+01    1.399489e+00
  1.870558e+01    1.388970e+00
  1.872146e+01    1.393250e+00
  1.873733e+01    1.380305e+00
  1.875321e+01    1.379645e+00
  1.876908e+01    1.408097e+00
  1.878496e+01    1.394905e+00
  1.880084e+01    1.363218e+00
  1.881671e+01    1.338928e+00
  1.883259e+01    1.384997e+00
  1.884846e+01    1.383651e+00
  1.886434e+01    1.347595e+00
  1.888021e+01    1.357115e+00
  1.889609e+01    1.380569e+00
  1.891196e+01    1.373325e+00
  1.892784e+01    1.374296e+00
  1.894372e+01    1.365501e+00
  1.895959e+01    1.369675e+00
  1.897547e+01    1.341874e+00
  1.899134e+01    1.356623e+00
  1.900722e+01    1.338613e+00
  1.902309e+01    1.359817e+00
  1.903897e+01    1.381617e+00
  1.905484e+01    1.354571e+00
  1.907072e+01    1.363008e+00
  1.908660e+01    1.343998e+00
  1.910247e+01    1.331180e+00
  1.911835e+01    1.331895e+00
  1.913422e+01    1.354897e+00
  1.915010e+01    1.357071e+00
  1.916597e+01    1.336595e+00
  1.918185e+01    1.321253e+00
  1.919773e+01    1.319400e+00
  1.921360e+01    1.346952e+00
  1.922948e+01    1.327598e+00
  1.924535e+01    1.354070e+00
  1.926123e+01    1.348487e+00
  1.927710e+01    1.338549e+00
  1.929298e+01    1.341886e+00
  1.930885e+01    1.343432e+00
  1.932473e+01    1.338410e+00
  1.934061e+01    1.343348e+00
  1.935648e+01    1.310176e+00
  1.937236e+01    1.280041e+00
  1.938823e+01    1.304264e+00
  1.940411e+01    1.300426e+00
  1.941998e+01    1.310183e+00
  1.943586e+01    1.276559e+00
  1.945173e+01    1.295613e+00
  1.946761e+01    1.288481e+00
  1.948349e+01    1.324562e+00
  1.949936e+01    1.316919e+00
  1.951524e+01    1.315300e+00
  1.953111e+01    1.304946e+00
  1.954699e+01    1.299917e+00
  1.956286e+01    1.319669e+00
  1.957874e+01    1.323966e+00
  1.959461e+01    1.305007e+00
  1.961049e+01    1.320342e+00
  1.962637e+01    1.314183e+00
  1.964224e+01    1.292758e+00
  1.965812e+01    1.297901e+00
  1.967399e+01    1.286527e+00
  1.968987e+01    1.303203e+00
  1.970574e+01    1.307618e+00
  1.972162e+01    1.290053e+00
  1.973749e+01    1.281861e+00
  1.975337e+01    1.270390e+00
  1.976925e+01    1.290705e+00
  1.978512e+01    1.303465e+00
  1.980100e+01    1.313660e+00
  1.981687e+01    1.303456e+00
  1.983275e+01    1.309065e+00
  1.984862e+01    1.267033e+00
  1.986450e+01    1.270847e+00
  1.988037e+01    1.285765e+00
  1.989625e+01    1.270743e+00
  1.991213e+01    1.262750e+00
  1.992800e+01    1.267525e+00
  1.994388e+01    1.279493e+00
  1.995975e+01    1.264364e+00
  1.997563e+01    1.272664e+00
  1.999150e+01    1.278347e+00
  2.000738e+01    1.256539e+00
  2.002325e+01    1.281891e+00
  2.003913e+01    1.263871e+00
  2.005501e+01    1.234949e+00
  2.007088e+01    1.244526e+00
  2.008676e+01    1.267718e+00
  2.010263e+01    1.240215e+00
  2.011851e+01    1.234355e+00
  2.013438e+01    1.248193e+00
  2.015026e+01    1.241286e+00
  2.016614e+01    1.261397e+00
  2.018201e+01    1.243037e+00
  2.019789e+01    1.263128e+00
  2.021376e+01    1.261380e+00
  2.022964e+01    1.241548e+00
  2.024551e+01    1.252727e+00
  2.026139e+01    1.245834e+00
  2.027726e+01    1.277279e+00
  2.029314e+01    1.255131e+00
  2.030902e+01    1.259482e+00
  2.032489e+01    1.237540e+00
  2.034077e+01    1.225481e+00
  2.035664e+01    1.220014e+00
  2.037252e+01    1.226668e+00
  2.038839e+01    1.227780e+00
  2.040427e+01    1.220936e+00
  2.042014e+01    1.223159e+00
  2.043602e+01    1.232489e+00
  2.045190e+01    1.226105e+00
  2.046777e+01    1.223028e+00
  2.048365e+01    1.216769e+00
  2.049952e+01    1.228163e+00
  2.051540e+01    1.203824e+00
  2.053127e+01    1.212083e+00
  2.054715e+01    1.236259e+00
  2.056302e+01    1.203933e+00
  2.057890e+01    1.219623e+00
  2.059478e+01    1.215931e+00
  2.061065e+01    1.196085e+00
  2.062653e+01    1.207115e+00
  2.064240e+01    1.201678e+00
  2.065828e+01    1.192394e+00
  2.067415e+01    1.224991e+00
  2.069003e+01    1.226152e+00
  2.070590e+01    1.213372e+00
  2.072178e+01    1.208366e+00
  2.073766e+01    1.214096e+00
  2.075353e+01    1.208538e+00
  2.076941e+01    1.217078e+00
  2.078528e+01    1.220511e+00
  2.080116e+01    1.234400e+00
  2.081703e+01    1.234712e+00
  2.083291e+01    1.225404e+00
  2.084878e+01    1.234715e+00
  2.086466e+01    1.210162e+00
  2.088054e+01    1.199880e+00
  2.089641e+01    1.233918e+00
  2.091229e+01    1.213738e+00
  2.092816e+01    1.225157e+00
  2.094404e+01    1.218495e+00
  2.095991e+01    1.186810e+00
  2.097579e+01    1.194800e+00
  2.099166e+01    1.201417e+00
  2.100754e+01    1.192404e+00
  2.102342e+01    1.186603e+00
  2.103929e+01    1.197917e+00
  2.105517e+01    1.195995e+00
  2.107104e+01    1.214949e+00
  2.108692e+01    1.229192e+00
  2.110279e+01    1.232945e+00
  2.111867e+01    1.207052e+00
  2.113455e+01    1.215816e+00
  2.115042e+01    1.195653e+00
  2.116630e+01    1.212277e+00
  2.118217e+01    1.232578e+00
  2.119805e+01    1.201569e+00
  2.121392e+01    1.225828e+00
  2.122980e+01    1.260908e+00
  2.124567e+01    1.254670e+00
  2.126155e+01    1.219009e+00
  2.127743e+01    1.224226e+00
  2.129330e+01    1.214449e+00
  2.130918e+01    1.240249e+00
  2.132505e+01    1.250421e+00
  2.134093e+01    1.249964e+00
  2.135680e+01    1.272932e+00
  2.137268e+01    1.282553e+00
  2.138855e+01    1.285474e+00
  2.140443e+01    1.311264e+00
  2.142031e+01    1.316067e+00
  2.143618e+01    1.313527e+00
  2.145206e+01    1.329536e+00
  2.146793e+01    1.356971e+00
  2.148381e+01    1.368783e+00
  2.149968e+01    1.404771e+00
  2.151556e+01    1.448034e+00
  2.153143e+01    1.471814e+00
  2.154731e+01    1.527436e+00
  2.156319e+01    1.546134e+00
  2.157906e+01    1.592416e+00
  2.159494e+01    1.680693e+00
  2.161081e+01    1.745362e+00
  2.162669e+01    1.836213e+00
  2.164256e+01    1.949073e+00
  2.165844e+01    2.105257e+00
  2.167431e+01    2.262454e+00
  2.169019e+01    2.494085e+00
  2.170607e+01    2.800234e+00
  2.172194e+01    3.148453e+00
  2.173782e+01    3.519779e+00
  2.175369e+01    3.991769e+00
  2.176957e+01    4.595450e+00
  2.178544e+01    5.190232e+00
  2.180132e+01    5.846925e+00
  2.181719e+01    6.506051e+00
  2.183307e+01    7.168848e+00
  2.184895e+01    7.808599e+00
  2.186482e+01    8.278060e+00
  2.188070e+01    8.700541e+00
  2.189657e+01    8.785614e+00
  2.191245e+01    8.616296e+00
  2.192832e+01    8.077575e+00
  2.194420e+01    7.335844e+00
  2.196007e+01    6.372759e+00
  2.197595e+01    5.509283e+00
  2.199183e+01    4.724295e+00
  2.200770e+01    4.042435e+00
  2.202358e+01    3.528430e+00
  2.203945e+01    3.101113e+00
  2.205533e+01    2.739581e+00
  2.207120e+01    2.491967e+00
  2.208708e+01    2.288616e+00
  2.210296e+01    2.069114e+00
  2.211883e+01    1.954168e+00
  2.213471e+01    1.875508e+00
  2.215058e+01    1.743822e+00
  2.216646e+01    1.641122e+00
  2.218233e+01    1.574516e+00
  2.219821e+01    1.520643e+00
  2.221408e+01    1.493999e+00
  2.222996e+01    1.432189e+00
  2.224584e+01    1.387825e+00
  2.226171e+01    1.354541e+00
  2.227759e+01    1.315435e+00
  2.229346e+01    1.279945e+00
  2.230934e+01    1.252462e+00
  2.232521e+01    1.243217e+00
  2.234109e+01    1.244339e+00
  2.235696e+01    1.228000e+00
  2.237284e+01    1.217734e+00
  2.238872e+01    1.203922e+00
  2.240459e+01    1.184468e+00
  2.242047e+01    1.217293e+00
  2.243634e+01    1.162762e+00
  2.245222e+01    1.144285e+00
  2.246809e+01    1.128408e+00
  2.248397e+01    1.139938e+00
  2.249984e+01    1.130387e+00
  2.251572e+01    1.127712e+00
  2.253160e+01    1.112514e+00
  2.254747e+01    1.105555e+00
  2.256335e+01    1.090920e+00
  2.257922e+01    1.088385e+00
  2.259510e+01    1.097613e+00
  2.261097e+01    1.099091e+00
  2.262685e+01    1.086498e+00
  2.264272e+01    1.091933e+00
  2.265860e+01    1.097798e+00
  2.267448e+01    1.073569e+00
  2.269035e+01    1.065922e+00
  2.270623e+01    1.063407e+00
  2.272210e+01    1.069371e+00
  2.273798e+01    1.051526e+00
  2.275385e+01    1.053140e+00
  2.276973e+01    1.060128e+00
  2.278560e+01    1.056496e+00
  2.280148e+01    1.040656e+00
  2.281736e+01    1.045984e+00
  2.283323e+01    1.041075e+00
  2.284911e+01    1.032103e+00
  2.286498e+01    1.027866e+00
  2.288086e+01    1.035938e+00
  2.289673e+01    1.011826e+00
  2.291261e+01    1.012064e+00
  2.292848e+01    1.027688e+00
  2.294436e+01    1.037792e+00
  2.296024e+01    1.028941e+00
  2.297611e+01    1.029091e+00
  2.299199e+01    1.021116e+00
  2.300786e+01    9.945201e-01
  2.302374e+01    1.014821e+00
  2.303961e+01    1.009354e+00
  2.305549e+01    1.023431e+00
  2.307137e+01    1.011100e+00
  2.308724e+01    9.907245e-01
  2.310312e+01    1.002926e+00
  2.311899e+01    1.007773e+00
  2.313487e+01    9.824820e-01
  2.315074e+01    9.627538e-01
  2.316662e+01    9.910425e-01
  2.318249e+01    1.001222e+00
  2.319837e+01    9.986911e-01
  2.321425e+01    9.652617e-01
  2.323012e+01    9.475414e-01
  2.324600e+01    9.657148e-01
  2.326187e+01    9.737984e-01
  2.327775e+01    9.785293e-01
  2.329362e+01    9.741380e-01
  2.330950e+01    9.741134e-01
  2.332537e+01    9.742466e-01
  2.334125e+01    9.659002e-01
  2.335713e+01    9.612290e-01
  2.337300e+01    9.669803e-01
  2.338888e+01    9.731259e-01
  2.340475e+01    9.687804e-01
  2.342063e+01    9.668055e-01
  2.343650e+01    9.602579e-01
  2.345238e+01    9.645546e-01
  2.346825e+01    9.651387e-01
  2.348413e+01    9.387817e-01
  2.350001e+01    9.511262e-01
  2.351588e+01    9.496399e-01
  2.353176e+01    9.378062e-01
  2.354763e+01    9.569327e-01
  2.356351e+01    9.656112e-01
  2.357938e+01    9.496955e-01
  2.359526e+01    9.446450e-01
  2.361113e+01    9.170210e-01
  2.362701e+01    9.436142e-01
  2.364289e+01    9.409075e-01
  2.365876e+01    9.389026e-01
  2.367464e+01    9.506969e-01
  2.369051e+01    9.097969e-01
  2.370639e+01    9.352334e-01
  2.372226e+01    9.316786e-01
  2.373814e+01    9.143744e-01
  2.375401e+01    9.296399e-01
  2.376989e+01    9.120204e-01
  2.378577e+01    9.173456e-01
  2.380164e+01    9.061350e-01
  2.381752e+01    9.213340e-01
  2.383339e+01    9.039554e-01
  2.384927e+01    9.011779e-01
  2.386514e+01    9.165383e-01
  2.388102e+01    8.931130e-01
  2.389689e+01    8.945321e-01
  2.391277e+01    8.934761e-01
  2.392865e+01    9.065206e-01
  2.394452e+01    8.857022e-01
  2.396040e+01    8.846098e-01
  2.397627e+01    8.795661e-01
  2.399215e+01    8.775599e-01
  2.400802e+01    8.874302e-01
  2.402390e+01    8.846985e-01
  2.403978e+01    8.773378e-01
  2.405565e+01    8.808808e-01
  2.407153e+01    8.752653e-01
  2.408740e+01    8.702511e-01
  2.410328e+01    8.832521e-01
  2.411915e+01    8.780091e-01
  2.413503e+01    8.878127e-01
  2.415090e+01    8.948218e-01
  2.416678e+01    8.823175e-01
  2.418266e+01    8.787439e-01
  2.419853e+01    8.857766e-01
  2.421441e+01    8.661174e-01
  2.423028e+01    8.513193e-01
  2.424616e+01    8.607486e-01
  2.426203e+01    8.872061e-01
  2.427791e+01    9.005105e-01
  2.429378e+01    8.952135e-01
  2.430966e+01    8.731642e-01
  2.432554e+01    8.768165e-01
  2.434141e+01    8.894923e-01
  2.435729e+01    9.022552e-01
  2.437316e+01    9.036456e-01
  2.438904e+01    8.845743e-01
  2.440491e+01    8.958706e-01
  2.442079e+01    8.877673e-01
  2.443666e+01    8.762149e-01
  2.445254e+01    9.013158e-01
  2.446842e+01    8.856725e-01
  2.448429e+01    9.021062e-01
  2.450017e+01    8.885056e-01
  2.451604e+01    8.719153e-01
  2.453192e+01    9.024274e-01
  2.454779e+01    8.812010e-01
  2.456367e+01    8.781962e-01
  2.457954e+01    9.016340e-01
  2.459542e+01    8.778564e-01
  2.461130e+01    8.650746e-01
  2.462717e+01    8.814021e-01
  2.464305e+01    8.986514e-01
  2.465892e+01    8.903310e-01
  2.467480e+01    8.884822e-01
  2.469067e+01    8.848730e-01
  2.470655e+01    8.652144e-01
  2.472242e+01    8.848669e-01
  2.473830e+01    8.780518e-01
  2.475418e+01    8.594506e-01
  2.477005e+01    8.589724e-01
  2.478593e+01    8.790599e-01
  2.480180e+01    8.554132e-01
  2.481768e+01    8.799175e-01
  2.483355e+01    8.789448e-01
  2.484943e+01    8.943785e-01
  2.486530e+01    9.001946e-01
  2.488118e+01    8.917992e-01
  2.489706e+01    8.980626e-01
  2.491293e+01    8.792315e-01
  2.492881e+01    8.739140e-01
  2.494468e+01    8.817776e-01
  2.496056e+01    8.632613e-01
  2.497643e+01    8.780085e-01
  2.499231e+01    8.689167e-01
  2.500819e+01    8.765119e-01
  2.502406e+01    8.906252e-01
  2.503994e+01    8.880883e-01
  2.505581e+01    8.898442e-01
  2.507169e+01    8.678386e-01
  2.508756e+01    8.835099e-01
  2.510344e+01    8.978466e-01
  2.511931e+01    8.879933e-01
  2.513519e+01    9.120219e-01
  2.515107e+01    9.088455e-01
  2.516694e+01    9.116731e-01
  2.518282e+01    9.318302e-01
  2.519869e+01    9.393525e-01
  2.521457e+01    9.370209e-01
  2.523044e+01    9.441294e-01
  2.524632e+01    9.215587e-01
  2.526219e+01    9.264574e-01
  2.527807e+01    9.358738e-01
  2.529395e+01    9.167021e-01
  2.530982e+01    9.427267e-01
  2.532570e+01    9.497756e-01
  2.534157e+01    9.378417e-01
  2.535745e+01    9.345325e-01
  2.537332e+01    9.617496e-01
  2.538920e+01    9.653841e-01
  2.540507e+01    9.576597e-01
  2.542095e+01    9.950042e-01
  2.543683e+01    9.937502e-01
  2.545270e+01    1.002096e+00
  2.546858e+01    1.020003e+00
  2.548445e+01    1.029236e+00
  2.550033e+01    1.030693e+00
  2.551620e+01    1.069103e+00
  2.553208e+01    1.095200e+00
  2.554795e+01    1.092044e+00
  2.556383e+01    1.102958e+00
  2.557971e+01    1.122116e+00
  2.559558e+01    1.144148e+00
  2.561146e+01    1.201381e+00
  2.562733e+01    1.243063e+00
  2.564321e+01    1.286633e+00
  2.565908e+01    1.370013e+00
  2.567496e+01    1.435099e+00
  2.569083e+01    1.473584e+00
  2.570671e+01    1.584112e+00
  2.572259e+01    1.704782e+00
  2.573846e+01    1.836007e+00
  2.575434e+01    1.997600e+00
  2.577021e+01    2.190062e+00
  2.578609e+01    2.511876e+00
  2.580196e+01    2.814562e+00
  2.581784e+01    3.223729e+00
  2.583371e+01    3.673161e+00
  2.584959e+01    4.148894e+00
  2.586547e+01    4.656457e+00
  2.588134e+01    5.245969e+00
  2.589722e+01    5.793051e+00
  2.591309e+01    6.332564e+00
  2.592897e+01    6.721704e+00
  2.594484e+01    6.970708e+00
  2.596072e+01    6.976044e+00
  2.597660e+01    6.758297e+00
  2.599247e+01    6.404281e+00
  2.600835e+01    5.812926e+00
  2.602422e+01    5.104630e+00
  2.604010e+01    4.463298e+00
  2.605597e+01    3.838156e+00
  2.607185e+01    3.307492e+00
  2.608772e+01    2.874360e+00
  2.610360e+01    2.569065e+00
  2.611948e+01    2.302451e+00
  2.613535e+01    2.044062e+00
  2.615123e+01    1.896564e+00
  2.616710e+01    1.770541e+00
  2.618298e+01    1.626922e+00
  2.619885e+01    1.561406e+00
  2.621473e+01    1.464314e+00
  2.623060e+01    1.404863e+00
  2.624648e+01    1.342675e+00
  2.626236e+01    1.278309e+00
  2.627823e+01    1.252610e+00
  2.629411e+01    1.223454e+00
  2.630998e+01    1.165165e+00
  2.632586e+01    1.128158e+00
  2.634173e+01    1.122030e+00
  2.635761e+01    1.083493e+00
  2.637348e+01    1.069135e+00
  2.638936e+01    1.023496e+00
  2.640524e+01    1.028533e+00
  2.642111e+01    1.039901e+00
  2.643699e+01    1.016953e+00
  2.645286e+01    1.015153e+00
  2.646874e+01    1.004682e+00
  2.648461e+01    1.005957e+00
  2.650049e+01    1.006230e+00
  2.651636e+01    1.000206e+00
  2.653224e+01    9.969925e-01
  2.654812e+01    9.810044e-01
  2.656399e+01    9.582425e-01
  2.657987e+01    9.764398e-01
  2.659574e+01    9.774921e-01
  2.661162e+01    9.752075e-01
  2.662749e+01    9.738614e-01
  2.664337e+01    9.753234e-01
  2.665924e+01    9.639145e-01
  2.667512e+01    9.603761e-01
  2.669100e+01    9.506434e-01
  2.670687e+01    9.568714e-01
  2.672275e+01    9.624844e-01
  2.673862e+01    9.556466e-01
  2.675450e+01    9.495679e-01
  2.677037e+01    9.685695e-01
  2.678625e+01    9.625930e-01
  2.680212e+01    9.637153e-01
  2.681800e+01    9.712280e-01
  2.683388e+01    9.776263e-01
  2.684975e+01    9.492266e-01
  2.686563e+01    9.378275e-01
  2.688150e+01    9.729755e-01
  2.689738e+01    9.908710e-01
  2.691325e+01    9.982390e-01
  2.692913e+01    9.986637e-01
  2.694501e+01    1.005000e+00
  2.696088e+01    1.035429e+00
  2.697676e+01    1.057410e+00
  2.699263e+01    1.058327e+00
  2.700851e+01    1.089399e+00
  2.702438e+01    1.136077e+00
  2.704026e+01    1.171256e+00
  2.705613e+01    1.233987e+00
  2.707201e+01    1.329201e+00
  2.708789e+01    1.393438e+00
  2.710376e+01    1.497084e+00
  2.711964e+01    1.582902e+00
  2.713551e+01    1.712077e+00
  2.715139e+01    1.849943e+00
  2.716726e+01    1.961703e+00
  2.718314e+01    2.038613e+00
  2.719901e+01    2.111273e+00
  2.721489e+01    2.149511e+00
  2.723077e+01    2.145583e+00
  2.724664e+01    2.057349e+00
  2.726252e+01    1.927249e+00
  2.727839e+01    1.758705e+00
  2.729427e+01    1.681921e+00
  2.731014e+01    1.530414e+00
  2.732602e+01    1.426798e+00
  2.734189e+01    1.297730e+00
  2.735777e+01    1.235579e+00
  2.737365e+01    1.181432e+00
  2.738952e+01    1.117514e+00
  2.740540e+01    1.110756e+00
  2.742127e+01    1.064143e+00
  2.743715e+01    1.046803e+00
  2.745302e+01    9.932706e-01
  2.746890e+01    9.744249e-01
  2.748477e+01    9.970179e-01
  2.750065e+01    9.698768e-01
  2.751653e+01    9.550918e-01
  2.753240e+01    9.417648e-01
  2.754828e+01    9.617376e-01
  2.756415e+01    9.372810e-01
  2.758003e+01    9.156621e-01
  2.759590e+01    9.291854e-01
  2.761178e+01    9.173564e-01
  2.762765e+01    9.076203e-01
  2.764353e+01    9.102132e-01
  2.765941e+01    9.035738e-01
  2.767528e+01    8.888112e-01
  2.769116e+01    9.016356e-01
  2.770703e+01    8.838915e-01
  2.772291e+01    8.904400e-01
  2.773878e+01    8.620849e-01
  2.775466e+01    8.802071e-01
  2.777054e+01    8.732367e-01
  2.778641e+01    8.922656e-01
  2.780229e+01    8.669575e-01
  2.781816e+01    8.613404e-01
  2.783404e+01    8.778415e-01
  2.784991e+01    8.588389e-01
  2.786579e+01    8.424596e-01
  2.788166e+01    8.346656e-01
  2.789754e+01    8.543457e-01
  2.791342e+01    8.647535e-01
  2.792929e+01    8.905522e-01
  2.794517e+01    8.711504e-01
  2.796104e+01    8.620620e-01
  2.797692e+01    8.606418e-01
  2.799279e+01    8.612100e-01
  2.800867e+01    8.557979e-01
  2.802454e+01    8.615642e-01
  2.804042e+01    8.681299e-01
  2.805630e+01    8.577482e-01
  2.807217e+01    8.444940e-01
  2.808805e+01    8.619047e-01
  2.810392e+01    8.500101e-01
  2.811980e+01    8.511807e-01
  2.813567e+01    8.527097e-01
  2.815155e+01    8.489466e-01
  2.816742e+01    8.717209e-01
  2.818330e+01    8.497941e-01
  2.819918e+01    8.519775e-01
  2.821505e+01    8.430300e-01
  2.823093e+01    8.479154e-01
  2.824680e+01    8.571168e-01
  2.826268e+01    8.507216e-01
  2.827855e+01    8.490270e-01
  2.829443e+01    8.659121e-01
  2.831030e+01    8.338777e-01
  2.832618e+01    8.343022e-01
  2.834206e+01    8.421876e-01
  2.835793e+01    8.369625e-01
  2.837381e+01    8.154288e-01
  2.838968e+01    8.167061e-01
  2.840556e+01    8.334517e-01
  2.842143e+01    8.401776e-01
  2.843731e+01    8.231083e-01
  2.845318e+01    7.907085e-01
  2.846906e+01    8.299969e-01
  2.848494e+01    8.184353e-01
  2.850081e+01    8.231071e-01
  2.851669e+01    8.351697e-01
  2.853256e+01    8.389798e-01
  2.854844e+01    8.368725e-01
  2.856431e+01    8.204223e-01
  2.858019e+01    8.327046e-01
  2.859606e+01    8.356243e-01
  2.861194e+01    8.323866e-01
  2.862782e+01    8.345035e-01
  2.864369e+01    8.372699e-01
  2.865957e+01    8.228131e-01
  2.867544e+01    8.346027e-01
  2.869132e+01    8.186725e-01
  2.870719e+01    7.987200e-01
  2.872307e+01    8.091850e-01
  2.873895e+01    8.126152e-01
  2.875482e+01    8.122751e-01
  2.877070e+01    8.164335e-01
  2.878657e+01    8.135192e-01
  2.880245e+01    8.027188e-01
  2.881832e+01    8.114954e-01
  2.883420e+01    8.161822e-01
  2.885007e+01    8.152186e-01
  2.886595e+01    8.000886e-01
  2.888183e+01    8.339190e-01
  2.889770e+01    8.258297e-01
  2.891358e+01    8.450394e-01
  2.892945e+01    8.247910e-01
  2.894533e+01    7.841507e-01
  2.896120e+01    7.990419e-01
  2.897708e+01    8.253220e-01
  2.899295e+01    8.018821e-01
  2.900883e+01    7.962055e-01
  2.902471e+01    8.041689e-01
  2.904058e+01    8.222592e-01
  2.905646e+01    8.175762e-01
  2.907233e+01    8.092756e-01
  2.908821e+01    8.046381e-01
  2.910408e+01    8.019289e-01
  2.911996e+01    8.095757e-01
  2.913583e+01    8.072994e-01
  2.915171e+01    7.929285e-01
  2.916759e+01    8.195652e-01
  2.918346e+01    8.362834e-01
  2.919934e+01    8.422860e-01
  2.921521e+01    8.187434e-01
  2.923109e+01    8.019297e-01
  2.924696e+01    8.040372e-01
  2.926284e+01    7.833362e-01
  2.927871e+01    7.706915e-01
  2.929459e+01    8.027357e-01
  2.931047e+01    7.928023e-01
  2.932634e+01    7.972276e-01
  2.934222e+01    7.879348e-01
  2.935809e+01    8.061960e-01
  2.937397e+01    7.872515e-01
  2.938984e+01    7.900252e-01
  2.940572e+01    7.814410e-01
  2.942159e+01    7.759412e-01
  2.943747e+01    7.788988e-01
  2.945335e+01    7.909315e-01
  2.946922e+01    7.832921e-01
  2.948510e+01    7.705008e-01
  2.950097e+01    7.942799e-01
  2.951685e+01    7.878134e-01
  2.953272e+01    7.966842e-01
  2.954860e+01    7.891496e-01
  2.956447e+01    7.890078e-01
  2.958035e+01    8.248905e-01
  2.959623e+01    7.968704e-01
  2.961210e+01    7.749059e-01
  2.962798e+01    7.775030e-01
  2.964385e+01    7.865725e-01
  2.965973e+01    7.910549e-01
  2.967560e+01    7.893049e-01
  2.969148e+01    7.958333e-01
  2.970736e+01    8.194588e-01
  2.972323e+01    7.829612e-01
  2.973911e+01    7.921209e-01
  2.975498e+01    7.731527e-01
  2.977086e+01    7.786266e-01
  2.978673e+01    7.853660e-01
  2.980261e+01    7.590321e-01
  2.981848e+01    7.838974e-01
  2.983436e+01    7.979460e-01
  2.985024e+01    7.908993e-01
  2.986611e+01    7.924279e-01
  2.988199e+01    7.932414e-01
  2.989786e+01    7.839835e-01
  2.991374e+01    7.816945e-01
  2.992961e+01    7.920816e-01
  2.994549e+01    7.783728e-01
  2.996136e+01    7.862837e-01
  2.997724e+01    7.838179e-01
  2.999312e+01    8.140853e-01
  3.000899e+01    7.928751e-01
  3.002487e+01    8.024117e-01
  3.004074e+01    7.941684e-01
  3.005662e+01    8.278037e-01
  3.007249e+01    8.185726e-01
  3.008837e+01    7.864797e-01
  3.010424e+01    7.697493e-01
  3.012012e+01    7.819704e-01
  3.013600e+01    7.558787e-01
  3.015187e+01    7.821258e-01
  3.016775e+01    8.057010e-01
  3.018362e+01    7.634122e-01
  3.019950e+01    7.751889e-01
  3.021537e+01    7.734244e-01
  3.023125e+01    7.667663e-01
  3.024712e+01    7.715377e-01
  3.026300e+01    7.660058e-01
  3.027888e+01    7.729959e-01
  3.029475e+01    7.777368e-01
  3.031063e+01    7.905009e-01
  3.032650e+01    7.791941e-01
  3.034238e+01    7.657908e-01
  3.035825e+01    7.608191e-01
  3.037413e+01    7.781315e-01
  3.039000e+01    7.905312e-01
  3.040588e+01    7.740156e-01
  3.042176e+01    7.679343e-01
  3.043763e+01    7.718205e-01
  3.045351e+01    7.525141e-01
  3.046938e+01    7.717240e-01
  3.048526e+01    7.940766e-01
  3.050113e+01    7.877252e-01
  3.051701e+01    7.753789e-01
  3.053288e+01    7.729218e-01
  3.054876e+01    7.694799e-01
  3.056464e+01    7.784307e-01
  3.058051e+01    7.829261e-01
  3.059639e+01    7.776452e-01
  3.061226e+01    7.855781e-01
  3.062814e+01    7.761400e-01
  3.064401e+01    7.853713e-01
  3.065989e+01    8.139280e-01
  3.067577e+01    7.774433e-01
  3.069164e+01    7.521774e-01
  3.070752e+01    7.612553e-01
  3.072339e+01    7.712156e-01
  3.073927e+01    7.972725e-01
  3.075514e+01    7.992205e-01
  3.077102e+01    7.805955e-01
  3.078689e+01    7.565395e-01
  3.080277e+01    7.624433e-01
  3.081865e+01    7.458535e-01
  3.083452e+01    7.697118e-01
  3.085040e+01    7.734637e-01
  3.086627e+01    7.643363e-01
  3.088215e+01    7.785234e-01
  3.089802e+01    7.864709e-01
  3.091390e+01    7.659038e-01
  3.092977e+01    7.544425e-01
  3.094565e+01    7.776925e-01
  3.096153e+01    7.688926e-01
  3.097740e+01    7.637159e-01
  3.099328e+01    7.770037e-01
  3.100915e+01    7.827761e-01
  3.102503e+01    7.584432e-01
  3.104090e+01    7.699570e-01
  3.105678e+01    7.673942e-01
  3.107265e+01    7.628064e-01
  3.108853e+01    7.791082e-01
  3.110441e+01    7.920432e-01
  3.112028e+01    7.839315e-01
  3.113616e+01    7.807612e-01
  3.115203e+01    7.569976e-01
  3.116791e+01    7.589459e-01
  3.118378e+01    7.891055e-01
  3.119966e+01    7.718337e-01
  3.121553e+01    7.754846e-01
  3.123141e+01    7.587430e-01
  3.124729e+01    7.815076e-01
  3.126316e+01    7.722404e-01
  3.127904e+01    8.017925e-01
  3.129491e+01    8.120012e-01
  3.131079e+01    8.184678e-01
  3.132666e+01    7.625883e-01
  3.134254e+01    7.741304e-01
  3.135841e+01    7.870256e-01
  3.137429e+01    7.792408e-01
  3.139017e+01    7.895507e-01
  3.140604e+01    7.991071e-01
  3.142192e+01    8.184189e-01
  3.143779e+01    8.128880e-01
  3.145367e+01    8.027685e-01
  3.146954e+01    7.954767e-01
  3.148542e+01    8.148726e-01
  3.150129e+01    8.202136e-01
  3.151717e+01    8.014000e-01
  3.153305e+01    8.081347e-01
  3.154892e+01    8.468965e-01
  3.156480e+01    8.380448e-01
  3.158067e+01    8.455549e-01
  3.159655e+01    8.595286e-01
  3.161242e+01    8.845240e-01
  3.162830e+01    8.958626e-01
  3.164418e+01    9.118577e-01
  3.166005e+01    9.194295e-01
  3.167593e+01    9.546829e-01
  3.169180e+01    9.945043e-01
  3.170768e+01    1.045392e+00
  3.172355e+01    1.086246e+00
  3.173943e+01    1.114061e+00
  3.175530e+01    1.180146e+00
  3.177118e+01    1.244006e+00
  3.178706e+01    1.342764e+00
  3.180293e+01    1.455395e+00
  3.181881e+01    1.583027e+00
  3.183468e+01    1.721258e+00
  3.185056e+01    1.812485e+00
  3.186643e+01    1.941560e+00
  3.188231e+01    2.007989e+00
  3.189818e+01    2.058219e+00
  3.191406e+01    2.063285e+00
  3.192994e+01    1.983435e+00
  3.194581e+01    1.898914e+00
  3.196169e+01    1.793839e+00
  3.197756e+01    1.639726e+00
  3.199344e+01    1.497668e+00
  3.200931e+01    1.390979e+00
  3.202519e+01    1.303447e+00
  3.204106e+01    1.224052e+00
  3.205694e+01    1.149364e+00
  3.207282e+01    1.048517e+00
  3.208869e+01    1.006928e+00
  3.210457e+01    1.000225e+00
  3.212044e+01    9.702622e-01
  3.213632e+01    9.337900e-01
  3.215219e+01    9.072359e-01
  3.216807e+01    8.734539e-01
  3.218394e+01    8.689517e-01
  3.219982e+01    8.335433e-01
  3.221570e+01    8.274894e-01
  3.223157e+01    8.386258e-01
  3.224745e+01    8.372268e-01
  3.226332e+01    8.261098e-01
  3.227920e+01    8.480822e-01
  3.229507e+01    8.167371e-01
  3.231095e+01    7.972527e-01
  3.232682e+01    7.905558e-01
  3.234270e+01    8.030520e-01
  3.235858e+01    8.042077e-01
  3.237445e+01    7.970878e-01
  3.239033e+01    7.948344e-01
  3.240620e+01    7.802792e-01
  3.242208e+01    7.663920e-01
  3.243795e+01    7.714956e-01
  3.245383e+01    7.868280e-01
  3.246970e+01    7.634571e-01
  3.248558e+01    7.496589e-01
  3.250146e+01    7.584161e-01
  3.251733e+01    7.828969e-01
  3.253321e+01    7.714412e-01
  3.254908e+01    7.663153e-01
