# == pyFAI calibration ==
# Distance Sample to Detector: 0.3999999939076516 m
# PONI: 9.750e-02, 1.135e-01 m
# Rotations: -0.000175 0.000000 -0.000000 rad
# 
# == Fit2d calibration ==
# Distance Sample-beamCenter: 400.000 mm
# Center: x=1514.000, y=1300.000 pix
# Tilt: 0.010 deg  TiltPlanRot: 0.010 deg
# 
# Detector Detector	 Spline= None	 PixelSize= 7.500e-05, 7.500e-05 m
#    Detector has a mask: False 
#    Detector has a dark current: False 
#    detector has a flat field: False 
# 
# Wavelength: 6.888e-11 m
# Mask applied: user provided
# Dark current applied: False
# Flat field applied: False
# Polarization factor: 0.99
# Normalization factor: 1.0
# --> /home/myspot/data/2024_07_Rosario/Ru-CGO-ex/2024-07-27_003_Ru-CGO-ex_Reaction_dwell_000023_data_000066.dat
#       q_nm^-1             I 
  2.003187e-02    0.000000e+00
  3.590745e-02    0.000000e+00
  5.178302e-02    1.490579e-01
  6.765859e-02    2.835841e-01
  8.353417e-02    2.120601e-01
  9.940974e-02    1.974460e-01
  1.152853e-01    1.256428e-02
  1.311609e-01    6.316211e-03
  1.470365e-01    5.842787e-02
  1.629120e-01    4.057018e-02
  1.787876e-01    8.835183e-02
  1.946632e-01    6.315497e-02
  2.105388e-01    1.023969e-01
  2.264143e-01    5.291458e-02
  2.422899e-01    5.436834e-02
  2.581655e-01    5.669782e-02
  2.740411e-01    6.461696e-02
  2.899166e-01    6.139474e-02
  3.057922e-01    3.666877e-02
  3.216678e-01    4.299857e-02
  3.375433e-01    9.800668e-04
  3.534189e-01    2.935961e-02
  3.692945e-01    7.016941e-02
  3.851701e-01    4.743278e-02
  4.010456e-01    2.008327e-02
  4.169212e-01    2.819471e-02
  4.327968e-01    4.673721e-02
  4.486724e-01    3.799235e-02
  4.645479e-01    6.157523e-02
  4.804235e-01    4.780572e-02
  4.962991e-01    4.270637e-02
  5.121747e-01    6.940784e-02
  5.280502e-01    3.408861e-02
  5.439258e-01    3.138294e-02
  5.598014e-01    4.873830e-02
  5.756770e-01    3.224247e-02
  5.915525e-01    4.154595e-02
  6.074281e-01    7.816259e-02
  6.233037e-01    4.978645e-02
  6.391793e-01    4.017089e-02
  6.550548e-01    3.906862e-02
  6.709304e-01    3.213605e-02
  6.868060e-01    5.465668e-02
  7.026815e-01    5.122137e-02
  7.185571e-01    4.011166e-02
  7.344327e-01    6.104406e-02
  7.503083e-01    5.732748e-02
  7.661838e-01    7.532541e-02
  7.820594e-01    8.836136e-02
  7.979350e-01    1.518581e-01
  8.138106e-01    2.090523e-01
  8.296861e-01    2.898746e-01
  8.455617e-01    3.240489e-01
  8.614373e-01    4.450459e-01
  8.773129e-01    4.870770e-01
  8.931884e-01    4.963891e-01
  9.090640e-01    5.863137e-01
  9.249396e-01    6.558275e-01
  9.408152e-01    7.789772e-01
  9.566907e-01    9.096431e-01
  9.725663e-01    1.085420e+00
  9.884419e-01    1.181009e+00
  1.004317e+00    1.223465e+00
  1.020193e+00    1.305369e+00
  1.036069e+00    1.315527e+00
  1.051944e+00    1.425862e+00
  1.067820e+00    1.446326e+00
  1.083695e+00    1.466635e+00
  1.099571e+00    1.524721e+00
  1.115446e+00    1.560806e+00
  1.131322e+00    1.590675e+00
  1.147198e+00    1.650365e+00
  1.163073e+00    1.708046e+00
  1.178949e+00    1.710124e+00
  1.194824e+00    1.867966e+00
  1.210700e+00    2.028706e+00
  1.226575e+00    2.196703e+00
  1.242451e+00    2.240571e+00
  1.258327e+00    2.414536e+00
  1.274202e+00    2.584720e+00
  1.290078e+00    2.700484e+00
  1.305953e+00    2.761988e+00
  1.321829e+00    2.855710e+00
  1.337705e+00    2.863106e+00
  1.353580e+00    2.734644e+00
  1.369456e+00    2.792847e+00
  1.385331e+00    2.813609e+00
  1.401207e+00    2.788838e+00
  1.417082e+00    2.774694e+00
  1.432958e+00    2.830112e+00
  1.448834e+00    2.971391e+00
  1.464709e+00    3.093859e+00
  1.480585e+00    3.053274e+00
  1.496460e+00    2.988059e+00
  1.512336e+00    2.974944e+00
  1.528211e+00    3.108083e+00
  1.544087e+00    3.152117e+00
  1.559963e+00    3.161502e+00
  1.575838e+00    3.175115e+00
  1.591714e+00    3.105397e+00
  1.607589e+00    3.159974e+00
  1.623465e+00    3.160538e+00
  1.639340e+00    3.067194e+00
  1.655216e+00    3.128733e+00
  1.671092e+00    2.961270e+00
  1.686967e+00    3.113594e+00
  1.702843e+00    2.961512e+00
  1.718718e+00    2.969069e+00
  1.734594e+00    3.146332e+00
  1.750469e+00    3.225131e+00
  1.766345e+00    3.178252e+00
  1.782221e+00    3.139781e+00
  1.798096e+00    3.160774e+00
  1.813972e+00    3.086863e+00
  1.829847e+00    3.025174e+00
  1.845723e+00    3.048954e+00
  1.861598e+00    3.058561e+00
  1.877474e+00    3.102796e+00
  1.893350e+00    3.058607e+00
  1.909225e+00    3.006958e+00
  1.925101e+00    3.053801e+00
  1.940976e+00    3.170664e+00
  1.956852e+00    3.169409e+00
  1.972727e+00    3.254679e+00
  1.988603e+00    3.145730e+00
  2.004479e+00    3.063310e+00
  2.020354e+00    3.075420e+00
  2.036230e+00    3.110486e+00
  2.052105e+00    3.145061e+00
  2.067981e+00    3.110584e+00
  2.083856e+00    3.139813e+00
  2.099732e+00    3.017952e+00
  2.115608e+00    2.986947e+00
  2.131483e+00    3.059561e+00
  2.147359e+00    3.048330e+00
  2.163234e+00    3.014924e+00
  2.179110e+00    2.892716e+00
  2.194985e+00    3.070338e+00
  2.210861e+00    3.043514e+00
  2.226737e+00    3.099517e+00
  2.242612e+00    3.119181e+00
  2.258488e+00    3.172515e+00
  2.274363e+00    3.177748e+00
  2.290239e+00    3.109890e+00
  2.306115e+00    3.072022e+00
  2.321990e+00    3.079813e+00
  2.337866e+00    3.136433e+00
  2.353741e+00    3.154197e+00
  2.369617e+00    3.132796e+00
  2.385492e+00    3.214041e+00
  2.401368e+00    3.231396e+00
  2.417244e+00    3.173307e+00
  2.433119e+00    3.057452e+00
  2.448995e+00    3.060400e+00
  2.464870e+00    3.129991e+00
  2.480746e+00    3.122460e+00
  2.496621e+00    3.233359e+00
  2.512497e+00    3.262550e+00
  2.528373e+00    3.275068e+00
  2.544248e+00    3.210390e+00
  2.560124e+00    3.138601e+00
  2.575999e+00    3.159417e+00
  2.591875e+00    3.202356e+00
  2.607750e+00    3.239864e+00
  2.623626e+00    3.197806e+00
  2.639502e+00    3.140468e+00
  2.655377e+00    3.315557e+00
  2.671253e+00    3.341419e+00
  2.687128e+00    3.284271e+00
  2.703004e+00    3.243236e+00
  2.718879e+00    3.221445e+00
  2.734755e+00    3.147016e+00
  2.750631e+00    3.211456e+00
  2.766506e+00    3.278084e+00
  2.782382e+00    3.326260e+00
  2.798257e+00    3.417767e+00
  2.814133e+00    3.324073e+00
  2.830008e+00    3.242825e+00
  2.845884e+00    3.320057e+00
  2.861760e+00    3.261748e+00
  2.877635e+00    3.279883e+00
  2.893511e+00    3.358087e+00
  2.909386e+00    3.288081e+00
  2.925262e+00    3.319021e+00
  2.941137e+00    3.426317e+00
  2.957013e+00    3.298564e+00
  2.972889e+00    3.356452e+00
  2.988764e+00    3.374892e+00
  3.004640e+00    3.313330e+00
  3.020515e+00    3.420438e+00
  3.036391e+00    3.353627e+00
  3.052266e+00    3.296077e+00
  3.068142e+00    3.229925e+00
  3.084018e+00    3.355146e+00
  3.099893e+00    3.407397e+00
  3.115769e+00    3.246082e+00
  3.131644e+00    3.312516e+00
  3.147520e+00    3.417980e+00
  3.163395e+00    3.395535e+00
  3.179271e+00    3.376449e+00
  3.195147e+00    3.329046e+00
  3.211022e+00    3.384597e+00
  3.226898e+00    3.304917e+00
  3.242773e+00    3.364144e+00
  3.258649e+00    3.390240e+00
  3.274525e+00    3.345788e+00
  3.290400e+00    3.383491e+00
  3.306276e+00    3.457492e+00
  3.322151e+00    3.499224e+00
  3.338027e+00    3.505904e+00
  3.353902e+00    3.451835e+00
  3.369778e+00    3.455705e+00
  3.385654e+00    3.414139e+00
  3.401529e+00    3.394353e+00
  3.417405e+00    3.408221e+00
  3.433280e+00    3.366517e+00
  3.449156e+00    3.411772e+00
  3.465031e+00    3.485331e+00
  3.480907e+00    3.400590e+00
  3.496783e+00    3.368573e+00
  3.512658e+00    3.453063e+00
  3.528534e+00    3.533786e+00
  3.544409e+00    3.508044e+00
  3.560285e+00    3.435177e+00
  3.576160e+00    3.316447e+00
  3.592036e+00    3.442037e+00
  3.607912e+00    3.491659e+00
  3.623787e+00    3.471181e+00
  3.639663e+00    3.524171e+00
  3.655538e+00    3.523673e+00
  3.671414e+00    3.439068e+00
  3.687289e+00    3.518929e+00
  3.703165e+00    3.540245e+00
  3.719041e+00    3.465680e+00
  3.734916e+00    3.421339e+00
  3.750792e+00    3.412910e+00
  3.766667e+00    3.471453e+00
  3.782543e+00    3.562620e+00
  3.798418e+00    3.465159e+00
  3.814294e+00    3.354889e+00
  3.830170e+00    3.467037e+00
  3.846045e+00    3.471285e+00
  3.861921e+00    3.522371e+00
  3.877796e+00    3.493737e+00
  3.893672e+00    3.441476e+00
  3.909547e+00    3.455230e+00
  3.925423e+00    3.490647e+00
  3.941299e+00    3.486889e+00
  3.957174e+00    3.529810e+00
  3.973050e+00    3.562228e+00
  3.988925e+00    3.499782e+00
  4.004801e+00    3.589355e+00
  4.020676e+00    3.529781e+00
  4.036552e+00    3.480525e+00
  4.052428e+00    3.406140e+00
  4.068303e+00    3.397237e+00
  4.084179e+00    3.455542e+00
  4.100054e+00    3.571222e+00
  4.115930e+00    3.491866e+00
  4.131806e+00    3.469695e+00
  4.147681e+00    3.640246e+00
  4.163557e+00    3.590447e+00
  4.179432e+00    3.560060e+00
  4.195308e+00    3.597889e+00
  4.211183e+00    3.674973e+00
  4.227059e+00    3.669137e+00
  4.242935e+00    3.586193e+00
  4.258810e+00    3.542666e+00
  4.274686e+00    3.553940e+00
  4.290561e+00    3.534700e+00
  4.306437e+00    3.497634e+00
  4.322312e+00    3.512130e+00
  4.338188e+00    3.557983e+00
  4.354064e+00    3.548245e+00
  4.369939e+00    3.652473e+00
  4.385815e+00    3.609563e+00
  4.401690e+00    3.574548e+00
  4.417566e+00    3.540924e+00
  4.433441e+00    3.640930e+00
  4.449317e+00    3.600523e+00
  4.465193e+00    3.649220e+00
  4.481068e+00    3.658993e+00
  4.496944e+00    3.611364e+00
  4.512819e+00    3.491285e+00
  4.528695e+00    3.518933e+00
  4.544570e+00    3.580287e+00
  4.560446e+00    3.608823e+00
  4.576322e+00    3.706746e+00
  4.592197e+00    3.679539e+00
  4.608073e+00    3.608854e+00
  4.623948e+00    3.565383e+00
  4.639824e+00    3.574626e+00
  4.655699e+00    3.558332e+00
  4.671575e+00    3.575560e+00
  4.687451e+00    3.604774e+00
  4.703326e+00    3.521723e+00
  4.719202e+00    3.536735e+00
  4.735077e+00    3.594388e+00
  4.750953e+00    3.709411e+00
  4.766828e+00    3.666274e+00
  4.782704e+00    3.635301e+00
  4.798580e+00    3.643293e+00
  4.814455e+00    3.585654e+00
  4.830331e+00    3.556109e+00
  4.846206e+00    3.638173e+00
  4.862082e+00    3.625042e+00
  4.877957e+00    3.602059e+00
  4.893833e+00    3.646774e+00
  4.909709e+00    3.626701e+00
  4.925584e+00    3.607617e+00
  4.941460e+00    3.599622e+00
  4.957335e+00    3.622516e+00
  4.973211e+00    3.725335e+00
  4.989086e+00    3.630176e+00
  5.004962e+00    3.629517e+00
  5.020838e+00    3.669886e+00
  5.036713e+00    3.700329e+00
  5.052589e+00    3.710407e+00
  5.068464e+00    3.702934e+00
  5.084340e+00    3.698466e+00
  5.100216e+00    3.716588e+00
  5.116091e+00    3.680130e+00
  5.131967e+00    3.692711e+00
  5.147842e+00    3.636823e+00
  5.163718e+00    3.708683e+00
  5.179593e+00    3.727610e+00
  5.195469e+00    3.695581e+00
  5.211345e+00    3.727723e+00
  5.227220e+00    3.762804e+00
  5.243096e+00    3.659159e+00
  5.258971e+00    3.642421e+00
  5.274847e+00    3.674102e+00
  5.290722e+00    3.704570e+00
  5.306598e+00    3.733630e+00
  5.322474e+00    3.676694e+00
  5.338349e+00    3.628126e+00
  5.354225e+00    3.733230e+00
  5.370100e+00    3.706379e+00
  5.385976e+00    3.714926e+00
  5.401851e+00    3.709164e+00
  5.417727e+00    3.605489e+00
  5.433603e+00    3.538066e+00
  5.449478e+00    3.478813e+00
  5.465354e+00    3.560465e+00
  5.481229e+00    3.584109e+00
  5.497105e+00    3.545643e+00
  5.512980e+00    3.650587e+00
  5.528856e+00    3.683660e+00
  5.544732e+00    3.649853e+00
  5.560607e+00    3.612906e+00
  5.576483e+00    3.524530e+00
  5.592358e+00    3.506033e+00
  5.608234e+00    3.533983e+00
  5.624109e+00    3.626667e+00
  5.639985e+00    3.656183e+00
  5.655861e+00    3.577404e+00
  5.671736e+00    3.613603e+00
  5.687612e+00    3.598177e+00
  5.703487e+00    3.561121e+00
  5.719363e+00    3.584096e+00
  5.735238e+00    3.653682e+00
  5.751114e+00    3.609323e+00
  5.766990e+00    3.548928e+00
  5.782865e+00    3.520230e+00
  5.798741e+00    3.483061e+00
  5.814616e+00    3.598119e+00
  5.830492e+00    3.491905e+00
  5.846367e+00    3.509348e+00
  5.862243e+00    3.496634e+00
  5.878119e+00    3.492328e+00
  5.893994e+00    3.506059e+00
  5.909870e+00    3.518304e+00
  5.925745e+00    3.494467e+00
  5.941621e+00    3.483927e+00
  5.957497e+00    3.561649e+00
  5.973372e+00    3.512148e+00
  5.989248e+00    3.560475e+00
  6.005123e+00    3.589675e+00
  6.020999e+00    3.506489e+00
  6.036874e+00    3.498969e+00
  6.052750e+00    3.556849e+00
  6.068626e+00    3.607816e+00
  6.084501e+00    3.578613e+00
  6.100377e+00    3.551552e+00
  6.116252e+00    3.568736e+00
  6.132128e+00    3.635256e+00
  6.148003e+00    3.617951e+00
  6.163879e+00    3.577790e+00
  6.179755e+00    3.549567e+00
  6.195630e+00    3.507681e+00
  6.211506e+00    3.502546e+00
  6.227381e+00    3.555805e+00
  6.243257e+00    3.578969e+00
  6.259132e+00    3.514770e+00
  6.275008e+00    3.574973e+00
  6.290884e+00    3.618545e+00
  6.306759e+00    3.634991e+00
  6.322635e+00    3.600361e+00
  6.338510e+00    3.545633e+00
  6.354386e+00    3.564088e+00
  6.370261e+00    3.560628e+00
  6.386137e+00    3.528104e+00
  6.402013e+00    3.601888e+00
  6.417888e+00    3.577093e+00
  6.433764e+00    3.527703e+00
  6.449639e+00    3.514841e+00
  6.465515e+00    3.537434e+00
  6.481390e+00    3.575129e+00
  6.497266e+00    3.593663e+00
  6.513142e+00    3.604744e+00
  6.529017e+00    3.573959e+00
  6.544893e+00    3.545052e+00
  6.560768e+00    3.580814e+00
  6.576644e+00    3.659338e+00
  6.592519e+00    3.594115e+00
  6.608395e+00    3.491777e+00
  6.624271e+00    3.552491e+00
  6.640146e+00    3.551405e+00
  6.656022e+00    3.605447e+00
  6.671897e+00    3.651058e+00
  6.687773e+00    3.560925e+00
  6.703648e+00    3.600541e+00
  6.719524e+00    3.574675e+00
  6.735400e+00    3.597269e+00
  6.751275e+00    3.568443e+00
  6.767151e+00    3.541879e+00
  6.783026e+00    3.636052e+00
  6.798902e+00    3.550831e+00
  6.814777e+00    3.539390e+00
  6.830653e+00    3.612681e+00
  6.846529e+00    3.621941e+00
  6.862404e+00    3.523066e+00
  6.878280e+00    3.601197e+00
  6.894155e+00    3.629652e+00
  6.910031e+00    3.614524e+00
  6.925907e+00    3.533962e+00
  6.941782e+00    3.530930e+00
  6.957658e+00    3.489362e+00
  6.973533e+00    3.416079e+00
  6.989409e+00    3.536155e+00
  7.005284e+00    3.595804e+00
  7.021160e+00    3.461647e+00
  7.037036e+00    3.515396e+00
  7.052911e+00    3.549378e+00
  7.068787e+00    3.435553e+00
  7.084662e+00    3.469705e+00
  7.100538e+00    3.500767e+00
  7.116413e+00    3.509517e+00
  7.132289e+00    3.571776e+00
  7.148165e+00    3.567725e+00
  7.164040e+00    3.477177e+00
  7.179916e+00    3.447314e+00
  7.195791e+00    3.524861e+00
  7.211667e+00    3.548274e+00
  7.227542e+00    3.522117e+00
  7.243418e+00    3.512867e+00
  7.259294e+00    3.474684e+00
  7.275169e+00    3.484394e+00
  7.291045e+00    3.540344e+00
  7.306920e+00    3.476788e+00
  7.322796e+00    3.436167e+00
  7.338671e+00    3.484302e+00
  7.354547e+00    3.548882e+00
  7.370423e+00    3.554380e+00
  7.386298e+00    3.529467e+00
  7.402174e+00    3.495565e+00
  7.418049e+00    3.459035e+00
  7.433925e+00    3.491495e+00
  7.449800e+00    3.525524e+00
  7.465676e+00    3.477210e+00
  7.481552e+00    3.498969e+00
  7.497427e+00    3.586862e+00
  7.513303e+00    3.618442e+00
  7.529178e+00    3.550859e+00
  7.545054e+00    3.486889e+00
  7.560929e+00    3.453546e+00
  7.576805e+00    3.549866e+00
  7.592681e+00    3.490260e+00
  7.608556e+00    3.516021e+00
  7.624432e+00    3.488275e+00
  7.640307e+00    3.447586e+00
  7.656183e+00    3.441631e+00
  7.672058e+00    3.507679e+00
  7.687934e+00    3.485433e+00
  7.703810e+00    3.348652e+00
  7.719685e+00    3.426105e+00
  7.735561e+00    3.465371e+00
  7.751436e+00    3.442346e+00
  7.767312e+00    3.406937e+00
  7.783187e+00    3.412830e+00
  7.799063e+00    3.430925e+00
  7.814939e+00    3.452018e+00
  7.830814e+00    3.418534e+00
  7.846690e+00    3.449636e+00
  7.862565e+00    3.406306e+00
  7.878441e+00    3.399420e+00
  7.894317e+00    3.407116e+00
  7.910192e+00    3.439878e+00
  7.926068e+00    3.393391e+00
  7.941943e+00    3.379543e+00
  7.957819e+00    3.406340e+00
  7.973694e+00    3.345703e+00
  7.989570e+00    3.430307e+00
  8.005446e+00    3.411616e+00
  8.021321e+00    3.354603e+00
  8.037197e+00    3.417897e+00
  8.053072e+00    3.411557e+00
  8.068948e+00    3.428552e+00
  8.084823e+00    3.386087e+00
  8.100699e+00    3.435084e+00
  8.116575e+00    3.445495e+00
  8.132450e+00    3.471743e+00
  8.148326e+00    3.465071e+00
  8.164201e+00    3.467375e+00
  8.180077e+00    3.409537e+00
  8.195952e+00    3.510243e+00
  8.211828e+00    3.487947e+00
  8.227704e+00    3.472106e+00
  8.243579e+00    3.490146e+00
  8.259455e+00    3.473429e+00
  8.275330e+00    3.416864e+00
  8.291206e+00    3.417658e+00
  8.307081e+00    3.439609e+00
  8.322957e+00    3.454913e+00
  8.338833e+00    3.409642e+00
  8.354708e+00    3.388994e+00
  8.370584e+00    3.381307e+00
  8.386459e+00    3.364784e+00
  8.402335e+00    3.393632e+00
  8.418210e+00    3.339043e+00
  8.434086e+00    3.260537e+00
  8.449962e+00    3.397669e+00
  8.465837e+00    3.396796e+00
  8.481713e+00    3.359151e+00
  8.497588e+00    3.389310e+00
  8.513464e+00    3.453778e+00
  8.529339e+00    3.372678e+00
  8.545215e+00    3.345316e+00
  8.561091e+00    3.371595e+00
  8.576966e+00    3.345851e+00
  8.592842e+00    3.355629e+00
  8.608717e+00    3.288888e+00
  8.624593e+00    3.295598e+00
  8.640468e+00    3.335770e+00
  8.656344e+00    3.331771e+00
  8.672220e+00    3.326693e+00
  8.688095e+00    3.346050e+00
  8.703971e+00    3.350816e+00
  8.719846e+00    3.355708e+00
  8.735722e+00    3.350655e+00
  8.751598e+00    3.367325e+00
  8.767473e+00    3.380386e+00
  8.783349e+00    3.330034e+00
  8.799224e+00    3.337091e+00
  8.815100e+00    3.297529e+00
  8.830975e+00    3.273364e+00
  8.846851e+00    3.292626e+00
  8.862727e+00    3.314457e+00
  8.878602e+00    3.324354e+00
  8.894478e+00    3.282879e+00
  8.910353e+00    3.283220e+00
  8.926229e+00    3.335734e+00
  8.942104e+00    3.293751e+00
  8.957980e+00    3.264321e+00
  8.973856e+00    3.335563e+00
  8.989731e+00    3.279294e+00
  9.005607e+00    3.284475e+00
  9.021482e+00    3.281708e+00
  9.037358e+00    3.353735e+00
  9.053233e+00    3.290897e+00
  9.069109e+00    3.284228e+00
  9.084985e+00    3.252865e+00
  9.100860e+00    3.243301e+00
  9.116736e+00    3.273360e+00
  9.132611e+00    3.211973e+00
  9.148487e+00    3.195221e+00
  9.164362e+00    3.232308e+00
  9.180238e+00    3.245086e+00
  9.196114e+00    3.278662e+00
  9.211989e+00    3.258156e+00
  9.227865e+00    3.202989e+00
  9.243740e+00    3.268778e+00
  9.259616e+00    3.300304e+00
  9.275491e+00    3.288532e+00
  9.291367e+00    3.253634e+00
  9.307243e+00    3.209657e+00
  9.323118e+00    3.207038e+00
  9.338994e+00    3.234043e+00
  9.354869e+00    3.259563e+00
  9.370745e+00    3.270047e+00
  9.386620e+00    3.217941e+00
  9.402496e+00    3.222034e+00
  9.418372e+00    3.273089e+00
  9.434247e+00    3.274018e+00
  9.450123e+00    3.266948e+00
  9.465998e+00    3.267057e+00
  9.481874e+00    3.222373e+00
  9.497749e+00    3.190329e+00
  9.513625e+00    3.247098e+00
  9.529501e+00    3.258205e+00
  9.545376e+00    3.237583e+00
  9.561252e+00    3.163167e+00
  9.577127e+00    3.157546e+00
  9.593003e+00    3.174417e+00
  9.608878e+00    3.240783e+00
  9.624754e+00    3.233399e+00
  9.640630e+00    3.256383e+00
  9.656505e+00    3.264215e+00
  9.672381e+00    3.234832e+00
  9.688256e+00    3.245271e+00
  9.704132e+00    3.187368e+00
  9.720008e+00    3.146953e+00
  9.735883e+00    3.149338e+00
  9.751759e+00    3.182725e+00
  9.767634e+00    3.194882e+00
  9.783510e+00    3.131955e+00
  9.799385e+00    3.079800e+00
  9.815261e+00    3.096070e+00
  9.831137e+00    3.130546e+00
  9.847012e+00    3.159757e+00
  9.862888e+00    3.128629e+00
  9.878763e+00    3.092361e+00
  9.894639e+00    3.082573e+00
  9.910514e+00    3.096272e+00
  9.926390e+00    3.095663e+00
  9.942266e+00    3.149205e+00
  9.958141e+00    3.093760e+00
  9.974017e+00    3.069663e+00
  9.989892e+00    3.070213e+00
  1.000577e+01    3.055025e+00
  1.002164e+01    3.086686e+00
  1.003752e+01    3.077983e+00
  1.005339e+01    3.146502e+00
  1.006927e+01    3.188600e+00
  1.008515e+01    3.073066e+00
  1.010102e+01    3.076478e+00
  1.011690e+01    3.079084e+00
  1.013277e+01    3.062443e+00
  1.014865e+01    3.110533e+00
  1.016452e+01    3.103618e+00
  1.018040e+01    3.112392e+00
  1.019627e+01    3.046915e+00
  1.021215e+01    3.070092e+00
  1.022803e+01    3.041480e+00
  1.024390e+01    3.020442e+00
  1.025978e+01    3.098345e+00
  1.027565e+01    3.125520e+00
  1.029153e+01    3.043652e+00
  1.030740e+01    3.002956e+00
  1.032328e+01    3.038211e+00
  1.033915e+01    3.054095e+00
  1.035503e+01    3.008561e+00
  1.037091e+01    3.018178e+00
  1.038678e+01    3.022101e+00
  1.040266e+01    3.017972e+00
  1.041853e+01    3.043169e+00
  1.043441e+01    3.033434e+00
  1.045028e+01    3.024286e+00
  1.046616e+01    3.028310e+00
  1.048204e+01    3.001718e+00
  1.049791e+01    3.012962e+00
  1.051379e+01    2.982216e+00
  1.052966e+01    2.964086e+00
  1.054554e+01    2.995724e+00
  1.056141e+01    2.995474e+00
  1.057729e+01    3.059836e+00
  1.059316e+01    3.003605e+00
  1.060904e+01    3.009933e+00
  1.062492e+01    2.999895e+00
  1.064079e+01    3.043782e+00
  1.065667e+01    3.048843e+00
  1.067254e+01    2.989005e+00
  1.068842e+01    3.020098e+00
  1.070429e+01    3.024271e+00
  1.072017e+01    2.973680e+00
  1.073604e+01    2.940652e+00
  1.075192e+01    2.941363e+00
  1.076780e+01    2.940493e+00
  1.078367e+01    2.968201e+00
  1.079955e+01    2.988625e+00
  1.081542e+01    2.964538e+00
  1.083130e+01    2.967164e+00
  1.084717e+01    2.956905e+00
  1.086305e+01    2.925314e+00
  1.087892e+01    2.947187e+00
  1.089480e+01    2.983203e+00
  1.091068e+01    2.935850e+00
  1.092655e+01    2.893698e+00
  1.094243e+01    2.939628e+00
  1.095830e+01    2.911593e+00
  1.097418e+01    2.874055e+00
  1.099005e+01    2.924522e+00
  1.100593e+01    2.936155e+00
  1.102180e+01    2.932657e+00
  1.103768e+01    2.926049e+00
  1.105356e+01    2.899453e+00
  1.106943e+01    2.898968e+00
  1.108531e+01    2.893817e+00
  1.110118e+01    2.867888e+00
  1.111706e+01    2.881147e+00
  1.113293e+01    2.871685e+00
  1.114881e+01    2.843625e+00
  1.116468e+01    2.879131e+00
  1.118056e+01    2.889369e+00
  1.119644e+01    2.839590e+00
  1.121231e+01    2.884760e+00
  1.122819e+01    2.938917e+00
  1.124406e+01    2.931323e+00
  1.125994e+01    2.877695e+00
  1.127581e+01    2.842230e+00
  1.129169e+01    2.849824e+00
  1.130756e+01    2.843323e+00
  1.132344e+01    2.805205e+00
  1.133932e+01    2.781488e+00
  1.135519e+01    2.818126e+00
  1.137107e+01    2.794775e+00
  1.138694e+01    2.864163e+00
  1.140282e+01    2.845240e+00
  1.141869e+01    2.809276e+00
  1.143457e+01    2.802818e+00
  1.145045e+01    2.804437e+00
  1.146632e+01    2.810237e+00
  1.148220e+01    2.809218e+00
  1.149807e+01    2.809152e+00
  1.151395e+01    2.761864e+00
  1.152982e+01    2.793205e+00
  1.154570e+01    2.802731e+00
  1.156157e+01    2.814662e+00
  1.157745e+01    2.832796e+00
  1.159333e+01    2.816413e+00
  1.160920e+01    2.774889e+00
  1.162508e+01    2.760003e+00
  1.164095e+01    2.793424e+00
  1.165683e+01    2.779514e+00
  1.167270e+01    2.795521e+00
  1.168858e+01    2.801779e+00
  1.170445e+01    2.795591e+00
  1.172033e+01    2.817398e+00
  1.173621e+01    2.752009e+00
  1.175208e+01    2.767550e+00
  1.176796e+01    2.751229e+00
  1.178383e+01    2.756770e+00
  1.179971e+01    2.764386e+00
  1.181558e+01    2.728316e+00
  1.183146e+01    2.758260e+00
  1.184733e+01    2.755271e+00
  1.186321e+01    2.755064e+00
  1.187909e+01    2.775116e+00
  1.189496e+01    2.726399e+00
  1.191084e+01    2.753805e+00
  1.192671e+01    2.735787e+00
  1.194259e+01    2.739817e+00
  1.195846e+01    2.744025e+00
  1.197434e+01    2.752559e+00
  1.199021e+01    2.706327e+00
  1.200609e+01    2.658544e+00
  1.202197e+01    2.711105e+00
  1.203784e+01    2.718151e+00
  1.205372e+01    2.671751e+00
  1.206959e+01    2.755888e+00
  1.208547e+01    2.721591e+00
  1.210134e+01    2.720319e+00
  1.211722e+01    2.669850e+00
  1.213309e+01    2.709409e+00
  1.214897e+01    2.664526e+00
  1.216485e+01    2.693943e+00
  1.218072e+01    2.739041e+00
  1.219660e+01    2.709490e+00
  1.221247e+01    2.650988e+00
  1.222835e+01    2.627127e+00
  1.224422e+01    2.679236e+00
  1.226010e+01    2.676738e+00
  1.227597e+01    2.671341e+00
  1.229185e+01    2.664855e+00
  1.230773e+01    2.650122e+00
  1.232360e+01    2.632519e+00
  1.233948e+01    2.729531e+00
  1.235535e+01    2.718361e+00
  1.237123e+01    2.673310e+00
  1.238710e+01    2.693917e+00
  1.240298e+01    2.689057e+00
  1.241886e+01    2.682875e+00
  1.243473e+01    2.703014e+00
  1.245061e+01    2.705709e+00
  1.246648e+01    2.699470e+00
  1.248236e+01    2.728308e+00
  1.249823e+01    2.706621e+00
  1.251411e+01    2.725042e+00
  1.252998e+01    2.686970e+00
  1.254586e+01    2.690481e+00
  1.256174e+01    2.694139e+00
  1.257761e+01    2.688088e+00
  1.259349e+01    2.710196e+00
  1.260936e+01    2.773747e+00
  1.262524e+01    2.774552e+00
  1.264111e+01    2.761959e+00
  1.265699e+01    2.810793e+00
  1.267286e+01    2.775693e+00
  1.268874e+01    2.772845e+00
  1.270462e+01    2.794623e+00
  1.272049e+01    2.843041e+00
  1.273637e+01    2.929085e+00
  1.275224e+01    2.920814e+00
  1.276812e+01    2.958755e+00
  1.278399e+01    2.971764e+00
  1.279987e+01    3.018333e+00
  1.281574e+01    3.088387e+00
  1.283162e+01    3.110118e+00
  1.284750e+01    3.174245e+00
  1.286337e+01    3.256234e+00
  1.287925e+01    3.356546e+00
  1.289512e+01    3.496838e+00
  1.291100e+01    3.651144e+00
  1.292687e+01    3.833097e+00
  1.294275e+01    4.102838e+00
  1.295862e+01    4.410202e+00
  1.297450e+01    4.816198e+00
  1.299038e+01    5.301224e+00
  1.300625e+01    5.931677e+00
  1.302213e+01    6.720443e+00
  1.303800e+01    7.711566e+00
  1.305388e+01    8.939108e+00
  1.306975e+01    1.029067e+01
  1.308563e+01    1.153700e+01
  1.310150e+01    1.276126e+01
  1.311738e+01    1.387977e+01
  1.313326e+01    1.473905e+01
  1.314913e+01    1.557443e+01
  1.316501e+01    1.622158e+01
  1.318088e+01    1.630412e+01
  1.319676e+01    1.552970e+01
  1.321263e+01    1.418611e+01
  1.322851e+01    1.246831e+01
  1.324438e+01    1.067268e+01
  1.326026e+01    9.038443e+00
  1.327614e+01    7.750819e+00
  1.329201e+01    6.753706e+00
  1.330789e+01    5.948990e+00
  1.332376e+01    5.328447e+00
  1.333964e+01    4.830722e+00
  1.335551e+01    4.392523e+00
  1.337139e+01    4.139131e+00
  1.338727e+01    3.861374e+00
  1.340314e+01    3.664923e+00
  1.341902e+01    3.501009e+00
  1.343489e+01    3.337173e+00
  1.345077e+01    3.246429e+00
  1.346664e+01    3.121216e+00
  1.348252e+01    3.059847e+00
  1.349839e+01    2.992764e+00
  1.351427e+01    2.896080e+00
  1.353015e+01    2.864802e+00
  1.354602e+01    2.841083e+00
  1.356190e+01    2.762516e+00
  1.357777e+01    2.704964e+00
  1.359365e+01    2.692932e+00
  1.360952e+01    2.722278e+00
  1.362540e+01    2.666636e+00
  1.364127e+01    2.647887e+00
  1.365715e+01    2.604642e+00
  1.367303e+01    2.565728e+00
  1.368890e+01    2.599774e+00
  1.370478e+01    2.575861e+00
  1.372065e+01    2.541468e+00
  1.373653e+01    2.540774e+00
  1.375240e+01    2.504312e+00
  1.376828e+01    2.468056e+00
  1.378415e+01    2.490365e+00
  1.380003e+01    2.432706e+00
  1.381591e+01    2.384382e+00
  1.383178e+01    2.461571e+00
  1.384766e+01    2.484927e+00
  1.386353e+01    2.418630e+00
  1.387941e+01    2.380207e+00
  1.389528e+01    2.432107e+00
  1.391116e+01    2.409880e+00
  1.392703e+01    2.461541e+00
  1.394291e+01    2.393247e+00
  1.395879e+01    2.380620e+00
  1.397466e+01    2.398621e+00
  1.399054e+01    2.344362e+00
  1.400641e+01    2.334299e+00
  1.402229e+01    2.349698e+00
  1.403816e+01    2.373969e+00
  1.405404e+01    2.380664e+00
  1.406991e+01    2.340817e+00
  1.408579e+01    2.283526e+00
  1.410167e+01    2.281743e+00
  1.411754e+01    2.319595e+00
  1.413342e+01    2.357110e+00
  1.414929e+01    2.352086e+00
  1.416517e+01    2.339367e+00
  1.418104e+01    2.312438e+00
  1.419692e+01    2.269223e+00
  1.421279e+01    2.297118e+00
  1.422867e+01    2.275645e+00
  1.424455e+01    2.309075e+00
  1.426042e+01    2.298850e+00
  1.427630e+01    2.294669e+00
  1.429217e+01    2.298310e+00
  1.430805e+01    2.298182e+00
  1.432392e+01    2.251980e+00
  1.433980e+01    2.250329e+00
  1.435568e+01    2.262768e+00
  1.437155e+01    2.253501e+00
  1.438743e+01    2.205312e+00
  1.440330e+01    2.257908e+00
  1.441918e+01    2.238719e+00
  1.443505e+01    2.219330e+00
  1.445093e+01    2.241608e+00
  1.446680e+01    2.213160e+00
  1.448268e+01    2.212279e+00
  1.449856e+01    2.208589e+00
  1.451443e+01    2.220512e+00
  1.453031e+01    2.201555e+00
  1.454618e+01    2.161405e+00
  1.456206e+01    2.189628e+00
  1.457793e+01    2.180276e+00
  1.459381e+01    2.189586e+00
  1.460968e+01    2.225560e+00
  1.462556e+01    2.230870e+00
  1.464144e+01    2.206558e+00
  1.465731e+01    2.217588e+00
  1.467319e+01    2.253875e+00
  1.468906e+01    2.218659e+00
  1.470494e+01    2.235809e+00
  1.472081e+01    2.220751e+00
  1.473669e+01    2.177431e+00
  1.475256e+01    2.179582e+00
  1.476844e+01    2.189417e+00
  1.478432e+01    2.158394e+00
  1.480019e+01    2.185190e+00
  1.481607e+01    2.185501e+00
  1.483194e+01    2.214853e+00
  1.484782e+01    2.210783e+00
  1.486369e+01    2.196628e+00
  1.487957e+01    2.201629e+00
  1.489544e+01    2.239898e+00
  1.491132e+01    2.255876e+00
  1.492720e+01    2.261142e+00
  1.494307e+01    2.315160e+00
  1.495895e+01    2.340239e+00
  1.497482e+01    2.312376e+00
  1.499070e+01    2.348182e+00
  1.500657e+01    2.421137e+00
  1.502245e+01    2.457813e+00
  1.503832e+01    2.560130e+00
  1.505420e+01    2.706214e+00
  1.507008e+01    2.805335e+00
  1.508595e+01    3.005174e+00
  1.510183e+01    3.228316e+00
  1.511770e+01    3.454437e+00
  1.513358e+01    3.768499e+00
  1.514945e+01    4.166242e+00
  1.516533e+01    4.559832e+00
  1.518120e+01    4.874115e+00
  1.519708e+01    5.213285e+00
  1.521296e+01    5.481019e+00
  1.522883e+01    5.619670e+00
  1.524471e+01    5.732487e+00
  1.526058e+01    5.837194e+00
  1.527646e+01    5.724914e+00
  1.529233e+01    5.402977e+00
  1.530821e+01    5.029628e+00
  1.532409e+01    4.603178e+00
  1.533996e+01    4.147310e+00
  1.535584e+01    3.760189e+00
  1.537171e+01    3.402757e+00
  1.538759e+01    3.174673e+00
  1.540346e+01    2.958616e+00
  1.541934e+01    2.776711e+00
  1.543521e+01    2.599286e+00
  1.545109e+01    2.527868e+00
  1.546697e+01    2.479306e+00
  1.548284e+01    2.382572e+00
  1.549872e+01    2.322382e+00
  1.551459e+01    2.259862e+00
  1.553047e+01    2.193569e+00
  1.554634e+01    2.206659e+00
  1.556222e+01    2.188583e+00
  1.557809e+01    2.110342e+00
  1.559397e+01    2.089749e+00
  1.560985e+01    2.083851e+00
  1.562572e+01    2.066252e+00
  1.564160e+01    2.066705e+00
  1.565747e+01    2.011307e+00
  1.567335e+01    2.016856e+00
  1.568922e+01    1.966786e+00
  1.570510e+01    1.960997e+00
  1.572097e+01    2.002159e+00
  1.573685e+01    1.990048e+00
  1.575273e+01    1.961681e+00
  1.576860e+01    1.962713e+00
  1.578448e+01    1.955449e+00
  1.580035e+01    1.941824e+00
  1.581623e+01    1.912004e+00
  1.583210e+01    1.912157e+00
  1.584798e+01    1.948486e+00
  1.586385e+01    1.920503e+00
  1.587973e+01    1.868231e+00
  1.589561e+01    1.853267e+00
  1.591148e+01    1.885581e+00
  1.592736e+01    1.870734e+00
  1.594323e+01    1.931839e+00
  1.595911e+01    1.936135e+00
  1.597498e+01    1.890580e+00
  1.599086e+01    1.864063e+00
  1.600673e+01    1.834809e+00
  1.602261e+01    1.875406e+00
  1.603849e+01    1.878916e+00
  1.605436e+01    1.880874e+00
  1.607024e+01    1.900964e+00
  1.608611e+01    1.868635e+00
  1.610199e+01    1.846973e+00
  1.611786e+01    1.824230e+00
  1.613374e+01    1.836701e+00
  1.614961e+01    1.835080e+00
  1.616549e+01    1.829898e+00
  1.618137e+01    1.800969e+00
  1.619724e+01    1.802053e+00
  1.621312e+01    1.814068e+00
  1.622899e+01    1.829821e+00
  1.624487e+01    1.832489e+00
  1.626074e+01    1.823135e+00
  1.627662e+01    1.844360e+00
  1.629250e+01    1.802045e+00
  1.630837e+01    1.799713e+00
  1.632425e+01    1.811484e+00
  1.634012e+01    1.825197e+00
  1.635600e+01    1.819376e+00
  1.637187e+01    1.784498e+00
  1.638775e+01    1.773421e+00
  1.640362e+01    1.797363e+00
  1.641950e+01    1.782259e+00
  1.643538e+01    1.779602e+00
  1.645125e+01    1.781625e+00
  1.646713e+01    1.774888e+00
  1.648300e+01    1.757156e+00
  1.649888e+01    1.773005e+00
  1.651475e+01    1.765533e+00
  1.653063e+01    1.779788e+00
  1.654650e+01    1.722653e+00
  1.656238e+01    1.729547e+00
  1.657826e+01    1.705618e+00
  1.659413e+01    1.745336e+00
  1.661001e+01    1.759312e+00
  1.662588e+01    1.744952e+00
  1.664176e+01    1.755294e+00
  1.665763e+01    1.711797e+00
  1.667351e+01    1.709951e+00
  1.668938e+01    1.710291e+00
  1.670526e+01    1.739428e+00
  1.672114e+01    1.767990e+00
  1.673701e+01    1.725148e+00
  1.675289e+01    1.714260e+00
  1.676876e+01    1.725807e+00
  1.678464e+01    1.735580e+00
  1.680051e+01    1.715198e+00
  1.681639e+01    1.701243e+00
  1.683226e+01    1.716520e+00
  1.684814e+01    1.712870e+00
  1.686402e+01    1.697524e+00
  1.687989e+01    1.709591e+00
  1.689577e+01    1.687264e+00
  1.691164e+01    1.682849e+00
  1.692752e+01    1.701432e+00
  1.694339e+01    1.698043e+00
  1.695927e+01    1.706038e+00
  1.697514e+01    1.707499e+00
  1.699102e+01    1.659591e+00
  1.700690e+01    1.666597e+00
  1.702277e+01    1.679333e+00
  1.703865e+01    1.658603e+00
  1.705452e+01    1.671318e+00
  1.707040e+01    1.646572e+00
  1.708627e+01    1.660012e+00
  1.710215e+01    1.674439e+00
  1.711802e+01    1.659477e+00
  1.713390e+01    1.661654e+00
  1.714978e+01    1.644055e+00
  1.716565e+01    1.637421e+00
  1.718153e+01    1.654832e+00
  1.719740e+01    1.662555e+00
  1.721328e+01    1.653787e+00
  1.722915e+01    1.620489e+00
  1.724503e+01    1.630453e+00
  1.726091e+01    1.606571e+00
  1.727678e+01    1.611105e+00
  1.729266e+01    1.606095e+00
  1.730853e+01    1.595116e+00
  1.732441e+01    1.581488e+00
  1.734028e+01    1.641887e+00
  1.735616e+01    1.630343e+00
  1.737203e+01    1.599542e+00
  1.738791e+01    1.610578e+00
  1.740379e+01    1.605304e+00
  1.741966e+01    1.604862e+00
  1.743554e+01    1.607476e+00
  1.745141e+01    1.603746e+00
  1.746729e+01    1.586444e+00
  1.748316e+01    1.565779e+00
  1.749904e+01    1.584795e+00
  1.751491e+01    1.568609e+00
  1.753079e+01    1.565880e+00
  1.754667e+01    1.602211e+00
  1.756254e+01    1.582017e+00
  1.757842e+01    1.582120e+00
  1.759429e+01    1.571143e+00
  1.761017e+01    1.551965e+00
  1.762604e+01    1.592156e+00
  1.764192e+01    1.589191e+00
  1.765779e+01    1.569979e+00
  1.767367e+01    1.584532e+00
  1.768955e+01    1.548238e+00
  1.770542e+01    1.520616e+00
  1.772130e+01    1.523394e+00
  1.773717e+01    1.548612e+00
  1.775305e+01    1.547400e+00
  1.776892e+01    1.561470e+00
  1.778480e+01    1.559078e+00
  1.780067e+01    1.530211e+00
  1.781655e+01    1.532682e+00
  1.783243e+01    1.539184e+00
  1.784830e+01    1.524318e+00
  1.786418e+01    1.525984e+00
  1.788005e+01    1.518213e+00
  1.789593e+01    1.532753e+00
  1.791180e+01    1.516303e+00
  1.792768e+01    1.494791e+00
  1.794355e+01    1.528966e+00
  1.795943e+01    1.523889e+00
  1.797531e+01    1.496741e+00
  1.799118e+01    1.496115e+00
  1.800706e+01    1.529028e+00
  1.802293e+01    1.491325e+00
  1.803881e+01    1.492273e+00
  1.805468e+01    1.508395e+00
  1.807056e+01    1.504317e+00
  1.808643e+01    1.522166e+00
  1.810231e+01    1.519882e+00
  1.811819e+01    1.488142e+00
  1.813406e+01    1.495561e+00
  1.814994e+01    1.481235e+00
  1.816581e+01    1.498696e+00
  1.818169e+01    1.487794e+00
  1.819756e+01    1.471756e+00
  1.821344e+01    1.472894e+00
  1.822932e+01    1.507491e+00
  1.824519e+01    1.487950e+00
  1.826107e+01    1.457442e+00
  1.827694e+01    1.446099e+00
  1.829282e+01    1.466105e+00
  1.830869e+01    1.462528e+00
  1.832457e+01    1.483885e+00
  1.834044e+01    1.437802e+00
  1.835632e+01    1.463998e+00
  1.837220e+01    1.461773e+00
  1.838807e+01    1.465969e+00
  1.840395e+01    1.487854e+00
  1.841982e+01    1.443433e+00
  1.843570e+01    1.457941e+00
  1.845157e+01    1.459112e+00
  1.846745e+01    1.452820e+00
  1.848332e+01    1.450528e+00
  1.849920e+01    1.425891e+00
  1.851508e+01    1.442895e+00
  1.853095e+01    1.415819e+00
  1.854683e+01    1.440365e+00
  1.856270e+01    1.432570e+00
  1.857858e+01    1.416527e+00
  1.859445e+01    1.445370e+00
  1.861033e+01    1.443431e+00
  1.862620e+01    1.433362e+00
  1.864208e+01    1.436085e+00
  1.865796e+01    1.428307e+00
  1.867383e+01    1.422969e+00
  1.868971e+01    1.443240e+00
  1.870558e+01    1.430944e+00
  1.872146e+01    1.405713e+00
  1.873733e+01    1.400254e+00
  1.875321e+01    1.409401e+00
  1.876908e+01    1.400046e+00
  1.878496e+01    1.411405e+00
  1.880084e+01    1.430555e+00
  1.881671e+01    1.410590e+00
  1.883259e+01    1.410155e+00
  1.884846e+01    1.405134e+00
  1.886434e+01    1.417675e+00
  1.888021e+01    1.419696e+00
  1.889609e+01    1.396785e+00
  1.891196e+01    1.388602e+00
  1.892784e+01    1.410278e+00
  1.894372e+01    1.406057e+00
  1.895959e+01    1.382997e+00
  1.897547e+01    1.378028e+00
  1.899134e+01    1.384294e+00
  1.900722e+01    1.399834e+00
  1.902309e+01    1.354374e+00
  1.903897e+01    1.367340e+00
  1.905484e+01    1.369172e+00
  1.907072e+01    1.384697e+00
  1.908660e+01    1.368849e+00
  1.910247e+01    1.380289e+00
  1.911835e+01    1.404007e+00
  1.913422e+01    1.393868e+00
  1.915010e+01    1.381696e+00
  1.916597e+01    1.367896e+00
  1.918185e+01    1.350354e+00
  1.919773e+01    1.387718e+00
  1.921360e+01    1.363588e+00
  1.922948e+01    1.367988e+00
  1.924535e+01    1.342223e+00
  1.926123e+01    1.352569e+00
  1.927710e+01    1.379104e+00
  1.929298e+01    1.342698e+00
  1.930885e+01    1.352698e+00
  1.932473e+01    1.354982e+00
  1.934061e+01    1.361605e+00
  1.935648e+01    1.355013e+00
  1.937236e+01    1.339193e+00
  1.938823e+01    1.347133e+00
  1.940411e+01    1.378701e+00
  1.941998e+01    1.367208e+00
  1.943586e+01    1.361742e+00
  1.945173e+01    1.343848e+00
  1.946761e+01    1.331937e+00
  1.948349e+01    1.358706e+00
  1.949936e+01    1.359517e+00
  1.951524e+01    1.341108e+00
  1.953111e+01    1.359202e+00
  1.954699e+01    1.348411e+00
  1.956286e+01    1.344877e+00
  1.957874e+01    1.337357e+00
  1.959461e+01    1.333060e+00
  1.961049e+01    1.343532e+00
  1.962637e+01    1.337813e+00
  1.964224e+01    1.330132e+00
  1.965812e+01    1.333123e+00
  1.967399e+01    1.322644e+00
  1.968987e+01    1.322399e+00
  1.970574e+01    1.322970e+00
  1.972162e+01    1.272305e+00
  1.973749e+01    1.285986e+00
  1.975337e+01    1.300777e+00
  1.976925e+01    1.319334e+00
  1.978512e+01    1.278806e+00
  1.980100e+01    1.262597e+00
  1.981687e+01    1.309637e+00
  1.983275e+01    1.281456e+00
  1.984862e+01    1.273306e+00
  1.986450e+01    1.300576e+00
  1.988037e+01    1.281572e+00
  1.989625e+01    1.285596e+00
  1.991213e+01    1.282165e+00
  1.992800e+01    1.265154e+00
  1.994388e+01    1.257949e+00
  1.995975e+01    1.266752e+00
  1.997563e+01    1.264715e+00
  1.999150e+01    1.285192e+00
  2.000738e+01    1.273801e+00
  2.002325e+01    1.255653e+00
  2.003913e+01    1.254204e+00
  2.005501e+01    1.251435e+00
  2.007088e+01    1.263925e+00
  2.008676e+01    1.273824e+00
  2.010263e+01    1.255464e+00
  2.011851e+01    1.271112e+00
  2.013438e+01    1.270107e+00
  2.015026e+01    1.281797e+00
  2.016614e+01    1.281003e+00
  2.018201e+01    1.253241e+00
  2.019789e+01    1.259181e+00
  2.021376e+01    1.253375e+00
  2.022964e+01    1.231434e+00
  2.024551e+01    1.274169e+00
  2.026139e+01    1.256949e+00
  2.027726e+01    1.247483e+00
  2.029314e+01    1.252371e+00
  2.030902e+01    1.248443e+00
  2.032489e+01    1.228287e+00
  2.034077e+01    1.240165e+00
  2.035664e+01    1.264846e+00
  2.037252e+01    1.265245e+00
  2.038839e+01    1.247860e+00
  2.040427e+01    1.268349e+00
  2.042014e+01    1.275677e+00
  2.043602e+01    1.248960e+00
  2.045190e+01    1.246258e+00
  2.046777e+01    1.248496e+00
  2.048365e+01    1.242669e+00
  2.049952e+01    1.243356e+00
  2.051540e+01    1.244117e+00
  2.053127e+01    1.249792e+00
  2.054715e+01    1.232817e+00
  2.056302e+01    1.213891e+00
  2.057890e+01    1.229880e+00
  2.059478e+01    1.248643e+00
  2.061065e+01    1.237956e+00
  2.062653e+01    1.228947e+00
  2.064240e+01    1.227332e+00
  2.065828e+01    1.227065e+00
  2.067415e+01    1.211467e+00
  2.069003e+01    1.240282e+00
  2.070590e+01    1.255427e+00
  2.072178e+01    1.244905e+00
  2.073766e+01    1.232224e+00
  2.075353e+01    1.235431e+00
  2.076941e+01    1.237175e+00
  2.078528e+01    1.229839e+00
  2.080116e+01    1.216377e+00
  2.081703e+01    1.204586e+00
  2.083291e+01    1.210865e+00
  2.084878e+01    1.228683e+00
  2.086466e+01    1.231559e+00
  2.088054e+01    1.251390e+00
  2.089641e+01    1.235172e+00
  2.091229e+01    1.216394e+00
  2.092816e+01    1.230312e+00
  2.094404e+01    1.233946e+00
  2.095991e+01    1.252352e+00
  2.097579e+01    1.226638e+00
  2.099166e+01    1.220887e+00
  2.100754e+01    1.231696e+00
  2.102342e+01    1.224725e+00
  2.103929e+01    1.258878e+00
  2.105517e+01    1.241536e+00
  2.107104e+01    1.239436e+00
  2.108692e+01    1.240244e+00
  2.110279e+01    1.218679e+00
  2.111867e+01    1.229130e+00
  2.113455e+01    1.246112e+00
  2.115042e+01    1.235783e+00
  2.116630e+01    1.254355e+00
  2.118217e+01    1.266256e+00
  2.119805e+01    1.270681e+00
  2.121392e+01    1.243402e+00
  2.122980e+01    1.260409e+00
  2.124567e+01    1.269776e+00
  2.126155e+01    1.237285e+00
  2.127743e+01    1.257316e+00
  2.129330e+01    1.245825e+00
  2.130918e+01    1.267125e+00
  2.132505e+01    1.283300e+00
  2.134093e+01    1.290309e+00
  2.135680e+01    1.291198e+00
  2.137268e+01    1.296173e+00
  2.138855e+01    1.305853e+00
  2.140443e+01    1.307084e+00
  2.142031e+01    1.326941e+00
  2.143618e+01    1.339024e+00
  2.145206e+01    1.339086e+00
  2.146793e+01    1.383471e+00
  2.148381e+01    1.408364e+00
  2.149968e+01    1.423705e+00
  2.151556e+01    1.431702e+00
  2.153143e+01    1.457875e+00
  2.154731e+01    1.488881e+00
  2.156319e+01    1.572466e+00
  2.157906e+01    1.618660e+00
  2.159494e+01    1.643066e+00
  2.161081e+01    1.745530e+00
  2.162669e+01    1.856088e+00
  2.164256e+01    1.995359e+00
  2.165844e+01    2.120173e+00
  2.167431e+01    2.294759e+00
  2.169019e+01    2.484646e+00
  2.170607e+01    2.763424e+00
  2.172194e+01    3.103565e+00
  2.173782e+01    3.534677e+00
  2.175369e+01    4.064302e+00
  2.176957e+01    4.657588e+00
  2.178544e+01    5.188984e+00
  2.180132e+01    5.785217e+00
  2.181719e+01    6.553582e+00
  2.183307e+01    7.246165e+00
  2.184895e+01    7.817713e+00
  2.186482e+01    8.359103e+00
  2.188070e+01    8.730669e+00
  2.189657e+01    8.920308e+00
  2.191245e+01    8.795408e+00
  2.192832e+01    8.237152e+00
  2.194420e+01    7.459547e+00
  2.196007e+01    6.577550e+00
  2.197595e+01    5.631165e+00
  2.199183e+01    4.801119e+00
  2.200770e+01    4.133294e+00
  2.202358e+01    3.567504e+00
  2.203945e+01    3.192534e+00
  2.205533e+01    2.836050e+00
  2.207120e+01    2.572750e+00
  2.208708e+01    2.364161e+00
  2.210296e+01    2.158533e+00
  2.211883e+01    2.004564e+00
  2.213471e+01    1.853251e+00
  2.215058e+01    1.773960e+00
  2.216646e+01    1.691278e+00
  2.218233e+01    1.592261e+00
  2.219821e+01    1.546637e+00
  2.221408e+01    1.489259e+00
  2.222996e+01    1.453405e+00
  2.224584e+01    1.402854e+00
  2.226171e+01    1.358977e+00
  2.227759e+01    1.321517e+00
  2.229346e+01    1.303013e+00
  2.230934e+01    1.301599e+00
  2.232521e+01    1.268609e+00
  2.234109e+01    1.278943e+00
  2.235696e+01    1.258791e+00
  2.237284e+01    1.234010e+00
  2.238872e+01    1.228868e+00
  2.240459e+01    1.207288e+00
  2.242047e+01    1.191816e+00
  2.243634e+01    1.205909e+00
  2.245222e+01    1.192865e+00
  2.246809e+01    1.161263e+00
  2.248397e+01    1.129601e+00
  2.249984e+01    1.141342e+00
  2.251572e+01    1.137499e+00
  2.253160e+01    1.128411e+00
  2.254747e+01    1.129925e+00
  2.256335e+01    1.131466e+00
  2.257922e+01    1.110518e+00
  2.259510e+01    1.092129e+00
  2.261097e+01    1.101750e+00
  2.262685e+01    1.090575e+00
  2.264272e+01    1.082654e+00
  2.265860e+01    1.083113e+00
  2.267448e+01    1.077135e+00
  2.269035e+01    1.081330e+00
  2.270623e+01    1.061645e+00
  2.272210e+01    1.087372e+00
  2.273798e+01    1.091713e+00
  2.275385e+01    1.064952e+00
  2.276973e+01    1.067758e+00
  2.278560e+01    1.059796e+00
  2.280148e+01    1.090946e+00
  2.281736e+01    1.066406e+00
  2.283323e+01    1.053677e+00
  2.284911e+01    1.043163e+00
  2.286498e+01    1.057694e+00
  2.288086e+01    1.046088e+00
  2.289673e+01    1.036161e+00
  2.291261e+01    1.018625e+00
  2.292848e+01    1.020699e+00
  2.294436e+01    1.029873e+00
  2.296024e+01    1.027214e+00
  2.297611e+01    1.026615e+00
  2.299199e+01    1.056883e+00
  2.300786e+01    1.053342e+00
  2.302374e+01    1.040170e+00
  2.303961e+01    1.019782e+00
  2.305549e+01    9.891042e-01
  2.307137e+01    1.011317e+00
  2.308724e+01    1.020667e+00
  2.310312e+01    1.020656e+00
  2.311899e+01    1.015158e+00
  2.313487e+01    9.941032e-01
  2.315074e+01    9.854369e-01
  2.316662e+01    9.978694e-01
  2.318249e+01    9.917094e-01
  2.319837e+01    9.871550e-01
  2.321425e+01    9.883350e-01
  2.323012e+01    9.920096e-01
  2.324600e+01    9.875394e-01
  2.326187e+01    9.844525e-01
  2.327775e+01    9.955472e-01
  2.329362e+01    9.981411e-01
  2.330950e+01    9.854659e-01
  2.332537e+01    9.807179e-01
  2.334125e+01    9.826981e-01
  2.335713e+01    9.823997e-01
  2.337300e+01    9.688192e-01
  2.338888e+01    9.614235e-01
  2.340475e+01    9.814109e-01
  2.342063e+01    9.649343e-01
  2.343650e+01    9.564860e-01
  2.345238e+01    9.724830e-01
  2.346825e+01    9.894768e-01
  2.348413e+01    9.708058e-01
  2.350001e+01    9.857992e-01
  2.351588e+01    9.666454e-01
  2.353176e+01    9.591414e-01
  2.354763e+01    9.743611e-01
  2.356351e+01    9.505288e-01
  2.357938e+01    9.446258e-01
  2.359526e+01    9.599826e-01
  2.361113e+01    9.592043e-01
  2.362701e+01    9.660125e-01
  2.364289e+01    9.477277e-01
  2.365876e+01    9.559507e-01
  2.367464e+01    9.497695e-01
  2.369051e+01    9.301364e-01
  2.370639e+01    9.364742e-01
  2.372226e+01    9.578648e-01
  2.373814e+01    9.265198e-01
  2.375401e+01    9.236439e-01
  2.376989e+01    9.382526e-01
  2.378577e+01    9.216052e-01
  2.380164e+01    9.206543e-01
  2.381752e+01    9.018828e-01
  2.383339e+01    9.149667e-01
  2.384927e+01    9.112579e-01
  2.386514e+01    9.142870e-01
  2.388102e+01    9.020149e-01
  2.389689e+01    9.142097e-01
  2.391277e+01    9.224678e-01
  2.392865e+01    9.238425e-01
  2.394452e+01    9.201748e-01
  2.396040e+01    9.063264e-01
  2.397627e+01    9.181967e-01
  2.399215e+01    9.169762e-01
  2.400802e+01    8.974947e-01
  2.402390e+01    9.044148e-01
  2.403978e+01    9.094368e-01
  2.405565e+01    8.979507e-01
  2.407153e+01    8.965657e-01
  2.408740e+01    8.960265e-01
  2.410328e+01    8.873755e-01
  2.411915e+01    8.942370e-01
  2.413503e+01    9.074185e-01
  2.415090e+01    8.722908e-01
  2.416678e+01    8.841630e-01
  2.418266e+01    9.059647e-01
  2.419853e+01    8.992108e-01
  2.421441e+01    8.801062e-01
  2.423028e+01    8.989070e-01
  2.424616e+01    8.990737e-01
  2.426203e+01    8.915408e-01
  2.427791e+01    8.698168e-01
  2.429378e+01    8.765655e-01
  2.430966e+01    8.906417e-01
  2.432554e+01    8.770157e-01
  2.434141e+01    9.053360e-01
  2.435729e+01    9.135857e-01
  2.437316e+01    9.120990e-01
  2.438904e+01    9.193055e-01
  2.440491e+01    8.835518e-01
  2.442079e+01    8.851348e-01
  2.443666e+01    8.848908e-01
  2.445254e+01    8.987805e-01
  2.446842e+01    8.874331e-01
  2.448429e+01    8.873898e-01
  2.450017e+01    8.894175e-01
  2.451604e+01    8.853282e-01
  2.453192e+01    8.918105e-01
  2.454779e+01    9.126707e-01
  2.456367e+01    8.780454e-01
  2.457954e+01    8.891621e-01
  2.459542e+01    8.959304e-01
  2.461130e+01    8.805348e-01
  2.462717e+01    8.638693e-01
  2.464305e+01    8.770280e-01
  2.465892e+01    9.022811e-01
  2.467480e+01    9.072505e-01
  2.469067e+01    9.059632e-01
  2.470655e+01    8.881955e-01
  2.472242e+01    9.172236e-01
  2.473830e+01    9.109733e-01
  2.475418e+01    8.576267e-01
  2.477005e+01    8.891455e-01
  2.478593e+01    8.720993e-01
  2.480180e+01    8.812657e-01
  2.481768e+01    8.892487e-01
  2.483355e+01    8.848194e-01
  2.484943e+01    8.568127e-01
  2.486530e+01    8.639832e-01
  2.488118e+01    8.888091e-01
  2.489706e+01    8.874300e-01
  2.491293e+01    9.027402e-01
  2.492881e+01    9.106211e-01
  2.494468e+01    9.214666e-01
  2.496056e+01    9.155789e-01
  2.497643e+01    8.981459e-01
  2.499231e+01    8.758758e-01
  2.500819e+01    8.936955e-01
  2.502406e+01    8.993447e-01
  2.503994e+01    8.954151e-01
  2.505581e+01    9.056714e-01
  2.507169e+01    9.014350e-01
  2.508756e+01    8.890218e-01
  2.510344e+01    8.938320e-01
  2.511931e+01    9.117298e-01
  2.513519e+01    9.106205e-01
  2.515107e+01    9.132507e-01
  2.516694e+01    9.261569e-01
  2.518282e+01    9.188674e-01
  2.519869e+01    9.126951e-01
  2.521457e+01    9.302960e-01
  2.523044e+01    9.467883e-01
  2.524632e+01    9.441969e-01
  2.526219e+01    9.526999e-01
  2.527807e+01    9.476756e-01
  2.529395e+01    9.581407e-01
  2.530982e+01    9.710929e-01
  2.532570e+01    9.664229e-01
  2.534157e+01    9.550736e-01
  2.535745e+01    9.900405e-01
  2.537332e+01    1.002885e+00
  2.538920e+01    9.763875e-01
  2.540507e+01    9.940502e-01
  2.542095e+01    9.843511e-01
  2.543683e+01    1.016904e+00
  2.545270e+01    1.006821e+00
  2.546858e+01    1.031051e+00
  2.548445e+01    1.036145e+00
  2.550033e+01    1.051655e+00
  2.551620e+01    1.088184e+00
  2.553208e+01    1.101966e+00
  2.554795e+01    1.113182e+00
  2.556383e+01    1.115891e+00
  2.557971e+01    1.142591e+00
  2.559558e+01    1.187573e+00
  2.561146e+01    1.233914e+00
  2.562733e+01    1.277332e+00
  2.564321e+01    1.315212e+00
  2.565908e+01    1.346474e+00
  2.567496e+01    1.423121e+00
  2.569083e+01    1.484358e+00
  2.570671e+01    1.555900e+00
  2.572259e+01    1.673957e+00
  2.573846e+01    1.831368e+00
  2.575434e+01    2.040743e+00
  2.577021e+01    2.248628e+00
  2.578609e+01    2.552296e+00
  2.580196e+01    2.840973e+00
  2.581784e+01    3.203851e+00
  2.583371e+01    3.690126e+00
  2.584959e+01    4.186273e+00
  2.586547e+01    4.694427e+00
  2.588134e+01    5.262346e+00
  2.589722e+01    5.899191e+00
  2.591309e+01    6.357234e+00
  2.592897e+01    6.760616e+00
  2.594484e+01    7.014428e+00
  2.596072e+01    7.038488e+00
  2.597660e+01    6.857805e+00
  2.599247e+01    6.510853e+00
  2.600835e+01    5.923018e+00
  2.602422e+01    5.234231e+00
  2.604010e+01    4.570854e+00
  2.605597e+01    3.970277e+00
  2.607185e+01    3.450010e+00
  2.608772e+01    2.977059e+00
  2.610360e+01    2.628927e+00
  2.611948e+01    2.368137e+00
  2.613535e+01    2.119519e+00
  2.615123e+01    1.914358e+00
  2.616710e+01    1.780179e+00
  2.618298e+01    1.661495e+00
  2.619885e+01    1.566718e+00
  2.621473e+01    1.480986e+00
  2.623060e+01    1.381709e+00
  2.624648e+01    1.333626e+00
  2.626236e+01    1.271106e+00
  2.627823e+01    1.241483e+00
  2.629411e+01    1.203372e+00
  2.630998e+01    1.188990e+00
  2.632586e+01    1.143183e+00
  2.634173e+01    1.109776e+00
  2.635761e+01    1.108657e+00
  2.637348e+01    1.062501e+00
  2.638936e+01    1.046499e+00
  2.640524e+01    1.052243e+00
  2.642111e+01    1.054592e+00
  2.643699e+01    1.036018e+00
  2.645286e+01    1.018662e+00
  2.646874e+01    1.030999e+00
  2.648461e+01    1.035950e+00
  2.650049e+01    1.025568e+00
  2.651636e+01    1.000809e+00
  2.653224e+01    9.752231e-01
  2.654812e+01    9.810468e-01
  2.656399e+01    9.864472e-01
  2.657987e+01    9.708731e-01
  2.659574e+01    9.545733e-01
  2.661162e+01    9.631591e-01
  2.662749e+01    9.727760e-01
  2.664337e+01    9.664068e-01
  2.665924e+01    9.921650e-01
  2.667512e+01    9.912052e-01
  2.669100e+01    9.756605e-01
  2.670687e+01    9.734224e-01
  2.672275e+01    9.613358e-01
  2.673862e+01    9.682503e-01
  2.675450e+01    9.754041e-01
  2.677037e+01    9.757969e-01
  2.678625e+01    9.764446e-01
  2.680212e+01    9.618226e-01
  2.681800e+01    9.511851e-01
  2.683388e+01    9.744717e-01
  2.684975e+01    9.778147e-01
  2.686563e+01    9.875982e-01
  2.688150e+01    9.822592e-01
  2.689738e+01    1.006069e+00
  2.691325e+01    1.027730e+00
  2.692913e+01    1.031807e+00
  2.694501e+01    1.029472e+00
  2.696088e+01    1.043334e+00
  2.697676e+01    1.046417e+00
  2.699263e+01    1.069256e+00
  2.700851e+01    1.118325e+00
  2.702438e+01    1.161703e+00
  2.704026e+01    1.157079e+00
  2.705613e+01    1.257409e+00
  2.707201e+01    1.324466e+00
  2.708789e+01    1.374894e+00
  2.710376e+01    1.472826e+00
  2.711964e+01    1.602456e+00
  2.713551e+01    1.736290e+00
  2.715139e+01    1.843270e+00
  2.716726e+01    1.992578e+00
  2.718314e+01    2.056746e+00
  2.719901e+01    2.114532e+00
  2.721489e+01    2.134278e+00
  2.723077e+01    2.139021e+00
  2.724664e+01    2.102124e+00
  2.726252e+01    1.936676e+00
  2.727839e+01    1.804119e+00
  2.729427e+01    1.704502e+00
  2.731014e+01    1.552449e+00
  2.732602e+01    1.440168e+00
  2.734189e+01    1.351278e+00
  2.735777e+01    1.281954e+00
  2.737365e+01    1.221173e+00
  2.738952e+01    1.177543e+00
  2.740540e+01    1.144219e+00
  2.742127e+01    1.113774e+00
  2.743715e+01    1.078951e+00
  2.745302e+01    1.030732e+00
  2.746890e+01    9.929952e-01
  2.748477e+01    9.859084e-01
  2.750065e+01    9.714699e-01
  2.751653e+01    9.594303e-01
  2.753240e+01    9.634092e-01
  2.754828e+01    9.649666e-01
  2.756415e+01    9.559588e-01
  2.758003e+01    9.306058e-01
  2.759590e+01    9.174768e-01
  2.761178e+01    9.106497e-01
  2.762765e+01    9.143315e-01
  2.764353e+01    9.163498e-01
  2.765941e+01    8.956089e-01
  2.767528e+01    9.041712e-01
  2.769116e+01    8.958256e-01
  2.770703e+01    9.113961e-01
  2.772291e+01    9.250534e-01
  2.773878e+01    9.285827e-01
  2.775466e+01    9.101793e-01
  2.777054e+01    9.117366e-01
  2.778641e+01    9.090600e-01
  2.780229e+01    8.890356e-01
  2.781816e+01    8.786711e-01
  2.783404e+01    8.737438e-01
  2.784991e+01    8.679556e-01
  2.786579e+01    8.705274e-01
  2.788166e+01    8.846352e-01
  2.789754e+01    8.824987e-01
  2.791342e+01    8.711594e-01
  2.792929e+01    8.626255e-01
  2.794517e+01    8.795353e-01
  2.796104e+01    8.606856e-01
  2.797692e+01    8.540064e-01
  2.799279e+01    8.581738e-01
  2.800867e+01    8.772605e-01
  2.802454e+01    8.734224e-01
  2.804042e+01    8.775775e-01
  2.805630e+01    8.648568e-01
  2.807217e+01    8.730162e-01
  2.808805e+01    8.492408e-01
  2.810392e+01    8.504189e-01
  2.811980e+01    8.585799e-01
  2.813567e+01    8.725686e-01
  2.815155e+01    8.483272e-01
  2.816742e+01    8.457251e-01
  2.818330e+01    8.592500e-01
  2.819918e+01    8.581646e-01
  2.821505e+01    8.614294e-01
  2.823093e+01    8.338976e-01
  2.824680e+01    8.426676e-01
  2.826268e+01    8.605660e-01
  2.827855e+01    8.576443e-01
  2.829443e+01    8.476672e-01
  2.831030e+01    8.500938e-01
  2.832618e+01    8.599816e-01
  2.834206e+01    8.538710e-01
  2.835793e+01    8.383815e-01
  2.837381e+01    8.491084e-01
  2.838968e+01    8.573344e-01
  2.840556e+01    8.508857e-01
  2.842143e+01    8.222756e-01
  2.843731e+01    8.179792e-01
  2.845318e+01    8.312605e-01
  2.846906e+01    8.159762e-01
  2.848494e+01    8.268536e-01
  2.850081e+01    8.423375e-01
  2.851669e+01    8.484197e-01
  2.853256e+01    8.318380e-01
  2.854844e+01    8.257896e-01
  2.856431e+01    8.174713e-01
  2.858019e+01    8.479369e-01
  2.859606e+01    8.555998e-01
  2.861194e+01    8.432111e-01
  2.862782e+01    8.272602e-01
  2.864369e+01    8.381277e-01
  2.865957e+01    8.603284e-01
  2.867544e+01    8.305814e-01
  2.869132e+01    8.314213e-01
  2.870719e+01    8.431191e-01
  2.872307e+01    8.236515e-01
  2.873895e+01    8.158385e-01
  2.875482e+01    8.224056e-01
  2.877070e+01    8.073620e-01
  2.878657e+01    8.098135e-01
  2.880245e+01    7.890716e-01
  2.881832e+01    8.070585e-01
  2.883420e+01    8.268741e-01
  2.885007e+01    8.551880e-01
  2.886595e+01    8.376296e-01
  2.888183e+01    8.141791e-01
  2.889770e+01    8.064929e-01
  2.891358e+01    8.218400e-01
  2.892945e+01    8.421973e-01
  2.894533e+01    8.320483e-01
  2.896120e+01    8.355116e-01
  2.897708e+01    8.261501e-01
  2.899295e+01    8.278183e-01
  2.900883e+01    8.360515e-01
  2.902471e+01    8.277858e-01
  2.904058e+01    7.995531e-01
  2.905646e+01    7.966514e-01
  2.907233e+01    7.998919e-01
  2.908821e+01    8.080632e-01
  2.910408e+01    8.104352e-01
  2.911996e+01    8.195547e-01
  2.913583e+01    8.204817e-01
  2.915171e+01    8.079851e-01
  2.916759e+01    8.170146e-01
  2.918346e+01    8.182163e-01
  2.919934e+01    8.076004e-01
  2.921521e+01    7.991590e-01
  2.923109e+01    7.962592e-01
  2.924696e+01    8.103470e-01
  2.926284e+01    8.131896e-01
  2.927871e+01    7.972572e-01
  2.929459e+01    8.365796e-01
  2.931047e+01    8.424442e-01
  2.932634e+01    8.140177e-01
  2.934222e+01    8.116813e-01
  2.935809e+01    8.100266e-01
  2.937397e+01    7.989830e-01
  2.938984e+01    8.017944e-01
  2.940572e+01    8.063684e-01
  2.942159e+01    8.101828e-01
  2.943747e+01    8.183966e-01
  2.945335e+01    8.231741e-01
  2.946922e+01    8.000948e-01
  2.948510e+01    7.837108e-01
  2.950097e+01    8.023345e-01
  2.951685e+01    8.226951e-01
  2.953272e+01    8.017300e-01
  2.954860e+01    7.953451e-01
  2.956447e+01    8.035910e-01
  2.958035e+01    7.990911e-01
  2.959623e+01    7.879995e-01
  2.961210e+01    8.012698e-01
  2.962798e+01    7.995394e-01
  2.964385e+01    8.009616e-01
  2.965973e+01    8.054060e-01
  2.967560e+01    8.045999e-01
  2.969148e+01    8.007536e-01
  2.970736e+01    8.168677e-01
  2.972323e+01    7.912588e-01
  2.973911e+01    7.959476e-01
  2.975498e+01    7.979456e-01
  2.977086e+01    8.189838e-01
  2.978673e+01    7.980451e-01
  2.980261e+01    8.125541e-01
  2.981848e+01    7.940712e-01
  2.983436e+01    8.042567e-01
  2.985024e+01    7.969055e-01
  2.986611e+01    8.045548e-01
  2.988199e+01    7.996426e-01
  2.989786e+01    7.903807e-01
  2.991374e+01    7.858796e-01
  2.992961e+01    7.884505e-01
  2.994549e+01    7.926794e-01
  2.996136e+01    7.940219e-01
  2.997724e+01    8.051510e-01
  2.999312e+01    8.163645e-01
  3.000899e+01    8.081678e-01
  3.002487e+01    8.316545e-01
  3.004074e+01    8.065482e-01
  3.005662e+01    8.070956e-01
  3.007249e+01    8.119263e-01
  3.008837e+01    8.034058e-01
  3.010424e+01    7.981343e-01
  3.012012e+01    8.270258e-01
  3.013600e+01    8.061023e-01
  3.015187e+01    7.954717e-01
  3.016775e+01    7.844412e-01
  3.018362e+01    7.897200e-01
  3.019950e+01    7.766389e-01
  3.021537e+01    7.966669e-01
  3.023125e+01    7.960345e-01
  3.024712e+01    7.840281e-01
  3.026300e+01    7.860719e-01
  3.027888e+01    8.001879e-01
  3.029475e+01    7.774231e-01
  3.031063e+01    7.727761e-01
  3.032650e+01    7.965228e-01
  3.034238e+01    7.968140e-01
  3.035825e+01    7.838965e-01
  3.037413e+01    8.028257e-01
  3.039000e+01    7.955471e-01
  3.040588e+01    8.055258e-01
  3.042176e+01    7.970138e-01
  3.043763e+01    7.787645e-01
  3.045351e+01    7.822564e-01
  3.046938e+01    7.776293e-01
  3.048526e+01    7.520891e-01
  3.050113e+01    7.687144e-01
  3.051701e+01    7.870103e-01
  3.053288e+01    7.905719e-01
  3.054876e+01    7.582985e-01
  3.056464e+01    7.637404e-01
  3.058051e+01    7.931314e-01
  3.059639e+01    7.818406e-01
  3.061226e+01    8.046967e-01
  3.062814e+01    8.072134e-01
  3.064401e+01    8.025537e-01
  3.065989e+01    8.030294e-01
  3.067577e+01    7.855751e-01
  3.069164e+01    7.948712e-01
  3.070752e+01    7.777383e-01
  3.072339e+01    7.915466e-01
  3.073927e+01    7.790619e-01
  3.075514e+01    7.769641e-01
  3.077102e+01    7.914761e-01
  3.078689e+01    7.926796e-01
  3.080277e+01    7.987390e-01
  3.081865e+01    8.096125e-01
  3.083452e+01    8.042260e-01
  3.085040e+01    7.997573e-01
  3.086627e+01    7.795017e-01
  3.088215e+01    7.651249e-01
  3.089802e+01    7.672471e-01
  3.091390e+01    7.963765e-01
  3.092977e+01    7.772802e-01
  3.094565e+01    7.892822e-01
  3.096153e+01    7.770059e-01
  3.097740e+01    7.906075e-01
  3.099328e+01    7.998370e-01
  3.100915e+01    7.934062e-01
  3.102503e+01    7.953405e-01
  3.104090e+01    7.930269e-01
  3.105678e+01    8.166804e-01
  3.107265e+01    7.882994e-01
  3.108853e+01    7.648523e-01
  3.110441e+01    7.768585e-01
  3.112028e+01    8.033263e-01
  3.113616e+01    7.968214e-01
  3.115203e+01    7.902736e-01
  3.116791e+01    7.719857e-01
  3.118378e+01    8.176471e-01
  3.119966e+01    7.927587e-01
  3.121553e+01    7.942384e-01
  3.123141e+01    7.887592e-01
  3.124729e+01    7.824174e-01
  3.126316e+01    8.009666e-01
  3.127904e+01    7.892297e-01
  3.129491e+01    8.089165e-01
  3.131079e+01    8.039805e-01
  3.132666e+01    7.934252e-01
  3.134254e+01    8.110608e-01
  3.135841e+01    8.055495e-01
  3.137429e+01    8.105605e-01
  3.139017e+01    8.100383e-01
  3.140604e+01    8.139945e-01
  3.142192e+01    8.291058e-01
  3.143779e+01    8.123937e-01
  3.145367e+01    8.227736e-01
  3.146954e+01    8.325161e-01
  3.148542e+01    8.233300e-01
  3.150129e+01    8.070002e-01
  3.151717e+01    8.317322e-01
  3.153305e+01    8.325052e-01
  3.154892e+01    8.496000e-01
  3.156480e+01    8.503376e-01
  3.158067e+01    8.577653e-01
  3.159655e+01    8.617191e-01
  3.161242e+01    8.854867e-01
  3.162830e+01    8.894370e-01
  3.164418e+01    9.210976e-01
  3.166005e+01    9.455236e-01
  3.167593e+01    9.691917e-01
  3.169180e+01    1.004060e+00
  3.170768e+01    1.025775e+00
  3.172355e+01    1.027215e+00
  3.173943e+01    1.078667e+00
  3.175530e+01    1.193754e+00
  3.177118e+01    1.252264e+00
  3.178706e+01    1.332373e+00
  3.180293e+01    1.441859e+00
  3.181881e+01    1.571963e+00
  3.183468e+01    1.717111e+00
  3.185056e+01    1.808879e+00
  3.186643e+01    1.879943e+00
  3.188231e+01    2.025672e+00
  3.189818e+01    2.142410e+00
  3.191406e+01    2.079883e+00
  3.192994e+01    2.039694e+00
  3.194581e+01    1.967830e+00
  3.196169e+01    1.829548e+00
  3.197756e+01    1.668309e+00
  3.199344e+01    1.536893e+00
  3.200931e+01    1.433279e+00
  3.202519e+01    1.322637e+00
  3.204106e+01    1.235837e+00
  3.205694e+01    1.144457e+00
  3.207282e+01    1.076144e+00
  3.208869e+01    1.032990e+00
  3.210457e+01    9.982758e-01
  3.212044e+01    9.794624e-01
  3.213632e+01    9.524910e-01
  3.215219e+01    9.224747e-01
  3.216807e+01    9.095610e-01
  3.218394e+01    8.585751e-01
  3.219982e+01    8.512328e-01
  3.221570e+01    8.650306e-01
  3.223157e+01    8.394000e-01
  3.224745e+01    8.280579e-01
  3.226332e+01    8.214924e-01
  3.227920e+01    8.128453e-01
  3.229507e+01    8.177816e-01
  3.231095e+01    8.202030e-01
  3.232682e+01    8.226922e-01
  3.234270e+01    8.008459e-01
  3.235858e+01    8.030566e-01
  3.237445e+01    8.015481e-01
  3.239033e+01    8.093865e-01
  3.240620e+01    8.026076e-01
  3.242208e+01    7.974197e-01
  3.243795e+01    7.952828e-01
  3.245383e+01    8.150237e-01
  3.246970e+01    7.898795e-01
  3.248558e+01    7.495328e-01
  3.250146e+01    7.635844e-01
  3.251733e+01    7.817556e-01
  3.253321e+01    7.804727e-01
  3.254908e+01    8.026791e-01
