# == pyFAI calibration ==
# Distance Sample to Detector: 0.3999999939076516 m
# PONI: 9.750e-02, 1.135e-01 m
# Rotations: -0.000175 0.000000 -0.000000 rad
# 
# == Fit2d calibration ==
# Distance Sample-beamCenter: 400.000 mm
# Center: x=1514.000, y=1300.000 pix
# Tilt: 0.010 deg  TiltPlanRot: 0.010 deg
# 
# Detector Detector	 Spline= None	 PixelSize= 7.500e-05, 7.500e-05 m
#    Detector has a mask: False 
#    Detector has a dark current: False 
#    detector has a flat field: False 
# 
# Wavelength: 6.888e-11 m
# Mask applied: user provided
# Dark current applied: False
# Flat field applied: False
# Polarization factor: 0.99
# Normalization factor: 1.0
# --> /home/myspot/data/2024_07_Rosario/Ru-CGO-ex/2024-07-27_003_Ru-CGO-ex_Reaction_dwell_000023_data_000188.dat
#       q_nm^-1             I 
  2.003187e-02    0.000000e+00
  3.590745e-02    0.000000e+00
  5.178302e-02    0.000000e+00
  6.765859e-02    4.975246e-02
  8.353417e-02    1.812922e-01
  9.940974e-02    5.345323e-02
  1.152853e-01    5.690903e-02
  1.311609e-01    8.934905e-02
  1.470365e-01    1.667995e-02
  1.629120e-01    0.000000e+00
  1.787876e-01    0.000000e+00
  1.946632e-01    1.443792e-02
  2.105388e-01    6.473486e-02
  2.264143e-01    4.988310e-02
  2.422899e-01    2.884522e-02
  2.581655e-01    2.929869e-02
  2.740411e-01    3.275544e-02
  2.899166e-01    5.232160e-02
  3.057922e-01    4.474375e-02
  3.216678e-01    2.029014e-02
  3.375433e-01    4.762294e-02
  3.534189e-01    4.975943e-02
  3.692945e-01    4.488159e-02
  3.851701e-01    6.860752e-02
  4.010456e-01    5.292230e-02
  4.169212e-01    4.867732e-02
  4.327968e-01    3.234919e-02
  4.486724e-01    3.302103e-02
  4.645479e-01    6.060113e-02
  4.804235e-01    5.925424e-02
  4.962991e-01    8.497990e-03
  5.121747e-01    5.750469e-03
  5.280502e-01    2.693150e-02
  5.439258e-01    3.583529e-02
  5.598014e-01    8.203299e-02
  5.756770e-01    4.832909e-02
  5.915525e-01    1.786651e-02
  6.074281e-01    5.228361e-02
  6.233037e-01    4.399003e-02
  6.391793e-01    3.648167e-02
  6.550548e-01    3.416933e-02
  6.709304e-01    3.651074e-02
  6.868060e-01    2.373431e-02
  7.026815e-01    3.773003e-02
  7.185571e-01    3.267752e-02
  7.344327e-01    3.052315e-02
  7.503083e-01    4.435124e-02
  7.661838e-01    6.461885e-02
  7.820594e-01    1.015559e-01
  7.979350e-01    1.809011e-01
  8.138106e-01    2.234987e-01
  8.296861e-01    2.832364e-01
  8.455617e-01    3.400049e-01
  8.614373e-01    3.348697e-01
  8.773129e-01    4.142363e-01
  8.931884e-01    5.246120e-01
  9.090640e-01    5.865455e-01
  9.249396e-01    6.162151e-01
  9.408152e-01    7.601215e-01
  9.566907e-01    9.463721e-01
  9.725663e-01    1.131638e+00
  9.884419e-01    1.169318e+00
  1.004317e+00    1.184628e+00
  1.020193e+00    1.290240e+00
  1.036069e+00    1.428367e+00
  1.051944e+00    1.475354e+00
  1.067820e+00    1.576380e+00
  1.083695e+00    1.635832e+00
  1.099571e+00    1.471989e+00
  1.115446e+00    1.509082e+00
  1.131322e+00    1.625428e+00
  1.147198e+00    1.754077e+00
  1.163073e+00    1.711156e+00
  1.178949e+00    1.766158e+00
  1.194824e+00    1.732495e+00
  1.210700e+00    1.917810e+00
  1.226575e+00    2.279414e+00
  1.242451e+00    2.223973e+00
  1.258327e+00    2.407322e+00
  1.274202e+00    2.445800e+00
  1.290078e+00    2.642996e+00
  1.305953e+00    2.731100e+00
  1.321829e+00    2.731318e+00
  1.337705e+00    2.762741e+00
  1.353580e+00    2.828885e+00
  1.369456e+00    2.870356e+00
  1.385331e+00    2.811250e+00
  1.401207e+00    2.822956e+00
  1.417082e+00    2.891132e+00
  1.432958e+00    3.078926e+00
  1.448834e+00    3.036717e+00
  1.464709e+00    3.096831e+00
  1.480585e+00    3.037851e+00
  1.496460e+00    2.969411e+00
  1.512336e+00    2.989106e+00
  1.528211e+00    3.049431e+00
  1.544087e+00    3.199491e+00
  1.559963e+00    3.158764e+00
  1.575838e+00    3.180000e+00
  1.591714e+00    3.141586e+00
  1.607589e+00    3.107028e+00
  1.623465e+00    3.128278e+00
  1.639340e+00    3.202434e+00
  1.655216e+00    3.217243e+00
  1.671092e+00    3.122967e+00
  1.686967e+00    2.960099e+00
  1.702843e+00    3.068501e+00
  1.718718e+00    3.010126e+00
  1.734594e+00    3.061514e+00
  1.750469e+00    2.995815e+00
  1.766345e+00    2.921863e+00
  1.782221e+00    2.904364e+00
  1.798096e+00    2.956091e+00
  1.813972e+00    2.914822e+00
  1.829847e+00    2.912641e+00
  1.845723e+00    2.944385e+00
  1.861598e+00    3.042883e+00
  1.877474e+00    3.015452e+00
  1.893350e+00    3.037015e+00
  1.909225e+00    3.156476e+00
  1.925101e+00    3.052899e+00
  1.940976e+00    3.060541e+00
  1.956852e+00    3.034713e+00
  1.972727e+00    3.087171e+00
  1.988603e+00    3.009823e+00
  2.004479e+00    3.044991e+00
  2.020354e+00    3.034460e+00
  2.036230e+00    3.075494e+00
  2.052105e+00    3.038289e+00
  2.067981e+00    2.981319e+00
  2.083856e+00    3.068058e+00
  2.099732e+00    3.070253e+00
  2.115608e+00    3.119756e+00
  2.131483e+00    3.095708e+00
  2.147359e+00    3.092814e+00
  2.163234e+00    3.080855e+00
  2.179110e+00    3.092274e+00
  2.194985e+00    3.184678e+00
  2.210861e+00    3.167373e+00
  2.226737e+00    3.069267e+00
  2.242612e+00    3.031657e+00
  2.258488e+00    3.033523e+00
  2.274363e+00    3.061615e+00
  2.290239e+00    3.112501e+00
  2.306115e+00    3.070880e+00
  2.321990e+00    3.099681e+00
  2.337866e+00    3.093042e+00
  2.353741e+00    3.114891e+00
  2.369617e+00    3.233275e+00
  2.385492e+00    3.104394e+00
  2.401368e+00    3.087741e+00
  2.417244e+00    3.158229e+00
  2.433119e+00    3.239714e+00
  2.448995e+00    3.113898e+00
  2.464870e+00    3.116507e+00
  2.480746e+00    3.130121e+00
  2.496621e+00    3.177413e+00
  2.512497e+00    3.152493e+00
  2.528373e+00    3.145620e+00
  2.544248e+00    3.221240e+00
  2.560124e+00    3.169674e+00
  2.575999e+00    3.224699e+00
  2.591875e+00    3.207435e+00
  2.607750e+00    3.252912e+00
  2.623626e+00    3.305732e+00
  2.639502e+00    3.143239e+00
  2.655377e+00    3.155004e+00
  2.671253e+00    3.159107e+00
  2.687128e+00    3.141839e+00
  2.703004e+00    3.221469e+00
  2.718879e+00    3.188208e+00
  2.734755e+00    3.192482e+00
  2.750631e+00    3.319107e+00
  2.766506e+00    3.222859e+00
  2.782382e+00    3.157040e+00
  2.798257e+00    3.194750e+00
  2.814133e+00    3.224124e+00
  2.830008e+00    3.195410e+00
  2.845884e+00    3.284539e+00
  2.861760e+00    3.311939e+00
  2.877635e+00    3.342014e+00
  2.893511e+00    3.268111e+00
  2.909386e+00    3.343704e+00
  2.925262e+00    3.332901e+00
  2.941137e+00    3.300020e+00
  2.957013e+00    3.252549e+00
  2.972889e+00    3.230417e+00
  2.988764e+00    3.267725e+00
  3.004640e+00    3.225908e+00
  3.020515e+00    3.175404e+00
  3.036391e+00    3.132669e+00
  3.052266e+00    3.213417e+00
  3.068142e+00    3.267651e+00
  3.084018e+00    3.252389e+00
  3.099893e+00    3.305415e+00
  3.115769e+00    3.271486e+00
  3.131644e+00    3.328664e+00
  3.147520e+00    3.390593e+00
  3.163395e+00    3.330122e+00
  3.179271e+00    3.307035e+00
  3.195147e+00    3.421034e+00
  3.211022e+00    3.328246e+00
  3.226898e+00    3.271509e+00
  3.242773e+00    3.328065e+00
  3.258649e+00    3.344991e+00
  3.274525e+00    3.337476e+00
  3.290400e+00    3.343843e+00
  3.306276e+00    3.372201e+00
  3.322151e+00    3.367604e+00
  3.338027e+00    3.379114e+00
  3.353902e+00    3.351999e+00
  3.369778e+00    3.474404e+00
  3.385654e+00    3.453522e+00
  3.401529e+00    3.356333e+00
  3.417405e+00    3.392728e+00
  3.433280e+00    3.428005e+00
  3.449156e+00    3.356525e+00
  3.465031e+00    3.286483e+00
  3.480907e+00    3.338366e+00
  3.496783e+00    3.431991e+00
  3.512658e+00    3.383802e+00
  3.528534e+00    3.393744e+00
  3.544409e+00    3.450873e+00
  3.560285e+00    3.413924e+00
  3.576160e+00    3.472797e+00
  3.592036e+00    3.508378e+00
  3.607912e+00    3.501612e+00
  3.623787e+00    3.560155e+00
  3.639663e+00    3.521331e+00
  3.655538e+00    3.406086e+00
  3.671414e+00    3.437159e+00
  3.687289e+00    3.473597e+00
  3.703165e+00    3.472252e+00
  3.719041e+00    3.404690e+00
  3.734916e+00    3.450765e+00
  3.750792e+00    3.438958e+00
  3.766667e+00    3.351511e+00
  3.782543e+00    3.393666e+00
  3.798418e+00    3.494459e+00
  3.814294e+00    3.378332e+00
  3.830170e+00    3.381402e+00
  3.846045e+00    3.498477e+00
  3.861921e+00    3.370329e+00
  3.877796e+00    3.432237e+00
  3.893672e+00    3.404396e+00
  3.909547e+00    3.345867e+00
  3.925423e+00    3.558477e+00
  3.941299e+00    3.551410e+00
  3.957174e+00    3.438691e+00
  3.973050e+00    3.544342e+00
  3.988925e+00    3.409980e+00
  4.004801e+00    3.462883e+00
  4.020676e+00    3.505743e+00
  4.036552e+00    3.452373e+00
  4.052428e+00    3.408130e+00
  4.068303e+00    3.487435e+00
  4.084179e+00    3.520137e+00
  4.100054e+00    3.497691e+00
  4.115930e+00    3.511495e+00
  4.131806e+00    3.544799e+00
  4.147681e+00    3.454431e+00
  4.163557e+00    3.426825e+00
  4.179432e+00    3.488817e+00
  4.195308e+00    3.546724e+00
  4.211183e+00    3.453957e+00
  4.227059e+00    3.493702e+00
  4.242935e+00    3.464461e+00
  4.258810e+00    3.490296e+00
  4.274686e+00    3.454236e+00
  4.290561e+00    3.568317e+00
  4.306437e+00    3.563420e+00
  4.322312e+00    3.554636e+00
  4.338188e+00    3.498813e+00
  4.354064e+00    3.438313e+00
  4.369939e+00    3.410324e+00
  4.385815e+00    3.489348e+00
  4.401690e+00    3.516102e+00
  4.417566e+00    3.497233e+00
  4.433441e+00    3.524413e+00
  4.449317e+00    3.489634e+00
  4.465193e+00    3.491251e+00
  4.481068e+00    3.491259e+00
  4.496944e+00    3.551030e+00
  4.512819e+00    3.534437e+00
  4.528695e+00    3.490739e+00
  4.544570e+00    3.466474e+00
  4.560446e+00    3.455728e+00
  4.576322e+00    3.530975e+00
  4.592197e+00    3.619587e+00
  4.608073e+00    3.646669e+00
  4.623948e+00    3.570820e+00
  4.639824e+00    3.483979e+00
  4.655699e+00    3.553562e+00
  4.671575e+00    3.515493e+00
  4.687451e+00    3.510466e+00
  4.703326e+00    3.572878e+00
  4.719202e+00    3.542541e+00
  4.735077e+00    3.501177e+00
  4.750953e+00    3.531121e+00
  4.766828e+00    3.508184e+00
  4.782704e+00    3.501088e+00
  4.798580e+00    3.534772e+00
  4.814455e+00    3.530057e+00
  4.830331e+00    3.511917e+00
  4.846206e+00    3.598157e+00
  4.862082e+00    3.703432e+00
  4.877957e+00    3.695833e+00
  4.893833e+00    3.566087e+00
  4.909709e+00    3.550222e+00
  4.925584e+00    3.645875e+00
  4.941460e+00    3.597530e+00
  4.957335e+00    3.571385e+00
  4.973211e+00    3.565871e+00
  4.989086e+00    3.540199e+00
  5.004962e+00    3.507796e+00
  5.020838e+00    3.516548e+00
  5.036713e+00    3.544225e+00
  5.052589e+00    3.548238e+00
  5.068464e+00    3.602380e+00
  5.084340e+00    3.521488e+00
  5.100216e+00    3.513311e+00
  5.116091e+00    3.556134e+00
  5.131967e+00    3.582409e+00
  5.147842e+00    3.593835e+00
  5.163718e+00    3.532094e+00
  5.179593e+00    3.518377e+00
  5.195469e+00    3.483840e+00
  5.211345e+00    3.575980e+00
  5.227220e+00    3.542679e+00
  5.243096e+00    3.565977e+00
  5.258971e+00    3.543193e+00
  5.274847e+00    3.633764e+00
  5.290722e+00    3.601358e+00
  5.306598e+00    3.574457e+00
  5.322474e+00    3.583927e+00
  5.338349e+00    3.595736e+00
  5.354225e+00    3.588191e+00
  5.370100e+00    3.650537e+00
  5.385976e+00    3.647483e+00
  5.401851e+00    3.583544e+00
  5.417727e+00    3.543303e+00
  5.433603e+00    3.551149e+00
  5.449478e+00    3.508676e+00
  5.465354e+00    3.566313e+00
  5.481229e+00    3.580448e+00
  5.497105e+00    3.504907e+00
  5.512980e+00    3.541682e+00
  5.528856e+00    3.529792e+00
  5.544732e+00    3.570418e+00
  5.560607e+00    3.519875e+00
  5.576483e+00    3.531706e+00
  5.592358e+00    3.519737e+00
  5.608234e+00    3.484085e+00
  5.624109e+00    3.514472e+00
  5.639985e+00    3.528619e+00
  5.655861e+00    3.518188e+00
  5.671736e+00    3.554232e+00
  5.687612e+00    3.618127e+00
  5.703487e+00    3.597418e+00
  5.719363e+00    3.476668e+00
  5.735238e+00    3.540023e+00
  5.751114e+00    3.535990e+00
  5.766990e+00    3.464286e+00
  5.782865e+00    3.459453e+00
  5.798741e+00    3.542061e+00
  5.814616e+00    3.542768e+00
  5.830492e+00    3.615720e+00
  5.846367e+00    3.537623e+00
  5.862243e+00    3.483411e+00
  5.878119e+00    3.543877e+00
  5.893994e+00    3.502251e+00
  5.909870e+00    3.465169e+00
  5.925745e+00    3.475436e+00
  5.941621e+00    3.484003e+00
  5.957497e+00    3.507799e+00
  5.973372e+00    3.437919e+00
  5.989248e+00    3.430634e+00
  6.005123e+00    3.421060e+00
  6.020999e+00    3.459957e+00
  6.036874e+00    3.508054e+00
  6.052750e+00    3.498122e+00
  6.068626e+00    3.436363e+00
  6.084501e+00    3.504590e+00
  6.100377e+00    3.492227e+00
  6.116252e+00    3.477477e+00
  6.132128e+00    3.615592e+00
  6.148003e+00    3.602724e+00
  6.163879e+00    3.541389e+00
  6.179755e+00    3.518040e+00
  6.195630e+00    3.489480e+00
  6.211506e+00    3.483333e+00
  6.227381e+00    3.461179e+00
  6.243257e+00    3.498470e+00
  6.259132e+00    3.465628e+00
  6.275008e+00    3.440736e+00
  6.290884e+00    3.503567e+00
  6.306759e+00    3.367324e+00
  6.322635e+00    3.444704e+00
  6.338510e+00    3.446407e+00
  6.354386e+00    3.399901e+00
  6.370261e+00    3.492661e+00
  6.386137e+00    3.501766e+00
  6.402013e+00    3.504123e+00
  6.417888e+00    3.502620e+00
  6.433764e+00    3.545275e+00
  6.449639e+00    3.530057e+00
  6.465515e+00    3.442717e+00
  6.481390e+00    3.468616e+00
  6.497266e+00    3.457276e+00
  6.513142e+00    3.492325e+00
  6.529017e+00    3.489743e+00
  6.544893e+00    3.400501e+00
  6.560768e+00    3.499952e+00
  6.576644e+00    3.521915e+00
  6.592519e+00    3.470342e+00
  6.608395e+00    3.455970e+00
  6.624271e+00    3.457389e+00
  6.640146e+00    3.527713e+00
  6.656022e+00    3.513674e+00
  6.671897e+00    3.518757e+00
  6.687773e+00    3.539191e+00
  6.703648e+00    3.494379e+00
  6.719524e+00    3.497755e+00
  6.735400e+00    3.515671e+00
  6.751275e+00    3.439543e+00
  6.767151e+00    3.440441e+00
  6.783026e+00    3.475443e+00
  6.798902e+00    3.488889e+00
  6.814777e+00    3.466971e+00
  6.830653e+00    3.518769e+00
  6.846529e+00    3.471584e+00
  6.862404e+00    3.431848e+00
  6.878280e+00    3.471859e+00
  6.894155e+00    3.436945e+00
  6.910031e+00    3.439549e+00
  6.925907e+00    3.453353e+00
  6.941782e+00    3.464639e+00
  6.957658e+00    3.486337e+00
  6.973533e+00    3.493069e+00
  6.989409e+00    3.468121e+00
  7.005284e+00    3.521232e+00
  7.021160e+00    3.507564e+00
  7.037036e+00    3.507213e+00
  7.052911e+00    3.521463e+00
  7.068787e+00    3.554570e+00
  7.084662e+00    3.533637e+00
  7.100538e+00    3.528332e+00
  7.116413e+00    3.506500e+00
  7.132289e+00    3.461679e+00
  7.148165e+00    3.436521e+00
  7.164040e+00    3.513934e+00
  7.179916e+00    3.498088e+00
  7.195791e+00    3.447103e+00
  7.211667e+00    3.476612e+00
  7.227542e+00    3.473308e+00
  7.243418e+00    3.376244e+00
  7.259294e+00    3.385305e+00
  7.275169e+00    3.406877e+00
  7.291045e+00    3.445282e+00
  7.306920e+00    3.488930e+00
  7.322796e+00    3.499483e+00
  7.338671e+00    3.485536e+00
  7.354547e+00    3.419863e+00
  7.370423e+00    3.386650e+00
  7.386298e+00    3.427287e+00
  7.402174e+00    3.466629e+00
  7.418049e+00    3.414614e+00
  7.433925e+00    3.427039e+00
  7.449800e+00    3.407714e+00
  7.465676e+00    3.437062e+00
  7.481552e+00    3.430049e+00
  7.497427e+00    3.423625e+00
  7.513303e+00    3.406856e+00
  7.529178e+00    3.355658e+00
  7.545054e+00    3.307561e+00
  7.560929e+00    3.289399e+00
  7.576805e+00    3.430683e+00
  7.592681e+00    3.415342e+00
  7.608556e+00    3.416917e+00
  7.624432e+00    3.350244e+00
  7.640307e+00    3.394073e+00
  7.656183e+00    3.344939e+00
  7.672058e+00    3.352382e+00
  7.687934e+00    3.376355e+00
  7.703810e+00    3.335768e+00
  7.719685e+00    3.467917e+00
  7.735561e+00    3.434206e+00
  7.751436e+00    3.382770e+00
  7.767312e+00    3.398470e+00
  7.783187e+00    3.394057e+00
  7.799063e+00    3.394601e+00
  7.814939e+00    3.449014e+00
  7.830814e+00    3.430723e+00
  7.846690e+00    3.439553e+00
  7.862565e+00    3.412897e+00
  7.878441e+00    3.368724e+00
  7.894317e+00    3.348304e+00
  7.910192e+00    3.380024e+00
  7.926068e+00    3.363360e+00
  7.941943e+00    3.413074e+00
  7.957819e+00    3.403506e+00
  7.973694e+00    3.399487e+00
  7.989570e+00    3.379520e+00
  8.005446e+00    3.405528e+00
  8.021321e+00    3.359779e+00
  8.037197e+00    3.314036e+00
  8.053072e+00    3.301716e+00
  8.068948e+00    3.318837e+00
  8.084823e+00    3.347742e+00
  8.100699e+00    3.340677e+00
  8.116575e+00    3.387034e+00
  8.132450e+00    3.373902e+00
  8.148326e+00    3.407565e+00
  8.164201e+00    3.389278e+00
  8.180077e+00    3.386926e+00
  8.195952e+00    3.394480e+00
  8.211828e+00    3.443963e+00
  8.227704e+00    3.410365e+00
  8.243579e+00    3.390412e+00
  8.259455e+00    3.410335e+00
  8.275330e+00    3.391762e+00
  8.291206e+00    3.307856e+00
  8.307081e+00    3.315365e+00
  8.322957e+00    3.407601e+00
  8.338833e+00    3.328784e+00
  8.354708e+00    3.299901e+00
  8.370584e+00    3.331829e+00
  8.386459e+00    3.325267e+00
  8.402335e+00    3.367613e+00
  8.418210e+00    3.308267e+00
  8.434086e+00    3.318414e+00
  8.449962e+00    3.316898e+00
  8.465837e+00    3.366425e+00
  8.481713e+00    3.244854e+00
  8.497588e+00    3.281753e+00
  8.513464e+00    3.315428e+00
  8.529339e+00    3.333736e+00
  8.545215e+00    3.355525e+00
  8.561091e+00    3.312784e+00
  8.576966e+00    3.309898e+00
  8.592842e+00    3.255753e+00
  8.608717e+00    3.346420e+00
  8.624593e+00    3.339859e+00
  8.640468e+00    3.272445e+00
  8.656344e+00    3.284881e+00
  8.672220e+00    3.246393e+00
  8.688095e+00    3.316116e+00
  8.703971e+00    3.291805e+00
  8.719846e+00    3.274068e+00
  8.735722e+00    3.256717e+00
  8.751598e+00    3.243647e+00
  8.767473e+00    3.271521e+00
  8.783349e+00    3.269161e+00
  8.799224e+00    3.256617e+00
  8.815100e+00    3.344649e+00
  8.830975e+00    3.244911e+00
  8.846851e+00    3.208338e+00
  8.862727e+00    3.238545e+00
  8.878602e+00    3.302331e+00
  8.894478e+00    3.280344e+00
  8.910353e+00    3.198152e+00
  8.926229e+00    3.196009e+00
  8.942104e+00    3.270699e+00
  8.957980e+00    3.277847e+00
  8.973856e+00    3.235289e+00
  8.989731e+00    3.269589e+00
  9.005607e+00    3.255961e+00
  9.021482e+00    3.225645e+00
  9.037358e+00    3.209932e+00
  9.053233e+00    3.231943e+00
  9.069109e+00    3.169385e+00
  9.084985e+00    3.201350e+00
  9.100860e+00    3.221644e+00
  9.116736e+00    3.258116e+00
  9.132611e+00    3.227271e+00
  9.148487e+00    3.194636e+00
  9.164362e+00    3.251175e+00
  9.180238e+00    3.191463e+00
  9.196114e+00    3.148297e+00
  9.211989e+00    3.216708e+00
  9.227865e+00    3.211401e+00
  9.243740e+00    3.203340e+00
  9.259616e+00    3.207985e+00
  9.275491e+00    3.234797e+00
  9.291367e+00    3.187487e+00
  9.307243e+00    3.177767e+00
  9.323118e+00    3.127120e+00
  9.338994e+00    3.204022e+00
  9.354869e+00    3.217157e+00
  9.370745e+00    3.152229e+00
  9.386620e+00    3.192906e+00
  9.402496e+00    3.185287e+00
  9.418372e+00    3.158194e+00
  9.434247e+00    3.158633e+00
  9.450123e+00    3.097864e+00
  9.465998e+00    3.176429e+00
  9.481874e+00    3.183938e+00
  9.497749e+00    3.202496e+00
  9.513625e+00    3.167195e+00
  9.529501e+00    3.175173e+00
  9.545376e+00    3.234239e+00
  9.561252e+00    3.196263e+00
  9.577127e+00    3.117112e+00
  9.593003e+00    3.116578e+00
  9.608878e+00    3.131707e+00
  9.624754e+00    3.115510e+00
  9.640630e+00    3.171349e+00
  9.656505e+00    3.131643e+00
  9.672381e+00    3.142869e+00
  9.688256e+00    3.167572e+00
  9.704132e+00    3.166010e+00
  9.720008e+00    3.206388e+00
  9.735883e+00    3.190195e+00
  9.751759e+00    3.082062e+00
  9.767634e+00    3.120268e+00
  9.783510e+00    3.162467e+00
  9.799385e+00    3.133326e+00
  9.815261e+00    3.110838e+00
  9.831137e+00    3.089295e+00
  9.847012e+00    3.147406e+00
  9.862888e+00    3.153313e+00
  9.878763e+00    3.066298e+00
  9.894639e+00    3.048902e+00
  9.910514e+00    3.010965e+00
  9.926390e+00    3.101021e+00
  9.942266e+00    3.083655e+00
  9.958141e+00    3.094872e+00
  9.974017e+00    3.107655e+00
  9.989892e+00    3.081952e+00
  1.000577e+01    3.047854e+00
  1.002164e+01    3.042382e+00
  1.003752e+01    3.044653e+00
  1.005339e+01    3.024207e+00
  1.006927e+01    3.022918e+00
  1.008515e+01    2.987890e+00
  1.010102e+01    3.028291e+00
  1.011690e+01    3.047499e+00
  1.013277e+01    3.022302e+00
  1.014865e+01    3.067380e+00
  1.016452e+01    3.050235e+00
  1.018040e+01    3.024051e+00
  1.019627e+01    3.044566e+00
  1.021215e+01    3.048537e+00
  1.022803e+01    3.011583e+00
  1.024390e+01    3.014096e+00
  1.025978e+01    3.056558e+00
  1.027565e+01    3.023242e+00
  1.029153e+01    2.964988e+00
  1.030740e+01    2.964252e+00
  1.032328e+01    3.031037e+00
  1.033915e+01    3.029686e+00
  1.035503e+01    3.008067e+00
  1.037091e+01    2.992284e+00
  1.038678e+01    3.000798e+00
  1.040266e+01    2.964755e+00
  1.041853e+01    2.946026e+00
  1.043441e+01    2.988439e+00
  1.045028e+01    3.023274e+00
  1.046616e+01    2.976892e+00
  1.048204e+01    2.943245e+00
  1.049791e+01    2.936781e+00
  1.051379e+01    2.945971e+00
  1.052966e+01    2.960281e+00
  1.054554e+01    2.933951e+00
  1.056141e+01    2.947785e+00
  1.057729e+01    2.985548e+00
  1.059316e+01    2.990461e+00
  1.060904e+01    2.982232e+00
  1.062492e+01    2.960659e+00
  1.064079e+01    2.957293e+00
  1.065667e+01    2.886622e+00
  1.067254e+01    2.903069e+00
  1.068842e+01    2.938337e+00
  1.070429e+01    2.885675e+00
  1.072017e+01    2.858683e+00
  1.073604e+01    2.930826e+00
  1.075192e+01    2.976911e+00
  1.076780e+01    2.933118e+00
  1.078367e+01    2.900716e+00
  1.079955e+01    2.913762e+00
  1.081542e+01    2.886618e+00
  1.083130e+01    2.918435e+00
  1.084717e+01    2.886527e+00
  1.086305e+01    2.852284e+00
  1.087892e+01    2.880193e+00
  1.089480e+01    2.895407e+00
  1.091068e+01    2.886208e+00
  1.092655e+01    2.874593e+00
  1.094243e+01    2.872580e+00
  1.095830e+01    2.879620e+00
  1.097418e+01    2.861518e+00
  1.099005e+01    2.895358e+00
  1.100593e+01    2.902589e+00
  1.102180e+01    2.857109e+00
  1.103768e+01    2.870525e+00
  1.105356e+01    2.804113e+00
  1.106943e+01    2.819070e+00
  1.108531e+01    2.844489e+00
  1.110118e+01    2.862677e+00
  1.111706e+01    2.815570e+00
  1.113293e+01    2.763899e+00
  1.114881e+01    2.785423e+00
  1.116468e+01    2.817287e+00
  1.118056e+01    2.807235e+00
  1.119644e+01    2.833745e+00
  1.121231e+01    2.822074e+00
  1.122819e+01    2.831115e+00
  1.124406e+01    2.820443e+00
  1.125994e+01    2.760462e+00
  1.127581e+01    2.840281e+00
  1.129169e+01    2.823139e+00
  1.130756e+01    2.768682e+00
  1.132344e+01    2.741649e+00
  1.133932e+01    2.765462e+00
  1.135519e+01    2.787543e+00
  1.137107e+01    2.783802e+00
  1.138694e+01    2.811797e+00
  1.140282e+01    2.753103e+00
  1.141869e+01    2.769608e+00
  1.143457e+01    2.744093e+00
  1.145045e+01    2.763359e+00
  1.146632e+01    2.736927e+00
  1.148220e+01    2.749600e+00
  1.149807e+01    2.740725e+00
  1.151395e+01    2.778708e+00
  1.152982e+01    2.724823e+00
  1.154570e+01    2.706212e+00
  1.156157e+01    2.752952e+00
  1.157745e+01    2.753637e+00
  1.159333e+01    2.762694e+00
  1.160920e+01    2.737844e+00
  1.162508e+01    2.716682e+00
  1.164095e+01    2.729299e+00
  1.165683e+01    2.739103e+00
  1.167270e+01    2.724494e+00
  1.168858e+01    2.716684e+00
  1.170445e+01    2.705096e+00
  1.172033e+01    2.667590e+00
  1.173621e+01    2.731505e+00
  1.175208e+01    2.743832e+00
  1.176796e+01    2.685719e+00
  1.178383e+01    2.695900e+00
  1.179971e+01    2.718008e+00
  1.181558e+01    2.672884e+00
  1.183146e+01    2.699022e+00
  1.184733e+01    2.686966e+00
  1.186321e+01    2.702475e+00
  1.187909e+01    2.663547e+00
  1.189496e+01    2.676943e+00
  1.191084e+01    2.705769e+00
  1.192671e+01    2.679932e+00
  1.194259e+01    2.673651e+00
  1.195846e+01    2.669783e+00
  1.197434e+01    2.666863e+00
  1.199021e+01    2.646630e+00
  1.200609e+01    2.661642e+00
  1.202197e+01    2.670359e+00
  1.203784e+01    2.643189e+00
  1.205372e+01    2.632201e+00
  1.206959e+01    2.688750e+00
  1.208547e+01    2.665387e+00
  1.210134e+01    2.665702e+00
  1.211722e+01    2.652374e+00
  1.213309e+01    2.654782e+00
  1.214897e+01    2.667985e+00
  1.216485e+01    2.664693e+00
  1.218072e+01    2.672007e+00
  1.219660e+01    2.687805e+00
  1.221247e+01    2.651296e+00
  1.222835e+01    2.614408e+00
  1.224422e+01    2.631805e+00
  1.226010e+01    2.633883e+00
  1.227597e+01    2.647943e+00
  1.229185e+01    2.613283e+00
  1.230773e+01    2.623084e+00
  1.232360e+01    2.647948e+00
  1.233948e+01    2.618212e+00
  1.235535e+01    2.630035e+00
  1.237123e+01    2.651325e+00
  1.238710e+01    2.669082e+00
  1.240298e+01    2.658396e+00
  1.241886e+01    2.685786e+00
  1.243473e+01    2.574358e+00
  1.245061e+01    2.620309e+00
  1.246648e+01    2.678393e+00
  1.248236e+01    2.686974e+00
  1.249823e+01    2.634671e+00
  1.251411e+01    2.608485e+00
  1.252998e+01    2.657785e+00
  1.254586e+01    2.710010e+00
  1.256174e+01    2.701616e+00
  1.257761e+01    2.696260e+00
  1.259349e+01    2.709773e+00
  1.260936e+01    2.729955e+00
  1.262524e+01    2.688710e+00
  1.264111e+01    2.688887e+00
  1.265699e+01    2.731773e+00
  1.267286e+01    2.737922e+00
  1.268874e+01    2.774149e+00
  1.270462e+01    2.764849e+00
  1.272049e+01    2.773936e+00
  1.273637e+01    2.803730e+00
  1.275224e+01    2.854130e+00
  1.276812e+01    2.852291e+00
  1.278399e+01    2.878075e+00
  1.279987e+01    2.968475e+00
  1.281574e+01    3.021984e+00
  1.283162e+01    3.055099e+00
  1.284750e+01    3.144077e+00
  1.286337e+01    3.231502e+00
  1.287925e+01    3.353109e+00
  1.289512e+01    3.447901e+00
  1.291100e+01    3.624983e+00
  1.292687e+01    3.804098e+00
  1.294275e+01    4.037251e+00
  1.295862e+01    4.297226e+00
  1.297450e+01    4.653699e+00
  1.299038e+01    5.160171e+00
  1.300625e+01    5.817897e+00
  1.302213e+01    6.622036e+00
  1.303800e+01    7.599482e+00
  1.305388e+01    8.761449e+00
  1.306975e+01    9.990449e+00
  1.308563e+01    1.131363e+01
  1.310150e+01    1.254169e+01
  1.311738e+01    1.363576e+01
  1.313326e+01    1.458621e+01
  1.314913e+01    1.544513e+01
  1.316501e+01    1.600908e+01
  1.318088e+01    1.611529e+01
  1.319676e+01    1.531612e+01
  1.321263e+01    1.401789e+01
  1.322851e+01    1.226614e+01
  1.324438e+01    1.051090e+01
  1.326026e+01    8.899292e+00
  1.327614e+01    7.601160e+00
  1.329201e+01    6.573776e+00
  1.330789e+01    5.865100e+00
  1.332376e+01    5.243019e+00
  1.333964e+01    4.714565e+00
  1.335551e+01    4.329518e+00
  1.337139e+01    3.993351e+00
  1.338727e+01    3.775813e+00
  1.340314e+01    3.641253e+00
  1.341902e+01    3.440289e+00
  1.343489e+01    3.266015e+00
  1.345077e+01    3.153816e+00
  1.346664e+01    3.094825e+00
  1.348252e+01    3.006881e+00
  1.349839e+01    2.915862e+00
  1.351427e+01    2.822495e+00
  1.353015e+01    2.753385e+00
  1.354602e+01    2.749407e+00
  1.356190e+01    2.740021e+00
  1.357777e+01    2.680755e+00
  1.359365e+01    2.659627e+00
  1.360952e+01    2.597681e+00
  1.362540e+01    2.592371e+00
  1.364127e+01    2.605788e+00
  1.365715e+01    2.542795e+00
  1.367303e+01    2.500925e+00
  1.368890e+01    2.547205e+00
  1.370478e+01    2.551036e+00
  1.372065e+01    2.503863e+00
  1.373653e+01    2.489403e+00
  1.375240e+01    2.500880e+00
  1.376828e+01    2.478040e+00
  1.378415e+01    2.463979e+00
  1.380003e+01    2.428459e+00
  1.381591e+01    2.392048e+00
  1.383178e+01    2.422319e+00
  1.384766e+01    2.426038e+00
  1.386353e+01    2.391816e+00
  1.387941e+01    2.362592e+00
  1.389528e+01    2.371840e+00
  1.391116e+01    2.381257e+00
  1.392703e+01    2.351942e+00
  1.394291e+01    2.341180e+00
  1.395879e+01    2.356900e+00
  1.397466e+01    2.366320e+00
  1.399054e+01    2.352204e+00
  1.400641e+01    2.356010e+00
  1.402229e+01    2.380815e+00
  1.403816e+01    2.371458e+00
  1.405404e+01    2.323147e+00
  1.406991e+01    2.289124e+00
  1.408579e+01    2.329156e+00
  1.410167e+01    2.329232e+00
  1.411754e+01    2.254832e+00
  1.413342e+01    2.260283e+00
  1.414929e+01    2.301191e+00
  1.416517e+01    2.358140e+00
  1.418104e+01    2.309406e+00
  1.419692e+01    2.234321e+00
  1.421279e+01    2.268426e+00
  1.422867e+01    2.271137e+00
  1.424455e+01    2.259293e+00
  1.426042e+01    2.245426e+00
  1.427630e+01    2.247679e+00
  1.429217e+01    2.247218e+00
  1.430805e+01    2.226061e+00
  1.432392e+01    2.236552e+00
  1.433980e+01    2.227262e+00
  1.435568e+01    2.205763e+00
  1.437155e+01    2.188649e+00
  1.438743e+01    2.197402e+00
  1.440330e+01    2.181297e+00
  1.441918e+01    2.165813e+00
  1.443505e+01    2.175124e+00
  1.445093e+01    2.179916e+00
  1.446680e+01    2.171754e+00
  1.448268e+01    2.184052e+00
  1.449856e+01    2.158445e+00
  1.451443e+01    2.137036e+00
  1.453031e+01    2.169525e+00
  1.454618e+01    2.161368e+00
  1.456206e+01    2.193953e+00
  1.457793e+01    2.186639e+00
  1.459381e+01    2.165432e+00
  1.460968e+01    2.160061e+00
  1.462556e+01    2.192936e+00
  1.464144e+01    2.175360e+00
  1.465731e+01    2.138745e+00
  1.467319e+01    2.149086e+00
  1.468906e+01    2.171495e+00
  1.470494e+01    2.130729e+00
  1.472081e+01    2.138684e+00
  1.473669e+01    2.182676e+00
  1.475256e+01    2.157404e+00
  1.476844e+01    2.125244e+00
  1.478432e+01    2.175136e+00
  1.480019e+01    2.190585e+00
  1.481607e+01    2.176154e+00
  1.483194e+01    2.131147e+00
  1.484782e+01    2.150289e+00
  1.486369e+01    2.174779e+00
  1.487957e+01    2.199931e+00
  1.489544e+01    2.204172e+00
  1.491132e+01    2.244827e+00
  1.492720e+01    2.213005e+00
  1.494307e+01    2.270796e+00
  1.495895e+01    2.286748e+00
  1.497482e+01    2.333696e+00
  1.499070e+01    2.356398e+00
  1.500657e+01    2.400909e+00
  1.502245e+01    2.490118e+00
  1.503832e+01    2.563362e+00
  1.505420e+01    2.662970e+00
  1.507008e+01    2.749780e+00
  1.508595e+01    2.952211e+00
  1.510183e+01    3.184545e+00
  1.511770e+01    3.441824e+00
  1.513358e+01    3.766626e+00
  1.514945e+01    4.108115e+00
  1.516533e+01    4.546464e+00
  1.518120e+01    4.853961e+00
  1.519708e+01    5.121312e+00
  1.521296e+01    5.312023e+00
  1.522883e+01    5.470191e+00
  1.524471e+01    5.585651e+00
  1.526058e+01    5.688595e+00
  1.527646e+01    5.562388e+00
  1.529233e+01    5.381341e+00
  1.530821e+01    5.024073e+00
  1.532409e+01    4.613290e+00
  1.533996e+01    4.108437e+00
  1.535584e+01    3.657088e+00
  1.537171e+01    3.360417e+00
  1.538759e+01    3.107785e+00
  1.540346e+01    2.845185e+00
  1.541934e+01    2.683487e+00
  1.543521e+01    2.545582e+00
  1.545109e+01    2.463374e+00
  1.546697e+01    2.378248e+00
  1.548284e+01    2.353360e+00
  1.549872e+01    2.237717e+00
  1.551459e+01    2.196136e+00
  1.553047e+01    2.161034e+00
  1.554634e+01    2.149184e+00
  1.556222e+01    2.165548e+00
  1.557809e+01    2.114600e+00
  1.559397e+01    2.101909e+00
  1.560985e+01    2.041240e+00
  1.562572e+01    1.990143e+00
  1.564160e+01    2.027961e+00
  1.565747e+01    2.003050e+00
  1.567335e+01    1.976067e+00
  1.568922e+01    1.992427e+00
  1.570510e+01    1.981884e+00
  1.572097e+01    1.945310e+00
  1.573685e+01    1.947469e+00
  1.575273e+01    1.954427e+00
  1.576860e+01    1.946625e+00
  1.578448e+01    1.897225e+00
  1.580035e+01    1.895331e+00
  1.581623e+01    1.899986e+00
  1.583210e+01    1.881989e+00
  1.584798e+01    1.857021e+00
  1.586385e+01    1.875075e+00
  1.587973e+01    1.895246e+00
  1.589561e+01    1.885978e+00
  1.591148e+01    1.868626e+00
  1.592736e+01    1.858927e+00
  1.594323e+01    1.830430e+00
  1.595911e+01    1.851535e+00
  1.597498e+01    1.869766e+00
  1.599086e+01    1.837194e+00
  1.600673e+01    1.845513e+00
  1.602261e+01    1.885001e+00
  1.603849e+01    1.859895e+00
  1.605436e+01    1.815020e+00
  1.607024e+01    1.826613e+00
  1.608611e+01    1.806591e+00
  1.610199e+01    1.825427e+00
  1.611786e+01    1.830046e+00
  1.613374e+01    1.827275e+00
  1.614961e+01    1.825146e+00
  1.616549e+01    1.760759e+00
  1.618137e+01    1.798491e+00
  1.619724e+01    1.790125e+00
  1.621312e+01    1.736670e+00
  1.622899e+01    1.755541e+00
  1.624487e+01    1.784681e+00
  1.626074e+01    1.774684e+00
  1.627662e+01    1.745958e+00
  1.629250e+01    1.733242e+00
  1.630837e+01    1.766777e+00
  1.632425e+01    1.781448e+00
  1.634012e+01    1.785764e+00
  1.635600e+01    1.761551e+00
  1.637187e+01    1.733417e+00
  1.638775e+01    1.704201e+00
  1.640362e+01    1.749803e+00
  1.641950e+01    1.751771e+00
  1.643538e+01    1.744562e+00
  1.645125e+01    1.738006e+00
  1.646713e+01    1.721786e+00
  1.648300e+01    1.712198e+00
  1.649888e+01    1.725602e+00
  1.651475e+01    1.735229e+00
  1.653063e+01    1.729009e+00
  1.654650e+01    1.675920e+00
  1.656238e+01    1.696505e+00
  1.657826e+01    1.754739e+00
  1.659413e+01    1.736116e+00
  1.661001e+01    1.699277e+00
  1.662588e+01    1.689620e+00
  1.664176e+01    1.681669e+00
  1.665763e+01    1.674631e+00
  1.667351e+01    1.690198e+00
  1.668938e+01    1.699356e+00
  1.670526e+01    1.678862e+00
  1.672114e+01    1.705287e+00
  1.673701e+01    1.696723e+00
  1.675289e+01    1.689950e+00
  1.676876e+01    1.689579e+00
  1.678464e+01    1.680889e+00
  1.680051e+01    1.712976e+00
  1.681639e+01    1.672454e+00
  1.683226e+01    1.661012e+00
  1.684814e+01    1.651401e+00
  1.686402e+01    1.684797e+00
  1.687989e+01    1.668791e+00
  1.689577e+01    1.632663e+00
  1.691164e+01    1.623469e+00
  1.692752e+01    1.609253e+00
  1.694339e+01    1.628601e+00
  1.695927e+01    1.654666e+00
  1.697514e+01    1.653744e+00
  1.699102e+01    1.661672e+00
  1.700690e+01    1.639352e+00
  1.702277e+01    1.649599e+00
  1.703865e+01    1.624532e+00
  1.705452e+01    1.616876e+00
  1.707040e+01    1.623640e+00
  1.708627e+01    1.658343e+00
  1.710215e+01    1.624820e+00
  1.711802e+01    1.605953e+00
  1.713390e+01    1.587087e+00
  1.714978e+01    1.606833e+00
  1.716565e+01    1.619386e+00
  1.718153e+01    1.619188e+00
  1.719740e+01    1.612297e+00
  1.721328e+01    1.639005e+00
  1.722915e+01    1.621965e+00
  1.724503e+01    1.588831e+00
  1.726091e+01    1.590759e+00
  1.727678e+01    1.611345e+00
  1.729266e+01    1.613104e+00
  1.730853e+01    1.590870e+00
  1.732441e+01    1.602380e+00
  1.734028e+01    1.587753e+00
  1.735616e+01    1.593820e+00
  1.737203e+01    1.561594e+00
  1.738791e+01    1.543560e+00
  1.740379e+01    1.586040e+00
  1.741966e+01    1.588265e+00
  1.743554e+01    1.579498e+00
  1.745141e+01    1.567379e+00
  1.746729e+01    1.584476e+00
  1.748316e+01    1.580016e+00
  1.749904e+01    1.566359e+00
  1.751491e+01    1.569611e+00
  1.753079e+01    1.581811e+00
  1.754667e+01    1.569882e+00
  1.756254e+01    1.548145e+00
  1.757842e+01    1.553155e+00
  1.759429e+01    1.540932e+00
  1.761017e+01    1.547908e+00
  1.762604e+01    1.573661e+00
  1.764192e+01    1.566258e+00
  1.765779e+01    1.563616e+00
  1.767367e+01    1.570163e+00
  1.768955e+01    1.512277e+00
  1.770542e+01    1.536911e+00
  1.772130e+01    1.521331e+00
  1.773717e+01    1.542284e+00
  1.775305e+01    1.545263e+00
  1.776892e+01    1.539525e+00
  1.778480e+01    1.478258e+00
  1.780067e+01    1.483405e+00
  1.781655e+01    1.477215e+00
  1.783243e+01    1.492718e+00
  1.784830e+01    1.488716e+00
  1.786418e+01    1.495243e+00
  1.788005e+01    1.510505e+00
  1.789593e+01    1.504519e+00
  1.791180e+01    1.484476e+00
  1.792768e+01    1.513559e+00
  1.794355e+01    1.502802e+00
  1.795943e+01    1.457579e+00
  1.797531e+01    1.464948e+00
  1.799118e+01    1.487183e+00
  1.800706e+01    1.474404e+00
  1.802293e+01    1.523583e+00
  1.803881e+01    1.513204e+00
  1.805468e+01    1.464270e+00
  1.807056e+01    1.460779e+00
  1.808643e+01    1.484409e+00
  1.810231e+01    1.493782e+00
  1.811819e+01    1.475299e+00
  1.813406e+01    1.494277e+00
  1.814994e+01    1.457075e+00
  1.816581e+01    1.448204e+00
  1.818169e+01    1.442877e+00
  1.819756e+01    1.448981e+00
  1.821344e+01    1.465082e+00
  1.822932e+01    1.442201e+00
  1.824519e+01    1.448837e+00
  1.826107e+01    1.431086e+00
  1.827694e+01    1.439609e+00
  1.829282e+01    1.455876e+00
  1.830869e+01    1.446867e+00
  1.832457e+01    1.453864e+00
  1.834044e+01    1.426303e+00
  1.835632e+01    1.431811e+00
  1.837220e+01    1.457384e+00
  1.838807e+01    1.462760e+00
  1.840395e+01    1.463732e+00
  1.841982e+01    1.461261e+00
  1.843570e+01    1.475410e+00
  1.845157e+01    1.432652e+00
  1.846745e+01    1.428445e+00
  1.848332e+01    1.414947e+00
  1.849920e+01    1.426563e+00
  1.851508e+01    1.400817e+00
  1.853095e+01    1.421279e+00
  1.854683e+01    1.428066e+00
  1.856270e+01    1.413600e+00
  1.857858e+01    1.425301e+00
  1.859445e+01    1.419872e+00
  1.861033e+01    1.449908e+00
  1.862620e+01    1.425466e+00
  1.864208e+01    1.374786e+00
  1.865796e+01    1.351439e+00
  1.867383e+01    1.378841e+00
  1.868971e+01    1.400394e+00
  1.870558e+01    1.396897e+00
  1.872146e+01    1.396863e+00
  1.873733e+01    1.394672e+00
  1.875321e+01    1.404607e+00
  1.876908e+01    1.382363e+00
  1.878496e+01    1.377300e+00
  1.880084e+01    1.391127e+00
  1.881671e+01    1.389070e+00
  1.883259e+01    1.392081e+00
  1.884846e+01    1.367557e+00
  1.886434e+01    1.379655e+00
  1.888021e+01    1.360238e+00
  1.889609e+01    1.414656e+00
  1.891196e+01    1.403563e+00
  1.892784e+01    1.381415e+00
  1.894372e+01    1.360956e+00
  1.895959e+01    1.357621e+00
  1.897547e+01    1.394985e+00
  1.899134e+01    1.380389e+00
  1.900722e+01    1.346708e+00
  1.902309e+01    1.340352e+00
  1.903897e+01    1.382356e+00
  1.905484e+01    1.348285e+00
  1.907072e+01    1.337845e+00
  1.908660e+01    1.342187e+00
  1.910247e+01    1.356348e+00
  1.911835e+01    1.361615e+00
  1.913422e+01    1.348409e+00
  1.915010e+01    1.343445e+00
  1.916597e+01    1.356803e+00
  1.918185e+01    1.363717e+00
  1.919773e+01    1.353773e+00
  1.921360e+01    1.333574e+00
  1.922948e+01    1.354074e+00
  1.924535e+01    1.328019e+00
  1.926123e+01    1.310661e+00
  1.927710e+01    1.335277e+00
  1.929298e+01    1.323859e+00
  1.930885e+01    1.326410e+00
  1.932473e+01    1.326696e+00
  1.934061e+01    1.321416e+00
  1.935648e+01    1.324668e+00
  1.937236e+01    1.322677e+00
  1.938823e+01    1.316676e+00
  1.940411e+01    1.309616e+00
  1.941998e+01    1.315217e+00
  1.943586e+01    1.299319e+00
  1.945173e+01    1.316295e+00
  1.946761e+01    1.333224e+00
  1.948349e+01    1.321123e+00
  1.949936e+01    1.314001e+00
  1.951524e+01    1.303621e+00
  1.953111e+01    1.309807e+00
  1.954699e+01    1.347350e+00
  1.956286e+01    1.321048e+00
  1.957874e+01    1.308920e+00
  1.959461e+01    1.292036e+00
  1.961049e+01    1.306141e+00
  1.962637e+01    1.325350e+00
  1.964224e+01    1.299825e+00
  1.965812e+01    1.277400e+00
  1.967399e+01    1.271348e+00
  1.968987e+01    1.283775e+00
  1.970574e+01    1.286005e+00
  1.972162e+01    1.268739e+00
  1.973749e+01    1.292760e+00
  1.975337e+01    1.298958e+00
  1.976925e+01    1.303140e+00
  1.978512e+01    1.284589e+00
  1.980100e+01    1.290800e+00
  1.981687e+01    1.265712e+00
  1.983275e+01    1.251442e+00
  1.984862e+01    1.292664e+00
  1.986450e+01    1.272690e+00
  1.988037e+01    1.261616e+00
  1.989625e+01    1.272775e+00
  1.991213e+01    1.241327e+00
  1.992800e+01    1.250508e+00
  1.994388e+01    1.242687e+00
  1.995975e+01    1.270245e+00
  1.997563e+01    1.266807e+00
  1.999150e+01    1.268591e+00
  2.000738e+01    1.258927e+00
  2.002325e+01    1.248403e+00
  2.003913e+01    1.238925e+00
  2.005501e+01    1.213812e+00
  2.007088e+01    1.232318e+00
  2.008676e+01    1.234061e+00
  2.010263e+01    1.234790e+00
  2.011851e+01    1.268082e+00
  2.013438e+01    1.244507e+00
  2.015026e+01    1.244847e+00
  2.016614e+01    1.218487e+00
  2.018201e+01    1.213778e+00
  2.019789e+01    1.241364e+00
  2.021376e+01    1.244966e+00
  2.022964e+01    1.237616e+00
  2.024551e+01    1.223706e+00
  2.026139e+01    1.234347e+00
  2.027726e+01    1.253661e+00
  2.029314e+01    1.238686e+00
  2.030902e+01    1.203330e+00
  2.032489e+01    1.232071e+00
  2.034077e+01    1.271910e+00
  2.035664e+01    1.234900e+00
  2.037252e+01    1.233070e+00
  2.038839e+01    1.268355e+00
  2.040427e+01    1.253176e+00
  2.042014e+01    1.235420e+00
  2.043602e+01    1.231831e+00
  2.045190e+01    1.209235e+00
  2.046777e+01    1.220757e+00
  2.048365e+01    1.215205e+00
  2.049952e+01    1.239484e+00
  2.051540e+01    1.223185e+00
  2.053127e+01    1.221091e+00
  2.054715e+01    1.206820e+00
  2.056302e+01    1.233610e+00
  2.057890e+01    1.243513e+00
  2.059478e+01    1.229099e+00
  2.061065e+01    1.209217e+00
  2.062653e+01    1.205461e+00
  2.064240e+01    1.188862e+00
  2.065828e+01    1.208166e+00
  2.067415e+01    1.227265e+00
  2.069003e+01    1.215628e+00
  2.070590e+01    1.203804e+00
  2.072178e+01    1.213107e+00
  2.073766e+01    1.204683e+00
  2.075353e+01    1.222895e+00
  2.076941e+01    1.224484e+00
  2.078528e+01    1.229621e+00
  2.080116e+01    1.209193e+00
  2.081703e+01    1.190000e+00
  2.083291e+01    1.200274e+00
  2.084878e+01    1.224119e+00
  2.086466e+01    1.226924e+00
  2.088054e+01    1.185633e+00
  2.089641e+01    1.203134e+00
  2.091229e+01    1.220288e+00
  2.092816e+01    1.224341e+00
  2.094404e+01    1.207998e+00
  2.095991e+01    1.229985e+00
  2.097579e+01    1.219169e+00
  2.099166e+01    1.206357e+00
  2.100754e+01    1.204195e+00
  2.102342e+01    1.197959e+00
  2.103929e+01    1.189503e+00
  2.105517e+01    1.194469e+00
  2.107104e+01    1.203234e+00
  2.108692e+01    1.203747e+00
  2.110279e+01    1.182907e+00
  2.111867e+01    1.195385e+00
  2.113455e+01    1.202698e+00
  2.115042e+01    1.219652e+00
  2.116630e+01    1.226229e+00
  2.118217e+01    1.236076e+00
  2.119805e+01    1.218865e+00
  2.121392e+01    1.198465e+00
  2.122980e+01    1.225508e+00
  2.124567e+01    1.212947e+00
  2.126155e+01    1.218440e+00
  2.127743e+01    1.225358e+00
  2.129330e+01    1.224093e+00
  2.130918e+01    1.237061e+00
  2.132505e+01    1.219012e+00
  2.134093e+01    1.248478e+00
  2.135680e+01    1.237283e+00
  2.137268e+01    1.272082e+00
  2.138855e+01    1.294047e+00
  2.140443e+01    1.303668e+00
  2.142031e+01    1.283255e+00
  2.143618e+01    1.301228e+00
  2.145206e+01    1.313417e+00
  2.146793e+01    1.347616e+00
  2.148381e+01    1.391835e+00
  2.149968e+01    1.385072e+00
  2.151556e+01    1.406680e+00
  2.153143e+01    1.456010e+00
  2.154731e+01    1.502140e+00
  2.156319e+01    1.537945e+00
  2.157906e+01    1.615880e+00
  2.159494e+01    1.678769e+00
  2.161081e+01    1.731426e+00
  2.162669e+01    1.826731e+00
  2.164256e+01    1.944504e+00
  2.165844e+01    2.100699e+00
  2.167431e+01    2.239550e+00
  2.169019e+01    2.459943e+00
  2.170607e+01    2.727986e+00
  2.172194e+01    3.049795e+00
  2.173782e+01    3.506096e+00
  2.175369e+01    4.000049e+00
  2.176957e+01    4.553540e+00
  2.178544e+01    5.158326e+00
  2.180132e+01    5.764875e+00
  2.181719e+01    6.461772e+00
  2.183307e+01    7.053069e+00
  2.184895e+01    7.667431e+00
  2.186482e+01    8.295430e+00
  2.188070e+01    8.622404e+00
  2.189657e+01    8.736865e+00
  2.191245e+01    8.484667e+00
  2.192832e+01    8.057006e+00
  2.194420e+01    7.350598e+00
  2.196007e+01    6.433805e+00
  2.197595e+01    5.527581e+00
  2.199183e+01    4.743026e+00
  2.200770e+01    4.027464e+00
  2.202358e+01    3.500175e+00
  2.203945e+01    3.089919e+00
  2.205533e+01    2.754971e+00
  2.207120e+01    2.493512e+00
  2.208708e+01    2.264691e+00
  2.210296e+01    2.103690e+00
  2.211883e+01    1.949050e+00
  2.213471e+01    1.818582e+00
  2.215058e+01    1.695176e+00
  2.216646e+01    1.655454e+00
  2.218233e+01    1.569544e+00
  2.219821e+01    1.534887e+00
  2.221408e+01    1.483361e+00
  2.222996e+01    1.418606e+00
  2.224584e+01    1.375910e+00
  2.226171e+01    1.342611e+00
  2.227759e+01    1.316164e+00
  2.229346e+01    1.290111e+00
  2.230934e+01    1.295696e+00
  2.232521e+01    1.246451e+00
  2.234109e+01    1.227545e+00
  2.235696e+01    1.198094e+00
  2.237284e+01    1.201421e+00
  2.238872e+01    1.157068e+00
  2.240459e+01    1.157042e+00
  2.242047e+01    1.166883e+00
  2.243634e+01    1.138889e+00
  2.245222e+01    1.165649e+00
  2.246809e+01    1.156384e+00
  2.248397e+01    1.141681e+00
  2.249984e+01    1.154151e+00
  2.251572e+01    1.142467e+00
  2.253160e+01    1.101779e+00
  2.254747e+01    1.085176e+00
  2.256335e+01    1.114779e+00
  2.257922e+01    1.111976e+00
  2.259510e+01    1.098849e+00
  2.261097e+01    1.074833e+00
  2.262685e+01    1.081045e+00
  2.264272e+01    1.098638e+00
  2.265860e+01    1.080840e+00
  2.267448e+01    1.056084e+00
  2.269035e+01    1.059413e+00
  2.270623e+01    1.065892e+00
  2.272210e+01    1.065489e+00
  2.273798e+01    1.059737e+00
  2.275385e+01    1.064142e+00
  2.276973e+01    1.067399e+00
  2.278560e+01    1.037456e+00
  2.280148e+01    1.038303e+00
  2.281736e+01    1.034207e+00
  2.283323e+01    1.031101e+00
  2.284911e+01    1.037540e+00
  2.286498e+01    1.027745e+00
  2.288086e+01    1.011751e+00
  2.289673e+01    1.008721e+00
  2.291261e+01    1.015820e+00
  2.292848e+01    1.008391e+00
  2.294436e+01    1.004081e+00
  2.296024e+01    1.017474e+00
  2.297611e+01    9.983545e-01
  2.299199e+01    9.892169e-01
  2.300786e+01    9.951960e-01
  2.302374e+01    9.856738e-01
  2.303961e+01    1.001797e+00
  2.305549e+01    1.001759e+00
  2.307137e+01    9.895318e-01
  2.308724e+01    9.806355e-01
  2.310312e+01    9.969604e-01
  2.311899e+01    9.805383e-01
  2.313487e+01    9.607936e-01
  2.315074e+01    9.871513e-01
  2.316662e+01    9.982187e-01
  2.318249e+01    9.991294e-01
  2.319837e+01    9.696006e-01
  2.321425e+01    9.474620e-01
  2.323012e+01    9.532096e-01
  2.324600e+01    9.497774e-01
  2.326187e+01    9.616305e-01
  2.327775e+01    9.701239e-01
  2.329362e+01    9.838527e-01
  2.330950e+01    9.741749e-01
  2.332537e+01    9.739935e-01
  2.334125e+01    9.843864e-01
  2.335713e+01    9.692457e-01
  2.337300e+01    9.493637e-01
  2.338888e+01    9.435012e-01
  2.340475e+01    9.302024e-01
  2.342063e+01    9.268332e-01
  2.343650e+01    9.610732e-01
  2.345238e+01    9.738825e-01
  2.346825e+01    9.632221e-01
  2.348413e+01    9.415750e-01
  2.350001e+01    9.528384e-01
  2.351588e+01    9.558097e-01
  2.353176e+01    9.518021e-01
  2.354763e+01    9.237403e-01
  2.356351e+01    9.193417e-01
  2.357938e+01    9.344450e-01
  2.359526e+01    9.601705e-01
  2.361113e+01    9.578132e-01
  2.362701e+01    9.561962e-01
  2.364289e+01    9.310631e-01
  2.365876e+01    9.387414e-01
  2.367464e+01    9.331955e-01
  2.369051e+01    9.008531e-01
  2.370639e+01    9.249085e-01
  2.372226e+01    9.458609e-01
  2.373814e+01    9.149373e-01
  2.375401e+01    9.272663e-01
  2.376989e+01    9.278492e-01
  2.378577e+01    8.825688e-01
  2.380164e+01    8.926378e-01
  2.381752e+01    8.919587e-01
  2.383339e+01    9.073037e-01
  2.384927e+01    9.109846e-01
  2.386514e+01    8.991933e-01
  2.388102e+01    9.086393e-01
  2.389689e+01    9.028731e-01
  2.391277e+01    8.826516e-01
  2.392865e+01    8.855239e-01
  2.394452e+01    8.958384e-01
  2.396040e+01    8.967188e-01
  2.397627e+01    9.052340e-01
  2.399215e+01    8.942863e-01
  2.400802e+01    8.797018e-01
  2.402390e+01    8.948802e-01
  2.403978e+01    8.854758e-01
  2.405565e+01    8.838324e-01
  2.407153e+01    8.891600e-01
  2.408740e+01    8.798912e-01
  2.410328e+01    8.854557e-01
  2.411915e+01    8.685850e-01
  2.413503e+01    8.562340e-01
  2.415090e+01    8.671120e-01
  2.416678e+01    8.644405e-01
  2.418266e+01    8.828540e-01
  2.419853e+01    8.822476e-01
  2.421441e+01    8.664480e-01
  2.423028e+01    8.719645e-01
  2.424616e+01    8.553119e-01
  2.426203e+01    8.741670e-01
  2.427791e+01    8.754183e-01
  2.429378e+01    8.664047e-01
  2.430966e+01    8.800892e-01
  2.432554e+01    8.894976e-01
  2.434141e+01    8.794134e-01
  2.435729e+01    8.864548e-01
  2.437316e+01    8.815253e-01
  2.438904e+01    8.746771e-01
  2.440491e+01    8.789646e-01
  2.442079e+01    8.996109e-01
  2.443666e+01    8.969395e-01
  2.445254e+01    8.829332e-01
  2.446842e+01    8.736297e-01
  2.448429e+01    8.755370e-01
  2.450017e+01    8.742788e-01
  2.451604e+01    8.731504e-01
  2.453192e+01    8.773633e-01
  2.454779e+01    8.846636e-01
  2.456367e+01    8.806623e-01
  2.457954e+01    8.564496e-01
  2.459542e+01    8.624471e-01
  2.461130e+01    8.474356e-01
  2.462717e+01    8.638021e-01
  2.464305e+01    8.773109e-01
  2.465892e+01    8.850820e-01
  2.467480e+01    8.871895e-01
  2.469067e+01    8.784278e-01
  2.470655e+01    8.613573e-01
  2.472242e+01    8.675892e-01
  2.473830e+01    8.742961e-01
  2.475418e+01    8.843152e-01
  2.477005e+01    8.884676e-01
  2.478593e+01    8.837430e-01
  2.480180e+01    8.807294e-01
  2.481768e+01    8.588094e-01
  2.483355e+01    8.720533e-01
  2.484943e+01    8.706827e-01
  2.486530e+01    8.725210e-01
  2.488118e+01    8.869516e-01
  2.489706e+01    8.757162e-01
  2.491293e+01    8.642793e-01
  2.492881e+01    8.737580e-01
  2.494468e+01    8.826976e-01
  2.496056e+01    8.719725e-01
  2.497643e+01    8.767202e-01
  2.499231e+01    8.831544e-01
  2.500819e+01    8.744870e-01
  2.502406e+01    8.582711e-01
  2.503994e+01    8.731119e-01
  2.505581e+01    8.921514e-01
  2.507169e+01    8.730663e-01
  2.508756e+01    8.602654e-01
  2.510344e+01    8.862005e-01
  2.511931e+01    8.838771e-01
  2.513519e+01    8.846634e-01
  2.515107e+01    8.866902e-01
  2.516694e+01    8.949621e-01
  2.518282e+01    9.107253e-01
  2.519869e+01    9.030125e-01
  2.521457e+01    9.022008e-01
  2.523044e+01    9.098452e-01
  2.524632e+01    8.987027e-01
  2.526219e+01    9.228693e-01
  2.527807e+01    9.296684e-01
  2.529395e+01    9.320647e-01
  2.530982e+01    9.346647e-01
  2.532570e+01    9.404948e-01
  2.534157e+01    9.623138e-01
  2.535745e+01    9.793587e-01
  2.537332e+01    9.614165e-01
  2.538920e+01    9.688726e-01
  2.540507e+01    9.711656e-01
  2.542095e+01    9.893535e-01
  2.543683e+01    1.003006e+00
  2.545270e+01    1.030470e+00
  2.546858e+01    1.037503e+00
  2.548445e+01    1.021385e+00
  2.550033e+01    1.036047e+00
  2.551620e+01    1.052724e+00
  2.553208e+01    1.105954e+00
  2.554795e+01    1.090778e+00
  2.556383e+01    1.118395e+00
  2.557971e+01    1.118705e+00
  2.559558e+01    1.136228e+00
  2.561146e+01    1.197831e+00
  2.562733e+01    1.262780e+00
  2.564321e+01    1.287427e+00
  2.565908e+01    1.346038e+00
  2.567496e+01    1.412889e+00
  2.569083e+01    1.498884e+00
  2.570671e+01    1.569415e+00
  2.572259e+01    1.677403e+00
  2.573846e+01    1.804639e+00
  2.575434e+01    1.986092e+00
  2.577021e+01    2.162995e+00
  2.578609e+01    2.461263e+00
  2.580196e+01    2.805233e+00
  2.581784e+01    3.150924e+00
  2.583371e+01    3.613429e+00
  2.584959e+01    4.124761e+00
  2.586547e+01    4.612598e+00
  2.588134e+01    5.167810e+00
  2.589722e+01    5.724607e+00
  2.591309e+01    6.238858e+00
  2.592897e+01    6.680984e+00
  2.594484e+01    6.965997e+00
  2.596072e+01    6.971717e+00
  2.597660e+01    6.820051e+00
  2.599247e+01    6.342766e+00
  2.600835e+01    5.770597e+00
  2.602422e+01    5.082699e+00
  2.604010e+01    4.459423e+00
  2.605597e+01    3.847481e+00
  2.607185e+01    3.354797e+00
  2.608772e+01    2.938452e+00
  2.610360e+01    2.561857e+00
  2.611948e+01    2.304100e+00
  2.613535e+01    2.055583e+00
  2.615123e+01    1.889074e+00
  2.616710e+01    1.751689e+00
  2.618298e+01    1.639145e+00
  2.619885e+01    1.504303e+00
  2.621473e+01    1.444894e+00
  2.623060e+01    1.391267e+00
  2.624648e+01    1.343416e+00
  2.626236e+01    1.285630e+00
  2.627823e+01    1.232389e+00
  2.629411e+01    1.189822e+00
  2.630998e+01    1.140420e+00
  2.632586e+01    1.092413e+00
  2.634173e+01    1.076359e+00
  2.635761e+01    1.081718e+00
  2.637348e+01    1.066293e+00
  2.638936e+01    1.044541e+00
  2.640524e+01    1.066532e+00
  2.642111e+01    1.037529e+00
  2.643699e+01    1.005007e+00
  2.645286e+01    9.934788e-01
  2.646874e+01    1.009028e+00
  2.648461e+01    1.013205e+00
  2.650049e+01    9.772589e-01
  2.651636e+01    9.685148e-01
  2.653224e+01    9.980668e-01
  2.654812e+01    9.884837e-01
  2.656399e+01    9.661896e-01
  2.657987e+01    9.692910e-01
  2.659574e+01    9.653179e-01
  2.661162e+01    9.434569e-01
  2.662749e+01    9.577147e-01
  2.664337e+01    9.707675e-01
  2.665924e+01    9.522945e-01
  2.667512e+01    9.440017e-01
  2.669100e+01    9.346215e-01
  2.670687e+01    9.456582e-01
  2.672275e+01    9.789867e-01
  2.673862e+01    9.515743e-01
  2.675450e+01    9.309829e-01
  2.677037e+01    9.522396e-01
  2.678625e+01    9.488247e-01
  2.680212e+01    9.587613e-01
  2.681800e+01    9.512239e-01
  2.683388e+01    9.484772e-01
  2.684975e+01    9.426091e-01
  2.686563e+01    9.637899e-01
  2.688150e+01    9.732358e-01
  2.689738e+01    9.800271e-01
  2.691325e+01    9.922245e-01
  2.692913e+01    1.006136e+00
  2.694501e+01    1.021809e+00
  2.696088e+01    1.049327e+00
  2.697676e+01    1.070007e+00
  2.699263e+01    1.082002e+00
  2.700851e+01    1.112155e+00
  2.702438e+01    1.144778e+00
  2.704026e+01    1.188174e+00
  2.705613e+01    1.249189e+00
  2.707201e+01    1.280943e+00
  2.708789e+01    1.365631e+00
  2.710376e+01    1.507109e+00
  2.711964e+01    1.602847e+00
  2.713551e+01    1.688080e+00
  2.715139e+01    1.821132e+00
  2.716726e+01    1.958195e+00
  2.718314e+01    2.028070e+00
  2.719901e+01    2.094566e+00
  2.721489e+01    2.148935e+00
  2.723077e+01    2.108654e+00
  2.724664e+01    2.016907e+00
  2.726252e+01    1.922320e+00
  2.727839e+01    1.788473e+00
  2.729427e+01    1.654517e+00
  2.731014e+01    1.523473e+00
  2.732602e+01    1.417902e+00
  2.734189e+01    1.338124e+00
  2.735777e+01    1.278564e+00
  2.737365e+01    1.194639e+00
  2.738952e+01    1.118775e+00
  2.740540e+01    1.090024e+00
  2.742127e+01    1.060895e+00
  2.743715e+01    1.046148e+00
  2.745302e+01    1.021913e+00
  2.746890e+01    9.836329e-01
  2.748477e+01    9.816486e-01
  2.750065e+01    9.888887e-01
  2.751653e+01    9.632084e-01
  2.753240e+01    9.463416e-01
  2.754828e+01    9.412577e-01
  2.756415e+01    9.234588e-01
  2.758003e+01    9.241607e-01
  2.759590e+01    9.348104e-01
  2.761178e+01    9.052620e-01
  2.762765e+01    8.961862e-01
  2.764353e+01    8.909379e-01
  2.765941e+01    8.935220e-01
  2.767528e+01    8.833540e-01
  2.769116e+01    9.095750e-01
  2.770703e+01    9.082071e-01
  2.772291e+01    8.911299e-01
  2.773878e+01    8.558494e-01
  2.775466e+01    8.715480e-01
  2.777054e+01    8.780939e-01
  2.778641e+01    8.801631e-01
  2.780229e+01    8.775756e-01
  2.781816e+01    8.784198e-01
  2.783404e+01    8.716395e-01
  2.784991e+01    8.426660e-01
  2.786579e+01    8.600695e-01
  2.788166e+01    8.667391e-01
  2.789754e+01    8.604344e-01
  2.791342e+01    8.547805e-01
  2.792929e+01    8.506402e-01
  2.794517e+01    8.549608e-01
  2.796104e+01    8.435821e-01
  2.797692e+01    8.553430e-01
  2.799279e+01    8.462312e-01
  2.800867e+01    8.636094e-01
  2.802454e+01    8.641614e-01
  2.804042e+01    8.561895e-01
  2.805630e+01    8.604679e-01
  2.807217e+01    8.540897e-01
  2.808805e+01    8.172703e-01
  2.810392e+01    8.381398e-01
  2.811980e+01    8.540558e-01
  2.813567e+01    8.707396e-01
  2.815155e+01    8.619684e-01
  2.816742e+01    8.418899e-01
  2.818330e+01    8.310851e-01
  2.819918e+01    8.411477e-01
  2.821505e+01    8.276997e-01
  2.823093e+01    8.319542e-01
  2.824680e+01    8.580236e-01
  2.826268e+01    8.404444e-01
  2.827855e+01    8.373680e-01
  2.829443e+01    8.337761e-01
  2.831030e+01    8.295248e-01
  2.832618e+01    8.341564e-01
  2.834206e+01    8.182055e-01
  2.835793e+01    8.305752e-01
  2.837381e+01    8.367804e-01
  2.838968e+01    8.244259e-01
  2.840556e+01    8.482680e-01
  2.842143e+01    8.294269e-01
  2.843731e+01    8.286731e-01
  2.845318e+01    8.460069e-01
  2.846906e+01    8.425249e-01
  2.848494e+01    8.314892e-01
  2.850081e+01    8.346211e-01
  2.851669e+01    8.270618e-01
  2.853256e+01    8.213341e-01
  2.854844e+01    8.330472e-01
  2.856431e+01    8.131891e-01
  2.858019e+01    8.164906e-01
  2.859606e+01    8.211144e-01
  2.861194e+01    8.328151e-01
  2.862782e+01    8.412156e-01
  2.864369e+01    8.351663e-01
  2.865957e+01    8.154321e-01
  2.867544e+01    8.235747e-01
  2.869132e+01    8.148140e-01
  2.870719e+01    8.207864e-01
  2.872307e+01    8.058997e-01
  2.873895e+01    7.931663e-01
  2.875482e+01    8.221157e-01
  2.877070e+01    8.171791e-01
  2.878657e+01    8.240467e-01
  2.880245e+01    8.145113e-01
  2.881832e+01    8.475006e-01
  2.883420e+01    8.442529e-01
  2.885007e+01    8.210375e-01
  2.886595e+01    8.178899e-01
  2.888183e+01    8.242902e-01
  2.889770e+01    8.259354e-01
  2.891358e+01    8.287994e-01
  2.892945e+01    8.200890e-01
  2.894533e+01    8.083761e-01
  2.896120e+01    8.015417e-01
  2.897708e+01    8.094834e-01
  2.899295e+01    8.079377e-01
  2.900883e+01    7.919799e-01
  2.902471e+01    8.086832e-01
  2.904058e+01    7.882231e-01
  2.905646e+01    8.067368e-01
  2.907233e+01    8.308077e-01
  2.908821e+01    8.115230e-01
  2.910408e+01    8.114949e-01
  2.911996e+01    8.011416e-01
  2.913583e+01    7.960377e-01
  2.915171e+01    8.163127e-01
  2.916759e+01    8.080376e-01
  2.918346e+01    7.906367e-01
  2.919934e+01    8.081961e-01
  2.921521e+01    8.182984e-01
  2.923109e+01    7.913236e-01
  2.924696e+01    7.943494e-01
  2.926284e+01    7.937190e-01
  2.927871e+01    7.847899e-01
  2.929459e+01    7.797622e-01
  2.931047e+01    7.852419e-01
  2.932634e+01    7.735547e-01
  2.934222e+01    7.723336e-01
  2.935809e+01    7.874323e-01
  2.937397e+01    7.873149e-01
  2.938984e+01    7.896408e-01
  2.940572e+01    7.820910e-01
  2.942159e+01    7.797887e-01
  2.943747e+01    7.989986e-01
  2.945335e+01    7.945129e-01
  2.946922e+01    7.908657e-01
  2.948510e+01    7.911183e-01
  2.950097e+01    7.931976e-01
  2.951685e+01    7.842754e-01
  2.953272e+01    7.577441e-01
  2.954860e+01    7.742435e-01
  2.956447e+01    7.846493e-01
  2.958035e+01    7.883132e-01
  2.959623e+01    7.760391e-01
  2.961210e+01    7.953705e-01
  2.962798e+01    7.912436e-01
  2.964385e+01    7.866108e-01
  2.965973e+01    8.062688e-01
  2.967560e+01    7.931691e-01
  2.969148e+01    7.907279e-01
  2.970736e+01    8.108004e-01
  2.972323e+01    7.944797e-01
  2.973911e+01    7.705680e-01
  2.975498e+01    7.923272e-01
  2.977086e+01    7.784314e-01
  2.978673e+01    7.790325e-01
  2.980261e+01    7.916433e-01
  2.981848e+01    7.872968e-01
  2.983436e+01    7.985283e-01
  2.985024e+01    7.700778e-01
  2.986611e+01    7.542574e-01
  2.988199e+01    7.673174e-01
  2.989786e+01    7.851455e-01
  2.991374e+01    7.770464e-01
  2.992961e+01    7.666313e-01
  2.994549e+01    7.936091e-01
  2.996136e+01    8.031184e-01
  2.997724e+01    8.224037e-01
  2.999312e+01    8.152611e-01
  3.000899e+01    8.129314e-01
  3.002487e+01    7.839921e-01
  3.004074e+01    7.783896e-01
  3.005662e+01    7.864730e-01
  3.007249e+01    8.174732e-01
  3.008837e+01    8.059991e-01
  3.010424e+01    7.992103e-01
  3.012012e+01    7.882725e-01
  3.013600e+01    7.828018e-01
  3.015187e+01    7.720704e-01
  3.016775e+01    7.743859e-01
  3.018362e+01    7.802141e-01
  3.019950e+01    7.794088e-01
  3.021537e+01    8.060446e-01
  3.023125e+01    7.949097e-01
  3.024712e+01    8.070544e-01
  3.026300e+01    7.837986e-01
  3.027888e+01    7.637868e-01
  3.029475e+01    7.565845e-01
  3.031063e+01    7.822415e-01
  3.032650e+01    7.652307e-01
  3.034238e+01    7.625511e-01
  3.035825e+01    7.774623e-01
  3.037413e+01    7.726378e-01
  3.039000e+01    7.575898e-01
  3.040588e+01    7.779572e-01
  3.042176e+01    7.788121e-01
  3.043763e+01    7.697922e-01
  3.045351e+01    7.889905e-01
  3.046938e+01    7.961563e-01
  3.048526e+01    7.739460e-01
  3.050113e+01    7.724679e-01
  3.051701e+01    7.882540e-01
  3.053288e+01    7.796471e-01
  3.054876e+01    7.707013e-01
  3.056464e+01    7.686937e-01
  3.058051e+01    7.896482e-01
  3.059639e+01    7.771761e-01
  3.061226e+01    7.332693e-01
  3.062814e+01    7.437442e-01
  3.064401e+01    7.821680e-01
  3.065989e+01    7.777157e-01
  3.067577e+01    7.766895e-01
  3.069164e+01    7.883041e-01
  3.070752e+01    7.774001e-01
  3.072339e+01    7.730647e-01
  3.073927e+01    7.782181e-01
  3.075514e+01    7.739568e-01
  3.077102e+01    7.695067e-01
  3.078689e+01    7.559049e-01
  3.080277e+01    7.581809e-01
  3.081865e+01    7.747483e-01
  3.083452e+01    7.805219e-01
  3.085040e+01    7.702661e-01
  3.086627e+01    7.761517e-01
  3.088215e+01    7.618479e-01
  3.089802e+01    7.830705e-01
  3.091390e+01    7.729244e-01
  3.092977e+01    7.666801e-01
  3.094565e+01    7.657362e-01
  3.096153e+01    7.655408e-01
  3.097740e+01    7.909970e-01
  3.099328e+01    7.729437e-01
  3.100915e+01    7.663046e-01
  3.102503e+01    7.527742e-01
  3.104090e+01    7.758187e-01
  3.105678e+01    7.687182e-01
  3.107265e+01    7.808205e-01
  3.108853e+01    7.790187e-01
  3.110441e+01    7.881983e-01
  3.112028e+01    7.914283e-01
  3.113616e+01    7.804399e-01
  3.115203e+01    7.872059e-01
  3.116791e+01    7.854787e-01
  3.118378e+01    7.814394e-01
  3.119966e+01    7.682658e-01
  3.121553e+01    7.627799e-01
  3.123141e+01    7.812828e-01
  3.124729e+01    7.731078e-01
  3.126316e+01    7.935364e-01
  3.127904e+01    7.977704e-01
  3.129491e+01    7.880940e-01
  3.131079e+01    7.814717e-01
  3.132666e+01    7.778802e-01
  3.134254e+01    7.861001e-01
  3.135841e+01    7.909650e-01
  3.137429e+01    7.982857e-01
  3.139017e+01    7.801796e-01
  3.140604e+01    7.828939e-01
  3.142192e+01    7.923090e-01
  3.143779e+01    7.982015e-01
  3.145367e+01    7.985998e-01
  3.146954e+01    8.155426e-01
  3.148542e+01    8.061575e-01
  3.150129e+01    8.228046e-01
  3.151717e+01    8.400323e-01
  3.153305e+01    8.258779e-01
  3.154892e+01    8.265097e-01
  3.156480e+01    8.391262e-01
  3.158067e+01    8.454782e-01
  3.159655e+01    8.355540e-01
  3.161242e+01    8.504900e-01
  3.162830e+01    9.065862e-01
  3.164418e+01    9.193461e-01
  3.166005e+01    9.466057e-01
  3.167593e+01    9.620156e-01
  3.169180e+01    9.854805e-01
  3.170768e+01    1.003791e+00
  3.172355e+01    1.036355e+00
  3.173943e+01    1.083812e+00
  3.175530e+01    1.171341e+00
  3.177118e+01    1.232804e+00
  3.178706e+01    1.331584e+00
  3.180293e+01    1.429713e+00
  3.181881e+01    1.567035e+00
  3.183468e+01    1.694833e+00
  3.185056e+01    1.787186e+00
  3.186643e+01    1.912371e+00
  3.188231e+01    2.020854e+00
  3.189818e+01    2.099882e+00
  3.191406e+01    2.032484e+00
  3.192994e+01    2.001513e+00
  3.194581e+01    1.924459e+00
  3.196169e+01    1.778720e+00
  3.197756e+01    1.635845e+00
  3.199344e+01    1.510267e+00
  3.200931e+01    1.416483e+00
  3.202519e+01    1.292418e+00
  3.204106e+01    1.195535e+00
  3.205694e+01    1.134572e+00
  3.207282e+01    1.064986e+00
  3.208869e+01    1.020949e+00
  3.210457e+01    1.010627e+00
  3.212044e+01    9.559886e-01
  3.213632e+01    9.257787e-01
  3.215219e+01    8.951066e-01
  3.216807e+01    8.669255e-01
  3.218394e+01    8.517484e-01
  3.219982e+01    8.406677e-01
  3.221570e+01    8.129419e-01
  3.223157e+01    8.260315e-01
  3.224745e+01    8.313558e-01
  3.226332e+01    8.136734e-01
  3.227920e+01    8.014956e-01
  3.229507e+01    8.010981e-01
  3.231095e+01    7.821940e-01
  3.232682e+01    7.992112e-01
  3.234270e+01    8.005844e-01
  3.235858e+01    7.784198e-01
  3.237445e+01    7.838052e-01
  3.239033e+01    7.760530e-01
  3.240620e+01    7.545505e-01
  3.242208e+01    7.855545e-01
  3.243795e+01    7.891985e-01
  3.245383e+01    7.643589e-01
  3.246970e+01    7.594346e-01
  3.248558e+01    7.796637e-01
  3.250146e+01    7.945832e-01
  3.251733e+01    7.834668e-01
  3.253321e+01    7.593049e-01
  3.254908e+01    7.661729e-01
