# == pyFAI calibration ==
# Distance Sample to Detector: 0.3999999939076516 m
# PONI: 9.750e-02, 1.135e-01 m
# Rotations: -0.000175 0.000000 -0.000000 rad
# 
# == Fit2d calibration ==
# Distance Sample-beamCenter: 400.000 mm
# Center: x=1514.000, y=1300.000 pix
# Tilt: 0.010 deg  TiltPlanRot: 0.010 deg
# 
# Detector Detector	 Spline= None	 PixelSize= 7.500e-05, 7.500e-05 m
#    Detector has a mask: False 
#    Detector has a dark current: False 
#    detector has a flat field: False 
# 
# Wavelength: 6.888e-11 m
# Mask applied: user provided
# Dark current applied: False
# Flat field applied: False
# Polarization factor: 0.99
# Normalization factor: 1.0
# --> /home/myspot/data/2024_07_Rosario/Ru-CGO-ex/2024-07-27_003_Ru-CGO-ex_Reaction_dwell_000023_data_000165.dat
#       q_nm^-1             I 
  2.003187e-02    0.000000e+00
  3.590745e-02    0.000000e+00
  5.178302e-02    9.498589e-02
  6.765859e-02    1.792999e-01
  8.353417e-02    1.001128e-01
  9.940974e-02    9.167729e-02
  1.152853e-01    3.267415e-02
  1.311609e-01    2.051406e-04
  1.470365e-01    0.000000e+00
  1.629120e-01    3.826907e-03
  1.787876e-01    4.650806e-02
  1.946632e-01    5.413727e-02
  2.105388e-01    6.183324e-02
  2.264143e-01    5.752896e-02
  2.422899e-01    2.679029e-02
  2.581655e-01    4.497770e-02
  2.740411e-01    2.809979e-02
  2.899166e-01    2.139046e-02
  3.057922e-01    4.291357e-02
  3.216678e-01    5.367462e-02
  3.375433e-01    1.750362e-02
  3.534189e-01    2.802940e-02
  3.692945e-01    5.487055e-02
  3.851701e-01    7.401817e-02
  4.010456e-01    3.707165e-02
  4.169212e-01    2.495407e-02
  4.327968e-01    3.330141e-02
  4.486724e-01    3.884697e-02
  4.645479e-01    3.865714e-02
  4.804235e-01    1.508577e-02
  4.962991e-01    1.385733e-02
  5.121747e-01    4.083261e-02
  5.280502e-01    3.798161e-02
  5.439258e-01    4.572879e-02
  5.598014e-01    2.966898e-02
  5.756770e-01    4.528072e-02
  5.915525e-01    6.854407e-02
  6.074281e-01    3.838941e-02
  6.233037e-01    4.114337e-02
  6.391793e-01    3.293481e-02
  6.550548e-01    3.736693e-02
  6.709304e-01    6.051547e-02
  6.868060e-01    4.612057e-02
  7.026815e-01    1.945179e-02
  7.185571e-01    1.359280e-02
  7.344327e-01    3.650551e-02
  7.503083e-01    8.871648e-02
  7.661838e-01    1.124531e-01
  7.820594e-01    1.088347e-01
  7.979350e-01    1.417130e-01
  8.138106e-01    2.275828e-01
  8.296861e-01    3.146345e-01
  8.455617e-01    3.525074e-01
  8.614373e-01    4.400075e-01
  8.773129e-01    5.334303e-01
  8.931884e-01    5.412869e-01
  9.090640e-01    5.940392e-01
  9.249396e-01    7.144653e-01
  9.408152e-01    7.898567e-01
  9.566907e-01    8.463254e-01
  9.725663e-01    9.065487e-01
  9.884419e-01    1.060084e+00
  1.004317e+00    1.209716e+00
  1.020193e+00    1.259482e+00
  1.036069e+00    1.285661e+00
  1.051944e+00    1.321237e+00
  1.067820e+00    1.458896e+00
  1.083695e+00    1.500173e+00
  1.099571e+00    1.478195e+00
  1.115446e+00    1.610860e+00
  1.131322e+00    1.698726e+00
  1.147198e+00    1.556182e+00
  1.163073e+00    1.699168e+00
  1.178949e+00    1.757266e+00
  1.194824e+00    1.788310e+00
  1.210700e+00    1.982882e+00
  1.226575e+00    2.215354e+00
  1.242451e+00    2.291671e+00
  1.258327e+00    2.505370e+00
  1.274202e+00    2.502665e+00
  1.290078e+00    2.569835e+00
  1.305953e+00    2.718835e+00
  1.321829e+00    2.714233e+00
  1.337705e+00    2.647004e+00
  1.353580e+00    2.768904e+00
  1.369456e+00    2.832048e+00
  1.385331e+00    2.922159e+00
  1.401207e+00    2.935224e+00
  1.417082e+00    2.974737e+00
  1.432958e+00    2.839637e+00
  1.448834e+00    2.693453e+00
  1.464709e+00    2.860765e+00
  1.480585e+00    3.061042e+00
  1.496460e+00    3.022608e+00
  1.512336e+00    3.036020e+00
  1.528211e+00    3.057448e+00
  1.544087e+00    3.249017e+00
  1.559963e+00    3.160020e+00
  1.575838e+00    3.061219e+00
  1.591714e+00    3.124714e+00
  1.607589e+00    3.117850e+00
  1.623465e+00    3.053584e+00
  1.639340e+00    3.048053e+00
  1.655216e+00    3.017817e+00
  1.671092e+00    3.050102e+00
  1.686967e+00    3.112715e+00
  1.702843e+00    3.180464e+00
  1.718718e+00    3.033008e+00
  1.734594e+00    2.961456e+00
  1.750469e+00    3.113914e+00
  1.766345e+00    3.155206e+00
  1.782221e+00    3.164725e+00
  1.798096e+00    3.109141e+00
  1.813972e+00    3.123264e+00
  1.829847e+00    3.093581e+00
  1.845723e+00    3.161506e+00
  1.861598e+00    3.177685e+00
  1.877474e+00    3.210920e+00
  1.893350e+00    3.155987e+00
  1.909225e+00    3.008664e+00
  1.925101e+00    3.010241e+00
  1.940976e+00    3.057391e+00
  1.956852e+00    3.136060e+00
  1.972727e+00    3.002987e+00
  1.988603e+00    2.979110e+00
  2.004479e+00    2.835455e+00
  2.020354e+00    2.911148e+00
  2.036230e+00    3.087384e+00
  2.052105e+00    3.149701e+00
  2.067981e+00    3.019712e+00
  2.083856e+00    2.992887e+00
  2.099732e+00    3.078181e+00
  2.115608e+00    3.139192e+00
  2.131483e+00    3.164066e+00
  2.147359e+00    3.099269e+00
  2.163234e+00    3.020164e+00
  2.179110e+00    3.176211e+00
  2.194985e+00    3.171574e+00
  2.210861e+00    3.084208e+00
  2.226737e+00    3.109782e+00
  2.242612e+00    3.105270e+00
  2.258488e+00    3.151759e+00
  2.274363e+00    3.205524e+00
  2.290239e+00    3.087743e+00
  2.306115e+00    3.018974e+00
  2.321990e+00    3.152812e+00
  2.337866e+00    3.220192e+00
  2.353741e+00    3.114217e+00
  2.369617e+00    3.078866e+00
  2.385492e+00    3.036940e+00
  2.401368e+00    3.110407e+00
  2.417244e+00    3.135458e+00
  2.433119e+00    3.063248e+00
  2.448995e+00    3.085917e+00
  2.464870e+00    3.098728e+00
  2.480746e+00    3.120759e+00
  2.496621e+00    3.059595e+00
  2.512497e+00    3.093310e+00
  2.528373e+00    3.146139e+00
  2.544248e+00    3.154882e+00
  2.560124e+00    3.130710e+00
  2.575999e+00    3.155290e+00
  2.591875e+00    3.141704e+00
  2.607750e+00    3.255120e+00
  2.623626e+00    3.306290e+00
  2.639502e+00    3.127858e+00
  2.655377e+00    3.095017e+00
  2.671253e+00    3.228446e+00
  2.687128e+00    3.191802e+00
  2.703004e+00    3.155392e+00
  2.718879e+00    3.189115e+00
  2.734755e+00    3.143653e+00
  2.750631e+00    3.158276e+00
  2.766506e+00    3.271439e+00
  2.782382e+00    3.304129e+00
  2.798257e+00    3.234242e+00
  2.814133e+00    3.244689e+00
  2.830008e+00    3.253332e+00
  2.845884e+00    3.291984e+00
  2.861760e+00    3.321453e+00
  2.877635e+00    3.349900e+00
  2.893511e+00    3.368381e+00
  2.909386e+00    3.257470e+00
  2.925262e+00    3.287429e+00
  2.941137e+00    3.340372e+00
  2.957013e+00    3.327909e+00
  2.972889e+00    3.362489e+00
  2.988764e+00    3.367711e+00
  3.004640e+00    3.288559e+00
  3.020515e+00    3.396136e+00
  3.036391e+00    3.279463e+00
  3.052266e+00    3.231303e+00
  3.068142e+00    3.195577e+00
  3.084018e+00    3.220657e+00
  3.099893e+00    3.237410e+00
  3.115769e+00    3.269222e+00
  3.131644e+00    3.298168e+00
  3.147520e+00    3.298688e+00
  3.163395e+00    3.280387e+00
  3.179271e+00    3.113944e+00
  3.195147e+00    3.238942e+00
  3.211022e+00    3.365188e+00
  3.226898e+00    3.401452e+00
  3.242773e+00    3.360731e+00
  3.258649e+00    3.350250e+00
  3.274525e+00    3.406770e+00
  3.290400e+00    3.405205e+00
  3.306276e+00    3.426157e+00
  3.322151e+00    3.365428e+00
  3.338027e+00    3.406365e+00
  3.353902e+00    3.379624e+00
  3.369778e+00    3.422713e+00
  3.385654e+00    3.406879e+00
  3.401529e+00    3.409378e+00
  3.417405e+00    3.379342e+00
  3.433280e+00    3.429130e+00
  3.449156e+00    3.393129e+00
  3.465031e+00    3.321691e+00
  3.480907e+00    3.386328e+00
  3.496783e+00    3.519536e+00
  3.512658e+00    3.480160e+00
  3.528534e+00    3.370552e+00
  3.544409e+00    3.385925e+00
  3.560285e+00    3.405361e+00
  3.576160e+00    3.461601e+00
  3.592036e+00    3.414973e+00
  3.607912e+00    3.472517e+00
  3.623787e+00    3.408909e+00
  3.639663e+00    3.342971e+00
  3.655538e+00    3.435785e+00
  3.671414e+00    3.461554e+00
  3.687289e+00    3.425265e+00
  3.703165e+00    3.535632e+00
  3.719041e+00    3.365357e+00
  3.734916e+00    3.435769e+00
  3.750792e+00    3.506215e+00
  3.766667e+00    3.505962e+00
  3.782543e+00    3.442493e+00
  3.798418e+00    3.436247e+00
  3.814294e+00    3.480983e+00
  3.830170e+00    3.466989e+00
  3.846045e+00    3.492827e+00
  3.861921e+00    3.523390e+00
  3.877796e+00    3.577451e+00
  3.893672e+00    3.527805e+00
  3.909547e+00    3.527297e+00
  3.925423e+00    3.496383e+00
  3.941299e+00    3.472775e+00
  3.957174e+00    3.404437e+00
  3.973050e+00    3.461754e+00
  3.988925e+00    3.501931e+00
  4.004801e+00    3.539250e+00
  4.020676e+00    3.522707e+00
  4.036552e+00    3.475097e+00
  4.052428e+00    3.483174e+00
  4.068303e+00    3.441066e+00
  4.084179e+00    3.468105e+00
  4.100054e+00    3.552582e+00
  4.115930e+00    3.522832e+00
  4.131806e+00    3.507798e+00
  4.147681e+00    3.601686e+00
  4.163557e+00    3.515149e+00
  4.179432e+00    3.473605e+00
  4.195308e+00    3.525105e+00
  4.211183e+00    3.615231e+00
  4.227059e+00    3.601199e+00
  4.242935e+00    3.521195e+00
  4.258810e+00    3.456301e+00
  4.274686e+00    3.543538e+00
  4.290561e+00    3.608102e+00
  4.306437e+00    3.602860e+00
  4.322312e+00    3.514137e+00
  4.338188e+00    3.526469e+00
  4.354064e+00    3.519650e+00
  4.369939e+00    3.521829e+00
  4.385815e+00    3.511872e+00
  4.401690e+00    3.544934e+00
  4.417566e+00    3.559711e+00
  4.433441e+00    3.546571e+00
  4.449317e+00    3.537989e+00
  4.465193e+00    3.576943e+00
  4.481068e+00    3.583611e+00
  4.496944e+00    3.635689e+00
  4.512819e+00    3.671369e+00
  4.528695e+00    3.627252e+00
  4.544570e+00    3.562272e+00
  4.560446e+00    3.521469e+00
  4.576322e+00    3.504882e+00
  4.592197e+00    3.555480e+00
  4.608073e+00    3.532022e+00
  4.623948e+00    3.653308e+00
  4.639824e+00    3.729642e+00
  4.655699e+00    3.658043e+00
  4.671575e+00    3.695437e+00
  4.687451e+00    3.675461e+00
  4.703326e+00    3.625638e+00
  4.719202e+00    3.598613e+00
  4.735077e+00    3.589513e+00
  4.750953e+00    3.508849e+00
  4.766828e+00    3.605937e+00
  4.782704e+00    3.626441e+00
  4.798580e+00    3.595702e+00
  4.814455e+00    3.573866e+00
  4.830331e+00    3.559688e+00
  4.846206e+00    3.652412e+00
  4.862082e+00    3.605299e+00
  4.877957e+00    3.602045e+00
  4.893833e+00    3.553621e+00
  4.909709e+00    3.587253e+00
  4.925584e+00    3.601947e+00
  4.941460e+00    3.565227e+00
  4.957335e+00    3.605471e+00
  4.973211e+00    3.566630e+00
  4.989086e+00    3.619591e+00
  5.004962e+00    3.644111e+00
  5.020838e+00    3.659022e+00
  5.036713e+00    3.591816e+00
  5.052589e+00    3.607958e+00
  5.068464e+00    3.643127e+00
  5.084340e+00    3.618140e+00
  5.100216e+00    3.560279e+00
  5.116091e+00    3.561144e+00
  5.131967e+00    3.669724e+00
  5.147842e+00    3.652413e+00
  5.163718e+00    3.689117e+00
  5.179593e+00    3.616176e+00
  5.195469e+00    3.624018e+00
  5.211345e+00    3.590074e+00
  5.227220e+00    3.589204e+00
  5.243096e+00    3.648408e+00
  5.258971e+00    3.585796e+00
  5.274847e+00    3.583058e+00
  5.290722e+00    3.557619e+00
  5.306598e+00    3.566070e+00
  5.322474e+00    3.599522e+00
  5.338349e+00    3.581851e+00
  5.354225e+00    3.649816e+00
  5.370100e+00    3.686612e+00
  5.385976e+00    3.635340e+00
  5.401851e+00    3.652914e+00
  5.417727e+00    3.607219e+00
  5.433603e+00    3.651236e+00
  5.449478e+00    3.640240e+00
  5.465354e+00    3.597204e+00
  5.481229e+00    3.651234e+00
  5.497105e+00    3.592319e+00
  5.512980e+00    3.574828e+00
  5.528856e+00    3.590610e+00
  5.544732e+00    3.482519e+00
  5.560607e+00    3.485085e+00
  5.576483e+00    3.503794e+00
  5.592358e+00    3.531677e+00
  5.608234e+00    3.522425e+00
  5.624109e+00    3.516226e+00
  5.639985e+00    3.560728e+00
  5.655861e+00    3.586024e+00
  5.671736e+00    3.601717e+00
  5.687612e+00    3.531722e+00
  5.703487e+00    3.491670e+00
  5.719363e+00    3.472689e+00
  5.735238e+00    3.507755e+00
  5.751114e+00    3.554635e+00
  5.766990e+00    3.563222e+00
  5.782865e+00    3.518111e+00
  5.798741e+00    3.533897e+00
  5.814616e+00    3.478259e+00
  5.830492e+00    3.554827e+00
  5.846367e+00    3.541316e+00
  5.862243e+00    3.585484e+00
  5.878119e+00    3.551204e+00
  5.893994e+00    3.513137e+00
  5.909870e+00    3.447917e+00
  5.925745e+00    3.498852e+00
  5.941621e+00    3.544909e+00
  5.957497e+00    3.456306e+00
  5.973372e+00    3.504481e+00
  5.989248e+00    3.536703e+00
  6.005123e+00    3.448578e+00
  6.020999e+00    3.506648e+00
  6.036874e+00    3.590508e+00
  6.052750e+00    3.552545e+00
  6.068626e+00    3.528114e+00
  6.084501e+00    3.522876e+00
  6.100377e+00    3.510251e+00
  6.116252e+00    3.523844e+00
  6.132128e+00    3.641752e+00
  6.148003e+00    3.572625e+00
  6.163879e+00    3.574250e+00
  6.179755e+00    3.650079e+00
  6.195630e+00    3.540535e+00
  6.211506e+00    3.473210e+00
  6.227381e+00    3.525422e+00
  6.243257e+00    3.517006e+00
  6.259132e+00    3.541655e+00
  6.275008e+00    3.560062e+00
  6.290884e+00    3.525940e+00
  6.306759e+00    3.533303e+00
  6.322635e+00    3.533638e+00
  6.338510e+00    3.562211e+00
  6.354386e+00    3.534988e+00
  6.370261e+00    3.537934e+00
  6.386137e+00    3.529459e+00
  6.402013e+00    3.511896e+00
  6.417888e+00    3.528093e+00
  6.433764e+00    3.575539e+00
  6.449639e+00    3.491992e+00
  6.465515e+00    3.475178e+00
  6.481390e+00    3.499114e+00
  6.497266e+00    3.536561e+00
  6.513142e+00    3.559245e+00
  6.529017e+00    3.463069e+00
  6.544893e+00    3.414750e+00
  6.560768e+00    3.408110e+00
  6.576644e+00    3.567734e+00
  6.592519e+00    3.475963e+00
  6.608395e+00    3.438695e+00
  6.624271e+00    3.461297e+00
  6.640146e+00    3.520794e+00
  6.656022e+00    3.528240e+00
  6.671897e+00    3.544001e+00
  6.687773e+00    3.569750e+00
  6.703648e+00    3.554410e+00
  6.719524e+00    3.525530e+00
  6.735400e+00    3.465187e+00
  6.751275e+00    3.410251e+00
  6.767151e+00    3.550721e+00
  6.783026e+00    3.546400e+00
  6.798902e+00    3.453188e+00
  6.814777e+00    3.457889e+00
  6.830653e+00    3.505074e+00
  6.846529e+00    3.573087e+00
  6.862404e+00    3.558499e+00
  6.878280e+00    3.521520e+00
  6.894155e+00    3.526798e+00
  6.910031e+00    3.520159e+00
  6.925907e+00    3.555975e+00
  6.941782e+00    3.507457e+00
  6.957658e+00    3.520303e+00
  6.973533e+00    3.553465e+00
  6.989409e+00    3.524134e+00
  7.005284e+00    3.510494e+00
  7.021160e+00    3.510208e+00
  7.037036e+00    3.558581e+00
  7.052911e+00    3.595279e+00
  7.068787e+00    3.483720e+00
  7.084662e+00    3.463121e+00
  7.100538e+00    3.493051e+00
  7.116413e+00    3.603892e+00
  7.132289e+00    3.604891e+00
  7.148165e+00    3.530676e+00
  7.164040e+00    3.444462e+00
  7.179916e+00    3.417707e+00
  7.195791e+00    3.458918e+00
  7.211667e+00    3.512447e+00
  7.227542e+00    3.558756e+00
  7.243418e+00    3.505261e+00
  7.259294e+00    3.480911e+00
  7.275169e+00    3.525891e+00
  7.291045e+00    3.539998e+00
  7.306920e+00    3.461383e+00
  7.322796e+00    3.365412e+00
  7.338671e+00    3.443228e+00
  7.354547e+00    3.424822e+00
  7.370423e+00    3.463570e+00
  7.386298e+00    3.539851e+00
  7.402174e+00    3.514273e+00
  7.418049e+00    3.462637e+00
  7.433925e+00    3.467535e+00
  7.449800e+00    3.478917e+00
  7.465676e+00    3.448999e+00
  7.481552e+00    3.461560e+00
  7.497427e+00    3.469768e+00
  7.513303e+00    3.471059e+00
  7.529178e+00    3.466376e+00
  7.545054e+00    3.410332e+00
  7.560929e+00    3.459306e+00
  7.576805e+00    3.492939e+00
  7.592681e+00    3.418020e+00
  7.608556e+00    3.417464e+00
  7.624432e+00    3.452951e+00
  7.640307e+00    3.464994e+00
  7.656183e+00    3.443459e+00
  7.672058e+00    3.401570e+00
  7.687934e+00    3.421181e+00
  7.703810e+00    3.465286e+00
  7.719685e+00    3.416576e+00
  7.735561e+00    3.373042e+00
  7.751436e+00    3.430968e+00
  7.767312e+00    3.440571e+00
  7.783187e+00    3.474515e+00
  7.799063e+00    3.468606e+00
  7.814939e+00    3.389199e+00
  7.830814e+00    3.410245e+00
  7.846690e+00    3.384144e+00
  7.862565e+00    3.324390e+00
  7.878441e+00    3.410703e+00
  7.894317e+00    3.420499e+00
  7.910192e+00    3.371268e+00
  7.926068e+00    3.393816e+00
  7.941943e+00    3.417376e+00
  7.957819e+00    3.362204e+00
  7.973694e+00    3.407921e+00
  7.989570e+00    3.401073e+00
  8.005446e+00    3.414814e+00
  8.021321e+00    3.352077e+00
  8.037197e+00    3.419088e+00
  8.053072e+00    3.372090e+00
  8.068948e+00    3.394191e+00
  8.084823e+00    3.444037e+00
  8.100699e+00    3.411928e+00
  8.116575e+00    3.448002e+00
  8.132450e+00    3.466480e+00
  8.148326e+00    3.410892e+00
  8.164201e+00    3.447907e+00
  8.180077e+00    3.449704e+00
  8.195952e+00    3.443393e+00
  8.211828e+00    3.398263e+00
  8.227704e+00    3.399942e+00
  8.243579e+00    3.417716e+00
  8.259455e+00    3.360159e+00
  8.275330e+00    3.336701e+00
  8.291206e+00    3.338178e+00
  8.307081e+00    3.360516e+00
  8.322957e+00    3.378977e+00
  8.338833e+00    3.321011e+00
  8.354708e+00    3.319568e+00
  8.370584e+00    3.349798e+00
  8.386459e+00    3.377221e+00
  8.402335e+00    3.404842e+00
  8.418210e+00    3.337489e+00
  8.434086e+00    3.387421e+00
  8.449962e+00    3.329670e+00
  8.465837e+00    3.322886e+00
  8.481713e+00    3.315094e+00
  8.497588e+00    3.376151e+00
  8.513464e+00    3.337675e+00
  8.529339e+00    3.288060e+00
  8.545215e+00    3.374068e+00
  8.561091e+00    3.356726e+00
  8.576966e+00    3.320020e+00
  8.592842e+00    3.318448e+00
  8.608717e+00    3.345801e+00
  8.624593e+00    3.320372e+00
  8.640468e+00    3.313748e+00
  8.656344e+00    3.303355e+00
  8.672220e+00    3.331180e+00
  8.688095e+00    3.356514e+00
  8.703971e+00    3.360639e+00
  8.719846e+00    3.283485e+00
  8.735722e+00    3.232739e+00
  8.751598e+00    3.289956e+00
  8.767473e+00    3.273907e+00
  8.783349e+00    3.258861e+00
  8.799224e+00    3.251176e+00
  8.815100e+00    3.250247e+00
  8.830975e+00    3.290226e+00
  8.846851e+00    3.288371e+00
  8.862727e+00    3.271067e+00
  8.878602e+00    3.234458e+00
  8.894478e+00    3.239113e+00
  8.910353e+00    3.233474e+00
  8.926229e+00    3.295350e+00
  8.942104e+00    3.247646e+00
  8.957980e+00    3.336899e+00
  8.973856e+00    3.307804e+00
  8.989731e+00    3.240302e+00
  9.005607e+00    3.277803e+00
  9.021482e+00    3.306348e+00
  9.037358e+00    3.338947e+00
  9.053233e+00    3.271788e+00
  9.069109e+00    3.301512e+00
  9.084985e+00    3.324740e+00
  9.100860e+00    3.253288e+00
  9.116736e+00    3.237512e+00
  9.132611e+00    3.261255e+00
  9.148487e+00    3.274034e+00
  9.164362e+00    3.257043e+00
  9.180238e+00    3.196804e+00
  9.196114e+00    3.252542e+00
  9.211989e+00    3.268378e+00
  9.227865e+00    3.248225e+00
  9.243740e+00    3.273822e+00
  9.259616e+00    3.235224e+00
  9.275491e+00    3.201876e+00
  9.291367e+00    3.195331e+00
  9.307243e+00    3.163406e+00
  9.323118e+00    3.149471e+00
  9.338994e+00    3.141998e+00
  9.354869e+00    3.182356e+00
  9.370745e+00    3.251672e+00
  9.386620e+00    3.199631e+00
  9.402496e+00    3.226662e+00
  9.418372e+00    3.173535e+00
  9.434247e+00    3.169874e+00
  9.450123e+00    3.162647e+00
  9.465998e+00    3.197165e+00
  9.481874e+00    3.209776e+00
  9.497749e+00    3.154122e+00
  9.513625e+00    3.168706e+00
  9.529501e+00    3.137667e+00
  9.545376e+00    3.195761e+00
  9.561252e+00    3.221777e+00
  9.577127e+00    3.226701e+00
  9.593003e+00    3.130548e+00
  9.608878e+00    3.132275e+00
  9.624754e+00    3.173657e+00
  9.640630e+00    3.184546e+00
  9.656505e+00    3.160383e+00
  9.672381e+00    3.119366e+00
  9.688256e+00    3.040986e+00
  9.704132e+00    3.070044e+00
  9.720008e+00    3.150986e+00
  9.735883e+00    3.151268e+00
  9.751759e+00    3.104561e+00
  9.767634e+00    3.176525e+00
  9.783510e+00    3.144754e+00
  9.799385e+00    3.124033e+00
  9.815261e+00    3.135353e+00
  9.831137e+00    3.084756e+00
  9.847012e+00    3.055702e+00
  9.862888e+00    3.087901e+00
  9.878763e+00    3.061495e+00
  9.894639e+00    3.087127e+00
  9.910514e+00    3.117047e+00
  9.926390e+00    3.152510e+00
  9.942266e+00    3.119791e+00
  9.958141e+00    3.056386e+00
  9.974017e+00    3.121924e+00
  9.989892e+00    3.125389e+00
  1.000577e+01    3.078889e+00
  1.002164e+01    3.087148e+00
  1.003752e+01    3.029881e+00
  1.005339e+01    3.048546e+00
  1.006927e+01    3.073719e+00
  1.008515e+01    3.048146e+00
  1.010102e+01    3.041619e+00
  1.011690e+01    3.032786e+00
  1.013277e+01    3.124367e+00
  1.014865e+01    3.079482e+00
  1.016452e+01    3.061120e+00
  1.018040e+01    3.033078e+00
  1.019627e+01    3.045279e+00
  1.021215e+01    3.061919e+00
  1.022803e+01    3.008950e+00
  1.024390e+01    3.022805e+00
  1.025978e+01    3.086416e+00
  1.027565e+01    3.045731e+00
  1.029153e+01    3.017178e+00
  1.030740e+01    3.044740e+00
  1.032328e+01    3.035964e+00
  1.033915e+01    3.026315e+00
  1.035503e+01    2.975283e+00
  1.037091e+01    3.044799e+00
  1.038678e+01    3.010201e+00
  1.040266e+01    2.985752e+00
  1.041853e+01    3.042681e+00
  1.043441e+01    2.998893e+00
  1.045028e+01    3.043168e+00
  1.046616e+01    3.025994e+00
  1.048204e+01    3.014421e+00
  1.049791e+01    2.988506e+00
  1.051379e+01    2.991791e+00
  1.052966e+01    2.976507e+00
  1.054554e+01    2.993483e+00
  1.056141e+01    2.953538e+00
  1.057729e+01    2.932885e+00
  1.059316e+01    2.959963e+00
  1.060904e+01    3.007088e+00
  1.062492e+01    3.006606e+00
  1.064079e+01    2.992717e+00
  1.065667e+01    2.987710e+00
  1.067254e+01    2.920775e+00
  1.068842e+01    2.937187e+00
  1.070429e+01    2.874143e+00
  1.072017e+01    2.957935e+00
  1.073604e+01    2.985370e+00
  1.075192e+01    2.948394e+00
  1.076780e+01    2.887146e+00
  1.078367e+01    2.923995e+00
  1.079955e+01    3.012915e+00
  1.081542e+01    2.993705e+00
  1.083130e+01    2.959081e+00
  1.084717e+01    2.922247e+00
  1.086305e+01    2.923630e+00
  1.087892e+01    2.900870e+00
  1.089480e+01    2.871794e+00
  1.091068e+01    2.889932e+00
  1.092655e+01    2.851073e+00
  1.094243e+01    2.852752e+00
  1.095830e+01    2.892973e+00
  1.097418e+01    2.861893e+00
  1.099005e+01    2.903641e+00
  1.100593e+01    2.916045e+00
  1.102180e+01    2.871701e+00
  1.103768e+01    2.858393e+00
  1.105356e+01    2.899550e+00
  1.106943e+01    2.880913e+00
  1.108531e+01    2.852085e+00
  1.110118e+01    2.834224e+00
  1.111706e+01    2.827464e+00
  1.113293e+01    2.868894e+00
  1.114881e+01    2.882222e+00
  1.116468e+01    2.857123e+00
  1.118056e+01    2.863700e+00
  1.119644e+01    2.858195e+00
  1.121231e+01    2.852761e+00
  1.122819e+01    2.801414e+00
  1.124406e+01    2.812339e+00
  1.125994e+01    2.829352e+00
  1.127581e+01    2.815381e+00
  1.129169e+01    2.853063e+00
  1.130756e+01    2.835028e+00
  1.132344e+01    2.773691e+00
  1.133932e+01    2.775563e+00
  1.135519e+01    2.767127e+00
  1.137107e+01    2.811445e+00
  1.138694e+01    2.821287e+00
  1.140282e+01    2.810588e+00
  1.141869e+01    2.821192e+00
  1.143457e+01    2.803320e+00
  1.145045e+01    2.822745e+00
  1.146632e+01    2.777268e+00
  1.148220e+01    2.726904e+00
  1.149807e+01    2.737403e+00
  1.151395e+01    2.785565e+00
  1.152982e+01    2.804698e+00
  1.154570e+01    2.787092e+00
  1.156157e+01    2.700609e+00
  1.157745e+01    2.729074e+00
  1.159333e+01    2.780870e+00
  1.160920e+01    2.755754e+00
  1.162508e+01    2.730047e+00
  1.164095e+01    2.734375e+00
  1.165683e+01    2.704845e+00
  1.167270e+01    2.694903e+00
  1.168858e+01    2.711182e+00
  1.170445e+01    2.718244e+00
  1.172033e+01    2.724471e+00
  1.173621e+01    2.717648e+00
  1.175208e+01    2.700049e+00
  1.176796e+01    2.703825e+00
  1.178383e+01    2.703795e+00
  1.179971e+01    2.651935e+00
  1.181558e+01    2.673958e+00
  1.183146e+01    2.661910e+00
  1.184733e+01    2.669577e+00
  1.186321e+01    2.687488e+00
  1.187909e+01    2.677284e+00
  1.189496e+01    2.715551e+00
  1.191084e+01    2.684619e+00
  1.192671e+01    2.686888e+00
  1.194259e+01    2.676985e+00
  1.195846e+01    2.635936e+00
  1.197434e+01    2.667436e+00
  1.199021e+01    2.666744e+00
  1.200609e+01    2.675528e+00
  1.202197e+01    2.644514e+00
  1.203784e+01    2.650479e+00
  1.205372e+01    2.635379e+00
  1.206959e+01    2.663546e+00
  1.208547e+01    2.665187e+00
  1.210134e+01    2.683244e+00
  1.211722e+01    2.704788e+00
  1.213309e+01    2.698584e+00
  1.214897e+01    2.690011e+00
  1.216485e+01    2.717179e+00
  1.218072e+01    2.729423e+00
  1.219660e+01    2.699980e+00
  1.221247e+01    2.637235e+00
  1.222835e+01    2.669387e+00
  1.224422e+01    2.629708e+00
  1.226010e+01    2.630086e+00
  1.227597e+01    2.691525e+00
  1.229185e+01    2.696565e+00
  1.230773e+01    2.686914e+00
  1.232360e+01    2.668403e+00
  1.233948e+01    2.659059e+00
  1.235535e+01    2.676366e+00
  1.237123e+01    2.711464e+00
  1.238710e+01    2.658207e+00
  1.240298e+01    2.631287e+00
  1.241886e+01    2.646519e+00
  1.243473e+01    2.664119e+00
  1.245061e+01    2.695726e+00
  1.246648e+01    2.709038e+00
  1.248236e+01    2.689883e+00
  1.249823e+01    2.693346e+00
  1.251411e+01    2.691148e+00
  1.252998e+01    2.704737e+00
  1.254586e+01    2.700696e+00
  1.256174e+01    2.699460e+00
  1.257761e+01    2.704240e+00
  1.259349e+01    2.713251e+00
  1.260936e+01    2.709615e+00
  1.262524e+01    2.741835e+00
  1.264111e+01    2.732270e+00
  1.265699e+01    2.758733e+00
  1.267286e+01    2.752892e+00
  1.268874e+01    2.774288e+00
  1.270462e+01    2.821931e+00
  1.272049e+01    2.845343e+00
  1.273637e+01    2.860465e+00
  1.275224e+01    2.908981e+00
  1.276812e+01    2.900185e+00
  1.278399e+01    2.930346e+00
  1.279987e+01    3.009594e+00
  1.281574e+01    2.967881e+00
  1.283162e+01    3.031524e+00
  1.284750e+01    3.141660e+00
  1.286337e+01    3.231801e+00
  1.287925e+01    3.286512e+00
  1.289512e+01    3.458050e+00
  1.291100e+01    3.680796e+00
  1.292687e+01    3.768422e+00
  1.294275e+01    3.963971e+00
  1.295862e+01    4.342077e+00
  1.297450e+01    4.730905e+00
  1.299038e+01    5.253726e+00
  1.300625e+01    5.854928e+00
  1.302213e+01    6.569736e+00
  1.303800e+01    7.583873e+00
  1.305388e+01    8.728815e+00
  1.306975e+01    1.001600e+01
  1.308563e+01    1.131917e+01
  1.310150e+01    1.252349e+01
  1.311738e+01    1.358486e+01
  1.313326e+01    1.460892e+01
  1.314913e+01    1.546850e+01
  1.316501e+01    1.610724e+01
  1.318088e+01    1.605717e+01
  1.319676e+01    1.545954e+01
  1.321263e+01    1.412352e+01
  1.322851e+01    1.248384e+01
  1.324438e+01    1.064938e+01
  1.326026e+01    8.957057e+00
  1.327614e+01    7.720979e+00
  1.329201e+01    6.735639e+00
  1.330789e+01    5.950234e+00
  1.332376e+01    5.328346e+00
  1.333964e+01    4.844213e+00
  1.335551e+01    4.410226e+00
  1.337139e+01    4.024540e+00
  1.338727e+01    3.797403e+00
  1.340314e+01    3.616607e+00
  1.341902e+01    3.402586e+00
  1.343489e+01    3.300400e+00
  1.345077e+01    3.161169e+00
  1.346664e+01    3.081698e+00
  1.348252e+01    2.995042e+00
  1.349839e+01    2.895543e+00
  1.351427e+01    2.845491e+00
  1.353015e+01    2.793126e+00
  1.354602e+01    2.773555e+00
  1.356190e+01    2.792559e+00
  1.357777e+01    2.701324e+00
  1.359365e+01    2.663502e+00
  1.360952e+01    2.656800e+00
  1.362540e+01    2.637708e+00
  1.364127e+01    2.596275e+00
  1.365715e+01    2.569136e+00
  1.367303e+01    2.582462e+00
  1.368890e+01    2.567418e+00
  1.370478e+01    2.528360e+00
  1.372065e+01    2.480656e+00
  1.373653e+01    2.498513e+00
  1.375240e+01    2.484921e+00
  1.376828e+01    2.473265e+00
  1.378415e+01    2.475492e+00
  1.380003e+01    2.453553e+00
  1.381591e+01    2.467386e+00
  1.383178e+01    2.450803e+00
  1.384766e+01    2.421954e+00
  1.386353e+01    2.377552e+00
  1.387941e+01    2.386067e+00
  1.389528e+01    2.388265e+00
  1.391116e+01    2.395380e+00
  1.392703e+01    2.371971e+00
  1.394291e+01    2.406102e+00
  1.395879e+01    2.415538e+00
  1.397466e+01    2.375085e+00
  1.399054e+01    2.363231e+00
  1.400641e+01    2.329213e+00
  1.402229e+01    2.299301e+00
  1.403816e+01    2.351451e+00
  1.405404e+01    2.309817e+00
  1.406991e+01    2.295673e+00
  1.408579e+01    2.320240e+00
  1.410167e+01    2.374678e+00
  1.411754e+01    2.326548e+00
  1.413342e+01    2.321458e+00
  1.414929e+01    2.305220e+00
  1.416517e+01    2.264658e+00
  1.418104e+01    2.291087e+00
  1.419692e+01    2.309810e+00
  1.421279e+01    2.312984e+00
  1.422867e+01    2.284660e+00
  1.424455e+01    2.230078e+00
  1.426042e+01    2.253007e+00
  1.427630e+01    2.266048e+00
  1.429217e+01    2.265038e+00
  1.430805e+01    2.214503e+00
  1.432392e+01    2.224515e+00
  1.433980e+01    2.211342e+00
  1.435568e+01    2.225553e+00
  1.437155e+01    2.233000e+00
  1.438743e+01    2.225334e+00
  1.440330e+01    2.214931e+00
  1.441918e+01    2.196484e+00
  1.443505e+01    2.189777e+00
  1.445093e+01    2.218914e+00
  1.446680e+01    2.203421e+00
  1.448268e+01    2.167824e+00
  1.449856e+01    2.165540e+00
  1.451443e+01    2.199471e+00
  1.453031e+01    2.162158e+00
  1.454618e+01    2.139859e+00
  1.456206e+01    2.174107e+00
  1.457793e+01    2.190355e+00
  1.459381e+01    2.188352e+00
  1.460968e+01    2.168599e+00
  1.462556e+01    2.205709e+00
  1.464144e+01    2.201920e+00
  1.465731e+01    2.235084e+00
  1.467319e+01    2.227759e+00
  1.468906e+01    2.211334e+00
  1.470494e+01    2.206476e+00
  1.472081e+01    2.168479e+00
  1.473669e+01    2.153216e+00
  1.475256e+01    2.169605e+00
  1.476844e+01    2.163547e+00
  1.478432e+01    2.138725e+00
  1.480019e+01    2.174779e+00
  1.481607e+01    2.242332e+00
  1.483194e+01    2.225138e+00
  1.484782e+01    2.214453e+00
  1.486369e+01    2.217194e+00
  1.487957e+01    2.187072e+00
  1.489544e+01    2.212058e+00
  1.491132e+01    2.261989e+00
  1.492720e+01    2.263729e+00
  1.494307e+01    2.248937e+00
  1.495895e+01    2.295889e+00
  1.497482e+01    2.364025e+00
  1.499070e+01    2.400146e+00
  1.500657e+01    2.452951e+00
  1.502245e+01    2.509160e+00
  1.503832e+01    2.619228e+00
  1.505420e+01    2.668104e+00
  1.507008e+01    2.794108e+00
  1.508595e+01    2.943245e+00
  1.510183e+01    3.142846e+00
  1.511770e+01    3.434160e+00
  1.513358e+01    3.756149e+00
  1.514945e+01    4.066254e+00
  1.516533e+01    4.427798e+00
  1.518120e+01    4.756765e+00
  1.519708e+01    5.138183e+00
  1.521296e+01    5.358233e+00
  1.522883e+01    5.524000e+00
  1.524471e+01    5.665055e+00
  1.526058e+01    5.678431e+00
  1.527646e+01    5.688603e+00
  1.529233e+01    5.466545e+00
  1.530821e+01    5.139424e+00
  1.532409e+01    4.648283e+00
  1.533996e+01    4.116822e+00
  1.535584e+01    3.747802e+00
  1.537171e+01    3.384104e+00
  1.538759e+01    3.041740e+00
  1.540346e+01    2.864321e+00
  1.541934e+01    2.747933e+00
  1.543521e+01    2.649153e+00
  1.545109e+01    2.518323e+00
  1.546697e+01    2.411528e+00
  1.548284e+01    2.366217e+00
  1.549872e+01    2.307110e+00
  1.551459e+01    2.225778e+00
  1.553047e+01    2.182634e+00
  1.554634e+01    2.170523e+00
  1.556222e+01    2.161005e+00
  1.557809e+01    2.105761e+00
  1.559397e+01    2.084889e+00
  1.560985e+01    2.040795e+00
  1.562572e+01    2.057762e+00
  1.564160e+01    2.040422e+00
  1.565747e+01    2.054959e+00
  1.567335e+01    2.005935e+00
  1.568922e+01    1.962373e+00
  1.570510e+01    1.960451e+00
  1.572097e+01    1.910937e+00
  1.573685e+01    1.947306e+00
  1.575273e+01    1.920665e+00
  1.576860e+01    1.900944e+00
  1.578448e+01    1.932059e+00
  1.580035e+01    1.936906e+00
  1.581623e+01    1.928485e+00
  1.583210e+01    1.930301e+00
  1.584798e+01    1.922659e+00
  1.586385e+01    1.846054e+00
  1.587973e+01    1.848273e+00
  1.589561e+01    1.861222e+00
  1.591148e+01    1.885464e+00
  1.592736e+01    1.888196e+00
  1.594323e+01    1.875860e+00
  1.595911e+01    1.872644e+00
  1.597498e+01    1.879537e+00
  1.599086e+01    1.900750e+00
  1.600673e+01    1.839041e+00
  1.602261e+01    1.837660e+00
  1.603849e+01    1.827632e+00
  1.605436e+01    1.836191e+00
  1.607024e+01    1.821688e+00
  1.608611e+01    1.852077e+00
  1.610199e+01    1.865967e+00
  1.611786e+01    1.847349e+00
  1.613374e+01    1.809701e+00
  1.614961e+01    1.834457e+00
  1.616549e+01    1.811400e+00
  1.618137e+01    1.797094e+00
  1.619724e+01    1.780998e+00
  1.621312e+01    1.794476e+00
  1.622899e+01    1.788653e+00
  1.624487e+01    1.824922e+00
  1.626074e+01    1.827053e+00
  1.627662e+01    1.790757e+00
  1.629250e+01    1.789545e+00
  1.630837e+01    1.775780e+00
  1.632425e+01    1.746809e+00
  1.634012e+01    1.731244e+00
  1.635600e+01    1.731905e+00
  1.637187e+01    1.776935e+00
  1.638775e+01    1.778671e+00
  1.640362e+01    1.733925e+00
  1.641950e+01    1.745775e+00
  1.643538e+01    1.768212e+00
  1.645125e+01    1.780529e+00
  1.646713e+01    1.787813e+00
  1.648300e+01    1.764505e+00
  1.649888e+01    1.755780e+00
  1.651475e+01    1.745260e+00
  1.653063e+01    1.750733e+00
  1.654650e+01    1.757293e+00
  1.656238e+01    1.728630e+00
  1.657826e+01    1.703063e+00
  1.659413e+01    1.734098e+00
  1.661001e+01    1.721543e+00
  1.662588e+01    1.710011e+00
  1.664176e+01    1.712542e+00
  1.665763e+01    1.713038e+00
  1.667351e+01    1.750447e+00
  1.668938e+01    1.727980e+00
  1.670526e+01    1.711057e+00
  1.672114e+01    1.705735e+00
  1.673701e+01    1.668754e+00
  1.675289e+01    1.670872e+00
  1.676876e+01    1.714187e+00
  1.678464e+01    1.728048e+00
  1.680051e+01    1.687334e+00
  1.681639e+01    1.693103e+00
  1.683226e+01    1.718150e+00
  1.684814e+01    1.692260e+00
  1.686402e+01    1.656581e+00
  1.687989e+01    1.662064e+00
  1.689577e+01    1.702407e+00
  1.691164e+01    1.680604e+00
  1.692752e+01    1.629680e+00
  1.694339e+01    1.666041e+00
  1.695927e+01    1.662633e+00
  1.697514e+01    1.659959e+00
  1.699102e+01    1.657828e+00
  1.700690e+01    1.629430e+00
  1.702277e+01    1.650547e+00
  1.703865e+01    1.673463e+00
  1.705452e+01    1.647789e+00
  1.707040e+01    1.650229e+00
  1.708627e+01    1.613178e+00
  1.710215e+01    1.617025e+00
  1.711802e+01    1.638294e+00
  1.713390e+01    1.626885e+00
  1.714978e+01    1.665160e+00
  1.716565e+01    1.648548e+00
  1.718153e+01    1.600919e+00
  1.719740e+01    1.620465e+00
  1.721328e+01    1.650476e+00
  1.722915e+01    1.629084e+00
  1.724503e+01    1.627810e+00
  1.726091e+01    1.609433e+00
  1.727678e+01    1.598184e+00
  1.729266e+01    1.610930e+00
  1.730853e+01    1.577104e+00
  1.732441e+01    1.593463e+00
  1.734028e+01    1.594372e+00
  1.735616e+01    1.632974e+00
  1.737203e+01    1.583139e+00
  1.738791e+01    1.595894e+00
  1.740379e+01    1.586727e+00
  1.741966e+01    1.594633e+00
  1.743554e+01    1.587468e+00
  1.745141e+01    1.582393e+00
  1.746729e+01    1.569014e+00
  1.748316e+01    1.580350e+00
  1.749904e+01    1.553513e+00
  1.751491e+01    1.556139e+00
  1.753079e+01    1.587416e+00
  1.754667e+01    1.586874e+00
  1.756254e+01    1.573579e+00
  1.757842e+01    1.585078e+00
  1.759429e+01    1.547581e+00
  1.761017e+01    1.550938e+00
  1.762604e+01    1.561516e+00
  1.764192e+01    1.547211e+00
  1.765779e+01    1.545130e+00
  1.767367e+01    1.559014e+00
  1.768955e+01    1.537644e+00
  1.770542e+01    1.530842e+00
  1.772130e+01    1.534362e+00
  1.773717e+01    1.538133e+00
  1.775305e+01    1.537652e+00
  1.776892e+01    1.540203e+00
  1.778480e+01    1.538138e+00
  1.780067e+01    1.539294e+00
  1.781655e+01    1.526805e+00
  1.783243e+01    1.504948e+00
  1.784830e+01    1.536586e+00
  1.786418e+01    1.554683e+00
  1.788005e+01    1.507640e+00
  1.789593e+01    1.492574e+00
  1.791180e+01    1.497761e+00
  1.792768e+01    1.499412e+00
  1.794355e+01    1.485596e+00
  1.795943e+01    1.501905e+00
  1.797531e+01    1.476231e+00
  1.799118e+01    1.492754e+00
  1.800706e+01    1.492452e+00
  1.802293e+01    1.475419e+00
  1.803881e+01    1.459443e+00
  1.805468e+01    1.466679e+00
  1.807056e+01    1.509930e+00
  1.808643e+01    1.500311e+00
  1.810231e+01    1.473637e+00
  1.811819e+01    1.485580e+00
  1.813406e+01    1.504367e+00
  1.814994e+01    1.487530e+00
  1.816581e+01    1.480966e+00
  1.818169e+01    1.475426e+00
  1.819756e+01    1.494232e+00
  1.821344e+01    1.506364e+00
  1.822932e+01    1.468171e+00
  1.824519e+01    1.468391e+00
  1.826107e+01    1.459668e+00
  1.827694e+01    1.464979e+00
  1.829282e+01    1.456951e+00
  1.830869e+01    1.461207e+00
  1.832457e+01    1.445254e+00
  1.834044e+01    1.418017e+00
  1.835632e+01    1.430159e+00
  1.837220e+01    1.444541e+00
  1.838807e+01    1.481350e+00
  1.840395e+01    1.451056e+00
  1.841982e+01    1.453268e+00
  1.843570e+01    1.442464e+00
  1.845157e+01    1.430896e+00
  1.846745e+01    1.428358e+00
  1.848332e+01    1.432601e+00
  1.849920e+01    1.424473e+00
  1.851508e+01    1.389160e+00
  1.853095e+01    1.393665e+00
  1.854683e+01    1.418972e+00
  1.856270e+01    1.412363e+00
  1.857858e+01    1.441067e+00
  1.859445e+01    1.437385e+00
  1.861033e+01    1.389805e+00
  1.862620e+01    1.433085e+00
  1.864208e+01    1.441578e+00
  1.865796e+01    1.420087e+00
  1.867383e+01    1.405145e+00
  1.868971e+01    1.435565e+00
  1.870558e+01    1.414332e+00
  1.872146e+01    1.410142e+00
  1.873733e+01    1.406483e+00
  1.875321e+01    1.394362e+00
  1.876908e+01    1.404912e+00
  1.878496e+01    1.418199e+00
  1.880084e+01    1.400419e+00
  1.881671e+01    1.397409e+00
  1.883259e+01    1.404029e+00
  1.884846e+01    1.420602e+00
  1.886434e+01    1.417503e+00
  1.888021e+01    1.349861e+00
  1.889609e+01    1.377448e+00
  1.891196e+01    1.403550e+00
  1.892784e+01    1.393232e+00
  1.894372e+01    1.366404e+00
  1.895959e+01    1.396883e+00
  1.897547e+01    1.390502e+00
  1.899134e+01    1.365313e+00
  1.900722e+01    1.369353e+00
  1.902309e+01    1.365771e+00
  1.903897e+01    1.384717e+00
  1.905484e+01    1.382612e+00
  1.907072e+01    1.358864e+00
  1.908660e+01    1.373167e+00
  1.910247e+01    1.382414e+00
  1.911835e+01    1.340292e+00
  1.913422e+01    1.337943e+00
  1.915010e+01    1.334787e+00
  1.916597e+01    1.376357e+00
  1.918185e+01    1.386832e+00
  1.919773e+01    1.358574e+00
  1.921360e+01    1.356686e+00
  1.922948e+01    1.369985e+00
  1.924535e+01    1.334276e+00
  1.926123e+01    1.329341e+00
  1.927710e+01    1.339668e+00
  1.929298e+01    1.316018e+00
  1.930885e+01    1.309458e+00
  1.932473e+01    1.314326e+00
  1.934061e+01    1.327138e+00
  1.935648e+01    1.330146e+00
  1.937236e+01    1.311265e+00
  1.938823e+01    1.338937e+00
  1.940411e+01    1.336772e+00
  1.941998e+01    1.305015e+00
  1.943586e+01    1.310883e+00
  1.945173e+01    1.322974e+00
  1.946761e+01    1.336355e+00
  1.948349e+01    1.339689e+00
  1.949936e+01    1.313557e+00
  1.951524e+01    1.285972e+00
  1.953111e+01    1.295587e+00
  1.954699e+01    1.336631e+00
  1.956286e+01    1.324534e+00
  1.957874e+01    1.308372e+00
  1.959461e+01    1.286529e+00
  1.961049e+01    1.280617e+00
  1.962637e+01    1.273237e+00
  1.964224e+01    1.296092e+00
  1.965812e+01    1.314051e+00
  1.967399e+01    1.302368e+00
  1.968987e+01    1.321998e+00
  1.970574e+01    1.298462e+00
  1.972162e+01    1.315311e+00
  1.973749e+01    1.303697e+00
  1.975337e+01    1.281284e+00
  1.976925e+01    1.288592e+00
  1.978512e+01    1.292913e+00
  1.980100e+01    1.272675e+00
  1.981687e+01    1.278349e+00
  1.983275e+01    1.304909e+00
  1.984862e+01    1.299386e+00
  1.986450e+01    1.282708e+00
  1.988037e+01    1.270813e+00
  1.989625e+01    1.254422e+00
  1.991213e+01    1.276657e+00
  1.992800e+01    1.268337e+00
  1.994388e+01    1.293186e+00
  1.995975e+01    1.278890e+00
  1.997563e+01    1.274872e+00
  1.999150e+01    1.262058e+00
  2.000738e+01    1.277685e+00
  2.002325e+01    1.271356e+00
  2.003913e+01    1.277463e+00
  2.005501e+01    1.256054e+00
  2.007088e+01    1.265173e+00
  2.008676e+01    1.261912e+00
  2.010263e+01    1.254571e+00
  2.011851e+01    1.239133e+00
  2.013438e+01    1.252651e+00
  2.015026e+01    1.251658e+00
  2.016614e+01    1.244719e+00
  2.018201e+01    1.227227e+00
  2.019789e+01    1.261232e+00
  2.021376e+01    1.234751e+00
  2.022964e+01    1.218352e+00
  2.024551e+01    1.232752e+00
  2.026139e+01    1.257069e+00
  2.027726e+01    1.262257e+00
  2.029314e+01    1.240190e+00
  2.030902e+01    1.237432e+00
  2.032489e+01    1.225371e+00
  2.034077e+01    1.229381e+00
  2.035664e+01    1.229751e+00
  2.037252e+01    1.219856e+00
  2.038839e+01    1.244219e+00
  2.040427e+01    1.254195e+00
  2.042014e+01    1.232764e+00
  2.043602e+01    1.227323e+00
  2.045190e+01    1.207790e+00
  2.046777e+01    1.211263e+00
  2.048365e+01    1.244287e+00
  2.049952e+01    1.255860e+00
  2.051540e+01    1.237094e+00
  2.053127e+01    1.210678e+00
  2.054715e+01    1.224666e+00
  2.056302e+01    1.229114e+00
  2.057890e+01    1.247511e+00
  2.059478e+01    1.220181e+00
  2.061065e+01    1.186448e+00
  2.062653e+01    1.208238e+00
  2.064240e+01    1.228480e+00
  2.065828e+01    1.216543e+00
  2.067415e+01    1.221339e+00
  2.069003e+01    1.214249e+00
  2.070590e+01    1.211314e+00
  2.072178e+01    1.212994e+00
  2.073766e+01    1.209147e+00
  2.075353e+01    1.230925e+00
  2.076941e+01    1.218095e+00
  2.078528e+01    1.203836e+00
  2.080116e+01    1.186304e+00
  2.081703e+01    1.213595e+00
  2.083291e+01    1.237991e+00
  2.084878e+01    1.218333e+00
  2.086466e+01    1.206545e+00
  2.088054e+01    1.217731e+00
  2.089641e+01    1.212502e+00
  2.091229e+01    1.216225e+00
  2.092816e+01    1.207768e+00
  2.094404e+01    1.221950e+00
  2.095991e+01    1.218951e+00
  2.097579e+01    1.210878e+00
  2.099166e+01    1.178463e+00
  2.100754e+01    1.212362e+00
  2.102342e+01    1.228104e+00
  2.103929e+01    1.240882e+00
  2.105517e+01    1.218916e+00
  2.107104e+01    1.203461e+00
  2.108692e+01    1.205292e+00
  2.110279e+01    1.208739e+00
  2.111867e+01    1.246755e+00
  2.113455e+01    1.241725e+00
  2.115042e+01    1.199666e+00
  2.116630e+01    1.214205e+00
  2.118217e+01    1.236537e+00
  2.119805e+01    1.220791e+00
  2.121392e+01    1.243734e+00
  2.122980e+01    1.261717e+00
  2.124567e+01    1.228884e+00
  2.126155e+01    1.228154e+00
  2.127743e+01    1.236847e+00
  2.129330e+01    1.267667e+00
  2.130918e+01    1.268981e+00
  2.132505e+01    1.260173e+00
  2.134093e+01    1.250756e+00
  2.135680e+01    1.265248e+00
  2.137268e+01    1.293648e+00
  2.138855e+01    1.298695e+00
  2.140443e+01    1.269162e+00
  2.142031e+01    1.293954e+00
  2.143618e+01    1.309542e+00
  2.145206e+01    1.340471e+00
  2.146793e+01    1.351661e+00
  2.148381e+01    1.352108e+00
  2.149968e+01    1.402752e+00
  2.151556e+01    1.447248e+00
  2.153143e+01    1.449163e+00
  2.154731e+01    1.486886e+00
  2.156319e+01    1.544605e+00
  2.157906e+01    1.615924e+00
  2.159494e+01    1.676824e+00
  2.161081e+01    1.751867e+00
  2.162669e+01    1.836921e+00
  2.164256e+01    1.915432e+00
  2.165844e+01    2.081963e+00
  2.167431e+01    2.299631e+00
  2.169019e+01    2.484984e+00
  2.170607e+01    2.705092e+00
  2.172194e+01    3.042469e+00
  2.173782e+01    3.469361e+00
  2.175369e+01    3.965332e+00
  2.176957e+01    4.488387e+00
  2.178544e+01    5.087482e+00
  2.180132e+01    5.740554e+00
  2.181719e+01    6.426777e+00
  2.183307e+01    7.026575e+00
  2.184895e+01    7.702425e+00
  2.186482e+01    8.208755e+00
  2.188070e+01    8.574850e+00
  2.189657e+01    8.773451e+00
  2.191245e+01    8.623356e+00
  2.192832e+01    8.111903e+00
  2.194420e+01    7.430583e+00
  2.196007e+01    6.585732e+00
  2.197595e+01    5.642166e+00
  2.199183e+01    4.868423e+00
  2.200770e+01    4.202306e+00
  2.202358e+01    3.621252e+00
  2.203945e+01    3.185340e+00
  2.205533e+01    2.819366e+00
  2.207120e+01    2.538291e+00
  2.208708e+01    2.332206e+00
  2.210296e+01    2.117719e+00
  2.211883e+01    1.981320e+00
  2.213471e+01    1.866282e+00
  2.215058e+01    1.742890e+00
  2.216646e+01    1.675786e+00
  2.218233e+01    1.587283e+00
  2.219821e+01    1.555093e+00
  2.221408e+01    1.491130e+00
  2.222996e+01    1.398878e+00
  2.224584e+01    1.388475e+00
  2.226171e+01    1.353875e+00
  2.227759e+01    1.345073e+00
  2.229346e+01    1.323588e+00
  2.230934e+01    1.271065e+00
  2.232521e+01    1.265616e+00
  2.234109e+01    1.237082e+00
  2.235696e+01    1.224881e+00
  2.237284e+01    1.231914e+00
  2.238872e+01    1.213273e+00
  2.240459e+01    1.186958e+00
  2.242047e+01    1.169282e+00
  2.243634e+01    1.197190e+00
  2.245222e+01    1.167514e+00
  2.246809e+01    1.138526e+00
  2.248397e+01    1.132944e+00
  2.249984e+01    1.132674e+00
  2.251572e+01    1.114483e+00
  2.253160e+01    1.117881e+00
  2.254747e+01    1.126907e+00
  2.256335e+01    1.126458e+00
  2.257922e+01    1.109334e+00
  2.259510e+01    1.107600e+00
  2.261097e+01    1.073318e+00
  2.262685e+01    1.072288e+00
  2.264272e+01    1.076295e+00
  2.265860e+01    1.076854e+00
  2.267448e+01    1.074167e+00
  2.269035e+01    1.072028e+00
  2.270623e+01    1.066708e+00
  2.272210e+01    1.062933e+00
  2.273798e+01    1.060772e+00
  2.275385e+01    1.047029e+00
  2.276973e+01    1.071164e+00
  2.278560e+01    1.071499e+00
  2.280148e+01    1.048988e+00
  2.281736e+01    1.052559e+00
  2.283323e+01    1.047673e+00
  2.284911e+01    1.036891e+00
  2.286498e+01    1.032063e+00
  2.288086e+01    1.052783e+00
  2.289673e+01    1.034421e+00
  2.291261e+01    1.020158e+00
  2.292848e+01    1.041394e+00
  2.294436e+01    1.043495e+00
  2.296024e+01    1.027297e+00
  2.297611e+01    1.018188e+00
  2.299199e+01    1.011481e+00
  2.300786e+01    1.009732e+00
  2.302374e+01    1.022621e+00
  2.303961e+01    1.020061e+00
  2.305549e+01    1.011692e+00
  2.307137e+01    1.012163e+00
  2.308724e+01    1.005324e+00
  2.310312e+01    9.941472e-01
  2.311899e+01    9.903743e-01
  2.313487e+01    9.811027e-01
  2.315074e+01    9.709541e-01
  2.316662e+01    9.986833e-01
  2.318249e+01    9.864304e-01
  2.319837e+01    9.778081e-01
  2.321425e+01    9.613605e-01
  2.323012e+01    9.941130e-01
  2.324600e+01    9.857372e-01
  2.326187e+01    9.974951e-01
  2.327775e+01    9.812723e-01
  2.329362e+01    9.826168e-01
  2.330950e+01    9.525707e-01
  2.332537e+01    9.371723e-01
  2.334125e+01    9.662250e-01
  2.335713e+01    9.754341e-01
  2.337300e+01    9.635916e-01
  2.338888e+01    9.654068e-01
  2.340475e+01    9.705340e-01
  2.342063e+01    9.751835e-01
  2.343650e+01    9.712352e-01
  2.345238e+01    9.473323e-01
  2.346825e+01    9.483054e-01
  2.348413e+01    9.518259e-01
  2.350001e+01    9.332366e-01
  2.351588e+01    9.359543e-01
  2.353176e+01    9.497953e-01
  2.354763e+01    9.464356e-01
  2.356351e+01    9.651448e-01
  2.357938e+01    9.674329e-01
  2.359526e+01    9.536205e-01
  2.361113e+01    9.395744e-01
  2.362701e+01    9.443805e-01
  2.364289e+01    9.403159e-01
  2.365876e+01    9.389629e-01
  2.367464e+01    9.494243e-01
  2.369051e+01    9.421699e-01
  2.370639e+01    9.215887e-01
  2.372226e+01    9.262015e-01
  2.373814e+01    9.313878e-01
  2.375401e+01    9.181368e-01
  2.376989e+01    9.192314e-01
  2.378577e+01    9.375803e-01
  2.380164e+01    9.221319e-01
  2.381752e+01    9.074183e-01
  2.383339e+01    9.086329e-01
  2.384927e+01    9.050888e-01
  2.386514e+01    9.126315e-01
  2.388102e+01    8.992575e-01
  2.389689e+01    8.819120e-01
  2.391277e+01    8.709488e-01
  2.392865e+01    8.717831e-01
  2.394452e+01    8.920707e-01
  2.396040e+01    9.030421e-01
  2.397627e+01    9.119137e-01
  2.399215e+01    8.832520e-01
  2.400802e+01    8.921953e-01
  2.402390e+01    8.892580e-01
  2.403978e+01    8.892766e-01
  2.405565e+01    8.950908e-01
  2.407153e+01    8.866833e-01
  2.408740e+01    8.599101e-01
  2.410328e+01    8.628917e-01
  2.411915e+01    8.896391e-01
  2.413503e+01    8.879499e-01
  2.415090e+01    8.793025e-01
  2.416678e+01    8.867894e-01
  2.418266e+01    8.973277e-01
  2.419853e+01    8.992018e-01
  2.421441e+01    8.901848e-01
  2.423028e+01    8.718689e-01
  2.424616e+01    8.782377e-01
  2.426203e+01    8.905143e-01
  2.427791e+01    9.133831e-01
  2.429378e+01    8.981625e-01
  2.430966e+01    9.020577e-01
  2.432554e+01    8.952752e-01
  2.434141e+01    8.970445e-01
  2.435729e+01    8.589826e-01
  2.437316e+01    8.817506e-01
  2.438904e+01    8.780322e-01
  2.440491e+01    8.714768e-01
  2.442079e+01    8.687727e-01
  2.443666e+01    8.784800e-01
  2.445254e+01    8.814837e-01
  2.446842e+01    8.718751e-01
  2.448429e+01    9.004472e-01
  2.450017e+01    8.804039e-01
  2.451604e+01    8.827887e-01
  2.453192e+01    8.825142e-01
  2.454779e+01    8.972051e-01
  2.456367e+01    8.869484e-01
  2.457954e+01    8.690293e-01
  2.459542e+01    8.513639e-01
  2.461130e+01    8.605189e-01
  2.462717e+01    8.607394e-01
  2.464305e+01    8.598056e-01
  2.465892e+01    8.892490e-01
  2.467480e+01    8.756054e-01
  2.469067e+01    8.677191e-01
  2.470655e+01    8.853450e-01
  2.472242e+01    9.011084e-01
  2.473830e+01    9.007633e-01
  2.475418e+01    8.905689e-01
  2.477005e+01    8.712581e-01
  2.478593e+01    8.661574e-01
  2.480180e+01    8.827412e-01
  2.481768e+01    8.784820e-01
  2.483355e+01    8.747035e-01
  2.484943e+01    8.772014e-01
  2.486530e+01    8.587115e-01
  2.488118e+01    8.879740e-01
  2.489706e+01    9.114329e-01
  2.491293e+01    8.967876e-01
  2.492881e+01    8.788311e-01
  2.494468e+01    8.768619e-01
  2.496056e+01    8.808872e-01
  2.497643e+01    8.807243e-01
  2.499231e+01    8.996934e-01
  2.500819e+01    9.009186e-01
  2.502406e+01    8.740053e-01
  2.503994e+01    8.878296e-01
  2.505581e+01    8.879128e-01
  2.507169e+01    8.851869e-01
  2.508756e+01    8.894208e-01
  2.510344e+01    9.048826e-01
  2.511931e+01    9.093946e-01
  2.513519e+01    9.138417e-01
  2.515107e+01    8.993567e-01
  2.516694e+01    9.111950e-01
  2.518282e+01    9.090052e-01
  2.519869e+01    9.227130e-01
  2.521457e+01    9.351441e-01
  2.523044e+01    9.257919e-01
  2.524632e+01    9.456206e-01
  2.526219e+01    9.498370e-01
  2.527807e+01    9.470123e-01
  2.529395e+01    9.397130e-01
  2.530982e+01    9.266924e-01
  2.532570e+01    9.402104e-01
  2.534157e+01    9.591233e-01
  2.535745e+01    9.748264e-01
  2.537332e+01    9.714237e-01
  2.538920e+01    9.744672e-01
  2.540507e+01    9.627673e-01
  2.542095e+01    9.966520e-01
  2.543683e+01    1.019799e+00
  2.545270e+01    1.007390e+00
  2.546858e+01    1.039984e+00
  2.548445e+01    1.038181e+00
  2.550033e+01    1.063727e+00
  2.551620e+01    1.055965e+00
  2.553208e+01    1.071008e+00
  2.554795e+01    1.096378e+00
  2.556383e+01    1.122719e+00
  2.557971e+01    1.148864e+00
  2.559558e+01    1.170617e+00
  2.561146e+01    1.188679e+00
  2.562733e+01    1.242601e+00
  2.564321e+01    1.289637e+00
  2.565908e+01    1.329247e+00
  2.567496e+01    1.374622e+00
  2.569083e+01    1.482674e+00
  2.570671e+01    1.577305e+00
  2.572259e+01    1.680892e+00
  2.573846e+01    1.826577e+00
  2.575434e+01    1.987171e+00
  2.577021e+01    2.146027e+00
  2.578609e+01    2.442270e+00
  2.580196e+01    2.743041e+00
  2.581784e+01    3.132383e+00
  2.583371e+01    3.572006e+00
  2.584959e+01    4.048380e+00
  2.586547e+01    4.607139e+00
  2.588134e+01    5.140330e+00
  2.589722e+01    5.705232e+00
  2.591309e+01    6.247465e+00
  2.592897e+01    6.709378e+00
  2.594484e+01    6.995374e+00
  2.596072e+01    7.107424e+00
  2.597660e+01    6.971827e+00
  2.599247e+01    6.507788e+00
  2.600835e+01    5.981314e+00
  2.602422e+01    5.282012e+00
  2.604010e+01    4.582796e+00
  2.605597e+01    3.963896e+00
  2.607185e+01    3.396588e+00
  2.608772e+01    3.017937e+00
  2.610360e+01    2.643550e+00
  2.611948e+01    2.332103e+00
  2.613535e+01    2.128650e+00
  2.615123e+01    1.951012e+00
  2.616710e+01    1.765353e+00
  2.618298e+01    1.657818e+00
  2.619885e+01    1.552248e+00
  2.621473e+01    1.458185e+00
  2.623060e+01    1.408015e+00
  2.624648e+01    1.358989e+00
  2.626236e+01    1.284977e+00
  2.627823e+01    1.237773e+00
  2.629411e+01    1.220720e+00
  2.630998e+01    1.185045e+00
  2.632586e+01    1.144260e+00
  2.634173e+01    1.109975e+00
  2.635761e+01    1.114439e+00
  2.637348e+01    1.097208e+00
  2.638936e+01    1.075120e+00
  2.640524e+01    1.066492e+00
  2.642111e+01    1.033625e+00
  2.643699e+01    1.039442e+00
  2.645286e+01    1.019561e+00
  2.646874e+01    1.004710e+00
  2.648461e+01    1.001300e+00
  2.650049e+01    9.889567e-01
  2.651636e+01    9.810950e-01
  2.653224e+01    9.823223e-01
  2.654812e+01    1.000636e+00
  2.656399e+01    9.796160e-01
  2.657987e+01    9.695222e-01
  2.659574e+01    9.866849e-01
  2.661162e+01    9.577385e-01
  2.662749e+01    9.800385e-01
  2.664337e+01    9.758462e-01
  2.665924e+01    9.533181e-01
  2.667512e+01    9.840006e-01
  2.669100e+01    9.707359e-01
  2.670687e+01    9.761679e-01
  2.672275e+01    9.582747e-01
  2.673862e+01    9.497473e-01
  2.675450e+01    9.542386e-01
  2.677037e+01    9.578279e-01
  2.678625e+01    9.718849e-01
  2.680212e+01    9.670486e-01
  2.681800e+01    9.854427e-01
  2.683388e+01    1.003380e+00
  2.684975e+01    9.936569e-01
  2.686563e+01    9.758192e-01
  2.688150e+01    1.006547e+00
  2.689738e+01    9.954579e-01
  2.691325e+01    1.014923e+00
  2.692913e+01    1.012602e+00
  2.694501e+01    1.007727e+00
  2.696088e+01    1.015238e+00
  2.697676e+01    1.041064e+00
  2.699263e+01    1.067279e+00
  2.700851e+01    1.104508e+00
  2.702438e+01    1.115765e+00
  2.704026e+01    1.148253e+00
  2.705613e+01    1.215427e+00
  2.707201e+01    1.284539e+00
  2.708789e+01    1.379095e+00
  2.710376e+01    1.472142e+00
  2.711964e+01    1.598642e+00
  2.713551e+01    1.682155e+00
  2.715139e+01    1.795753e+00
  2.716726e+01    1.935019e+00
  2.718314e+01    2.065803e+00
  2.719901e+01    2.146562e+00
  2.721489e+01    2.159953e+00
  2.723077e+01    2.115764e+00
  2.724664e+01    2.025252e+00
  2.726252e+01    1.980287e+00
  2.727839e+01    1.834685e+00
  2.729427e+01    1.700260e+00
  2.731014e+01    1.570420e+00
  2.732602e+01    1.440785e+00
  2.734189e+01    1.350238e+00
  2.735777e+01    1.298767e+00
  2.737365e+01    1.200429e+00
  2.738952e+01    1.147768e+00
  2.740540e+01    1.111795e+00
  2.742127e+01    1.077301e+00
  2.743715e+01    1.061821e+00
  2.745302e+01    1.013526e+00
  2.746890e+01    1.022506e+00
  2.748477e+01    9.927745e-01
  2.750065e+01    9.910002e-01
  2.751653e+01    9.628071e-01
  2.753240e+01    9.411920e-01
  2.754828e+01    9.390197e-01
  2.756415e+01    9.382611e-01
  2.758003e+01    9.202454e-01
  2.759590e+01    9.239409e-01
  2.761178e+01    9.221889e-01
  2.762765e+01    9.259875e-01
  2.764353e+01    8.987803e-01
  2.765941e+01    8.755521e-01
  2.767528e+01    8.883068e-01
  2.769116e+01    9.137461e-01
  2.770703e+01    8.993540e-01
  2.772291e+01    8.905023e-01
  2.773878e+01    8.834617e-01
  2.775466e+01    8.754009e-01
  2.777054e+01    8.897529e-01
  2.778641e+01    9.014122e-01
  2.780229e+01    8.768677e-01
  2.781816e+01    8.780121e-01
  2.783404e+01    8.686275e-01
  2.784991e+01    8.694023e-01
  2.786579e+01    8.755113e-01
  2.788166e+01    8.735217e-01
  2.789754e+01    8.556762e-01
  2.791342e+01    8.486191e-01
  2.792929e+01    8.421928e-01
  2.794517e+01    8.546938e-01
  2.796104e+01    8.654354e-01
  2.797692e+01    8.431009e-01
  2.799279e+01    8.750257e-01
  2.800867e+01    8.379804e-01
  2.802454e+01    8.527253e-01
  2.804042e+01    8.581426e-01
  2.805630e+01    8.538182e-01
  2.807217e+01    8.531937e-01
  2.808805e+01    8.633917e-01
  2.810392e+01    8.603560e-01
  2.811980e+01    8.742063e-01
  2.813567e+01    8.685979e-01
  2.815155e+01    8.528534e-01
  2.816742e+01    8.328658e-01
  2.818330e+01    8.313848e-01
  2.819918e+01    8.341519e-01
  2.821505e+01    8.370160e-01
  2.823093e+01    8.464490e-01
  2.824680e+01    8.498995e-01
  2.826268e+01    8.436164e-01
  2.827855e+01    8.364873e-01
  2.829443e+01    8.500426e-01
  2.831030e+01    8.455904e-01
  2.832618e+01    8.412146e-01
  2.834206e+01    8.461620e-01
  2.835793e+01    8.341974e-01
  2.837381e+01    8.444449e-01
  2.838968e+01    8.355375e-01
  2.840556e+01    8.235781e-01
  2.842143e+01    8.327371e-01
  2.843731e+01    8.357111e-01
  2.845318e+01    8.249374e-01
  2.846906e+01    8.051259e-01
  2.848494e+01    8.232705e-01
  2.850081e+01    8.234034e-01
  2.851669e+01    8.244544e-01
  2.853256e+01    8.096783e-01
  2.854844e+01    8.287684e-01
  2.856431e+01    8.258377e-01
  2.858019e+01    8.363131e-01
  2.859606e+01    8.355926e-01
  2.861194e+01    8.363419e-01
  2.862782e+01    8.324167e-01
  2.864369e+01    8.172461e-01
  2.865957e+01    8.258154e-01
  2.867544e+01    8.271587e-01
  2.869132e+01    8.225704e-01
  2.870719e+01    8.222854e-01
  2.872307e+01    8.233819e-01
  2.873895e+01    8.060914e-01
  2.875482e+01    7.930600e-01
  2.877070e+01    8.048177e-01
  2.878657e+01    8.264239e-01
  2.880245e+01    7.986754e-01
  2.881832e+01    8.081807e-01
  2.883420e+01    8.026537e-01
  2.885007e+01    8.081235e-01
  2.886595e+01    8.123729e-01
  2.888183e+01    8.017452e-01
  2.889770e+01    8.107738e-01
  2.891358e+01    8.081750e-01
  2.892945e+01    8.156345e-01
  2.894533e+01    8.173484e-01
  2.896120e+01    8.217701e-01
  2.897708e+01    8.192241e-01
  2.899295e+01    8.261032e-01
  2.900883e+01    8.130477e-01
  2.902471e+01    7.927134e-01
  2.904058e+01    7.946671e-01
  2.905646e+01    8.085430e-01
  2.907233e+01    8.082956e-01
  2.908821e+01    8.055484e-01
  2.910408e+01    7.942688e-01
  2.911996e+01    7.667078e-01
  2.913583e+01    8.146555e-01
  2.915171e+01    8.178486e-01
  2.916759e+01    8.028843e-01
  2.918346e+01    8.063725e-01
  2.919934e+01    7.967507e-01
  2.921521e+01    8.012180e-01
  2.923109e+01    7.991446e-01
  2.924696e+01    7.727872e-01
  2.926284e+01    7.894783e-01
  2.927871e+01    8.153704e-01
  2.929459e+01    8.122715e-01
  2.931047e+01    8.173614e-01
  2.932634e+01    8.127051e-01
  2.934222e+01    7.969479e-01
  2.935809e+01    8.105296e-01
  2.937397e+01    8.114467e-01
  2.938984e+01    8.023375e-01
  2.940572e+01    7.785241e-01
  2.942159e+01    7.589738e-01
  2.943747e+01    7.858564e-01
  2.945335e+01    8.097729e-01
  2.946922e+01    7.904328e-01
  2.948510e+01    8.071486e-01
  2.950097e+01    8.018858e-01
  2.951685e+01    7.819639e-01
  2.953272e+01    7.888504e-01
  2.954860e+01    7.904601e-01
  2.956447e+01    7.840738e-01
  2.958035e+01    7.950450e-01
  2.959623e+01    7.947199e-01
  2.961210e+01    7.935280e-01
  2.962798e+01    8.233747e-01
  2.964385e+01    7.898907e-01
  2.965973e+01    7.739867e-01
  2.967560e+01    7.653684e-01
  2.969148e+01    7.647122e-01
  2.970736e+01    8.004295e-01
  2.972323e+01    7.912292e-01
  2.973911e+01    7.859523e-01
  2.975498e+01    7.787457e-01
  2.977086e+01    7.834488e-01
  2.978673e+01    7.780240e-01
  2.980261e+01    7.767316e-01
  2.981848e+01    7.777402e-01
  2.983436e+01    7.804806e-01
  2.985024e+01    7.752262e-01
  2.986611e+01    7.853408e-01
  2.988199e+01    7.968821e-01
  2.989786e+01    7.844520e-01
  2.991374e+01    7.862133e-01
  2.992961e+01    7.986603e-01
  2.994549e+01    8.104736e-01
  2.996136e+01    7.870015e-01
  2.997724e+01    7.885380e-01
  2.999312e+01    8.041562e-01
  3.000899e+01    7.870095e-01
  3.002487e+01    7.858323e-01
  3.004074e+01    8.042106e-01
  3.005662e+01    8.163871e-01
  3.007249e+01    8.251488e-01
  3.008837e+01    8.337213e-01
  3.010424e+01    7.992852e-01
  3.012012e+01    7.856570e-01
  3.013600e+01    7.936950e-01
  3.015187e+01    7.840468e-01
  3.016775e+01    7.812029e-01
  3.018362e+01    7.596300e-01
  3.019950e+01    7.698897e-01
  3.021537e+01    8.065555e-01
  3.023125e+01    7.660253e-01
  3.024712e+01    7.339254e-01
  3.026300e+01    7.630520e-01
  3.027888e+01    7.794855e-01
  3.029475e+01    7.676548e-01
  3.031063e+01    7.723023e-01
  3.032650e+01    7.664409e-01
  3.034238e+01    7.653049e-01
  3.035825e+01    7.817389e-01
  3.037413e+01    8.026257e-01
  3.039000e+01    7.851239e-01
  3.040588e+01    7.738554e-01
  3.042176e+01    7.899246e-01
  3.043763e+01    7.986915e-01
  3.045351e+01    7.637622e-01
  3.046938e+01    7.756999e-01
  3.048526e+01    7.828341e-01
  3.050113e+01    7.718598e-01
  3.051701e+01    7.790014e-01
  3.053288e+01    7.845170e-01
  3.054876e+01    7.920721e-01
  3.056464e+01    7.819409e-01
  3.058051e+01    7.907655e-01
  3.059639e+01    7.740384e-01
  3.061226e+01    7.805912e-01
  3.062814e+01    7.865950e-01
  3.064401e+01    7.814437e-01
  3.065989e+01    7.893523e-01
  3.067577e+01    7.917387e-01
  3.069164e+01    7.719293e-01
  3.070752e+01    7.591791e-01
  3.072339e+01    7.703841e-01
  3.073927e+01    7.731463e-01
  3.075514e+01    7.921670e-01
  3.077102e+01    7.703251e-01
  3.078689e+01    7.561545e-01
  3.080277e+01    7.651789e-01
  3.081865e+01    7.751307e-01
  3.083452e+01    8.015613e-01
  3.085040e+01    7.886500e-01
  3.086627e+01    7.681431e-01
  3.088215e+01    7.674035e-01
  3.089802e+01    7.799523e-01
  3.091390e+01    7.573331e-01
  3.092977e+01    7.756297e-01
  3.094565e+01    7.726349e-01
  3.096153e+01    7.768459e-01
  3.097740e+01    7.697757e-01
  3.099328e+01    7.773184e-01
  3.100915e+01    7.668361e-01
  3.102503e+01    7.801340e-01
  3.104090e+01    7.915946e-01
  3.105678e+01    7.905113e-01
  3.107265e+01    7.914696e-01
  3.108853e+01    7.691386e-01
  3.110441e+01    7.856688e-01
  3.112028e+01    7.818751e-01
  3.113616e+01    7.696342e-01
  3.115203e+01    7.843673e-01
  3.116791e+01    7.825986e-01
  3.118378e+01    8.045731e-01
  3.119966e+01    7.795036e-01
  3.121553e+01    7.719717e-01
  3.123141e+01    7.936178e-01
  3.124729e+01    8.109950e-01
  3.126316e+01    7.977589e-01
  3.127904e+01    8.082269e-01
  3.129491e+01    7.940502e-01
  3.131079e+01    7.793937e-01
  3.132666e+01    7.679969e-01
  3.134254e+01    7.793330e-01
  3.135841e+01    8.113823e-01
  3.137429e+01    8.225608e-01
  3.139017e+01    8.013638e-01
  3.140604e+01    8.009787e-01
  3.142192e+01    8.195930e-01
  3.143779e+01    8.038219e-01
  3.145367e+01    7.937149e-01
  3.146954e+01    8.169489e-01
  3.148542e+01    8.400517e-01
  3.150129e+01    8.633717e-01
  3.151717e+01    8.525560e-01
  3.153305e+01    8.333219e-01
  3.154892e+01    8.243377e-01
  3.156480e+01    8.546674e-01
  3.158067e+01    8.631402e-01
  3.159655e+01    8.696894e-01
  3.161242e+01    8.586745e-01
  3.162830e+01    8.957907e-01
  3.164418e+01    9.002264e-01
  3.166005e+01    9.277526e-01
  3.167593e+01    9.315632e-01
  3.169180e+01    9.384426e-01
  3.170768e+01    9.924671e-01
  3.172355e+01    1.043795e+00
  3.173943e+01    1.104588e+00
  3.175530e+01    1.153633e+00
  3.177118e+01    1.237411e+00
  3.178706e+01    1.321492e+00
  3.180293e+01    1.441839e+00
  3.181881e+01    1.549249e+00
  3.183468e+01    1.665600e+00
  3.185056e+01    1.786381e+00
  3.186643e+01    1.931972e+00
  3.188231e+01    2.024900e+00
  3.189818e+01    2.093160e+00
  3.191406e+01    2.056457e+00
  3.192994e+01    1.988753e+00
  3.194581e+01    1.941794e+00
  3.196169e+01    1.817422e+00
  3.197756e+01    1.683318e+00
  3.199344e+01    1.549657e+00
  3.200931e+01    1.413938e+00
  3.202519e+01    1.306020e+00
  3.204106e+01    1.218399e+00
  3.205694e+01    1.164039e+00
  3.207282e+01    1.087769e+00
  3.208869e+01    1.062553e+00
  3.210457e+01    9.990329e-01
  3.212044e+01    9.660674e-01
  3.213632e+01    9.495519e-01
  3.215219e+01    9.001780e-01
  3.216807e+01    8.877496e-01
  3.218394e+01    8.700898e-01
  3.219982e+01    8.627540e-01
  3.221570e+01    8.482741e-01
  3.223157e+01    8.289087e-01
  3.224745e+01    8.044475e-01
  3.226332e+01    8.061157e-01
  3.227920e+01    8.104333e-01
  3.229507e+01    8.229210e-01
  3.231095e+01    8.024685e-01
  3.232682e+01    7.728065e-01
  3.234270e+01    7.866926e-01
  3.235858e+01    7.934636e-01
  3.237445e+01    7.932648e-01
  3.239033e+01    7.949205e-01
  3.240620e+01    7.682175e-01
  3.242208e+01    7.695743e-01
  3.243795e+01    7.713122e-01
  3.245383e+01    7.902521e-01
  3.246970e+01    7.705107e-01
  3.248558e+01    7.725673e-01
  3.250146e+01    7.690348e-01
  3.251733e+01    7.765294e-01
  3.253321e+01    7.723764e-01
  3.254908e+01    7.568026e-01
