# == pyFAI calibration ==
# Distance Sample to Detector: 0.3999999939076516 m
# PONI: 9.750e-02, 1.135e-01 m
# Rotations: -0.000175 0.000000 -0.000000 rad
# 
# == Fit2d calibration ==
# Distance Sample-beamCenter: 400.000 mm
# Center: x=1514.000, y=1300.000 pix
# Tilt: 0.010 deg  TiltPlanRot: 0.010 deg
# 
# Detector Detector	 Spline= None	 PixelSize= 7.500e-05, 7.500e-05 m
#    Detector has a mask: False 
#    Detector has a dark current: False 
#    detector has a flat field: False 
# 
# Wavelength: 6.888e-11 m
# Mask applied: user provided
# Dark current applied: False
# Flat field applied: False
# Polarization factor: 0.99
# Normalization factor: 1.0
# --> /home/myspot/data/2024_07_Rosario/Ru-CGO-ex/2024-07-27_003_Ru-CGO-ex_Reaction_dwell_000023_data_000107.dat
#       q_nm^-1             I 
  2.003187e-02    0.000000e+00
  3.590745e-02    0.000000e+00
  5.178302e-02    0.000000e+00
  6.765859e-02    8.484297e-02
  8.353417e-02    2.284011e-01
  9.940974e-02    2.089141e-01
  1.152853e-01    9.254890e-02
  1.311609e-01    6.558888e-02
  1.470365e-01    9.037384e-02
  1.629120e-01    3.457466e-02
  1.787876e-01    6.275775e-02
  1.946632e-01    1.341541e-01
  2.105388e-01    1.308084e-01
  2.264143e-01    6.857802e-02
  2.422899e-01    5.632868e-02
  2.581655e-01    4.685522e-02
  2.740411e-01    5.166668e-02
  2.899166e-01    8.129678e-02
  3.057922e-01    5.268404e-02
  3.216678e-01    3.865634e-02
  3.375433e-01    7.351380e-02
  3.534189e-01    6.465475e-02
  3.692945e-01    5.214862e-02
  3.851701e-01    6.453408e-02
  4.010456e-01    3.687262e-02
  4.169212e-01    2.215956e-02
  4.327968e-01    6.663619e-02
  4.486724e-01    6.228241e-02
  4.645479e-01    3.674290e-02
  4.804235e-01    5.331056e-02
  4.962991e-01    3.769340e-02
  5.121747e-01    2.266062e-02
  5.280502e-01    3.282274e-02
  5.439258e-01    4.196727e-02
  5.598014e-01    5.739176e-02
  5.756770e-01    4.992833e-02
  5.915525e-01    6.666946e-02
  6.074281e-01    5.690627e-02
  6.233037e-01    5.793632e-02
  6.391793e-01    6.638312e-02
  6.550548e-01    4.807414e-02
  6.709304e-01    5.040860e-02
  6.868060e-01    6.341021e-02
  7.026815e-01    5.068335e-02
  7.185571e-01    6.201689e-02
  7.344327e-01    6.779554e-02
  7.503083e-01    3.394798e-02
  7.661838e-01    6.432795e-02
  7.820594e-01    1.017290e-01
  7.979350e-01    1.423828e-01
  8.138106e-01    2.208693e-01
  8.296861e-01    2.537282e-01
  8.455617e-01    2.690791e-01
  8.614373e-01    3.973620e-01
  8.773129e-01    5.274014e-01
  8.931884e-01    5.606620e-01
  9.090640e-01    6.511860e-01
  9.249396e-01    6.626526e-01
  9.408152e-01    7.080927e-01
  9.566907e-01    8.979836e-01
  9.725663e-01    9.834761e-01
  9.884419e-01    1.069633e+00
  1.004317e+00    1.213183e+00
  1.020193e+00    1.320271e+00
  1.036069e+00    1.416136e+00
  1.051944e+00    1.444797e+00
  1.067820e+00    1.429513e+00
  1.083695e+00    1.498485e+00
  1.099571e+00    1.511289e+00
  1.115446e+00    1.564664e+00
  1.131322e+00    1.727114e+00
  1.147198e+00    1.672310e+00
  1.163073e+00    1.615476e+00
  1.178949e+00    1.781046e+00
  1.194824e+00    1.867335e+00
  1.210700e+00    2.147472e+00
  1.226575e+00    2.173360e+00
  1.242451e+00    2.329651e+00
  1.258327e+00    2.548627e+00
  1.274202e+00    2.680193e+00
  1.290078e+00    2.693011e+00
  1.305953e+00    2.601674e+00
  1.321829e+00    2.677096e+00
  1.337705e+00    2.697359e+00
  1.353580e+00    2.857138e+00
  1.369456e+00    2.789794e+00
  1.385331e+00    2.820053e+00
  1.401207e+00    2.953327e+00
  1.417082e+00    2.991161e+00
  1.432958e+00    2.907350e+00
  1.448834e+00    3.021395e+00
  1.464709e+00    3.058881e+00
  1.480585e+00    3.067147e+00
  1.496460e+00    3.183835e+00
  1.512336e+00    3.206986e+00
  1.528211e+00    3.222343e+00
  1.544087e+00    3.316866e+00
  1.559963e+00    3.174704e+00
  1.575838e+00    3.115085e+00
  1.591714e+00    3.109616e+00
  1.607589e+00    2.992599e+00
  1.623465e+00    3.275209e+00
  1.639340e+00    3.212535e+00
  1.655216e+00    3.141882e+00
  1.671092e+00    3.103409e+00
  1.686967e+00    3.114175e+00
  1.702843e+00    3.006156e+00
  1.718718e+00    3.118292e+00
  1.734594e+00    3.132653e+00
  1.750469e+00    3.136280e+00
  1.766345e+00    3.250686e+00
  1.782221e+00    3.254698e+00
  1.798096e+00    3.258877e+00
  1.813972e+00    3.196728e+00
  1.829847e+00    3.089899e+00
  1.845723e+00    3.170348e+00
  1.861598e+00    3.288533e+00
  1.877474e+00    3.146209e+00
  1.893350e+00    3.060965e+00
  1.909225e+00    3.126091e+00
  1.925101e+00    3.028418e+00
  1.940976e+00    3.057840e+00
  1.956852e+00    3.048407e+00
  1.972727e+00    3.068083e+00
  1.988603e+00    3.066725e+00
  2.004479e+00    3.042107e+00
  2.020354e+00    3.003395e+00
  2.036230e+00    2.974677e+00
  2.052105e+00    3.126467e+00
  2.067981e+00    3.157280e+00
  2.083856e+00    3.097028e+00
  2.099732e+00    3.012296e+00
  2.115608e+00    3.096323e+00
  2.131483e+00    3.025966e+00
  2.147359e+00    3.109012e+00
  2.163234e+00    3.165506e+00
  2.179110e+00    2.993194e+00
  2.194985e+00    3.056895e+00
  2.210861e+00    3.116617e+00
  2.226737e+00    3.164350e+00
  2.242612e+00    3.240830e+00
  2.258488e+00    3.124128e+00
  2.274363e+00    2.944936e+00
  2.290239e+00    3.064076e+00
  2.306115e+00    3.043842e+00
  2.321990e+00    3.182756e+00
  2.337866e+00    3.065793e+00
  2.353741e+00    3.098132e+00
  2.369617e+00    3.034534e+00
  2.385492e+00    2.982487e+00
  2.401368e+00    3.055870e+00
  2.417244e+00    3.167067e+00
  2.433119e+00    3.220413e+00
  2.448995e+00    3.163069e+00
  2.464870e+00    3.132624e+00
  2.480746e+00    3.205608e+00
  2.496621e+00    3.333055e+00
  2.512497e+00    3.357301e+00
  2.528373e+00    3.346934e+00
  2.544248e+00    3.325535e+00
  2.560124e+00    3.260421e+00
  2.575999e+00    3.164846e+00
  2.591875e+00    3.292387e+00
  2.607750e+00    3.206117e+00
  2.623626e+00    3.100518e+00
  2.639502e+00    3.169093e+00
  2.655377e+00    3.200227e+00
  2.671253e+00    3.221271e+00
  2.687128e+00    3.246794e+00
  2.703004e+00    3.337341e+00
  2.718879e+00    3.362178e+00
  2.734755e+00    3.381180e+00
  2.750631e+00    3.391647e+00
  2.766506e+00    3.343205e+00
  2.782382e+00    3.245365e+00
  2.798257e+00    3.367371e+00
  2.814133e+00    3.399594e+00
  2.830008e+00    3.363962e+00
  2.845884e+00    3.408897e+00
  2.861760e+00    3.440130e+00
  2.877635e+00    3.247095e+00
  2.893511e+00    3.323309e+00
  2.909386e+00    3.265310e+00
  2.925262e+00    3.230828e+00
  2.941137e+00    3.341059e+00
  2.957013e+00    3.462643e+00
  2.972889e+00    3.385844e+00
  2.988764e+00    3.389855e+00
  3.004640e+00    3.379353e+00
  3.020515e+00    3.365352e+00
  3.036391e+00    3.320394e+00
  3.052266e+00    3.351162e+00
  3.068142e+00    3.407582e+00
  3.084018e+00    3.387348e+00
  3.099893e+00    3.430408e+00
  3.115769e+00    3.426645e+00
  3.131644e+00    3.430966e+00
  3.147520e+00    3.391358e+00
  3.163395e+00    3.320037e+00
  3.179271e+00    3.392306e+00
  3.195147e+00    3.449787e+00
  3.211022e+00    3.352743e+00
  3.226898e+00    3.447124e+00
  3.242773e+00    3.425488e+00
  3.258649e+00    3.368521e+00
  3.274525e+00    3.312815e+00
  3.290400e+00    3.403290e+00
  3.306276e+00    3.469017e+00
  3.322151e+00    3.398618e+00
  3.338027e+00    3.424156e+00
  3.353902e+00    3.450882e+00
  3.369778e+00    3.438891e+00
  3.385654e+00    3.542983e+00
  3.401529e+00    3.471595e+00
  3.417405e+00    3.474408e+00
  3.433280e+00    3.431697e+00
  3.449156e+00    3.445416e+00
  3.465031e+00    3.364399e+00
  3.480907e+00    3.481568e+00
  3.496783e+00    3.523671e+00
  3.512658e+00    3.424791e+00
  3.528534e+00    3.532442e+00
  3.544409e+00    3.546805e+00
  3.560285e+00    3.533239e+00
  3.576160e+00    3.515728e+00
  3.592036e+00    3.495312e+00
  3.607912e+00    3.419836e+00
  3.623787e+00    3.520286e+00
  3.639663e+00    3.493901e+00
  3.655538e+00    3.512123e+00
  3.671414e+00    3.564572e+00
  3.687289e+00    3.454550e+00
  3.703165e+00    3.416121e+00
  3.719041e+00    3.381688e+00
  3.734916e+00    3.413715e+00
  3.750792e+00    3.474088e+00
  3.766667e+00    3.518119e+00
  3.782543e+00    3.612355e+00
  3.798418e+00    3.485386e+00
  3.814294e+00    3.532213e+00
  3.830170e+00    3.560358e+00
  3.846045e+00    3.536914e+00
  3.861921e+00    3.518971e+00
  3.877796e+00    3.536519e+00
  3.893672e+00    3.579093e+00
  3.909547e+00    3.592655e+00
  3.925423e+00    3.583422e+00
  3.941299e+00    3.613525e+00
  3.957174e+00    3.517882e+00
  3.973050e+00    3.514972e+00
  3.988925e+00    3.508101e+00
  4.004801e+00    3.479414e+00
  4.020676e+00    3.532333e+00
  4.036552e+00    3.622172e+00
  4.052428e+00    3.604336e+00
  4.068303e+00    3.579172e+00
  4.084179e+00    3.579790e+00
  4.100054e+00    3.548755e+00
  4.115930e+00    3.537813e+00
  4.131806e+00    3.607069e+00
  4.147681e+00    3.500460e+00
  4.163557e+00    3.550216e+00
  4.179432e+00    3.681443e+00
  4.195308e+00    3.576798e+00
  4.211183e+00    3.565184e+00
  4.227059e+00    3.572443e+00
  4.242935e+00    3.552671e+00
  4.258810e+00    3.578687e+00
  4.274686e+00    3.537645e+00
  4.290561e+00    3.481066e+00
  4.306437e+00    3.547011e+00
  4.322312e+00    3.675994e+00
  4.338188e+00    3.562479e+00
  4.354064e+00    3.506055e+00
  4.369939e+00    3.564552e+00
  4.385815e+00    3.612250e+00
  4.401690e+00    3.628307e+00
  4.417566e+00    3.646971e+00
  4.433441e+00    3.660319e+00
  4.449317e+00    3.560309e+00
  4.465193e+00    3.654996e+00
  4.481068e+00    3.715865e+00
  4.496944e+00    3.609014e+00
  4.512819e+00    3.580886e+00
  4.528695e+00    3.599553e+00
  4.544570e+00    3.581237e+00
  4.560446e+00    3.606467e+00
  4.576322e+00    3.515893e+00
  4.592197e+00    3.620302e+00
  4.608073e+00    3.626960e+00
  4.623948e+00    3.666528e+00
  4.639824e+00    3.721135e+00
  4.655699e+00    3.613094e+00
  4.671575e+00    3.595574e+00
  4.687451e+00    3.612938e+00
  4.703326e+00    3.696687e+00
  4.719202e+00    3.622469e+00
  4.735077e+00    3.669510e+00
  4.750953e+00    3.682008e+00
  4.766828e+00    3.746618e+00
  4.782704e+00    3.717852e+00
  4.798580e+00    3.563061e+00
  4.814455e+00    3.586419e+00
  4.830331e+00    3.619951e+00
  4.846206e+00    3.641995e+00
  4.862082e+00    3.566303e+00
  4.877957e+00    3.636704e+00
  4.893833e+00    3.686692e+00
  4.909709e+00    3.724458e+00
  4.925584e+00    3.726002e+00
  4.941460e+00    3.671418e+00
  4.957335e+00    3.688165e+00
  4.973211e+00    3.646973e+00
  4.989086e+00    3.667864e+00
  5.004962e+00    3.681773e+00
  5.020838e+00    3.661625e+00
  5.036713e+00    3.654604e+00
  5.052589e+00    3.714911e+00
  5.068464e+00    3.734325e+00
  5.084340e+00    3.707958e+00
  5.100216e+00    3.713869e+00
  5.116091e+00    3.713326e+00
  5.131967e+00    3.722087e+00
  5.147842e+00    3.685724e+00
  5.163718e+00    3.723276e+00
  5.179593e+00    3.699626e+00
  5.195469e+00    3.681197e+00
  5.211345e+00    3.641992e+00
  5.227220e+00    3.665205e+00
  5.243096e+00    3.643575e+00
  5.258971e+00    3.662681e+00
  5.274847e+00    3.665663e+00
  5.290722e+00    3.604197e+00
  5.306598e+00    3.612182e+00
  5.322474e+00    3.679382e+00
  5.338349e+00    3.657534e+00
  5.354225e+00    3.639667e+00
  5.370100e+00    3.691536e+00
  5.385976e+00    3.683720e+00
  5.401851e+00    3.643759e+00
  5.417727e+00    3.649988e+00
  5.433603e+00    3.656274e+00
  5.449478e+00    3.625157e+00
  5.465354e+00    3.657718e+00
  5.481229e+00    3.652186e+00
  5.497105e+00    3.674320e+00
  5.512980e+00    3.711771e+00
  5.528856e+00    3.638868e+00
  5.544732e+00    3.645434e+00
  5.560607e+00    3.545209e+00
  5.576483e+00    3.561025e+00
  5.592358e+00    3.603968e+00
  5.608234e+00    3.578031e+00
  5.624109e+00    3.638314e+00
  5.639985e+00    3.633253e+00
  5.655861e+00    3.653770e+00
  5.671736e+00    3.641555e+00
  5.687612e+00    3.524409e+00
  5.703487e+00    3.651463e+00
  5.719363e+00    3.587538e+00
  5.735238e+00    3.571066e+00
  5.751114e+00    3.603357e+00
  5.766990e+00    3.588199e+00
  5.782865e+00    3.659798e+00
  5.798741e+00    3.575883e+00
  5.814616e+00    3.601743e+00
  5.830492e+00    3.580349e+00
  5.846367e+00    3.589290e+00
  5.862243e+00    3.561804e+00
  5.878119e+00    3.593740e+00
  5.893994e+00    3.581305e+00
  5.909870e+00    3.567824e+00
  5.925745e+00    3.550372e+00
  5.941621e+00    3.614119e+00
  5.957497e+00    3.590223e+00
  5.973372e+00    3.600895e+00
  5.989248e+00    3.598228e+00
  6.005123e+00    3.551550e+00
  6.020999e+00    3.525511e+00
  6.036874e+00    3.573137e+00
  6.052750e+00    3.660105e+00
  6.068626e+00    3.656068e+00
  6.084501e+00    3.592674e+00
  6.100377e+00    3.560195e+00
  6.116252e+00    3.613956e+00
  6.132128e+00    3.575100e+00
  6.148003e+00    3.600441e+00
  6.163879e+00    3.628355e+00
  6.179755e+00    3.646346e+00
  6.195630e+00    3.640039e+00
  6.211506e+00    3.620997e+00
  6.227381e+00    3.520962e+00
  6.243257e+00    3.517346e+00
  6.259132e+00    3.644896e+00
  6.275008e+00    3.670496e+00
  6.290884e+00    3.618768e+00
  6.306759e+00    3.619124e+00
  6.322635e+00    3.569788e+00
  6.338510e+00    3.606719e+00
  6.354386e+00    3.586247e+00
  6.370261e+00    3.524044e+00
  6.386137e+00    3.540744e+00
  6.402013e+00    3.556716e+00
  6.417888e+00    3.615985e+00
  6.433764e+00    3.651757e+00
  6.449639e+00    3.586574e+00
  6.465515e+00    3.608183e+00
  6.481390e+00    3.592578e+00
  6.497266e+00    3.615224e+00
  6.513142e+00    3.552476e+00
  6.529017e+00    3.544665e+00
  6.544893e+00    3.556933e+00
  6.560768e+00    3.516964e+00
  6.576644e+00    3.561608e+00
  6.592519e+00    3.569591e+00
  6.608395e+00    3.546672e+00
  6.624271e+00    3.468322e+00
  6.640146e+00    3.473801e+00
  6.656022e+00    3.558592e+00
  6.671897e+00    3.500354e+00
  6.687773e+00    3.545826e+00
  6.703648e+00    3.581913e+00
  6.719524e+00    3.555229e+00
  6.735400e+00    3.603294e+00
  6.751275e+00    3.600069e+00
  6.767151e+00    3.579412e+00
  6.783026e+00    3.627614e+00
  6.798902e+00    3.589366e+00
  6.814777e+00    3.479433e+00
  6.830653e+00    3.459022e+00
  6.846529e+00    3.510401e+00
  6.862404e+00    3.554237e+00
  6.878280e+00    3.549289e+00
  6.894155e+00    3.622906e+00
  6.910031e+00    3.544308e+00
  6.925907e+00    3.504832e+00
  6.941782e+00    3.519993e+00
  6.957658e+00    3.513921e+00
  6.973533e+00    3.574139e+00
  6.989409e+00    3.588887e+00
  7.005284e+00    3.557361e+00
  7.021160e+00    3.484894e+00
  7.037036e+00    3.527878e+00
  7.052911e+00    3.561479e+00
  7.068787e+00    3.635187e+00
  7.084662e+00    3.592637e+00
  7.100538e+00    3.571505e+00
  7.116413e+00    3.467415e+00
  7.132289e+00    3.524814e+00
  7.148165e+00    3.594630e+00
  7.164040e+00    3.588086e+00
  7.179916e+00    3.512625e+00
  7.195791e+00    3.540907e+00
  7.211667e+00    3.559200e+00
  7.227542e+00    3.556845e+00
  7.243418e+00    3.508957e+00
  7.259294e+00    3.484977e+00
  7.275169e+00    3.505293e+00
  7.291045e+00    3.539370e+00
  7.306920e+00    3.547009e+00
  7.322796e+00    3.529039e+00
  7.338671e+00    3.512679e+00
  7.354547e+00    3.529100e+00
  7.370423e+00    3.536320e+00
  7.386298e+00    3.424053e+00
  7.402174e+00    3.485991e+00
  7.418049e+00    3.532883e+00
  7.433925e+00    3.477870e+00
  7.449800e+00    3.492016e+00
  7.465676e+00    3.525396e+00
  7.481552e+00    3.539962e+00
  7.497427e+00    3.524364e+00
  7.513303e+00    3.513466e+00
  7.529178e+00    3.474542e+00
  7.545054e+00    3.557288e+00
  7.560929e+00    3.549123e+00
  7.576805e+00    3.491186e+00
  7.592681e+00    3.494916e+00
  7.608556e+00    3.454809e+00
  7.624432e+00    3.450213e+00
  7.640307e+00    3.464583e+00
  7.656183e+00    3.493067e+00
  7.672058e+00    3.515296e+00
  7.687934e+00    3.475268e+00
  7.703810e+00    3.477010e+00
  7.719685e+00    3.512469e+00
  7.735561e+00    3.518485e+00
  7.751436e+00    3.454885e+00
  7.767312e+00    3.448799e+00
  7.783187e+00    3.405000e+00
  7.799063e+00    3.397668e+00
  7.814939e+00    3.419700e+00
  7.830814e+00    3.478302e+00
  7.846690e+00    3.453026e+00
  7.862565e+00    3.394674e+00
  7.878441e+00    3.375345e+00
  7.894317e+00    3.407735e+00
  7.910192e+00    3.455603e+00
  7.926068e+00    3.451410e+00
  7.941943e+00    3.440951e+00
  7.957819e+00    3.446309e+00
  7.973694e+00    3.443176e+00
  7.989570e+00    3.427083e+00
  8.005446e+00    3.404399e+00
  8.021321e+00    3.464112e+00
  8.037197e+00    3.405168e+00
  8.053072e+00    3.418334e+00
  8.068948e+00    3.484763e+00
  8.084823e+00    3.445595e+00
  8.100699e+00    3.465367e+00
  8.116575e+00    3.430095e+00
  8.132450e+00    3.425293e+00
  8.148326e+00    3.516324e+00
  8.164201e+00    3.496370e+00
  8.180077e+00    3.432218e+00
  8.195952e+00    3.497896e+00
  8.211828e+00    3.505218e+00
  8.227704e+00    3.516099e+00
  8.243579e+00    3.486830e+00
  8.259455e+00    3.422333e+00
  8.275330e+00    3.439245e+00
  8.291206e+00    3.427731e+00
  8.307081e+00    3.499011e+00
  8.322957e+00    3.403719e+00
  8.338833e+00    3.372451e+00
  8.354708e+00    3.442262e+00
  8.370584e+00    3.438347e+00
  8.386459e+00    3.376970e+00
  8.402335e+00    3.346491e+00
  8.418210e+00    3.369232e+00
  8.434086e+00    3.400016e+00
  8.449962e+00    3.425248e+00
  8.465837e+00    3.381788e+00
  8.481713e+00    3.440199e+00
  8.497588e+00    3.421833e+00
  8.513464e+00    3.400448e+00
  8.529339e+00    3.372935e+00
  8.545215e+00    3.436627e+00
  8.561091e+00    3.433211e+00
  8.576966e+00    3.380621e+00
  8.592842e+00    3.366839e+00
  8.608717e+00    3.298455e+00
  8.624593e+00    3.357120e+00
  8.640468e+00    3.419300e+00
  8.656344e+00    3.337178e+00
  8.672220e+00    3.266750e+00
  8.688095e+00    3.358901e+00
  8.703971e+00    3.334966e+00
  8.719846e+00    3.320533e+00
  8.735722e+00    3.344753e+00
  8.751598e+00    3.339025e+00
  8.767473e+00    3.283113e+00
  8.783349e+00    3.266461e+00
  8.799224e+00    3.325951e+00
  8.815100e+00    3.364993e+00
  8.830975e+00    3.331278e+00
  8.846851e+00    3.328786e+00
  8.862727e+00    3.275476e+00
  8.878602e+00    3.273625e+00
  8.894478e+00    3.346580e+00
  8.910353e+00    3.295769e+00
  8.926229e+00    3.304240e+00
  8.942104e+00    3.278636e+00
  8.957980e+00    3.278152e+00
  8.973856e+00    3.329799e+00
  8.989731e+00    3.311755e+00
  9.005607e+00    3.343185e+00
  9.021482e+00    3.242660e+00
  9.037358e+00    3.259518e+00
  9.053233e+00    3.296421e+00
  9.069109e+00    3.311288e+00
  9.084985e+00    3.328688e+00
  9.100860e+00    3.301096e+00
  9.116736e+00    3.245311e+00
  9.132611e+00    3.304501e+00
  9.148487e+00    3.333838e+00
  9.164362e+00    3.326147e+00
  9.180238e+00    3.345264e+00
  9.196114e+00    3.233827e+00
  9.211989e+00    3.211006e+00
  9.227865e+00    3.242405e+00
  9.243740e+00    3.252056e+00
  9.259616e+00    3.216833e+00
  9.275491e+00    3.248083e+00
  9.291367e+00    3.292765e+00
  9.307243e+00    3.288690e+00
  9.323118e+00    3.279531e+00
  9.338994e+00    3.244077e+00
  9.354869e+00    3.215739e+00
  9.370745e+00    3.247147e+00
  9.386620e+00    3.264735e+00
  9.402496e+00    3.218601e+00
  9.418372e+00    3.164931e+00
  9.434247e+00    3.209774e+00
  9.450123e+00    3.263662e+00
  9.465998e+00    3.274679e+00
  9.481874e+00    3.266826e+00
  9.497749e+00    3.265488e+00
  9.513625e+00    3.203411e+00
  9.529501e+00    3.271518e+00
  9.545376e+00    3.368898e+00
  9.561252e+00    3.277786e+00
  9.577127e+00    3.228259e+00
  9.593003e+00    3.279918e+00
  9.608878e+00    3.285877e+00
  9.624754e+00    3.218135e+00
  9.640630e+00    3.185304e+00
  9.656505e+00    3.173170e+00
  9.672381e+00    3.169568e+00
  9.688256e+00    3.191980e+00
  9.704132e+00    3.142843e+00
  9.720008e+00    3.184033e+00
  9.735883e+00    3.145166e+00
  9.751759e+00    3.168283e+00
  9.767634e+00    3.229515e+00
  9.783510e+00    3.221245e+00
  9.799385e+00    3.211845e+00
  9.815261e+00    3.178201e+00
  9.831137e+00    3.151934e+00
  9.847012e+00    3.133241e+00
  9.862888e+00    3.150289e+00
  9.878763e+00    3.140318e+00
  9.894639e+00    3.138832e+00
  9.910514e+00    3.155329e+00
  9.926390e+00    3.201066e+00
  9.942266e+00    3.212615e+00
  9.958141e+00    3.161628e+00
  9.974017e+00    3.185815e+00
  9.989892e+00    3.139107e+00
  1.000577e+01    3.143394e+00
  1.002164e+01    3.166448e+00
  1.003752e+01    3.122192e+00
  1.005339e+01    3.108110e+00
  1.006927e+01    3.121466e+00
  1.008515e+01    3.079943e+00
  1.010102e+01    3.066926e+00
  1.011690e+01    3.080423e+00
  1.013277e+01    3.131539e+00
  1.014865e+01    3.176976e+00
  1.016452e+01    3.188525e+00
  1.018040e+01    3.101966e+00
  1.019627e+01    3.023804e+00
  1.021215e+01    3.056875e+00
  1.022803e+01    3.064853e+00
  1.024390e+01    3.045809e+00
  1.025978e+01    3.028281e+00
  1.027565e+01    3.058046e+00
  1.029153e+01    3.073312e+00
  1.030740e+01    3.108241e+00
  1.032328e+01    3.096315e+00
  1.033915e+01    3.077963e+00
  1.035503e+01    3.103581e+00
  1.037091e+01    3.119364e+00
  1.038678e+01    3.087156e+00
  1.040266e+01    3.105841e+00
  1.041853e+01    3.118444e+00
  1.043441e+01    3.106853e+00
  1.045028e+01    3.049921e+00
  1.046616e+01    3.082515e+00
  1.048204e+01    3.074937e+00
  1.049791e+01    3.047480e+00
  1.051379e+01    3.080987e+00
  1.052966e+01    3.005028e+00
  1.054554e+01    2.979003e+00
  1.056141e+01    2.987083e+00
  1.057729e+01    2.985822e+00
  1.059316e+01    3.046046e+00
  1.060904e+01    3.014188e+00
  1.062492e+01    3.035896e+00
  1.064079e+01    3.013303e+00
  1.065667e+01    3.004943e+00
  1.067254e+01    3.024305e+00
  1.068842e+01    3.070678e+00
  1.070429e+01    3.057836e+00
  1.072017e+01    2.998609e+00
  1.073604e+01    2.940284e+00
  1.075192e+01    2.954473e+00
  1.076780e+01    3.008683e+00
  1.078367e+01    2.955918e+00
  1.079955e+01    2.957240e+00
  1.081542e+01    2.961715e+00
  1.083130e+01    2.930719e+00
  1.084717e+01    2.929779e+00
  1.086305e+01    2.935826e+00
  1.087892e+01    2.959733e+00
  1.089480e+01    2.962039e+00
  1.091068e+01    2.937262e+00
  1.092655e+01    2.931344e+00
  1.094243e+01    2.920167e+00
  1.095830e+01    2.945255e+00
  1.097418e+01    2.952030e+00
  1.099005e+01    2.926075e+00
  1.100593e+01    2.897038e+00
  1.102180e+01    2.860189e+00
  1.103768e+01    2.877263e+00
  1.105356e+01    2.892737e+00
  1.106943e+01    2.888443e+00
  1.108531e+01    2.876945e+00
  1.110118e+01    2.882996e+00
  1.111706e+01    2.879504e+00
  1.113293e+01    2.918083e+00
  1.114881e+01    2.882271e+00
  1.116468e+01    2.853426e+00
  1.118056e+01    2.876815e+00
  1.119644e+01    2.876894e+00
  1.121231e+01    2.879126e+00
  1.122819e+01    2.875138e+00
  1.124406e+01    2.860897e+00
  1.125994e+01    2.825593e+00
  1.127581e+01    2.872324e+00
  1.129169e+01    2.911182e+00
  1.130756e+01    2.864754e+00
  1.132344e+01    2.847690e+00
  1.133932e+01    2.840403e+00
  1.135519e+01    2.820960e+00
  1.137107e+01    2.787963e+00
  1.138694e+01    2.847025e+00
  1.140282e+01    2.852450e+00
  1.141869e+01    2.826840e+00
  1.143457e+01    2.836715e+00
  1.145045e+01    2.817224e+00
  1.146632e+01    2.824248e+00
  1.148220e+01    2.867491e+00
  1.149807e+01    2.826716e+00
  1.151395e+01    2.838828e+00
  1.152982e+01    2.812306e+00
  1.154570e+01    2.817905e+00
  1.156157e+01    2.827030e+00
  1.157745e+01    2.780475e+00
  1.159333e+01    2.790832e+00
  1.160920e+01    2.781464e+00
  1.162508e+01    2.736567e+00
  1.164095e+01    2.755828e+00
  1.165683e+01    2.749774e+00
  1.167270e+01    2.765594e+00
  1.168858e+01    2.794293e+00
  1.170445e+01    2.763050e+00
  1.172033e+01    2.733434e+00
  1.173621e+01    2.730325e+00
  1.175208e+01    2.746242e+00
  1.176796e+01    2.727459e+00
  1.178383e+01    2.736048e+00
  1.179971e+01    2.698842e+00
  1.181558e+01    2.716630e+00
  1.183146e+01    2.752407e+00
  1.184733e+01    2.715789e+00
  1.186321e+01    2.715954e+00
  1.187909e+01    2.746088e+00
  1.189496e+01    2.741209e+00
  1.191084e+01    2.754522e+00
  1.192671e+01    2.743571e+00
  1.194259e+01    2.769354e+00
  1.195846e+01    2.756166e+00
  1.197434e+01    2.742495e+00
  1.199021e+01    2.747457e+00
  1.200609e+01    2.731600e+00
  1.202197e+01    2.727364e+00
  1.203784e+01    2.792033e+00
  1.205372e+01    2.771555e+00
  1.206959e+01    2.766104e+00
  1.208547e+01    2.704994e+00
  1.210134e+01    2.675009e+00
  1.211722e+01    2.736666e+00
  1.213309e+01    2.738720e+00
  1.214897e+01    2.720908e+00
  1.216485e+01    2.710212e+00
  1.218072e+01    2.682305e+00
  1.219660e+01    2.669586e+00
  1.221247e+01    2.706234e+00
  1.222835e+01    2.712079e+00
  1.224422e+01    2.677766e+00
  1.226010e+01    2.713698e+00
  1.227597e+01    2.746854e+00
  1.229185e+01    2.705710e+00
  1.230773e+01    2.662797e+00
  1.232360e+01    2.703807e+00
  1.233948e+01    2.704702e+00
  1.235535e+01    2.647639e+00
  1.237123e+01    2.674873e+00
  1.238710e+01    2.701006e+00
  1.240298e+01    2.724657e+00
  1.241886e+01    2.694992e+00
  1.243473e+01    2.705411e+00
  1.245061e+01    2.697738e+00
  1.246648e+01    2.721680e+00
  1.248236e+01    2.755839e+00
  1.249823e+01    2.755686e+00
  1.251411e+01    2.756683e+00
  1.252998e+01    2.714475e+00
  1.254586e+01    2.667959e+00
  1.256174e+01    2.683824e+00
  1.257761e+01    2.753646e+00
  1.259349e+01    2.765562e+00
  1.260936e+01    2.776616e+00
  1.262524e+01    2.781874e+00
  1.264111e+01    2.799877e+00
  1.265699e+01    2.755853e+00
  1.267286e+01    2.813347e+00
  1.268874e+01    2.859825e+00
  1.270462e+01    2.869241e+00
  1.272049e+01    2.872603e+00
  1.273637e+01    2.899250e+00
  1.275224e+01    2.885909e+00
  1.276812e+01    2.897551e+00
  1.278399e+01    2.993615e+00
  1.279987e+01    3.025043e+00
  1.281574e+01    3.104273e+00
  1.283162e+01    3.159312e+00
  1.284750e+01    3.224468e+00
  1.286337e+01    3.327339e+00
  1.287925e+01    3.378558e+00
  1.289512e+01    3.497539e+00
  1.291100e+01    3.709777e+00
  1.292687e+01    3.863777e+00
  1.294275e+01    4.084953e+00
  1.295862e+01    4.413998e+00
  1.297450e+01    4.839270e+00
  1.299038e+01    5.302619e+00
  1.300625e+01    5.875040e+00
  1.302213e+01    6.682225e+00
  1.303800e+01    7.661368e+00
  1.305388e+01    8.887831e+00
  1.306975e+01    1.024321e+01
  1.308563e+01    1.147896e+01
  1.310150e+01    1.275264e+01
  1.311738e+01    1.391728e+01
  1.313326e+01    1.480097e+01
  1.314913e+01    1.565094e+01
  1.316501e+01    1.630141e+01
  1.318088e+01    1.653882e+01
  1.319676e+01    1.589507e+01
  1.321263e+01    1.446682e+01
  1.322851e+01    1.263773e+01
  1.324438e+01    1.077483e+01
  1.326026e+01    9.136549e+00
  1.327614e+01    7.835625e+00
  1.329201e+01    6.792212e+00
  1.330789e+01    5.964469e+00
  1.332376e+01    5.366161e+00
  1.333964e+01    4.879583e+00
  1.335551e+01    4.464408e+00
  1.337139e+01    4.105716e+00
  1.338727e+01    3.825379e+00
  1.340314e+01    3.693773e+00
  1.341902e+01    3.544627e+00
  1.343489e+01    3.391436e+00
  1.345077e+01    3.231095e+00
  1.346664e+01    3.127902e+00
  1.348252e+01    3.024669e+00
  1.349839e+01    3.023362e+00
  1.351427e+01    2.949076e+00
  1.353015e+01    2.907840e+00
  1.354602e+01    2.901775e+00
  1.356190e+01    2.833508e+00
  1.357777e+01    2.770232e+00
  1.359365e+01    2.691510e+00
  1.360952e+01    2.688003e+00
  1.362540e+01    2.671105e+00
  1.364127e+01    2.664403e+00
  1.365715e+01    2.676825e+00
  1.367303e+01    2.620953e+00
  1.368890e+01    2.605022e+00
  1.370478e+01    2.579032e+00
  1.372065e+01    2.566890e+00
  1.373653e+01    2.563328e+00
  1.375240e+01    2.550969e+00
  1.376828e+01    2.514456e+00
  1.378415e+01    2.468640e+00
  1.380003e+01    2.445309e+00
  1.381591e+01    2.423993e+00
  1.383178e+01    2.448660e+00
  1.384766e+01    2.494465e+00
  1.386353e+01    2.445061e+00
  1.387941e+01    2.427456e+00
  1.389528e+01    2.429002e+00
  1.391116e+01    2.438356e+00
  1.392703e+01    2.441712e+00
  1.394291e+01    2.423219e+00
  1.395879e+01    2.389558e+00
  1.397466e+01    2.405774e+00
  1.399054e+01    2.424913e+00
  1.400641e+01    2.393440e+00
  1.402229e+01    2.366489e+00
  1.403816e+01    2.361257e+00
  1.405404e+01    2.372272e+00
  1.406991e+01    2.396086e+00
  1.408579e+01    2.352136e+00
  1.410167e+01    2.303254e+00
  1.411754e+01    2.293725e+00
  1.413342e+01    2.317671e+00
  1.414929e+01    2.342582e+00
  1.416517e+01    2.310387e+00
  1.418104e+01    2.326924e+00
  1.419692e+01    2.317953e+00
  1.421279e+01    2.313905e+00
  1.422867e+01    2.292817e+00
  1.424455e+01    2.266498e+00
  1.426042e+01    2.277917e+00
  1.427630e+01    2.265468e+00
  1.429217e+01    2.278933e+00
  1.430805e+01    2.278097e+00
  1.432392e+01    2.243825e+00
  1.433980e+01    2.265097e+00
  1.435568e+01    2.232481e+00
  1.437155e+01    2.243927e+00
  1.438743e+01    2.217988e+00
  1.440330e+01    2.252258e+00
  1.441918e+01    2.251014e+00
  1.443505e+01    2.279608e+00
  1.445093e+01    2.294675e+00
  1.446680e+01    2.268681e+00
  1.448268e+01    2.283101e+00
  1.449856e+01    2.273693e+00
  1.451443e+01    2.223346e+00
  1.453031e+01    2.253807e+00
  1.454618e+01    2.219875e+00
  1.456206e+01    2.215208e+00
  1.457793e+01    2.204996e+00
  1.459381e+01    2.225292e+00
  1.460968e+01    2.217196e+00
  1.462556e+01    2.223462e+00
  1.464144e+01    2.220844e+00
  1.465731e+01    2.215877e+00
  1.467319e+01    2.187153e+00
  1.468906e+01    2.220131e+00
  1.470494e+01    2.232629e+00
  1.472081e+01    2.212743e+00
  1.473669e+01    2.210318e+00
  1.475256e+01    2.196246e+00
  1.476844e+01    2.217712e+00
  1.478432e+01    2.221997e+00
  1.480019e+01    2.192384e+00
  1.481607e+01    2.167961e+00
  1.483194e+01    2.224088e+00
  1.484782e+01    2.233677e+00
  1.486369e+01    2.221403e+00
  1.487957e+01    2.239601e+00
  1.489544e+01    2.236631e+00
  1.491132e+01    2.257895e+00
  1.492720e+01    2.245157e+00
  1.494307e+01    2.261739e+00
  1.495895e+01    2.323835e+00
  1.497482e+01    2.380269e+00
  1.499070e+01    2.443806e+00
  1.500657e+01    2.484808e+00
  1.502245e+01    2.549279e+00
  1.503832e+01    2.623891e+00
  1.505420e+01    2.661447e+00
  1.507008e+01    2.797576e+00
  1.508595e+01    2.970224e+00
  1.510183e+01    3.223283e+00
  1.511770e+01    3.496802e+00
  1.513358e+01    3.808751e+00
  1.514945e+01    4.170084e+00
  1.516533e+01    4.531845e+00
  1.518120e+01    4.902500e+00
  1.519708e+01    5.197947e+00
  1.521296e+01    5.469085e+00
  1.522883e+01    5.716415e+00
  1.524471e+01    5.789680e+00
  1.526058e+01    5.822007e+00
  1.527646e+01    5.740380e+00
  1.529233e+01    5.518872e+00
  1.530821e+01    5.149027e+00
  1.532409e+01    4.692962e+00
  1.533996e+01    4.195034e+00
  1.535584e+01    3.757794e+00
  1.537171e+01    3.439818e+00
  1.538759e+01    3.146754e+00
  1.540346e+01    2.958044e+00
  1.541934e+01    2.788946e+00
  1.543521e+01    2.668737e+00
  1.545109e+01    2.558310e+00
  1.546697e+01    2.466312e+00
  1.548284e+01    2.381020e+00
  1.549872e+01    2.333372e+00
  1.551459e+01    2.268322e+00
  1.553047e+01    2.241375e+00
  1.554634e+01    2.202312e+00
  1.556222e+01    2.202543e+00
  1.557809e+01    2.176695e+00
  1.559397e+01    2.100829e+00
  1.560985e+01    2.058564e+00
  1.562572e+01    2.039848e+00
  1.564160e+01    2.054329e+00
  1.565747e+01    2.044469e+00
  1.567335e+01    2.031626e+00
  1.568922e+01    2.011943e+00
  1.570510e+01    1.965879e+00
  1.572097e+01    1.969595e+00
  1.573685e+01    1.965038e+00
  1.575273e+01    1.970187e+00
  1.576860e+01    1.965073e+00
  1.578448e+01    1.955961e+00
  1.580035e+01    1.921569e+00
  1.581623e+01    1.932818e+00
  1.583210e+01    1.933264e+00
  1.584798e+01    1.924499e+00
  1.586385e+01    1.926447e+00
  1.587973e+01    1.906749e+00
  1.589561e+01    1.861161e+00
  1.591148e+01    1.923460e+00
  1.592736e+01    1.916926e+00
  1.594323e+01    1.879975e+00
  1.595911e+01    1.883713e+00
  1.597498e+01    1.865496e+00
  1.599086e+01    1.867245e+00
  1.600673e+01    1.860836e+00
  1.602261e+01    1.885609e+00
  1.603849e+01    1.880008e+00
  1.605436e+01    1.892535e+00
  1.607024e+01    1.885432e+00
  1.608611e+01    1.877470e+00
  1.610199e+01    1.874561e+00
  1.611786e+01    1.826603e+00
  1.613374e+01    1.845769e+00
  1.614961e+01    1.833226e+00
  1.616549e+01    1.845532e+00
  1.618137e+01    1.874230e+00
  1.619724e+01    1.857473e+00
  1.621312e+01    1.834808e+00
  1.622899e+01    1.827100e+00
  1.624487e+01    1.840247e+00
  1.626074e+01    1.836698e+00
  1.627662e+01    1.795611e+00
  1.629250e+01    1.770009e+00
  1.630837e+01    1.803386e+00
  1.632425e+01    1.815150e+00
  1.634012e+01    1.826032e+00
  1.635600e+01    1.848614e+00
  1.637187e+01    1.810775e+00
  1.638775e+01    1.780672e+00
  1.640362e+01    1.792634e+00
  1.641950e+01    1.801423e+00
  1.643538e+01    1.800611e+00
  1.645125e+01    1.748749e+00
  1.646713e+01    1.756858e+00
  1.648300e+01    1.771385e+00
  1.649888e+01    1.798049e+00
  1.651475e+01    1.804826e+00
  1.653063e+01    1.759783e+00
  1.654650e+01    1.754997e+00
  1.656238e+01    1.744019e+00
  1.657826e+01    1.758453e+00
  1.659413e+01    1.771561e+00
  1.661001e+01    1.766678e+00
  1.662588e+01    1.728297e+00
  1.664176e+01    1.725288e+00
  1.665763e+01    1.754886e+00
  1.667351e+01    1.746782e+00
  1.668938e+01    1.759832e+00
  1.670526e+01    1.728600e+00
  1.672114e+01    1.678885e+00
  1.673701e+01    1.714239e+00
  1.675289e+01    1.726091e+00
  1.676876e+01    1.725229e+00
  1.678464e+01    1.743836e+00
  1.680051e+01    1.721312e+00
  1.681639e+01    1.690153e+00
  1.683226e+01    1.730318e+00
  1.684814e+01    1.723787e+00
  1.686402e+01    1.713100e+00
  1.687989e+01    1.714596e+00
  1.689577e+01    1.729625e+00
  1.691164e+01    1.732130e+00
  1.692752e+01    1.680019e+00
  1.694339e+01    1.647961e+00
  1.695927e+01    1.690711e+00
  1.697514e+01    1.681920e+00
  1.699102e+01    1.668327e+00
  1.700690e+01    1.690607e+00
  1.702277e+01    1.693027e+00
  1.703865e+01    1.674794e+00
  1.705452e+01    1.676706e+00
  1.707040e+01    1.660250e+00
  1.708627e+01    1.678343e+00
  1.710215e+01    1.672831e+00
  1.711802e+01    1.664576e+00
  1.713390e+01    1.689572e+00
  1.714978e+01    1.696889e+00
  1.716565e+01    1.636017e+00
  1.718153e+01    1.617508e+00
  1.719740e+01    1.641923e+00
  1.721328e+01    1.666746e+00
  1.722915e+01    1.618697e+00
  1.724503e+01    1.604599e+00
  1.726091e+01    1.627431e+00
  1.727678e+01    1.642597e+00
  1.729266e+01    1.618533e+00
  1.730853e+01    1.640028e+00
  1.732441e+01    1.651160e+00
  1.734028e+01    1.632740e+00
  1.735616e+01    1.650151e+00
  1.737203e+01    1.636072e+00
  1.738791e+01    1.568192e+00
  1.740379e+01    1.567665e+00
  1.741966e+01    1.588573e+00
  1.743554e+01    1.619119e+00
  1.745141e+01    1.625064e+00
  1.746729e+01    1.624890e+00
  1.748316e+01    1.625560e+00
  1.749904e+01    1.582687e+00
  1.751491e+01    1.584460e+00
  1.753079e+01    1.588282e+00
  1.754667e+01    1.564963e+00
  1.756254e+01    1.588417e+00
  1.757842e+01    1.609783e+00
  1.759429e+01    1.576212e+00
  1.761017e+01    1.567851e+00
  1.762604e+01    1.573830e+00
  1.764192e+01    1.572122e+00
  1.765779e+01    1.600408e+00
  1.767367e+01    1.551806e+00
  1.768955e+01    1.595399e+00
  1.770542e+01    1.570420e+00
  1.772130e+01    1.563947e+00
  1.773717e+01    1.563803e+00
  1.775305e+01    1.578490e+00
  1.776892e+01    1.560366e+00
  1.778480e+01    1.568711e+00
  1.780067e+01    1.570965e+00
  1.781655e+01    1.574765e+00
  1.783243e+01    1.589965e+00
  1.784830e+01    1.574478e+00
  1.786418e+01    1.520533e+00
  1.788005e+01    1.516441e+00
  1.789593e+01    1.557389e+00
  1.791180e+01    1.571234e+00
  1.792768e+01    1.557475e+00
  1.794355e+01    1.546812e+00
  1.795943e+01    1.520046e+00
  1.797531e+01    1.538767e+00
  1.799118e+01    1.512792e+00
  1.800706e+01    1.488012e+00
  1.802293e+01    1.500561e+00
  1.803881e+01    1.515251e+00
  1.805468e+01    1.512386e+00
  1.807056e+01    1.489986e+00
  1.808643e+01    1.501249e+00
  1.810231e+01    1.544466e+00
  1.811819e+01    1.539130e+00
  1.813406e+01    1.508851e+00
  1.814994e+01    1.485724e+00
  1.816581e+01    1.475584e+00
  1.818169e+01    1.485201e+00
  1.819756e+01    1.495712e+00
  1.821344e+01    1.473884e+00
  1.822932e+01    1.468664e+00
  1.824519e+01    1.445890e+00
  1.826107e+01    1.443645e+00
  1.827694e+01    1.472358e+00
  1.829282e+01    1.481760e+00
  1.830869e+01    1.474524e+00
  1.832457e+01    1.481330e+00
  1.834044e+01    1.481284e+00
  1.835632e+01    1.480821e+00
  1.837220e+01    1.460330e+00
  1.838807e+01    1.456895e+00
  1.840395e+01    1.453542e+00
  1.841982e+01    1.443547e+00
  1.843570e+01    1.449247e+00
  1.845157e+01    1.446202e+00
  1.846745e+01    1.452189e+00
  1.848332e+01    1.451416e+00
  1.849920e+01    1.450502e+00
  1.851508e+01    1.431056e+00
  1.853095e+01    1.435108e+00
  1.854683e+01    1.440695e+00
  1.856270e+01    1.463726e+00
  1.857858e+01    1.469445e+00
  1.859445e+01    1.474934e+00
  1.861033e+01    1.445675e+00
  1.862620e+01    1.423403e+00
  1.864208e+01    1.420626e+00
  1.865796e+01    1.424606e+00
  1.867383e+01    1.432796e+00
  1.868971e+01    1.416736e+00
  1.870558e+01    1.426479e+00
  1.872146e+01    1.439181e+00
  1.873733e+01    1.441452e+00
  1.875321e+01    1.433308e+00
  1.876908e+01    1.439387e+00
  1.878496e+01    1.419720e+00
  1.880084e+01    1.431934e+00
  1.881671e+01    1.418265e+00
  1.883259e+01    1.428265e+00
  1.884846e+01    1.419118e+00
  1.886434e+01    1.408139e+00
  1.888021e+01    1.391476e+00
  1.889609e+01    1.378213e+00
  1.891196e+01    1.401603e+00
  1.892784e+01    1.411691e+00
  1.894372e+01    1.400753e+00
  1.895959e+01    1.384940e+00
  1.897547e+01    1.376273e+00
  1.899134e+01    1.365267e+00
  1.900722e+01    1.416172e+00
  1.902309e+01    1.422072e+00
  1.903897e+01    1.393201e+00
  1.905484e+01    1.381637e+00
  1.907072e+01    1.381129e+00
  1.908660e+01    1.380101e+00
  1.910247e+01    1.360172e+00
  1.911835e+01    1.346760e+00
  1.913422e+01    1.388671e+00
  1.915010e+01    1.385257e+00
  1.916597e+01    1.375524e+00
  1.918185e+01    1.366460e+00
  1.919773e+01    1.358612e+00
  1.921360e+01    1.391177e+00
  1.922948e+01    1.418014e+00
  1.924535e+01    1.375333e+00
  1.926123e+01    1.361825e+00
  1.927710e+01    1.345249e+00
  1.929298e+01    1.353673e+00
  1.930885e+01    1.357531e+00
  1.932473e+01    1.377408e+00
  1.934061e+01    1.368866e+00
  1.935648e+01    1.366492e+00
  1.937236e+01    1.352977e+00
  1.938823e+01    1.326602e+00
  1.940411e+01    1.353620e+00
  1.941998e+01    1.334313e+00
  1.943586e+01    1.307572e+00
  1.945173e+01    1.344794e+00
  1.946761e+01    1.317585e+00
  1.948349e+01    1.348149e+00
  1.949936e+01    1.340618e+00
  1.951524e+01    1.328199e+00
  1.953111e+01    1.322344e+00
  1.954699e+01    1.328549e+00
  1.956286e+01    1.334037e+00
  1.957874e+01    1.346834e+00
  1.959461e+01    1.334679e+00
  1.961049e+01    1.319069e+00
  1.962637e+01    1.326006e+00
  1.964224e+01    1.340013e+00
  1.965812e+01    1.304693e+00
  1.967399e+01    1.322547e+00
  1.968987e+01    1.341125e+00
  1.970574e+01    1.319631e+00
  1.972162e+01    1.309580e+00
  1.973749e+01    1.324019e+00
  1.975337e+01    1.306512e+00
  1.976925e+01    1.317944e+00
  1.978512e+01    1.325165e+00
  1.980100e+01    1.312504e+00
  1.981687e+01    1.306749e+00
  1.983275e+01    1.330453e+00
  1.984862e+01    1.308935e+00
  1.986450e+01    1.271149e+00
  1.988037e+01    1.274924e+00
  1.989625e+01    1.302687e+00
  1.991213e+01    1.302194e+00
  1.992800e+01    1.296680e+00
  1.994388e+01    1.278858e+00
  1.995975e+01    1.264032e+00
  1.997563e+01    1.278841e+00
  1.999150e+01    1.296327e+00
  2.000738e+01    1.292837e+00
  2.002325e+01    1.270333e+00
  2.003913e+01    1.264142e+00
  2.005501e+01    1.305500e+00
  2.007088e+01    1.307622e+00
  2.008676e+01    1.271707e+00
  2.010263e+01    1.259468e+00
  2.011851e+01    1.301317e+00
  2.013438e+01    1.313660e+00
  2.015026e+01    1.271225e+00
  2.016614e+01    1.264202e+00
  2.018201e+01    1.259835e+00
  2.019789e+01    1.273630e+00
  2.021376e+01    1.284076e+00
  2.022964e+01    1.270074e+00
  2.024551e+01    1.277778e+00
  2.026139e+01    1.260876e+00
  2.027726e+01    1.273596e+00
  2.029314e+01    1.293194e+00
  2.030902e+01    1.269321e+00
  2.032489e+01    1.247899e+00
  2.034077e+01    1.284590e+00
  2.035664e+01    1.269550e+00
  2.037252e+01    1.245779e+00
  2.038839e+01    1.250931e+00
  2.040427e+01    1.259606e+00
  2.042014e+01    1.250387e+00
  2.043602e+01    1.240756e+00
  2.045190e+01    1.234580e+00
  2.046777e+01    1.259820e+00
  2.048365e+01    1.275778e+00
  2.049952e+01    1.257969e+00
  2.051540e+01    1.241687e+00
  2.053127e+01    1.249591e+00
  2.054715e+01    1.273357e+00
  2.056302e+01    1.236265e+00
  2.057890e+01    1.234559e+00
  2.059478e+01    1.205726e+00
  2.061065e+01    1.234732e+00
  2.062653e+01    1.266625e+00
  2.064240e+01    1.259012e+00
  2.065828e+01    1.254091e+00
  2.067415e+01    1.241589e+00
  2.069003e+01    1.236884e+00
  2.070590e+01    1.230332e+00
  2.072178e+01    1.239456e+00
  2.073766e+01    1.249841e+00
  2.075353e+01    1.241128e+00
  2.076941e+01    1.242033e+00
  2.078528e+01    1.247030e+00
  2.080116e+01    1.232926e+00
  2.081703e+01    1.237454e+00
  2.083291e+01    1.257715e+00
  2.084878e+01    1.238747e+00
  2.086466e+01    1.221807e+00
  2.088054e+01    1.220332e+00
  2.089641e+01    1.235854e+00
  2.091229e+01    1.238623e+00
  2.092816e+01    1.213166e+00
  2.094404e+01    1.194532e+00
  2.095991e+01    1.233298e+00
  2.097579e+01    1.226836e+00
  2.099166e+01    1.233542e+00
  2.100754e+01    1.237724e+00
  2.102342e+01    1.247438e+00
  2.103929e+01    1.220780e+00
  2.105517e+01    1.215900e+00
  2.107104e+01    1.243448e+00
  2.108692e+01    1.247081e+00
  2.110279e+01    1.244596e+00
  2.111867e+01    1.239693e+00
  2.113455e+01    1.231636e+00
  2.115042e+01    1.221996e+00
  2.116630e+01    1.247080e+00
  2.118217e+01    1.248098e+00
  2.119805e+01    1.221253e+00
  2.121392e+01    1.235640e+00
  2.122980e+01    1.227037e+00
  2.124567e+01    1.240804e+00
  2.126155e+01    1.239934e+00
  2.127743e+01    1.245009e+00
  2.129330e+01    1.266521e+00
  2.130918e+01    1.284909e+00
  2.132505e+01    1.279481e+00
  2.134093e+01    1.277159e+00
  2.135680e+01    1.294778e+00
  2.137268e+01    1.302034e+00
  2.138855e+01    1.293176e+00
  2.140443e+01    1.322290e+00
  2.142031e+01    1.366047e+00
  2.143618e+01    1.356615e+00
  2.145206e+01    1.345994e+00
  2.146793e+01    1.375522e+00
  2.148381e+01    1.411321e+00
  2.149968e+01    1.415794e+00
  2.151556e+01    1.471430e+00
  2.153143e+01    1.493679e+00
  2.154731e+01    1.548373e+00
  2.156319e+01    1.568417e+00
  2.157906e+01    1.619431e+00
  2.159494e+01    1.701435e+00
  2.161081e+01    1.766481e+00
  2.162669e+01    1.880355e+00
  2.164256e+01    1.987799e+00
  2.165844e+01    2.102932e+00
  2.167431e+01    2.250147e+00
  2.169019e+01    2.504678e+00
  2.170607e+01    2.785369e+00
  2.172194e+01    3.153773e+00
  2.173782e+01    3.588511e+00
  2.175369e+01    4.051726e+00
  2.176957e+01    4.640176e+00
  2.178544e+01    5.239536e+00
  2.180132e+01    5.901527e+00
  2.181719e+01    6.549831e+00
  2.183307e+01    7.221118e+00
  2.184895e+01    7.797163e+00
  2.186482e+01    8.457196e+00
  2.188070e+01    8.886090e+00
  2.189657e+01    9.026316e+00
  2.191245e+01    8.850691e+00
  2.192832e+01    8.367212e+00
  2.194420e+01    7.517514e+00
  2.196007e+01    6.632759e+00
  2.197595e+01    5.786778e+00
  2.199183e+01    4.910530e+00
  2.200770e+01    4.209535e+00
  2.202358e+01    3.607839e+00
  2.203945e+01    3.190785e+00
  2.205533e+01    2.876543e+00
  2.207120e+01    2.578314e+00
  2.208708e+01    2.339112e+00
  2.210296e+01    2.171541e+00
  2.211883e+01    2.008457e+00
  2.213471e+01    1.898730e+00
  2.215058e+01    1.769512e+00
  2.216646e+01    1.711768e+00
  2.218233e+01    1.654891e+00
  2.219821e+01    1.578819e+00
  2.221408e+01    1.499431e+00
  2.222996e+01    1.442637e+00
  2.224584e+01    1.421027e+00
  2.226171e+01    1.390511e+00
  2.227759e+01    1.359841e+00
  2.229346e+01    1.327543e+00
  2.230934e+01    1.304313e+00
  2.232521e+01    1.281688e+00
  2.234109e+01    1.277300e+00
  2.235696e+01    1.246330e+00
  2.237284e+01    1.265335e+00
  2.238872e+01    1.232884e+00
  2.240459e+01    1.225108e+00
  2.242047e+01    1.193419e+00
  2.243634e+01    1.180475e+00
  2.245222e+01    1.183644e+00
  2.246809e+01    1.166086e+00
  2.248397e+01    1.128194e+00
  2.249984e+01    1.157203e+00
  2.251572e+01    1.130894e+00
  2.253160e+01    1.155318e+00
  2.254747e+01    1.122825e+00
  2.256335e+01    1.116143e+00
  2.257922e+01    1.110932e+00
  2.259510e+01    1.118418e+00
  2.261097e+01    1.111643e+00
  2.262685e+01    1.117145e+00
  2.264272e+01    1.108025e+00
  2.265860e+01    1.092690e+00
  2.267448e+01    1.107616e+00
  2.269035e+01    1.078310e+00
  2.270623e+01    1.069384e+00
  2.272210e+01    1.085686e+00
  2.273798e+01    1.080208e+00
  2.275385e+01    1.052622e+00
  2.276973e+01    1.038015e+00
  2.278560e+01    1.053428e+00
  2.280148e+01    1.045076e+00
  2.281736e+01    1.062344e+00
  2.283323e+01    1.069342e+00
  2.284911e+01    1.042838e+00
  2.286498e+01    1.051342e+00
  2.288086e+01    1.066282e+00
  2.289673e+01    1.043315e+00
  2.291261e+01    1.028718e+00
  2.292848e+01    1.030794e+00
  2.294436e+01    1.024094e+00
  2.296024e+01    1.022698e+00
  2.297611e+01    1.049294e+00
  2.299199e+01    1.035378e+00
  2.300786e+01    1.041486e+00
  2.302374e+01    1.015488e+00
  2.303961e+01    1.002125e+00
  2.305549e+01    1.011809e+00
  2.307137e+01    1.043292e+00
  2.308724e+01    1.023933e+00
  2.310312e+01    1.004169e+00
  2.311899e+01    1.003129e+00
  2.313487e+01    1.005409e+00
  2.315074e+01    1.015521e+00
  2.316662e+01    1.015350e+00
  2.318249e+01    1.010295e+00
  2.319837e+01    9.805202e-01
  2.321425e+01    9.787395e-01
  2.323012e+01    9.861320e-01
  2.324600e+01    1.013653e+00
  2.326187e+01    9.937884e-01
  2.327775e+01    1.008988e+00
  2.329362e+01    1.007304e+00
  2.330950e+01    1.002759e+00
  2.332537e+01    1.021470e+00
  2.334125e+01    1.006543e+00
  2.335713e+01    1.005148e+00
  2.337300e+01    9.836825e-01
  2.338888e+01    9.756488e-01
  2.340475e+01    9.739100e-01
  2.342063e+01    9.732726e-01
  2.343650e+01    9.697075e-01
  2.345238e+01    9.648961e-01
  2.346825e+01    9.831676e-01
  2.348413e+01    1.003147e+00
  2.350001e+01    9.981512e-01
  2.351588e+01    1.001625e+00
  2.353176e+01    9.841639e-01
  2.354763e+01    9.503679e-01
  2.356351e+01    9.491604e-01
  2.357938e+01    9.648204e-01
  2.359526e+01    9.654901e-01
  2.361113e+01    9.817469e-01
  2.362701e+01    9.684672e-01
  2.364289e+01    9.846816e-01
  2.365876e+01    9.520668e-01
  2.367464e+01    9.677940e-01
  2.369051e+01    9.588705e-01
  2.370639e+01    9.156144e-01
  2.372226e+01    9.349072e-01
  2.373814e+01    9.309179e-01
  2.375401e+01    9.385524e-01
  2.376989e+01    9.232393e-01
  2.378577e+01    9.136302e-01
  2.380164e+01    9.136489e-01
  2.381752e+01    9.156539e-01
  2.383339e+01    9.219224e-01
  2.384927e+01    9.119017e-01
  2.386514e+01    9.140894e-01
  2.388102e+01    9.155903e-01
  2.389689e+01    9.088817e-01
  2.391277e+01    9.159490e-01
  2.392865e+01    9.349618e-01
  2.394452e+01    9.139866e-01
  2.396040e+01    8.887146e-01
  2.397627e+01    9.017816e-01
  2.399215e+01    9.039729e-01
  2.400802e+01    9.152439e-01
  2.402390e+01    9.080638e-01
  2.403978e+01    9.105865e-01
  2.405565e+01    9.147191e-01
  2.407153e+01    9.078391e-01
  2.408740e+01    9.072656e-01
  2.410328e+01    8.877492e-01
  2.411915e+01    9.113446e-01
  2.413503e+01    8.754713e-01
  2.415090e+01    8.831622e-01
  2.416678e+01    8.812420e-01
  2.418266e+01    8.708785e-01
  2.419853e+01    8.706782e-01
  2.421441e+01    8.891024e-01
  2.423028e+01    8.767155e-01
  2.424616e+01    8.662643e-01
  2.426203e+01    8.813893e-01
  2.427791e+01    8.777093e-01
  2.429378e+01    8.929649e-01
  2.430966e+01    8.913224e-01
  2.432554e+01    8.937023e-01
  2.434141e+01    8.992592e-01
  2.435729e+01    8.925684e-01
  2.437316e+01    8.900931e-01
  2.438904e+01    9.000289e-01
  2.440491e+01    9.044788e-01
  2.442079e+01    8.928469e-01
  2.443666e+01    8.845672e-01
  2.445254e+01    9.001407e-01
  2.446842e+01    8.945126e-01
  2.448429e+01    9.016830e-01
  2.450017e+01    8.900357e-01
  2.451604e+01    9.063120e-01
  2.453192e+01    8.776887e-01
  2.454779e+01    8.993307e-01
  2.456367e+01    8.963836e-01
  2.457954e+01    8.862011e-01
  2.459542e+01    8.893151e-01
  2.461130e+01    8.962326e-01
  2.462717e+01    8.976402e-01
  2.464305e+01    8.898017e-01
  2.465892e+01    8.892618e-01
  2.467480e+01    8.860918e-01
  2.469067e+01    9.116465e-01
  2.470655e+01    9.105819e-01
  2.472242e+01    9.059973e-01
  2.473830e+01    9.064881e-01
  2.475418e+01    8.964532e-01
  2.477005e+01    8.899736e-01
  2.478593e+01    9.073825e-01
  2.480180e+01    9.125496e-01
  2.481768e+01    8.936846e-01
  2.483355e+01    8.909799e-01
  2.484943e+01    9.022165e-01
  2.486530e+01    9.005736e-01
  2.488118e+01    8.973436e-01
  2.489706e+01    9.000320e-01
  2.491293e+01    8.995457e-01
  2.492881e+01    9.150606e-01
  2.494468e+01    9.323643e-01
  2.496056e+01    9.086652e-01
  2.497643e+01    8.887584e-01
  2.499231e+01    9.090489e-01
  2.500819e+01    9.100903e-01
  2.502406e+01    9.127420e-01
  2.503994e+01    9.000294e-01
  2.505581e+01    8.938015e-01
  2.507169e+01    9.108142e-01
  2.508756e+01    9.066253e-01
  2.510344e+01    8.983038e-01
  2.511931e+01    8.961459e-01
  2.513519e+01    9.063858e-01
  2.515107e+01    8.932633e-01
  2.516694e+01    9.135602e-01
  2.518282e+01    9.184977e-01
  2.519869e+01    9.041733e-01
  2.521457e+01    9.204130e-01
  2.523044e+01    9.383227e-01
  2.524632e+01    9.445799e-01
  2.526219e+01    9.553390e-01
  2.527807e+01    9.316415e-01
  2.529395e+01    9.422984e-01
  2.530982e+01    9.565145e-01
  2.532570e+01    9.496108e-01
  2.534157e+01    9.605340e-01
  2.535745e+01    9.924188e-01
  2.537332e+01    9.877535e-01
  2.538920e+01    9.745454e-01
  2.540507e+01    9.932496e-01
  2.542095e+01    1.003308e+00
  2.543683e+01    1.020415e+00
  2.545270e+01    1.018043e+00
  2.546858e+01    1.026376e+00
  2.548445e+01    1.033955e+00
  2.550033e+01    1.058637e+00
  2.551620e+01    1.067772e+00
  2.553208e+01    1.081357e+00
  2.554795e+01    1.115514e+00
  2.556383e+01    1.144002e+00
  2.557971e+01    1.168413e+00
  2.559558e+01    1.202554e+00
  2.561146e+01    1.231080e+00
  2.562733e+01    1.273734e+00
  2.564321e+01    1.283905e+00
  2.565908e+01    1.341839e+00
  2.567496e+01    1.418533e+00
  2.569083e+01    1.521148e+00
  2.570671e+01    1.608044e+00
  2.572259e+01    1.720815e+00
  2.573846e+01    1.857453e+00
  2.575434e+01    2.058244e+00
  2.577021e+01    2.249965e+00
  2.578609e+01    2.494873e+00
  2.580196e+01    2.798783e+00
  2.581784e+01    3.193721e+00
  2.583371e+01    3.614733e+00
  2.584959e+01    4.136819e+00
  2.586547e+01    4.746362e+00
  2.588134e+01    5.276379e+00
  2.589722e+01    5.852954e+00
  2.591309e+01    6.390690e+00
  2.592897e+01    6.833167e+00
  2.594484e+01    7.093115e+00
  2.596072e+01    7.169637e+00
  2.597660e+01    7.045930e+00
  2.599247e+01    6.596202e+00
  2.600835e+01    6.020768e+00
  2.602422e+01    5.344470e+00
  2.604010e+01    4.668496e+00
  2.605597e+01    4.029188e+00
  2.607185e+01    3.468454e+00
  2.608772e+01    3.004545e+00
  2.610360e+01    2.643119e+00
  2.611948e+01    2.331081e+00
  2.613535e+01    2.120916e+00
  2.615123e+01    1.963774e+00
  2.616710e+01    1.842291e+00
  2.618298e+01    1.714440e+00
  2.619885e+01    1.581709e+00
  2.621473e+01    1.508812e+00
  2.623060e+01    1.420927e+00
  2.624648e+01    1.370973e+00
  2.626236e+01    1.300654e+00
  2.627823e+01    1.259011e+00
  2.629411e+01    1.220712e+00
  2.630998e+01    1.176866e+00
  2.632586e+01    1.161231e+00
  2.634173e+01    1.136226e+00
  2.635761e+01    1.110180e+00
  2.637348e+01    1.059092e+00
  2.638936e+01    1.073557e+00
  2.640524e+01    1.043080e+00
  2.642111e+01    1.037133e+00
  2.643699e+01    1.043322e+00
  2.645286e+01    1.022804e+00
  2.646874e+01    1.045498e+00
  2.648461e+01    1.021736e+00
  2.650049e+01    9.945335e-01
  2.651636e+01    1.000857e+00
  2.653224e+01    9.997048e-01
  2.654812e+01    1.001551e+00
  2.656399e+01    9.972030e-01
  2.657987e+01    1.015493e+00
  2.659574e+01    9.929339e-01
  2.661162e+01    1.001730e+00
  2.662749e+01    9.948607e-01
  2.664337e+01    9.729502e-01
  2.665924e+01    9.842186e-01
  2.667512e+01    9.731710e-01
  2.669100e+01    9.575962e-01
  2.670687e+01    9.747640e-01
  2.672275e+01    9.886604e-01
  2.673862e+01    9.991027e-01
  2.675450e+01    9.989848e-01
  2.677037e+01    9.944448e-01
  2.678625e+01    9.883887e-01
  2.680212e+01    9.805242e-01
  2.681800e+01    9.751729e-01
  2.683388e+01    9.783283e-01
  2.684975e+01    1.000345e+00
  2.686563e+01    1.012634e+00
  2.688150e+01    1.008009e+00
  2.689738e+01    1.026284e+00
  2.691325e+01    1.023063e+00
  2.692913e+01    1.037680e+00
  2.694501e+01    1.061800e+00
  2.696088e+01    1.060732e+00
  2.697676e+01    1.065715e+00
  2.699263e+01    1.109266e+00
  2.700851e+01    1.118798e+00
  2.702438e+01    1.182001e+00
  2.704026e+01    1.211082e+00
  2.705613e+01    1.236015e+00
  2.707201e+01    1.288050e+00
  2.708789e+01    1.399836e+00
  2.710376e+01    1.491005e+00
  2.711964e+01    1.603186e+00
  2.713551e+01    1.702906e+00
  2.715139e+01    1.861916e+00
  2.716726e+01    1.966481e+00
  2.718314e+01    2.054682e+00
  2.719901e+01    2.159652e+00
  2.721489e+01    2.204842e+00
  2.723077e+01    2.164250e+00
  2.724664e+01    2.121279e+00
  2.726252e+01    1.995454e+00
  2.727839e+01    1.869143e+00
  2.729427e+01    1.720124e+00
  2.731014e+01    1.548399e+00
  2.732602e+01    1.453847e+00
  2.734189e+01    1.362320e+00
  2.735777e+01    1.281770e+00
  2.737365e+01    1.229060e+00
  2.738952e+01    1.181929e+00
  2.740540e+01    1.137394e+00
  2.742127e+01    1.098363e+00
  2.743715e+01    1.066373e+00
  2.745302e+01    1.044496e+00
  2.746890e+01    1.023677e+00
  2.748477e+01    9.973608e-01
  2.750065e+01    9.804909e-01
  2.751653e+01    9.676676e-01
  2.753240e+01    9.484134e-01
  2.754828e+01    9.355998e-01
  2.756415e+01    9.465038e-01
  2.758003e+01    9.538774e-01
  2.759590e+01    9.479328e-01
  2.761178e+01    9.245882e-01
  2.762765e+01    9.183682e-01
  2.764353e+01    9.365255e-01
  2.765941e+01    9.169326e-01
  2.767528e+01    9.101424e-01
  2.769116e+01    9.102445e-01
  2.770703e+01    9.483848e-01
  2.772291e+01    9.272286e-01
  2.773878e+01    8.953376e-01
  2.775466e+01    9.013559e-01
  2.777054e+01    8.925810e-01
  2.778641e+01    8.845510e-01
  2.780229e+01    8.923840e-01
  2.781816e+01    8.821012e-01
  2.783404e+01    8.892974e-01
  2.784991e+01    8.778824e-01
  2.786579e+01    8.951919e-01
  2.788166e+01    9.044791e-01
  2.789754e+01    8.658990e-01
  2.791342e+01    8.676827e-01
  2.792929e+01    8.482054e-01
  2.794517e+01    8.601677e-01
  2.796104e+01    8.853223e-01
  2.797692e+01    8.821770e-01
  2.799279e+01    9.023210e-01
  2.800867e+01    8.797351e-01
  2.802454e+01    8.866017e-01
  2.804042e+01    8.976920e-01
  2.805630e+01    8.690655e-01
  2.807217e+01    8.556507e-01
  2.808805e+01    8.586124e-01
  2.810392e+01    8.652020e-01
  2.811980e+01    8.640881e-01
  2.813567e+01    8.614313e-01
  2.815155e+01    8.438700e-01
  2.816742e+01    8.700921e-01
  2.818330e+01    8.822325e-01
  2.819918e+01    8.397175e-01
  2.821505e+01    8.533545e-01
  2.823093e+01    8.622808e-01
  2.824680e+01    8.475345e-01
  2.826268e+01    8.449534e-01
  2.827855e+01    8.476578e-01
  2.829443e+01    8.707620e-01
  2.831030e+01    8.739092e-01
  2.832618e+01    8.624072e-01
  2.834206e+01    8.502364e-01
  2.835793e+01    8.624697e-01
  2.837381e+01    8.723840e-01
  2.838968e+01    8.715889e-01
  2.840556e+01    8.546480e-01
  2.842143e+01    8.440588e-01
  2.843731e+01    8.343287e-01
  2.845318e+01    8.384063e-01
  2.846906e+01    8.741801e-01
  2.848494e+01    8.664490e-01
  2.850081e+01    8.451103e-01
  2.851669e+01    8.343750e-01
  2.853256e+01    8.465164e-01
  2.854844e+01    8.256150e-01
  2.856431e+01    8.295954e-01
  2.858019e+01    8.426955e-01
  2.859606e+01    8.336710e-01
  2.861194e+01    8.404875e-01
  2.862782e+01    8.701808e-01
  2.864369e+01    8.476357e-01
  2.865957e+01    8.044144e-01
  2.867544e+01    8.385593e-01
  2.869132e+01    8.328531e-01
  2.870719e+01    8.325761e-01
  2.872307e+01    8.158582e-01
  2.873895e+01    8.344417e-01
  2.875482e+01    8.382598e-01
  2.877070e+01    8.309968e-01
  2.878657e+01    8.301316e-01
  2.880245e+01    8.549905e-01
  2.881832e+01    8.381913e-01
  2.883420e+01    8.162594e-01
  2.885007e+01    8.196981e-01
  2.886595e+01    8.190886e-01
  2.888183e+01    8.160945e-01
  2.889770e+01    8.261181e-01
  2.891358e+01    8.162695e-01
  2.892945e+01    8.067445e-01
  2.894533e+01    8.321964e-01
  2.896120e+01    8.144251e-01
  2.897708e+01    8.448968e-01
  2.899295e+01    8.112495e-01
  2.900883e+01    8.057946e-01
  2.902471e+01    8.296342e-01
  2.904058e+01    8.138434e-01
  2.905646e+01    8.350856e-01
  2.907233e+01    8.337246e-01
  2.908821e+01    8.366458e-01
  2.910408e+01    8.125983e-01
  2.911996e+01    8.229105e-01
  2.913583e+01    8.359559e-01
  2.915171e+01    8.275607e-01
  2.916759e+01    8.007121e-01
  2.918346e+01    8.337183e-01
  2.919934e+01    8.249550e-01
  2.921521e+01    8.187186e-01
  2.923109e+01    8.205910e-01
  2.924696e+01    8.140059e-01
  2.926284e+01    8.098184e-01
  2.927871e+01    8.176940e-01
  2.929459e+01    8.185871e-01
  2.931047e+01    8.158264e-01
  2.932634e+01    7.875912e-01
  2.934222e+01    7.921707e-01
  2.935809e+01    8.238101e-01
  2.937397e+01    8.190891e-01
  2.938984e+01    8.298426e-01
  2.940572e+01    8.316810e-01
  2.942159e+01    8.276904e-01
  2.943747e+01    8.095691e-01
  2.945335e+01    8.093451e-01
  2.946922e+01    8.055468e-01
  2.948510e+01    8.023843e-01
  2.950097e+01    7.973832e-01
  2.951685e+01    8.029202e-01
  2.953272e+01    8.044181e-01
  2.954860e+01    7.834420e-01
  2.956447e+01    7.855132e-01
  2.958035e+01    8.094993e-01
  2.959623e+01    8.189951e-01
  2.961210e+01    8.020636e-01
  2.962798e+01    8.293703e-01
  2.964385e+01    8.310015e-01
  2.965973e+01    7.848542e-01
  2.967560e+01    8.025202e-01
  2.969148e+01    8.024712e-01
  2.970736e+01    8.079094e-01
  2.972323e+01    8.052645e-01
  2.973911e+01    8.027851e-01
  2.975498e+01    8.200433e-01
  2.977086e+01    8.219079e-01
  2.978673e+01    8.233832e-01
  2.980261e+01    8.162349e-01
  2.981848e+01    7.986371e-01
  2.983436e+01    7.965677e-01
  2.985024e+01    8.037339e-01
  2.986611e+01    8.036920e-01
  2.988199e+01    8.053747e-01
  2.989786e+01    7.894689e-01
  2.991374e+01    7.981684e-01
  2.992961e+01    7.985105e-01
  2.994549e+01    7.949431e-01
  2.996136e+01    7.983997e-01
  2.997724e+01    8.037890e-01
  2.999312e+01    7.958167e-01
  3.000899e+01    7.923066e-01
  3.002487e+01    8.187892e-01
  3.004074e+01    8.111618e-01
  3.005662e+01    8.044109e-01
  3.007249e+01    8.081371e-01
  3.008837e+01    8.364810e-01
  3.010424e+01    8.128775e-01
  3.012012e+01    8.102164e-01
  3.013600e+01    8.013902e-01
  3.015187e+01    7.982151e-01
  3.016775e+01    8.023998e-01
  3.018362e+01    7.955220e-01
  3.019950e+01    8.019431e-01
  3.021537e+01    8.016989e-01
  3.023125e+01    7.999998e-01
  3.024712e+01    7.988252e-01
  3.026300e+01    7.985860e-01
  3.027888e+01    8.087379e-01
  3.029475e+01    7.989805e-01
  3.031063e+01    8.101048e-01
  3.032650e+01    7.950959e-01
  3.034238e+01    7.715279e-01
  3.035825e+01    7.881573e-01
  3.037413e+01    7.822923e-01
  3.039000e+01    7.700472e-01
  3.040588e+01    7.915455e-01
  3.042176e+01    8.037943e-01
  3.043763e+01    8.151608e-01
  3.045351e+01    8.140351e-01
  3.046938e+01    7.929256e-01
  3.048526e+01    7.903796e-01
  3.050113e+01    7.779773e-01
  3.051701e+01    7.848284e-01
  3.053288e+01    7.834876e-01
  3.054876e+01    7.994615e-01
  3.056464e+01    7.865927e-01
  3.058051e+01    7.808486e-01
  3.059639e+01    7.853037e-01
  3.061226e+01    7.799083e-01
  3.062814e+01    7.984506e-01
  3.064401e+01    7.986592e-01
  3.065989e+01    7.997741e-01
  3.067577e+01    7.929392e-01
  3.069164e+01    7.669477e-01
  3.070752e+01    7.870579e-01
  3.072339e+01    7.922562e-01
  3.073927e+01    7.960762e-01
  3.075514e+01    7.993308e-01
  3.077102e+01    8.206279e-01
  3.078689e+01    7.954903e-01
  3.080277e+01    7.838758e-01
  3.081865e+01    7.988015e-01
  3.083452e+01    7.711918e-01
  3.085040e+01    7.845578e-01
  3.086627e+01    7.876239e-01
  3.088215e+01    7.802646e-01
  3.089802e+01    8.013945e-01
  3.091390e+01    7.924054e-01
  3.092977e+01    7.883732e-01
  3.094565e+01    8.063159e-01
  3.096153e+01    7.975162e-01
  3.097740e+01    7.883769e-01
  3.099328e+01    7.895606e-01
  3.100915e+01    7.713853e-01
  3.102503e+01    7.865122e-01
  3.104090e+01    8.225073e-01
  3.105678e+01    7.868831e-01
  3.107265e+01    7.883401e-01
  3.108853e+01    7.858900e-01
  3.110441e+01    7.788067e-01
  3.112028e+01    7.701191e-01
  3.113616e+01    7.961042e-01
  3.115203e+01    8.021639e-01
  3.116791e+01    7.847195e-01
  3.118378e+01    7.796811e-01
  3.119966e+01    7.669981e-01
  3.121553e+01    7.866719e-01
  3.123141e+01    7.856241e-01
  3.124729e+01    7.946988e-01
  3.126316e+01    8.025237e-01
  3.127904e+01    8.009842e-01
  3.129491e+01    8.104216e-01
  3.131079e+01    8.181175e-01
  3.132666e+01    7.915457e-01
  3.134254e+01    7.768939e-01
  3.135841e+01    8.101153e-01
  3.137429e+01    8.274121e-01
  3.139017e+01    8.186265e-01
  3.140604e+01    7.985523e-01
  3.142192e+01    8.138528e-01
  3.143779e+01    7.910885e-01
  3.145367e+01    8.151839e-01
  3.146954e+01    8.257649e-01
  3.148542e+01    8.306852e-01
  3.150129e+01    8.177088e-01
  3.151717e+01    8.352133e-01
  3.153305e+01    8.570388e-01
  3.154892e+01    8.536464e-01
  3.156480e+01    8.701372e-01
  3.158067e+01    8.744726e-01
  3.159655e+01    8.776168e-01
  3.161242e+01    8.877884e-01
  3.162830e+01    9.129688e-01
  3.164418e+01    9.447147e-01
  3.166005e+01    9.611961e-01
  3.167593e+01    9.497099e-01
  3.169180e+01    1.018177e+00
  3.170768e+01    1.048987e+00
  3.172355e+01    1.071742e+00
  3.173943e+01    1.130226e+00
  3.175530e+01    1.180756e+00
  3.177118e+01    1.269175e+00
  3.178706e+01    1.366402e+00
  3.180293e+01    1.468019e+00
  3.181881e+01    1.595059e+00
  3.183468e+01    1.719631e+00
  3.185056e+01    1.867207e+00
  3.186643e+01    1.983983e+00
  3.188231e+01    2.066019e+00
  3.189818e+01    2.126975e+00
  3.191406e+01    2.087306e+00
  3.192994e+01    2.049773e+00
  3.194581e+01    1.959545e+00
  3.196169e+01    1.840204e+00
  3.197756e+01    1.715766e+00
  3.199344e+01    1.556414e+00
  3.200931e+01    1.438746e+00
  3.202519e+01    1.311574e+00
  3.204106e+01    1.224240e+00
  3.205694e+01    1.155416e+00
  3.207282e+01    1.090774e+00
  3.208869e+01    1.053432e+00
  3.210457e+01    9.893984e-01
  3.212044e+01    9.489352e-01
  3.213632e+01    9.480094e-01
  3.215219e+01    9.529919e-01
  3.216807e+01    9.110873e-01
  3.218394e+01    8.764323e-01
  3.219982e+01    8.619629e-01
  3.221570e+01    8.756692e-01
  3.223157e+01    8.662714e-01
  3.224745e+01    8.573153e-01
  3.226332e+01    8.308716e-01
  3.227920e+01    8.606091e-01
  3.229507e+01    8.453646e-01
  3.231095e+01    8.166715e-01
  3.232682e+01    8.089101e-01
  3.234270e+01    7.880631e-01
  3.235858e+01    8.073691e-01
  3.237445e+01    8.249981e-01
  3.239033e+01    8.074797e-01
  3.240620e+01    7.766344e-01
  3.242208e+01    7.914155e-01
  3.243795e+01    7.826290e-01
  3.245383e+01    7.870281e-01
  3.246970e+01    8.109468e-01
  3.248558e+01    8.081689e-01
  3.250146e+01    7.952833e-01
  3.251733e+01    7.644004e-01
  3.253321e+01    7.565885e-01
  3.254908e+01    7.696913e-01
