# == pyFAI calibration ==
# Distance Sample to Detector: 0.3999999939076516 m
# PONI: 9.750e-02, 1.135e-01 m
# Rotations: -0.000175 0.000000 -0.000000 rad
# 
# == Fit2d calibration ==
# Distance Sample-beamCenter: 400.000 mm
# Center: x=1514.000, y=1300.000 pix
# Tilt: 0.010 deg  TiltPlanRot: 0.010 deg
# 
# Detector Detector	 Spline= None	 PixelSize= 7.500e-05, 7.500e-05 m
#    Detector has a mask: False 
#    Detector has a dark current: False 
#    detector has a flat field: False 
# 
# Wavelength: 6.888e-11 m
# Mask applied: user provided
# Dark current applied: False
# Flat field applied: False
# Polarization factor: 0.99
# Normalization factor: 1.0
# --> /home/myspot/data/2024_07_Rosario/Ru-CGO-ex/2024-07-27_003_Ru-CGO-ex_Reaction_dwell_000023_data_000132.dat
#       q_nm^-1             I 
  2.003187e-02    1.542462e-01
  3.590745e-02    1.284284e-01
  5.178302e-02    0.000000e+00
  6.765859e-02    1.911910e-01
  8.353417e-02    2.739879e-01
  9.940974e-02    1.887397e-01
  1.152853e-01    1.734505e-01
  1.311609e-01    1.374123e-01
  1.470365e-01    1.380181e-02
  1.629120e-01    6.363619e-02
  1.787876e-01    9.365073e-02
  1.946632e-01    5.669341e-02
  2.105388e-01    7.523759e-03
  2.264143e-01    2.810712e-02
  2.422899e-01    3.373378e-02
  2.581655e-01    4.736640e-02
  2.740411e-01    4.397293e-02
  2.899166e-01    3.808535e-02
  3.057922e-01    2.479726e-02
  3.216678e-01    3.131736e-02
  3.375433e-01    3.646826e-02
  3.534189e-01    2.590074e-02
  3.692945e-01    2.235979e-02
  3.851701e-01    2.067831e-02
  4.010456e-01    1.647807e-02
  4.169212e-01    1.031003e-02
  4.327968e-01    8.283384e-02
  4.486724e-01    7.330361e-02
  4.645479e-01    4.248012e-02
  4.804235e-01    6.398002e-02
  4.962991e-01    6.046801e-02
  5.121747e-01    5.105882e-02
  5.280502e-01    3.973108e-02
  5.439258e-01    3.338960e-02
  5.598014e-01    3.338976e-02
  5.756770e-01    2.241392e-02
  5.915525e-01    4.523633e-02
  6.074281e-01    3.558926e-02
  6.233037e-01    2.765982e-02
  6.391793e-01    3.262842e-02
  6.550548e-01    4.088470e-02
  6.709304e-01    3.552311e-02
  6.868060e-01    2.760384e-02
  7.026815e-01    4.440295e-02
  7.185571e-01    6.709105e-02
  7.344327e-01    6.410387e-02
  7.503083e-01    7.947262e-02
  7.661838e-01    7.302967e-02
  7.820594e-01    8.964488e-02
  7.979350e-01    1.333753e-01
  8.138106e-01    1.877881e-01
  8.296861e-01    2.457784e-01
  8.455617e-01    3.194801e-01
  8.614373e-01    3.727731e-01
  8.773129e-01    4.576574e-01
  8.931884e-01    5.636502e-01
  9.090640e-01    6.341151e-01
  9.249396e-01    7.430610e-01
  9.408152e-01    8.704273e-01
  9.566907e-01    9.364319e-01
  9.725663e-01    1.065669e+00
  9.884419e-01    1.044299e+00
  1.004317e+00    1.213073e+00
  1.020193e+00    1.318572e+00
  1.036069e+00    1.428569e+00
  1.051944e+00    1.468771e+00
  1.067820e+00    1.493045e+00
  1.083695e+00    1.589056e+00
  1.099571e+00    1.623371e+00
  1.115446e+00    1.692070e+00
  1.131322e+00    1.772265e+00
  1.147198e+00    1.744651e+00
  1.163073e+00    1.695197e+00
  1.178949e+00    1.725886e+00
  1.194824e+00    1.894899e+00
  1.210700e+00    2.006238e+00
  1.226575e+00    2.242079e+00
  1.242451e+00    2.346288e+00
  1.258327e+00    2.440902e+00
  1.274202e+00    2.568275e+00
  1.290078e+00    2.843035e+00
  1.305953e+00    2.721488e+00
  1.321829e+00    2.684030e+00
  1.337705e+00    2.767366e+00
  1.353580e+00    2.839500e+00
  1.369456e+00    2.820092e+00
  1.385331e+00    2.787465e+00
  1.401207e+00    2.796700e+00
  1.417082e+00    2.991793e+00
  1.432958e+00    2.907667e+00
  1.448834e+00    2.886378e+00
  1.464709e+00    3.007160e+00
  1.480585e+00    3.106129e+00
  1.496460e+00    3.060944e+00
  1.512336e+00    3.131805e+00
  1.528211e+00    3.284339e+00
  1.544087e+00    3.285078e+00
  1.559963e+00    3.210012e+00
  1.575838e+00    3.230184e+00
  1.591714e+00    3.351075e+00
  1.607589e+00    3.113529e+00
  1.623465e+00    3.155614e+00
  1.639340e+00    3.068182e+00
  1.655216e+00    3.094105e+00
  1.671092e+00    3.090650e+00
  1.686967e+00    3.143126e+00
  1.702843e+00    3.141691e+00
  1.718718e+00    3.015477e+00
  1.734594e+00    3.111064e+00
  1.750469e+00    3.137040e+00
  1.766345e+00    3.203292e+00
  1.782221e+00    3.057852e+00
  1.798096e+00    3.079159e+00
  1.813972e+00    3.076628e+00
  1.829847e+00    3.136336e+00
  1.845723e+00    3.137650e+00
  1.861598e+00    2.969047e+00
  1.877474e+00    2.988431e+00
  1.893350e+00    3.137600e+00
  1.909225e+00    3.154648e+00
  1.925101e+00    3.115883e+00
  1.940976e+00    3.142929e+00
  1.956852e+00    3.106050e+00
  1.972727e+00    2.969486e+00
  1.988603e+00    3.044894e+00
  2.004479e+00    3.079118e+00
  2.020354e+00    2.999070e+00
  2.036230e+00    3.057328e+00
  2.052105e+00    3.146625e+00
  2.067981e+00    3.114527e+00
  2.083856e+00    3.176765e+00
  2.099732e+00    3.207212e+00
  2.115608e+00    3.077348e+00
  2.131483e+00    3.107621e+00
  2.147359e+00    3.067934e+00
  2.163234e+00    3.096918e+00
  2.179110e+00    3.157093e+00
  2.194985e+00    3.141905e+00
  2.210861e+00    3.083287e+00
  2.226737e+00    3.077318e+00
  2.242612e+00    3.132103e+00
  2.258488e+00    3.242904e+00
  2.274363e+00    3.205392e+00
  2.290239e+00    3.139619e+00
  2.306115e+00    3.229164e+00
  2.321990e+00    3.235878e+00
  2.337866e+00    3.096792e+00
  2.353741e+00    3.203947e+00
  2.369617e+00    3.293679e+00
  2.385492e+00    3.220904e+00
  2.401368e+00    3.144172e+00
  2.417244e+00    3.206563e+00
  2.433119e+00    3.264227e+00
  2.448995e+00    3.201661e+00
  2.464870e+00    3.066054e+00
  2.480746e+00    3.086074e+00
  2.496621e+00    3.223364e+00
  2.512497e+00    3.194340e+00
  2.528373e+00    3.086540e+00
  2.544248e+00    3.217772e+00
  2.560124e+00    3.073099e+00
  2.575999e+00    3.178233e+00
  2.591875e+00    3.247198e+00
  2.607750e+00    3.211867e+00
  2.623626e+00    3.210972e+00
  2.639502e+00    3.279630e+00
  2.655377e+00    3.264930e+00
  2.671253e+00    3.231666e+00
  2.687128e+00    3.244511e+00
  2.703004e+00    3.267354e+00
  2.718879e+00    3.237098e+00
  2.734755e+00    3.304231e+00
  2.750631e+00    3.235486e+00
  2.766506e+00    3.249730e+00
  2.782382e+00    3.309999e+00
  2.798257e+00    3.343632e+00
  2.814133e+00    3.324096e+00
  2.830008e+00    3.342656e+00
  2.845884e+00    3.295159e+00
  2.861760e+00    3.359495e+00
  2.877635e+00    3.335368e+00
  2.893511e+00    3.312791e+00
  2.909386e+00    3.314252e+00
  2.925262e+00    3.365571e+00
  2.941137e+00    3.281960e+00
  2.957013e+00    3.377670e+00
  2.972889e+00    3.371839e+00
  2.988764e+00    3.316966e+00
  3.004640e+00    3.351575e+00
  3.020515e+00    3.350081e+00
  3.036391e+00    3.288706e+00
  3.052266e+00    3.406333e+00
  3.068142e+00    3.380490e+00
  3.084018e+00    3.269834e+00
  3.099893e+00    3.293683e+00
  3.115769e+00    3.357969e+00
  3.131644e+00    3.342324e+00
  3.147520e+00    3.405926e+00
  3.163395e+00    3.420426e+00
  3.179271e+00    3.246599e+00
  3.195147e+00    3.352906e+00
  3.211022e+00    3.424808e+00
  3.226898e+00    3.389241e+00
  3.242773e+00    3.399977e+00
  3.258649e+00    3.329653e+00
  3.274525e+00    3.222246e+00
  3.290400e+00    3.347394e+00
  3.306276e+00    3.380991e+00
  3.322151e+00    3.448741e+00
  3.338027e+00    3.520237e+00
  3.353902e+00    3.476380e+00
  3.369778e+00    3.393216e+00
  3.385654e+00    3.417192e+00
  3.401529e+00    3.428778e+00
  3.417405e+00    3.436033e+00
  3.433280e+00    3.458488e+00
  3.449156e+00    3.446223e+00
  3.465031e+00    3.502992e+00
  3.480907e+00    3.489477e+00
  3.496783e+00    3.406801e+00
  3.512658e+00    3.397229e+00
  3.528534e+00    3.458225e+00
  3.544409e+00    3.490397e+00
  3.560285e+00    3.511918e+00
  3.576160e+00    3.385493e+00
  3.592036e+00    3.391340e+00
  3.607912e+00    3.492351e+00
  3.623787e+00    3.440572e+00
  3.639663e+00    3.359864e+00
  3.655538e+00    3.353710e+00
  3.671414e+00    3.417631e+00
  3.687289e+00    3.465092e+00
  3.703165e+00    3.450540e+00
  3.719041e+00    3.465754e+00
  3.734916e+00    3.451273e+00
  3.750792e+00    3.458017e+00
  3.766667e+00    3.520495e+00
  3.782543e+00    3.594447e+00
  3.798418e+00    3.548567e+00
  3.814294e+00    3.540625e+00
  3.830170e+00    3.566863e+00
  3.846045e+00    3.511328e+00
  3.861921e+00    3.537587e+00
  3.877796e+00    3.530465e+00
  3.893672e+00    3.573228e+00
  3.909547e+00    3.553787e+00
  3.925423e+00    3.653499e+00
  3.941299e+00    3.562562e+00
  3.957174e+00    3.517242e+00
  3.973050e+00    3.653785e+00
  3.988925e+00    3.549796e+00
  4.004801e+00    3.530568e+00
  4.020676e+00    3.518153e+00
  4.036552e+00    3.554281e+00
  4.052428e+00    3.582159e+00
  4.068303e+00    3.504394e+00
  4.084179e+00    3.517311e+00
  4.100054e+00    3.524626e+00
  4.115930e+00    3.504490e+00
  4.131806e+00    3.530681e+00
  4.147681e+00    3.583409e+00
  4.163557e+00    3.549137e+00
  4.179432e+00    3.676055e+00
  4.195308e+00    3.621205e+00
  4.211183e+00    3.556547e+00
  4.227059e+00    3.560483e+00
  4.242935e+00    3.613308e+00
  4.258810e+00    3.612762e+00
  4.274686e+00    3.671558e+00
  4.290561e+00    3.638638e+00
  4.306437e+00    3.640116e+00
  4.322312e+00    3.539815e+00
  4.338188e+00    3.564747e+00
  4.354064e+00    3.632158e+00
  4.369939e+00    3.682266e+00
  4.385815e+00    3.630404e+00
  4.401690e+00    3.585454e+00
  4.417566e+00    3.567549e+00
  4.433441e+00    3.614744e+00
  4.449317e+00    3.651339e+00
  4.465193e+00    3.674762e+00
  4.481068e+00    3.632702e+00
  4.496944e+00    3.541397e+00
  4.512819e+00    3.611724e+00
  4.528695e+00    3.603556e+00
  4.544570e+00    3.640702e+00
  4.560446e+00    3.642038e+00
  4.576322e+00    3.691849e+00
  4.592197e+00    3.599984e+00
  4.608073e+00    3.595927e+00
  4.623948e+00    3.581890e+00
  4.639824e+00    3.672345e+00
  4.655699e+00    3.656707e+00
  4.671575e+00    3.639191e+00
  4.687451e+00    3.717818e+00
  4.703326e+00    3.657069e+00
  4.719202e+00    3.634739e+00
  4.735077e+00    3.664429e+00
  4.750953e+00    3.629094e+00
  4.766828e+00    3.596386e+00
  4.782704e+00    3.612881e+00
  4.798580e+00    3.625834e+00
  4.814455e+00    3.620326e+00
  4.830331e+00    3.562927e+00
  4.846206e+00    3.634582e+00
  4.862082e+00    3.647589e+00
  4.877957e+00    3.581160e+00
  4.893833e+00    3.607564e+00
  4.909709e+00    3.602626e+00
  4.925584e+00    3.647902e+00
  4.941460e+00    3.637306e+00
  4.957335e+00    3.691502e+00
  4.973211e+00    3.659755e+00
  4.989086e+00    3.649123e+00
  5.004962e+00    3.733467e+00
  5.020838e+00    3.628879e+00
  5.036713e+00    3.555770e+00
  5.052589e+00    3.579387e+00
  5.068464e+00    3.654112e+00
  5.084340e+00    3.686604e+00
  5.100216e+00    3.656571e+00
  5.116091e+00    3.673041e+00
  5.131967e+00    3.746672e+00
  5.147842e+00    3.719224e+00
  5.163718e+00    3.646494e+00
  5.179593e+00    3.707508e+00
  5.195469e+00    3.706069e+00
  5.211345e+00    3.736711e+00
  5.227220e+00    3.663046e+00
  5.243096e+00    3.639228e+00
  5.258971e+00    3.656545e+00
  5.274847e+00    3.699476e+00
  5.290722e+00    3.706374e+00
  5.306598e+00    3.720518e+00
  5.322474e+00    3.723011e+00
  5.338349e+00    3.736176e+00
  5.354225e+00    3.656354e+00
  5.370100e+00    3.670049e+00
  5.385976e+00    3.739333e+00
  5.401851e+00    3.696812e+00
  5.417727e+00    3.717932e+00
  5.433603e+00    3.672874e+00
  5.449478e+00    3.565209e+00
  5.465354e+00    3.619882e+00
  5.481229e+00    3.651635e+00
  5.497105e+00    3.704465e+00
  5.512980e+00    3.644593e+00
  5.528856e+00    3.607822e+00
  5.544732e+00    3.614850e+00
  5.560607e+00    3.585206e+00
  5.576483e+00    3.525664e+00
  5.592358e+00    3.568803e+00
  5.608234e+00    3.592726e+00
  5.624109e+00    3.563279e+00
  5.639985e+00    3.628495e+00
  5.655861e+00    3.611517e+00
  5.671736e+00    3.605594e+00
  5.687612e+00    3.579304e+00
  5.703487e+00    3.604152e+00
  5.719363e+00    3.634720e+00
  5.735238e+00    3.633768e+00
  5.751114e+00    3.557768e+00
  5.766990e+00    3.611517e+00
  5.782865e+00    3.586285e+00
  5.798741e+00    3.618248e+00
  5.814616e+00    3.634579e+00
  5.830492e+00    3.532850e+00
  5.846367e+00    3.596047e+00
  5.862243e+00    3.531201e+00
  5.878119e+00    3.642889e+00
  5.893994e+00    3.624359e+00
  5.909870e+00    3.576082e+00
  5.925745e+00    3.441331e+00
  5.941621e+00    3.563056e+00
  5.957497e+00    3.573371e+00
  5.973372e+00    3.439856e+00
  5.989248e+00    3.490595e+00
  6.005123e+00    3.548124e+00
  6.020999e+00    3.518905e+00
  6.036874e+00    3.573995e+00
  6.052750e+00    3.522013e+00
  6.068626e+00    3.547639e+00
  6.084501e+00    3.481450e+00
  6.100377e+00    3.553548e+00
  6.116252e+00    3.682634e+00
  6.132128e+00    3.611334e+00
  6.148003e+00    3.613878e+00
  6.163879e+00    3.608184e+00
  6.179755e+00    3.617547e+00
  6.195630e+00    3.585096e+00
  6.211506e+00    3.537575e+00
  6.227381e+00    3.541226e+00
  6.243257e+00    3.550454e+00
  6.259132e+00    3.581812e+00
  6.275008e+00    3.527482e+00
  6.290884e+00    3.600971e+00
  6.306759e+00    3.643355e+00
  6.322635e+00    3.613072e+00
  6.338510e+00    3.632015e+00
  6.354386e+00    3.586876e+00
  6.370261e+00    3.535764e+00
  6.386137e+00    3.480341e+00
  6.402013e+00    3.590808e+00
  6.417888e+00    3.548753e+00
  6.433764e+00    3.575571e+00
  6.449639e+00    3.562564e+00
  6.465515e+00    3.566262e+00
  6.481390e+00    3.538595e+00
  6.497266e+00    3.496801e+00
  6.513142e+00    3.465764e+00
  6.529017e+00    3.504867e+00
  6.544893e+00    3.534509e+00
  6.560768e+00    3.634806e+00
  6.576644e+00    3.618284e+00
  6.592519e+00    3.658414e+00
  6.608395e+00    3.555333e+00
  6.624271e+00    3.541197e+00
  6.640146e+00    3.621421e+00
  6.656022e+00    3.516820e+00
  6.671897e+00    3.569668e+00
  6.687773e+00    3.581442e+00
  6.703648e+00    3.571079e+00
  6.719524e+00    3.547988e+00
  6.735400e+00    3.498704e+00
  6.751275e+00    3.588112e+00
  6.767151e+00    3.565047e+00
  6.783026e+00    3.563578e+00
  6.798902e+00    3.609862e+00
  6.814777e+00    3.535428e+00
  6.830653e+00    3.563671e+00
  6.846529e+00    3.587978e+00
  6.862404e+00    3.611508e+00
  6.878280e+00    3.599386e+00
  6.894155e+00    3.532225e+00
  6.910031e+00    3.650314e+00
  6.925907e+00    3.616724e+00
  6.941782e+00    3.541084e+00
  6.957658e+00    3.574939e+00
  6.973533e+00    3.579553e+00
  6.989409e+00    3.566645e+00
  7.005284e+00    3.567400e+00
  7.021160e+00    3.651238e+00
  7.037036e+00    3.563294e+00
  7.052911e+00    3.559675e+00
  7.068787e+00    3.513673e+00
  7.084662e+00    3.527620e+00
  7.100538e+00    3.570889e+00
  7.116413e+00    3.547327e+00
  7.132289e+00    3.559282e+00
  7.148165e+00    3.576236e+00
  7.164040e+00    3.564490e+00
  7.179916e+00    3.551018e+00
  7.195791e+00    3.496643e+00
  7.211667e+00    3.501591e+00
  7.227542e+00    3.524783e+00
  7.243418e+00    3.508743e+00
  7.259294e+00    3.612570e+00
  7.275169e+00    3.602245e+00
  7.291045e+00    3.514921e+00
  7.306920e+00    3.523962e+00
  7.322796e+00    3.542169e+00
  7.338671e+00    3.517437e+00
  7.354547e+00    3.517371e+00
  7.370423e+00    3.575590e+00
  7.386298e+00    3.576962e+00
  7.402174e+00    3.574891e+00
  7.418049e+00    3.459363e+00
  7.433925e+00    3.481763e+00
  7.449800e+00    3.454287e+00
  7.465676e+00    3.468166e+00
  7.481552e+00    3.515125e+00
  7.497427e+00    3.497452e+00
  7.513303e+00    3.484973e+00
  7.529178e+00    3.505994e+00
  7.545054e+00    3.463197e+00
  7.560929e+00    3.438485e+00
  7.576805e+00    3.458240e+00
  7.592681e+00    3.515524e+00
  7.608556e+00    3.466192e+00
  7.624432e+00    3.475154e+00
  7.640307e+00    3.519467e+00
  7.656183e+00    3.477933e+00
  7.672058e+00    3.485576e+00
  7.687934e+00    3.488598e+00
  7.703810e+00    3.511395e+00
  7.719685e+00    3.467037e+00
  7.735561e+00    3.466544e+00
  7.751436e+00    3.510030e+00
  7.767312e+00    3.420085e+00
  7.783187e+00    3.394318e+00
  7.799063e+00    3.482128e+00
  7.814939e+00    3.487259e+00
  7.830814e+00    3.474836e+00
  7.846690e+00    3.475122e+00
  7.862565e+00    3.545836e+00
  7.878441e+00    3.458589e+00
  7.894317e+00    3.440864e+00
  7.910192e+00    3.435340e+00
  7.926068e+00    3.447137e+00
  7.941943e+00    3.398446e+00
  7.957819e+00    3.385706e+00
  7.973694e+00    3.387267e+00
  7.989570e+00    3.437040e+00
  8.005446e+00    3.478219e+00
  8.021321e+00    3.459229e+00
  8.037197e+00    3.421781e+00
  8.053072e+00    3.467623e+00
  8.068948e+00    3.438646e+00
  8.084823e+00    3.429991e+00
  8.100699e+00    3.467943e+00
  8.116575e+00    3.453453e+00
  8.132450e+00    3.458954e+00
  8.148326e+00    3.499152e+00
  8.164201e+00    3.488063e+00
  8.180077e+00    3.473509e+00
  8.195952e+00    3.520514e+00
  8.211828e+00    3.543156e+00
  8.227704e+00    3.497906e+00
  8.243579e+00    3.480426e+00
  8.259455e+00    3.466010e+00
  8.275330e+00    3.488157e+00
  8.291206e+00    3.411954e+00
  8.307081e+00    3.474487e+00
  8.322957e+00    3.471197e+00
  8.338833e+00    3.410585e+00
  8.354708e+00    3.452341e+00
  8.370584e+00    3.385760e+00
  8.386459e+00    3.402613e+00
  8.402335e+00    3.465253e+00
  8.418210e+00    3.391417e+00
  8.434086e+00    3.329463e+00
  8.449962e+00    3.413203e+00
  8.465837e+00    3.363866e+00
  8.481713e+00    3.351909e+00
  8.497588e+00    3.398271e+00
  8.513464e+00    3.413907e+00
  8.529339e+00    3.439600e+00
  8.545215e+00    3.391585e+00
  8.561091e+00    3.390578e+00
  8.576966e+00    3.345499e+00
  8.592842e+00    3.385305e+00
  8.608717e+00    3.417190e+00
  8.624593e+00    3.349675e+00
  8.640468e+00    3.390086e+00
  8.656344e+00    3.404041e+00
  8.672220e+00    3.323571e+00
  8.688095e+00    3.284279e+00
  8.703971e+00    3.308885e+00
  8.719846e+00    3.262239e+00
  8.735722e+00    3.286015e+00
  8.751598e+00    3.289602e+00
  8.767473e+00    3.274026e+00
  8.783349e+00    3.358413e+00
  8.799224e+00    3.319629e+00
  8.815100e+00    3.365534e+00
  8.830975e+00    3.376688e+00
  8.846851e+00    3.372361e+00
  8.862727e+00    3.274449e+00
  8.878602e+00    3.263753e+00
  8.894478e+00    3.341635e+00
  8.910353e+00    3.352261e+00
  8.926229e+00    3.346653e+00
  8.942104e+00    3.302539e+00
  8.957980e+00    3.259416e+00
  8.973856e+00    3.277287e+00
  8.989731e+00    3.327489e+00
  9.005607e+00    3.345958e+00
  9.021482e+00    3.265376e+00
  9.037358e+00    3.272768e+00
  9.053233e+00    3.227274e+00
  9.069109e+00    3.221435e+00
  9.084985e+00    3.261572e+00
  9.100860e+00    3.254605e+00
  9.116736e+00    3.303463e+00
  9.132611e+00    3.276899e+00
  9.148487e+00    3.258679e+00
  9.164362e+00    3.293873e+00
  9.180238e+00    3.247441e+00
  9.196114e+00    3.230884e+00
  9.211989e+00    3.212072e+00
  9.227865e+00    3.305851e+00
  9.243740e+00    3.307282e+00
  9.259616e+00    3.209862e+00
  9.275491e+00    3.256283e+00
  9.291367e+00    3.337988e+00
  9.307243e+00    3.318648e+00
  9.323118e+00    3.291572e+00
  9.338994e+00    3.225539e+00
  9.354869e+00    3.211064e+00
  9.370745e+00    3.282002e+00
  9.386620e+00    3.269407e+00
  9.402496e+00    3.212023e+00
  9.418372e+00    3.224106e+00
  9.434247e+00    3.201415e+00
  9.450123e+00    3.246887e+00
  9.465998e+00    3.206935e+00
  9.481874e+00    3.264135e+00
  9.497749e+00    3.270811e+00
  9.513625e+00    3.247791e+00
  9.529501e+00    3.320783e+00
  9.545376e+00    3.259717e+00
  9.561252e+00    3.214268e+00
  9.577127e+00    3.259481e+00
  9.593003e+00    3.220668e+00
  9.608878e+00    3.167365e+00
  9.624754e+00    3.160120e+00
  9.640630e+00    3.190565e+00
  9.656505e+00    3.203655e+00
  9.672381e+00    3.241853e+00
  9.688256e+00    3.214282e+00
  9.704132e+00    3.200831e+00
  9.720008e+00    3.214607e+00
  9.735883e+00    3.199884e+00
  9.751759e+00    3.176666e+00
  9.767634e+00    3.194167e+00
  9.783510e+00    3.170612e+00
  9.799385e+00    3.170406e+00
  9.815261e+00    3.220044e+00
  9.831137e+00    3.199903e+00
  9.847012e+00    3.148984e+00
  9.862888e+00    3.197038e+00
  9.878763e+00    3.211769e+00
  9.894639e+00    3.177869e+00
  9.910514e+00    3.160338e+00
  9.926390e+00    3.161798e+00
  9.942266e+00    3.102204e+00
  9.958141e+00    3.125055e+00
  9.974017e+00    3.094626e+00
  9.989892e+00    3.099485e+00
  1.000577e+01    3.086533e+00
  1.002164e+01    3.074608e+00
  1.003752e+01    3.119434e+00
  1.005339e+01    3.068715e+00
  1.006927e+01    3.086503e+00
  1.008515e+01    3.089314e+00
  1.010102e+01    3.123157e+00
  1.011690e+01    3.110293e+00
  1.013277e+01    3.093819e+00
  1.014865e+01    3.135565e+00
  1.016452e+01    3.119845e+00
  1.018040e+01    3.101522e+00
  1.019627e+01    3.081015e+00
  1.021215e+01    3.060219e+00
  1.022803e+01    3.093826e+00
  1.024390e+01    3.076256e+00
  1.025978e+01    3.059306e+00
  1.027565e+01    3.111090e+00
  1.029153e+01    3.108971e+00
  1.030740e+01    3.041968e+00
  1.032328e+01    3.048122e+00
  1.033915e+01    3.044627e+00
  1.035503e+01    3.035779e+00
  1.037091e+01    3.063609e+00
  1.038678e+01    3.061711e+00
  1.040266e+01    3.046323e+00
  1.041853e+01    3.044490e+00
  1.043441e+01    3.055996e+00
  1.045028e+01    3.073707e+00
  1.046616e+01    3.059890e+00
  1.048204e+01    3.051897e+00
  1.049791e+01    3.025721e+00
  1.051379e+01    2.994291e+00
  1.052966e+01    2.980329e+00
  1.054554e+01    3.105928e+00
  1.056141e+01    3.072865e+00
  1.057729e+01    3.026635e+00
  1.059316e+01    3.013000e+00
  1.060904e+01    3.029991e+00
  1.062492e+01    3.030234e+00
  1.064079e+01    3.016221e+00
  1.065667e+01    3.018447e+00
  1.067254e+01    3.030255e+00
  1.068842e+01    3.069194e+00
  1.070429e+01    2.980236e+00
  1.072017e+01    2.963672e+00
  1.073604e+01    3.021751e+00
  1.075192e+01    2.953354e+00
  1.076780e+01    2.947721e+00
  1.078367e+01    3.022327e+00
  1.079955e+01    2.956698e+00
  1.081542e+01    2.961755e+00
  1.083130e+01    3.034858e+00
  1.084717e+01    2.970245e+00
  1.086305e+01    2.985260e+00
  1.087892e+01    2.957083e+00
  1.089480e+01    2.916204e+00
  1.091068e+01    2.902705e+00
  1.092655e+01    2.896581e+00
  1.094243e+01    2.923544e+00
  1.095830e+01    2.988500e+00
  1.097418e+01    2.963256e+00
  1.099005e+01    2.923061e+00
  1.100593e+01    2.874069e+00
  1.102180e+01    2.907297e+00
  1.103768e+01    2.881653e+00
  1.105356e+01    2.906703e+00
  1.106943e+01    2.917637e+00
  1.108531e+01    2.891990e+00
  1.110118e+01    2.934085e+00
  1.111706e+01    2.907505e+00
  1.113293e+01    2.864151e+00
  1.114881e+01    2.858937e+00
  1.116468e+01    2.911644e+00
  1.118056e+01    2.906985e+00
  1.119644e+01    2.894245e+00
  1.121231e+01    2.829380e+00
  1.122819e+01    2.819568e+00
  1.124406e+01    2.841290e+00
  1.125994e+01    2.864474e+00
  1.127581e+01    2.850630e+00
  1.129169e+01    2.869312e+00
  1.130756e+01    2.913393e+00
  1.132344e+01    2.887941e+00
  1.133932e+01    2.871304e+00
  1.135519e+01    2.830019e+00
  1.137107e+01    2.853039e+00
  1.138694e+01    2.818136e+00
  1.140282e+01    2.811976e+00
  1.141869e+01    2.814949e+00
  1.143457e+01    2.870466e+00
  1.145045e+01    2.789856e+00
  1.146632e+01    2.774381e+00
  1.148220e+01    2.783095e+00
  1.149807e+01    2.782320e+00
  1.151395e+01    2.815638e+00
  1.152982e+01    2.825311e+00
  1.154570e+01    2.762712e+00
  1.156157e+01    2.750574e+00
  1.157745e+01    2.754048e+00
  1.159333e+01    2.733013e+00
  1.160920e+01    2.708153e+00
  1.162508e+01    2.751976e+00
  1.164095e+01    2.798106e+00
  1.165683e+01    2.852814e+00
  1.167270e+01    2.793483e+00
  1.168858e+01    2.760864e+00
  1.170445e+01    2.752755e+00
  1.172033e+01    2.769233e+00
  1.173621e+01    2.753827e+00
  1.175208e+01    2.732707e+00
  1.176796e+01    2.735670e+00
  1.178383e+01    2.713274e+00
  1.179971e+01    2.737586e+00
  1.181558e+01    2.708086e+00
  1.183146e+01    2.730519e+00
  1.184733e+01    2.731730e+00
  1.186321e+01    2.736018e+00
  1.187909e+01    2.754212e+00
  1.189496e+01    2.731191e+00
  1.191084e+01    2.797631e+00
  1.192671e+01    2.799127e+00
  1.194259e+01    2.762860e+00
  1.195846e+01    2.702895e+00
  1.197434e+01    2.712352e+00
  1.199021e+01    2.769808e+00
  1.200609e+01    2.766054e+00
  1.202197e+01    2.771420e+00
  1.203784e+01    2.706819e+00
  1.205372e+01    2.689015e+00
  1.206959e+01    2.715718e+00
  1.208547e+01    2.728041e+00
  1.210134e+01    2.679271e+00
  1.211722e+01    2.741767e+00
  1.213309e+01    2.707324e+00
  1.214897e+01    2.696435e+00
  1.216485e+01    2.713066e+00
  1.218072e+01    2.678581e+00
  1.219660e+01    2.693846e+00
  1.221247e+01    2.759930e+00
  1.222835e+01    2.733352e+00
  1.224422e+01    2.690847e+00
  1.226010e+01    2.709614e+00
  1.227597e+01    2.723394e+00
  1.229185e+01    2.735147e+00
  1.230773e+01    2.715821e+00
  1.232360e+01    2.706199e+00
  1.233948e+01    2.689442e+00
  1.235535e+01    2.759263e+00
  1.237123e+01    2.743222e+00
  1.238710e+01    2.714800e+00
  1.240298e+01    2.681983e+00
  1.241886e+01    2.679682e+00
  1.243473e+01    2.700466e+00
  1.245061e+01    2.715260e+00
  1.246648e+01    2.769249e+00
  1.248236e+01    2.735483e+00
  1.249823e+01    2.720296e+00
  1.251411e+01    2.698340e+00
  1.252998e+01    2.724002e+00
  1.254586e+01    2.733985e+00
  1.256174e+01    2.741203e+00
  1.257761e+01    2.766299e+00
  1.259349e+01    2.798203e+00
  1.260936e+01    2.811399e+00
  1.262524e+01    2.768932e+00
  1.264111e+01    2.730875e+00
  1.265699e+01    2.730620e+00
  1.267286e+01    2.770709e+00
  1.268874e+01    2.802212e+00
  1.270462e+01    2.846099e+00
  1.272049e+01    2.895929e+00
  1.273637e+01    2.899009e+00
  1.275224e+01    2.905771e+00
  1.276812e+01    2.941101e+00
  1.278399e+01    2.983213e+00
  1.279987e+01    3.008006e+00
  1.281574e+01    3.033664e+00
  1.283162e+01    3.108098e+00
  1.284750e+01    3.164538e+00
  1.286337e+01    3.304541e+00
  1.287925e+01    3.403228e+00
  1.289512e+01    3.510679e+00
  1.291100e+01    3.685150e+00
  1.292687e+01    3.829653e+00
  1.294275e+01    4.075636e+00
  1.295862e+01    4.451086e+00
  1.297450e+01    4.822752e+00
  1.299038e+01    5.291782e+00
  1.300625e+01    5.864069e+00
  1.302213e+01    6.622688e+00
  1.303800e+01    7.606438e+00
  1.305388e+01    8.807957e+00
  1.306975e+01    1.012217e+01
  1.308563e+01    1.134922e+01
  1.310150e+01    1.267545e+01
  1.311738e+01    1.392270e+01
  1.313326e+01    1.485667e+01
  1.314913e+01    1.574590e+01
  1.316501e+01    1.639677e+01
  1.318088e+01    1.632224e+01
  1.319676e+01    1.567769e+01
  1.321263e+01    1.454867e+01
  1.322851e+01    1.269604e+01
  1.324438e+01    1.087038e+01
  1.326026e+01    9.211669e+00
  1.327614e+01    7.892066e+00
  1.329201e+01    6.769319e+00
  1.330789e+01    6.015437e+00
  1.332376e+01    5.406619e+00
  1.333964e+01    4.829936e+00
  1.335551e+01    4.442633e+00
  1.337139e+01    4.133046e+00
  1.338727e+01    3.902534e+00
  1.340314e+01    3.680727e+00
  1.341902e+01    3.544663e+00
  1.343489e+01    3.417088e+00
  1.345077e+01    3.305851e+00
  1.346664e+01    3.163227e+00
  1.348252e+01    3.022244e+00
  1.349839e+01    3.022764e+00
  1.351427e+01    2.962249e+00
  1.353015e+01    2.851691e+00
  1.354602e+01    2.792646e+00
  1.356190e+01    2.781292e+00
  1.357777e+01    2.776686e+00
  1.359365e+01    2.796546e+00
  1.360952e+01    2.747865e+00
  1.362540e+01    2.649283e+00
  1.364127e+01    2.656372e+00
  1.365715e+01    2.638801e+00
  1.367303e+01    2.574866e+00
  1.368890e+01    2.516263e+00
  1.370478e+01    2.538634e+00
  1.372065e+01    2.530542e+00
  1.373653e+01    2.531974e+00
  1.375240e+01    2.531614e+00
  1.376828e+01    2.531507e+00
  1.378415e+01    2.454756e+00
  1.380003e+01    2.467077e+00
  1.381591e+01    2.491936e+00
  1.383178e+01    2.464806e+00
  1.384766e+01    2.471514e+00
  1.386353e+01    2.415140e+00
  1.387941e+01    2.435485e+00
  1.389528e+01    2.442379e+00
  1.391116e+01    2.409410e+00
  1.392703e+01    2.424767e+00
  1.394291e+01    2.424873e+00
  1.395879e+01    2.425001e+00
  1.397466e+01    2.434898e+00
  1.399054e+01    2.414375e+00
  1.400641e+01    2.378644e+00
  1.402229e+01    2.371778e+00
  1.403816e+01    2.364755e+00
  1.405404e+01    2.336210e+00
  1.406991e+01    2.352925e+00
  1.408579e+01    2.360062e+00
  1.410167e+01    2.376672e+00
  1.411754e+01    2.404866e+00
  1.413342e+01    2.360392e+00
  1.414929e+01    2.328452e+00
  1.416517e+01    2.308965e+00
  1.418104e+01    2.301335e+00
  1.419692e+01    2.304684e+00
  1.421279e+01    2.347125e+00
  1.422867e+01    2.311474e+00
  1.424455e+01    2.327985e+00
  1.426042e+01    2.320332e+00
  1.427630e+01    2.301880e+00
  1.429217e+01    2.268891e+00
  1.430805e+01    2.274729e+00
  1.432392e+01    2.292682e+00
  1.433980e+01    2.275681e+00
  1.435568e+01    2.267160e+00
  1.437155e+01    2.264645e+00
  1.438743e+01    2.270437e+00
  1.440330e+01    2.269352e+00
  1.441918e+01    2.247133e+00
  1.443505e+01    2.267615e+00
  1.445093e+01    2.281356e+00
  1.446680e+01    2.231710e+00
  1.448268e+01    2.225391e+00
  1.449856e+01    2.174007e+00
  1.451443e+01    2.234018e+00
  1.453031e+01    2.242236e+00
  1.454618e+01    2.260293e+00
  1.456206e+01    2.259437e+00
  1.457793e+01    2.207660e+00
  1.459381e+01    2.231209e+00
  1.460968e+01    2.264445e+00
  1.462556e+01    2.271909e+00
  1.464144e+01    2.232116e+00
  1.465731e+01    2.218574e+00
  1.467319e+01    2.219063e+00
  1.468906e+01    2.221079e+00
  1.470494e+01    2.236863e+00
  1.472081e+01    2.201880e+00
  1.473669e+01    2.261756e+00
  1.475256e+01    2.205462e+00
  1.476844e+01    2.224398e+00
  1.478432e+01    2.235844e+00
  1.480019e+01    2.204231e+00
  1.481607e+01    2.173037e+00
  1.483194e+01    2.168597e+00
  1.484782e+01    2.213006e+00
  1.486369e+01    2.218597e+00
  1.487957e+01    2.208150e+00
  1.489544e+01    2.247092e+00
  1.491132e+01    2.209263e+00
  1.492720e+01    2.256987e+00
  1.494307e+01    2.305449e+00
  1.495895e+01    2.330028e+00
  1.497482e+01    2.348197e+00
  1.499070e+01    2.369876e+00
  1.500657e+01    2.467518e+00
  1.502245e+01    2.533802e+00
  1.503832e+01    2.581380e+00
  1.505420e+01    2.692039e+00
  1.507008e+01    2.843482e+00
  1.508595e+01    2.987869e+00
  1.510183e+01    3.137622e+00
  1.511770e+01    3.365262e+00
  1.513358e+01    3.713340e+00
  1.514945e+01    4.132323e+00
  1.516533e+01    4.554557e+00
  1.518120e+01    4.891608e+00
  1.519708e+01    5.216369e+00
  1.521296e+01    5.438210e+00
  1.522883e+01    5.601287e+00
  1.524471e+01    5.719244e+00
  1.526058e+01    5.720463e+00
  1.527646e+01    5.733927e+00
  1.529233e+01    5.457596e+00
  1.530821e+01    5.104380e+00
  1.532409e+01    4.678555e+00
  1.533996e+01    4.223626e+00
  1.535584e+01    3.822102e+00
  1.537171e+01    3.478591e+00
  1.538759e+01    3.185683e+00
  1.540346e+01    2.876189e+00
  1.541934e+01    2.752330e+00
  1.543521e+01    2.669133e+00
  1.545109e+01    2.530977e+00
  1.546697e+01    2.414365e+00
  1.548284e+01    2.357285e+00
  1.549872e+01    2.300180e+00
  1.551459e+01    2.278041e+00
  1.553047e+01    2.250802e+00
  1.554634e+01    2.191483e+00
  1.556222e+01    2.173815e+00
  1.557809e+01    2.156534e+00
  1.559397e+01    2.147343e+00
  1.560985e+01    2.139180e+00
  1.562572e+01    2.083971e+00
  1.564160e+01    2.003654e+00
  1.565747e+01    2.019066e+00
  1.567335e+01    2.018981e+00
  1.568922e+01    2.045901e+00
  1.570510e+01    2.028464e+00
  1.572097e+01    2.002489e+00
  1.573685e+01    1.966692e+00
  1.575273e+01    1.922746e+00
  1.576860e+01    1.961851e+00
  1.578448e+01    1.942894e+00
  1.580035e+01    1.932687e+00
  1.581623e+01    1.949452e+00
  1.583210e+01    1.959730e+00
  1.584798e+01    1.959547e+00
  1.586385e+01    1.923565e+00
  1.587973e+01    1.903624e+00
  1.589561e+01    1.907239e+00
  1.591148e+01    1.903372e+00
  1.592736e+01    1.893135e+00
  1.594323e+01    1.890419e+00
  1.595911e+01    1.887982e+00
  1.597498e+01    1.877998e+00
  1.599086e+01    1.867820e+00
  1.600673e+01    1.888429e+00
  1.602261e+01    1.908141e+00
  1.603849e+01    1.880744e+00
  1.605436e+01    1.847865e+00
  1.607024e+01    1.869829e+00
  1.608611e+01    1.887274e+00
  1.610199e+01    1.881200e+00
  1.611786e+01    1.868674e+00
  1.613374e+01    1.825012e+00
  1.614961e+01    1.807309e+00
  1.616549e+01    1.827310e+00
  1.618137e+01    1.850215e+00
  1.619724e+01    1.867960e+00
  1.621312e+01    1.827705e+00
  1.622899e+01    1.832325e+00
  1.624487e+01    1.837131e+00
  1.626074e+01    1.840678e+00
  1.627662e+01    1.852740e+00
  1.629250e+01    1.831797e+00
  1.630837e+01    1.809716e+00
  1.632425e+01    1.811500e+00
  1.634012e+01    1.823480e+00
  1.635600e+01    1.800113e+00
  1.637187e+01    1.801227e+00
  1.638775e+01    1.801232e+00
  1.640362e+01    1.804715e+00
  1.641950e+01    1.802411e+00
  1.643538e+01    1.781517e+00
  1.645125e+01    1.771870e+00
  1.646713e+01    1.767182e+00
  1.648300e+01    1.807783e+00
  1.649888e+01    1.778666e+00
  1.651475e+01    1.761243e+00
  1.653063e+01    1.749565e+00
  1.654650e+01    1.770772e+00
  1.656238e+01    1.762934e+00
  1.657826e+01    1.772877e+00
  1.659413e+01    1.743722e+00
  1.661001e+01    1.737083e+00
  1.662588e+01    1.726254e+00
  1.664176e+01    1.777598e+00
  1.665763e+01    1.727625e+00
  1.667351e+01    1.744432e+00
  1.668938e+01    1.757554e+00
  1.670526e+01    1.740541e+00
  1.672114e+01    1.718193e+00
  1.673701e+01    1.696842e+00
  1.675289e+01    1.731354e+00
  1.676876e+01    1.747917e+00
  1.678464e+01    1.733418e+00
  1.680051e+01    1.725570e+00
  1.681639e+01    1.716569e+00
  1.683226e+01    1.701529e+00
  1.684814e+01    1.715686e+00
  1.686402e+01    1.696254e+00
  1.687989e+01    1.697420e+00
  1.689577e+01    1.708164e+00
  1.691164e+01    1.701645e+00
  1.692752e+01    1.715629e+00
  1.694339e+01    1.713785e+00
  1.695927e+01    1.696480e+00
  1.697514e+01    1.708196e+00
  1.699102e+01    1.708658e+00
  1.700690e+01    1.696660e+00
  1.702277e+01    1.689135e+00
  1.703865e+01    1.675439e+00
  1.705452e+01    1.668082e+00
  1.707040e+01    1.651598e+00
  1.708627e+01    1.679571e+00
  1.710215e+01    1.664719e+00
  1.711802e+01    1.655409e+00
  1.713390e+01    1.660550e+00
  1.714978e+01    1.669764e+00
  1.716565e+01    1.644964e+00
  1.718153e+01    1.655042e+00
  1.719740e+01    1.638281e+00
  1.721328e+01    1.650720e+00
  1.722915e+01    1.639407e+00
  1.724503e+01    1.633443e+00
  1.726091e+01    1.625861e+00
  1.727678e+01    1.635284e+00
  1.729266e+01    1.606810e+00
  1.730853e+01    1.613991e+00
  1.732441e+01    1.622602e+00
  1.734028e+01    1.614000e+00
  1.735616e+01    1.627232e+00
  1.737203e+01    1.641005e+00
  1.738791e+01    1.626287e+00
  1.740379e+01    1.633227e+00
  1.741966e+01    1.606593e+00
  1.743554e+01    1.590650e+00
  1.745141e+01    1.585059e+00
  1.746729e+01    1.612280e+00
  1.748316e+01    1.595626e+00
  1.749904e+01    1.617470e+00
  1.751491e+01    1.597770e+00
  1.753079e+01    1.574763e+00
  1.754667e+01    1.565450e+00
  1.756254e+01    1.591686e+00
  1.757842e+01    1.599890e+00
  1.759429e+01    1.585046e+00
  1.761017e+01    1.570216e+00
  1.762604e+01    1.586381e+00
  1.764192e+01    1.574165e+00
  1.765779e+01    1.566440e+00
  1.767367e+01    1.561931e+00
  1.768955e+01    1.546623e+00
  1.770542e+01    1.528511e+00
  1.772130e+01    1.541874e+00
  1.773717e+01    1.546760e+00
  1.775305e+01    1.539066e+00
  1.776892e+01    1.549599e+00
  1.778480e+01    1.568325e+00
  1.780067e+01    1.553389e+00
  1.781655e+01    1.531183e+00
  1.783243e+01    1.528076e+00
  1.784830e+01    1.525894e+00
  1.786418e+01    1.524089e+00
  1.788005e+01    1.525815e+00
  1.789593e+01    1.533637e+00
  1.791180e+01    1.523633e+00
  1.792768e+01    1.536136e+00
  1.794355e+01    1.511619e+00
  1.795943e+01    1.498265e+00
  1.797531e+01    1.530338e+00
  1.799118e+01    1.560903e+00
  1.800706e+01    1.529641e+00
  1.802293e+01    1.533303e+00
  1.803881e+01    1.543880e+00
  1.805468e+01    1.517816e+00
  1.807056e+01    1.480405e+00
  1.808643e+01    1.520652e+00
  1.810231e+01    1.521407e+00
  1.811819e+01    1.501044e+00
  1.813406e+01    1.508483e+00
  1.814994e+01    1.502822e+00
  1.816581e+01    1.485166e+00
  1.818169e+01    1.482431e+00
  1.819756e+01    1.492832e+00
  1.821344e+01    1.493482e+00
  1.822932e+01    1.472430e+00
  1.824519e+01    1.488809e+00
  1.826107e+01    1.490925e+00
  1.827694e+01    1.468651e+00
  1.829282e+01    1.456958e+00
  1.830869e+01    1.477784e+00
  1.832457e+01    1.457142e+00
  1.834044e+01    1.452271e+00
  1.835632e+01    1.490589e+00
  1.837220e+01    1.496739e+00
  1.838807e+01    1.463402e+00
  1.840395e+01    1.457685e+00
  1.841982e+01    1.460545e+00
  1.843570e+01    1.446331e+00
  1.845157e+01    1.456890e+00
  1.846745e+01    1.423090e+00
  1.848332e+01    1.444321e+00
  1.849920e+01    1.474069e+00
  1.851508e+01    1.456719e+00
  1.853095e+01    1.464127e+00
  1.854683e+01    1.468967e+00
  1.856270e+01    1.440510e+00
  1.857858e+01    1.416551e+00
  1.859445e+01    1.399886e+00
  1.861033e+01    1.449720e+00
  1.862620e+01    1.421222e+00
  1.864208e+01    1.414274e+00
  1.865796e+01    1.465098e+00
  1.867383e+01    1.452937e+00
  1.868971e+01    1.441918e+00
  1.870558e+01    1.415292e+00
  1.872146e+01    1.404653e+00
  1.873733e+01    1.403492e+00
  1.875321e+01    1.428374e+00
  1.876908e+01    1.424123e+00
  1.878496e+01    1.419113e+00
  1.880084e+01    1.431866e+00
  1.881671e+01    1.430111e+00
  1.883259e+01    1.429718e+00
  1.884846e+01    1.413988e+00
  1.886434e+01    1.417420e+00
  1.888021e+01    1.392683e+00
  1.889609e+01    1.398934e+00
  1.891196e+01    1.407874e+00
  1.892784e+01    1.383478e+00
  1.894372e+01    1.390372e+00
  1.895959e+01    1.387469e+00
  1.897547e+01    1.376552e+00
  1.899134e+01    1.409013e+00
  1.900722e+01    1.408684e+00
  1.902309e+01    1.389502e+00
  1.903897e+01    1.391918e+00
  1.905484e+01    1.413890e+00
  1.907072e+01    1.393872e+00
  1.908660e+01    1.358157e+00
  1.910247e+01    1.379971e+00
  1.911835e+01    1.349502e+00
  1.913422e+01    1.376157e+00
  1.915010e+01    1.400700e+00
  1.916597e+01    1.406778e+00
  1.918185e+01    1.396565e+00
  1.919773e+01    1.378057e+00
  1.921360e+01    1.382607e+00
  1.922948e+01    1.372565e+00
  1.924535e+01    1.352171e+00
  1.926123e+01    1.359208e+00
  1.927710e+01    1.384370e+00
  1.929298e+01    1.390036e+00
  1.930885e+01    1.354289e+00
  1.932473e+01    1.349698e+00
  1.934061e+01    1.346736e+00
  1.935648e+01    1.329871e+00
  1.937236e+01    1.309769e+00
  1.938823e+01    1.344647e+00
  1.940411e+01    1.370276e+00
  1.941998e+01    1.354808e+00
  1.943586e+01    1.333634e+00
  1.945173e+01    1.327923e+00
  1.946761e+01    1.369725e+00
  1.948349e+01    1.359890e+00
  1.949936e+01    1.354435e+00
  1.951524e+01    1.342782e+00
  1.953111e+01    1.315568e+00
  1.954699e+01    1.324387e+00
  1.956286e+01    1.313883e+00
  1.957874e+01    1.312707e+00
  1.959461e+01    1.314622e+00
  1.961049e+01    1.326156e+00
  1.962637e+01    1.328852e+00
  1.964224e+01    1.331954e+00
  1.965812e+01    1.323977e+00
  1.967399e+01    1.288062e+00
  1.968987e+01    1.308694e+00
  1.970574e+01    1.333112e+00
  1.972162e+01    1.303012e+00
  1.973749e+01    1.299512e+00
  1.975337e+01    1.326176e+00
  1.976925e+01    1.305235e+00
  1.978512e+01    1.303387e+00
  1.980100e+01    1.284523e+00
  1.981687e+01    1.305918e+00
  1.983275e+01    1.294477e+00
  1.984862e+01    1.326579e+00
  1.986450e+01    1.322512e+00
  1.988037e+01    1.297893e+00
  1.989625e+01    1.304560e+00
  1.991213e+01    1.320377e+00
  1.992800e+01    1.316506e+00
  1.994388e+01    1.299411e+00
  1.995975e+01    1.298140e+00
  1.997563e+01    1.281142e+00
  1.999150e+01    1.278480e+00
  2.000738e+01    1.286327e+00
  2.002325e+01    1.284282e+00
  2.003913e+01    1.284418e+00
  2.005501e+01    1.281541e+00
  2.007088e+01    1.270787e+00
  2.008676e+01    1.275629e+00
  2.010263e+01    1.276772e+00
  2.011851e+01    1.285483e+00
  2.013438e+01    1.294710e+00
  2.015026e+01    1.271763e+00
  2.016614e+01    1.270385e+00
  2.018201e+01    1.270071e+00
  2.019789e+01    1.281348e+00
  2.021376e+01    1.272610e+00
  2.022964e+01    1.265805e+00
  2.024551e+01    1.287676e+00
  2.026139e+01    1.278386e+00
  2.027726e+01    1.264955e+00
  2.029314e+01    1.255167e+00
  2.030902e+01    1.290446e+00
  2.032489e+01    1.272905e+00
  2.034077e+01    1.252692e+00
  2.035664e+01    1.249640e+00
  2.037252e+01    1.254276e+00
  2.038839e+01    1.228979e+00
  2.040427e+01    1.264858e+00
  2.042014e+01    1.255205e+00
  2.043602e+01    1.239886e+00
  2.045190e+01    1.239255e+00
  2.046777e+01    1.222698e+00
  2.048365e+01    1.253634e+00
  2.049952e+01    1.241145e+00
  2.051540e+01    1.212917e+00
  2.053127e+01    1.252726e+00
  2.054715e+01    1.252989e+00
  2.056302e+01    1.241812e+00
  2.057890e+01    1.235385e+00
  2.059478e+01    1.253620e+00
  2.061065e+01    1.244979e+00
  2.062653e+01    1.248899e+00
  2.064240e+01    1.228909e+00
  2.065828e+01    1.209464e+00
  2.067415e+01    1.231019e+00
  2.069003e+01    1.251326e+00
  2.070590e+01    1.224646e+00
  2.072178e+01    1.238668e+00
  2.073766e+01    1.254790e+00
  2.075353e+01    1.224408e+00
  2.076941e+01    1.255326e+00
  2.078528e+01    1.237900e+00
  2.080116e+01    1.234669e+00
  2.081703e+01    1.209959e+00
  2.083291e+01    1.199115e+00
  2.084878e+01    1.207063e+00
  2.086466e+01    1.237985e+00
  2.088054e+01    1.236613e+00
  2.089641e+01    1.249931e+00
  2.091229e+01    1.245227e+00
  2.092816e+01    1.242195e+00
  2.094404e+01    1.224479e+00
  2.095991e+01    1.223590e+00
  2.097579e+01    1.220068e+00
  2.099166e+01    1.224264e+00
  2.100754e+01    1.220596e+00
  2.102342e+01    1.213374e+00
  2.103929e+01    1.237265e+00
  2.105517e+01    1.254716e+00
  2.107104e+01    1.253776e+00
  2.108692e+01    1.233915e+00
  2.110279e+01    1.210440e+00
  2.111867e+01    1.206818e+00
  2.113455e+01    1.204569e+00
  2.115042e+01    1.216198e+00
  2.116630e+01    1.225764e+00
  2.118217e+01    1.222115e+00
  2.119805e+01    1.214959e+00
  2.121392e+01    1.227145e+00
  2.122980e+01    1.253870e+00
  2.124567e+01    1.259007e+00
  2.126155e+01    1.274075e+00
  2.127743e+01    1.261088e+00
  2.129330e+01    1.255767e+00
  2.130918e+01    1.275103e+00
  2.132505e+01    1.295607e+00
  2.134093e+01    1.296441e+00
  2.135680e+01    1.289606e+00
  2.137268e+01    1.278716e+00
  2.138855e+01    1.260265e+00
  2.140443e+01    1.290033e+00
  2.142031e+01    1.303631e+00
  2.143618e+01    1.294222e+00
  2.145206e+01    1.323983e+00
  2.146793e+01    1.361747e+00
  2.148381e+01    1.409480e+00
  2.149968e+01    1.413080e+00
  2.151556e+01    1.442739e+00
  2.153143e+01    1.477795e+00
  2.154731e+01    1.518990e+00
  2.156319e+01    1.582991e+00
  2.157906e+01    1.613983e+00
  2.159494e+01    1.672052e+00
  2.161081e+01    1.774773e+00
  2.162669e+01    1.853123e+00
  2.164256e+01    1.954650e+00
  2.165844e+01    2.097351e+00
  2.167431e+01    2.268976e+00
  2.169019e+01    2.496873e+00
  2.170607e+01    2.780898e+00
  2.172194e+01    3.124200e+00
  2.173782e+01    3.509894e+00
  2.175369e+01    4.014212e+00
  2.176957e+01    4.541950e+00
  2.178544e+01    5.180954e+00
  2.180132e+01    5.832158e+00
  2.181719e+01    6.458624e+00
  2.183307e+01    7.154922e+00
  2.184895e+01    7.772192e+00
  2.186482e+01    8.288112e+00
  2.188070e+01    8.700481e+00
  2.189657e+01    8.868442e+00
  2.191245e+01    8.746640e+00
  2.192832e+01    8.313022e+00
  2.194420e+01    7.571762e+00
  2.196007e+01    6.695609e+00
  2.197595e+01    5.786206e+00
  2.199183e+01    4.934062e+00
  2.200770e+01    4.243257e+00
  2.202358e+01    3.662695e+00
  2.203945e+01    3.189421e+00
  2.205533e+01    2.841444e+00
  2.207120e+01    2.600584e+00
  2.208708e+01    2.379346e+00
  2.210296e+01    2.170475e+00
  2.211883e+01    2.000517e+00
  2.213471e+01    1.877941e+00
  2.215058e+01    1.796348e+00
  2.216646e+01    1.694057e+00
  2.218233e+01    1.615735e+00
  2.219821e+01    1.557512e+00
  2.221408e+01    1.519187e+00
  2.222996e+01    1.439103e+00
  2.224584e+01    1.397579e+00
  2.226171e+01    1.371191e+00
  2.227759e+01    1.341882e+00
  2.229346e+01    1.306352e+00
  2.230934e+01    1.302120e+00
  2.232521e+01    1.289793e+00
  2.234109e+01    1.262327e+00
  2.235696e+01    1.225224e+00
  2.237284e+01    1.239475e+00
  2.238872e+01    1.222817e+00
  2.240459e+01    1.193380e+00
  2.242047e+01    1.196792e+00
  2.243634e+01    1.190116e+00
  2.245222e+01    1.180785e+00
  2.246809e+01    1.185925e+00
  2.248397e+01    1.156316e+00
  2.249984e+01    1.152248e+00
  2.251572e+01    1.137776e+00
  2.253160e+01    1.149276e+00
  2.254747e+01    1.138103e+00
  2.256335e+01    1.122265e+00
  2.257922e+01    1.139433e+00
  2.259510e+01    1.106681e+00
  2.261097e+01    1.105013e+00
  2.262685e+01    1.117967e+00
  2.264272e+01    1.120059e+00
  2.265860e+01    1.098955e+00
  2.267448e+01    1.101135e+00
  2.269035e+01    1.105284e+00
  2.270623e+01    1.090472e+00
  2.272210e+01    1.077962e+00
  2.273798e+01    1.072974e+00
  2.275385e+01    1.073807e+00
  2.276973e+01    1.076750e+00
  2.278560e+01    1.084496e+00
  2.280148e+01    1.077516e+00
  2.281736e+01    1.069983e+00
  2.283323e+01    1.055773e+00
  2.284911e+01    1.068542e+00
  2.286498e+01    1.059372e+00
  2.288086e+01    1.029970e+00
  2.289673e+01    1.026385e+00
  2.291261e+01    1.066697e+00
  2.292848e+01    1.033591e+00
  2.294436e+01    1.031818e+00
  2.296024e+01    1.020812e+00
  2.297611e+01    1.006688e+00
  2.299199e+01    1.025083e+00
  2.300786e+01    1.029232e+00
  2.302374e+01    1.015867e+00
  2.303961e+01    1.010365e+00
  2.305549e+01    1.026021e+00
  2.307137e+01    1.024659e+00
  2.308724e+01    1.004642e+00
  2.310312e+01    9.965588e-01
  2.311899e+01    1.009457e+00
  2.313487e+01    1.025915e+00
  2.315074e+01    9.976133e-01
  2.316662e+01    1.006010e+00
  2.318249e+01    1.009254e+00
  2.319837e+01    9.799303e-01
  2.321425e+01    9.899413e-01
  2.323012e+01    9.943866e-01
  2.324600e+01    9.978112e-01
  2.326187e+01    9.912925e-01
  2.327775e+01    9.700931e-01
  2.329362e+01    9.773923e-01
  2.330950e+01    9.727951e-01
  2.332537e+01    9.789756e-01
  2.334125e+01    1.011075e+00
  2.335713e+01    1.013705e+00
  2.337300e+01    9.814776e-01
  2.338888e+01    9.809231e-01
  2.340475e+01    9.692153e-01
  2.342063e+01    9.955141e-01
  2.343650e+01    9.746251e-01
  2.345238e+01    9.517910e-01
  2.346825e+01    9.959767e-01
  2.348413e+01    9.799090e-01
  2.350001e+01    9.740138e-01
  2.351588e+01    9.395472e-01
  2.353176e+01    9.543937e-01
  2.354763e+01    9.838794e-01
  2.356351e+01    9.707800e-01
  2.357938e+01    9.650306e-01
  2.359526e+01    9.690645e-01
  2.361113e+01    9.795633e-01
  2.362701e+01    9.570330e-01
  2.364289e+01    9.526095e-01
  2.365876e+01    9.625677e-01
  2.367464e+01    9.556617e-01
  2.369051e+01    9.234064e-01
  2.370639e+01    9.163356e-01
  2.372226e+01    9.301675e-01
  2.373814e+01    9.185278e-01
  2.375401e+01    9.183019e-01
  2.376989e+01    9.280840e-01
  2.378577e+01    9.289875e-01
  2.380164e+01    9.329938e-01
  2.381752e+01    9.214731e-01
  2.383339e+01    9.092509e-01
  2.384927e+01    9.494846e-01
  2.386514e+01    9.282664e-01
  2.388102e+01    9.220831e-01
  2.389689e+01    9.216226e-01
  2.391277e+01    9.154148e-01
  2.392865e+01    8.980689e-01
  2.394452e+01    9.128472e-01
  2.396040e+01    9.049499e-01
  2.397627e+01    9.011068e-01
  2.399215e+01    9.249727e-01
  2.400802e+01    9.161425e-01
  2.402390e+01    9.026451e-01
  2.403978e+01    9.114583e-01
  2.405565e+01    9.022224e-01
  2.407153e+01    8.895949e-01
  2.408740e+01    8.802767e-01
  2.410328e+01    8.807830e-01
  2.411915e+01    8.833355e-01
  2.413503e+01    8.975081e-01
  2.415090e+01    9.123784e-01
  2.416678e+01    8.750796e-01
  2.418266e+01    8.799502e-01
  2.419853e+01    8.920713e-01
  2.421441e+01    8.708205e-01
  2.423028e+01    8.719512e-01
  2.424616e+01    8.777074e-01
  2.426203e+01    8.860853e-01
  2.427791e+01    9.121065e-01
  2.429378e+01    8.945585e-01
  2.430966e+01    8.881546e-01
  2.432554e+01    8.894043e-01
  2.434141e+01    9.091951e-01
  2.435729e+01    9.114699e-01
  2.437316e+01    9.168465e-01
  2.438904e+01    9.138107e-01
  2.440491e+01    8.773464e-01
  2.442079e+01    8.778181e-01
  2.443666e+01    8.988805e-01
  2.445254e+01    9.201227e-01
  2.446842e+01    9.255469e-01
  2.448429e+01    9.072819e-01
  2.450017e+01    8.857547e-01
  2.451604e+01    9.003316e-01
  2.453192e+01    8.969090e-01
  2.454779e+01    8.993419e-01
  2.456367e+01    9.000869e-01
  2.457954e+01    8.837942e-01
  2.459542e+01    9.133996e-01
  2.461130e+01    9.067243e-01
  2.462717e+01    8.960898e-01
  2.464305e+01    9.097363e-01
  2.465892e+01    9.095722e-01
  2.467480e+01    8.959205e-01
  2.469067e+01    8.941581e-01
  2.470655e+01    8.934462e-01
  2.472242e+01    8.915833e-01
  2.473830e+01    9.058154e-01
  2.475418e+01    8.948709e-01
  2.477005e+01    8.992103e-01
  2.478593e+01    8.897108e-01
  2.480180e+01    8.714594e-01
  2.481768e+01    8.992255e-01
  2.483355e+01    8.908070e-01
  2.484943e+01    8.992385e-01
  2.486530e+01    8.997739e-01
  2.488118e+01    8.628905e-01
  2.489706e+01    8.854611e-01
  2.491293e+01    8.767624e-01
  2.492881e+01    8.507097e-01
  2.494468e+01    8.844057e-01
  2.496056e+01    9.041384e-01
  2.497643e+01    9.006144e-01
  2.499231e+01    8.917949e-01
  2.500819e+01    9.155976e-01
  2.502406e+01    8.995157e-01
  2.503994e+01    8.784279e-01
  2.505581e+01    8.829969e-01
  2.507169e+01    8.970358e-01
  2.508756e+01    8.997320e-01
  2.510344e+01    9.258025e-01
  2.511931e+01    9.231982e-01
  2.513519e+01    9.132551e-01
  2.515107e+01    9.170784e-01
  2.516694e+01    9.287243e-01
  2.518282e+01    9.249061e-01
  2.519869e+01    9.474884e-01
  2.521457e+01    9.380596e-01
  2.523044e+01    9.307585e-01
  2.524632e+01    9.509304e-01
  2.526219e+01    9.546784e-01
  2.527807e+01    9.531141e-01
  2.529395e+01    9.324008e-01
  2.530982e+01    9.600540e-01
  2.532570e+01    9.708368e-01
  2.534157e+01    9.674531e-01
  2.535745e+01    9.663805e-01
  2.537332e+01    9.978833e-01
  2.538920e+01    9.964415e-01
  2.540507e+01    1.019461e+00
  2.542095e+01    1.032978e+00
  2.543683e+01    1.037772e+00
  2.545270e+01    1.038893e+00
  2.546858e+01    1.030282e+00
  2.548445e+01    1.055084e+00
  2.550033e+01    1.067656e+00
  2.551620e+01    1.080556e+00
  2.553208e+01    1.078797e+00
  2.554795e+01    1.114736e+00
  2.556383e+01    1.135585e+00
  2.557971e+01    1.159741e+00
  2.559558e+01    1.177878e+00
  2.561146e+01    1.208538e+00
  2.562733e+01    1.260539e+00
  2.564321e+01    1.297648e+00
  2.565908e+01    1.321547e+00
  2.567496e+01    1.406617e+00
  2.569083e+01    1.509753e+00
  2.570671e+01    1.576679e+00
  2.572259e+01    1.675568e+00
  2.573846e+01    1.829155e+00
  2.575434e+01    1.959590e+00
  2.577021e+01    2.186112e+00
  2.578609e+01    2.433728e+00
  2.580196e+01    2.767395e+00
  2.581784e+01    3.133699e+00
  2.583371e+01    3.558087e+00
  2.584959e+01    4.087400e+00
  2.586547e+01    4.630490e+00
  2.588134e+01    5.189421e+00
  2.589722e+01    5.731503e+00
  2.591309e+01    6.302239e+00
  2.592897e+01    6.755500e+00
  2.594484e+01    7.063582e+00
  2.596072e+01    7.195705e+00
  2.597660e+01    7.029735e+00
  2.599247e+01    6.566530e+00
  2.600835e+01    6.025517e+00
  2.602422e+01    5.315243e+00
  2.604010e+01    4.645383e+00
  2.605597e+01    4.023111e+00
  2.607185e+01    3.540197e+00
  2.608772e+01    3.114387e+00
  2.610360e+01    2.714722e+00
  2.611948e+01    2.405299e+00
  2.613535e+01    2.187082e+00
  2.615123e+01    1.977190e+00
  2.616710e+01    1.821367e+00
  2.618298e+01    1.700477e+00
  2.619885e+01    1.596713e+00
  2.621473e+01    1.513515e+00
  2.623060e+01    1.438783e+00
  2.624648e+01    1.373684e+00
  2.626236e+01    1.328159e+00
  2.627823e+01    1.258262e+00
  2.629411e+01    1.222996e+00
  2.630998e+01    1.194899e+00
  2.632586e+01    1.172183e+00
  2.634173e+01    1.126763e+00
  2.635761e+01    1.092988e+00
  2.637348e+01    1.066347e+00
  2.638936e+01    1.089845e+00
  2.640524e+01    1.073050e+00
  2.642111e+01    1.055787e+00
  2.643699e+01    1.044011e+00
  2.645286e+01    1.056235e+00
  2.646874e+01    1.031336e+00
  2.648461e+01    1.018309e+00
  2.650049e+01    1.014591e+00
  2.651636e+01    1.006817e+00
  2.653224e+01    9.962479e-01
  2.654812e+01    9.944186e-01
  2.656399e+01    1.002425e+00
  2.657987e+01    1.012758e+00
  2.659574e+01    9.940793e-01
  2.661162e+01    9.860886e-01
  2.662749e+01    9.822468e-01
  2.664337e+01    9.809173e-01
  2.665924e+01    9.935717e-01
  2.667512e+01    9.748433e-01
  2.669100e+01    9.940618e-01
  2.670687e+01    9.959732e-01
  2.672275e+01    9.713859e-01
  2.673862e+01    9.681418e-01
  2.675450e+01    9.933889e-01
  2.677037e+01    9.900814e-01
  2.678625e+01    9.555120e-01
  2.680212e+01    9.671744e-01
  2.681800e+01    9.973686e-01
  2.683388e+01    9.978999e-01
  2.684975e+01    9.821482e-01
  2.686563e+01    9.728345e-01
  2.688150e+01    9.982165e-01
  2.689738e+01    9.932714e-01
  2.691325e+01    1.007471e+00
  2.692913e+01    1.007975e+00
  2.694501e+01    1.025872e+00
  2.696088e+01    1.054769e+00
  2.697676e+01    1.074309e+00
  2.699263e+01    1.091558e+00
  2.700851e+01    1.094245e+00
  2.702438e+01    1.147104e+00
  2.704026e+01    1.195998e+00
  2.705613e+01    1.251125e+00
  2.707201e+01    1.303453e+00
  2.708789e+01    1.373281e+00
  2.710376e+01    1.465852e+00
  2.711964e+01    1.569157e+00
  2.713551e+01    1.704801e+00
  2.715139e+01    1.843314e+00
  2.716726e+01    1.951987e+00
  2.718314e+01    2.067364e+00
  2.719901e+01    2.155200e+00
  2.721489e+01    2.189821e+00
  2.723077e+01    2.182009e+00
  2.724664e+01    2.091745e+00
  2.726252e+01    1.995848e+00
  2.727839e+01    1.816043e+00
  2.729427e+01    1.727895e+00
  2.731014e+01    1.553985e+00
  2.732602e+01    1.473648e+00
  2.734189e+01    1.401945e+00
  2.735777e+01    1.309150e+00
  2.737365e+01    1.225554e+00
  2.738952e+01    1.163728e+00
  2.740540e+01    1.137458e+00
  2.742127e+01    1.116135e+00
  2.743715e+01    1.062172e+00
  2.745302e+01    1.044608e+00
  2.746890e+01    1.010592e+00
  2.748477e+01    9.941351e-01
  2.750065e+01    9.889324e-01
  2.751653e+01    9.801150e-01
  2.753240e+01    9.858971e-01
  2.754828e+01    9.790784e-01
  2.756415e+01    9.529399e-01
  2.758003e+01    9.553258e-01
  2.759590e+01    9.499652e-01
  2.761178e+01    9.328704e-01
  2.762765e+01    9.224289e-01
  2.764353e+01    9.274808e-01
  2.765941e+01    9.347398e-01
  2.767528e+01    9.016806e-01
  2.769116e+01    9.039329e-01
  2.770703e+01    8.859480e-01
  2.772291e+01    8.929420e-01
  2.773878e+01    8.861900e-01
  2.775466e+01    8.997635e-01
  2.777054e+01    8.850747e-01
  2.778641e+01    8.847951e-01
  2.780229e+01    8.815841e-01
  2.781816e+01    9.079857e-01
  2.783404e+01    8.792465e-01
  2.784991e+01    8.699721e-01
  2.786579e+01    8.821478e-01
  2.788166e+01    8.939217e-01
  2.789754e+01    8.746572e-01
  2.791342e+01    8.820696e-01
  2.792929e+01    8.807836e-01
  2.794517e+01    8.829765e-01
  2.796104e+01    8.708110e-01
  2.797692e+01    8.509815e-01
  2.799279e+01    8.616424e-01
  2.800867e+01    8.792898e-01
  2.802454e+01    8.828889e-01
  2.804042e+01    8.778070e-01
  2.805630e+01    8.730349e-01
  2.807217e+01    8.654615e-01
  2.808805e+01    8.627622e-01
  2.810392e+01    8.475541e-01
  2.811980e+01    8.642508e-01
  2.813567e+01    8.620707e-01
  2.815155e+01    8.417025e-01
  2.816742e+01    8.327889e-01
  2.818330e+01    8.478315e-01
  2.819918e+01    8.405013e-01
  2.821505e+01    8.389980e-01
  2.823093e+01    8.535974e-01
  2.824680e+01    8.529585e-01
  2.826268e+01    8.515774e-01
  2.827855e+01    8.586249e-01
  2.829443e+01    8.543251e-01
  2.831030e+01    8.655914e-01
  2.832618e+01    8.619611e-01
  2.834206e+01    8.470461e-01
  2.835793e+01    8.409488e-01
  2.837381e+01    8.437248e-01
  2.838968e+01    8.381459e-01
  2.840556e+01    8.333579e-01
  2.842143e+01    8.469052e-01
  2.843731e+01    8.275793e-01
  2.845318e+01    8.516747e-01
  2.846906e+01    8.424938e-01
  2.848494e+01    8.289291e-01
  2.850081e+01    8.134645e-01
  2.851669e+01    8.130822e-01
  2.853256e+01    8.275021e-01
  2.854844e+01    8.550241e-01
  2.856431e+01    8.447414e-01
  2.858019e+01    8.640912e-01
  2.859606e+01    8.546846e-01
  2.861194e+01    8.641437e-01
  2.862782e+01    8.466153e-01
  2.864369e+01    8.291644e-01
  2.865957e+01    8.301468e-01
  2.867544e+01    8.268108e-01
  2.869132e+01    8.353963e-01
  2.870719e+01    8.507991e-01
  2.872307e+01    8.435556e-01
  2.873895e+01    8.484901e-01
  2.875482e+01    8.263623e-01
  2.877070e+01    8.213679e-01
  2.878657e+01    8.229489e-01
  2.880245e+01    8.433577e-01
  2.881832e+01    8.630618e-01
  2.883420e+01    8.352033e-01
  2.885007e+01    8.385117e-01
  2.886595e+01    8.376793e-01
  2.888183e+01    8.498413e-01
  2.889770e+01    8.455714e-01
  2.891358e+01    8.160785e-01
  2.892945e+01    8.092003e-01
  2.894533e+01    8.468339e-01
  2.896120e+01    8.282542e-01
  2.897708e+01    8.149617e-01
  2.899295e+01    8.255684e-01
  2.900883e+01    8.108814e-01
  2.902471e+01    8.124767e-01
  2.904058e+01    8.245551e-01
  2.905646e+01    8.076302e-01
  2.907233e+01    8.261318e-01
  2.908821e+01    8.461142e-01
  2.910408e+01    8.271952e-01
  2.911996e+01    8.166335e-01
  2.913583e+01    8.049362e-01
  2.915171e+01    8.149777e-01
  2.916759e+01    8.113816e-01
  2.918346e+01    8.132268e-01
  2.919934e+01    8.074995e-01
  2.921521e+01    8.010505e-01
  2.923109e+01    8.194495e-01
  2.924696e+01    8.176384e-01
  2.926284e+01    8.140518e-01
  2.927871e+01    8.007822e-01
  2.929459e+01    7.996909e-01
  2.931047e+01    8.163088e-01
  2.932634e+01    8.131855e-01
  2.934222e+01    8.104354e-01
  2.935809e+01    8.061671e-01
  2.937397e+01    8.088486e-01
  2.938984e+01    8.271916e-01
  2.940572e+01    8.173832e-01
  2.942159e+01    8.195916e-01
  2.943747e+01    8.330751e-01
  2.945335e+01    8.243782e-01
  2.946922e+01    8.013915e-01
  2.948510e+01    8.030090e-01
  2.950097e+01    8.010439e-01
  2.951685e+01    8.095233e-01
  2.953272e+01    8.179643e-01
  2.954860e+01    7.924737e-01
  2.956447e+01    7.866805e-01
  2.958035e+01    7.917618e-01
  2.959623e+01    8.005393e-01
  2.961210e+01    7.998375e-01
  2.962798e+01    7.994937e-01
  2.964385e+01    7.953268e-01
  2.965973e+01    7.926476e-01
  2.967560e+01    8.122938e-01
  2.969148e+01    7.930818e-01
  2.970736e+01    8.095232e-01
  2.972323e+01    8.037530e-01
  2.973911e+01    7.949649e-01
  2.975498e+01    7.867020e-01
  2.977086e+01    8.125412e-01
  2.978673e+01    7.971170e-01
  2.980261e+01    8.049650e-01
  2.981848e+01    8.153089e-01
  2.983436e+01    8.014464e-01
  2.985024e+01    8.058684e-01
  2.986611e+01    8.019593e-01
  2.988199e+01    7.860392e-01
  2.989786e+01    8.209544e-01
  2.991374e+01    8.380677e-01
  2.992961e+01    8.136764e-01
  2.994549e+01    8.076811e-01
  2.996136e+01    8.092272e-01
  2.997724e+01    7.977862e-01
  2.999312e+01    8.244580e-01
  3.000899e+01    8.198588e-01
  3.002487e+01    8.103618e-01
  3.004074e+01    8.161303e-01
  3.005662e+01    8.153229e-01
  3.007249e+01    8.287017e-01
  3.008837e+01    8.459349e-01
  3.010424e+01    8.180349e-01
  3.012012e+01    7.923551e-01
  3.013600e+01    8.069130e-01
  3.015187e+01    8.066217e-01
  3.016775e+01    7.935961e-01
  3.018362e+01    7.940386e-01
  3.019950e+01    7.945505e-01
  3.021537e+01    7.923904e-01
  3.023125e+01    8.087613e-01
  3.024712e+01    8.114725e-01
  3.026300e+01    7.905603e-01
  3.027888e+01    7.859063e-01
  3.029475e+01    8.057504e-01
  3.031063e+01    8.095037e-01
  3.032650e+01    7.873505e-01
  3.034238e+01    7.888604e-01
  3.035825e+01    7.843802e-01
  3.037413e+01    7.849940e-01
  3.039000e+01    7.909373e-01
  3.040588e+01    8.149867e-01
  3.042176e+01    7.839532e-01
  3.043763e+01    7.968335e-01
  3.045351e+01    7.961536e-01
  3.046938e+01    7.721893e-01
  3.048526e+01    7.832792e-01
  3.050113e+01    7.842622e-01
  3.051701e+01    7.801242e-01
  3.053288e+01    7.838183e-01
  3.054876e+01    7.885361e-01
  3.056464e+01    7.783116e-01
  3.058051e+01    8.018641e-01
  3.059639e+01    7.929723e-01
  3.061226e+01    7.878104e-01
  3.062814e+01    7.908826e-01
  3.064401e+01    7.879453e-01
  3.065989e+01    7.983619e-01
  3.067577e+01    8.027689e-01
  3.069164e+01    7.672649e-01
  3.070752e+01    7.845750e-01
  3.072339e+01    7.806933e-01
  3.073927e+01    7.665324e-01
  3.075514e+01    7.744147e-01
  3.077102e+01    8.006964e-01
  3.078689e+01    8.067411e-01
  3.080277e+01    7.858981e-01
  3.081865e+01    7.823713e-01
  3.083452e+01    7.952514e-01
  3.085040e+01    7.950950e-01
  3.086627e+01    7.887045e-01
  3.088215e+01    7.745911e-01
  3.089802e+01    7.768434e-01
  3.091390e+01    7.786608e-01
  3.092977e+01    7.680845e-01
  3.094565e+01    7.854912e-01
  3.096153e+01    7.889531e-01
  3.097740e+01    7.834397e-01
  3.099328e+01    7.800651e-01
  3.100915e+01    7.770268e-01
  3.102503e+01    7.863082e-01
  3.104090e+01    7.813829e-01
  3.105678e+01    7.937458e-01
  3.107265e+01    7.998785e-01
  3.108853e+01    7.970728e-01
  3.110441e+01    7.987191e-01
  3.112028e+01    8.007414e-01
  3.113616e+01    7.808008e-01
  3.115203e+01    7.678899e-01
  3.116791e+01    7.978016e-01
  3.118378e+01    8.135710e-01
  3.119966e+01    8.146126e-01
  3.121553e+01    7.747051e-01
  3.123141e+01    7.941527e-01
  3.124729e+01    7.939411e-01
  3.126316e+01    7.995485e-01
  3.127904e+01    8.085445e-01
  3.129491e+01    8.002027e-01
  3.131079e+01    7.964776e-01
  3.132666e+01    7.727897e-01
  3.134254e+01    8.130854e-01
  3.135841e+01    8.161103e-01
  3.137429e+01    8.130587e-01
  3.139017e+01    8.183903e-01
  3.140604e+01    8.014267e-01
  3.142192e+01    8.242849e-01
  3.143779e+01    8.292220e-01
  3.145367e+01    8.165685e-01
  3.146954e+01    8.178307e-01
  3.148542e+01    8.150282e-01
  3.150129e+01    8.421949e-01
  3.151717e+01    8.494133e-01
  3.153305e+01    8.588205e-01
  3.154892e+01    8.609180e-01
  3.156480e+01    8.603336e-01
  3.158067e+01    8.550407e-01
  3.159655e+01    8.692026e-01
  3.161242e+01    8.943062e-01
  3.162830e+01    9.021178e-01
  3.164418e+01    9.157868e-01
  3.166005e+01    9.348607e-01
  3.167593e+01    9.630337e-01
  3.169180e+01    9.835249e-01
  3.170768e+01    1.022358e+00
  3.172355e+01    1.067421e+00
  3.173943e+01    1.120107e+00
  3.175530e+01    1.167191e+00
  3.177118e+01    1.235340e+00
  3.178706e+01    1.337282e+00
  3.180293e+01    1.445116e+00
  3.181881e+01    1.565302e+00
  3.183468e+01    1.715479e+00
  3.185056e+01    1.838099e+00
  3.186643e+01    1.944454e+00
  3.188231e+01    1.997125e+00
  3.189818e+01    2.060789e+00
  3.191406e+01    2.054566e+00
  3.192994e+01    2.037402e+00
  3.194581e+01    1.938563e+00
  3.196169e+01    1.834289e+00
  3.197756e+01    1.702003e+00
  3.199344e+01    1.569926e+00
  3.200931e+01    1.453227e+00
  3.202519e+01    1.338370e+00
  3.204106e+01    1.244130e+00
  3.205694e+01    1.152190e+00
  3.207282e+01    1.091575e+00
  3.208869e+01    1.034346e+00
  3.210457e+01    9.857360e-01
  3.212044e+01    9.714438e-01
  3.213632e+01    9.477493e-01
  3.215219e+01    9.458209e-01
  3.216807e+01    8.960866e-01
  3.218394e+01    8.743159e-01
  3.219982e+01    8.911773e-01
  3.221570e+01    8.678594e-01
  3.223157e+01    8.557966e-01
  3.224745e+01    8.452724e-01
  3.226332e+01    8.432926e-01
  3.227920e+01    8.265720e-01
  3.229507e+01    8.201209e-01
  3.231095e+01    8.143669e-01
  3.232682e+01    7.991483e-01
  3.234270e+01    8.026673e-01
  3.235858e+01    7.957640e-01
  3.237445e+01    7.944250e-01
  3.239033e+01    7.950150e-01
  3.240620e+01    7.827909e-01
  3.242208e+01    7.838703e-01
  3.243795e+01    7.792909e-01
  3.245383e+01    7.937461e-01
  3.246970e+01    7.733026e-01
  3.248558e+01    7.766647e-01
  3.250146e+01    7.860131e-01
  3.251733e+01    7.972244e-01
  3.253321e+01    7.570222e-01
  3.254908e+01    7.828953e-01
