# == pyFAI calibration ==
# Distance Sample to Detector: 0.3999999939076516 m
# PONI: 9.750e-02, 1.135e-01 m
# Rotations: -0.000175 0.000000 -0.000000 rad
# 
# == Fit2d calibration ==
# Distance Sample-beamCenter: 400.000 mm
# Center: x=1514.000, y=1300.000 pix
# Tilt: 0.010 deg  TiltPlanRot: 0.010 deg
# 
# Detector Detector	 Spline= None	 PixelSize= 7.500e-05, 7.500e-05 m
#    Detector has a mask: False 
#    Detector has a dark current: False 
#    detector has a flat field: False 
# 
# Wavelength: 6.888e-11 m
# Mask applied: user provided
# Dark current applied: False
# Flat field applied: False
# Polarization factor: 0.99
# Normalization factor: 1.0
# --> /home/myspot/data/2024_07_Rosario/Ru-CGO-ex/2024-07-27_003_Ru-CGO-ex_Reaction_dwell_000023_data_000166.dat
#       q_nm^-1             I 
  2.003187e-02    1.424646e-01
  3.590745e-02    1.058928e-01
  5.178302e-02    1.451095e-01
  6.765859e-02    1.761443e-01
  8.353417e-02    1.214304e-01
  9.940974e-02    6.318609e-02
  1.152853e-01    6.970020e-02
  1.311609e-01    4.185179e-02
  1.470365e-01    5.054919e-02
  1.629120e-01    3.525314e-02
  1.787876e-01    5.904292e-02
  1.946632e-01    6.236640e-02
  2.105388e-01    2.827373e-02
  2.264143e-01    6.270531e-02
  2.422899e-01    1.063560e-01
  2.581655e-01    8.070647e-02
  2.740411e-01    5.441783e-02
  2.899166e-01    1.981401e-02
  3.057922e-01    2.878020e-02
  3.216678e-01    3.920846e-02
  3.375433e-01    5.090621e-02
  3.534189e-01    2.025094e-02
  3.692945e-01    1.843614e-02
  3.851701e-01    4.990262e-02
  4.010456e-01    6.847209e-02
  4.169212e-01    6.080641e-02
  4.327968e-01    6.675357e-02
  4.486724e-01    6.479494e-02
  4.645479e-01    3.946580e-02
  4.804235e-01    5.662122e-02
  4.962991e-01    3.895440e-02
  5.121747e-01    3.753727e-02
  5.280502e-01    4.315427e-02
  5.439258e-01    3.762881e-02
  5.598014e-01    1.830898e-02
  5.756770e-01    5.776147e-02
  5.915525e-01    6.273337e-02
  6.074281e-01    4.737201e-02
  6.233037e-01    4.909764e-02
  6.391793e-01    5.637526e-02
  6.550548e-01    4.669327e-02
  6.709304e-01    4.314708e-02
  6.868060e-01    4.767232e-02
  7.026815e-01    3.054586e-02
  7.185571e-01    4.070945e-02
  7.344327e-01    4.821843e-02
  7.503083e-01    3.041524e-02
  7.661838e-01    4.108719e-02
  7.820594e-01    9.915263e-02
  7.979350e-01    1.543635e-01
  8.138106e-01    2.104543e-01
  8.296861e-01    3.223944e-01
  8.455617e-01    3.827527e-01
  8.614373e-01    3.811203e-01
  8.773129e-01    4.753258e-01
  8.931884e-01    6.018860e-01
  9.090640e-01    6.774626e-01
  9.249396e-01    7.596434e-01
  9.408152e-01    8.472367e-01
  9.566907e-01    9.453029e-01
  9.725663e-01    9.670599e-01
  9.884419e-01    1.081268e+00
  1.004317e+00    1.150165e+00
  1.020193e+00    1.234543e+00
  1.036069e+00    1.295978e+00
  1.051944e+00    1.342871e+00
  1.067820e+00    1.462113e+00
  1.083695e+00    1.455655e+00
  1.099571e+00    1.507367e+00
  1.115446e+00    1.541729e+00
  1.131322e+00    1.506388e+00
  1.147198e+00    1.622249e+00
  1.163073e+00    1.765668e+00
  1.178949e+00    1.691034e+00
  1.194824e+00    1.738288e+00
  1.210700e+00    1.874398e+00
  1.226575e+00    2.182444e+00
  1.242451e+00    2.306568e+00
  1.258327e+00    2.313281e+00
  1.274202e+00    2.556907e+00
  1.290078e+00    2.623987e+00
  1.305953e+00    2.647489e+00
  1.321829e+00    2.655912e+00
  1.337705e+00    2.687562e+00
  1.353580e+00    2.581342e+00
  1.369456e+00    2.694130e+00
  1.385331e+00    2.773827e+00
  1.401207e+00    2.745872e+00
  1.417082e+00    2.873716e+00
  1.432958e+00    2.888707e+00
  1.448834e+00    3.007143e+00
  1.464709e+00    2.962965e+00
  1.480585e+00    3.029887e+00
  1.496460e+00    3.114973e+00
  1.512336e+00    3.202768e+00
  1.528211e+00    3.231152e+00
  1.544087e+00    3.281366e+00
  1.559963e+00    3.183162e+00
  1.575838e+00    3.238275e+00
  1.591714e+00    3.171391e+00
  1.607589e+00    3.017504e+00
  1.623465e+00    3.098137e+00
  1.639340e+00    3.144223e+00
  1.655216e+00    3.076214e+00
  1.671092e+00    3.018479e+00
  1.686967e+00    2.978975e+00
  1.702843e+00    3.004701e+00
  1.718718e+00    3.064477e+00
  1.734594e+00    3.004767e+00
  1.750469e+00    3.041317e+00
  1.766345e+00    3.101704e+00
  1.782221e+00    3.013170e+00
  1.798096e+00    3.000632e+00
  1.813972e+00    3.059692e+00
  1.829847e+00    3.091685e+00
  1.845723e+00    3.103267e+00
  1.861598e+00    3.061761e+00
  1.877474e+00    3.015675e+00
  1.893350e+00    3.014953e+00
  1.909225e+00    3.104617e+00
  1.925101e+00    3.126127e+00
  1.940976e+00    3.102823e+00
  1.956852e+00    3.023922e+00
  1.972727e+00    3.175882e+00
  1.988603e+00    3.055926e+00
  2.004479e+00    3.135750e+00
  2.020354e+00    3.111565e+00
  2.036230e+00    3.076661e+00
  2.052105e+00    3.115098e+00
  2.067981e+00    3.041441e+00
  2.083856e+00    3.068419e+00
  2.099732e+00    3.082247e+00
  2.115608e+00    3.009168e+00
  2.131483e+00    2.954282e+00
  2.147359e+00    3.034784e+00
  2.163234e+00    2.982978e+00
  2.179110e+00    3.034554e+00
  2.194985e+00    3.125535e+00
  2.210861e+00    3.066889e+00
  2.226737e+00    3.060357e+00
  2.242612e+00    3.088299e+00
  2.258488e+00    3.060665e+00
  2.274363e+00    3.115531e+00
  2.290239e+00    3.185045e+00
  2.306115e+00    3.218148e+00
  2.321990e+00    3.094872e+00
  2.337866e+00    2.997648e+00
  2.353741e+00    3.068533e+00
  2.369617e+00    3.033508e+00
  2.385492e+00    2.973492e+00
  2.401368e+00    3.031732e+00
  2.417244e+00    3.120994e+00
  2.433119e+00    3.249712e+00
  2.448995e+00    3.177941e+00
  2.464870e+00    3.235799e+00
  2.480746e+00    3.205803e+00
  2.496621e+00    3.267514e+00
  2.512497e+00    3.169131e+00
  2.528373e+00    3.127039e+00
  2.544248e+00    3.148770e+00
  2.560124e+00    3.257751e+00
  2.575999e+00    3.256811e+00
  2.591875e+00    3.173119e+00
  2.607750e+00    3.167304e+00
  2.623626e+00    3.224279e+00
  2.639502e+00    3.124498e+00
  2.655377e+00    3.162889e+00
  2.671253e+00    3.169429e+00
  2.687128e+00    3.187531e+00
  2.703004e+00    3.171848e+00
  2.718879e+00    3.182499e+00
  2.734755e+00    3.211411e+00
  2.750631e+00    3.232263e+00
  2.766506e+00    3.270066e+00
  2.782382e+00    3.269766e+00
  2.798257e+00    3.321030e+00
  2.814133e+00    3.301481e+00
  2.830008e+00    3.319604e+00
  2.845884e+00    3.383295e+00
  2.861760e+00    3.386202e+00
  2.877635e+00    3.247880e+00
  2.893511e+00    3.176492e+00
  2.909386e+00    3.143677e+00
  2.925262e+00    3.265388e+00
  2.941137e+00    3.436568e+00
  2.957013e+00    3.333589e+00
  2.972889e+00    3.257506e+00
  2.988764e+00    3.359463e+00
  3.004640e+00    3.383648e+00
  3.020515e+00    3.390206e+00
  3.036391e+00    3.379026e+00
  3.052266e+00    3.282299e+00
  3.068142e+00    3.283595e+00
  3.084018e+00    3.386544e+00
  3.099893e+00    3.363147e+00
  3.115769e+00    3.337599e+00
  3.131644e+00    3.294529e+00
  3.147520e+00    3.245476e+00
  3.163395e+00    3.287313e+00
  3.179271e+00    3.344692e+00
  3.195147e+00    3.268832e+00
  3.211022e+00    3.236318e+00
  3.226898e+00    3.336121e+00
  3.242773e+00    3.248665e+00
  3.258649e+00    3.278166e+00
  3.274525e+00    3.281288e+00
  3.290400e+00    3.322365e+00
  3.306276e+00    3.322057e+00
  3.322151e+00    3.407073e+00
  3.338027e+00    3.303761e+00
  3.353902e+00    3.271775e+00
  3.369778e+00    3.404336e+00
  3.385654e+00    3.372540e+00
  3.401529e+00    3.436900e+00
  3.417405e+00    3.466348e+00
  3.433280e+00    3.367849e+00
  3.449156e+00    3.316333e+00
  3.465031e+00    3.375707e+00
  3.480907e+00    3.477948e+00
  3.496783e+00    3.514325e+00
  3.512658e+00    3.467848e+00
  3.528534e+00    3.451488e+00
  3.544409e+00    3.423282e+00
  3.560285e+00    3.472420e+00
  3.576160e+00    3.414065e+00
  3.592036e+00    3.357949e+00
  3.607912e+00    3.439342e+00
  3.623787e+00    3.494747e+00
  3.639663e+00    3.412501e+00
  3.655538e+00    3.408256e+00
  3.671414e+00    3.431179e+00
  3.687289e+00    3.457095e+00
  3.703165e+00    3.461469e+00
  3.719041e+00    3.405529e+00
  3.734916e+00    3.373552e+00
  3.750792e+00    3.423396e+00
  3.766667e+00    3.487274e+00
  3.782543e+00    3.442923e+00
  3.798418e+00    3.486195e+00
  3.814294e+00    3.621656e+00
  3.830170e+00    3.449431e+00
  3.846045e+00    3.377830e+00
  3.861921e+00    3.517234e+00
  3.877796e+00    3.539830e+00
  3.893672e+00    3.393780e+00
  3.909547e+00    3.466838e+00
  3.925423e+00    3.429598e+00
  3.941299e+00    3.433962e+00
  3.957174e+00    3.538425e+00
  3.973050e+00    3.529171e+00
  3.988925e+00    3.518510e+00
  4.004801e+00    3.492724e+00
  4.020676e+00    3.505250e+00
  4.036552e+00    3.447823e+00
  4.052428e+00    3.427240e+00
  4.068303e+00    3.414387e+00
  4.084179e+00    3.455063e+00
  4.100054e+00    3.529461e+00
  4.115930e+00    3.555937e+00
  4.131806e+00    3.585662e+00
  4.147681e+00    3.586167e+00
  4.163557e+00    3.449832e+00
  4.179432e+00    3.460824e+00
  4.195308e+00    3.511332e+00
  4.211183e+00    3.559986e+00
  4.227059e+00    3.546915e+00
  4.242935e+00    3.547385e+00
  4.258810e+00    3.485735e+00
  4.274686e+00    3.508663e+00
  4.290561e+00    3.470871e+00
  4.306437e+00    3.523776e+00
  4.322312e+00    3.569850e+00
  4.338188e+00    3.533741e+00
  4.354064e+00    3.538149e+00
  4.369939e+00    3.494855e+00
  4.385815e+00    3.477073e+00
  4.401690e+00    3.566252e+00
  4.417566e+00    3.627487e+00
  4.433441e+00    3.601113e+00
  4.449317e+00    3.541318e+00
  4.465193e+00    3.542949e+00
  4.481068e+00    3.557454e+00
  4.496944e+00    3.502802e+00
  4.512819e+00    3.570476e+00
  4.528695e+00    3.636579e+00
  4.544570e+00    3.624790e+00
  4.560446e+00    3.598798e+00
  4.576322e+00    3.615798e+00
  4.592197e+00    3.593761e+00
  4.608073e+00    3.587518e+00
  4.623948e+00    3.606533e+00
  4.639824e+00    3.539314e+00
  4.655699e+00    3.515894e+00
  4.671575e+00    3.524423e+00
  4.687451e+00    3.546556e+00
  4.703326e+00    3.551468e+00
  4.719202e+00    3.543479e+00
  4.735077e+00    3.610483e+00
  4.750953e+00    3.606518e+00
  4.766828e+00    3.587292e+00
  4.782704e+00    3.597966e+00
  4.798580e+00    3.610544e+00
  4.814455e+00    3.619562e+00
  4.830331e+00    3.514400e+00
  4.846206e+00    3.563301e+00
  4.862082e+00    3.686524e+00
  4.877957e+00    3.632606e+00
  4.893833e+00    3.631982e+00
  4.909709e+00    3.583648e+00
  4.925584e+00    3.586128e+00
  4.941460e+00    3.641535e+00
  4.957335e+00    3.571235e+00
  4.973211e+00    3.545410e+00
  4.989086e+00    3.648228e+00
  5.004962e+00    3.643276e+00
  5.020838e+00    3.657695e+00
  5.036713e+00    3.668579e+00
  5.052589e+00    3.610326e+00
  5.068464e+00    3.602722e+00
  5.084340e+00    3.616273e+00
  5.100216e+00    3.614907e+00
  5.116091e+00    3.602938e+00
  5.131967e+00    3.719498e+00
  5.147842e+00    3.586333e+00
  5.163718e+00    3.667829e+00
  5.179593e+00    3.692470e+00
  5.195469e+00    3.621574e+00
  5.211345e+00    3.633827e+00
  5.227220e+00    3.690957e+00
  5.243096e+00    3.657089e+00
  5.258971e+00    3.659447e+00
  5.274847e+00    3.577567e+00
  5.290722e+00    3.591731e+00
  5.306598e+00    3.691994e+00
  5.322474e+00    3.684529e+00
  5.338349e+00    3.613630e+00
  5.354225e+00    3.714795e+00
  5.370100e+00    3.631020e+00
  5.385976e+00    3.557343e+00
  5.401851e+00    3.654840e+00
  5.417727e+00    3.606992e+00
  5.433603e+00    3.602592e+00
  5.449478e+00    3.629485e+00
  5.465354e+00    3.552861e+00
  5.481229e+00    3.538976e+00
  5.497105e+00    3.507261e+00
  5.512980e+00    3.499014e+00
  5.528856e+00    3.510497e+00
  5.544732e+00    3.536532e+00
  5.560607e+00    3.504761e+00
  5.576483e+00    3.558511e+00
  5.592358e+00    3.593144e+00
  5.608234e+00    3.535874e+00
  5.624109e+00    3.573039e+00
  5.639985e+00    3.548536e+00
  5.655861e+00    3.614596e+00
  5.671736e+00    3.645859e+00
  5.687612e+00    3.622364e+00
  5.703487e+00    3.634399e+00
  5.719363e+00    3.588754e+00
  5.735238e+00    3.598096e+00
  5.751114e+00    3.534045e+00
  5.766990e+00    3.525674e+00
  5.782865e+00    3.561379e+00
  5.798741e+00    3.636984e+00
  5.814616e+00    3.579743e+00
  5.830492e+00    3.510430e+00
  5.846367e+00    3.481277e+00
  5.862243e+00    3.516804e+00
  5.878119e+00    3.581473e+00
  5.893994e+00    3.579967e+00
  5.909870e+00    3.582117e+00
  5.925745e+00    3.588066e+00
  5.941621e+00    3.521149e+00
  5.957497e+00    3.481789e+00
  5.973372e+00    3.473074e+00
  5.989248e+00    3.435990e+00
  6.005123e+00    3.462112e+00
  6.020999e+00    3.450811e+00
  6.036874e+00    3.536379e+00
  6.052750e+00    3.513086e+00
  6.068626e+00    3.507935e+00
  6.084501e+00    3.504080e+00
  6.100377e+00    3.548557e+00
  6.116252e+00    3.535523e+00
  6.132128e+00    3.553750e+00
  6.148003e+00    3.497342e+00
  6.163879e+00    3.559590e+00
  6.179755e+00    3.516471e+00
  6.195630e+00    3.552900e+00
  6.211506e+00    3.651270e+00
  6.227381e+00    3.548418e+00
  6.243257e+00    3.530177e+00
  6.259132e+00    3.553382e+00
  6.275008e+00    3.497052e+00
  6.290884e+00    3.452384e+00
  6.306759e+00    3.533179e+00
  6.322635e+00    3.503615e+00
  6.338510e+00    3.512791e+00
  6.354386e+00    3.571237e+00
  6.370261e+00    3.544392e+00
  6.386137e+00    3.474378e+00
  6.402013e+00    3.452259e+00
  6.417888e+00    3.555031e+00
  6.433764e+00    3.556493e+00
  6.449639e+00    3.510297e+00
  6.465515e+00    3.590948e+00
  6.481390e+00    3.520463e+00
  6.497266e+00    3.538345e+00
  6.513142e+00    3.563388e+00
  6.529017e+00    3.564430e+00
  6.544893e+00    3.512105e+00
  6.560768e+00    3.574298e+00
  6.576644e+00    3.575085e+00
  6.592519e+00    3.474981e+00
  6.608395e+00    3.535174e+00
  6.624271e+00    3.527484e+00
  6.640146e+00    3.476682e+00
  6.656022e+00    3.515228e+00
  6.671897e+00    3.504426e+00
  6.687773e+00    3.494470e+00
  6.703648e+00    3.491320e+00
  6.719524e+00    3.481627e+00
  6.735400e+00    3.499689e+00
  6.751275e+00    3.526849e+00
  6.767151e+00    3.502521e+00
  6.783026e+00    3.532264e+00
  6.798902e+00    3.554646e+00
  6.814777e+00    3.503905e+00
  6.830653e+00    3.474909e+00
  6.846529e+00    3.432024e+00
  6.862404e+00    3.496306e+00
  6.878280e+00    3.477902e+00
  6.894155e+00    3.432106e+00
  6.910031e+00    3.469137e+00
  6.925907e+00    3.527491e+00
  6.941782e+00    3.488783e+00
  6.957658e+00    3.403531e+00
  6.973533e+00    3.507207e+00
  6.989409e+00    3.564160e+00
  7.005284e+00    3.516389e+00
  7.021160e+00    3.530419e+00
  7.037036e+00    3.517489e+00
  7.052911e+00    3.480431e+00
  7.068787e+00    3.462895e+00
  7.084662e+00    3.520217e+00
  7.100538e+00    3.516895e+00
  7.116413e+00    3.502507e+00
  7.132289e+00    3.525507e+00
  7.148165e+00    3.486021e+00
  7.164040e+00    3.453976e+00
  7.179916e+00    3.446233e+00
  7.195791e+00    3.488805e+00
  7.211667e+00    3.529972e+00
  7.227542e+00    3.480761e+00
  7.243418e+00    3.435570e+00
  7.259294e+00    3.401060e+00
  7.275169e+00    3.445807e+00
  7.291045e+00    3.451850e+00
  7.306920e+00    3.465606e+00
  7.322796e+00    3.487718e+00
  7.338671e+00    3.461153e+00
  7.354547e+00    3.463213e+00
  7.370423e+00    3.499404e+00
  7.386298e+00    3.545042e+00
  7.402174e+00    3.541338e+00
  7.418049e+00    3.488231e+00
  7.433925e+00    3.465937e+00
  7.449800e+00    3.440753e+00
  7.465676e+00    3.382433e+00
  7.481552e+00    3.437732e+00
  7.497427e+00    3.421473e+00
  7.513303e+00    3.429318e+00
  7.529178e+00    3.483816e+00
  7.545054e+00    3.510979e+00
  7.560929e+00    3.464202e+00
  7.576805e+00    3.435852e+00
  7.592681e+00    3.405157e+00
  7.608556e+00    3.437093e+00
  7.624432e+00    3.447541e+00
  7.640307e+00    3.458792e+00
  7.656183e+00    3.386517e+00
  7.672058e+00    3.486580e+00
  7.687934e+00    3.465595e+00
  7.703810e+00    3.482333e+00
  7.719685e+00    3.390595e+00
  7.735561e+00    3.453465e+00
  7.751436e+00    3.470429e+00
  7.767312e+00    3.372425e+00
  7.783187e+00    3.367489e+00
  7.799063e+00    3.406399e+00
  7.814939e+00    3.400201e+00
  7.830814e+00    3.368936e+00
  7.846690e+00    3.411614e+00
  7.862565e+00    3.384518e+00
  7.878441e+00    3.384680e+00
  7.894317e+00    3.347212e+00
  7.910192e+00    3.418664e+00
  7.926068e+00    3.436409e+00
  7.941943e+00    3.388681e+00
  7.957819e+00    3.364514e+00
  7.973694e+00    3.400710e+00
  7.989570e+00    3.432646e+00
  8.005446e+00    3.310395e+00
  8.021321e+00    3.322067e+00
  8.037197e+00    3.414431e+00
  8.053072e+00    3.386228e+00
  8.068948e+00    3.344640e+00
  8.084823e+00    3.442205e+00
  8.100699e+00    3.406671e+00
  8.116575e+00    3.424685e+00
  8.132450e+00    3.480047e+00
  8.148326e+00    3.495210e+00
  8.164201e+00    3.496417e+00
  8.180077e+00    3.475743e+00
  8.195952e+00    3.421026e+00
  8.211828e+00    3.347976e+00
  8.227704e+00    3.443460e+00
  8.243579e+00    3.521061e+00
  8.259455e+00    3.464398e+00
  8.275330e+00    3.392140e+00
  8.291206e+00    3.302921e+00
  8.307081e+00    3.297883e+00
  8.322957e+00    3.364220e+00
  8.338833e+00    3.372038e+00
  8.354708e+00    3.421019e+00
  8.370584e+00    3.392611e+00
  8.386459e+00    3.353284e+00
  8.402335e+00    3.288589e+00
  8.418210e+00    3.336169e+00
  8.434086e+00    3.333643e+00
  8.449962e+00    3.378774e+00
  8.465837e+00    3.362563e+00
  8.481713e+00    3.319678e+00
  8.497588e+00    3.296643e+00
  8.513464e+00    3.286241e+00
  8.529339e+00    3.312856e+00
  8.545215e+00    3.307785e+00
  8.561091e+00    3.318142e+00
  8.576966e+00    3.332293e+00
  8.592842e+00    3.301244e+00
  8.608717e+00    3.308201e+00
  8.624593e+00    3.324068e+00
  8.640468e+00    3.332826e+00
  8.656344e+00    3.312950e+00
  8.672220e+00    3.258981e+00
  8.688095e+00    3.324234e+00
  8.703971e+00    3.385727e+00
  8.719846e+00    3.324696e+00
  8.735722e+00    3.302331e+00
  8.751598e+00    3.307464e+00
  8.767473e+00    3.285167e+00
  8.783349e+00    3.317316e+00
  8.799224e+00    3.323464e+00
  8.815100e+00    3.278456e+00
  8.830975e+00    3.267722e+00
  8.846851e+00    3.309438e+00
  8.862727e+00    3.291798e+00
  8.878602e+00    3.292835e+00
  8.894478e+00    3.324836e+00
  8.910353e+00    3.334309e+00
  8.926229e+00    3.270358e+00
  8.942104e+00    3.222179e+00
  8.957980e+00    3.224431e+00
  8.973856e+00    3.298581e+00
  8.989731e+00    3.307008e+00
  9.005607e+00    3.314956e+00
  9.021482e+00    3.270639e+00
  9.037358e+00    3.259526e+00
  9.053233e+00    3.249420e+00
  9.069109e+00    3.211796e+00
  9.084985e+00    3.194808e+00
  9.100860e+00    3.229460e+00
  9.116736e+00    3.283814e+00
  9.132611e+00    3.230892e+00
  9.148487e+00    3.230858e+00
  9.164362e+00    3.215441e+00
  9.180238e+00    3.204436e+00
  9.196114e+00    3.249601e+00
  9.211989e+00    3.245483e+00
  9.227865e+00    3.191139e+00
  9.243740e+00    3.249176e+00
  9.259616e+00    3.255312e+00
  9.275491e+00    3.198434e+00
  9.291367e+00    3.154187e+00
  9.307243e+00    3.193745e+00
  9.323118e+00    3.215493e+00
  9.338994e+00    3.182532e+00
  9.354869e+00    3.150822e+00
  9.370745e+00    3.173755e+00
  9.386620e+00    3.193403e+00
  9.402496e+00    3.173313e+00
  9.418372e+00    3.167227e+00
  9.434247e+00    3.172794e+00
  9.450123e+00    3.199000e+00
  9.465998e+00    3.141670e+00
  9.481874e+00    3.105291e+00
  9.497749e+00    3.181862e+00
  9.513625e+00    3.090309e+00
  9.529501e+00    3.152725e+00
  9.545376e+00    3.237787e+00
  9.561252e+00    3.226301e+00
  9.577127e+00    3.166617e+00
  9.593003e+00    3.158125e+00
  9.608878e+00    3.214456e+00
  9.624754e+00    3.177707e+00
  9.640630e+00    3.175489e+00
  9.656505e+00    3.187276e+00
  9.672381e+00    3.132967e+00
  9.688256e+00    3.160296e+00
  9.704132e+00    3.115548e+00
  9.720008e+00    3.120052e+00
  9.735883e+00    3.153008e+00
  9.751759e+00    3.151324e+00
  9.767634e+00    3.156553e+00
  9.783510e+00    3.138588e+00
  9.799385e+00    3.130579e+00
  9.815261e+00    3.124408e+00
  9.831137e+00    3.123250e+00
  9.847012e+00    3.136001e+00
  9.862888e+00    3.151999e+00
  9.878763e+00    3.099188e+00
  9.894639e+00    3.126180e+00
  9.910514e+00    3.103819e+00
  9.926390e+00    3.113284e+00
  9.942266e+00    3.107361e+00
  9.958141e+00    3.112522e+00
  9.974017e+00    3.101204e+00
  9.989892e+00    3.073885e+00
  1.000577e+01    3.080292e+00
  1.002164e+01    3.117695e+00
  1.003752e+01    3.036674e+00
  1.005339e+01    3.087972e+00
  1.006927e+01    3.084878e+00
  1.008515e+01    3.075542e+00
  1.010102e+01    3.076656e+00
  1.011690e+01    3.080967e+00
  1.013277e+01    3.066211e+00
  1.014865e+01    3.091310e+00
  1.016452e+01    3.106804e+00
  1.018040e+01    3.077477e+00
  1.019627e+01    3.106336e+00
  1.021215e+01    3.048120e+00
  1.022803e+01    3.030550e+00
  1.024390e+01    3.061957e+00
  1.025978e+01    3.078603e+00
  1.027565e+01    3.063460e+00
  1.029153e+01    3.038909e+00
  1.030740e+01    3.003142e+00
  1.032328e+01    3.037077e+00
  1.033915e+01    2.993993e+00
  1.035503e+01    2.982537e+00
  1.037091e+01    2.987228e+00
  1.038678e+01    2.992169e+00
  1.040266e+01    2.968865e+00
  1.041853e+01    3.040035e+00
  1.043441e+01    3.038484e+00
  1.045028e+01    3.042033e+00
  1.046616e+01    3.013923e+00
  1.048204e+01    2.989657e+00
  1.049791e+01    2.984698e+00
  1.051379e+01    2.929886e+00
  1.052966e+01    2.931598e+00
  1.054554e+01    2.968740e+00
  1.056141e+01    2.942982e+00
  1.057729e+01    2.966155e+00
  1.059316e+01    2.971548e+00
  1.060904e+01    2.984513e+00
  1.062492e+01    2.967216e+00
  1.064079e+01    2.971428e+00
  1.065667e+01    2.984420e+00
  1.067254e+01    2.956797e+00
  1.068842e+01    2.943436e+00
  1.070429e+01    2.945787e+00
  1.072017e+01    2.946174e+00
  1.073604e+01    2.948149e+00
  1.075192e+01    2.957238e+00
  1.076780e+01    2.972309e+00
  1.078367e+01    2.940415e+00
  1.079955e+01    2.922472e+00
  1.081542e+01    2.910156e+00
  1.083130e+01    2.931526e+00
  1.084717e+01    2.932313e+00
  1.086305e+01    2.903591e+00
  1.087892e+01    2.893186e+00
  1.089480e+01    2.900568e+00
  1.091068e+01    2.882963e+00
  1.092655e+01    2.869228e+00
  1.094243e+01    2.884110e+00
  1.095830e+01    2.896986e+00
  1.097418e+01    2.891613e+00
  1.099005e+01    2.864141e+00
  1.100593e+01    2.853613e+00
  1.102180e+01    2.872458e+00
  1.103768e+01    2.865206e+00
  1.105356e+01    2.846923e+00
  1.106943e+01    2.875734e+00
  1.108531e+01    2.835870e+00
  1.110118e+01    2.817771e+00
  1.111706e+01    2.853680e+00
  1.113293e+01    2.807789e+00
  1.114881e+01    2.820938e+00
  1.116468e+01    2.829191e+00
  1.118056e+01    2.838965e+00
  1.119644e+01    2.832301e+00
  1.121231e+01    2.840612e+00
  1.122819e+01    2.791402e+00
  1.124406e+01    2.790350e+00
  1.125994e+01    2.762660e+00
  1.127581e+01    2.778238e+00
  1.129169e+01    2.873826e+00
  1.130756e+01    2.811439e+00
  1.132344e+01    2.795174e+00
  1.133932e+01    2.787925e+00
  1.135519e+01    2.792526e+00
  1.137107e+01    2.781120e+00
  1.138694e+01    2.797558e+00
  1.140282e+01    2.835371e+00
  1.141869e+01    2.813612e+00
  1.143457e+01    2.802461e+00
  1.145045e+01    2.765919e+00
  1.146632e+01    2.765211e+00
  1.148220e+01    2.744339e+00
  1.149807e+01    2.759256e+00
  1.151395e+01    2.798522e+00
  1.152982e+01    2.760525e+00
  1.154570e+01    2.777120e+00
  1.156157e+01    2.720563e+00
  1.157745e+01    2.759255e+00
  1.159333e+01    2.789151e+00
  1.160920e+01    2.758559e+00
  1.162508e+01    2.776128e+00
  1.164095e+01    2.729290e+00
  1.165683e+01    2.760033e+00
  1.167270e+01    2.715226e+00
  1.168858e+01    2.737022e+00
  1.170445e+01    2.736750e+00
  1.172033e+01    2.739133e+00
  1.173621e+01    2.777843e+00
  1.175208e+01    2.783561e+00
  1.176796e+01    2.759942e+00
  1.178383e+01    2.689556e+00
  1.179971e+01    2.698346e+00
  1.181558e+01    2.731944e+00
  1.183146e+01    2.699032e+00
  1.184733e+01    2.736835e+00
  1.186321e+01    2.654620e+00
  1.187909e+01    2.683628e+00
  1.189496e+01    2.691876e+00
  1.191084e+01    2.651922e+00
  1.192671e+01    2.662562e+00
  1.194259e+01    2.695098e+00
  1.195846e+01    2.721120e+00
  1.197434e+01    2.663664e+00
  1.199021e+01    2.641823e+00
  1.200609e+01    2.705152e+00
  1.202197e+01    2.724978e+00
  1.203784e+01    2.693567e+00
  1.205372e+01    2.669711e+00
  1.206959e+01    2.684701e+00
  1.208547e+01    2.675191e+00
  1.210134e+01    2.728746e+00
  1.211722e+01    2.696604e+00
  1.213309e+01    2.666793e+00
  1.214897e+01    2.598738e+00
  1.216485e+01    2.650300e+00
  1.218072e+01    2.687039e+00
  1.219660e+01    2.692648e+00
  1.221247e+01    2.673801e+00
  1.222835e+01    2.658717e+00
  1.224422e+01    2.640289e+00
  1.226010e+01    2.638518e+00
  1.227597e+01    2.641482e+00
  1.229185e+01    2.653924e+00
  1.230773e+01    2.663564e+00
  1.232360e+01    2.658786e+00
  1.233948e+01    2.641910e+00
  1.235535e+01    2.600584e+00
  1.237123e+01    2.657803e+00
  1.238710e+01    2.645443e+00
  1.240298e+01    2.644206e+00
  1.241886e+01    2.641062e+00
  1.243473e+01    2.665134e+00
  1.245061e+01    2.687296e+00
  1.246648e+01    2.719969e+00
  1.248236e+01    2.722005e+00
  1.249823e+01    2.721670e+00
  1.251411e+01    2.695905e+00
  1.252998e+01    2.685718e+00
  1.254586e+01    2.666183e+00
  1.256174e+01    2.661650e+00
  1.257761e+01    2.705045e+00
  1.259349e+01    2.711526e+00
  1.260936e+01    2.729081e+00
  1.262524e+01    2.717296e+00
  1.264111e+01    2.725274e+00
  1.265699e+01    2.784249e+00
  1.267286e+01    2.806967e+00
  1.268874e+01    2.774209e+00
  1.270462e+01    2.801632e+00
  1.272049e+01    2.802413e+00
  1.273637e+01    2.844413e+00
  1.275224e+01    2.840967e+00
  1.276812e+01    2.900195e+00
  1.278399e+01    2.931718e+00
  1.279987e+01    2.947553e+00
  1.281574e+01    3.002584e+00
  1.283162e+01    3.070115e+00
  1.284750e+01    3.151152e+00
  1.286337e+01    3.247339e+00
  1.287925e+01    3.324825e+00
  1.289512e+01    3.448864e+00
  1.291100e+01    3.664837e+00
  1.292687e+01    3.813767e+00
  1.294275e+01    4.022999e+00
  1.295862e+01    4.364401e+00
  1.297450e+01    4.745250e+00
  1.299038e+01    5.162158e+00
  1.300625e+01    5.794689e+00
  1.302213e+01    6.645417e+00
  1.303800e+01    7.536151e+00
  1.305388e+01    8.730591e+00
  1.306975e+01    1.006391e+01
  1.308563e+01    1.129281e+01
  1.310150e+01    1.239611e+01
  1.311738e+01    1.351410e+01
  1.313326e+01    1.459665e+01
  1.314913e+01    1.557176e+01
  1.316501e+01    1.609699e+01
  1.318088e+01    1.609417e+01
  1.319676e+01    1.531357e+01
  1.321263e+01    1.414562e+01
  1.322851e+01    1.234163e+01
  1.324438e+01    1.049204e+01
  1.326026e+01    8.990950e+00
  1.327614e+01    7.753049e+00
  1.329201e+01    6.719703e+00
  1.330789e+01    5.952333e+00
  1.332376e+01    5.352786e+00
  1.333964e+01    4.800618e+00
  1.335551e+01    4.413740e+00
  1.337139e+01    4.131830e+00
  1.338727e+01    3.851440e+00
  1.340314e+01    3.652736e+00
  1.341902e+01    3.438480e+00
  1.343489e+01    3.297122e+00
  1.345077e+01    3.207090e+00
  1.346664e+01    3.084876e+00
  1.348252e+01    3.020991e+00
  1.349839e+01    2.939499e+00
  1.351427e+01    2.859962e+00
  1.353015e+01    2.812455e+00
  1.354602e+01    2.797452e+00
  1.356190e+01    2.786746e+00
  1.357777e+01    2.725435e+00
  1.359365e+01    2.668622e+00
  1.360952e+01    2.685515e+00
  1.362540e+01    2.662201e+00
  1.364127e+01    2.611856e+00
  1.365715e+01    2.542197e+00
  1.367303e+01    2.557842e+00
  1.368890e+01    2.546618e+00
  1.370478e+01    2.494872e+00
  1.372065e+01    2.462541e+00
  1.373653e+01    2.441552e+00
  1.375240e+01    2.499450e+00
  1.376828e+01    2.495407e+00
  1.378415e+01    2.451517e+00
  1.380003e+01    2.426569e+00
  1.381591e+01    2.451115e+00
  1.383178e+01    2.443337e+00
  1.384766e+01    2.430943e+00
  1.386353e+01    2.425977e+00
  1.387941e+01    2.403910e+00
  1.389528e+01    2.383803e+00
  1.391116e+01    2.380559e+00
  1.392703e+01    2.371603e+00
  1.394291e+01    2.351408e+00
  1.395879e+01    2.339913e+00
  1.397466e+01    2.325430e+00
  1.399054e+01    2.337903e+00
  1.400641e+01    2.346305e+00
  1.402229e+01    2.358335e+00
  1.403816e+01    2.315695e+00
  1.405404e+01    2.310507e+00
  1.406991e+01    2.325925e+00
  1.408579e+01    2.331545e+00
  1.410167e+01    2.346293e+00
  1.411754e+01    2.303798e+00
  1.413342e+01    2.262493e+00
  1.414929e+01    2.279073e+00
  1.416517e+01    2.265860e+00
  1.418104e+01    2.281746e+00
  1.419692e+01    2.276672e+00
  1.421279e+01    2.272883e+00
  1.422867e+01    2.296294e+00
  1.424455e+01    2.249724e+00
  1.426042e+01    2.285801e+00
  1.427630e+01    2.255007e+00
  1.429217e+01    2.267748e+00
  1.430805e+01    2.285814e+00
  1.432392e+01    2.257351e+00
  1.433980e+01    2.255422e+00
  1.435568e+01    2.273259e+00
  1.437155e+01    2.257800e+00
  1.438743e+01    2.224833e+00
  1.440330e+01    2.212614e+00
  1.441918e+01    2.220145e+00
  1.443505e+01    2.155568e+00
  1.445093e+01    2.165947e+00
  1.446680e+01    2.169058e+00
  1.448268e+01    2.182421e+00
  1.449856e+01    2.196370e+00
  1.451443e+01    2.239987e+00
  1.453031e+01    2.219008e+00
  1.454618e+01    2.210442e+00
  1.456206e+01    2.182108e+00
  1.457793e+01    2.182651e+00
  1.459381e+01    2.211965e+00
  1.460968e+01    2.239654e+00
  1.462556e+01    2.238940e+00
  1.464144e+01    2.221185e+00
  1.465731e+01    2.185591e+00
  1.467319e+01    2.165893e+00
  1.468906e+01    2.178707e+00
  1.470494e+01    2.167454e+00
  1.472081e+01    2.202642e+00
  1.473669e+01    2.203655e+00
  1.475256e+01    2.174314e+00
  1.476844e+01    2.177158e+00
  1.478432e+01    2.150131e+00
  1.480019e+01    2.179130e+00
  1.481607e+01    2.218686e+00
  1.483194e+01    2.208333e+00
  1.484782e+01    2.170347e+00
  1.486369e+01    2.194413e+00
  1.487957e+01    2.226076e+00
  1.489544e+01    2.248991e+00
  1.491132e+01    2.264429e+00
  1.492720e+01    2.272388e+00
  1.494307e+01    2.229672e+00
  1.495895e+01    2.266009e+00
  1.497482e+01    2.316240e+00
  1.499070e+01    2.341215e+00
  1.500657e+01    2.406193e+00
  1.502245e+01    2.488867e+00
  1.503832e+01    2.520124e+00
  1.505420e+01    2.671952e+00
  1.507008e+01    2.839781e+00
  1.508595e+01    2.962507e+00
  1.510183e+01    3.139191e+00
  1.511770e+01    3.414583e+00
  1.513358e+01    3.728695e+00
  1.514945e+01    4.085717e+00
  1.516533e+01    4.446779e+00
  1.518120e+01    4.801456e+00
  1.519708e+01    5.079353e+00
  1.521296e+01    5.334138e+00
  1.522883e+01    5.614050e+00
  1.524471e+01    5.684347e+00
  1.526058e+01    5.706035e+00
  1.527646e+01    5.629631e+00
  1.529233e+01    5.361558e+00
  1.530821e+01    5.042269e+00
  1.532409e+01    4.608486e+00
  1.533996e+01    4.124186e+00
  1.535584e+01    3.692461e+00
  1.537171e+01    3.396557e+00
  1.538759e+01    3.151148e+00
  1.540346e+01    2.909767e+00
  1.541934e+01    2.782548e+00
  1.543521e+01    2.617665e+00
  1.545109e+01    2.476319e+00
  1.546697e+01    2.385141e+00
  1.548284e+01    2.375332e+00
  1.549872e+01    2.330232e+00
  1.551459e+01    2.240182e+00
  1.553047e+01    2.205666e+00
  1.554634e+01    2.170376e+00
  1.556222e+01    2.117590e+00
  1.557809e+01    2.119294e+00
  1.559397e+01    2.080684e+00
  1.560985e+01    2.058688e+00
  1.562572e+01    2.019404e+00
  1.564160e+01    2.029073e+00
  1.565747e+01    2.032534e+00
  1.567335e+01    1.967306e+00
  1.568922e+01    1.976943e+00
  1.570510e+01    1.953476e+00
  1.572097e+01    1.958961e+00
  1.573685e+01    1.952975e+00
  1.575273e+01    1.958825e+00
  1.576860e+01    1.947150e+00
  1.578448e+01    1.949941e+00
  1.580035e+01    1.947782e+00
  1.581623e+01    1.919588e+00
  1.583210e+01    1.935290e+00
  1.584798e+01    1.890428e+00
  1.586385e+01    1.923598e+00
  1.587973e+01    1.901314e+00
  1.589561e+01    1.882896e+00
  1.591148e+01    1.890023e+00
  1.592736e+01    1.923361e+00
  1.594323e+01    1.892732e+00
  1.595911e+01    1.848731e+00
  1.597498e+01    1.843543e+00
  1.599086e+01    1.863735e+00
  1.600673e+01    1.867626e+00
  1.602261e+01    1.864747e+00
  1.603849e+01    1.839014e+00
  1.605436e+01    1.838421e+00
  1.607024e+01    1.866750e+00
  1.608611e+01    1.854970e+00
  1.610199e+01    1.820327e+00
  1.611786e+01    1.812228e+00
  1.613374e+01    1.819319e+00
  1.614961e+01    1.801863e+00
  1.616549e+01    1.838511e+00
  1.618137e+01    1.849075e+00
  1.619724e+01    1.815143e+00
  1.621312e+01    1.805644e+00
  1.622899e+01    1.815609e+00
  1.624487e+01    1.793455e+00
  1.626074e+01    1.815552e+00
  1.627662e+01    1.807320e+00
  1.629250e+01    1.768032e+00
  1.630837e+01    1.754443e+00
  1.632425e+01    1.762519e+00
  1.634012e+01    1.766985e+00
  1.635600e+01    1.774788e+00
  1.637187e+01    1.761577e+00
  1.638775e+01    1.779287e+00
  1.640362e+01    1.785605e+00
  1.641950e+01    1.734006e+00
  1.643538e+01    1.743202e+00
  1.645125e+01    1.717713e+00
  1.646713e+01    1.732813e+00
  1.648300e+01    1.756548e+00
  1.649888e+01    1.754215e+00
  1.651475e+01    1.711956e+00
  1.653063e+01    1.719316e+00
  1.654650e+01    1.729295e+00
  1.656238e+01    1.699870e+00
  1.657826e+01    1.689384e+00
  1.659413e+01    1.709185e+00
  1.661001e+01    1.699715e+00
  1.662588e+01    1.697231e+00
  1.664176e+01    1.702570e+00
  1.665763e+01    1.720370e+00
  1.667351e+01    1.735717e+00
  1.668938e+01    1.741517e+00
  1.670526e+01    1.732419e+00
  1.672114e+01    1.678538e+00
  1.673701e+01    1.667999e+00
  1.675289e+01    1.683536e+00
  1.676876e+01    1.663973e+00
  1.678464e+01    1.680699e+00
  1.680051e+01    1.688835e+00
  1.681639e+01    1.701132e+00
  1.683226e+01    1.711217e+00
  1.684814e+01    1.703316e+00
  1.686402e+01    1.702201e+00
  1.687989e+01    1.672822e+00
  1.689577e+01    1.687130e+00
  1.691164e+01    1.674786e+00
  1.692752e+01    1.684068e+00
  1.694339e+01    1.711784e+00
  1.695927e+01    1.686521e+00
  1.697514e+01    1.670755e+00
  1.699102e+01    1.648550e+00
  1.700690e+01    1.659400e+00
  1.702277e+01    1.665382e+00
  1.703865e+01    1.644325e+00
  1.705452e+01    1.668984e+00
  1.707040e+01    1.637304e+00
  1.708627e+01    1.631180e+00
  1.710215e+01    1.635598e+00
  1.711802e+01    1.602279e+00
  1.713390e+01    1.654447e+00
  1.714978e+01    1.617868e+00
  1.716565e+01    1.643544e+00
  1.718153e+01    1.655432e+00
  1.719740e+01    1.630329e+00
  1.721328e+01    1.606839e+00
  1.722915e+01    1.618257e+00
  1.724503e+01    1.596758e+00
  1.726091e+01    1.625884e+00
  1.727678e+01    1.637344e+00
  1.729266e+01    1.597531e+00
  1.730853e+01    1.591265e+00
  1.732441e+01    1.604437e+00
  1.734028e+01    1.603202e+00
  1.735616e+01    1.624105e+00
  1.737203e+01    1.624148e+00
  1.738791e+01    1.583266e+00
  1.740379e+01    1.626885e+00
  1.741966e+01    1.623978e+00
  1.743554e+01    1.579001e+00
  1.745141e+01    1.577650e+00
  1.746729e+01    1.553923e+00
  1.748316e+01    1.573012e+00
  1.749904e+01    1.582331e+00
  1.751491e+01    1.551543e+00
  1.753079e+01    1.559610e+00
  1.754667e+01    1.573131e+00
  1.756254e+01    1.584674e+00
  1.757842e+01    1.584525e+00
  1.759429e+01    1.552066e+00
  1.761017e+01    1.542938e+00
  1.762604e+01    1.556393e+00
  1.764192e+01    1.583777e+00
  1.765779e+01    1.564313e+00
  1.767367e+01    1.549414e+00
  1.768955e+01    1.544143e+00
  1.770542e+01    1.565024e+00
  1.772130e+01    1.568315e+00
  1.773717e+01    1.558270e+00
  1.775305e+01    1.513689e+00
  1.776892e+01    1.513417e+00
  1.778480e+01    1.519240e+00
  1.780067e+01    1.507111e+00
  1.781655e+01    1.539786e+00
  1.783243e+01    1.525459e+00
  1.784830e+01    1.499016e+00
  1.786418e+01    1.504451e+00
  1.788005e+01    1.534928e+00
  1.789593e+01    1.521314e+00
  1.791180e+01    1.542012e+00
  1.792768e+01    1.509240e+00
  1.794355e+01    1.498317e+00
  1.795943e+01    1.481283e+00
  1.797531e+01    1.474671e+00
  1.799118e+01    1.519720e+00
  1.800706e+01    1.497017e+00
  1.802293e+01    1.470245e+00
  1.803881e+01    1.471318e+00
  1.805468e+01    1.482483e+00
  1.807056e+01    1.500066e+00
  1.808643e+01    1.472496e+00
  1.810231e+01    1.472672e+00
  1.811819e+01    1.469326e+00
  1.813406e+01    1.496652e+00
  1.814994e+01    1.493256e+00
  1.816581e+01    1.471023e+00
  1.818169e+01    1.462251e+00
  1.819756e+01    1.459250e+00
  1.821344e+01    1.489215e+00
  1.822932e+01    1.468021e+00
  1.824519e+01    1.453447e+00
  1.826107e+01    1.457202e+00
  1.827694e+01    1.457816e+00
  1.829282e+01    1.450427e+00
  1.830869e+01    1.465155e+00
  1.832457e+01    1.473161e+00
  1.834044e+01    1.444861e+00
  1.835632e+01    1.444927e+00
  1.837220e+01    1.439065e+00
  1.838807e+01    1.433356e+00
  1.840395e+01    1.448609e+00
  1.841982e+01    1.462264e+00
  1.843570e+01    1.457548e+00
  1.845157e+01    1.460715e+00
  1.846745e+01    1.418887e+00
  1.848332e+01    1.419624e+00
  1.849920e+01    1.451623e+00
  1.851508e+01    1.429120e+00
  1.853095e+01    1.439323e+00
  1.854683e+01    1.420821e+00
  1.856270e+01    1.402776e+00
  1.857858e+01    1.409460e+00
  1.859445e+01    1.415059e+00
  1.861033e+01    1.432306e+00
  1.862620e+01    1.432273e+00
  1.864208e+01    1.425094e+00
  1.865796e+01    1.417830e+00
  1.867383e+01    1.399830e+00
  1.868971e+01    1.411768e+00
  1.870558e+01    1.397401e+00
  1.872146e+01    1.390687e+00
  1.873733e+01    1.388327e+00
  1.875321e+01    1.400208e+00
  1.876908e+01    1.388636e+00
  1.878496e+01    1.382112e+00
  1.880084e+01    1.385768e+00
  1.881671e+01    1.378052e+00
  1.883259e+01    1.399878e+00
  1.884846e+01    1.368789e+00
  1.886434e+01    1.383255e+00
  1.888021e+01    1.393540e+00
  1.889609e+01    1.380489e+00
  1.891196e+01    1.395543e+00
  1.892784e+01    1.399430e+00
  1.894372e+01    1.381650e+00
  1.895959e+01    1.356172e+00
  1.897547e+01    1.341752e+00
  1.899134e+01    1.375260e+00
  1.900722e+01    1.340296e+00
  1.902309e+01    1.357864e+00
  1.903897e+01    1.375376e+00
  1.905484e+01    1.376477e+00
  1.907072e+01    1.386806e+00
  1.908660e+01    1.357915e+00
  1.910247e+01    1.327155e+00
  1.911835e+01    1.357020e+00
  1.913422e+01    1.352543e+00
  1.915010e+01    1.351159e+00
  1.916597e+01    1.339192e+00
  1.918185e+01    1.323649e+00
  1.919773e+01    1.334422e+00
  1.921360e+01    1.351396e+00
  1.922948e+01    1.353897e+00
  1.924535e+01    1.357233e+00
  1.926123e+01    1.354740e+00
  1.927710e+01    1.352676e+00
  1.929298e+01    1.354031e+00
  1.930885e+01    1.322198e+00
  1.932473e+01    1.315811e+00
  1.934061e+01    1.323066e+00
  1.935648e+01    1.334811e+00
  1.937236e+01    1.330512e+00
  1.938823e+01    1.349298e+00
  1.940411e+01    1.349830e+00
  1.941998e+01    1.314837e+00
  1.943586e+01    1.314077e+00
  1.945173e+01    1.314399e+00
  1.946761e+01    1.315866e+00
  1.948349e+01    1.333206e+00
  1.949936e+01    1.326472e+00
  1.951524e+01    1.321196e+00
  1.953111e+01    1.310666e+00
  1.954699e+01    1.314461e+00
  1.956286e+01    1.316226e+00
  1.957874e+01    1.308687e+00
  1.959461e+01    1.285334e+00
  1.961049e+01    1.311016e+00
  1.962637e+01    1.304755e+00
  1.964224e+01    1.311984e+00
  1.965812e+01    1.303751e+00
  1.967399e+01    1.311547e+00
  1.968987e+01    1.306607e+00
  1.970574e+01    1.296889e+00
  1.972162e+01    1.308135e+00
  1.973749e+01    1.334064e+00
  1.975337e+01    1.288654e+00
  1.976925e+01    1.290023e+00
  1.978512e+01    1.275455e+00
  1.980100e+01    1.272670e+00
  1.981687e+01    1.272403e+00
  1.983275e+01    1.306175e+00
  1.984862e+01    1.289322e+00
  1.986450e+01    1.259149e+00
  1.988037e+01    1.271245e+00
  1.989625e+01    1.300348e+00
  1.991213e+01    1.283208e+00
  1.992800e+01    1.284178e+00
  1.994388e+01    1.262039e+00
  1.995975e+01    1.279016e+00
  1.997563e+01    1.245167e+00
  1.999150e+01    1.268905e+00
  2.000738e+01    1.290267e+00
  2.002325e+01    1.313454e+00
  2.003913e+01    1.293492e+00
  2.005501e+01    1.284005e+00
  2.007088e+01    1.275273e+00
  2.008676e+01    1.262787e+00
  2.010263e+01    1.259734e+00
  2.011851e+01    1.243756e+00
  2.013438e+01    1.233952e+00
  2.015026e+01    1.235005e+00
  2.016614e+01    1.238417e+00
  2.018201e+01    1.238409e+00
  2.019789e+01    1.239612e+00
  2.021376e+01    1.235861e+00
  2.022964e+01    1.261117e+00
  2.024551e+01    1.260512e+00
  2.026139e+01    1.256470e+00
  2.027726e+01    1.246651e+00
  2.029314e+01    1.261865e+00
  2.030902e+01    1.247076e+00
  2.032489e+01    1.225593e+00
  2.034077e+01    1.249142e+00
  2.035664e+01    1.245659e+00
  2.037252e+01    1.235089e+00
  2.038839e+01    1.241937e+00
  2.040427e+01    1.241455e+00
  2.042014e+01    1.248202e+00
  2.043602e+01    1.243428e+00
  2.045190e+01    1.232321e+00
  2.046777e+01    1.219618e+00
  2.048365e+01    1.201682e+00
  2.049952e+01    1.199817e+00
  2.051540e+01    1.202711e+00
  2.053127e+01    1.222857e+00
  2.054715e+01    1.222433e+00
  2.056302e+01    1.221460e+00
  2.057890e+01    1.224516e+00
  2.059478e+01    1.256061e+00
  2.061065e+01    1.242235e+00
  2.062653e+01    1.196155e+00
  2.064240e+01    1.249883e+00
  2.065828e+01    1.230374e+00
  2.067415e+01    1.204418e+00
  2.069003e+01    1.222383e+00
  2.070590e+01    1.233448e+00
  2.072178e+01    1.228626e+00
  2.073766e+01    1.226710e+00
  2.075353e+01    1.215199e+00
  2.076941e+01    1.211044e+00
  2.078528e+01    1.209783e+00
  2.080116e+01    1.208874e+00
  2.081703e+01    1.203213e+00
  2.083291e+01    1.194598e+00
  2.084878e+01    1.177114e+00
  2.086466e+01    1.190014e+00
  2.088054e+01    1.203983e+00
  2.089641e+01    1.211494e+00
  2.091229e+01    1.214053e+00
  2.092816e+01    1.207261e+00
  2.094404e+01    1.224373e+00
  2.095991e+01    1.216163e+00
  2.097579e+01    1.215649e+00
  2.099166e+01    1.213204e+00
  2.100754e+01    1.224493e+00
  2.102342e+01    1.216651e+00
  2.103929e+01    1.207159e+00
  2.105517e+01    1.186276e+00
  2.107104e+01    1.196056e+00
  2.108692e+01    1.229994e+00
  2.110279e+01    1.217404e+00
  2.111867e+01    1.220028e+00
  2.113455e+01    1.206523e+00
  2.115042e+01    1.218913e+00
  2.116630e+01    1.202955e+00
  2.118217e+01    1.224863e+00
  2.119805e+01    1.211912e+00
  2.121392e+01    1.213279e+00
  2.122980e+01    1.238133e+00
  2.124567e+01    1.221780e+00
  2.126155e+01    1.237247e+00
  2.127743e+01    1.262192e+00
  2.129330e+01    1.280856e+00
  2.130918e+01    1.258070e+00
  2.132505e+01    1.247746e+00
  2.134093e+01    1.259142e+00
  2.135680e+01    1.255818e+00
  2.137268e+01    1.256474e+00
  2.138855e+01    1.303364e+00
  2.140443e+01    1.295956e+00
  2.142031e+01    1.292125e+00
  2.143618e+01    1.314553e+00
  2.145206e+01    1.336318e+00
  2.146793e+01    1.372114e+00
  2.148381e+01    1.365144e+00
  2.149968e+01    1.392569e+00
  2.151556e+01    1.453705e+00
  2.153143e+01    1.478144e+00
  2.154731e+01    1.519109e+00
  2.156319e+01    1.560605e+00
  2.157906e+01    1.612586e+00
  2.159494e+01    1.683043e+00
  2.161081e+01    1.736368e+00
  2.162669e+01    1.815847e+00
  2.164256e+01    1.968002e+00
  2.165844e+01    2.090876e+00
  2.167431e+01    2.253346e+00
  2.169019e+01    2.460387e+00
  2.170607e+01    2.732900e+00
  2.172194e+01    3.062390e+00
  2.173782e+01    3.442197e+00
  2.175369e+01    3.959036e+00
  2.176957e+01    4.535975e+00
  2.178544e+01    5.115722e+00
  2.180132e+01    5.756894e+00
  2.181719e+01    6.405279e+00
  2.183307e+01    7.014101e+00
  2.184895e+01    7.631787e+00
  2.186482e+01    8.273115e+00
  2.188070e+01    8.727189e+00
  2.189657e+01    8.875514e+00
  2.191245e+01    8.660612e+00
  2.192832e+01    8.170422e+00
  2.194420e+01    7.474911e+00
  2.196007e+01    6.543184e+00
  2.197595e+01    5.690410e+00
  2.199183e+01    4.890687e+00
  2.200770e+01    4.211644e+00
  2.202358e+01    3.628644e+00
  2.203945e+01    3.224473e+00
  2.205533e+01    2.869554e+00
  2.207120e+01    2.530517e+00
  2.208708e+01    2.289529e+00
  2.210296e+01    2.118132e+00
  2.211883e+01    1.933027e+00
  2.213471e+01    1.844733e+00
  2.215058e+01    1.771548e+00
  2.216646e+01    1.672446e+00
  2.218233e+01    1.593545e+00
  2.219821e+01    1.551872e+00
  2.221408e+01    1.490333e+00
  2.222996e+01    1.452056e+00
  2.224584e+01    1.410700e+00
  2.226171e+01    1.357786e+00
  2.227759e+01    1.330640e+00
  2.229346e+01    1.339857e+00
  2.230934e+01    1.286228e+00
  2.232521e+01    1.254608e+00
  2.234109e+01    1.237314e+00
  2.235696e+01    1.223344e+00
  2.237284e+01    1.205838e+00
  2.238872e+01    1.216772e+00
  2.240459e+01    1.201891e+00
  2.242047e+01    1.190357e+00
  2.243634e+01    1.170801e+00
  2.245222e+01    1.143777e+00
  2.246809e+01    1.146827e+00
  2.248397e+01    1.144377e+00
  2.249984e+01    1.136814e+00
  2.251572e+01    1.102221e+00
  2.253160e+01    1.116715e+00
  2.254747e+01    1.143256e+00
  2.256335e+01    1.100986e+00
  2.257922e+01    1.109265e+00
  2.259510e+01    1.113491e+00
  2.261097e+01    1.102845e+00
  2.262685e+01    1.084079e+00
  2.264272e+01    1.084165e+00
  2.265860e+01    1.072293e+00
  2.267448e+01    1.075033e+00
  2.269035e+01    1.074068e+00
  2.270623e+01    1.070106e+00
  2.272210e+01    1.059054e+00
  2.273798e+01    1.049029e+00
  2.275385e+01    1.058587e+00
  2.276973e+01    1.030077e+00
  2.278560e+01    1.046089e+00
  2.280148e+01    1.042433e+00
  2.281736e+01    1.052273e+00
  2.283323e+01    1.037372e+00
  2.284911e+01    1.042716e+00
  2.286498e+01    1.036959e+00
  2.288086e+01    1.017839e+00
  2.289673e+01    1.055364e+00
  2.291261e+01    1.051006e+00
  2.292848e+01    1.026469e+00
  2.294436e+01    9.937419e-01
  2.296024e+01    9.991896e-01
  2.297611e+01    1.021461e+00
  2.299199e+01    1.037469e+00
  2.300786e+01    1.027972e+00
  2.302374e+01    9.873736e-01
  2.303961e+01    9.914355e-01
  2.305549e+01    1.000096e+00
  2.307137e+01    1.025405e+00
  2.308724e+01    9.959198e-01
  2.310312e+01    9.795991e-01
  2.311899e+01    9.790527e-01
  2.313487e+01    9.599444e-01
  2.315074e+01    9.625428e-01
  2.316662e+01    9.887713e-01
  2.318249e+01    9.619218e-01
  2.319837e+01    9.533614e-01
  2.321425e+01    9.783759e-01
  2.323012e+01    9.809231e-01
  2.324600e+01    9.738851e-01
  2.326187e+01    9.683008e-01
  2.327775e+01    9.787790e-01
  2.329362e+01    9.897720e-01
  2.330950e+01    9.751859e-01
  2.332537e+01    9.762933e-01
  2.334125e+01    9.736622e-01
  2.335713e+01    9.617912e-01
  2.337300e+01    9.761019e-01
  2.338888e+01    9.698344e-01
  2.340475e+01    9.650227e-01
  2.342063e+01    9.739504e-01
  2.343650e+01    9.786031e-01
  2.345238e+01    9.803371e-01
  2.346825e+01    9.714145e-01
  2.348413e+01    9.579814e-01
  2.350001e+01    9.669273e-01
  2.351588e+01    9.595749e-01
  2.353176e+01    9.499233e-01
  2.354763e+01    9.457626e-01
  2.356351e+01    9.496669e-01
  2.357938e+01    9.558696e-01
  2.359526e+01    9.634390e-01
  2.361113e+01    9.547782e-01
  2.362701e+01    9.499446e-01
  2.364289e+01    9.537557e-01
  2.365876e+01    9.323002e-01
  2.367464e+01    9.230020e-01
  2.369051e+01    9.280284e-01
  2.370639e+01    9.192410e-01
  2.372226e+01    9.342866e-01
  2.373814e+01    9.251832e-01
  2.375401e+01    9.231595e-01
  2.376989e+01    9.059011e-01
  2.378577e+01    9.231780e-01
  2.380164e+01    9.105363e-01
  2.381752e+01    8.881303e-01
  2.383339e+01    9.030082e-01
  2.384927e+01    8.983155e-01
  2.386514e+01    8.996089e-01
  2.388102e+01    9.166543e-01
  2.389689e+01    9.053236e-01
  2.391277e+01    9.064726e-01
  2.392865e+01    9.015595e-01
  2.394452e+01    9.119750e-01
  2.396040e+01    9.122644e-01
  2.397627e+01    8.905495e-01
  2.399215e+01    8.908755e-01
  2.400802e+01    9.027670e-01
  2.402390e+01    8.985393e-01
  2.403978e+01    8.974251e-01
  2.405565e+01    9.081246e-01
  2.407153e+01    8.773782e-01
  2.408740e+01    8.716611e-01
  2.410328e+01    8.874107e-01
  2.411915e+01    8.776958e-01
  2.413503e+01    8.751189e-01
  2.415090e+01    8.859911e-01
  2.416678e+01    8.917459e-01
  2.418266e+01    9.001253e-01
  2.419853e+01    8.671540e-01
  2.421441e+01    8.725374e-01
  2.423028e+01    8.851327e-01
  2.424616e+01    8.766772e-01
  2.426203e+01    8.844215e-01
  2.427791e+01    8.765574e-01
  2.429378e+01    9.035148e-01
  2.430966e+01    8.835883e-01
  2.432554e+01    8.621457e-01
  2.434141e+01    8.855431e-01
  2.435729e+01    9.002159e-01
  2.437316e+01    8.759858e-01
  2.438904e+01    8.978286e-01
  2.440491e+01    9.022145e-01
  2.442079e+01    9.009899e-01
  2.443666e+01    8.951249e-01
  2.445254e+01    8.760967e-01
  2.446842e+01    8.794466e-01
  2.448429e+01    8.863283e-01
  2.450017e+01    8.847134e-01
  2.451604e+01    8.958420e-01
  2.453192e+01    8.813242e-01
  2.454779e+01    8.750663e-01
  2.456367e+01    8.777323e-01
  2.457954e+01    9.036262e-01
  2.459542e+01    8.848426e-01
  2.461130e+01    8.767145e-01
  2.462717e+01    8.679622e-01
  2.464305e+01    8.914951e-01
  2.465892e+01    8.810248e-01
  2.467480e+01    8.752490e-01
  2.469067e+01    8.734844e-01
  2.470655e+01    8.881179e-01
  2.472242e+01    8.982026e-01
  2.473830e+01    8.977562e-01
  2.475418e+01    8.859068e-01
  2.477005e+01    8.947151e-01
  2.478593e+01    8.778400e-01
  2.480180e+01    8.671538e-01
  2.481768e+01    8.801863e-01
  2.483355e+01    8.902642e-01
  2.484943e+01    8.717414e-01
  2.486530e+01    8.768489e-01
  2.488118e+01    8.838180e-01
  2.489706e+01    8.730788e-01
  2.491293e+01    8.747048e-01
  2.492881e+01    8.887205e-01
  2.494468e+01    8.958550e-01
  2.496056e+01    8.891636e-01
  2.497643e+01    9.057236e-01
  2.499231e+01    9.071766e-01
  2.500819e+01    8.912535e-01
  2.502406e+01    8.867615e-01
  2.503994e+01    8.946924e-01
  2.505581e+01    8.886694e-01
  2.507169e+01    8.839678e-01
  2.508756e+01    8.940639e-01
  2.510344e+01    9.060171e-01
  2.511931e+01    9.023516e-01
  2.513519e+01    9.244545e-01
  2.515107e+01    9.041730e-01
  2.516694e+01    9.097475e-01
  2.518282e+01    9.125519e-01
  2.519869e+01    9.212191e-01
  2.521457e+01    9.089814e-01
  2.523044e+01    9.293376e-01
  2.524632e+01    9.442576e-01
  2.526219e+01    9.462122e-01
  2.527807e+01    9.604366e-01
  2.529395e+01    9.632972e-01
  2.530982e+01    9.452206e-01
  2.532570e+01    9.455070e-01
  2.534157e+01    9.449458e-01
  2.535745e+01    9.711115e-01
  2.537332e+01    9.555404e-01
  2.538920e+01    9.695861e-01
  2.540507e+01    9.682596e-01
  2.542095e+01    9.887633e-01
  2.543683e+01    1.013629e+00
  2.545270e+01    1.021201e+00
  2.546858e+01    1.021400e+00
  2.548445e+01    1.032669e+00
  2.550033e+01    1.052259e+00
  2.551620e+01    1.049713e+00
  2.553208e+01    1.078568e+00
  2.554795e+01    1.115661e+00
  2.556383e+01    1.123467e+00
  2.557971e+01    1.140716e+00
  2.559558e+01    1.161347e+00
  2.561146e+01    1.185331e+00
  2.562733e+01    1.238361e+00
  2.564321e+01    1.279057e+00
  2.565908e+01    1.341124e+00
  2.567496e+01    1.397381e+00
  2.569083e+01    1.478290e+00
  2.570671e+01    1.569147e+00
  2.572259e+01    1.672455e+00
  2.573846e+01    1.771736e+00
  2.575434e+01    1.977274e+00
  2.577021e+01    2.203250e+00
  2.578609e+01    2.442749e+00
  2.580196e+01    2.721195e+00
  2.581784e+01    3.114403e+00
  2.583371e+01    3.551941e+00
  2.584959e+01    4.030134e+00
  2.586547e+01    4.569721e+00
  2.588134e+01    5.171806e+00
  2.589722e+01    5.737506e+00
  2.591309e+01    6.190967e+00
  2.592897e+01    6.626226e+00
  2.594484e+01    6.956785e+00
  2.596072e+01    6.986554e+00
  2.597660e+01    6.842453e+00
  2.599247e+01    6.453535e+00
  2.600835e+01    5.930191e+00
  2.602422e+01    5.250879e+00
  2.604010e+01    4.592448e+00
  2.605597e+01    3.883003e+00
  2.607185e+01    3.403927e+00
  2.608772e+01    2.982655e+00
  2.610360e+01    2.630939e+00
  2.611948e+01    2.340594e+00
  2.613535e+01    2.104422e+00
  2.615123e+01    1.893450e+00
  2.616710e+01    1.736994e+00
  2.618298e+01    1.650597e+00
  2.619885e+01    1.556847e+00
  2.621473e+01    1.457293e+00
  2.623060e+01    1.394628e+00
  2.624648e+01    1.320936e+00
  2.626236e+01    1.289014e+00
  2.627823e+01    1.243389e+00
  2.629411e+01    1.181922e+00
  2.630998e+01    1.158064e+00
  2.632586e+01    1.140837e+00
  2.634173e+01    1.126676e+00
  2.635761e+01    1.083573e+00
  2.637348e+01    1.046129e+00
  2.638936e+01    1.060397e+00
  2.640524e+01    1.049865e+00
  2.642111e+01    1.029513e+00
  2.643699e+01    1.028724e+00
  2.645286e+01    1.012364e+00
  2.646874e+01    1.024665e+00
  2.648461e+01    1.009154e+00
  2.650049e+01    1.004769e+00
  2.651636e+01    9.901137e-01
  2.653224e+01    9.738718e-01
  2.654812e+01    9.761922e-01
  2.656399e+01    9.831119e-01
  2.657987e+01    9.761632e-01
  2.659574e+01    9.568595e-01
  2.661162e+01    9.710419e-01
  2.662749e+01    9.726244e-01
  2.664337e+01    9.694413e-01
  2.665924e+01    9.742152e-01
  2.667512e+01    9.892904e-01
  2.669100e+01    9.734535e-01
  2.670687e+01    9.784171e-01
  2.672275e+01    9.575104e-01
  2.673862e+01    9.498998e-01
  2.675450e+01    9.412461e-01
  2.677037e+01    9.703093e-01
  2.678625e+01    9.711800e-01
  2.680212e+01    9.851032e-01
  2.681800e+01    9.839608e-01
  2.683388e+01    9.774424e-01
  2.684975e+01    9.824692e-01
  2.686563e+01    9.906005e-01
  2.688150e+01    9.865152e-01
  2.689738e+01    1.000334e+00
  2.691325e+01    1.014551e+00
  2.692913e+01    1.014139e+00
  2.694501e+01    9.836320e-01
  2.696088e+01    1.014092e+00
  2.697676e+01    1.047120e+00
  2.699263e+01    1.061117e+00
  2.700851e+01    1.059006e+00
  2.702438e+01    1.138146e+00
  2.704026e+01    1.199045e+00
  2.705613e+01    1.224757e+00
  2.707201e+01    1.307831e+00
  2.708789e+01    1.385465e+00
  2.710376e+01    1.474059e+00
  2.711964e+01    1.575876e+00
  2.713551e+01    1.691295e+00
  2.715139e+01    1.806901e+00
  2.716726e+01    1.958320e+00
  2.718314e+01    2.016312e+00
  2.719901e+01    2.069934e+00
  2.721489e+01    2.101158e+00
  2.723077e+01    2.089358e+00
  2.724664e+01    2.064045e+00
  2.726252e+01    1.983580e+00
  2.727839e+01    1.850600e+00
  2.729427e+01    1.706951e+00
  2.731014e+01    1.555470e+00
  2.732602e+01    1.445092e+00
  2.734189e+01    1.319910e+00
  2.735777e+01    1.264573e+00
  2.737365e+01    1.180185e+00
  2.738952e+01    1.118350e+00
  2.740540e+01    1.117653e+00
  2.742127e+01    1.097125e+00
  2.743715e+01    1.062775e+00
  2.745302e+01    1.033776e+00
  2.746890e+01    1.007259e+00
  2.748477e+01    9.666455e-01
  2.750065e+01    9.732493e-01
  2.751653e+01    9.720361e-01
  2.753240e+01    9.721304e-01
  2.754828e+01    9.407907e-01
  2.756415e+01    9.334996e-01
  2.758003e+01    9.330880e-01
  2.759590e+01    9.067333e-01
  2.761178e+01    8.904302e-01
  2.762765e+01    8.974846e-01
  2.764353e+01    9.213105e-01
  2.765941e+01    8.930164e-01
  2.767528e+01    9.075266e-01
  2.769116e+01    9.134433e-01
  2.770703e+01    8.895088e-01
  2.772291e+01    8.784793e-01
  2.773878e+01    9.029293e-01
  2.775466e+01    9.078416e-01
  2.777054e+01    8.978439e-01
  2.778641e+01    8.727856e-01
  2.780229e+01    8.680761e-01
  2.781816e+01    8.927211e-01
  2.783404e+01    8.930923e-01
  2.784991e+01    8.797205e-01
  2.786579e+01    8.771869e-01
  2.788166e+01    8.941998e-01
  2.789754e+01    9.134502e-01
  2.791342e+01    8.848663e-01
  2.792929e+01    8.616818e-01
  2.794517e+01    8.465254e-01
  2.796104e+01    8.447762e-01
  2.797692e+01    8.557143e-01
  2.799279e+01    8.689507e-01
  2.800867e+01    8.635272e-01
  2.802454e+01    8.471143e-01
  2.804042e+01    8.465139e-01
  2.805630e+01    8.681856e-01
  2.807217e+01    8.694781e-01
  2.808805e+01    8.561464e-01
  2.810392e+01    8.469081e-01
  2.811980e+01    8.593771e-01
  2.813567e+01    8.440995e-01
  2.815155e+01    8.336331e-01
  2.816742e+01    8.238828e-01
  2.818330e+01    8.462423e-01
  2.819918e+01    8.505177e-01
  2.821505e+01    8.460803e-01
  2.823093e+01    8.457483e-01
  2.824680e+01    8.440982e-01
  2.826268e+01    8.477722e-01
  2.827855e+01    8.391739e-01
  2.829443e+01    8.416722e-01
  2.831030e+01    8.530254e-01
  2.832618e+01    8.409109e-01
  2.834206e+01    8.340110e-01
  2.835793e+01    8.115773e-01
  2.837381e+01    8.198653e-01
  2.838968e+01    8.126669e-01
  2.840556e+01    8.239136e-01
  2.842143e+01    8.297427e-01
  2.843731e+01    8.283231e-01
  2.845318e+01    8.440024e-01
  2.846906e+01    8.404865e-01
  2.848494e+01    8.246704e-01
  2.850081e+01    8.360811e-01
  2.851669e+01    8.258309e-01
  2.853256e+01    8.364162e-01
  2.854844e+01    8.218300e-01
  2.856431e+01    8.203424e-01
  2.858019e+01    8.135926e-01
  2.859606e+01    8.169906e-01
  2.861194e+01    8.285071e-01
  2.862782e+01    8.208176e-01
  2.864369e+01    8.314671e-01
  2.865957e+01    8.141755e-01
  2.867544e+01    8.285577e-01
  2.869132e+01    8.267190e-01
  2.870719e+01    8.113505e-01
  2.872307e+01    8.097994e-01
  2.873895e+01    8.065383e-01
  2.875482e+01    8.172711e-01
  2.877070e+01    8.274949e-01
  2.878657e+01    8.293847e-01
  2.880245e+01    8.191237e-01
  2.881832e+01    8.202493e-01
  2.883420e+01    8.096108e-01
  2.885007e+01    8.201514e-01
  2.886595e+01    8.175630e-01
  2.888183e+01    8.108575e-01
  2.889770e+01    8.121344e-01
  2.891358e+01    8.199036e-01
  2.892945e+01    8.271585e-01
  2.894533e+01    8.349869e-01
  2.896120e+01    8.339011e-01
  2.897708e+01    8.024284e-01
  2.899295e+01    8.160877e-01
  2.900883e+01    8.168918e-01
  2.902471e+01    8.291643e-01
  2.904058e+01    8.162265e-01
  2.905646e+01    8.240241e-01
  2.907233e+01    8.153633e-01
  2.908821e+01    8.292155e-01
  2.910408e+01    8.287354e-01
  2.911996e+01    8.026770e-01
  2.913583e+01    8.036399e-01
  2.915171e+01    8.120705e-01
  2.916759e+01    7.899528e-01
  2.918346e+01    7.836193e-01
  2.919934e+01    8.238515e-01
  2.921521e+01    8.031383e-01
  2.923109e+01    7.932817e-01
  2.924696e+01    7.844219e-01
  2.926284e+01    7.999176e-01
  2.927871e+01    7.866374e-01
  2.929459e+01    8.042464e-01
  2.931047e+01    8.151724e-01
  2.932634e+01    7.940078e-01
  2.934222e+01    7.980081e-01
  2.935809e+01    7.999801e-01
  2.937397e+01    8.178686e-01
  2.938984e+01    7.851856e-01
  2.940572e+01    7.852922e-01
  2.942159e+01    7.844417e-01
  2.943747e+01    7.920398e-01
  2.945335e+01    8.066252e-01
  2.946922e+01    7.989244e-01
  2.948510e+01    7.987267e-01
  2.950097e+01    7.880570e-01
  2.951685e+01    7.858285e-01
  2.953272e+01    7.937823e-01
  2.954860e+01    7.939787e-01
  2.956447e+01    7.825201e-01
  2.958035e+01    7.961344e-01
  2.959623e+01    7.985405e-01
  2.961210e+01    8.201651e-01
  2.962798e+01    8.093914e-01
  2.964385e+01    7.947367e-01
  2.965973e+01    7.671171e-01
  2.967560e+01    7.659040e-01
  2.969148e+01    7.933124e-01
  2.970736e+01    7.785699e-01
  2.972323e+01    8.101708e-01
  2.973911e+01    7.805895e-01
  2.975498e+01    7.715080e-01
  2.977086e+01    7.689938e-01
  2.978673e+01    7.739893e-01
  2.980261e+01    7.741531e-01
  2.981848e+01    7.934394e-01
  2.983436e+01    7.862737e-01
  2.985024e+01    8.040973e-01
  2.986611e+01    7.941839e-01
  2.988199e+01    8.009087e-01
  2.989786e+01    8.045326e-01
  2.991374e+01    7.843796e-01
  2.992961e+01    8.028415e-01
  2.994549e+01    8.021349e-01
  2.996136e+01    8.208398e-01
  2.997724e+01    8.288487e-01
  2.999312e+01    8.002151e-01
  3.000899e+01    8.082732e-01
  3.002487e+01    8.108055e-01
  3.004074e+01    8.008379e-01
  3.005662e+01    7.870276e-01
  3.007249e+01    8.073056e-01
  3.008837e+01    8.040578e-01
  3.010424e+01    7.713212e-01
  3.012012e+01    7.884564e-01
  3.013600e+01    8.059440e-01
  3.015187e+01    8.070233e-01
  3.016775e+01    7.820704e-01
  3.018362e+01    7.774783e-01
  3.019950e+01    7.883596e-01
  3.021537e+01    7.903250e-01
  3.023125e+01    8.138887e-01
  3.024712e+01    7.763690e-01
  3.026300e+01    7.723327e-01
  3.027888e+01    7.806840e-01
  3.029475e+01    7.856067e-01
  3.031063e+01    7.786779e-01
  3.032650e+01    7.744401e-01
  3.034238e+01    8.002993e-01
  3.035825e+01    7.837366e-01
  3.037413e+01    7.706730e-01
  3.039000e+01    7.816930e-01
  3.040588e+01    7.728757e-01
  3.042176e+01    7.696491e-01
  3.043763e+01    7.660441e-01
  3.045351e+01    7.920086e-01
  3.046938e+01    7.939812e-01
  3.048526e+01    7.639951e-01
  3.050113e+01    7.650326e-01
  3.051701e+01    7.878439e-01
  3.053288e+01    7.766945e-01
  3.054876e+01    7.875171e-01
  3.056464e+01    7.702135e-01
  3.058051e+01    7.544038e-01
  3.059639e+01    7.601510e-01
  3.061226e+01    7.657763e-01
  3.062814e+01    7.809695e-01
  3.064401e+01    7.649447e-01
  3.065989e+01    7.654825e-01
  3.067577e+01    7.695410e-01
  3.069164e+01    7.788001e-01
  3.070752e+01    7.750436e-01
  3.072339e+01    7.801248e-01
  3.073927e+01    7.791567e-01
  3.075514e+01    7.705514e-01
  3.077102e+01    7.685934e-01
  3.078689e+01    7.588753e-01
  3.080277e+01    7.634431e-01
  3.081865e+01    7.700195e-01
  3.083452e+01    7.714248e-01
  3.085040e+01    7.870587e-01
  3.086627e+01    7.879784e-01
  3.088215e+01    7.685334e-01
  3.089802e+01    7.788439e-01
  3.091390e+01    7.638566e-01
  3.092977e+01    7.626914e-01
  3.094565e+01    7.704042e-01
  3.096153e+01    7.790444e-01
  3.097740e+01    7.720237e-01
  3.099328e+01    7.892303e-01
  3.100915e+01    7.926076e-01
  3.102503e+01    7.720116e-01
  3.104090e+01    7.635480e-01
  3.105678e+01    7.982650e-01
  3.107265e+01    7.932150e-01
  3.108853e+01    7.682227e-01
  3.110441e+01    7.779514e-01
  3.112028e+01    7.723030e-01
  3.113616e+01    7.833194e-01
  3.115203e+01    7.995201e-01
  3.116791e+01    7.803257e-01
  3.118378e+01    7.895239e-01
  3.119966e+01    7.960578e-01
  3.121553e+01    7.706829e-01
  3.123141e+01    7.701035e-01
  3.124729e+01    7.849386e-01
  3.126316e+01    7.851997e-01
  3.127904e+01    7.893074e-01
  3.129491e+01    7.812734e-01
  3.131079e+01    7.981228e-01
  3.132666e+01    8.015114e-01
  3.134254e+01    8.270128e-01
  3.135841e+01    7.937650e-01
  3.137429e+01    7.975965e-01
  3.139017e+01    8.083391e-01
  3.140604e+01    8.108372e-01
  3.142192e+01    8.100469e-01
  3.143779e+01    8.015161e-01
  3.145367e+01    8.191282e-01
  3.146954e+01    8.288354e-01
  3.148542e+01    8.144003e-01
  3.150129e+01    8.290135e-01
  3.151717e+01    8.390109e-01
  3.153305e+01    8.143954e-01
  3.154892e+01    8.288382e-01
  3.156480e+01    8.760192e-01
  3.158067e+01    8.856949e-01
  3.159655e+01    8.640054e-01
  3.161242e+01    8.769517e-01
  3.162830e+01    8.979626e-01
  3.164418e+01    9.231942e-01
  3.166005e+01    9.303238e-01
  3.167593e+01    9.481731e-01
  3.169180e+01    9.765496e-01
  3.170768e+01    1.003173e+00
  3.172355e+01    1.031772e+00
  3.173943e+01    1.074939e+00
  3.175530e+01    1.169620e+00
  3.177118e+01    1.247206e+00
  3.178706e+01    1.323308e+00
  3.180293e+01    1.415987e+00
  3.181881e+01    1.557765e+00
  3.183468e+01    1.679079e+00
  3.185056e+01    1.797361e+00
  3.186643e+01    1.915042e+00
  3.188231e+01    2.003297e+00
  3.189818e+01    2.026538e+00
  3.191406e+01    2.047351e+00
  3.192994e+01    1.993637e+00
  3.194581e+01    1.923038e+00
  3.196169e+01    1.808075e+00
  3.197756e+01    1.688438e+00
  3.199344e+01    1.547373e+00
  3.200931e+01    1.412770e+00
  3.202519e+01    1.324329e+00
  3.204106e+01    1.228513e+00
  3.205694e+01    1.150770e+00
  3.207282e+01    1.075592e+00
  3.208869e+01    1.019277e+00
  3.210457e+01    9.854090e-01
  3.212044e+01    9.611251e-01
  3.213632e+01    9.233800e-01
  3.215219e+01    9.303101e-01
  3.216807e+01    9.057289e-01
  3.218394e+01    8.796046e-01
  3.219982e+01    8.641672e-01
  3.221570e+01    8.482016e-01
  3.223157e+01    8.332300e-01
  3.224745e+01    8.282152e-01
  3.226332e+01    8.165295e-01
  3.227920e+01    8.228998e-01
  3.229507e+01    7.913766e-01
  3.231095e+01    7.884958e-01
  3.232682e+01    7.881058e-01
  3.234270e+01    7.991570e-01
  3.235858e+01    7.932729e-01
  3.237445e+01    7.759634e-01
  3.239033e+01    7.886223e-01
  3.240620e+01    7.922714e-01
  3.242208e+01    7.973295e-01
  3.243795e+01    7.723178e-01
  3.245383e+01    7.661511e-01
  3.246970e+01    7.997246e-01
  3.248558e+01    7.712461e-01
  3.250146e+01    7.710966e-01
  3.251733e+01    7.719833e-01
  3.253321e+01    7.511262e-01
  3.254908e+01    7.609161e-01
