# == pyFAI calibration ==
# Distance Sample to Detector: 0.3999999939076516 m
# PONI: 9.750e-02, 1.135e-01 m
# Rotations: -0.000175 0.000000 -0.000000 rad
# 
# == Fit2d calibration ==
# Distance Sample-beamCenter: 400.000 mm
# Center: x=1514.000, y=1300.000 pix
# Tilt: 0.010 deg  TiltPlanRot: 0.010 deg
# 
# Detector Detector	 Spline= None	 PixelSize= 7.500e-05, 7.500e-05 m
#    Detector has a mask: False 
#    Detector has a dark current: False 
#    detector has a flat field: False 
# 
# Wavelength: 6.888e-11 m
# Mask applied: user provided
# Dark current applied: False
# Flat field applied: False
# Polarization factor: 0.99
# Normalization factor: 1.0
# --> /home/myspot/data/2024_07_Rosario/Ru-CGO-ex/2024-07-27_003_Ru-CGO-ex_Reaction_dwell_000023_data_000157.dat
#       q_nm^-1             I 
  2.003187e-02    7.711350e-02
  3.590745e-02    2.416856e-01
  5.178302e-02    3.370973e-01
  6.765859e-02    3.317795e-01
  8.353417e-02    1.437477e-01
  9.940974e-02    1.629918e-01
  1.152853e-01    1.628015e-01
  1.311609e-01    3.672853e-02
  1.470365e-01    3.033962e-03
  1.629120e-01    3.074169e-02
  1.787876e-01    5.032701e-02
  1.946632e-01    6.419069e-02
  2.105388e-01    5.188131e-02
  2.264143e-01    4.581533e-02
  2.422899e-01    4.839586e-02
  2.581655e-01    6.069871e-02
  2.740411e-01    4.984073e-02
  2.899166e-01    7.552279e-03
  3.057922e-01    1.719679e-02
  3.216678e-01    4.905423e-02
  3.375433e-01    4.575695e-02
  3.534189e-01    2.952074e-02
  3.692945e-01    4.312735e-02
  3.851701e-01    5.474335e-02
  4.010456e-01    2.484348e-02
  4.169212e-01    3.439721e-02
  4.327968e-01    5.067964e-02
  4.486724e-01    3.678203e-02
  4.645479e-01    8.030410e-03
  4.804235e-01    2.971417e-03
  4.962991e-01    2.342332e-02
  5.121747e-01    4.720128e-02
  5.280502e-01    4.120599e-02
  5.439258e-01    7.750574e-02
  5.598014e-01    4.646400e-02
  5.756770e-01    4.327589e-02
  5.915525e-01    2.597832e-02
  6.074281e-01    6.122694e-02
  6.233037e-01    3.669137e-02
  6.391793e-01    4.488321e-02
  6.550548e-01    4.041225e-02
  6.709304e-01    6.135960e-02
  6.868060e-01    6.339259e-02
  7.026815e-01    4.837821e-02
  7.185571e-01    4.390963e-02
  7.344327e-01    3.428935e-02
  7.503083e-01    5.132090e-02
  7.661838e-01    8.325337e-02
  7.820594e-01    1.429578e-01
  7.979350e-01    2.659024e-01
  8.138106e-01    2.637320e-01
  8.296861e-01    2.332075e-01
  8.455617e-01    3.031455e-01
  8.614373e-01    3.542518e-01
  8.773129e-01    4.981402e-01
  8.931884e-01    5.379580e-01
  9.090640e-01    7.347809e-01
  9.249396e-01    8.058888e-01
  9.408152e-01    8.911112e-01
  9.566907e-01    9.820499e-01
  9.725663e-01    1.023254e+00
  9.884419e-01    1.108043e+00
  1.004317e+00    1.253455e+00
  1.020193e+00    1.266346e+00
  1.036069e+00    1.361617e+00
  1.051944e+00    1.307650e+00
  1.067820e+00    1.354883e+00
  1.083695e+00    1.411449e+00
  1.099571e+00    1.540136e+00
  1.115446e+00    1.499243e+00
  1.131322e+00    1.628776e+00
  1.147198e+00    1.658176e+00
  1.163073e+00    1.606349e+00
  1.178949e+00    1.673103e+00
  1.194824e+00    1.845831e+00
  1.210700e+00    2.001427e+00
  1.226575e+00    2.147944e+00
  1.242451e+00    2.346004e+00
  1.258327e+00    2.490921e+00
  1.274202e+00    2.672386e+00
  1.290078e+00    2.658878e+00
  1.305953e+00    2.737186e+00
  1.321829e+00    2.840487e+00
  1.337705e+00    2.833828e+00
  1.353580e+00    2.779592e+00
  1.369456e+00    2.740414e+00
  1.385331e+00    2.722366e+00
  1.401207e+00    2.659654e+00
  1.417082e+00    2.851814e+00
  1.432958e+00    2.889197e+00
  1.448834e+00    2.902349e+00
  1.464709e+00    2.868129e+00
  1.480585e+00    3.071920e+00
  1.496460e+00    3.068841e+00
  1.512336e+00    3.078185e+00
  1.528211e+00    3.235789e+00
  1.544087e+00    3.270231e+00
  1.559963e+00    3.243906e+00
  1.575838e+00    3.078576e+00
  1.591714e+00    3.025903e+00
  1.607589e+00    3.107702e+00
  1.623465e+00    2.951466e+00
  1.639340e+00    3.020694e+00
  1.655216e+00    3.128726e+00
  1.671092e+00    3.070212e+00
  1.686967e+00    3.052945e+00
  1.702843e+00    3.015503e+00
  1.718718e+00    3.066034e+00
  1.734594e+00    3.105057e+00
  1.750469e+00    3.103148e+00
  1.766345e+00    3.104052e+00
  1.782221e+00    2.913541e+00
  1.798096e+00    3.150421e+00
  1.813972e+00    3.194306e+00
  1.829847e+00    3.108195e+00
  1.845723e+00    3.060630e+00
  1.861598e+00    3.037398e+00
  1.877474e+00    3.012495e+00
  1.893350e+00    2.964587e+00
  1.909225e+00    3.110340e+00
  1.925101e+00    3.051900e+00
  1.940976e+00    3.138285e+00
  1.956852e+00    3.082467e+00
  1.972727e+00    2.928589e+00
  1.988603e+00    2.930508e+00
  2.004479e+00    3.050773e+00
  2.020354e+00    2.982470e+00
  2.036230e+00    2.977495e+00
  2.052105e+00    3.055079e+00
  2.067981e+00    3.081060e+00
  2.083856e+00    3.053490e+00
  2.099732e+00    3.110925e+00
  2.115608e+00    3.087429e+00
  2.131483e+00    2.919359e+00
  2.147359e+00    3.048972e+00
  2.163234e+00    3.146981e+00
  2.179110e+00    3.159488e+00
  2.194985e+00    3.107140e+00
  2.210861e+00    2.947090e+00
  2.226737e+00    2.957999e+00
  2.242612e+00    3.088965e+00
  2.258488e+00    3.158611e+00
  2.274363e+00    3.170285e+00
  2.290239e+00    3.156066e+00
  2.306115e+00    3.074467e+00
  2.321990e+00    3.053233e+00
  2.337866e+00    3.170600e+00
  2.353741e+00    3.148145e+00
  2.369617e+00    3.153579e+00
  2.385492e+00    3.160291e+00
  2.401368e+00    3.183295e+00
  2.417244e+00    3.186514e+00
  2.433119e+00    3.131053e+00
  2.448995e+00    3.101247e+00
  2.464870e+00    3.192625e+00
  2.480746e+00    3.252795e+00
  2.496621e+00    3.239541e+00
  2.512497e+00    3.211147e+00
  2.528373e+00    3.220689e+00
  2.544248e+00    3.291505e+00
  2.560124e+00    3.182879e+00
  2.575999e+00    3.207644e+00
  2.591875e+00    3.204313e+00
  2.607750e+00    3.204055e+00
  2.623626e+00    3.222935e+00
  2.639502e+00    3.249793e+00
  2.655377e+00    3.230279e+00
  2.671253e+00    3.254797e+00
  2.687128e+00    3.309343e+00
  2.703004e+00    3.249081e+00
  2.718879e+00    3.257721e+00
  2.734755e+00    3.217344e+00
  2.750631e+00    3.187877e+00
  2.766506e+00    3.314011e+00
  2.782382e+00    3.245620e+00
  2.798257e+00    3.253499e+00
  2.814133e+00    3.226208e+00
  2.830008e+00    3.214832e+00
  2.845884e+00    3.190727e+00
  2.861760e+00    3.264470e+00
  2.877635e+00    3.300456e+00
  2.893511e+00    3.233083e+00
  2.909386e+00    3.192683e+00
  2.925262e+00    3.185061e+00
  2.941137e+00    3.186976e+00
  2.957013e+00    3.259538e+00
  2.972889e+00    3.422000e+00
  2.988764e+00    3.402375e+00
  3.004640e+00    3.347168e+00
  3.020515e+00    3.303197e+00
  3.036391e+00    3.183473e+00
  3.052266e+00    3.304757e+00
  3.068142e+00    3.299737e+00
  3.084018e+00    3.305951e+00
  3.099893e+00    3.301975e+00
  3.115769e+00    3.292948e+00
  3.131644e+00    3.293561e+00
  3.147520e+00    3.322446e+00
  3.163395e+00    3.452395e+00
  3.179271e+00    3.435335e+00
  3.195147e+00    3.430404e+00
  3.211022e+00    3.450676e+00
  3.226898e+00    3.345983e+00
  3.242773e+00    3.370860e+00
  3.258649e+00    3.352963e+00
  3.274525e+00    3.398281e+00
  3.290400e+00    3.307644e+00
  3.306276e+00    3.305829e+00
  3.322151e+00    3.422503e+00
  3.338027e+00    3.410191e+00
  3.353902e+00    3.391829e+00
  3.369778e+00    3.298985e+00
  3.385654e+00    3.380288e+00
  3.401529e+00    3.396208e+00
  3.417405e+00    3.379612e+00
  3.433280e+00    3.448261e+00
  3.449156e+00    3.449152e+00
  3.465031e+00    3.410629e+00
  3.480907e+00    3.400043e+00
  3.496783e+00    3.458154e+00
  3.512658e+00    3.459712e+00
  3.528534e+00    3.489673e+00
  3.544409e+00    3.490639e+00
  3.560285e+00    3.396135e+00
  3.576160e+00    3.380395e+00
  3.592036e+00    3.419432e+00
  3.607912e+00    3.443130e+00
  3.623787e+00    3.433859e+00
  3.639663e+00    3.409201e+00
  3.655538e+00    3.493510e+00
  3.671414e+00    3.508780e+00
  3.687289e+00    3.508799e+00
  3.703165e+00    3.527702e+00
  3.719041e+00    3.543174e+00
  3.734916e+00    3.560977e+00
  3.750792e+00    3.475627e+00
  3.766667e+00    3.474110e+00
  3.782543e+00    3.409584e+00
  3.798418e+00    3.389049e+00
  3.814294e+00    3.522041e+00
  3.830170e+00    3.542116e+00
  3.846045e+00    3.553068e+00
  3.861921e+00    3.556132e+00
  3.877796e+00    3.591408e+00
  3.893672e+00    3.512588e+00
  3.909547e+00    3.500881e+00
  3.925423e+00    3.548711e+00
  3.941299e+00    3.422898e+00
  3.957174e+00    3.496524e+00
  3.973050e+00    3.452534e+00
  3.988925e+00    3.439679e+00
  4.004801e+00    3.561029e+00
  4.020676e+00    3.503326e+00
  4.036552e+00    3.540770e+00
  4.052428e+00    3.544911e+00
  4.068303e+00    3.457764e+00
  4.084179e+00    3.477140e+00
  4.100054e+00    3.552338e+00
  4.115930e+00    3.519432e+00
  4.131806e+00    3.420654e+00
  4.147681e+00    3.474247e+00
  4.163557e+00    3.536078e+00
  4.179432e+00    3.553199e+00
  4.195308e+00    3.465052e+00
  4.211183e+00    3.510855e+00
  4.227059e+00    3.540592e+00
  4.242935e+00    3.491517e+00
  4.258810e+00    3.518779e+00
  4.274686e+00    3.542112e+00
  4.290561e+00    3.559791e+00
  4.306437e+00    3.473320e+00
  4.322312e+00    3.490049e+00
  4.338188e+00    3.572300e+00
  4.354064e+00    3.487962e+00
  4.369939e+00    3.465286e+00
  4.385815e+00    3.493406e+00
  4.401690e+00    3.584556e+00
  4.417566e+00    3.595698e+00
  4.433441e+00    3.664669e+00
  4.449317e+00    3.599323e+00
  4.465193e+00    3.536638e+00
  4.481068e+00    3.527929e+00
  4.496944e+00    3.547760e+00
  4.512819e+00    3.556549e+00
  4.528695e+00    3.526479e+00
  4.544570e+00    3.516684e+00
  4.560446e+00    3.538206e+00
  4.576322e+00    3.538742e+00
  4.592197e+00    3.612115e+00
  4.608073e+00    3.609991e+00
  4.623948e+00    3.623771e+00
  4.639824e+00    3.636489e+00
  4.655699e+00    3.677610e+00
  4.671575e+00    3.654707e+00
  4.687451e+00    3.592302e+00
  4.703326e+00    3.515490e+00
  4.719202e+00    3.573439e+00
  4.735077e+00    3.667226e+00
  4.750953e+00    3.679459e+00
  4.766828e+00    3.633902e+00
  4.782704e+00    3.589697e+00
  4.798580e+00    3.616560e+00
  4.814455e+00    3.669995e+00
  4.830331e+00    3.664583e+00
  4.846206e+00    3.596516e+00
  4.862082e+00    3.589036e+00
  4.877957e+00    3.728290e+00
  4.893833e+00    3.634805e+00
  4.909709e+00    3.620291e+00
  4.925584e+00    3.678642e+00
  4.941460e+00    3.717085e+00
  4.957335e+00    3.674263e+00
  4.973211e+00    3.628377e+00
  4.989086e+00    3.675077e+00
  5.004962e+00    3.625134e+00
  5.020838e+00    3.663519e+00
  5.036713e+00    3.654130e+00
  5.052589e+00    3.624346e+00
  5.068464e+00    3.596947e+00
  5.084340e+00    3.592244e+00
  5.100216e+00    3.612169e+00
  5.116091e+00    3.599415e+00
  5.131967e+00    3.579846e+00
  5.147842e+00    3.594708e+00
  5.163718e+00    3.701868e+00
  5.179593e+00    3.632998e+00
  5.195469e+00    3.571041e+00
  5.211345e+00    3.677393e+00
  5.227220e+00    3.685423e+00
  5.243096e+00    3.626945e+00
  5.258971e+00    3.621584e+00
  5.274847e+00    3.682872e+00
  5.290722e+00    3.682526e+00
  5.306598e+00    3.676950e+00
  5.322474e+00    3.617716e+00
  5.338349e+00    3.652457e+00
  5.354225e+00    3.724402e+00
  5.370100e+00    3.655438e+00
  5.385976e+00    3.635096e+00
  5.401851e+00    3.597592e+00
  5.417727e+00    3.565677e+00
  5.433603e+00    3.539583e+00
  5.449478e+00    3.506332e+00
  5.465354e+00    3.598634e+00
  5.481229e+00    3.636929e+00
  5.497105e+00    3.654879e+00
  5.512980e+00    3.638393e+00
  5.528856e+00    3.563847e+00
  5.544732e+00    3.660922e+00
  5.560607e+00    3.679960e+00
  5.576483e+00    3.568584e+00
  5.592358e+00    3.616810e+00
  5.608234e+00    3.594913e+00
  5.624109e+00    3.513548e+00
  5.639985e+00    3.473125e+00
  5.655861e+00    3.487150e+00
  5.671736e+00    3.659933e+00
  5.687612e+00    3.606892e+00
  5.703487e+00    3.493542e+00
  5.719363e+00    3.565193e+00
  5.735238e+00    3.557791e+00
  5.751114e+00    3.546472e+00
  5.766990e+00    3.570122e+00
  5.782865e+00    3.610475e+00
  5.798741e+00    3.514585e+00
  5.814616e+00    3.491000e+00
  5.830492e+00    3.514031e+00
  5.846367e+00    3.528960e+00
  5.862243e+00    3.574036e+00
  5.878119e+00    3.566123e+00
  5.893994e+00    3.524765e+00
  5.909870e+00    3.459344e+00
  5.925745e+00    3.522507e+00
  5.941621e+00    3.603790e+00
  5.957497e+00    3.480622e+00
  5.973372e+00    3.490727e+00
  5.989248e+00    3.520751e+00
  6.005123e+00    3.478388e+00
  6.020999e+00    3.443400e+00
  6.036874e+00    3.486466e+00
  6.052750e+00    3.554055e+00
  6.068626e+00    3.552521e+00
  6.084501e+00    3.544710e+00
  6.100377e+00    3.530889e+00
  6.116252e+00    3.557249e+00
  6.132128e+00    3.557657e+00
  6.148003e+00    3.556031e+00
  6.163879e+00    3.566064e+00
  6.179755e+00    3.510507e+00
  6.195630e+00    3.612849e+00
  6.211506e+00    3.550051e+00
  6.227381e+00    3.471496e+00
  6.243257e+00    3.588146e+00
  6.259132e+00    3.612674e+00
  6.275008e+00    3.630639e+00
  6.290884e+00    3.509704e+00
  6.306759e+00    3.501321e+00
  6.322635e+00    3.538817e+00
  6.338510e+00    3.524849e+00
  6.354386e+00    3.562816e+00
  6.370261e+00    3.529581e+00
  6.386137e+00    3.575283e+00
  6.402013e+00    3.557356e+00
  6.417888e+00    3.526189e+00
  6.433764e+00    3.489464e+00
  6.449639e+00    3.436810e+00
  6.465515e+00    3.544890e+00
  6.481390e+00    3.625999e+00
  6.497266e+00    3.497828e+00
  6.513142e+00    3.480448e+00
  6.529017e+00    3.505144e+00
  6.544893e+00    3.604225e+00
  6.560768e+00    3.520599e+00
  6.576644e+00    3.444419e+00
  6.592519e+00    3.488197e+00
  6.608395e+00    3.465869e+00
  6.624271e+00    3.501616e+00
  6.640146e+00    3.551929e+00
  6.656022e+00    3.515336e+00
  6.671897e+00    3.499060e+00
  6.687773e+00    3.543601e+00
  6.703648e+00    3.618843e+00
  6.719524e+00    3.613659e+00
  6.735400e+00    3.479999e+00
  6.751275e+00    3.523350e+00
  6.767151e+00    3.555065e+00
  6.783026e+00    3.437940e+00
  6.798902e+00    3.485127e+00
  6.814777e+00    3.472540e+00
  6.830653e+00    3.464749e+00
  6.846529e+00    3.510681e+00
  6.862404e+00    3.487193e+00
  6.878280e+00    3.536179e+00
  6.894155e+00    3.515993e+00
  6.910031e+00    3.523015e+00
  6.925907e+00    3.496432e+00
  6.941782e+00    3.411509e+00
  6.957658e+00    3.497586e+00
  6.973533e+00    3.544731e+00
  6.989409e+00    3.571629e+00
  7.005284e+00    3.613253e+00
  7.021160e+00    3.534759e+00
  7.037036e+00    3.481536e+00
  7.052911e+00    3.471112e+00
  7.068787e+00    3.470247e+00
  7.084662e+00    3.522585e+00
  7.100538e+00    3.577255e+00
  7.116413e+00    3.495487e+00
  7.132289e+00    3.447510e+00
  7.148165e+00    3.418803e+00
  7.164040e+00    3.455385e+00
  7.179916e+00    3.535735e+00
  7.195791e+00    3.473317e+00
  7.211667e+00    3.449041e+00
  7.227542e+00    3.549329e+00
  7.243418e+00    3.519881e+00
  7.259294e+00    3.456733e+00
  7.275169e+00    3.540394e+00
  7.291045e+00    3.561997e+00
  7.306920e+00    3.452969e+00
  7.322796e+00    3.476752e+00
  7.338671e+00    3.493621e+00
  7.354547e+00    3.494484e+00
  7.370423e+00    3.474133e+00
  7.386298e+00    3.487374e+00
  7.402174e+00    3.475994e+00
  7.418049e+00    3.487386e+00
  7.433925e+00    3.518190e+00
  7.449800e+00    3.591084e+00
  7.465676e+00    3.517522e+00
  7.481552e+00    3.457020e+00
  7.497427e+00    3.505526e+00
  7.513303e+00    3.485205e+00
  7.529178e+00    3.459344e+00
  7.545054e+00    3.424083e+00
  7.560929e+00    3.402248e+00
  7.576805e+00    3.496210e+00
  7.592681e+00    3.528403e+00
  7.608556e+00    3.515800e+00
  7.624432e+00    3.436369e+00
  7.640307e+00    3.387424e+00
  7.656183e+00    3.445979e+00
  7.672058e+00    3.463370e+00
  7.687934e+00    3.425398e+00
  7.703810e+00    3.473489e+00
  7.719685e+00    3.439905e+00
  7.735561e+00    3.421246e+00
  7.751436e+00    3.413046e+00
  7.767312e+00    3.500452e+00
  7.783187e+00    3.430763e+00
  7.799063e+00    3.447296e+00
  7.814939e+00    3.463309e+00
  7.830814e+00    3.414335e+00
  7.846690e+00    3.421170e+00
  7.862565e+00    3.464289e+00
  7.878441e+00    3.443046e+00
  7.894317e+00    3.439282e+00
  7.910192e+00    3.461897e+00
  7.926068e+00    3.454834e+00
  7.941943e+00    3.417141e+00
  7.957819e+00    3.363276e+00
  7.973694e+00    3.341939e+00
  7.989570e+00    3.385507e+00
  8.005446e+00    3.399285e+00
  8.021321e+00    3.428316e+00
  8.037197e+00    3.456258e+00
  8.053072e+00    3.384579e+00
  8.068948e+00    3.394125e+00
  8.084823e+00    3.448042e+00
  8.100699e+00    3.449918e+00
  8.116575e+00    3.428635e+00
  8.132450e+00    3.464607e+00
  8.148326e+00    3.450866e+00
  8.164201e+00    3.454792e+00
  8.180077e+00    3.466660e+00
  8.195952e+00    3.510269e+00
  8.211828e+00    3.518824e+00
  8.227704e+00    3.431555e+00
  8.243579e+00    3.376854e+00
  8.259455e+00    3.450830e+00
  8.275330e+00    3.433331e+00
  8.291206e+00    3.386219e+00
  8.307081e+00    3.375882e+00
  8.322957e+00    3.465244e+00
  8.338833e+00    3.426120e+00
  8.354708e+00    3.363431e+00
  8.370584e+00    3.383329e+00
  8.386459e+00    3.403243e+00
  8.402335e+00    3.376832e+00
  8.418210e+00    3.346305e+00
  8.434086e+00    3.421155e+00
  8.449962e+00    3.440528e+00
  8.465837e+00    3.453548e+00
  8.481713e+00    3.438073e+00
  8.497588e+00    3.436424e+00
  8.513464e+00    3.375723e+00
  8.529339e+00    3.397707e+00
  8.545215e+00    3.466017e+00
  8.561091e+00    3.380453e+00
  8.576966e+00    3.307034e+00
  8.592842e+00    3.304018e+00
  8.608717e+00    3.325406e+00
  8.624593e+00    3.322470e+00
  8.640468e+00    3.337162e+00
  8.656344e+00    3.287994e+00
  8.672220e+00    3.308863e+00
  8.688095e+00    3.322589e+00
  8.703971e+00    3.423844e+00
  8.719846e+00    3.349706e+00
  8.735722e+00    3.267195e+00
  8.751598e+00    3.286926e+00
  8.767473e+00    3.310272e+00
  8.783349e+00    3.299381e+00
  8.799224e+00    3.285395e+00
  8.815100e+00    3.320225e+00
  8.830975e+00    3.349050e+00
  8.846851e+00    3.337301e+00
  8.862727e+00    3.282870e+00
  8.878602e+00    3.286622e+00
  8.894478e+00    3.298084e+00
  8.910353e+00    3.367123e+00
  8.926229e+00    3.301302e+00
  8.942104e+00    3.262817e+00
  8.957980e+00    3.202856e+00
  8.973856e+00    3.196029e+00
  8.989731e+00    3.214239e+00
  9.005607e+00    3.253503e+00
  9.021482e+00    3.238203e+00
  9.037358e+00    3.222105e+00
  9.053233e+00    3.249485e+00
  9.069109e+00    3.237437e+00
  9.084985e+00    3.243355e+00
  9.100860e+00    3.246787e+00
  9.116736e+00    3.224479e+00
  9.132611e+00    3.289344e+00
  9.148487e+00    3.278773e+00
  9.164362e+00    3.219191e+00
  9.180238e+00    3.199709e+00
  9.196114e+00    3.183143e+00
  9.211989e+00    3.192601e+00
  9.227865e+00    3.253538e+00
  9.243740e+00    3.237238e+00
  9.259616e+00    3.264109e+00
  9.275491e+00    3.248935e+00
  9.291367e+00    3.219002e+00
  9.307243e+00    3.241314e+00
  9.323118e+00    3.244548e+00
  9.338994e+00    3.249388e+00
  9.354869e+00    3.250301e+00
  9.370745e+00    3.258798e+00
  9.386620e+00    3.191514e+00
  9.402496e+00    3.166707e+00
  9.418372e+00    3.159637e+00
  9.434247e+00    3.191410e+00
  9.450123e+00    3.212805e+00
  9.465998e+00    3.199767e+00
  9.481874e+00    3.203412e+00
  9.497749e+00    3.281338e+00
  9.513625e+00    3.248713e+00
  9.529501e+00    3.238278e+00
  9.545376e+00    3.203597e+00
  9.561252e+00    3.207335e+00
  9.577127e+00    3.164398e+00
  9.593003e+00    3.167462e+00
  9.608878e+00    3.161347e+00
  9.624754e+00    3.182042e+00
  9.640630e+00    3.150203e+00
  9.656505e+00    3.178601e+00
  9.672381e+00    3.116031e+00
  9.688256e+00    3.169838e+00
  9.704132e+00    3.197839e+00
  9.720008e+00    3.122354e+00
  9.735883e+00    3.108704e+00
  9.751759e+00    3.123476e+00
  9.767634e+00    3.129675e+00
  9.783510e+00    3.120431e+00
  9.799385e+00    3.198075e+00
  9.815261e+00    3.206639e+00
  9.831137e+00    3.155963e+00
  9.847012e+00    3.102417e+00
  9.862888e+00    3.108359e+00
  9.878763e+00    3.171628e+00
  9.894639e+00    3.099937e+00
  9.910514e+00    3.068112e+00
  9.926390e+00    3.133550e+00
  9.942266e+00    3.158985e+00
  9.958141e+00    3.110578e+00
  9.974017e+00    3.148625e+00
  9.989892e+00    3.169243e+00
  1.000577e+01    3.092070e+00
  1.002164e+01    3.096506e+00
  1.003752e+01    3.074494e+00
  1.005339e+01    3.081357e+00
  1.006927e+01    3.045816e+00
  1.008515e+01    3.039848e+00
  1.010102e+01    3.048240e+00
  1.011690e+01    3.083012e+00
  1.013277e+01    3.097493e+00
  1.014865e+01    3.090592e+00
  1.016452e+01    3.089032e+00
  1.018040e+01    2.985534e+00
  1.019627e+01    3.014399e+00
  1.021215e+01    3.087777e+00
  1.022803e+01    3.038512e+00
  1.024390e+01    3.020098e+00
  1.025978e+01    3.060443e+00
  1.027565e+01    3.071254e+00
  1.029153e+01    3.106936e+00
  1.030740e+01    3.104492e+00
  1.032328e+01    3.022794e+00
  1.033915e+01    2.991352e+00
  1.035503e+01    2.976892e+00
  1.037091e+01    3.025715e+00
  1.038678e+01    3.038820e+00
  1.040266e+01    3.069290e+00
  1.041853e+01    3.030358e+00
  1.043441e+01    3.029197e+00
  1.045028e+01    3.043725e+00
  1.046616e+01    3.006709e+00
  1.048204e+01    2.975149e+00
  1.049791e+01    2.978723e+00
  1.051379e+01    2.961128e+00
  1.052966e+01    2.953609e+00
  1.054554e+01    2.985734e+00
  1.056141e+01    2.955950e+00
  1.057729e+01    2.969207e+00
  1.059316e+01    2.984177e+00
  1.060904e+01    2.948913e+00
  1.062492e+01    2.917853e+00
  1.064079e+01    2.999157e+00
  1.065667e+01    2.979734e+00
  1.067254e+01    2.966602e+00
  1.068842e+01    2.987933e+00
  1.070429e+01    2.960577e+00
  1.072017e+01    2.978544e+00
  1.073604e+01    2.965905e+00
  1.075192e+01    2.920630e+00
  1.076780e+01    2.928339e+00
  1.078367e+01    2.903977e+00
  1.079955e+01    2.976062e+00
  1.081542e+01    2.953989e+00
  1.083130e+01    2.892859e+00
  1.084717e+01    2.889740e+00
  1.086305e+01    2.861048e+00
  1.087892e+01    2.881918e+00
  1.089480e+01    2.926005e+00
  1.091068e+01    2.927629e+00
  1.092655e+01    2.829900e+00
  1.094243e+01    2.870958e+00
  1.095830e+01    2.905189e+00
  1.097418e+01    2.936141e+00
  1.099005e+01    2.919299e+00
  1.100593e+01    2.958235e+00
  1.102180e+01    2.915457e+00
  1.103768e+01    2.863949e+00
  1.105356e+01    2.900393e+00
  1.106943e+01    2.885394e+00
  1.108531e+01    2.878829e+00
  1.110118e+01    2.889390e+00
  1.111706e+01    2.833650e+00
  1.113293e+01    2.853059e+00
  1.114881e+01    2.884063e+00
  1.116468e+01    2.878892e+00
  1.118056e+01    2.904031e+00
  1.119644e+01    2.835947e+00
  1.121231e+01    2.819896e+00
  1.122819e+01    2.857313e+00
  1.124406e+01    2.838025e+00
  1.125994e+01    2.831337e+00
  1.127581e+01    2.818521e+00
  1.129169e+01    2.855401e+00
  1.130756e+01    2.811153e+00
  1.132344e+01    2.752390e+00
  1.133932e+01    2.787022e+00
  1.135519e+01    2.757771e+00
  1.137107e+01    2.756223e+00
  1.138694e+01    2.755386e+00
  1.140282e+01    2.750607e+00
  1.141869e+01    2.756506e+00
  1.143457e+01    2.787823e+00
  1.145045e+01    2.813521e+00
  1.146632e+01    2.822522e+00
  1.148220e+01    2.785857e+00
  1.149807e+01    2.778159e+00
  1.151395e+01    2.807845e+00
  1.152982e+01    2.808164e+00
  1.154570e+01    2.767396e+00
  1.156157e+01    2.755422e+00
  1.157745e+01    2.776571e+00
  1.159333e+01    2.748903e+00
  1.160920e+01    2.726370e+00
  1.162508e+01    2.804219e+00
  1.164095e+01    2.757845e+00
  1.165683e+01    2.754873e+00
  1.167270e+01    2.756656e+00
  1.168858e+01    2.762890e+00
  1.170445e+01    2.753948e+00
  1.172033e+01    2.716532e+00
  1.173621e+01    2.726892e+00
  1.175208e+01    2.712205e+00
  1.176796e+01    2.755551e+00
  1.178383e+01    2.733466e+00
  1.179971e+01    2.704404e+00
  1.181558e+01    2.733970e+00
  1.183146e+01    2.682759e+00
  1.184733e+01    2.727064e+00
  1.186321e+01    2.730527e+00
  1.187909e+01    2.752748e+00
  1.189496e+01    2.762758e+00
  1.191084e+01    2.695059e+00
  1.192671e+01    2.687099e+00
  1.194259e+01    2.696265e+00
  1.195846e+01    2.714911e+00
  1.197434e+01    2.724834e+00
  1.199021e+01    2.721113e+00
  1.200609e+01    2.753011e+00
  1.202197e+01    2.751720e+00
  1.203784e+01    2.705117e+00
  1.205372e+01    2.682757e+00
  1.206959e+01    2.667349e+00
  1.208547e+01    2.668801e+00
  1.210134e+01    2.695540e+00
  1.211722e+01    2.691338e+00
  1.213309e+01    2.678050e+00
  1.214897e+01    2.701593e+00
  1.216485e+01    2.717784e+00
  1.218072e+01    2.701913e+00
  1.219660e+01    2.701713e+00
  1.221247e+01    2.685664e+00
  1.222835e+01    2.669461e+00
  1.224422e+01    2.688043e+00
  1.226010e+01    2.707513e+00
  1.227597e+01    2.699929e+00
  1.229185e+01    2.712980e+00
  1.230773e+01    2.613895e+00
  1.232360e+01    2.622316e+00
  1.233948e+01    2.647737e+00
  1.235535e+01    2.649253e+00
  1.237123e+01    2.690784e+00
  1.238710e+01    2.686218e+00
  1.240298e+01    2.626538e+00
  1.241886e+01    2.643489e+00
  1.243473e+01    2.665087e+00
  1.245061e+01    2.704755e+00
  1.246648e+01    2.728021e+00
  1.248236e+01    2.697851e+00
  1.249823e+01    2.722726e+00
  1.251411e+01    2.692269e+00
  1.252998e+01    2.681375e+00
  1.254586e+01    2.732371e+00
  1.256174e+01    2.730937e+00
  1.257761e+01    2.718576e+00
  1.259349e+01    2.711773e+00
  1.260936e+01    2.726696e+00
  1.262524e+01    2.705991e+00
  1.264111e+01    2.744611e+00
  1.265699e+01    2.800913e+00
  1.267286e+01    2.807342e+00
  1.268874e+01    2.764962e+00
  1.270462e+01    2.766397e+00
  1.272049e+01    2.826214e+00
  1.273637e+01    2.837267e+00
  1.275224e+01    2.893878e+00
  1.276812e+01    2.963517e+00
  1.278399e+01    2.953452e+00
  1.279987e+01    3.073865e+00
  1.281574e+01    3.066058e+00
  1.283162e+01    3.072524e+00
  1.284750e+01    3.173056e+00
  1.286337e+01    3.239989e+00
  1.287925e+01    3.345951e+00
  1.289512e+01    3.479701e+00
  1.291100e+01    3.599518e+00
  1.292687e+01    3.784458e+00
  1.294275e+01    3.994136e+00
  1.295862e+01    4.343094e+00
  1.297450e+01    4.800298e+00
  1.299038e+01    5.204343e+00
  1.300625e+01    5.832472e+00
  1.302213e+01    6.717924e+00
  1.303800e+01    7.689467e+00
  1.305388e+01    8.823893e+00
  1.306975e+01    9.960983e+00
  1.308563e+01    1.124262e+01
  1.310150e+01    1.253997e+01
  1.311738e+01    1.365227e+01
  1.313326e+01    1.458794e+01
  1.314913e+01    1.542325e+01
  1.316501e+01    1.603238e+01
  1.318088e+01    1.617780e+01
  1.319676e+01    1.561416e+01
  1.321263e+01    1.426114e+01
  1.322851e+01    1.240043e+01
  1.324438e+01    1.062565e+01
  1.326026e+01    9.078398e+00
  1.327614e+01    7.836904e+00
  1.329201e+01    6.713296e+00
  1.330789e+01    5.912141e+00
  1.332376e+01    5.276753e+00
  1.333964e+01    4.762255e+00
  1.335551e+01    4.368926e+00
  1.337139e+01    4.087433e+00
  1.338727e+01    3.827890e+00
  1.340314e+01    3.629978e+00
  1.341902e+01    3.508843e+00
  1.343489e+01    3.332701e+00
  1.345077e+01    3.225103e+00
  1.346664e+01    3.117729e+00
  1.348252e+01    3.002065e+00
  1.349839e+01    2.965640e+00
  1.351427e+01    2.898787e+00
  1.353015e+01    2.844741e+00
  1.354602e+01    2.836725e+00
  1.356190e+01    2.819402e+00
  1.357777e+01    2.744374e+00
  1.359365e+01    2.640557e+00
  1.360952e+01    2.668527e+00
  1.362540e+01    2.658059e+00
  1.364127e+01    2.639809e+00
  1.365715e+01    2.616743e+00
  1.367303e+01    2.572021e+00
  1.368890e+01    2.523261e+00
  1.370478e+01    2.530403e+00
  1.372065e+01    2.511550e+00
  1.373653e+01    2.497013e+00
  1.375240e+01    2.486695e+00
  1.376828e+01    2.481899e+00
  1.378415e+01    2.428001e+00
  1.380003e+01    2.442814e+00
  1.381591e+01    2.486524e+00
  1.383178e+01    2.491067e+00
  1.384766e+01    2.512631e+00
  1.386353e+01    2.469430e+00
  1.387941e+01    2.399704e+00
  1.389528e+01    2.389824e+00
  1.391116e+01    2.376711e+00
  1.392703e+01    2.396605e+00
  1.394291e+01    2.399824e+00
  1.395879e+01    2.401397e+00
  1.397466e+01    2.364278e+00
  1.399054e+01    2.353398e+00
  1.400641e+01    2.358082e+00
  1.402229e+01    2.351465e+00
  1.403816e+01    2.359538e+00
  1.405404e+01    2.321415e+00
  1.406991e+01    2.297045e+00
  1.408579e+01    2.335251e+00
  1.410167e+01    2.312689e+00
  1.411754e+01    2.305330e+00
  1.413342e+01    2.267192e+00
  1.414929e+01    2.265008e+00
  1.416517e+01    2.288141e+00
  1.418104e+01    2.328746e+00
  1.419692e+01    2.248946e+00
  1.421279e+01    2.313930e+00
  1.422867e+01    2.321160e+00
  1.424455e+01    2.280733e+00
  1.426042e+01    2.235534e+00
  1.427630e+01    2.238055e+00
  1.429217e+01    2.259193e+00
  1.430805e+01    2.256103e+00
  1.432392e+01    2.232894e+00
  1.433980e+01    2.222288e+00
  1.435568e+01    2.240760e+00
  1.437155e+01    2.265212e+00
  1.438743e+01    2.234641e+00
  1.440330e+01    2.215946e+00
  1.441918e+01    2.255587e+00
  1.443505e+01    2.226739e+00
  1.445093e+01    2.236866e+00
  1.446680e+01    2.207289e+00
  1.448268e+01    2.228199e+00
  1.449856e+01    2.173511e+00
  1.451443e+01    2.180470e+00
  1.453031e+01    2.236280e+00
  1.454618e+01    2.189340e+00
  1.456206e+01    2.216430e+00
  1.457793e+01    2.225625e+00
  1.459381e+01    2.157962e+00
  1.460968e+01    2.195518e+00
  1.462556e+01    2.190960e+00
  1.464144e+01    2.155889e+00
  1.465731e+01    2.158656e+00
  1.467319e+01    2.165375e+00
  1.468906e+01    2.180924e+00
  1.470494e+01    2.194595e+00
  1.472081e+01    2.198889e+00
  1.473669e+01    2.171371e+00
  1.475256e+01    2.156629e+00
  1.476844e+01    2.155460e+00
  1.478432e+01    2.160373e+00
  1.480019e+01    2.161458e+00
  1.481607e+01    2.191053e+00
  1.483194e+01    2.172448e+00
  1.484782e+01    2.196205e+00
  1.486369e+01    2.188716e+00
  1.487957e+01    2.187989e+00
  1.489544e+01    2.214687e+00
  1.491132e+01    2.244349e+00
  1.492720e+01    2.268815e+00
  1.494307e+01    2.278164e+00
  1.495895e+01    2.284050e+00
  1.497482e+01    2.320544e+00
  1.499070e+01    2.348580e+00
  1.500657e+01    2.389527e+00
  1.502245e+01    2.479336e+00
  1.503832e+01    2.580145e+00
  1.505420e+01    2.680594e+00
  1.507008e+01    2.805401e+00
  1.508595e+01    2.963141e+00
  1.510183e+01    3.193996e+00
  1.511770e+01    3.443346e+00
  1.513358e+01    3.741525e+00
  1.514945e+01    4.087508e+00
  1.516533e+01    4.456877e+00
  1.518120e+01    4.887120e+00
  1.519708e+01    5.172961e+00
  1.521296e+01    5.340536e+00
  1.522883e+01    5.535964e+00
  1.524471e+01    5.646074e+00
  1.526058e+01    5.717405e+00
  1.527646e+01    5.706204e+00
  1.529233e+01    5.430575e+00
  1.530821e+01    5.109360e+00
  1.532409e+01    4.710010e+00
  1.533996e+01    4.170916e+00
  1.535584e+01    3.729090e+00
  1.537171e+01    3.381728e+00
  1.538759e+01    3.186315e+00
  1.540346e+01    2.943338e+00
  1.541934e+01    2.718241e+00
  1.543521e+01    2.587629e+00
  1.545109e+01    2.485332e+00
  1.546697e+01    2.404307e+00
  1.548284e+01    2.399893e+00
  1.549872e+01    2.297401e+00
  1.551459e+01    2.251198e+00
  1.553047e+01    2.199791e+00
  1.554634e+01    2.161009e+00
  1.556222e+01    2.144440e+00
  1.557809e+01    2.108302e+00
  1.559397e+01    2.088969e+00
  1.560985e+01    2.083282e+00
  1.562572e+01    2.045700e+00
  1.564160e+01    2.004148e+00
  1.565747e+01    1.979048e+00
  1.567335e+01    2.005688e+00
  1.568922e+01    1.980604e+00
  1.570510e+01    1.980415e+00
  1.572097e+01    1.930740e+00
  1.573685e+01    1.957163e+00
  1.575273e+01    1.973426e+00
  1.576860e+01    1.946224e+00
  1.578448e+01    1.932616e+00
  1.580035e+01    1.941020e+00
  1.581623e+01    1.922387e+00
  1.583210e+01    1.939755e+00
  1.584798e+01    1.908979e+00
  1.586385e+01    1.898191e+00
  1.587973e+01    1.909942e+00
  1.589561e+01    1.918576e+00
  1.591148e+01    1.872048e+00
  1.592736e+01    1.860016e+00
  1.594323e+01    1.877102e+00
  1.595911e+01    1.874605e+00
  1.597498e+01    1.873972e+00
  1.599086e+01    1.863785e+00
  1.600673e+01    1.857561e+00
  1.602261e+01    1.842119e+00
  1.603849e+01    1.860825e+00
  1.605436e+01    1.871065e+00
  1.607024e+01    1.821244e+00
  1.608611e+01    1.829395e+00
  1.610199e+01    1.856706e+00
  1.611786e+01    1.879586e+00
  1.613374e+01    1.860883e+00
  1.614961e+01    1.787401e+00
  1.616549e+01    1.834367e+00
  1.618137e+01    1.855864e+00
  1.619724e+01    1.840291e+00
  1.621312e+01    1.791924e+00
  1.622899e+01    1.811520e+00
  1.624487e+01    1.839094e+00
  1.626074e+01    1.804374e+00
  1.627662e+01    1.794000e+00
  1.629250e+01    1.796971e+00
  1.630837e+01    1.798743e+00
  1.632425e+01    1.787057e+00
  1.634012e+01    1.784160e+00
  1.635600e+01    1.774172e+00
  1.637187e+01    1.757526e+00
  1.638775e+01    1.766700e+00
  1.640362e+01    1.769390e+00
  1.641950e+01    1.743312e+00
  1.643538e+01    1.775457e+00
  1.645125e+01    1.775167e+00
  1.646713e+01    1.770337e+00
  1.648300e+01    1.773370e+00
  1.649888e+01    1.779777e+00
  1.651475e+01    1.810557e+00
  1.653063e+01    1.796813e+00
  1.654650e+01    1.735023e+00
  1.656238e+01    1.714120e+00
  1.657826e+01    1.720441e+00
  1.659413e+01    1.747184e+00
  1.661001e+01    1.726412e+00
  1.662588e+01    1.725820e+00
  1.664176e+01    1.718568e+00
  1.665763e+01    1.699475e+00
  1.667351e+01    1.727404e+00
  1.668938e+01    1.738826e+00
  1.670526e+01    1.729267e+00
  1.672114e+01    1.735767e+00
  1.673701e+01    1.735436e+00
  1.675289e+01    1.711135e+00
  1.676876e+01    1.704188e+00
  1.678464e+01    1.686111e+00
  1.680051e+01    1.668369e+00
  1.681639e+01    1.690317e+00
  1.683226e+01    1.706696e+00
  1.684814e+01    1.718959e+00
  1.686402e+01    1.716104e+00
  1.687989e+01    1.681274e+00
  1.689577e+01    1.657454e+00
  1.691164e+01    1.648291e+00
  1.692752e+01    1.642236e+00
  1.694339e+01    1.670194e+00
  1.695927e+01    1.683790e+00
  1.697514e+01    1.642568e+00
  1.699102e+01    1.657256e+00
  1.700690e+01    1.652152e+00
  1.702277e+01    1.671664e+00
  1.703865e+01    1.693117e+00
  1.705452e+01    1.643365e+00
  1.707040e+01    1.651957e+00
  1.708627e+01    1.644033e+00
  1.710215e+01    1.632706e+00
  1.711802e+01    1.648083e+00
  1.713390e+01    1.648839e+00
  1.714978e+01    1.618566e+00
  1.716565e+01    1.610690e+00
  1.718153e+01    1.608023e+00
  1.719740e+01    1.645348e+00
  1.721328e+01    1.636843e+00
  1.722915e+01    1.645157e+00
  1.724503e+01    1.618412e+00
  1.726091e+01    1.607738e+00
  1.727678e+01    1.600127e+00
  1.729266e+01    1.616472e+00
  1.730853e+01    1.599684e+00
  1.732441e+01    1.607527e+00
  1.734028e+01    1.586930e+00
  1.735616e+01    1.574062e+00
  1.737203e+01    1.592293e+00
  1.738791e+01    1.605360e+00
  1.740379e+01    1.618548e+00
  1.741966e+01    1.601273e+00
  1.743554e+01    1.575150e+00
  1.745141e+01    1.585414e+00
  1.746729e+01    1.603140e+00
  1.748316e+01    1.593932e+00
  1.749904e+01    1.593294e+00
  1.751491e+01    1.605180e+00
  1.753079e+01    1.585389e+00
  1.754667e+01    1.565971e+00
  1.756254e+01    1.572462e+00
  1.757842e+01    1.541668e+00
  1.759429e+01    1.592147e+00
  1.761017e+01    1.584201e+00
  1.762604e+01    1.569557e+00
  1.764192e+01    1.554054e+00
  1.765779e+01    1.535019e+00
  1.767367e+01    1.538003e+00
  1.768955e+01    1.535998e+00
  1.770542e+01    1.567906e+00
  1.772130e+01    1.548048e+00
  1.773717e+01    1.549229e+00
  1.775305e+01    1.521290e+00
  1.776892e+01    1.541210e+00
  1.778480e+01    1.549896e+00
  1.780067e+01    1.496953e+00
  1.781655e+01    1.483579e+00
  1.783243e+01    1.505725e+00
  1.784830e+01    1.511304e+00
  1.786418e+01    1.529803e+00
  1.788005e+01    1.496699e+00
  1.789593e+01    1.492287e+00
  1.791180e+01    1.531323e+00
  1.792768e+01    1.505892e+00
  1.794355e+01    1.485598e+00
  1.795943e+01    1.466148e+00
  1.797531e+01    1.502206e+00
  1.799118e+01    1.485493e+00
  1.800706e+01    1.485633e+00
  1.802293e+01    1.480942e+00
  1.803881e+01    1.485374e+00
  1.805468e+01    1.515668e+00
  1.807056e+01    1.518137e+00
  1.808643e+01    1.466572e+00
  1.810231e+01    1.482886e+00
  1.811819e+01    1.462651e+00
  1.813406e+01    1.486336e+00
  1.814994e+01    1.478691e+00
  1.816581e+01    1.478107e+00
  1.818169e+01    1.488051e+00
  1.819756e+01    1.493392e+00
  1.821344e+01    1.485198e+00
  1.822932e+01    1.461926e+00
  1.824519e+01    1.458333e+00
  1.826107e+01    1.480226e+00
  1.827694e+01    1.463207e+00
  1.829282e+01    1.466151e+00
  1.830869e+01    1.481146e+00
  1.832457e+01    1.451240e+00
  1.834044e+01    1.448085e+00
  1.835632e+01    1.451261e+00
  1.837220e+01    1.458462e+00
  1.838807e+01    1.467312e+00
  1.840395e+01    1.445660e+00
  1.841982e+01    1.447624e+00
  1.843570e+01    1.454392e+00
  1.845157e+01    1.426151e+00
  1.846745e+01    1.442272e+00
  1.848332e+01    1.413537e+00
  1.849920e+01    1.385790e+00
  1.851508e+01    1.443023e+00
  1.853095e+01    1.407458e+00
  1.854683e+01    1.420222e+00
  1.856270e+01    1.413728e+00
  1.857858e+01    1.426938e+00
  1.859445e+01    1.413033e+00
  1.861033e+01    1.438904e+00
  1.862620e+01    1.411499e+00
  1.864208e+01    1.399428e+00
  1.865796e+01    1.389732e+00
  1.867383e+01    1.392379e+00
  1.868971e+01    1.407523e+00
  1.870558e+01    1.406222e+00
  1.872146e+01    1.409484e+00
  1.873733e+01    1.377688e+00
  1.875321e+01    1.376723e+00
  1.876908e+01    1.413344e+00
  1.878496e+01    1.398822e+00
  1.880084e+01    1.386433e+00
  1.881671e+01    1.395904e+00
  1.883259e+01    1.408831e+00
  1.884846e+01    1.381878e+00
  1.886434e+01    1.394868e+00
  1.888021e+01    1.398236e+00
  1.889609e+01    1.407346e+00
  1.891196e+01    1.386003e+00
  1.892784e+01    1.360144e+00
  1.894372e+01    1.394595e+00
  1.895959e+01    1.393025e+00
  1.897547e+01    1.389790e+00
  1.899134e+01    1.359181e+00
  1.900722e+01    1.359230e+00
  1.902309e+01    1.380042e+00
  1.903897e+01    1.389436e+00
  1.905484e+01    1.405669e+00
  1.907072e+01    1.378296e+00
  1.908660e+01    1.381366e+00
  1.910247e+01    1.371121e+00
  1.911835e+01    1.397634e+00
  1.913422e+01    1.365026e+00
  1.915010e+01    1.334364e+00
  1.916597e+01    1.350610e+00
  1.918185e+01    1.369830e+00
  1.919773e+01    1.387286e+00
  1.921360e+01    1.372655e+00
  1.922948e+01    1.356591e+00
  1.924535e+01    1.341960e+00
  1.926123e+01    1.340721e+00
  1.927710e+01    1.349332e+00
  1.929298e+01    1.353274e+00
  1.930885e+01    1.332486e+00
  1.932473e+01    1.330955e+00
  1.934061e+01    1.333282e+00
  1.935648e+01    1.332800e+00
  1.937236e+01    1.336733e+00
  1.938823e+01    1.323677e+00
  1.940411e+01    1.306763e+00
  1.941998e+01    1.332973e+00
  1.943586e+01    1.344087e+00
  1.945173e+01    1.346605e+00
  1.946761e+01    1.359183e+00
  1.948349e+01    1.346312e+00
  1.949936e+01    1.313441e+00
  1.951524e+01    1.315690e+00
  1.953111e+01    1.302983e+00
  1.954699e+01    1.321798e+00
  1.956286e+01    1.310129e+00
  1.957874e+01    1.311569e+00
  1.959461e+01    1.295524e+00
  1.961049e+01    1.295709e+00
  1.962637e+01    1.312791e+00
  1.964224e+01    1.306070e+00
  1.965812e+01    1.307913e+00
  1.967399e+01    1.300275e+00
  1.968987e+01    1.327168e+00
  1.970574e+01    1.343147e+00
  1.972162e+01    1.291674e+00
  1.973749e+01    1.292678e+00
  1.975337e+01    1.303080e+00
  1.976925e+01    1.299511e+00
  1.978512e+01    1.290203e+00
  1.980100e+01    1.303810e+00
  1.981687e+01    1.294835e+00
  1.983275e+01    1.304124e+00
  1.984862e+01    1.287095e+00
  1.986450e+01    1.278692e+00
  1.988037e+01    1.270073e+00
  1.989625e+01    1.267893e+00
  1.991213e+01    1.285328e+00
  1.992800e+01    1.271479e+00
  1.994388e+01    1.286345e+00
  1.995975e+01    1.277836e+00
  1.997563e+01    1.257648e+00
  1.999150e+01    1.266540e+00
  2.000738e+01    1.260295e+00
  2.002325e+01    1.246921e+00
  2.003913e+01    1.251198e+00
  2.005501e+01    1.241466e+00
  2.007088e+01    1.226365e+00
  2.008676e+01    1.267725e+00
  2.010263e+01    1.294013e+00
  2.011851e+01    1.249333e+00
  2.013438e+01    1.265454e+00
  2.015026e+01    1.255216e+00
  2.016614e+01    1.246961e+00
  2.018201e+01    1.264352e+00
  2.019789e+01    1.268222e+00
  2.021376e+01    1.248805e+00
  2.022964e+01    1.281235e+00
  2.024551e+01    1.290374e+00
  2.026139e+01    1.269112e+00
  2.027726e+01    1.265672e+00
  2.029314e+01    1.264277e+00
  2.030902e+01    1.261096e+00
  2.032489e+01    1.248833e+00
  2.034077e+01    1.247180e+00
  2.035664e+01    1.253514e+00
  2.037252e+01    1.215406e+00
  2.038839e+01    1.227459e+00
  2.040427e+01    1.242627e+00
  2.042014e+01    1.238177e+00
  2.043602e+01    1.230401e+00
  2.045190e+01    1.241971e+00
  2.046777e+01    1.239675e+00
  2.048365e+01    1.237148e+00
  2.049952e+01    1.259196e+00
  2.051540e+01    1.245078e+00
  2.053127e+01    1.228037e+00
  2.054715e+01    1.246444e+00
  2.056302e+01    1.246114e+00
  2.057890e+01    1.213577e+00
  2.059478e+01    1.220491e+00
  2.061065e+01    1.228417e+00
  2.062653e+01    1.245986e+00
  2.064240e+01    1.254414e+00
  2.065828e+01    1.215130e+00
  2.067415e+01    1.215004e+00
  2.069003e+01    1.250080e+00
  2.070590e+01    1.237011e+00
  2.072178e+01    1.223026e+00
  2.073766e+01    1.221822e+00
  2.075353e+01    1.218619e+00
  2.076941e+01    1.204966e+00
  2.078528e+01    1.219717e+00
  2.080116e+01    1.225600e+00
  2.081703e+01    1.227097e+00
  2.083291e+01    1.239262e+00
  2.084878e+01    1.210293e+00
  2.086466e+01    1.218350e+00
  2.088054e+01    1.231578e+00
  2.089641e+01    1.239406e+00
  2.091229e+01    1.218052e+00
  2.092816e+01    1.222922e+00
  2.094404e+01    1.228176e+00
  2.095991e+01    1.238482e+00
  2.097579e+01    1.232009e+00
  2.099166e+01    1.231735e+00
  2.100754e+01    1.195446e+00
  2.102342e+01    1.234076e+00
  2.103929e+01    1.226965e+00
  2.105517e+01    1.228613e+00
  2.107104e+01    1.209157e+00
  2.108692e+01    1.208662e+00
  2.110279e+01    1.217361e+00
  2.111867e+01    1.237654e+00
  2.113455e+01    1.243869e+00
  2.115042e+01    1.250051e+00
  2.116630e+01    1.251930e+00
  2.118217e+01    1.210773e+00
  2.119805e+01    1.207103e+00
  2.121392e+01    1.204352e+00
  2.122980e+01    1.218621e+00
  2.124567e+01    1.236862e+00
  2.126155e+01    1.237615e+00
  2.127743e+01    1.236222e+00
  2.129330e+01    1.258192e+00
  2.130918e+01    1.271388e+00
  2.132505e+01    1.263116e+00
  2.134093e+01    1.258265e+00
  2.135680e+01    1.266674e+00
  2.137268e+01    1.261737e+00
  2.138855e+01    1.255022e+00
  2.140443e+01    1.293849e+00
  2.142031e+01    1.313748e+00
  2.143618e+01    1.322507e+00
  2.145206e+01    1.340053e+00
  2.146793e+01    1.374077e+00
  2.148381e+01    1.378500e+00
  2.149968e+01    1.392151e+00
  2.151556e+01    1.413392e+00
  2.153143e+01    1.426854e+00
  2.154731e+01    1.473422e+00
  2.156319e+01    1.547162e+00
  2.157906e+01    1.613127e+00
  2.159494e+01    1.642838e+00
  2.161081e+01    1.747728e+00
  2.162669e+01    1.835268e+00
  2.164256e+01    1.979993e+00
  2.165844e+01    2.099071e+00
  2.167431e+01    2.264391e+00
  2.169019e+01    2.483943e+00
  2.170607e+01    2.759610e+00
  2.172194e+01    3.055909e+00
  2.173782e+01    3.440920e+00
  2.175369e+01    3.960213e+00
  2.176957e+01    4.505513e+00
  2.178544e+01    5.114985e+00
  2.180132e+01    5.767590e+00
  2.181719e+01    6.408534e+00
  2.183307e+01    7.067126e+00
  2.184895e+01    7.713698e+00
  2.186482e+01    8.267944e+00
  2.188070e+01    8.656448e+00
  2.189657e+01    8.874496e+00
  2.191245e+01    8.703112e+00
  2.192832e+01    8.213723e+00
  2.194420e+01    7.504581e+00
  2.196007e+01    6.575956e+00
  2.197595e+01    5.749190e+00
  2.199183e+01    4.891553e+00
  2.200770e+01    4.148060e+00
  2.202358e+01    3.645054e+00
  2.203945e+01    3.197978e+00
  2.205533e+01    2.845088e+00
  2.207120e+01    2.553864e+00
  2.208708e+01    2.309810e+00
  2.210296e+01    2.133708e+00
  2.211883e+01    1.999000e+00
  2.213471e+01    1.878933e+00
  2.215058e+01    1.759814e+00
  2.216646e+01    1.651166e+00
  2.218233e+01    1.599413e+00
  2.219821e+01    1.532199e+00
  2.221408e+01    1.490016e+00
  2.222996e+01    1.457084e+00
  2.224584e+01    1.414163e+00
  2.226171e+01    1.354306e+00
  2.227759e+01    1.318510e+00
  2.229346e+01    1.331966e+00
  2.230934e+01    1.320810e+00
  2.232521e+01    1.278875e+00
  2.234109e+01    1.270024e+00
  2.235696e+01    1.267312e+00
  2.237284e+01    1.254781e+00
  2.238872e+01    1.221483e+00
  2.240459e+01    1.195274e+00
  2.242047e+01    1.191068e+00
  2.243634e+01    1.170490e+00
  2.245222e+01    1.180557e+00
  2.246809e+01    1.169939e+00
  2.248397e+01    1.135824e+00
  2.249984e+01    1.137907e+00
  2.251572e+01    1.144261e+00
  2.253160e+01    1.128274e+00
  2.254747e+01    1.128500e+00
  2.256335e+01    1.124842e+00
  2.257922e+01    1.123098e+00
  2.259510e+01    1.083106e+00
  2.261097e+01    1.110717e+00
  2.262685e+01    1.092781e+00
  2.264272e+01    1.079647e+00
  2.265860e+01    1.073312e+00
  2.267448e+01    1.089119e+00
  2.269035e+01    1.074886e+00
  2.270623e+01    1.075322e+00
  2.272210e+01    1.068791e+00
  2.273798e+01    1.080406e+00
  2.275385e+01    1.060105e+00
  2.276973e+01    1.055727e+00
  2.278560e+01    1.043586e+00
  2.280148e+01    1.038918e+00
  2.281736e+01    1.027718e+00
  2.283323e+01    1.035245e+00
  2.284911e+01    1.037049e+00
  2.286498e+01    1.055083e+00
  2.288086e+01    1.044551e+00
  2.289673e+01    1.030902e+00
  2.291261e+01    1.009942e+00
  2.292848e+01    1.004298e+00
  2.294436e+01    1.017443e+00
  2.296024e+01    1.013871e+00
  2.297611e+01    1.029318e+00
  2.299199e+01    1.021194e+00
  2.300786e+01    9.964678e-01
  2.302374e+01    9.938999e-01
  2.303961e+01    9.988093e-01
  2.305549e+01    9.899645e-01
  2.307137e+01    9.992350e-01
  2.308724e+01    9.868780e-01
  2.310312e+01    9.885225e-01
  2.311899e+01    9.939580e-01
  2.313487e+01    1.006056e+00
  2.315074e+01    9.962422e-01
  2.316662e+01    9.866256e-01
  2.318249e+01    9.799479e-01
  2.319837e+01    9.833027e-01
  2.321425e+01    9.875776e-01
  2.323012e+01    9.913358e-01
  2.324600e+01    9.880258e-01
  2.326187e+01    9.726581e-01
  2.327775e+01    9.932735e-01
  2.329362e+01    9.807043e-01
  2.330950e+01    9.806850e-01
  2.332537e+01    9.775520e-01
  2.334125e+01    9.860266e-01
  2.335713e+01    9.953590e-01
  2.337300e+01    9.868098e-01
  2.338888e+01    9.882088e-01
  2.340475e+01    9.781745e-01
  2.342063e+01    9.874516e-01
  2.343650e+01    9.764203e-01
  2.345238e+01    9.648200e-01
  2.346825e+01    9.706680e-01
  2.348413e+01    9.540165e-01
  2.350001e+01    9.553044e-01
  2.351588e+01    9.396564e-01
  2.353176e+01    9.475470e-01
  2.354763e+01    9.690652e-01
  2.356351e+01    9.454151e-01
  2.357938e+01    9.477766e-01
  2.359526e+01    9.407496e-01
  2.361113e+01    9.241448e-01
  2.362701e+01    9.428716e-01
  2.364289e+01    9.647153e-01
  2.365876e+01    9.400619e-01
  2.367464e+01    9.466940e-01
  2.369051e+01    9.369869e-01
  2.370639e+01    9.323860e-01
  2.372226e+01    9.289272e-01
  2.373814e+01    9.282303e-01
  2.375401e+01    9.328250e-01
  2.376989e+01    9.154543e-01
  2.378577e+01    9.162727e-01
  2.380164e+01    8.962559e-01
  2.381752e+01    8.858180e-01
  2.383339e+01    9.226716e-01
  2.384927e+01    9.231325e-01
  2.386514e+01    9.177811e-01
  2.388102e+01    9.025545e-01
  2.389689e+01    8.877082e-01
  2.391277e+01    9.011703e-01
  2.392865e+01    9.039060e-01
  2.394452e+01    8.937539e-01
  2.396040e+01    8.891277e-01
  2.397627e+01    9.000474e-01
  2.399215e+01    8.901142e-01
  2.400802e+01    8.852155e-01
  2.402390e+01    8.981137e-01
  2.403978e+01    9.019719e-01
  2.405565e+01    8.776194e-01
  2.407153e+01    8.717459e-01
  2.408740e+01    8.800874e-01
  2.410328e+01    8.715100e-01
  2.411915e+01    8.728220e-01
  2.413503e+01    8.588085e-01
  2.415090e+01    8.806581e-01
  2.416678e+01    8.697109e-01
  2.418266e+01    8.702789e-01
  2.419853e+01    8.716900e-01
  2.421441e+01    8.710981e-01
  2.423028e+01    8.539299e-01
  2.424616e+01    8.598163e-01
  2.426203e+01    8.929331e-01
  2.427791e+01    8.984425e-01
  2.429378e+01    8.852109e-01
  2.430966e+01    9.078218e-01
  2.432554e+01    8.841777e-01
  2.434141e+01    8.929994e-01
  2.435729e+01    8.992434e-01
  2.437316e+01    9.023798e-01
  2.438904e+01    8.864541e-01
  2.440491e+01    8.838651e-01
  2.442079e+01    8.826690e-01
  2.443666e+01    8.938224e-01
  2.445254e+01    8.809450e-01
  2.446842e+01    8.968318e-01
  2.448429e+01    9.075223e-01
  2.450017e+01    8.891020e-01
  2.451604e+01    8.813208e-01
  2.453192e+01    8.894268e-01
  2.454779e+01    8.640638e-01
  2.456367e+01    8.834023e-01
  2.457954e+01    8.993917e-01
  2.459542e+01    8.960111e-01
  2.461130e+01    8.917146e-01
  2.462717e+01    8.735684e-01
  2.464305e+01    8.791247e-01
  2.465892e+01    8.825293e-01
  2.467480e+01    8.852605e-01
  2.469067e+01    8.859728e-01
  2.470655e+01    8.929232e-01
  2.472242e+01    8.994575e-01
  2.473830e+01    8.769006e-01
  2.475418e+01    8.953723e-01
  2.477005e+01    8.820685e-01
  2.478593e+01    8.626028e-01
  2.480180e+01    8.812351e-01
  2.481768e+01    8.769500e-01
  2.483355e+01    8.821736e-01
  2.484943e+01    8.898433e-01
  2.486530e+01    8.850042e-01
  2.488118e+01    8.800806e-01
  2.489706e+01    9.097818e-01
  2.491293e+01    8.982495e-01
  2.492881e+01    8.769623e-01
  2.494468e+01    8.833502e-01
  2.496056e+01    8.981922e-01
  2.497643e+01    9.011105e-01
  2.499231e+01    8.926460e-01
  2.500819e+01    8.934793e-01
  2.502406e+01    8.972276e-01
  2.503994e+01    9.037625e-01
  2.505581e+01    9.072133e-01
  2.507169e+01    8.952885e-01
  2.508756e+01    8.938562e-01
  2.510344e+01    8.920690e-01
  2.511931e+01    8.711996e-01
  2.513519e+01    8.792796e-01
  2.515107e+01    9.147821e-01
  2.516694e+01    9.034636e-01
  2.518282e+01    9.088211e-01
  2.519869e+01    9.243422e-01
  2.521457e+01    9.444382e-01
  2.523044e+01    9.462214e-01
  2.524632e+01    9.656206e-01
  2.526219e+01    9.665346e-01
  2.527807e+01    9.463224e-01
  2.529395e+01    9.392686e-01
  2.530982e+01    9.391857e-01
  2.532570e+01    9.583302e-01
  2.534157e+01    9.595658e-01
  2.535745e+01    9.545263e-01
  2.537332e+01    9.548602e-01
  2.538920e+01    9.739925e-01
  2.540507e+01    9.803882e-01
  2.542095e+01    9.885623e-01
  2.543683e+01    1.008250e+00
  2.545270e+01    1.007903e+00
  2.546858e+01    1.014602e+00
  2.548445e+01    1.045737e+00
  2.550033e+01    1.046971e+00
  2.551620e+01    1.064383e+00
  2.553208e+01    1.083975e+00
  2.554795e+01    1.096299e+00
  2.556383e+01    1.111248e+00
  2.557971e+01    1.137118e+00
  2.559558e+01    1.163759e+00
  2.561146e+01    1.211937e+00
  2.562733e+01    1.249616e+00
  2.564321e+01    1.300875e+00
  2.565908e+01    1.350861e+00
  2.567496e+01    1.389486e+00
  2.569083e+01    1.491081e+00
  2.570671e+01    1.572884e+00
  2.572259e+01    1.675353e+00
  2.573846e+01    1.785720e+00
  2.575434e+01    1.964845e+00
  2.577021e+01    2.197638e+00
  2.578609e+01    2.464282e+00
  2.580196e+01    2.771175e+00
  2.581784e+01    3.125338e+00
  2.583371e+01    3.564329e+00
  2.584959e+01    4.102430e+00
  2.586547e+01    4.623403e+00
  2.588134e+01    5.172712e+00
  2.589722e+01    5.760035e+00
  2.591309e+01    6.278212e+00
  2.592897e+01    6.705872e+00
  2.594484e+01    6.985746e+00
  2.596072e+01    7.095448e+00
  2.597660e+01    6.875682e+00
  2.599247e+01    6.510565e+00
  2.600835e+01    5.947732e+00
  2.602422e+01    5.258925e+00
  2.604010e+01    4.631970e+00
  2.605597e+01    4.048121e+00
  2.607185e+01    3.451570e+00
  2.608772e+01    3.012701e+00
  2.610360e+01    2.654598e+00
  2.611948e+01    2.343238e+00
  2.613535e+01    2.120801e+00
  2.615123e+01    1.975427e+00
  2.616710e+01    1.817788e+00
  2.618298e+01    1.675626e+00
  2.619885e+01    1.541998e+00
  2.621473e+01    1.489149e+00
  2.623060e+01    1.414897e+00
  2.624648e+01    1.328947e+00
  2.626236e+01    1.286097e+00
  2.627823e+01    1.255796e+00
  2.629411e+01    1.225510e+00
  2.630998e+01    1.180596e+00
  2.632586e+01    1.142343e+00
  2.634173e+01    1.104854e+00
  2.635761e+01    1.107124e+00
  2.637348e+01    1.085403e+00
  2.638936e+01    1.069393e+00
  2.640524e+01    1.054833e+00
  2.642111e+01    1.033670e+00
  2.643699e+01    1.023070e+00
  2.645286e+01    1.018944e+00
  2.646874e+01    9.898590e-01
  2.648461e+01    1.027172e+00
  2.650049e+01    1.009724e+00
  2.651636e+01    9.968528e-01
  2.653224e+01    1.004048e+00
  2.654812e+01    9.967864e-01
  2.656399e+01    9.650429e-01
  2.657987e+01    1.005786e+00
  2.659574e+01    1.000158e+00
  2.661162e+01    9.851972e-01
  2.662749e+01    9.837111e-01
  2.664337e+01    9.698484e-01
  2.665924e+01    9.987658e-01
  2.667512e+01    9.757172e-01
  2.669100e+01    9.329212e-01
  2.670687e+01    9.582999e-01
  2.672275e+01    9.448688e-01
  2.673862e+01    9.506481e-01
  2.675450e+01    9.694196e-01
  2.677037e+01    9.380522e-01
  2.678625e+01    9.639437e-01
  2.680212e+01    9.706689e-01
  2.681800e+01    9.650086e-01
  2.683388e+01    9.758602e-01
  2.684975e+01    9.720560e-01
  2.686563e+01    9.807492e-01
  2.688150e+01    9.900761e-01
  2.689738e+01    1.002109e+00
  2.691325e+01    1.000729e+00
  2.692913e+01    1.014817e+00
  2.694501e+01    1.025864e+00
  2.696088e+01    1.037289e+00
  2.697676e+01    1.053633e+00
  2.699263e+01    1.084887e+00
  2.700851e+01    1.122752e+00
  2.702438e+01    1.142342e+00
  2.704026e+01    1.176943e+00
  2.705613e+01    1.252618e+00
  2.707201e+01    1.323162e+00
  2.708789e+01    1.386145e+00
  2.710376e+01    1.473408e+00
  2.711964e+01    1.569571e+00
  2.713551e+01    1.683407e+00
  2.715139e+01    1.809461e+00
  2.716726e+01    1.940620e+00
  2.718314e+01    2.049312e+00
  2.719901e+01    2.148428e+00
  2.721489e+01    2.146273e+00
  2.723077e+01    2.137350e+00
  2.724664e+01    2.079171e+00
  2.726252e+01    1.983741e+00
  2.727839e+01    1.860214e+00
  2.729427e+01    1.714664e+00
  2.731014e+01    1.572869e+00
  2.732602e+01    1.472518e+00
  2.734189e+01    1.377535e+00
  2.735777e+01    1.281947e+00
  2.737365e+01    1.222861e+00
  2.738952e+01    1.159359e+00
  2.740540e+01    1.115012e+00
  2.742127e+01    1.088144e+00
  2.743715e+01    1.066447e+00
  2.745302e+01    1.014373e+00
  2.746890e+01    1.022444e+00
  2.748477e+01    9.930881e-01
  2.750065e+01    9.835230e-01
  2.751653e+01    9.551373e-01
  2.753240e+01    9.684726e-01
  2.754828e+01    9.713671e-01
  2.756415e+01    9.475406e-01
  2.758003e+01    9.525093e-01
  2.759590e+01    9.485169e-01
  2.761178e+01    9.241052e-01
  2.762765e+01    9.142495e-01
  2.764353e+01    9.029564e-01
  2.765941e+01    8.813962e-01
  2.767528e+01    8.843434e-01
  2.769116e+01    8.874171e-01
  2.770703e+01    9.073596e-01
  2.772291e+01    8.792684e-01
  2.773878e+01    8.728704e-01
  2.775466e+01    8.745971e-01
  2.777054e+01    8.898607e-01
  2.778641e+01    8.870329e-01
  2.780229e+01    8.852853e-01
  2.781816e+01    8.811343e-01
  2.783404e+01    8.767187e-01
  2.784991e+01    8.833043e-01
  2.786579e+01    8.641774e-01
  2.788166e+01    8.732989e-01
  2.789754e+01    8.835140e-01
  2.791342e+01    8.687571e-01
  2.792929e+01    8.510342e-01
  2.794517e+01    8.355553e-01
  2.796104e+01    8.529570e-01
  2.797692e+01    8.768021e-01
  2.799279e+01    8.653970e-01
  2.800867e+01    8.697158e-01
  2.802454e+01    8.675375e-01
  2.804042e+01    8.586650e-01
  2.805630e+01    8.462186e-01
  2.807217e+01    8.527532e-01
  2.808805e+01    8.506476e-01
  2.810392e+01    8.364800e-01
  2.811980e+01    8.343385e-01
  2.813567e+01    8.360547e-01
  2.815155e+01    8.623042e-01
  2.816742e+01    8.573739e-01
  2.818330e+01    8.452125e-01
  2.819918e+01    8.165548e-01
  2.821505e+01    8.413419e-01
  2.823093e+01    8.518157e-01
  2.824680e+01    8.337490e-01
  2.826268e+01    8.559201e-01
  2.827855e+01    8.518318e-01
  2.829443e+01    8.559842e-01
  2.831030e+01    8.153353e-01
  2.832618e+01    8.151290e-01
  2.834206e+01    8.314120e-01
  2.835793e+01    8.541712e-01
  2.837381e+01    8.473877e-01
  2.838968e+01    8.350601e-01
  2.840556e+01    8.293938e-01
  2.842143e+01    8.400810e-01
  2.843731e+01    8.427975e-01
  2.845318e+01    8.460591e-01
  2.846906e+01    8.459027e-01
  2.848494e+01    8.547633e-01
  2.850081e+01    8.534219e-01
  2.851669e+01    8.321536e-01
  2.853256e+01    8.559712e-01
  2.854844e+01    8.398142e-01
  2.856431e+01    8.370356e-01
  2.858019e+01    8.270852e-01
  2.859606e+01    8.087216e-01
  2.861194e+01    8.284702e-01
  2.862782e+01    8.335536e-01
  2.864369e+01    8.430169e-01
  2.865957e+01    8.513122e-01
  2.867544e+01    8.108451e-01
  2.869132e+01    8.206195e-01
  2.870719e+01    8.118357e-01
  2.872307e+01    8.338212e-01
  2.873895e+01    8.329308e-01
  2.875482e+01    8.305892e-01
  2.877070e+01    8.225344e-01
  2.878657e+01    8.281787e-01
  2.880245e+01    8.233818e-01
  2.881832e+01    8.412550e-01
  2.883420e+01    8.383950e-01
  2.885007e+01    8.218700e-01
  2.886595e+01    8.087159e-01
  2.888183e+01    8.274186e-01
  2.889770e+01    7.946002e-01
  2.891358e+01    7.996330e-01
  2.892945e+01    7.988229e-01
  2.894533e+01    8.018202e-01
  2.896120e+01    7.992049e-01
  2.897708e+01    8.241798e-01
  2.899295e+01    8.259227e-01
  2.900883e+01    8.263595e-01
  2.902471e+01    8.126844e-01
  2.904058e+01    8.017811e-01
  2.905646e+01    8.024052e-01
  2.907233e+01    7.960396e-01
  2.908821e+01    8.086063e-01
  2.910408e+01    8.118634e-01
  2.911996e+01    8.119277e-01
  2.913583e+01    8.113384e-01
  2.915171e+01    8.115110e-01
  2.916759e+01    8.031558e-01
  2.918346e+01    8.051350e-01
  2.919934e+01    8.002043e-01
  2.921521e+01    8.120180e-01
  2.923109e+01    7.991769e-01
  2.924696e+01    7.944778e-01
  2.926284e+01    8.001418e-01
  2.927871e+01    8.139688e-01
  2.929459e+01    7.995523e-01
  2.931047e+01    7.993127e-01
  2.932634e+01    7.901603e-01
  2.934222e+01    8.019375e-01
  2.935809e+01    8.014520e-01
  2.937397e+01    7.887434e-01
  2.938984e+01    7.899249e-01
  2.940572e+01    7.904195e-01
  2.942159e+01    8.141153e-01
  2.943747e+01    8.020971e-01
  2.945335e+01    7.950638e-01
  2.946922e+01    7.940635e-01
  2.948510e+01    7.914693e-01
  2.950097e+01    7.817329e-01
  2.951685e+01    7.948763e-01
  2.953272e+01    7.798783e-01
  2.954860e+01    8.017814e-01
  2.956447e+01    7.955607e-01
  2.958035e+01    7.892625e-01
  2.959623e+01    7.982733e-01
  2.961210e+01    7.805552e-01
  2.962798e+01    8.005706e-01
  2.964385e+01    7.931987e-01
  2.965973e+01    7.854462e-01
  2.967560e+01    7.984576e-01
  2.969148e+01    8.101274e-01
  2.970736e+01    7.772564e-01
  2.972323e+01    7.811876e-01
  2.973911e+01    8.006375e-01
  2.975498e+01    7.947050e-01
  2.977086e+01    8.041137e-01
  2.978673e+01    8.166366e-01
  2.980261e+01    7.672473e-01
  2.981848e+01    7.819653e-01
  2.983436e+01    7.621034e-01
  2.985024e+01    7.746076e-01
  2.986611e+01    7.695453e-01
  2.988199e+01    8.095763e-01
  2.989786e+01    8.168135e-01
  2.991374e+01    8.094831e-01
  2.992961e+01    7.912912e-01
  2.994549e+01    7.759324e-01
  2.996136e+01    7.840720e-01
  2.997724e+01    7.829511e-01
  2.999312e+01    7.860636e-01
  3.000899e+01    8.086426e-01
  3.002487e+01    8.271062e-01
  3.004074e+01    8.363959e-01
  3.005662e+01    8.133749e-01
  3.007249e+01    7.921017e-01
  3.008837e+01    7.985391e-01
  3.010424e+01    7.819219e-01
  3.012012e+01    7.731993e-01
  3.013600e+01    7.713233e-01
  3.015187e+01    7.620497e-01
  3.016775e+01    7.714931e-01
  3.018362e+01    7.879812e-01
  3.019950e+01    7.994409e-01
  3.021537e+01    8.135697e-01
  3.023125e+01    8.138383e-01
  3.024712e+01    7.986823e-01
  3.026300e+01    7.643160e-01
  3.027888e+01    7.745619e-01
  3.029475e+01    7.717513e-01
  3.031063e+01    7.783452e-01
  3.032650e+01    7.753339e-01
  3.034238e+01    7.846513e-01
  3.035825e+01    7.750360e-01
  3.037413e+01    8.014339e-01
  3.039000e+01    7.972576e-01
  3.040588e+01    7.711667e-01
  3.042176e+01    7.712485e-01
  3.043763e+01    7.689912e-01
  3.045351e+01    7.610667e-01
  3.046938e+01    7.856634e-01
  3.048526e+01    7.774455e-01
  3.050113e+01    7.839897e-01
  3.051701e+01    7.836767e-01
  3.053288e+01    7.691587e-01
  3.054876e+01    7.944508e-01
  3.056464e+01    7.793644e-01
  3.058051e+01    7.560165e-01
  3.059639e+01    7.711252e-01
  3.061226e+01    7.732682e-01
  3.062814e+01    7.827965e-01
  3.064401e+01    7.803866e-01
  3.065989e+01    7.935166e-01
  3.067577e+01    7.732909e-01
  3.069164e+01    7.497359e-01
  3.070752e+01    7.632897e-01
  3.072339e+01    7.771319e-01
  3.073927e+01    7.685759e-01
  3.075514e+01    7.814593e-01
  3.077102e+01    7.753572e-01
  3.078689e+01    7.613825e-01
  3.080277e+01    7.614495e-01
  3.081865e+01    7.690033e-01
  3.083452e+01    7.739932e-01
  3.085040e+01    7.867091e-01
  3.086627e+01    7.648157e-01
  3.088215e+01    8.187855e-01
  3.089802e+01    8.092965e-01
  3.091390e+01    7.981963e-01
  3.092977e+01    7.937770e-01
  3.094565e+01    7.858249e-01
  3.096153e+01    7.961976e-01
  3.097740e+01    8.008006e-01
  3.099328e+01    7.705745e-01
  3.100915e+01    7.753836e-01
  3.102503e+01    7.784769e-01
  3.104090e+01    7.627407e-01
  3.105678e+01    7.740669e-01
  3.107265e+01    7.723952e-01
  3.108853e+01    8.079449e-01
  3.110441e+01    7.948284e-01
  3.112028e+01    7.978696e-01
  3.113616e+01    7.847000e-01
  3.115203e+01    7.704975e-01
  3.116791e+01    7.870032e-01
  3.118378e+01    7.716690e-01
  3.119966e+01    7.778051e-01
  3.121553e+01    7.914729e-01
  3.123141e+01    7.868189e-01
  3.124729e+01    7.926434e-01
  3.126316e+01    8.063765e-01
  3.127904e+01    8.028972e-01
  3.129491e+01    7.872483e-01
  3.131079e+01    7.895704e-01
  3.132666e+01    7.787616e-01
  3.134254e+01    8.077999e-01
  3.135841e+01    8.030844e-01
  3.137429e+01    7.815481e-01
  3.139017e+01    8.140947e-01
  3.140604e+01    8.364658e-01
  3.142192e+01    8.274668e-01
  3.143779e+01    8.108277e-01
  3.145367e+01    8.316135e-01
  3.146954e+01    7.985606e-01
  3.148542e+01    8.245851e-01
  3.150129e+01    8.207314e-01
  3.151717e+01    8.322579e-01
  3.153305e+01    8.545472e-01
  3.154892e+01    8.337704e-01
  3.156480e+01    8.552980e-01
  3.158067e+01    8.782753e-01
  3.159655e+01    8.687807e-01
  3.161242e+01    8.769324e-01
  3.162830e+01    8.933618e-01
  3.164418e+01    9.171360e-01
  3.166005e+01    9.172388e-01
  3.167593e+01    9.466865e-01
  3.169180e+01    9.666176e-01
  3.170768e+01    1.004734e+00
  3.172355e+01    1.041619e+00
  3.173943e+01    1.084235e+00
  3.175530e+01    1.163637e+00
  3.177118e+01    1.228709e+00
  3.178706e+01    1.350215e+00
  3.180293e+01    1.463378e+00
  3.181881e+01    1.572196e+00
  3.183468e+01    1.670889e+00
  3.185056e+01    1.809899e+00
  3.186643e+01    1.880344e+00
  3.188231e+01    1.986160e+00
  3.189818e+01    2.052777e+00
  3.191406e+01    2.071301e+00
  3.192994e+01    2.003090e+00
  3.194581e+01    1.930737e+00
  3.196169e+01    1.815448e+00
  3.197756e+01    1.675756e+00
  3.199344e+01    1.544093e+00
  3.200931e+01    1.435399e+00
  3.202519e+01    1.347884e+00
  3.204106e+01    1.257778e+00
  3.205694e+01    1.144350e+00
  3.207282e+01    1.124293e+00
  3.208869e+01    1.037360e+00
  3.210457e+01    9.858062e-01
  3.212044e+01    9.999399e-01
  3.213632e+01    9.556105e-01
  3.215219e+01    9.284221e-01
  3.216807e+01    8.985853e-01
  3.218394e+01    8.838080e-01
  3.219982e+01    8.649852e-01
  3.221570e+01    8.475821e-01
  3.223157e+01    8.223365e-01
  3.224745e+01    8.383905e-01
  3.226332e+01    8.095852e-01
  3.227920e+01    7.917435e-01
  3.229507e+01    7.944809e-01
  3.231095e+01    8.089722e-01
  3.232682e+01    7.996677e-01
  3.234270e+01    8.062564e-01
  3.235858e+01    7.864931e-01
  3.237445e+01    7.972751e-01
  3.239033e+01    8.093028e-01
  3.240620e+01    7.759008e-01
  3.242208e+01    7.914901e-01
  3.243795e+01    7.864701e-01
  3.245383e+01    7.649133e-01
  3.246970e+01    7.562611e-01
  3.248558e+01    7.361488e-01
  3.250146e+01    7.550360e-01
  3.251733e+01    7.635939e-01
  3.253321e+01    7.809120e-01
  3.254908e+01    7.826092e-01
