# == pyFAI calibration ==
# Distance Sample to Detector: 0.3999999939076516 m
# PONI: 9.750e-02, 1.135e-01 m
# Rotations: -0.000175 0.000000 -0.000000 rad
# 
# == Fit2d calibration ==
# Distance Sample-beamCenter: 400.000 mm
# Center: x=1514.000, y=1300.000 pix
# Tilt: 0.010 deg  TiltPlanRot: 0.010 deg
# 
# Detector Detector	 Spline= None	 PixelSize= 7.500e-05, 7.500e-05 m
#    Detector has a mask: False 
#    Detector has a dark current: False 
#    detector has a flat field: False 
# 
# Wavelength: 6.888e-11 m
# Mask applied: user provided
# Dark current applied: False
# Flat field applied: False
# Polarization factor: 0.99
# Normalization factor: 1.0
# --> /home/myspot/data/2024_07_Rosario/Ru-CGO-ex/2024-07-27_003_Ru-CGO-ex_Reaction_dwell_000023_data_000114.dat
#       q_nm^-1             I 
  2.003187e-02    0.000000e+00
  3.590745e-02    3.428878e-02
  5.178302e-02    6.857958e-02
  6.765859e-02    2.646132e-02
  8.353417e-02    1.472698e-01
  9.940974e-02    1.389836e-01
  1.152853e-01    5.033294e-02
  1.311609e-01    2.875002e-02
  1.470365e-01    1.987341e-02
  1.629120e-01    1.303297e-01
  1.787876e-01    1.316620e-01
  1.946632e-01    6.136585e-02
  2.105388e-01    4.427416e-02
  2.264143e-01    4.845158e-02
  2.422899e-01    7.358242e-03
  2.581655e-01    7.403005e-04
  2.740411e-01    2.574031e-02
  2.899166e-01    6.229166e-02
  3.057922e-01    6.801769e-02
  3.216678e-01    4.660564e-02
  3.375433e-01    4.648107e-02
  3.534189e-01    4.742360e-02
  3.692945e-01    4.498903e-02
  3.851701e-01    6.020292e-02
  4.010456e-01    3.648293e-02
  4.169212e-01    3.755275e-02
  4.327968e-01    5.478808e-02
  4.486724e-01    5.336268e-02
  4.645479e-01    4.221410e-02
  4.804235e-01    2.859392e-02
  4.962991e-01    3.296602e-02
  5.121747e-01    5.057659e-02
  5.280502e-01    6.443872e-02
  5.439258e-01    3.628518e-02
  5.598014e-01    3.632956e-02
  5.756770e-01    6.644259e-02
  5.915525e-01    4.056399e-02
  6.074281e-01    3.241957e-02
  6.233037e-01    3.146343e-02
  6.391793e-01    2.177501e-02
  6.550548e-01    2.403908e-02
  6.709304e-01    3.724669e-02
  6.868060e-01    3.894211e-02
  7.026815e-01    2.419568e-02
  7.185571e-01    2.008130e-02
  7.344327e-01    2.678533e-02
  7.503083e-01    6.028438e-02
  7.661838e-01    8.794017e-02
  7.820594e-01    1.395210e-01
  7.979350e-01    1.521696e-01
  8.138106e-01    1.786091e-01
  8.296861e-01    2.214316e-01
  8.455617e-01    3.526576e-01
  8.614373e-01    4.865189e-01
  8.773129e-01    5.222192e-01
  8.931884e-01    5.205535e-01
  9.090640e-01    6.145446e-01
  9.249396e-01    7.911637e-01
  9.408152e-01    8.138962e-01
  9.566907e-01    9.136255e-01
  9.725663e-01    9.991959e-01
  9.884419e-01    1.190277e+00
  1.004317e+00    1.199695e+00
  1.020193e+00    1.291668e+00
  1.036069e+00    1.278128e+00
  1.051944e+00    1.351508e+00
  1.067820e+00    1.503537e+00
  1.083695e+00    1.526155e+00
  1.099571e+00    1.575620e+00
  1.115446e+00    1.639921e+00
  1.131322e+00    1.566867e+00
  1.147198e+00    1.615586e+00
  1.163073e+00    1.607829e+00
  1.178949e+00    1.639978e+00
  1.194824e+00    1.762295e+00
  1.210700e+00    2.087689e+00
  1.226575e+00    2.353186e+00
  1.242451e+00    2.325310e+00
  1.258327e+00    2.408497e+00
  1.274202e+00    2.551315e+00
  1.290078e+00    2.716932e+00
  1.305953e+00    2.670083e+00
  1.321829e+00    2.827315e+00
  1.337705e+00    2.798767e+00
  1.353580e+00    2.809131e+00
  1.369456e+00    2.669943e+00
  1.385331e+00    2.825436e+00
  1.401207e+00    2.901081e+00
  1.417082e+00    2.904582e+00
  1.432958e+00    2.867738e+00
  1.448834e+00    2.843647e+00
  1.464709e+00    3.029788e+00
  1.480585e+00    3.054575e+00
  1.496460e+00    3.112931e+00
  1.512336e+00    3.091460e+00
  1.528211e+00    3.118552e+00
  1.544087e+00    3.214022e+00
  1.559963e+00    3.139147e+00
  1.575838e+00    3.176592e+00
  1.591714e+00    3.116162e+00
  1.607589e+00    3.089407e+00
  1.623465e+00    3.055671e+00
  1.639340e+00    3.113383e+00
  1.655216e+00    3.070233e+00
  1.671092e+00    2.960165e+00
  1.686967e+00    3.132821e+00
  1.702843e+00    3.060310e+00
  1.718718e+00    3.069276e+00
  1.734594e+00    3.135395e+00
  1.750469e+00    3.006631e+00
  1.766345e+00    3.014716e+00
  1.782221e+00    3.149347e+00
  1.798096e+00    3.034444e+00
  1.813972e+00    2.913049e+00
  1.829847e+00    3.083705e+00
  1.845723e+00    3.163856e+00
  1.861598e+00    3.163178e+00
  1.877474e+00    3.159551e+00
  1.893350e+00    3.119943e+00
  1.909225e+00    3.022316e+00
  1.925101e+00    2.991769e+00
  1.940976e+00    3.023983e+00
  1.956852e+00    3.113670e+00
  1.972727e+00    3.100140e+00
  1.988603e+00    3.165196e+00
  2.004479e+00    3.054124e+00
  2.020354e+00    3.029415e+00
  2.036230e+00    3.102601e+00
  2.052105e+00    3.112656e+00
  2.067981e+00    3.087423e+00
  2.083856e+00    3.025758e+00
  2.099732e+00    3.075539e+00
  2.115608e+00    3.047463e+00
  2.131483e+00    3.040300e+00
  2.147359e+00    3.208045e+00
  2.163234e+00    3.107691e+00
  2.179110e+00    3.075325e+00
  2.194985e+00    3.095439e+00
  2.210861e+00    3.161272e+00
  2.226737e+00    3.279134e+00
  2.242612e+00    3.184074e+00
  2.258488e+00    3.191577e+00
  2.274363e+00    3.177003e+00
  2.290239e+00    3.177844e+00
  2.306115e+00    3.147239e+00
  2.321990e+00    3.148166e+00
  2.337866e+00    3.139670e+00
  2.353741e+00    3.140628e+00
  2.369617e+00    3.131264e+00
  2.385492e+00    3.155800e+00
  2.401368e+00    3.201703e+00
  2.417244e+00    3.233038e+00
  2.433119e+00    3.240336e+00
  2.448995e+00    3.235606e+00
  2.464870e+00    3.289967e+00
  2.480746e+00    3.233169e+00
  2.496621e+00    3.248524e+00
  2.512497e+00    3.153302e+00
  2.528373e+00    3.102381e+00
  2.544248e+00    3.229525e+00
  2.560124e+00    3.203473e+00
  2.575999e+00    3.133241e+00
  2.591875e+00    3.014936e+00
  2.607750e+00    3.213522e+00
  2.623626e+00    3.310494e+00
  2.639502e+00    3.208595e+00
  2.655377e+00    3.107942e+00
  2.671253e+00    3.296994e+00
  2.687128e+00    3.280342e+00
  2.703004e+00    3.265458e+00
  2.718879e+00    3.257217e+00
  2.734755e+00    3.363297e+00
  2.750631e+00    3.368645e+00
  2.766506e+00    3.332540e+00
  2.782382e+00    3.284481e+00
  2.798257e+00    3.296696e+00
  2.814133e+00    3.262544e+00
  2.830008e+00    3.310384e+00
  2.845884e+00    3.324751e+00
  2.861760e+00    3.292744e+00
  2.877635e+00    3.286990e+00
  2.893511e+00    3.272650e+00
  2.909386e+00    3.304680e+00
  2.925262e+00    3.302659e+00
  2.941137e+00    3.273875e+00
  2.957013e+00    3.340955e+00
  2.972889e+00    3.418289e+00
  2.988764e+00    3.417237e+00
  3.004640e+00    3.233323e+00
  3.020515e+00    3.170824e+00
  3.036391e+00    3.306775e+00
  3.052266e+00    3.383013e+00
  3.068142e+00    3.341744e+00
  3.084018e+00    3.343959e+00
  3.099893e+00    3.314349e+00
  3.115769e+00    3.305891e+00
  3.131644e+00    3.465585e+00
  3.147520e+00    3.466046e+00
  3.163395e+00    3.307492e+00
  3.179271e+00    3.314164e+00
  3.195147e+00    3.390023e+00
  3.211022e+00    3.456504e+00
  3.226898e+00    3.465232e+00
  3.242773e+00    3.292936e+00
  3.258649e+00    3.350985e+00
  3.274525e+00    3.475312e+00
  3.290400e+00    3.437338e+00
  3.306276e+00    3.500467e+00
  3.322151e+00    3.441694e+00
  3.338027e+00    3.396338e+00
  3.353902e+00    3.449367e+00
  3.369778e+00    3.369887e+00
  3.385654e+00    3.384114e+00
  3.401529e+00    3.472802e+00
  3.417405e+00    3.504166e+00
  3.433280e+00    3.475831e+00
  3.449156e+00    3.455575e+00
  3.465031e+00    3.405368e+00
  3.480907e+00    3.400460e+00
  3.496783e+00    3.347950e+00
  3.512658e+00    3.389603e+00
  3.528534e+00    3.510004e+00
  3.544409e+00    3.508092e+00
  3.560285e+00    3.473891e+00
  3.576160e+00    3.443196e+00
  3.592036e+00    3.453904e+00
  3.607912e+00    3.404402e+00
  3.623787e+00    3.463474e+00
  3.639663e+00    3.494880e+00
  3.655538e+00    3.476588e+00
  3.671414e+00    3.484278e+00
  3.687289e+00    3.454126e+00
  3.703165e+00    3.465549e+00
  3.719041e+00    3.492275e+00
  3.734916e+00    3.439539e+00
  3.750792e+00    3.413691e+00
  3.766667e+00    3.391402e+00
  3.782543e+00    3.416643e+00
  3.798418e+00    3.518465e+00
  3.814294e+00    3.503915e+00
  3.830170e+00    3.520761e+00
  3.846045e+00    3.478506e+00
  3.861921e+00    3.506770e+00
  3.877796e+00    3.541897e+00
  3.893672e+00    3.545301e+00
  3.909547e+00    3.603570e+00
  3.925423e+00    3.521384e+00
  3.941299e+00    3.572940e+00
  3.957174e+00    3.619799e+00
  3.973050e+00    3.518170e+00
  3.988925e+00    3.491287e+00
  4.004801e+00    3.421683e+00
  4.020676e+00    3.508845e+00
  4.036552e+00    3.596197e+00
  4.052428e+00    3.555791e+00
  4.068303e+00    3.531766e+00
  4.084179e+00    3.552136e+00
  4.100054e+00    3.578846e+00
  4.115930e+00    3.636096e+00
  4.131806e+00    3.548677e+00
  4.147681e+00    3.538950e+00
  4.163557e+00    3.469754e+00
  4.179432e+00    3.503446e+00
  4.195308e+00    3.579524e+00
  4.211183e+00    3.700967e+00
  4.227059e+00    3.743052e+00
  4.242935e+00    3.697005e+00
  4.258810e+00    3.555329e+00
  4.274686e+00    3.567011e+00
  4.290561e+00    3.533179e+00
  4.306437e+00    3.552176e+00
  4.322312e+00    3.611436e+00
  4.338188e+00    3.481935e+00
  4.354064e+00    3.467825e+00
  4.369939e+00    3.532442e+00
  4.385815e+00    3.505211e+00
  4.401690e+00    3.627122e+00
  4.417566e+00    3.630247e+00
  4.433441e+00    3.576700e+00
  4.449317e+00    3.535631e+00
  4.465193e+00    3.608934e+00
  4.481068e+00    3.682252e+00
  4.496944e+00    3.639383e+00
  4.512819e+00    3.555988e+00
  4.528695e+00    3.549032e+00
  4.544570e+00    3.547198e+00
  4.560446e+00    3.632065e+00
  4.576322e+00    3.603883e+00
  4.592197e+00    3.560474e+00
  4.608073e+00    3.590934e+00
  4.623948e+00    3.638571e+00
  4.639824e+00    3.623873e+00
  4.655699e+00    3.652082e+00
  4.671575e+00    3.631788e+00
  4.687451e+00    3.624660e+00
  4.703326e+00    3.606157e+00
  4.719202e+00    3.647750e+00
  4.735077e+00    3.629532e+00
  4.750953e+00    3.663279e+00
  4.766828e+00    3.652358e+00
  4.782704e+00    3.617224e+00
  4.798580e+00    3.544949e+00
  4.814455e+00    3.622089e+00
  4.830331e+00    3.565903e+00
  4.846206e+00    3.532698e+00
  4.862082e+00    3.603094e+00
  4.877957e+00    3.648506e+00
  4.893833e+00    3.650335e+00
  4.909709e+00    3.682480e+00
  4.925584e+00    3.590297e+00
  4.941460e+00    3.631834e+00
  4.957335e+00    3.514824e+00
  4.973211e+00    3.617614e+00
  4.989086e+00    3.697026e+00
  5.004962e+00    3.747719e+00
  5.020838e+00    3.662311e+00
  5.036713e+00    3.664144e+00
  5.052589e+00    3.645678e+00
  5.068464e+00    3.727221e+00
  5.084340e+00    3.690021e+00
  5.100216e+00    3.690354e+00
  5.116091e+00    3.690233e+00
  5.131967e+00    3.707257e+00
  5.147842e+00    3.727909e+00
  5.163718e+00    3.704630e+00
  5.179593e+00    3.702543e+00
  5.195469e+00    3.701785e+00
  5.211345e+00    3.692219e+00
  5.227220e+00    3.707927e+00
  5.243096e+00    3.659608e+00
  5.258971e+00    3.689570e+00
  5.274847e+00    3.715189e+00
  5.290722e+00    3.666231e+00
  5.306598e+00    3.727627e+00
  5.322474e+00    3.746275e+00
  5.338349e+00    3.704315e+00
  5.354225e+00    3.609626e+00
  5.370100e+00    3.645389e+00
  5.385976e+00    3.618922e+00
  5.401851e+00    3.611233e+00
  5.417727e+00    3.636090e+00
  5.433603e+00    3.642662e+00
  5.449478e+00    3.553623e+00
  5.465354e+00    3.594983e+00
  5.481229e+00    3.612517e+00
  5.497105e+00    3.618468e+00
  5.512980e+00    3.611163e+00
  5.528856e+00    3.614619e+00
  5.544732e+00    3.538054e+00
  5.560607e+00    3.606970e+00
  5.576483e+00    3.615319e+00
  5.592358e+00    3.595077e+00
  5.608234e+00    3.579211e+00
  5.624109e+00    3.577209e+00
  5.639985e+00    3.623762e+00
  5.655861e+00    3.598423e+00
  5.671736e+00    3.594937e+00
  5.687612e+00    3.538339e+00
  5.703487e+00    3.553631e+00
  5.719363e+00    3.565106e+00
  5.735238e+00    3.590384e+00
  5.751114e+00    3.663223e+00
  5.766990e+00    3.632522e+00
  5.782865e+00    3.546556e+00
  5.798741e+00    3.596712e+00
  5.814616e+00    3.542566e+00
  5.830492e+00    3.391912e+00
  5.846367e+00    3.457096e+00
  5.862243e+00    3.670500e+00
  5.878119e+00    3.600915e+00
  5.893994e+00    3.557405e+00
  5.909870e+00    3.600297e+00
  5.925745e+00    3.536663e+00
  5.941621e+00    3.533343e+00
  5.957497e+00    3.650017e+00
  5.973372e+00    3.658841e+00
  5.989248e+00    3.613898e+00
  6.005123e+00    3.619069e+00
  6.020999e+00    3.548263e+00
  6.036874e+00    3.565190e+00
  6.052750e+00    3.575711e+00
  6.068626e+00    3.592343e+00
  6.084501e+00    3.594423e+00
  6.100377e+00    3.643462e+00
  6.116252e+00    3.689956e+00
  6.132128e+00    3.633477e+00
  6.148003e+00    3.624444e+00
  6.163879e+00    3.598881e+00
  6.179755e+00    3.658949e+00
  6.195630e+00    3.686990e+00
  6.211506e+00    3.620416e+00
  6.227381e+00    3.543728e+00
  6.243257e+00    3.584596e+00
  6.259132e+00    3.579362e+00
  6.275008e+00    3.607911e+00
  6.290884e+00    3.585663e+00
  6.306759e+00    3.512310e+00
  6.322635e+00    3.556640e+00
  6.338510e+00    3.600809e+00
  6.354386e+00    3.641079e+00
  6.370261e+00    3.581017e+00
  6.386137e+00    3.516222e+00
  6.402013e+00    3.571950e+00
  6.417888e+00    3.643405e+00
  6.433764e+00    3.618623e+00
  6.449639e+00    3.573417e+00
  6.465515e+00    3.578247e+00
  6.481390e+00    3.577564e+00
  6.497266e+00    3.596668e+00
  6.513142e+00    3.562285e+00
  6.529017e+00    3.570375e+00
  6.544893e+00    3.487173e+00
  6.560768e+00    3.490217e+00
  6.576644e+00    3.523753e+00
  6.592519e+00    3.563467e+00
  6.608395e+00    3.547535e+00
  6.624271e+00    3.604471e+00
  6.640146e+00    3.587306e+00
  6.656022e+00    3.612112e+00
  6.671897e+00    3.614568e+00
  6.687773e+00    3.546590e+00
  6.703648e+00    3.548304e+00
  6.719524e+00    3.537064e+00
  6.735400e+00    3.566631e+00
  6.751275e+00    3.560613e+00
  6.767151e+00    3.530267e+00
  6.783026e+00    3.515612e+00
  6.798902e+00    3.481369e+00
  6.814777e+00    3.547892e+00
  6.830653e+00    3.551567e+00
  6.846529e+00    3.558765e+00
  6.862404e+00    3.506788e+00
  6.878280e+00    3.623287e+00
  6.894155e+00    3.548344e+00
  6.910031e+00    3.480346e+00
  6.925907e+00    3.459192e+00
  6.941782e+00    3.474747e+00
  6.957658e+00    3.551446e+00
  6.973533e+00    3.536767e+00
  6.989409e+00    3.538295e+00
  7.005284e+00    3.589617e+00
  7.021160e+00    3.566874e+00
  7.037036e+00    3.531615e+00
  7.052911e+00    3.491246e+00
  7.068787e+00    3.507518e+00
  7.084662e+00    3.561005e+00
  7.100538e+00    3.545097e+00
  7.116413e+00    3.507937e+00
  7.132289e+00    3.522199e+00
  7.148165e+00    3.531052e+00
  7.164040e+00    3.522458e+00
  7.179916e+00    3.506640e+00
  7.195791e+00    3.474598e+00
  7.211667e+00    3.456003e+00
  7.227542e+00    3.425643e+00
  7.243418e+00    3.503527e+00
  7.259294e+00    3.508572e+00
  7.275169e+00    3.547629e+00
  7.291045e+00    3.543401e+00
  7.306920e+00    3.500629e+00
  7.322796e+00    3.499413e+00
  7.338671e+00    3.495540e+00
  7.354547e+00    3.427618e+00
  7.370423e+00    3.427845e+00
  7.386298e+00    3.482070e+00
  7.402174e+00    3.510988e+00
  7.418049e+00    3.451853e+00
  7.433925e+00    3.503876e+00
  7.449800e+00    3.427843e+00
  7.465676e+00    3.471590e+00
  7.481552e+00    3.499450e+00
  7.497427e+00    3.411340e+00
  7.513303e+00    3.484681e+00
  7.529178e+00    3.460818e+00
  7.545054e+00    3.468364e+00
  7.560929e+00    3.475262e+00
  7.576805e+00    3.459732e+00
  7.592681e+00    3.438511e+00
  7.608556e+00    3.440386e+00
  7.624432e+00    3.429085e+00
  7.640307e+00    3.473703e+00
  7.656183e+00    3.544511e+00
  7.672058e+00    3.525773e+00
  7.687934e+00    3.416796e+00
  7.703810e+00    3.444623e+00
  7.719685e+00    3.426197e+00
  7.735561e+00    3.462057e+00
  7.751436e+00    3.527813e+00
  7.767312e+00    3.506471e+00
  7.783187e+00    3.475247e+00
  7.799063e+00    3.416529e+00
  7.814939e+00    3.461894e+00
  7.830814e+00    3.462872e+00
  7.846690e+00    3.460281e+00
  7.862565e+00    3.406373e+00
  7.878441e+00    3.438667e+00
  7.894317e+00    3.388103e+00
  7.910192e+00    3.448076e+00
  7.926068e+00    3.433794e+00
  7.941943e+00    3.456235e+00
  7.957819e+00    3.468076e+00
  7.973694e+00    3.408061e+00
  7.989570e+00    3.450696e+00
  8.005446e+00    3.374206e+00
  8.021321e+00    3.377185e+00
  8.037197e+00    3.501226e+00
  8.053072e+00    3.450150e+00
  8.068948e+00    3.451746e+00
  8.084823e+00    3.472167e+00
  8.100699e+00    3.490814e+00
  8.116575e+00    3.461828e+00
  8.132450e+00    3.471190e+00
  8.148326e+00    3.435716e+00
  8.164201e+00    3.469945e+00
  8.180077e+00    3.479600e+00
  8.195952e+00    3.503458e+00
  8.211828e+00    3.496042e+00
  8.227704e+00    3.502008e+00
  8.243579e+00    3.475744e+00
  8.259455e+00    3.413264e+00
  8.275330e+00    3.394779e+00
  8.291206e+00    3.459611e+00
  8.307081e+00    3.386242e+00
  8.322957e+00    3.364259e+00
  8.338833e+00    3.327435e+00
  8.354708e+00    3.321808e+00
  8.370584e+00    3.440514e+00
  8.386459e+00    3.475165e+00
  8.402335e+00    3.430763e+00
  8.418210e+00    3.395342e+00
  8.434086e+00    3.371195e+00
  8.449962e+00    3.407147e+00
  8.465837e+00    3.402735e+00
  8.481713e+00    3.360164e+00
  8.497588e+00    3.418532e+00
  8.513464e+00    3.419276e+00
  8.529339e+00    3.356530e+00
  8.545215e+00    3.328111e+00
  8.561091e+00    3.352064e+00
  8.576966e+00    3.352060e+00
  8.592842e+00    3.321157e+00
  8.608717e+00    3.388607e+00
  8.624593e+00    3.409597e+00
  8.640468e+00    3.339092e+00
  8.656344e+00    3.296845e+00
  8.672220e+00    3.300154e+00
  8.688095e+00    3.331353e+00
  8.703971e+00    3.357255e+00
  8.719846e+00    3.388502e+00
  8.735722e+00    3.415071e+00
  8.751598e+00    3.319097e+00
  8.767473e+00    3.275411e+00
  8.783349e+00    3.307235e+00
  8.799224e+00    3.290156e+00
  8.815100e+00    3.309951e+00
  8.830975e+00    3.331949e+00
  8.846851e+00    3.362606e+00
  8.862727e+00    3.360517e+00
  8.878602e+00    3.296708e+00
  8.894478e+00    3.288684e+00
  8.910353e+00    3.262156e+00
  8.926229e+00    3.322377e+00
  8.942104e+00    3.319489e+00
  8.957980e+00    3.328904e+00
  8.973856e+00    3.350961e+00
  8.989731e+00    3.312769e+00
  9.005607e+00    3.265453e+00
  9.021482e+00    3.299090e+00
  9.037358e+00    3.331599e+00
  9.053233e+00    3.284954e+00
  9.069109e+00    3.284170e+00
  9.084985e+00    3.347028e+00
  9.100860e+00    3.339795e+00
  9.116736e+00    3.292776e+00
  9.132611e+00    3.279940e+00
  9.148487e+00    3.304044e+00
  9.164362e+00    3.291921e+00
  9.180238e+00    3.273175e+00
  9.196114e+00    3.246581e+00
  9.211989e+00    3.221635e+00
  9.227865e+00    3.259195e+00
  9.243740e+00    3.208254e+00
  9.259616e+00    3.230221e+00
  9.275491e+00    3.281543e+00
  9.291367e+00    3.207609e+00
  9.307243e+00    3.203164e+00
  9.323118e+00    3.349260e+00
  9.338994e+00    3.325701e+00
  9.354869e+00    3.213012e+00
  9.370745e+00    3.208716e+00
  9.386620e+00    3.257439e+00
  9.402496e+00    3.225426e+00
  9.418372e+00    3.183630e+00
  9.434247e+00    3.270739e+00
  9.450123e+00    3.271948e+00
  9.465998e+00    3.160124e+00
  9.481874e+00    3.236299e+00
  9.497749e+00    3.274742e+00
  9.513625e+00    3.291298e+00
  9.529501e+00    3.221491e+00
  9.545376e+00    3.192040e+00
  9.561252e+00    3.231451e+00
  9.577127e+00    3.247149e+00
  9.593003e+00    3.168476e+00
  9.608878e+00    3.200614e+00
  9.624754e+00    3.245054e+00
  9.640630e+00    3.238410e+00
  9.656505e+00    3.244631e+00
  9.672381e+00    3.185345e+00
  9.688256e+00    3.172400e+00
  9.704132e+00    3.141973e+00
  9.720008e+00    3.224840e+00
  9.735883e+00    3.298167e+00
  9.751759e+00    3.218402e+00
  9.767634e+00    3.206039e+00
  9.783510e+00    3.147988e+00
  9.799385e+00    3.186959e+00
  9.815261e+00    3.179798e+00
  9.831137e+00    3.218554e+00
  9.847012e+00    3.160312e+00
  9.862888e+00    3.115206e+00
  9.878763e+00    3.111006e+00
  9.894639e+00    3.097438e+00
  9.910514e+00    3.100612e+00
  9.926390e+00    3.139004e+00
  9.942266e+00    3.184632e+00
  9.958141e+00    3.157227e+00
  9.974017e+00    3.090264e+00
  9.989892e+00    3.106853e+00
  1.000577e+01    3.168518e+00
  1.002164e+01    3.127258e+00
  1.003752e+01    3.114883e+00
  1.005339e+01    3.100899e+00
  1.006927e+01    3.090729e+00
  1.008515e+01    3.089560e+00
  1.010102e+01    3.097738e+00
  1.011690e+01    3.083312e+00
  1.013277e+01    3.099594e+00
  1.014865e+01    3.095934e+00
  1.016452e+01    3.094234e+00
  1.018040e+01    3.119611e+00
  1.019627e+01    3.068761e+00
  1.021215e+01    3.076552e+00
  1.022803e+01    3.074781e+00
  1.024390e+01    3.049519e+00
  1.025978e+01    3.099742e+00
  1.027565e+01    3.101410e+00
  1.029153e+01    3.043360e+00
  1.030740e+01    3.069590e+00
  1.032328e+01    3.053504e+00
  1.033915e+01    2.999994e+00
  1.035503e+01    3.054835e+00
  1.037091e+01    3.035192e+00
  1.038678e+01    2.998612e+00
  1.040266e+01    3.028368e+00
  1.041853e+01    2.997145e+00
  1.043441e+01    2.944627e+00
  1.045028e+01    2.958904e+00
  1.046616e+01    2.950760e+00
  1.048204e+01    2.969026e+00
  1.049791e+01    3.005118e+00
  1.051379e+01    3.047999e+00
  1.052966e+01    3.047682e+00
  1.054554e+01    2.989098e+00
  1.056141e+01    2.985462e+00
  1.057729e+01    3.003966e+00
  1.059316e+01    2.998612e+00
  1.060904e+01    2.997866e+00
  1.062492e+01    2.987069e+00
  1.064079e+01    2.964730e+00
  1.065667e+01    2.998692e+00
  1.067254e+01    3.002745e+00
  1.068842e+01    2.986223e+00
  1.070429e+01    2.990985e+00
  1.072017e+01    3.021659e+00
  1.073604e+01    3.014325e+00
  1.075192e+01    3.034238e+00
  1.076780e+01    2.978317e+00
  1.078367e+01    2.923456e+00
  1.079955e+01    2.906790e+00
  1.081542e+01    2.951665e+00
  1.083130e+01    2.942435e+00
  1.084717e+01    2.936672e+00
  1.086305e+01    2.960923e+00
  1.087892e+01    2.994458e+00
  1.089480e+01    3.013577e+00
  1.091068e+01    2.979949e+00
  1.092655e+01    2.936913e+00
  1.094243e+01    2.910234e+00
  1.095830e+01    2.900438e+00
  1.097418e+01    2.938047e+00
  1.099005e+01    2.925103e+00
  1.100593e+01    2.920798e+00
  1.102180e+01    2.950117e+00
  1.103768e+01    2.887814e+00
  1.105356e+01    2.823703e+00
  1.106943e+01    2.873224e+00
  1.108531e+01    2.893171e+00
  1.110118e+01    2.919227e+00
  1.111706e+01    2.903790e+00
  1.113293e+01    2.889392e+00
  1.114881e+01    2.938449e+00
  1.116468e+01    2.905257e+00
  1.118056e+01    2.871614e+00
  1.119644e+01    2.885997e+00
  1.121231e+01    2.892403e+00
  1.122819e+01    2.823697e+00
  1.124406e+01    2.880971e+00
  1.125994e+01    2.871537e+00
  1.127581e+01    2.852864e+00
  1.129169e+01    2.834956e+00
  1.130756e+01    2.813450e+00
  1.132344e+01    2.795561e+00
  1.133932e+01    2.823223e+00
  1.135519e+01    2.830670e+00
  1.137107e+01    2.810301e+00
  1.138694e+01    2.828712e+00
  1.140282e+01    2.851579e+00
  1.141869e+01    2.805807e+00
  1.143457e+01    2.832139e+00
  1.145045e+01    2.808584e+00
  1.146632e+01    2.785420e+00
  1.148220e+01    2.823806e+00
  1.149807e+01    2.817785e+00
  1.151395e+01    2.791335e+00
  1.152982e+01    2.806645e+00
  1.154570e+01    2.838061e+00
  1.156157e+01    2.793675e+00
  1.157745e+01    2.759930e+00
  1.159333e+01    2.791186e+00
  1.160920e+01    2.768890e+00
  1.162508e+01    2.717950e+00
  1.164095e+01    2.759713e+00
  1.165683e+01    2.773000e+00
  1.167270e+01    2.750023e+00
  1.168858e+01    2.826362e+00
  1.170445e+01    2.800086e+00
  1.172033e+01    2.777417e+00
  1.173621e+01    2.793453e+00
  1.175208e+01    2.744200e+00
  1.176796e+01    2.774534e+00
  1.178383e+01    2.744428e+00
  1.179971e+01    2.719301e+00
  1.181558e+01    2.658480e+00
  1.183146e+01    2.720555e+00
  1.184733e+01    2.764392e+00
  1.186321e+01    2.733422e+00
  1.187909e+01    2.688577e+00
  1.189496e+01    2.758851e+00
  1.191084e+01    2.755727e+00
  1.192671e+01    2.683281e+00
  1.194259e+01    2.718485e+00
  1.195846e+01    2.762491e+00
  1.197434e+01    2.747033e+00
  1.199021e+01    2.687717e+00
  1.200609e+01    2.727713e+00
  1.202197e+01    2.685240e+00
  1.203784e+01    2.698497e+00
  1.205372e+01    2.709267e+00
  1.206959e+01    2.729637e+00
  1.208547e+01    2.689360e+00
  1.210134e+01    2.698279e+00
  1.211722e+01    2.688633e+00
  1.213309e+01    2.655345e+00
  1.214897e+01    2.681070e+00
  1.216485e+01    2.745648e+00
  1.218072e+01    2.719009e+00
  1.219660e+01    2.700226e+00
  1.221247e+01    2.660170e+00
  1.222835e+01    2.694065e+00
  1.224422e+01    2.689518e+00
  1.226010e+01    2.674768e+00
  1.227597e+01    2.694222e+00
  1.229185e+01    2.728511e+00
  1.230773e+01    2.704689e+00
  1.232360e+01    2.656277e+00
  1.233948e+01    2.688240e+00
  1.235535e+01    2.691645e+00
  1.237123e+01    2.716694e+00
  1.238710e+01    2.719315e+00
  1.240298e+01    2.719743e+00
  1.241886e+01    2.768020e+00
  1.243473e+01    2.714197e+00
  1.245061e+01    2.706327e+00
  1.246648e+01    2.700175e+00
  1.248236e+01    2.673834e+00
  1.249823e+01    2.691398e+00
  1.251411e+01    2.731515e+00
  1.252998e+01    2.711772e+00
  1.254586e+01    2.724582e+00
  1.256174e+01    2.758288e+00
  1.257761e+01    2.801223e+00
  1.259349e+01    2.788806e+00
  1.260936e+01    2.774382e+00
  1.262524e+01    2.747030e+00
  1.264111e+01    2.728179e+00
  1.265699e+01    2.766039e+00
  1.267286e+01    2.829274e+00
  1.268874e+01    2.782956e+00
  1.270462e+01    2.812333e+00
  1.272049e+01    2.862095e+00
  1.273637e+01    2.901048e+00
  1.275224e+01    2.922035e+00
  1.276812e+01    2.937479e+00
  1.278399e+01    2.921214e+00
  1.279987e+01    2.930343e+00
  1.281574e+01    3.007794e+00
  1.283162e+01    3.103445e+00
  1.284750e+01    3.159831e+00
  1.286337e+01    3.263931e+00
  1.287925e+01    3.363343e+00
  1.289512e+01    3.533041e+00
  1.291100e+01    3.712192e+00
  1.292687e+01    3.848379e+00
  1.294275e+01    4.097463e+00
  1.295862e+01    4.464779e+00
  1.297450e+01    4.808610e+00
  1.299038e+01    5.355459e+00
  1.300625e+01    5.975215e+00
  1.302213e+01    6.717059e+00
  1.303800e+01    7.712929e+00
  1.305388e+01    8.860916e+00
  1.306975e+01    1.023590e+01
  1.308563e+01    1.149382e+01
  1.310150e+01    1.267673e+01
  1.311738e+01    1.377952e+01
  1.313326e+01    1.487620e+01
  1.314913e+01    1.576360e+01
  1.316501e+01    1.637092e+01
  1.318088e+01    1.637346e+01
  1.319676e+01    1.568593e+01
  1.321263e+01    1.435305e+01
  1.322851e+01    1.250533e+01
  1.324438e+01    1.072808e+01
  1.326026e+01    9.148230e+00
  1.327614e+01    7.830901e+00
  1.329201e+01    6.776983e+00
  1.330789e+01    5.942678e+00
  1.332376e+01    5.388767e+00
  1.333964e+01    4.871469e+00
  1.335551e+01    4.458680e+00
  1.337139e+01    4.170194e+00
  1.338727e+01    3.831692e+00
  1.340314e+01    3.674967e+00
  1.341902e+01    3.475214e+00
  1.343489e+01    3.346393e+00
  1.345077e+01    3.252040e+00
  1.346664e+01    3.128689e+00
  1.348252e+01    3.047552e+00
  1.349839e+01    2.992223e+00
  1.351427e+01    2.953679e+00
  1.353015e+01    2.883928e+00
  1.354602e+01    2.807763e+00
  1.356190e+01    2.753370e+00
  1.357777e+01    2.719558e+00
  1.359365e+01    2.718127e+00
  1.360952e+01    2.667343e+00
  1.362540e+01    2.663850e+00
  1.364127e+01    2.644383e+00
  1.365715e+01    2.625340e+00
  1.367303e+01    2.586482e+00
  1.368890e+01    2.584859e+00
  1.370478e+01    2.579310e+00
  1.372065e+01    2.512636e+00
  1.373653e+01    2.562725e+00
  1.375240e+01    2.524247e+00
  1.376828e+01    2.516459e+00
  1.378415e+01    2.467843e+00
  1.380003e+01    2.435385e+00
  1.381591e+01    2.446831e+00
  1.383178e+01    2.464299e+00
  1.384766e+01    2.439827e+00
  1.386353e+01    2.456940e+00
  1.387941e+01    2.430976e+00
  1.389528e+01    2.428452e+00
  1.391116e+01    2.372474e+00
  1.392703e+01    2.397430e+00
  1.394291e+01    2.420600e+00
  1.395879e+01    2.383892e+00
  1.397466e+01    2.369896e+00
  1.399054e+01    2.361686e+00
  1.400641e+01    2.337766e+00
  1.402229e+01    2.378971e+00
  1.403816e+01    2.357287e+00
  1.405404e+01    2.375718e+00
  1.406991e+01    2.322334e+00
  1.408579e+01    2.328549e+00
  1.410167e+01    2.341625e+00
  1.411754e+01    2.335605e+00
  1.413342e+01    2.294003e+00
  1.414929e+01    2.338529e+00
  1.416517e+01    2.335195e+00
  1.418104e+01    2.311350e+00
  1.419692e+01    2.344246e+00
  1.421279e+01    2.315135e+00
  1.422867e+01    2.282509e+00
  1.424455e+01    2.314031e+00
  1.426042e+01    2.302463e+00
  1.427630e+01    2.270028e+00
  1.429217e+01    2.258728e+00
  1.430805e+01    2.263564e+00
  1.432392e+01    2.260290e+00
  1.433980e+01    2.294814e+00
  1.435568e+01    2.291813e+00
  1.437155e+01    2.273028e+00
  1.438743e+01    2.254964e+00
  1.440330e+01    2.242363e+00
  1.441918e+01    2.260529e+00
  1.443505e+01    2.261916e+00
  1.445093e+01    2.224933e+00
  1.446680e+01    2.216023e+00
  1.448268e+01    2.217113e+00
  1.449856e+01    2.217972e+00
  1.451443e+01    2.204021e+00
  1.453031e+01    2.187401e+00
  1.454618e+01    2.207045e+00
  1.456206e+01    2.244682e+00
  1.457793e+01    2.239364e+00
  1.459381e+01    2.222085e+00
  1.460968e+01    2.230787e+00
  1.462556e+01    2.267025e+00
  1.464144e+01    2.232739e+00
  1.465731e+01    2.219419e+00
  1.467319e+01    2.231307e+00
  1.468906e+01    2.218726e+00
  1.470494e+01    2.254817e+00
  1.472081e+01    2.220379e+00
  1.473669e+01    2.171056e+00
  1.475256e+01    2.190493e+00
  1.476844e+01    2.213137e+00
  1.478432e+01    2.176158e+00
  1.480019e+01    2.201607e+00
  1.481607e+01    2.203289e+00
  1.483194e+01    2.242938e+00
  1.484782e+01    2.262824e+00
  1.486369e+01    2.255270e+00
  1.487957e+01    2.244161e+00
  1.489544e+01    2.213334e+00
  1.491132e+01    2.249166e+00
  1.492720e+01    2.272278e+00
  1.494307e+01    2.338414e+00
  1.495895e+01    2.332961e+00
  1.497482e+01    2.351851e+00
  1.499070e+01    2.379820e+00
  1.500657e+01    2.429337e+00
  1.502245e+01    2.495450e+00
  1.503832e+01    2.556788e+00
  1.505420e+01    2.667714e+00
  1.507008e+01    2.831610e+00
  1.508595e+01    2.972712e+00
  1.510183e+01    3.197673e+00
  1.511770e+01    3.453024e+00
  1.513358e+01    3.770369e+00
  1.514945e+01    4.189792e+00
  1.516533e+01    4.590390e+00
  1.518120e+01    4.877212e+00
  1.519708e+01    5.205716e+00
  1.521296e+01    5.488128e+00
  1.522883e+01    5.636569e+00
  1.524471e+01    5.725745e+00
  1.526058e+01    5.784032e+00
  1.527646e+01    5.745496e+00
  1.529233e+01    5.498121e+00
  1.530821e+01    5.121071e+00
  1.532409e+01    4.711878e+00
  1.533996e+01    4.172158e+00
  1.535584e+01    3.787874e+00
  1.537171e+01    3.475881e+00
  1.538759e+01    3.153716e+00
  1.540346e+01    2.875196e+00
  1.541934e+01    2.789073e+00
  1.543521e+01    2.665280e+00
  1.545109e+01    2.525296e+00
  1.546697e+01    2.470895e+00
  1.548284e+01    2.435487e+00
  1.549872e+01    2.363734e+00
  1.551459e+01    2.273528e+00
  1.553047e+01    2.226593e+00
  1.554634e+01    2.216009e+00
  1.556222e+01    2.136909e+00
  1.557809e+01    2.084718e+00
  1.559397e+01    2.133410e+00
  1.560985e+01    2.091826e+00
  1.562572e+01    2.043159e+00
  1.564160e+01    2.041274e+00
  1.565747e+01    2.060491e+00
  1.567335e+01    2.034350e+00
  1.568922e+01    1.994621e+00
  1.570510e+01    1.979293e+00
  1.572097e+01    1.989178e+00
  1.573685e+01    1.954682e+00
  1.575273e+01    1.917774e+00
  1.576860e+01    1.938837e+00
  1.578448e+01    1.950310e+00
  1.580035e+01    1.952916e+00
  1.581623e+01    1.941166e+00
  1.583210e+01    1.936653e+00
  1.584798e+01    1.941157e+00
  1.586385e+01    1.945142e+00
  1.587973e+01    1.918980e+00
  1.589561e+01    1.903473e+00
  1.591148e+01    1.901880e+00
  1.592736e+01    1.910592e+00
  1.594323e+01    1.853120e+00
  1.595911e+01    1.862707e+00
  1.597498e+01    1.867732e+00
  1.599086e+01    1.882053e+00
  1.600673e+01    1.866946e+00
  1.602261e+01    1.882646e+00
  1.603849e+01    1.866638e+00
  1.605436e+01    1.864856e+00
  1.607024e+01    1.896863e+00
  1.608611e+01    1.866932e+00
  1.610199e+01    1.842877e+00
  1.611786e+01    1.857769e+00
  1.613374e+01    1.859266e+00
  1.614961e+01    1.831126e+00
  1.616549e+01    1.841559e+00
  1.618137e+01    1.850311e+00
  1.619724e+01    1.820971e+00
  1.621312e+01    1.807485e+00
  1.622899e+01    1.818206e+00
  1.624487e+01    1.815330e+00
  1.626074e+01    1.817872e+00
  1.627662e+01    1.840821e+00
  1.629250e+01    1.804360e+00
  1.630837e+01    1.796222e+00
  1.632425e+01    1.798414e+00
  1.634012e+01    1.805873e+00
  1.635600e+01    1.774709e+00
  1.637187e+01    1.770403e+00
  1.638775e+01    1.793748e+00
  1.640362e+01    1.769675e+00
  1.641950e+01    1.798838e+00
  1.643538e+01    1.789703e+00
  1.645125e+01    1.775353e+00
  1.646713e+01    1.739541e+00
  1.648300e+01    1.751706e+00
  1.649888e+01    1.738908e+00
  1.651475e+01    1.744750e+00
  1.653063e+01    1.756160e+00
  1.654650e+01    1.750671e+00
  1.656238e+01    1.745498e+00
  1.657826e+01    1.753712e+00
  1.659413e+01    1.739869e+00
  1.661001e+01    1.741829e+00
  1.662588e+01    1.758847e+00
  1.664176e+01    1.762210e+00
  1.665763e+01    1.714737e+00
  1.667351e+01    1.720448e+00
  1.668938e+01    1.719783e+00
  1.670526e+01    1.691652e+00
  1.672114e+01    1.715656e+00
  1.673701e+01    1.699420e+00
  1.675289e+01    1.709921e+00
  1.676876e+01    1.728162e+00
  1.678464e+01    1.704553e+00
  1.680051e+01    1.703162e+00
  1.681639e+01    1.694547e+00
  1.683226e+01    1.678235e+00
  1.684814e+01    1.700074e+00
  1.686402e+01    1.708108e+00
  1.687989e+01    1.678348e+00
  1.689577e+01    1.686119e+00
  1.691164e+01    1.696038e+00
  1.692752e+01    1.655123e+00
  1.694339e+01    1.680904e+00
  1.695927e+01    1.717822e+00
  1.697514e+01    1.698842e+00
  1.699102e+01    1.690831e+00
  1.700690e+01    1.675851e+00
  1.702277e+01    1.671318e+00
  1.703865e+01    1.651434e+00
  1.705452e+01    1.641542e+00
  1.707040e+01    1.628256e+00
  1.708627e+01    1.661775e+00
  1.710215e+01    1.665480e+00
  1.711802e+01    1.645442e+00
  1.713390e+01    1.643008e+00
  1.714978e+01    1.641718e+00
  1.716565e+01    1.630714e+00
  1.718153e+01    1.641945e+00
  1.719740e+01    1.664421e+00
  1.721328e+01    1.649232e+00
  1.722915e+01    1.619321e+00
  1.724503e+01    1.612647e+00
  1.726091e+01    1.644285e+00
  1.727678e+01    1.651724e+00
  1.729266e+01    1.639307e+00
  1.730853e+01    1.615386e+00
  1.732441e+01    1.608126e+00
  1.734028e+01    1.582632e+00
  1.735616e+01    1.578024e+00
  1.737203e+01    1.603539e+00
  1.738791e+01    1.585309e+00
  1.740379e+01    1.574361e+00
  1.741966e+01    1.620303e+00
  1.743554e+01    1.603544e+00
  1.745141e+01    1.606192e+00
  1.746729e+01    1.627626e+00
  1.748316e+01    1.636214e+00
  1.749904e+01    1.599630e+00
  1.751491e+01    1.574669e+00
  1.753079e+01    1.584898e+00
  1.754667e+01    1.588305e+00
  1.756254e+01    1.581101e+00
  1.757842e+01    1.556874e+00
  1.759429e+01    1.571307e+00
  1.761017e+01    1.584564e+00
  1.762604e+01    1.579942e+00
  1.764192e+01    1.558839e+00
  1.765779e+01    1.531266e+00
  1.767367e+01    1.534231e+00
  1.768955e+01    1.592999e+00
  1.770542e+01    1.573660e+00
  1.772130e+01    1.563507e+00
  1.773717e+01    1.554518e+00
  1.775305e+01    1.536279e+00
  1.776892e+01    1.524867e+00
  1.778480e+01    1.549186e+00
  1.780067e+01    1.536165e+00
  1.781655e+01    1.532835e+00
  1.783243e+01    1.548727e+00
  1.784830e+01    1.530605e+00
  1.786418e+01    1.563740e+00
  1.788005e+01    1.542811e+00
  1.789593e+01    1.523595e+00
  1.791180e+01    1.537090e+00
  1.792768e+01    1.524626e+00
  1.794355e+01    1.522037e+00
  1.795943e+01    1.525108e+00
  1.797531e+01    1.505093e+00
  1.799118e+01    1.527989e+00
  1.800706e+01    1.498513e+00
  1.802293e+01    1.500162e+00
  1.803881e+01    1.496581e+00
  1.805468e+01    1.529231e+00
  1.807056e+01    1.523646e+00
  1.808643e+01    1.486524e+00
  1.810231e+01    1.497035e+00
  1.811819e+01    1.490004e+00
  1.813406e+01    1.508281e+00
  1.814994e+01    1.503654e+00
  1.816581e+01    1.497557e+00
  1.818169e+01    1.498779e+00
  1.819756e+01    1.492493e+00
  1.821344e+01    1.502520e+00
  1.822932e+01    1.516930e+00
  1.824519e+01    1.488668e+00
  1.826107e+01    1.506462e+00
  1.827694e+01    1.482469e+00
  1.829282e+01    1.491967e+00
  1.830869e+01    1.471459e+00
  1.832457e+01    1.486421e+00
  1.834044e+01    1.459223e+00
  1.835632e+01    1.459052e+00
  1.837220e+01    1.462298e+00
  1.838807e+01    1.462816e+00
  1.840395e+01    1.450644e+00
  1.841982e+01    1.453994e+00
  1.843570e+01    1.450523e+00
  1.845157e+01    1.465020e+00
  1.846745e+01    1.451920e+00
  1.848332e+01    1.445629e+00
  1.849920e+01    1.463784e+00
  1.851508e+01    1.452777e+00
  1.853095e+01    1.437223e+00
  1.854683e+01    1.439030e+00
  1.856270e+01    1.430477e+00
  1.857858e+01    1.422742e+00
  1.859445e+01    1.446799e+00
  1.861033e+01    1.450325e+00
  1.862620e+01    1.449913e+00
  1.864208e+01    1.438777e+00
  1.865796e+01    1.421879e+00
  1.867383e+01    1.437905e+00
  1.868971e+01    1.432923e+00
  1.870558e+01    1.399905e+00
  1.872146e+01    1.405091e+00
  1.873733e+01    1.400138e+00
  1.875321e+01    1.424734e+00
  1.876908e+01    1.438468e+00
  1.878496e+01    1.408724e+00
  1.880084e+01    1.393317e+00
  1.881671e+01    1.411898e+00
  1.883259e+01    1.430012e+00
  1.884846e+01    1.385051e+00
  1.886434e+01    1.365795e+00
  1.888021e+01    1.368626e+00
  1.889609e+01    1.412225e+00
  1.891196e+01    1.419744e+00
  1.892784e+01    1.395097e+00
  1.894372e+01    1.399010e+00
  1.895959e+01    1.394315e+00
  1.897547e+01    1.388203e+00
  1.899134e+01    1.391978e+00
  1.900722e+01    1.414819e+00
  1.902309e+01    1.410574e+00
  1.903897e+01    1.383638e+00
  1.905484e+01    1.367292e+00
  1.907072e+01    1.373479e+00
  1.908660e+01    1.384823e+00
  1.910247e+01    1.398134e+00
  1.911835e+01    1.361292e+00
  1.913422e+01    1.358073e+00
  1.915010e+01    1.384521e+00
  1.916597e+01    1.366421e+00
  1.918185e+01    1.351884e+00
  1.919773e+01    1.335215e+00
  1.921360e+01    1.345328e+00
  1.922948e+01    1.368085e+00
  1.924535e+01    1.380866e+00
  1.926123e+01    1.364694e+00
  1.927710e+01    1.358298e+00
  1.929298e+01    1.347280e+00
  1.930885e+01    1.348955e+00
  1.932473e+01    1.342191e+00
  1.934061e+01    1.330607e+00
  1.935648e+01    1.339561e+00
  1.937236e+01    1.350990e+00
  1.938823e+01    1.338605e+00
  1.940411e+01    1.342709e+00
  1.941998e+01    1.356433e+00
  1.943586e+01    1.352590e+00
  1.945173e+01    1.315699e+00
  1.946761e+01    1.337043e+00
  1.948349e+01    1.337095e+00
  1.949936e+01    1.355709e+00
  1.951524e+01    1.332746e+00
  1.953111e+01    1.319219e+00
  1.954699e+01    1.323150e+00
  1.956286e+01    1.333660e+00
  1.957874e+01    1.361869e+00
  1.959461e+01    1.334826e+00
  1.961049e+01    1.339688e+00
  1.962637e+01    1.321057e+00
  1.964224e+01    1.327165e+00
  1.965812e+01    1.330931e+00
  1.967399e+01    1.326527e+00
  1.968987e+01    1.311662e+00
  1.970574e+01    1.305027e+00
  1.972162e+01    1.312717e+00
  1.973749e+01    1.300930e+00
  1.975337e+01    1.328201e+00
  1.976925e+01    1.300082e+00
  1.978512e+01    1.279340e+00
  1.980100e+01    1.296738e+00
  1.981687e+01    1.287256e+00
  1.983275e+01    1.301720e+00
  1.984862e+01    1.297169e+00
  1.986450e+01    1.310419e+00
  1.988037e+01    1.275395e+00
  1.989625e+01    1.286651e+00
  1.991213e+01    1.298092e+00
  1.992800e+01    1.264664e+00
  1.994388e+01    1.282616e+00
  1.995975e+01    1.283754e+00
  1.997563e+01    1.268557e+00
  1.999150e+01    1.297259e+00
  2.000738e+01    1.303381e+00
  2.002325e+01    1.269659e+00
  2.003913e+01    1.291463e+00
  2.005501e+01    1.288109e+00
  2.007088e+01    1.266317e+00
  2.008676e+01    1.274497e+00
  2.010263e+01    1.267952e+00
  2.011851e+01    1.267429e+00
  2.013438e+01    1.267946e+00
  2.015026e+01    1.286127e+00
  2.016614e+01    1.274929e+00
  2.018201e+01    1.281696e+00
  2.019789e+01    1.267930e+00
  2.021376e+01    1.281867e+00
  2.022964e+01    1.263397e+00
  2.024551e+01    1.260180e+00
  2.026139e+01    1.266496e+00
  2.027726e+01    1.267998e+00
  2.029314e+01    1.265722e+00
  2.030902e+01    1.265501e+00
  2.032489e+01    1.259081e+00
  2.034077e+01    1.244170e+00
  2.035664e+01    1.251626e+00
  2.037252e+01    1.270848e+00
  2.038839e+01    1.268949e+00
  2.040427e+01    1.265497e+00
  2.042014e+01    1.246596e+00
  2.043602e+01    1.235167e+00
  2.045190e+01    1.214640e+00
  2.046777e+01    1.230931e+00
  2.048365e+01    1.225013e+00
  2.049952e+01    1.254143e+00
  2.051540e+01    1.249893e+00
  2.053127e+01    1.245046e+00
  2.054715e+01    1.259800e+00
  2.056302e+01    1.251879e+00
  2.057890e+01    1.228930e+00
  2.059478e+01    1.216522e+00
  2.061065e+01    1.218637e+00
  2.062653e+01    1.218276e+00
  2.064240e+01    1.225965e+00
  2.065828e+01    1.245614e+00
  2.067415e+01    1.253977e+00
  2.069003e+01    1.209717e+00
  2.070590e+01    1.237029e+00
  2.072178e+01    1.226284e+00
  2.073766e+01    1.189286e+00
  2.075353e+01    1.242669e+00
  2.076941e+01    1.257595e+00
  2.078528e+01    1.225327e+00
  2.080116e+01    1.224285e+00
  2.081703e+01    1.219190e+00
  2.083291e+01    1.240236e+00
  2.084878e+01    1.226620e+00
  2.086466e+01    1.232178e+00
  2.088054e+01    1.229364e+00
  2.089641e+01    1.240489e+00
  2.091229e+01    1.242363e+00
  2.092816e+01    1.232956e+00
  2.094404e+01    1.223951e+00
  2.095991e+01    1.201661e+00
  2.097579e+01    1.238810e+00
  2.099166e+01    1.232406e+00
  2.100754e+01    1.237470e+00
  2.102342e+01    1.229047e+00
  2.103929e+01    1.195848e+00
  2.105517e+01    1.221393e+00
  2.107104e+01    1.209192e+00
  2.108692e+01    1.201086e+00
  2.110279e+01    1.219041e+00
  2.111867e+01    1.226401e+00
  2.113455e+01    1.223181e+00
  2.115042e+01    1.204128e+00
  2.116630e+01    1.229931e+00
  2.118217e+01    1.223662e+00
  2.119805e+01    1.195743e+00
  2.121392e+01    1.210433e+00
  2.122980e+01    1.231897e+00
  2.124567e+01    1.254354e+00
  2.126155e+01    1.269741e+00
  2.127743e+01    1.245375e+00
  2.129330e+01    1.264566e+00
  2.130918e+01    1.273937e+00
  2.132505e+01    1.280237e+00
  2.134093e+01    1.259181e+00
  2.135680e+01    1.268893e+00
  2.137268e+01    1.272269e+00
  2.138855e+01    1.295332e+00
  2.140443e+01    1.312079e+00
  2.142031e+01    1.304213e+00
  2.143618e+01    1.322063e+00
  2.145206e+01    1.388047e+00
  2.146793e+01    1.398072e+00
  2.148381e+01    1.404965e+00
  2.149968e+01    1.406857e+00
  2.151556e+01    1.441502e+00
  2.153143e+01    1.476369e+00
  2.154731e+01    1.526479e+00
  2.156319e+01    1.560334e+00
  2.157906e+01    1.621808e+00
  2.159494e+01    1.675527e+00
  2.161081e+01    1.772133e+00
  2.162669e+01    1.871664e+00
  2.164256e+01    1.947606e+00
  2.165844e+01    2.092512e+00
  2.167431e+01    2.301171e+00
  2.169019e+01    2.495339e+00
  2.170607e+01    2.755143e+00
  2.172194e+01    3.120476e+00
  2.173782e+01    3.519932e+00
  2.175369e+01    4.068234e+00
  2.176957e+01    4.573005e+00
  2.178544e+01    5.138776e+00
  2.180132e+01    5.892735e+00
  2.181719e+01    6.567276e+00
  2.183307e+01    7.160285e+00
  2.184895e+01    7.851374e+00
  2.186482e+01    8.355842e+00
  2.188070e+01    8.791809e+00
  2.189657e+01    8.997305e+00
  2.191245e+01    8.789742e+00
  2.192832e+01    8.317564e+00
  2.194420e+01    7.526337e+00
  2.196007e+01    6.616411e+00
  2.197595e+01    5.675959e+00
  2.199183e+01    4.866781e+00
  2.200770e+01    4.165768e+00
  2.202358e+01    3.635178e+00
  2.203945e+01    3.203843e+00
  2.205533e+01    2.836460e+00
  2.207120e+01    2.533706e+00
  2.208708e+01    2.290287e+00
  2.210296e+01    2.163536e+00
  2.211883e+01    2.009820e+00
  2.213471e+01    1.849807e+00
  2.215058e+01    1.729170e+00
  2.216646e+01    1.673414e+00
  2.218233e+01    1.621412e+00
  2.219821e+01    1.556832e+00
  2.221408e+01    1.510922e+00
  2.222996e+01    1.468518e+00
  2.224584e+01    1.395314e+00
  2.226171e+01    1.380870e+00
  2.227759e+01    1.354110e+00
  2.229346e+01    1.319460e+00
  2.230934e+01    1.313833e+00
  2.232521e+01    1.294680e+00
  2.234109e+01    1.239239e+00
  2.235696e+01    1.249881e+00
  2.237284e+01    1.233581e+00
  2.238872e+01    1.212810e+00
  2.240459e+01    1.210652e+00
  2.242047e+01    1.218727e+00
  2.243634e+01    1.213014e+00
  2.245222e+01    1.199945e+00
  2.246809e+01    1.162743e+00
  2.248397e+01    1.149874e+00
  2.249984e+01    1.103689e+00
  2.251572e+01    1.117367e+00
  2.253160e+01    1.125176e+00
  2.254747e+01    1.136842e+00
  2.256335e+01    1.145563e+00
  2.257922e+01    1.153706e+00
  2.259510e+01    1.096536e+00
  2.261097e+01    1.098351e+00
  2.262685e+01    1.109805e+00
  2.264272e+01    1.098164e+00
  2.265860e+01    1.079162e+00
  2.267448e+01    1.085827e+00
  2.269035e+01    1.095229e+00
  2.270623e+01    1.094600e+00
  2.272210e+01    1.083856e+00
  2.273798e+01    1.046982e+00
  2.275385e+01    1.051135e+00
  2.276973e+01    1.034294e+00
  2.278560e+01    1.037568e+00
  2.280148e+01    1.075800e+00
  2.281736e+01    1.093624e+00
  2.283323e+01    1.065838e+00
  2.284911e+01    1.064050e+00
  2.286498e+01    1.063466e+00
  2.288086e+01    1.049880e+00
  2.289673e+01    1.051345e+00
  2.291261e+01    1.052483e+00
  2.292848e+01    1.035510e+00
  2.294436e+01    1.012676e+00
  2.296024e+01    1.017942e+00
  2.297611e+01    1.025086e+00
  2.299199e+01    1.018998e+00
  2.300786e+01    1.023269e+00
  2.302374e+01    1.024284e+00
  2.303961e+01    1.032476e+00
  2.305549e+01    1.022282e+00
  2.307137e+01    1.014844e+00
  2.308724e+01    1.006343e+00
  2.310312e+01    1.022647e+00
  2.311899e+01    1.011757e+00
  2.313487e+01    1.015064e+00
  2.315074e+01    1.005622e+00
  2.316662e+01    9.849479e-01
  2.318249e+01    9.973878e-01
  2.319837e+01    1.000242e+00
  2.321425e+01    9.979995e-01
  2.323012e+01    9.847361e-01
  2.324600e+01    1.011208e+00
  2.326187e+01    9.893112e-01
  2.327775e+01    9.656554e-01
  2.329362e+01    9.614088e-01
  2.330950e+01    9.782454e-01
  2.332537e+01    9.823605e-01
  2.334125e+01    9.825462e-01
  2.335713e+01    9.620415e-01
  2.337300e+01    9.675692e-01
  2.338888e+01    9.868608e-01
  2.340475e+01    9.754496e-01
  2.342063e+01    9.870232e-01
  2.343650e+01    9.799145e-01
  2.345238e+01    9.888913e-01
  2.346825e+01    9.667224e-01
  2.348413e+01    9.675056e-01
  2.350001e+01    9.474719e-01
  2.351588e+01    9.631870e-01
  2.353176e+01    9.540807e-01
  2.354763e+01    9.718544e-01
  2.356351e+01    9.266559e-01
  2.357938e+01    9.426725e-01
  2.359526e+01    9.808641e-01
  2.361113e+01    9.715775e-01
  2.362701e+01    9.505089e-01
  2.364289e+01    9.681681e-01
  2.365876e+01    9.521977e-01
  2.367464e+01    9.501319e-01
  2.369051e+01    9.432767e-01
  2.370639e+01    9.256536e-01
  2.372226e+01    9.303946e-01
  2.373814e+01    9.301363e-01
  2.375401e+01    9.263600e-01
  2.376989e+01    9.216994e-01
  2.378577e+01    9.248284e-01
  2.380164e+01    9.291245e-01
  2.381752e+01    9.316997e-01
  2.383339e+01    9.197190e-01
  2.384927e+01    9.498063e-01
  2.386514e+01    9.102573e-01
  2.388102e+01    9.032019e-01
  2.389689e+01    9.313837e-01
  2.391277e+01    9.349302e-01
  2.392865e+01    9.138851e-01
  2.394452e+01    9.073884e-01
  2.396040e+01    9.099030e-01
  2.397627e+01    9.041830e-01
  2.399215e+01    9.215285e-01
  2.400802e+01    9.005800e-01
  2.402390e+01    8.958910e-01
  2.403978e+01    9.057938e-01
  2.405565e+01    8.967473e-01
  2.407153e+01    9.034055e-01
  2.408740e+01    8.910700e-01
  2.410328e+01    8.823960e-01
  2.411915e+01    8.922854e-01
  2.413503e+01    9.017634e-01
  2.415090e+01    8.977472e-01
  2.416678e+01    9.009850e-01
  2.418266e+01    9.052139e-01
  2.419853e+01    8.956904e-01
  2.421441e+01    8.559840e-01
  2.423028e+01    8.733508e-01
  2.424616e+01    8.921866e-01
  2.426203e+01    9.011102e-01
  2.427791e+01    8.864172e-01
  2.429378e+01    8.718079e-01
  2.430966e+01    8.926039e-01
  2.432554e+01    8.818284e-01
  2.434141e+01    8.972025e-01
  2.435729e+01    9.061512e-01
  2.437316e+01    9.046121e-01
  2.438904e+01    9.003769e-01
  2.440491e+01    8.959939e-01
  2.442079e+01    8.866725e-01
  2.443666e+01    8.843375e-01
  2.445254e+01    8.832183e-01
  2.446842e+01    9.045653e-01
  2.448429e+01    8.976040e-01
  2.450017e+01    9.097962e-01
  2.451604e+01    8.928992e-01
  2.453192e+01    8.976759e-01
  2.454779e+01    9.048382e-01
  2.456367e+01    8.951514e-01
  2.457954e+01    8.919278e-01
  2.459542e+01    8.853531e-01
  2.461130e+01    9.080755e-01
  2.462717e+01    8.989845e-01
  2.464305e+01    9.051154e-01
  2.465892e+01    8.927054e-01
  2.467480e+01    9.001305e-01
  2.469067e+01    9.082658e-01
  2.470655e+01    9.125743e-01
  2.472242e+01    8.903170e-01
  2.473830e+01    8.921732e-01
  2.475418e+01    8.908197e-01
  2.477005e+01    8.915508e-01
  2.478593e+01    8.976442e-01
  2.480180e+01    8.931209e-01
  2.481768e+01    9.156092e-01
  2.483355e+01    8.836184e-01
  2.484943e+01    8.664739e-01
  2.486530e+01    8.990808e-01
  2.488118e+01    9.143336e-01
  2.489706e+01    8.937691e-01
  2.491293e+01    8.754353e-01
  2.492881e+01    8.791218e-01
  2.494468e+01    8.938096e-01
  2.496056e+01    9.056053e-01
  2.497643e+01    9.092789e-01
  2.499231e+01    9.023693e-01
  2.500819e+01    8.993133e-01
  2.502406e+01    8.993623e-01
  2.503994e+01    8.995552e-01
  2.505581e+01    8.950602e-01
  2.507169e+01    8.947482e-01
  2.508756e+01    9.091707e-01
  2.510344e+01    9.303569e-01
  2.511931e+01    9.263331e-01
  2.513519e+01    9.302089e-01
  2.515107e+01    9.263192e-01
  2.516694e+01    9.114212e-01
  2.518282e+01    9.086746e-01
  2.519869e+01    9.264033e-01
  2.521457e+01    9.179465e-01
  2.523044e+01    9.386469e-01
  2.524632e+01    9.447609e-01
  2.526219e+01    9.200535e-01
  2.527807e+01    9.360762e-01
  2.529395e+01    9.438117e-01
  2.530982e+01    9.489186e-01
  2.532570e+01    9.566560e-01
  2.534157e+01    9.911715e-01
  2.535745e+01    9.779599e-01
  2.537332e+01    9.633352e-01
  2.538920e+01    9.877539e-01
  2.540507e+01    1.002979e+00
  2.542095e+01    1.026000e+00
  2.543683e+01    1.023407e+00
  2.545270e+01    1.052800e+00
  2.546858e+01    1.049635e+00
  2.548445e+01    1.041592e+00
  2.550033e+01    1.040684e+00
  2.551620e+01    1.074018e+00
  2.553208e+01    1.096231e+00
  2.554795e+01    1.111240e+00
  2.556383e+01    1.128920e+00
  2.557971e+01    1.161551e+00
  2.559558e+01    1.186196e+00
  2.561146e+01    1.251165e+00
  2.562733e+01    1.255349e+00
  2.564321e+01    1.284456e+00
  2.565908e+01    1.335854e+00
  2.567496e+01    1.429129e+00
  2.569083e+01    1.519230e+00
  2.570671e+01    1.609489e+00
  2.572259e+01    1.730418e+00
  2.573846e+01    1.879091e+00
  2.575434e+01    2.024017e+00
  2.577021e+01    2.245733e+00
  2.578609e+01    2.530850e+00
  2.580196e+01    2.801244e+00
  2.581784e+01    3.193152e+00
  2.583371e+01    3.653531e+00
  2.584959e+01    4.198684e+00
  2.586547e+01    4.705205e+00
  2.588134e+01    5.269635e+00
  2.589722e+01    5.856201e+00
  2.591309e+01    6.360230e+00
  2.592897e+01    6.813753e+00
  2.594484e+01    7.094717e+00
  2.596072e+01    7.162981e+00
  2.597660e+01    7.006305e+00
  2.599247e+01    6.623835e+00
  2.600835e+01    6.010553e+00
  2.602422e+01    5.293272e+00
  2.604010e+01    4.566492e+00
  2.605597e+01    3.940206e+00
  2.607185e+01    3.461073e+00
  2.608772e+01    3.027629e+00
  2.610360e+01    2.695839e+00
  2.611948e+01    2.377617e+00
  2.613535e+01    2.150978e+00
  2.615123e+01    1.953879e+00
  2.616710e+01    1.807031e+00
  2.618298e+01    1.670552e+00
  2.619885e+01    1.567431e+00
  2.621473e+01    1.489834e+00
  2.623060e+01    1.401962e+00
  2.624648e+01    1.319456e+00
  2.626236e+01    1.296679e+00
  2.627823e+01    1.244998e+00
  2.629411e+01    1.200822e+00
  2.630998e+01    1.156806e+00
  2.632586e+01    1.167118e+00
  2.634173e+01    1.124767e+00
  2.635761e+01    1.101914e+00
  2.637348e+01    1.107816e+00
  2.638936e+01    1.085842e+00
  2.640524e+01    1.053149e+00
  2.642111e+01    1.030630e+00
  2.643699e+01    1.027222e+00
  2.645286e+01    1.049200e+00
  2.646874e+01    1.051329e+00
  2.648461e+01    1.015196e+00
  2.650049e+01    1.021015e+00
  2.651636e+01    1.026438e+00
  2.653224e+01    1.014986e+00
  2.654812e+01    1.003857e+00
  2.656399e+01    1.002246e+00
  2.657987e+01    1.007167e+00
  2.659574e+01    1.002539e+00
  2.661162e+01    9.838958e-01
  2.662749e+01    9.838279e-01
  2.664337e+01    9.742449e-01
  2.665924e+01    9.647043e-01
  2.667512e+01    9.822319e-01
  2.669100e+01    9.924088e-01
  2.670687e+01    9.783931e-01
  2.672275e+01    9.779966e-01
  2.673862e+01    9.725968e-01
  2.675450e+01    9.832779e-01
  2.677037e+01    9.644146e-01
  2.678625e+01    9.770690e-01
  2.680212e+01    9.817777e-01
  2.681800e+01    9.567869e-01
  2.683388e+01    9.751979e-01
  2.684975e+01    9.971952e-01
  2.686563e+01    1.003694e+00
  2.688150e+01    9.941801e-01
  2.689738e+01    9.943404e-01
  2.691325e+01    9.696643e-01
  2.692913e+01    1.005963e+00
  2.694501e+01    9.949794e-01
  2.696088e+01    1.037712e+00
  2.697676e+01    1.060355e+00
  2.699263e+01    1.082492e+00
  2.700851e+01    1.108234e+00
  2.702438e+01    1.135730e+00
  2.704026e+01    1.173130e+00
  2.705613e+01    1.239460e+00
  2.707201e+01    1.334409e+00
  2.708789e+01    1.427611e+00
  2.710376e+01    1.501821e+00
  2.711964e+01    1.611762e+00
  2.713551e+01    1.709399e+00
  2.715139e+01    1.847460e+00
  2.716726e+01    1.986400e+00
  2.718314e+01    2.096445e+00
  2.719901e+01    2.150870e+00
  2.721489e+01    2.159437e+00
  2.723077e+01    2.151016e+00
  2.724664e+01    2.067296e+00
  2.726252e+01    1.967400e+00
  2.727839e+01    1.839232e+00
  2.729427e+01    1.679674e+00
  2.731014e+01    1.569872e+00
  2.732602e+01    1.462173e+00
  2.734189e+01    1.360185e+00
  2.735777e+01    1.290260e+00
  2.737365e+01    1.216803e+00
  2.738952e+01    1.148396e+00
  2.740540e+01    1.123704e+00
  2.742127e+01    1.119214e+00
  2.743715e+01    1.053656e+00
  2.745302e+01    1.026372e+00
  2.746890e+01    9.847101e-01
  2.748477e+01    9.989364e-01
  2.750065e+01    1.014058e+00
  2.751653e+01    9.747065e-01
  2.753240e+01    9.648703e-01
  2.754828e+01    9.674144e-01
  2.756415e+01    9.619237e-01
  2.758003e+01    9.402777e-01
  2.759590e+01    9.364944e-01
  2.761178e+01    9.414838e-01
  2.762765e+01    9.180262e-01
  2.764353e+01    9.209810e-01
  2.765941e+01    9.273658e-01
  2.767528e+01    9.122696e-01
  2.769116e+01    9.054776e-01
  2.770703e+01    9.078492e-01
  2.772291e+01    9.123830e-01
  2.773878e+01    9.060217e-01
  2.775466e+01    9.042689e-01
  2.777054e+01    9.192545e-01
  2.778641e+01    9.193425e-01
  2.780229e+01    8.996707e-01
  2.781816e+01    8.828418e-01
  2.783404e+01    8.845472e-01
  2.784991e+01    8.772318e-01
  2.786579e+01    8.955144e-01
  2.788166e+01    8.868468e-01
  2.789754e+01    8.640403e-01
  2.791342e+01    8.698987e-01
  2.792929e+01    8.721941e-01
  2.794517e+01    8.639951e-01
  2.796104e+01    8.915811e-01
  2.797692e+01    8.933091e-01
  2.799279e+01    8.762885e-01
  2.800867e+01    8.748004e-01
  2.802454e+01    8.724723e-01
  2.804042e+01    8.624938e-01
  2.805630e+01    8.551575e-01
  2.807217e+01    8.415230e-01
  2.808805e+01    8.514443e-01
  2.810392e+01    8.605094e-01
  2.811980e+01    8.587638e-01
  2.813567e+01    8.546280e-01
  2.815155e+01    8.694818e-01
  2.816742e+01    8.560138e-01
  2.818330e+01    8.581812e-01
  2.819918e+01    8.459005e-01
  2.821505e+01    8.320718e-01
  2.823093e+01    8.371144e-01
  2.824680e+01    8.268796e-01
  2.826268e+01    8.493975e-01
  2.827855e+01    8.671401e-01
  2.829443e+01    8.702866e-01
  2.831030e+01    8.413060e-01
  2.832618e+01    8.351309e-01
  2.834206e+01    8.493165e-01
  2.835793e+01    8.621086e-01
  2.837381e+01    8.463196e-01
  2.838968e+01    8.468584e-01
  2.840556e+01    8.456483e-01
  2.842143e+01    8.406358e-01
  2.843731e+01    8.281623e-01
  2.845318e+01    8.438406e-01
  2.846906e+01    8.402711e-01
  2.848494e+01    8.484294e-01
  2.850081e+01    8.563349e-01
  2.851669e+01    8.506975e-01
  2.853256e+01    8.351970e-01
  2.854844e+01    8.363358e-01
  2.856431e+01    8.466196e-01
  2.858019e+01    8.345344e-01
  2.859606e+01    8.376122e-01
  2.861194e+01    8.472670e-01
  2.862782e+01    8.526891e-01
  2.864369e+01    8.340957e-01
  2.865957e+01    8.387657e-01
  2.867544e+01    8.138875e-01
  2.869132e+01    8.380025e-01
  2.870719e+01    8.457000e-01
  2.872307e+01    8.524342e-01
  2.873895e+01    8.460146e-01
  2.875482e+01    8.403288e-01
  2.877070e+01    8.369834e-01
  2.878657e+01    8.232507e-01
  2.880245e+01    8.367807e-01
  2.881832e+01    8.061358e-01
  2.883420e+01    8.227164e-01
  2.885007e+01    8.328177e-01
  2.886595e+01    8.394091e-01
  2.888183e+01    8.545607e-01
  2.889770e+01    8.250749e-01
  2.891358e+01    8.214669e-01
  2.892945e+01    8.426359e-01
  2.894533e+01    8.187457e-01
  2.896120e+01    7.986206e-01
  2.897708e+01    8.001670e-01
  2.899295e+01    8.268654e-01
  2.900883e+01    8.291327e-01
  2.902471e+01    8.110235e-01
  2.904058e+01    8.217633e-01
  2.905646e+01    8.179178e-01
  2.907233e+01    8.141462e-01
  2.908821e+01    8.223800e-01
  2.910408e+01    8.194268e-01
  2.911996e+01    8.079526e-01
  2.913583e+01    8.147960e-01
  2.915171e+01    8.310166e-01
  2.916759e+01    8.001531e-01
  2.918346e+01    8.166250e-01
  2.919934e+01    8.028053e-01
  2.921521e+01    8.066309e-01
  2.923109e+01    8.254195e-01
  2.924696e+01    8.310457e-01
  2.926284e+01    8.099272e-01
  2.927871e+01    8.050082e-01
  2.929459e+01    8.206906e-01
  2.931047e+01    8.169616e-01
  2.932634e+01    7.956589e-01
  2.934222e+01    7.882529e-01
  2.935809e+01    8.044955e-01
  2.937397e+01    8.263568e-01
  2.938984e+01    8.116466e-01
  2.940572e+01    7.959473e-01
  2.942159e+01    8.152561e-01
  2.943747e+01    8.215216e-01
  2.945335e+01    8.202170e-01
  2.946922e+01    8.081729e-01
  2.948510e+01    8.146719e-01
  2.950097e+01    8.110055e-01
  2.951685e+01    7.889851e-01
  2.953272e+01    7.985662e-01
  2.954860e+01    8.111072e-01
  2.956447e+01    8.055488e-01
  2.958035e+01    8.014337e-01
  2.959623e+01    7.984438e-01
  2.961210e+01    8.019313e-01
  2.962798e+01    8.196179e-01
  2.964385e+01    8.134874e-01
  2.965973e+01    7.938218e-01
  2.967560e+01    7.833161e-01
  2.969148e+01    7.987267e-01
  2.970736e+01    7.997673e-01
  2.972323e+01    7.823734e-01
  2.973911e+01    8.056126e-01
  2.975498e+01    8.046702e-01
  2.977086e+01    8.025266e-01
  2.978673e+01    8.192422e-01
  2.980261e+01    7.871646e-01
  2.981848e+01    7.697958e-01
  2.983436e+01    8.005967e-01
  2.985024e+01    8.171914e-01
  2.986611e+01    7.983604e-01
  2.988199e+01    8.002867e-01
  2.989786e+01    7.906519e-01
  2.991374e+01    7.946892e-01
  2.992961e+01    7.986085e-01
  2.994549e+01    8.007997e-01
  2.996136e+01    8.074198e-01
  2.997724e+01    8.101023e-01
  2.999312e+01    7.989629e-01
  3.000899e+01    8.030290e-01
  3.002487e+01    8.280367e-01
  3.004074e+01    8.448672e-01
  3.005662e+01    8.216961e-01
  3.007249e+01    7.969425e-01
  3.008837e+01    7.923447e-01
  3.010424e+01    7.852103e-01
  3.012012e+01    7.985252e-01
  3.013600e+01    7.743112e-01
  3.015187e+01    7.801478e-01
  3.016775e+01    8.016494e-01
  3.018362e+01    7.792130e-01
  3.019950e+01    7.926113e-01
  3.021537e+01    7.874621e-01
  3.023125e+01    7.755473e-01
  3.024712e+01    7.998657e-01
  3.026300e+01    7.986315e-01
  3.027888e+01    7.943344e-01
  3.029475e+01    8.144644e-01
  3.031063e+01    8.035116e-01
  3.032650e+01    7.936394e-01
  3.034238e+01    8.048856e-01
  3.035825e+01    7.964336e-01
  3.037413e+01    7.829095e-01
  3.039000e+01    7.779831e-01
  3.040588e+01    7.819402e-01
  3.042176e+01    7.791004e-01
  3.043763e+01    7.831046e-01
  3.045351e+01    7.991042e-01
  3.046938e+01    7.845598e-01
  3.048526e+01    7.936164e-01
  3.050113e+01    7.954369e-01
  3.051701e+01    7.869187e-01
  3.053288e+01    7.722169e-01
  3.054876e+01    7.908278e-01
  3.056464e+01    7.926576e-01
  3.058051e+01    7.812563e-01
  3.059639e+01    7.744160e-01
  3.061226e+01    7.946130e-01
  3.062814e+01    8.002667e-01
  3.064401e+01    7.640896e-01
  3.065989e+01    7.848822e-01
  3.067577e+01    7.731941e-01
  3.069164e+01    7.596462e-01
  3.070752e+01    7.569844e-01
  3.072339e+01    7.912249e-01
  3.073927e+01    7.989875e-01
  3.075514e+01    7.901253e-01
  3.077102e+01    7.690609e-01
  3.078689e+01    7.671700e-01
  3.080277e+01    7.767197e-01
  3.081865e+01    7.745662e-01
  3.083452e+01    7.679302e-01
  3.085040e+01    7.972683e-01
  3.086627e+01    7.945531e-01
  3.088215e+01    7.874234e-01
  3.089802e+01    7.943488e-01
  3.091390e+01    7.957948e-01
  3.092977e+01    7.934198e-01
  3.094565e+01    7.892668e-01
  3.096153e+01    7.860509e-01
  3.097740e+01    7.918633e-01
  3.099328e+01    7.993115e-01
  3.100915e+01    7.736854e-01
  3.102503e+01    7.829404e-01
  3.104090e+01    7.844278e-01
  3.105678e+01    7.902924e-01
  3.107265e+01    7.852730e-01
  3.108853e+01    7.984813e-01
  3.110441e+01    7.722160e-01
  3.112028e+01    7.823663e-01
  3.113616e+01    7.849984e-01
  3.115203e+01    7.865844e-01
  3.116791e+01    7.895721e-01
  3.118378e+01    7.884514e-01
  3.119966e+01    7.851834e-01
  3.121553e+01    7.881545e-01
  3.123141e+01    7.890725e-01
  3.124729e+01    8.099353e-01
  3.126316e+01    8.072975e-01
  3.127904e+01    8.034546e-01
  3.129491e+01    7.945514e-01
  3.131079e+01    7.889534e-01
  3.132666e+01    7.919605e-01
  3.134254e+01    8.019684e-01
  3.135841e+01    7.844672e-01
  3.137429e+01    7.980354e-01
  3.139017e+01    8.064164e-01
  3.140604e+01    8.112437e-01
  3.142192e+01    8.153551e-01
  3.143779e+01    8.174649e-01
  3.145367e+01    8.321650e-01
  3.146954e+01    8.489367e-01
  3.148542e+01    8.557624e-01
  3.150129e+01    8.220817e-01
  3.151717e+01    8.289487e-01
  3.153305e+01    8.378553e-01
  3.154892e+01    8.589971e-01
  3.156480e+01    8.549680e-01
  3.158067e+01    8.710709e-01
  3.159655e+01    8.694608e-01
  3.161242e+01    9.078466e-01
  3.162830e+01    9.270396e-01
  3.164418e+01    9.454101e-01
  3.166005e+01    9.390048e-01
  3.167593e+01    9.651161e-01
  3.169180e+01    1.009413e+00
  3.170768e+01    1.042812e+00
  3.172355e+01    1.068000e+00
  3.173943e+01    1.147267e+00
  3.175530e+01    1.214789e+00
  3.177118e+01    1.281940e+00
  3.178706e+01    1.349601e+00
  3.180293e+01    1.461764e+00
  3.181881e+01    1.571377e+00
  3.183468e+01    1.705838e+00
  3.185056e+01    1.839685e+00
  3.186643e+01    1.955875e+00
  3.188231e+01    2.060855e+00
  3.189818e+01    2.078966e+00
  3.191406e+01    2.080353e+00
  3.192994e+01    2.009112e+00
  3.194581e+01    1.946107e+00
  3.196169e+01    1.867129e+00
  3.197756e+01    1.730960e+00
  3.199344e+01    1.552796e+00
  3.200931e+01    1.423645e+00
  3.202519e+01    1.335449e+00
  3.204106e+01    1.223415e+00
  3.205694e+01    1.153647e+00
  3.207282e+01    1.083762e+00
  3.208869e+01    1.033087e+00
  3.210457e+01    9.979399e-01
  3.212044e+01    9.947280e-01
  3.213632e+01    9.528539e-01
  3.215219e+01    9.070975e-01
  3.216807e+01    9.021713e-01
  3.218394e+01    8.898875e-01
  3.219982e+01    8.916071e-01
  3.221570e+01    8.765282e-01
  3.223157e+01    8.461150e-01
  3.224745e+01    8.200605e-01
  3.226332e+01    8.357098e-01
  3.227920e+01    8.279148e-01
  3.229507e+01    7.977015e-01
  3.231095e+01    8.271646e-01
  3.232682e+01    8.065451e-01
  3.234270e+01    7.881671e-01
  3.235858e+01    8.106750e-01
  3.237445e+01    8.134627e-01
  3.239033e+01    7.900018e-01
  3.240620e+01    7.807955e-01
  3.242208e+01    7.811543e-01
  3.243795e+01    7.908058e-01
  3.245383e+01    7.843189e-01
  3.246970e+01    7.695019e-01
  3.248558e+01    7.486192e-01
  3.250146e+01    7.675297e-01
  3.251733e+01    7.812386e-01
  3.253321e+01    7.995387e-01
  3.254908e+01    7.812531e-01
