# == pyFAI calibration ==
# Distance Sample to Detector: 0.3999999939076516 m
# PONI: 9.750e-02, 1.135e-01 m
# Rotations: -0.000175 0.000000 -0.000000 rad
# 
# == Fit2d calibration ==
# Distance Sample-beamCenter: 400.000 mm
# Center: x=1514.000, y=1300.000 pix
# Tilt: 0.010 deg  TiltPlanRot: 0.010 deg
# 
# Detector Detector	 Spline= None	 PixelSize= 7.500e-05, 7.500e-05 m
#    Detector has a mask: False 
#    Detector has a dark current: False 
#    detector has a flat field: False 
# 
# Wavelength: 6.888e-11 m
# Mask applied: user provided
# Dark current applied: False
# Flat field applied: False
# Polarization factor: 0.99
# Normalization factor: 1.0
# --> /home/myspot/data/2024_07_Rosario/Ru-CGO-ex/2024-07-27_003_Ru-CGO-ex_Reaction_dwell_000023_data_000108.dat
#       q_nm^-1             I 
  2.003187e-02    0.000000e+00
  3.590745e-02    7.159255e-02
  5.178302e-02    9.699578e-02
  6.765859e-02    2.558226e-01
  8.353417e-02    2.620536e-01
  9.940974e-02    7.673970e-02
  1.152853e-01    6.172609e-02
  1.311609e-01    8.746651e-02
  1.470365e-01    1.007690e-01
  1.629120e-01    5.981663e-02
  1.787876e-01    9.188897e-02
  1.946632e-01    6.528153e-02
  2.105388e-01    1.882331e-02
  2.264143e-01    3.505023e-02
  2.422899e-01    2.396108e-02
  2.581655e-01    5.166857e-02
  2.740411e-01    6.160801e-02
  2.899166e-01    6.006600e-02
  3.057922e-01    3.847788e-02
  3.216678e-01    3.114482e-02
  3.375433e-01    5.897681e-02
  3.534189e-01    3.965241e-02
  3.692945e-01    4.056340e-02
  3.851701e-01    2.311892e-02
  4.010456e-01    2.554990e-02
  4.169212e-01    4.960068e-02
  4.327968e-01    8.664817e-02
  4.486724e-01    6.044609e-02
  4.645479e-01    3.605326e-02
  4.804235e-01    2.027306e-02
  4.962991e-01    3.404940e-02
  5.121747e-01    4.778338e-02
  5.280502e-01    5.808177e-02
  5.439258e-01    3.849535e-02
  5.598014e-01    3.158879e-02
  5.756770e-01    3.881949e-02
  5.915525e-01    3.728937e-02
  6.074281e-01    2.000062e-02
  6.233037e-01    4.315224e-02
  6.391793e-01    2.398763e-02
  6.550548e-01    4.587618e-02
  6.709304e-01    4.375752e-02
  6.868060e-01    3.988443e-02
  7.026815e-01    4.533731e-02
  7.185571e-01    2.450083e-02
  7.344327e-01    2.934562e-02
  7.503083e-01    3.702046e-02
  7.661838e-01    8.070711e-02
  7.820594e-01    1.315479e-01
  7.979350e-01    1.713994e-01
  8.138106e-01    2.052235e-01
  8.296861e-01    2.357172e-01
  8.455617e-01    4.161927e-01
  8.614373e-01    4.634484e-01
  8.773129e-01    4.919429e-01
  8.931884e-01    5.442047e-01
  9.090640e-01    6.078683e-01
  9.249396e-01    8.598331e-01
  9.408152e-01    9.900854e-01
  9.566907e-01    1.033226e+00
  9.725663e-01    1.073587e+00
  9.884419e-01    1.051224e+00
  1.004317e+00    1.175081e+00
  1.020193e+00    1.269426e+00
  1.036069e+00    1.270922e+00
  1.051944e+00    1.295461e+00
  1.067820e+00    1.350350e+00
  1.083695e+00    1.496776e+00
  1.099571e+00    1.568553e+00
  1.115446e+00    1.625301e+00
  1.131322e+00    1.622405e+00
  1.147198e+00    1.702267e+00
  1.163073e+00    1.611013e+00
  1.178949e+00    1.853929e+00
  1.194824e+00    1.926901e+00
  1.210700e+00    1.907808e+00
  1.226575e+00    2.237189e+00
  1.242451e+00    2.429582e+00
  1.258327e+00    2.580935e+00
  1.274202e+00    2.541484e+00
  1.290078e+00    2.757932e+00
  1.305953e+00    2.778585e+00
  1.321829e+00    2.775980e+00
  1.337705e+00    2.680058e+00
  1.353580e+00    2.712662e+00
  1.369456e+00    2.752310e+00
  1.385331e+00    2.748307e+00
  1.401207e+00    2.946827e+00
  1.417082e+00    3.052933e+00
  1.432958e+00    2.923485e+00
  1.448834e+00    2.912349e+00
  1.464709e+00    3.160324e+00
  1.480585e+00    3.282268e+00
  1.496460e+00    3.028608e+00
  1.512336e+00    3.054549e+00
  1.528211e+00    3.263700e+00
  1.544087e+00    3.310064e+00
  1.559963e+00    3.172229e+00
  1.575838e+00    3.176940e+00
  1.591714e+00    3.219649e+00
  1.607589e+00    3.138929e+00
  1.623465e+00    3.156760e+00
  1.639340e+00    3.134549e+00
  1.655216e+00    3.131473e+00
  1.671092e+00    3.159482e+00
  1.686967e+00    3.133518e+00
  1.702843e+00    3.118361e+00
  1.718718e+00    3.149108e+00
  1.734594e+00    3.139738e+00
  1.750469e+00    3.107433e+00
  1.766345e+00    3.160050e+00
  1.782221e+00    3.069504e+00
  1.798096e+00    3.016009e+00
  1.813972e+00    3.196275e+00
  1.829847e+00    3.201443e+00
  1.845723e+00    3.028893e+00
  1.861598e+00    2.979809e+00
  1.877474e+00    2.956189e+00
  1.893350e+00    3.028721e+00
  1.909225e+00    3.092424e+00
  1.925101e+00    3.130534e+00
  1.940976e+00    3.037957e+00
  1.956852e+00    3.018765e+00
  1.972727e+00    3.019766e+00
  1.988603e+00    3.119782e+00
  2.004479e+00    3.112432e+00
  2.020354e+00    3.098652e+00
  2.036230e+00    3.133207e+00
  2.052105e+00    3.089297e+00
  2.067981e+00    3.142422e+00
  2.083856e+00    2.976983e+00
  2.099732e+00    3.149353e+00
  2.115608e+00    3.203750e+00
  2.131483e+00    3.178876e+00
  2.147359e+00    3.223269e+00
  2.163234e+00    3.253882e+00
  2.179110e+00    3.038205e+00
  2.194985e+00    3.085096e+00
  2.210861e+00    3.125799e+00
  2.226737e+00    3.135026e+00
  2.242612e+00    3.043268e+00
  2.258488e+00    3.208080e+00
  2.274363e+00    3.130544e+00
  2.290239e+00    3.045655e+00
  2.306115e+00    3.059251e+00
  2.321990e+00    3.135592e+00
  2.337866e+00    3.201467e+00
  2.353741e+00    3.117174e+00
  2.369617e+00    3.193745e+00
  2.385492e+00    3.147711e+00
  2.401368e+00    3.158586e+00
  2.417244e+00    3.235518e+00
  2.433119e+00    3.303317e+00
  2.448995e+00    3.173886e+00
  2.464870e+00    3.087118e+00
  2.480746e+00    3.170018e+00
  2.496621e+00    3.180617e+00
  2.512497e+00    3.216550e+00
  2.528373e+00    3.263614e+00
  2.544248e+00    3.255737e+00
  2.560124e+00    3.245113e+00
  2.575999e+00    3.275004e+00
  2.591875e+00    3.326968e+00
  2.607750e+00    3.239297e+00
  2.623626e+00    3.172416e+00
  2.639502e+00    3.169355e+00
  2.655377e+00    3.278224e+00
  2.671253e+00    3.438287e+00
  2.687128e+00    3.391963e+00
  2.703004e+00    3.331302e+00
  2.718879e+00    3.256123e+00
  2.734755e+00    3.320715e+00
  2.750631e+00    3.369185e+00
  2.766506e+00    3.282038e+00
  2.782382e+00    3.275506e+00
  2.798257e+00    3.293353e+00
  2.814133e+00    3.297126e+00
  2.830008e+00    3.350233e+00
  2.845884e+00    3.324090e+00
  2.861760e+00    3.270124e+00
  2.877635e+00    3.275577e+00
  2.893511e+00    3.352218e+00
  2.909386e+00    3.337707e+00
  2.925262e+00    3.174064e+00
  2.941137e+00    3.287445e+00
  2.957013e+00    3.383705e+00
  2.972889e+00    3.424080e+00
  2.988764e+00    3.346241e+00
  3.004640e+00    3.387185e+00
  3.020515e+00    3.451031e+00
  3.036391e+00    3.303765e+00
  3.052266e+00    3.160575e+00
  3.068142e+00    3.303549e+00
  3.084018e+00    3.317683e+00
  3.099893e+00    3.265210e+00
  3.115769e+00    3.259730e+00
  3.131644e+00    3.328427e+00
  3.147520e+00    3.404803e+00
  3.163395e+00    3.491135e+00
  3.179271e+00    3.458549e+00
  3.195147e+00    3.409309e+00
  3.211022e+00    3.462505e+00
  3.226898e+00    3.456676e+00
  3.242773e+00    3.437846e+00
  3.258649e+00    3.376374e+00
  3.274525e+00    3.355044e+00
  3.290400e+00    3.456820e+00
  3.306276e+00    3.451211e+00
  3.322151e+00    3.422905e+00
  3.338027e+00    3.431056e+00
  3.353902e+00    3.383015e+00
  3.369778e+00    3.390000e+00
  3.385654e+00    3.344992e+00
  3.401529e+00    3.355555e+00
  3.417405e+00    3.454055e+00
  3.433280e+00    3.389033e+00
  3.449156e+00    3.418376e+00
  3.465031e+00    3.434908e+00
  3.480907e+00    3.395901e+00
  3.496783e+00    3.448451e+00
  3.512658e+00    3.545098e+00
  3.528534e+00    3.535280e+00
  3.544409e+00    3.525644e+00
  3.560285e+00    3.513896e+00
  3.576160e+00    3.431481e+00
  3.592036e+00    3.491205e+00
  3.607912e+00    3.399764e+00
  3.623787e+00    3.361074e+00
  3.639663e+00    3.429445e+00
  3.655538e+00    3.422375e+00
  3.671414e+00    3.484958e+00
  3.687289e+00    3.478958e+00
  3.703165e+00    3.560886e+00
  3.719041e+00    3.577459e+00
  3.734916e+00    3.587605e+00
  3.750792e+00    3.529201e+00
  3.766667e+00    3.475670e+00
  3.782543e+00    3.456060e+00
  3.798418e+00    3.479099e+00
  3.814294e+00    3.489311e+00
  3.830170e+00    3.523585e+00
  3.846045e+00    3.568804e+00
  3.861921e+00    3.509555e+00
  3.877796e+00    3.500059e+00
  3.893672e+00    3.497778e+00
  3.909547e+00    3.492048e+00
  3.925423e+00    3.450832e+00
  3.941299e+00    3.520484e+00
  3.957174e+00    3.457926e+00
  3.973050e+00    3.510955e+00
  3.988925e+00    3.643795e+00
  4.004801e+00    3.514318e+00
  4.020676e+00    3.443529e+00
  4.036552e+00    3.481087e+00
  4.052428e+00    3.555343e+00
  4.068303e+00    3.571524e+00
  4.084179e+00    3.440002e+00
  4.100054e+00    3.554529e+00
  4.115930e+00    3.590679e+00
  4.131806e+00    3.552652e+00
  4.147681e+00    3.501322e+00
  4.163557e+00    3.597499e+00
  4.179432e+00    3.610618e+00
  4.195308e+00    3.574741e+00
  4.211183e+00    3.587259e+00
  4.227059e+00    3.590719e+00
  4.242935e+00    3.551119e+00
  4.258810e+00    3.457382e+00
  4.274686e+00    3.547079e+00
  4.290561e+00    3.637076e+00
  4.306437e+00    3.673649e+00
  4.322312e+00    3.664310e+00
  4.338188e+00    3.573035e+00
  4.354064e+00    3.594110e+00
  4.369939e+00    3.564968e+00
  4.385815e+00    3.492967e+00
  4.401690e+00    3.514194e+00
  4.417566e+00    3.615598e+00
  4.433441e+00    3.559447e+00
  4.449317e+00    3.568508e+00
  4.465193e+00    3.559820e+00
  4.481068e+00    3.520070e+00
  4.496944e+00    3.577325e+00
  4.512819e+00    3.595518e+00
  4.528695e+00    3.594829e+00
  4.544570e+00    3.663551e+00
  4.560446e+00    3.760596e+00
  4.576322e+00    3.646743e+00
  4.592197e+00    3.683148e+00
  4.608073e+00    3.636317e+00
  4.623948e+00    3.659057e+00
  4.639824e+00    3.580837e+00
  4.655699e+00    3.582238e+00
  4.671575e+00    3.633473e+00
  4.687451e+00    3.696627e+00
  4.703326e+00    3.597498e+00
  4.719202e+00    3.611001e+00
  4.735077e+00    3.648985e+00
  4.750953e+00    3.644002e+00
  4.766828e+00    3.634345e+00
  4.782704e+00    3.641807e+00
  4.798580e+00    3.639212e+00
  4.814455e+00    3.649305e+00
  4.830331e+00    3.699772e+00
  4.846206e+00    3.688051e+00
  4.862082e+00    3.619174e+00
  4.877957e+00    3.630105e+00
  4.893833e+00    3.606764e+00
  4.909709e+00    3.564752e+00
  4.925584e+00    3.600404e+00
  4.941460e+00    3.649817e+00
  4.957335e+00    3.663117e+00
  4.973211e+00    3.657589e+00
  4.989086e+00    3.639374e+00
  5.004962e+00    3.596827e+00
  5.020838e+00    3.581010e+00
  5.036713e+00    3.723363e+00
  5.052589e+00    3.619117e+00
  5.068464e+00    3.650741e+00
  5.084340e+00    3.745406e+00
  5.100216e+00    3.749142e+00
  5.116091e+00    3.659505e+00
  5.131967e+00    3.617644e+00
  5.147842e+00    3.666178e+00
  5.163718e+00    3.714653e+00
  5.179593e+00    3.747866e+00
  5.195469e+00    3.737813e+00
  5.211345e+00    3.682422e+00
  5.227220e+00    3.659926e+00
  5.243096e+00    3.709635e+00
  5.258971e+00    3.592993e+00
  5.274847e+00    3.600242e+00
  5.290722e+00    3.733371e+00
  5.306598e+00    3.683992e+00
  5.322474e+00    3.564819e+00
  5.338349e+00    3.609606e+00
  5.354225e+00    3.663809e+00
  5.370100e+00    3.749573e+00
  5.385976e+00    3.752092e+00
  5.401851e+00    3.726370e+00
  5.417727e+00    3.645036e+00
  5.433603e+00    3.605072e+00
  5.449478e+00    3.534380e+00
  5.465354e+00    3.685300e+00
  5.481229e+00    3.646456e+00
  5.497105e+00    3.615911e+00
  5.512980e+00    3.704697e+00
  5.528856e+00    3.692894e+00
  5.544732e+00    3.606560e+00
  5.560607e+00    3.688584e+00
  5.576483e+00    3.679187e+00
  5.592358e+00    3.557830e+00
  5.608234e+00    3.612092e+00
  5.624109e+00    3.633486e+00
  5.639985e+00    3.573954e+00
  5.655861e+00    3.584342e+00
  5.671736e+00    3.716898e+00
  5.687612e+00    3.708438e+00
  5.703487e+00    3.678158e+00
  5.719363e+00    3.641400e+00
  5.735238e+00    3.728302e+00
  5.751114e+00    3.628505e+00
  5.766990e+00    3.487879e+00
  5.782865e+00    3.591593e+00
  5.798741e+00    3.661672e+00
  5.814616e+00    3.588731e+00
  5.830492e+00    3.516249e+00
  5.846367e+00    3.512888e+00
  5.862243e+00    3.501785e+00
  5.878119e+00    3.513049e+00
  5.893994e+00    3.518860e+00
  5.909870e+00    3.515547e+00
  5.925745e+00    3.611845e+00
  5.941621e+00    3.564941e+00
  5.957497e+00    3.560489e+00
  5.973372e+00    3.561185e+00
  5.989248e+00    3.598081e+00
  6.005123e+00    3.477587e+00
  6.020999e+00    3.520406e+00
  6.036874e+00    3.588921e+00
  6.052750e+00    3.573538e+00
  6.068626e+00    3.590563e+00
  6.084501e+00    3.672561e+00
  6.100377e+00    3.674718e+00
  6.116252e+00    3.669150e+00
  6.132128e+00    3.678065e+00
  6.148003e+00    3.635194e+00
  6.163879e+00    3.577125e+00
  6.179755e+00    3.589334e+00
  6.195630e+00    3.580099e+00
  6.211506e+00    3.581221e+00
  6.227381e+00    3.566836e+00
  6.243257e+00    3.601270e+00
  6.259132e+00    3.563236e+00
  6.275008e+00    3.502183e+00
  6.290884e+00    3.572558e+00
  6.306759e+00    3.586285e+00
  6.322635e+00    3.544071e+00
  6.338510e+00    3.500847e+00
  6.354386e+00    3.564531e+00
  6.370261e+00    3.562585e+00
  6.386137e+00    3.592613e+00
  6.402013e+00    3.534866e+00
  6.417888e+00    3.536929e+00
  6.433764e+00    3.565192e+00
  6.449639e+00    3.506996e+00
  6.465515e+00    3.526477e+00
  6.481390e+00    3.601398e+00
  6.497266e+00    3.495382e+00
  6.513142e+00    3.487545e+00
  6.529017e+00    3.585752e+00
  6.544893e+00    3.596935e+00
  6.560768e+00    3.588152e+00
  6.576644e+00    3.598251e+00
  6.592519e+00    3.549454e+00
  6.608395e+00    3.587701e+00
  6.624271e+00    3.526756e+00
  6.640146e+00    3.510096e+00
  6.656022e+00    3.493899e+00
  6.671897e+00    3.499048e+00
  6.687773e+00    3.581599e+00
  6.703648e+00    3.592644e+00
  6.719524e+00    3.585074e+00
  6.735400e+00    3.564599e+00
  6.751275e+00    3.591390e+00
  6.767151e+00    3.557425e+00
  6.783026e+00    3.598548e+00
  6.798902e+00    3.571877e+00
  6.814777e+00    3.584181e+00
  6.830653e+00    3.598388e+00
  6.846529e+00    3.540425e+00
  6.862404e+00    3.557491e+00
  6.878280e+00    3.604708e+00
  6.894155e+00    3.579370e+00
  6.910031e+00    3.523782e+00
  6.925907e+00    3.589238e+00
  6.941782e+00    3.564197e+00
  6.957658e+00    3.524633e+00
  6.973533e+00    3.469570e+00
  6.989409e+00    3.514602e+00
  7.005284e+00    3.539720e+00
  7.021160e+00    3.563753e+00
  7.037036e+00    3.610125e+00
  7.052911e+00    3.494645e+00
  7.068787e+00    3.541486e+00
  7.084662e+00    3.576453e+00
  7.100538e+00    3.523936e+00
  7.116413e+00    3.545419e+00
  7.132289e+00    3.567939e+00
  7.148165e+00    3.492585e+00
  7.164040e+00    3.436025e+00
  7.179916e+00    3.500017e+00
  7.195791e+00    3.500499e+00
  7.211667e+00    3.559590e+00
  7.227542e+00    3.538828e+00
  7.243418e+00    3.465749e+00
  7.259294e+00    3.477087e+00
  7.275169e+00    3.536608e+00
  7.291045e+00    3.469234e+00
  7.306920e+00    3.459917e+00
  7.322796e+00    3.448285e+00
  7.338671e+00    3.513497e+00
  7.354547e+00    3.542267e+00
  7.370423e+00    3.573178e+00
  7.386298e+00    3.569571e+00
  7.402174e+00    3.556584e+00
  7.418049e+00    3.536640e+00
  7.433925e+00    3.490955e+00
  7.449800e+00    3.461029e+00
  7.465676e+00    3.490956e+00
  7.481552e+00    3.479353e+00
  7.497427e+00    3.504841e+00
  7.513303e+00    3.509933e+00
  7.529178e+00    3.531374e+00
  7.545054e+00    3.611167e+00
  7.560929e+00    3.536089e+00
  7.576805e+00    3.526074e+00
  7.592681e+00    3.547196e+00
  7.608556e+00    3.434678e+00
  7.624432e+00    3.480249e+00
  7.640307e+00    3.475856e+00
  7.656183e+00    3.459705e+00
  7.672058e+00    3.480778e+00
  7.687934e+00    3.478471e+00
  7.703810e+00    3.437346e+00
  7.719685e+00    3.452312e+00
  7.735561e+00    3.469149e+00
  7.751436e+00    3.368730e+00
  7.767312e+00    3.379067e+00
  7.783187e+00    3.421886e+00
  7.799063e+00    3.469325e+00
  7.814939e+00    3.475730e+00
  7.830814e+00    3.465789e+00
  7.846690e+00    3.445098e+00
  7.862565e+00    3.490597e+00
  7.878441e+00    3.523853e+00
  7.894317e+00    3.484751e+00
  7.910192e+00    3.444060e+00
  7.926068e+00    3.464357e+00
  7.941943e+00    3.412771e+00
  7.957819e+00    3.362837e+00
  7.973694e+00    3.450613e+00
  7.989570e+00    3.499971e+00
  8.005446e+00    3.487432e+00
  8.021321e+00    3.446975e+00
  8.037197e+00    3.467016e+00
  8.053072e+00    3.424998e+00
  8.068948e+00    3.452103e+00
  8.084823e+00    3.536041e+00
  8.100699e+00    3.420367e+00
  8.116575e+00    3.434726e+00
  8.132450e+00    3.498980e+00
  8.148326e+00    3.505295e+00
  8.164201e+00    3.519001e+00
  8.180077e+00    3.528410e+00
  8.195952e+00    3.429331e+00
  8.211828e+00    3.410267e+00
  8.227704e+00    3.508815e+00
  8.243579e+00    3.498334e+00
  8.259455e+00    3.470871e+00
  8.275330e+00    3.471245e+00
  8.291206e+00    3.471764e+00
  8.307081e+00    3.463212e+00
  8.322957e+00    3.397593e+00
  8.338833e+00    3.402207e+00
  8.354708e+00    3.396578e+00
  8.370584e+00    3.448900e+00
  8.386459e+00    3.434070e+00
  8.402335e+00    3.400844e+00
  8.418210e+00    3.416017e+00
  8.434086e+00    3.429360e+00
  8.449962e+00    3.340352e+00
  8.465837e+00    3.333622e+00
  8.481713e+00    3.360279e+00
  8.497588e+00    3.311639e+00
  8.513464e+00    3.363549e+00
  8.529339e+00    3.396480e+00
  8.545215e+00    3.408880e+00
  8.561091e+00    3.335922e+00
  8.576966e+00    3.383098e+00
  8.592842e+00    3.371284e+00
  8.608717e+00    3.382077e+00
  8.624593e+00    3.359872e+00
  8.640468e+00    3.362575e+00
  8.656344e+00    3.371533e+00
  8.672220e+00    3.402099e+00
  8.688095e+00    3.357206e+00
  8.703971e+00    3.398984e+00
  8.719846e+00    3.329392e+00
  8.735722e+00    3.349242e+00
  8.751598e+00    3.274272e+00
  8.767473e+00    3.392768e+00
  8.783349e+00    3.449973e+00
  8.799224e+00    3.402982e+00
  8.815100e+00    3.400312e+00
  8.830975e+00    3.336206e+00
  8.846851e+00    3.361970e+00
  8.862727e+00    3.371407e+00
  8.878602e+00    3.358348e+00
  8.894478e+00    3.322349e+00
  8.910353e+00    3.310832e+00
  8.926229e+00    3.298085e+00
  8.942104e+00    3.355977e+00
  8.957980e+00    3.345439e+00
  8.973856e+00    3.335580e+00
  8.989731e+00    3.326874e+00
  9.005607e+00    3.292774e+00
  9.021482e+00    3.395033e+00
  9.037358e+00    3.317884e+00
  9.053233e+00    3.309337e+00
  9.069109e+00    3.262758e+00
  9.084985e+00    3.277051e+00
  9.100860e+00    3.327963e+00
  9.116736e+00    3.305761e+00
  9.132611e+00    3.276009e+00
  9.148487e+00    3.235935e+00
  9.164362e+00    3.249827e+00
  9.180238e+00    3.324382e+00
  9.196114e+00    3.304138e+00
  9.211989e+00    3.274135e+00
  9.227865e+00    3.270842e+00
  9.243740e+00    3.277801e+00
  9.259616e+00    3.276384e+00
  9.275491e+00    3.249631e+00
  9.291367e+00    3.242983e+00
  9.307243e+00    3.262830e+00
  9.323118e+00    3.290551e+00
  9.338994e+00    3.270672e+00
  9.354869e+00    3.250268e+00
  9.370745e+00    3.233150e+00
  9.386620e+00    3.278001e+00
  9.402496e+00    3.207426e+00
  9.418372e+00    3.236142e+00
  9.434247e+00    3.271605e+00
  9.450123e+00    3.259895e+00
  9.465998e+00    3.248332e+00
  9.481874e+00    3.198110e+00
  9.497749e+00    3.196914e+00
  9.513625e+00    3.203052e+00
  9.529501e+00    3.253026e+00
  9.545376e+00    3.221863e+00
  9.561252e+00    3.273055e+00
  9.577127e+00    3.292809e+00
  9.593003e+00    3.242699e+00
  9.608878e+00    3.248641e+00
  9.624754e+00    3.260426e+00
  9.640630e+00    3.292268e+00
  9.656505e+00    3.252053e+00
  9.672381e+00    3.219329e+00
  9.688256e+00    3.158245e+00
  9.704132e+00    3.162513e+00
  9.720008e+00    3.144247e+00
  9.735883e+00    3.161903e+00
  9.751759e+00    3.222143e+00
  9.767634e+00    3.162258e+00
  9.783510e+00    3.151399e+00
  9.799385e+00    3.170645e+00
  9.815261e+00    3.203059e+00
  9.831137e+00    3.189663e+00
  9.847012e+00    3.139423e+00
  9.862888e+00    3.156426e+00
  9.878763e+00    3.192555e+00
  9.894639e+00    3.088417e+00
  9.910514e+00    3.115882e+00
  9.926390e+00    3.165128e+00
  9.942266e+00    3.165861e+00
  9.958141e+00    3.169311e+00
  9.974017e+00    3.148150e+00
  9.989892e+00    3.105993e+00
  1.000577e+01    3.103156e+00
  1.002164e+01    3.145620e+00
  1.003752e+01    3.098984e+00
  1.005339e+01    3.084498e+00
  1.006927e+01    3.129254e+00
  1.008515e+01    3.142213e+00
  1.010102e+01    3.127573e+00
  1.011690e+01    3.086866e+00
  1.013277e+01    3.103838e+00
  1.014865e+01    3.137287e+00
  1.016452e+01    3.055688e+00
  1.018040e+01    3.029897e+00
  1.019627e+01    3.034807e+00
  1.021215e+01    3.109352e+00
  1.022803e+01    3.074024e+00
  1.024390e+01    3.067152e+00
  1.025978e+01    3.051585e+00
  1.027565e+01    3.097069e+00
  1.029153e+01    3.085733e+00
  1.030740e+01    3.056506e+00
  1.032328e+01    3.066389e+00
  1.033915e+01    3.068731e+00
  1.035503e+01    3.029311e+00
  1.037091e+01    3.068379e+00
  1.038678e+01    3.021338e+00
  1.040266e+01    3.081639e+00
  1.041853e+01    3.058545e+00
  1.043441e+01    3.011266e+00
  1.045028e+01    3.035172e+00
  1.046616e+01    3.068791e+00
  1.048204e+01    3.057481e+00
  1.049791e+01    3.023124e+00
  1.051379e+01    3.043419e+00
  1.052966e+01    3.042360e+00
  1.054554e+01    3.023477e+00
  1.056141e+01    3.012108e+00
  1.057729e+01    3.049765e+00
  1.059316e+01    3.032784e+00
  1.060904e+01    3.012169e+00
  1.062492e+01    3.007177e+00
  1.064079e+01    3.017969e+00
  1.065667e+01    2.991461e+00
  1.067254e+01    3.010396e+00
  1.068842e+01    2.986382e+00
  1.070429e+01    3.041554e+00
  1.072017e+01    2.995672e+00
  1.073604e+01    2.951360e+00
  1.075192e+01    2.971189e+00
  1.076780e+01    2.978891e+00
  1.078367e+01    2.946492e+00
  1.079955e+01    2.972860e+00
  1.081542e+01    3.006999e+00
  1.083130e+01    2.915291e+00
  1.084717e+01    2.956793e+00
  1.086305e+01    2.964789e+00
  1.087892e+01    2.902597e+00
  1.089480e+01    2.931594e+00
  1.091068e+01    2.936970e+00
  1.092655e+01    2.947461e+00
  1.094243e+01    2.944407e+00
  1.095830e+01    2.908232e+00
  1.097418e+01    2.922494e+00
  1.099005e+01    2.891357e+00
  1.100593e+01    2.926792e+00
  1.102180e+01    3.001688e+00
  1.103768e+01    2.975687e+00
  1.105356e+01    2.931682e+00
  1.106943e+01    2.887157e+00
  1.108531e+01    2.881907e+00
  1.110118e+01    2.935351e+00
  1.111706e+01    2.900774e+00
  1.113293e+01    2.915263e+00
  1.114881e+01    2.891574e+00
  1.116468e+01    2.892140e+00
  1.118056e+01    2.825976e+00
  1.119644e+01    2.847246e+00
  1.121231e+01    2.882957e+00
  1.122819e+01    2.900341e+00
  1.124406e+01    2.833709e+00
  1.125994e+01    2.783511e+00
  1.127581e+01    2.873851e+00
  1.129169e+01    2.829374e+00
  1.130756e+01    2.809856e+00
  1.132344e+01    2.824509e+00
  1.133932e+01    2.820668e+00
  1.135519e+01    2.839176e+00
  1.137107e+01    2.811961e+00
  1.138694e+01    2.846442e+00
  1.140282e+01    2.811170e+00
  1.141869e+01    2.797663e+00
  1.143457e+01    2.813581e+00
  1.145045e+01    2.824460e+00
  1.146632e+01    2.833329e+00
  1.148220e+01    2.853192e+00
  1.149807e+01    2.803373e+00
  1.151395e+01    2.867317e+00
  1.152982e+01    2.801589e+00
  1.154570e+01    2.837803e+00
  1.156157e+01    2.770544e+00
  1.157745e+01    2.773782e+00
  1.159333e+01    2.795108e+00
  1.160920e+01    2.847781e+00
  1.162508e+01    2.806911e+00
  1.164095e+01    2.773299e+00
  1.165683e+01    2.776812e+00
  1.167270e+01    2.787910e+00
  1.168858e+01    2.762302e+00
  1.170445e+01    2.775658e+00
  1.172033e+01    2.768932e+00
  1.173621e+01    2.774461e+00
  1.175208e+01    2.742406e+00
  1.176796e+01    2.712103e+00
  1.178383e+01    2.753340e+00
  1.179971e+01    2.768749e+00
  1.181558e+01    2.764227e+00
  1.183146e+01    2.761947e+00
  1.184733e+01    2.766745e+00
  1.186321e+01    2.729990e+00
  1.187909e+01    2.729207e+00
  1.189496e+01    2.735949e+00
  1.191084e+01    2.760050e+00
  1.192671e+01    2.704205e+00
  1.194259e+01    2.738140e+00
  1.195846e+01    2.758748e+00
  1.197434e+01    2.759144e+00
  1.199021e+01    2.749175e+00
  1.200609e+01    2.724822e+00
  1.202197e+01    2.735763e+00
  1.203784e+01    2.715682e+00
  1.205372e+01    2.686110e+00
  1.206959e+01    2.698978e+00
  1.208547e+01    2.701641e+00
  1.210134e+01    2.693893e+00
  1.211722e+01    2.758235e+00
  1.213309e+01    2.755862e+00
  1.214897e+01    2.736665e+00
  1.216485e+01    2.711272e+00
  1.218072e+01    2.711918e+00
  1.219660e+01    2.711447e+00
  1.221247e+01    2.718214e+00
  1.222835e+01    2.720361e+00
  1.224422e+01    2.704987e+00
  1.226010e+01    2.707949e+00
  1.227597e+01    2.662876e+00
  1.229185e+01    2.641782e+00
  1.230773e+01    2.689602e+00
  1.232360e+01    2.686093e+00
  1.233948e+01    2.674283e+00
  1.235535e+01    2.643844e+00
  1.237123e+01    2.685559e+00
  1.238710e+01    2.695410e+00
  1.240298e+01    2.666160e+00
  1.241886e+01    2.707838e+00
  1.243473e+01    2.755289e+00
  1.245061e+01    2.753618e+00
  1.246648e+01    2.719615e+00
  1.248236e+01    2.700272e+00
  1.249823e+01    2.714266e+00
  1.251411e+01    2.735810e+00
  1.252998e+01    2.707752e+00
  1.254586e+01    2.716799e+00
  1.256174e+01    2.732551e+00
  1.257761e+01    2.734802e+00
  1.259349e+01    2.785944e+00
  1.260936e+01    2.748638e+00
  1.262524e+01    2.747625e+00
  1.264111e+01    2.761655e+00
  1.265699e+01    2.792499e+00
  1.267286e+01    2.815595e+00
  1.268874e+01    2.842714e+00
  1.270462e+01    2.872999e+00
  1.272049e+01    2.872698e+00
  1.273637e+01    2.913934e+00
  1.275224e+01    2.892159e+00
  1.276812e+01    2.948010e+00
  1.278399e+01    3.022246e+00
  1.279987e+01    3.010841e+00
  1.281574e+01    3.055650e+00
  1.283162e+01    3.179549e+00
  1.284750e+01    3.272676e+00
  1.286337e+01    3.328586e+00
  1.287925e+01    3.426702e+00
  1.289512e+01    3.506526e+00
  1.291100e+01    3.688463e+00
  1.292687e+01    3.849969e+00
  1.294275e+01    4.113591e+00
  1.295862e+01    4.444163e+00
  1.297450e+01    4.772639e+00
  1.299038e+01    5.306551e+00
  1.300625e+01    5.949545e+00
  1.302213e+01    6.793119e+00
  1.303800e+01    7.786752e+00
  1.305388e+01    8.956501e+00
  1.306975e+01    1.017722e+01
  1.308563e+01    1.155083e+01
  1.310150e+01    1.283856e+01
  1.311738e+01    1.396685e+01
  1.313326e+01    1.494899e+01
  1.314913e+01    1.581152e+01
  1.316501e+01    1.642745e+01
  1.318088e+01    1.648908e+01
  1.319676e+01    1.575959e+01
  1.321263e+01    1.435515e+01
  1.322851e+01    1.261613e+01
  1.324438e+01    1.083995e+01
  1.326026e+01    9.138903e+00
  1.327614e+01    7.796654e+00
  1.329201e+01    6.808355e+00
  1.330789e+01    6.014620e+00
  1.332376e+01    5.337877e+00
  1.333964e+01    4.849548e+00
  1.335551e+01    4.426445e+00
  1.337139e+01    4.122543e+00
  1.338727e+01    3.875191e+00
  1.340314e+01    3.681509e+00
  1.341902e+01    3.477099e+00
  1.343489e+01    3.390018e+00
  1.345077e+01    3.251083e+00
  1.346664e+01    3.142726e+00
  1.348252e+01    3.077789e+00
  1.349839e+01    2.991240e+00
  1.351427e+01    2.912752e+00
  1.353015e+01    2.860015e+00
  1.354602e+01    2.852018e+00
  1.356190e+01    2.743822e+00
  1.357777e+01    2.737021e+00
  1.359365e+01    2.746442e+00
  1.360952e+01    2.700663e+00
  1.362540e+01    2.675069e+00
  1.364127e+01    2.634004e+00
  1.365715e+01    2.631963e+00
  1.367303e+01    2.600676e+00
  1.368890e+01    2.558218e+00
  1.370478e+01    2.543653e+00
  1.372065e+01    2.505003e+00
  1.373653e+01    2.534980e+00
  1.375240e+01    2.540952e+00
  1.376828e+01    2.496037e+00
  1.378415e+01    2.462207e+00
  1.380003e+01    2.492023e+00
  1.381591e+01    2.494608e+00
  1.383178e+01    2.435574e+00
  1.384766e+01    2.442942e+00
  1.386353e+01    2.489178e+00
  1.387941e+01    2.458439e+00
  1.389528e+01    2.425682e+00
  1.391116e+01    2.419023e+00
  1.392703e+01    2.401699e+00
  1.394291e+01    2.429698e+00
  1.395879e+01    2.385999e+00
  1.397466e+01    2.359189e+00
  1.399054e+01    2.358344e+00
  1.400641e+01    2.346183e+00
  1.402229e+01    2.363216e+00
  1.403816e+01    2.334047e+00
  1.405404e+01    2.345209e+00
  1.406991e+01    2.330634e+00
  1.408579e+01    2.315959e+00
  1.410167e+01    2.289925e+00
  1.411754e+01    2.316754e+00
  1.413342e+01    2.328254e+00
  1.414929e+01    2.346976e+00
  1.416517e+01    2.346577e+00
  1.418104e+01    2.328389e+00
  1.419692e+01    2.327785e+00
  1.421279e+01    2.293663e+00
  1.422867e+01    2.294132e+00
  1.424455e+01    2.285003e+00
  1.426042e+01    2.289186e+00
  1.427630e+01    2.323698e+00
  1.429217e+01    2.297730e+00
  1.430805e+01    2.263350e+00
  1.432392e+01    2.296000e+00
  1.433980e+01    2.288846e+00
  1.435568e+01    2.232275e+00
  1.437155e+01    2.270429e+00
  1.438743e+01    2.314698e+00
  1.440330e+01    2.309501e+00
  1.441918e+01    2.254774e+00
  1.443505e+01    2.257873e+00
  1.445093e+01    2.288800e+00
  1.446680e+01    2.233462e+00
  1.448268e+01    2.246062e+00
  1.449856e+01    2.249140e+00
  1.451443e+01    2.242871e+00
  1.453031e+01    2.224429e+00
  1.454618e+01    2.200485e+00
  1.456206e+01    2.227201e+00
  1.457793e+01    2.202050e+00
  1.459381e+01    2.251599e+00
  1.460968e+01    2.240273e+00
  1.462556e+01    2.236865e+00
  1.464144e+01    2.220538e+00
  1.465731e+01    2.243175e+00
  1.467319e+01    2.216982e+00
  1.468906e+01    2.210711e+00
  1.470494e+01    2.231180e+00
  1.472081e+01    2.236524e+00
  1.473669e+01    2.209726e+00
  1.475256e+01    2.203513e+00
  1.476844e+01    2.197185e+00
  1.478432e+01    2.218293e+00
  1.480019e+01    2.235790e+00
  1.481607e+01    2.233061e+00
  1.483194e+01    2.234854e+00
  1.484782e+01    2.205740e+00
  1.486369e+01    2.184223e+00
  1.487957e+01    2.239052e+00
  1.489544e+01    2.261556e+00
  1.491132e+01    2.267658e+00
  1.492720e+01    2.292429e+00
  1.494307e+01    2.293074e+00
  1.495895e+01    2.296553e+00
  1.497482e+01    2.361257e+00
  1.499070e+01    2.436639e+00
  1.500657e+01    2.480781e+00
  1.502245e+01    2.464766e+00
  1.503832e+01    2.589797e+00
  1.505420e+01    2.675793e+00
  1.507008e+01    2.834348e+00
  1.508595e+01    3.009922e+00
  1.510183e+01    3.237572e+00
  1.511770e+01    3.545434e+00
  1.513358e+01    3.880816e+00
  1.514945e+01    4.244664e+00
  1.516533e+01    4.545104e+00
  1.518120e+01    4.868456e+00
  1.519708e+01    5.259087e+00
  1.521296e+01    5.439932e+00
  1.522883e+01    5.586714e+00
  1.524471e+01    5.780788e+00
  1.526058e+01    5.817967e+00
  1.527646e+01    5.752639e+00
  1.529233e+01    5.557057e+00
  1.530821e+01    5.160572e+00
  1.532409e+01    4.689431e+00
  1.533996e+01    4.226137e+00
  1.535584e+01    3.758929e+00
  1.537171e+01    3.419584e+00
  1.538759e+01    3.162275e+00
  1.540346e+01    2.977081e+00
  1.541934e+01    2.815907e+00
  1.543521e+01    2.677342e+00
  1.545109e+01    2.550522e+00
  1.546697e+01    2.426788e+00
  1.548284e+01    2.371485e+00
  1.549872e+01    2.295518e+00
  1.551459e+01    2.243320e+00
  1.553047e+01    2.217199e+00
  1.554634e+01    2.222549e+00
  1.556222e+01    2.202222e+00
  1.557809e+01    2.168945e+00
  1.559397e+01    2.120718e+00
  1.560985e+01    2.116060e+00
  1.562572e+01    2.076659e+00
  1.564160e+01    2.047849e+00
  1.565747e+01    2.076323e+00
  1.567335e+01    2.024634e+00
  1.568922e+01    1.989575e+00
  1.570510e+01    2.013353e+00
  1.572097e+01    1.988240e+00
  1.573685e+01    1.970674e+00
  1.575273e+01    1.931996e+00
  1.576860e+01    1.962688e+00
  1.578448e+01    1.949037e+00
  1.580035e+01    1.938056e+00
  1.581623e+01    1.921166e+00
  1.583210e+01    1.922471e+00
  1.584798e+01    1.934472e+00
  1.586385e+01    1.936051e+00
  1.587973e+01    1.918479e+00
  1.589561e+01    1.899412e+00
  1.591148e+01    1.900600e+00
  1.592736e+01    1.885196e+00
  1.594323e+01    1.914115e+00
  1.595911e+01    1.915928e+00
  1.597498e+01    1.927665e+00
  1.599086e+01    1.891861e+00
  1.600673e+01    1.854563e+00
  1.602261e+01    1.869683e+00
  1.603849e+01    1.867704e+00
  1.605436e+01    1.895462e+00
  1.607024e+01    1.842619e+00
  1.608611e+01    1.827779e+00
  1.610199e+01    1.881327e+00
  1.611786e+01    1.871354e+00
  1.613374e+01    1.831430e+00
  1.614961e+01    1.827196e+00
  1.616549e+01    1.817806e+00
  1.618137e+01    1.839731e+00
  1.619724e+01    1.851253e+00
  1.621312e+01    1.792643e+00
  1.622899e+01    1.803615e+00
  1.624487e+01    1.829586e+00
  1.626074e+01    1.836103e+00
  1.627662e+01    1.814696e+00
  1.629250e+01    1.833801e+00
  1.630837e+01    1.801126e+00
  1.632425e+01    1.800166e+00
  1.634012e+01    1.821166e+00
  1.635600e+01    1.779299e+00
  1.637187e+01    1.803870e+00
  1.638775e+01    1.809792e+00
  1.640362e+01    1.769393e+00
  1.641950e+01    1.753572e+00
  1.643538e+01    1.769596e+00
  1.645125e+01    1.779860e+00
  1.646713e+01    1.796479e+00
  1.648300e+01    1.808656e+00
  1.649888e+01    1.757306e+00
  1.651475e+01    1.775088e+00
  1.653063e+01    1.779393e+00
  1.654650e+01    1.758546e+00
  1.656238e+01    1.792581e+00
  1.657826e+01    1.787387e+00
  1.659413e+01    1.746776e+00
  1.661001e+01    1.742735e+00
  1.662588e+01    1.733230e+00
  1.664176e+01    1.731314e+00
  1.665763e+01    1.732705e+00
  1.667351e+01    1.734453e+00
  1.668938e+01    1.740455e+00
  1.670526e+01    1.697332e+00
  1.672114e+01    1.742525e+00
  1.673701e+01    1.725910e+00
  1.675289e+01    1.720620e+00
  1.676876e+01    1.731091e+00
  1.678464e+01    1.710576e+00
  1.680051e+01    1.677979e+00
  1.681639e+01    1.738844e+00
  1.683226e+01    1.727846e+00
  1.684814e+01    1.716954e+00
  1.686402e+01    1.709828e+00
  1.687989e+01    1.703614e+00
  1.689577e+01    1.690074e+00
  1.691164e+01    1.692898e+00
  1.692752e+01    1.728297e+00
  1.694339e+01    1.714545e+00
  1.695927e+01    1.707630e+00
  1.697514e+01    1.682289e+00
  1.699102e+01    1.681770e+00
  1.700690e+01    1.682593e+00
  1.702277e+01    1.683739e+00
  1.703865e+01    1.688024e+00
  1.705452e+01    1.682762e+00
  1.707040e+01    1.677278e+00
  1.708627e+01    1.659063e+00
  1.710215e+01    1.636153e+00
  1.711802e+01    1.628134e+00
  1.713390e+01    1.654026e+00
  1.714978e+01    1.648771e+00
  1.716565e+01    1.641565e+00
  1.718153e+01    1.604755e+00
  1.719740e+01    1.620732e+00
  1.721328e+01    1.648719e+00
  1.722915e+01    1.643292e+00
  1.724503e+01    1.618872e+00
  1.726091e+01    1.646534e+00
  1.727678e+01    1.646194e+00
  1.729266e+01    1.622782e+00
  1.730853e+01    1.650047e+00
  1.732441e+01    1.619355e+00
  1.734028e+01    1.624275e+00
  1.735616e+01    1.607049e+00
  1.737203e+01    1.635308e+00
  1.738791e+01    1.634378e+00
  1.740379e+01    1.619720e+00
  1.741966e+01    1.614254e+00
  1.743554e+01    1.608548e+00
  1.745141e+01    1.588383e+00
  1.746729e+01    1.586375e+00
  1.748316e+01    1.581178e+00
  1.749904e+01    1.588318e+00
  1.751491e+01    1.604856e+00
  1.753079e+01    1.591419e+00
  1.754667e+01    1.601053e+00
  1.756254e+01    1.585909e+00
  1.757842e+01    1.568952e+00
  1.759429e+01    1.570451e+00
  1.761017e+01    1.560998e+00
  1.762604e+01    1.581844e+00
  1.764192e+01    1.547752e+00
  1.765779e+01    1.586348e+00
  1.767367e+01    1.583689e+00
  1.768955e+01    1.589906e+00
  1.770542e+01    1.557268e+00
  1.772130e+01    1.561865e+00
  1.773717e+01    1.535592e+00
  1.775305e+01    1.535359e+00
  1.776892e+01    1.561344e+00
  1.778480e+01    1.538575e+00
  1.780067e+01    1.521609e+00
  1.781655e+01    1.553602e+00
  1.783243e+01    1.571270e+00
  1.784830e+01    1.547697e+00
  1.786418e+01    1.529417e+00
  1.788005e+01    1.531770e+00
  1.789593e+01    1.535177e+00
  1.791180e+01    1.520297e+00
  1.792768e+01    1.520403e+00
  1.794355e+01    1.502715e+00
  1.795943e+01    1.530445e+00
  1.797531e+01    1.536948e+00
  1.799118e+01    1.477837e+00
  1.800706e+01    1.522027e+00
  1.802293e+01    1.521563e+00
  1.803881e+01    1.517794e+00
  1.805468e+01    1.517375e+00
  1.807056e+01    1.549856e+00
  1.808643e+01    1.531298e+00
  1.810231e+01    1.489052e+00
  1.811819e+01    1.499304e+00
  1.813406e+01    1.500238e+00
  1.814994e+01    1.485349e+00
  1.816581e+01    1.492050e+00
  1.818169e+01    1.503188e+00
  1.819756e+01    1.460661e+00
  1.821344e+01    1.480403e+00
  1.822932e+01    1.484302e+00
  1.824519e+01    1.468689e+00
  1.826107e+01    1.474880e+00
  1.827694e+01    1.505654e+00
  1.829282e+01    1.505494e+00
  1.830869e+01    1.459848e+00
  1.832457e+01    1.457191e+00
  1.834044e+01    1.480392e+00
  1.835632e+01    1.488257e+00
  1.837220e+01    1.448622e+00
  1.838807e+01    1.441955e+00
  1.840395e+01    1.505731e+00
  1.841982e+01    1.495316e+00
  1.843570e+01    1.472963e+00
  1.845157e+01    1.484345e+00
  1.846745e+01    1.429228e+00
  1.848332e+01    1.430794e+00
  1.849920e+01    1.446977e+00
  1.851508e+01    1.429941e+00
  1.853095e+01    1.417161e+00
  1.854683e+01    1.426384e+00
  1.856270e+01    1.427168e+00
  1.857858e+01    1.458244e+00
  1.859445e+01    1.437139e+00
  1.861033e+01    1.447025e+00
  1.862620e+01    1.449613e+00
  1.864208e+01    1.459559e+00
  1.865796e+01    1.446577e+00
  1.867383e+01    1.425121e+00
  1.868971e+01    1.419660e+00
  1.870558e+01    1.449737e+00
  1.872146e+01    1.430376e+00
  1.873733e+01    1.414236e+00
  1.875321e+01    1.414222e+00
  1.876908e+01    1.418411e+00
  1.878496e+01    1.388201e+00
  1.880084e+01    1.400422e+00
  1.881671e+01    1.404326e+00
  1.883259e+01    1.414852e+00
  1.884846e+01    1.431156e+00
  1.886434e+01    1.414117e+00
  1.888021e+01    1.406394e+00
  1.889609e+01    1.410900e+00
  1.891196e+01    1.402511e+00
  1.892784e+01    1.362953e+00
  1.894372e+01    1.373659e+00
  1.895959e+01    1.401320e+00
  1.897547e+01    1.373544e+00
  1.899134e+01    1.398279e+00
  1.900722e+01    1.411502e+00
  1.902309e+01    1.409742e+00
  1.903897e+01    1.406478e+00
  1.905484e+01    1.413165e+00
  1.907072e+01    1.429643e+00
  1.908660e+01    1.384186e+00
  1.910247e+01    1.352160e+00
  1.911835e+01    1.390773e+00
  1.913422e+01    1.384350e+00
  1.915010e+01    1.367792e+00
  1.916597e+01    1.372652e+00
  1.918185e+01    1.338948e+00
  1.919773e+01    1.353585e+00
  1.921360e+01    1.323413e+00
  1.922948e+01    1.333210e+00
  1.924535e+01    1.346563e+00
  1.926123e+01    1.368142e+00
  1.927710e+01    1.381664e+00
  1.929298e+01    1.359103e+00
  1.930885e+01    1.371655e+00
  1.932473e+01    1.361406e+00
  1.934061e+01    1.341306e+00
  1.935648e+01    1.367543e+00
  1.937236e+01    1.342995e+00
  1.938823e+01    1.336602e+00
  1.940411e+01    1.345731e+00
  1.941998e+01    1.362623e+00
  1.943586e+01    1.349720e+00
  1.945173e+01    1.348078e+00
  1.946761e+01    1.353276e+00
  1.948349e+01    1.349542e+00
  1.949936e+01    1.363110e+00
  1.951524e+01    1.364398e+00
  1.953111e+01    1.330318e+00
  1.954699e+01    1.328999e+00
  1.956286e+01    1.340145e+00
  1.957874e+01    1.328975e+00
  1.959461e+01    1.347963e+00
  1.961049e+01    1.349970e+00
  1.962637e+01    1.326649e+00
  1.964224e+01    1.320125e+00
  1.965812e+01    1.332932e+00
  1.967399e+01    1.348713e+00
  1.968987e+01    1.341047e+00
  1.970574e+01    1.297891e+00
  1.972162e+01    1.285637e+00
  1.973749e+01    1.327597e+00
  1.975337e+01    1.334757e+00
  1.976925e+01    1.314997e+00
  1.978512e+01    1.321266e+00
  1.980100e+01    1.313283e+00
  1.981687e+01    1.314949e+00
  1.983275e+01    1.308278e+00
  1.984862e+01    1.308697e+00
  1.986450e+01    1.313588e+00
  1.988037e+01    1.289646e+00
  1.989625e+01    1.306017e+00
  1.991213e+01    1.291041e+00
  1.992800e+01    1.262782e+00
  1.994388e+01    1.293554e+00
  1.995975e+01    1.296802e+00
  1.997563e+01    1.269251e+00
  1.999150e+01    1.278227e+00
  2.000738e+01    1.278757e+00
  2.002325e+01    1.290499e+00
  2.003913e+01    1.284525e+00
  2.005501e+01    1.278018e+00
  2.007088e+01    1.299284e+00
  2.008676e+01    1.285872e+00
  2.010263e+01    1.265495e+00
  2.011851e+01    1.274098e+00
  2.013438e+01    1.272804e+00
  2.015026e+01    1.282066e+00
  2.016614e+01    1.291603e+00
  2.018201e+01    1.298710e+00
  2.019789e+01    1.292545e+00
  2.021376e+01    1.295667e+00
  2.022964e+01    1.294590e+00
  2.024551e+01    1.272396e+00
  2.026139e+01    1.291653e+00
  2.027726e+01    1.266577e+00
  2.029314e+01    1.263315e+00
  2.030902e+01    1.268163e+00
  2.032489e+01    1.276837e+00
  2.034077e+01    1.256321e+00
  2.035664e+01    1.240476e+00
  2.037252e+01    1.266839e+00
  2.038839e+01    1.282261e+00
  2.040427e+01    1.259900e+00
  2.042014e+01    1.265406e+00
  2.043602e+01    1.242199e+00
  2.045190e+01    1.233401e+00
  2.046777e+01    1.253453e+00
  2.048365e+01    1.252647e+00
  2.049952e+01    1.263002e+00
  2.051540e+01    1.251887e+00
  2.053127e+01    1.243704e+00
  2.054715e+01    1.220881e+00
  2.056302e+01    1.218556e+00
  2.057890e+01    1.240287e+00
  2.059478e+01    1.249689e+00
  2.061065e+01    1.250010e+00
  2.062653e+01    1.235478e+00
  2.064240e+01    1.214254e+00
  2.065828e+01    1.229309e+00
  2.067415e+01    1.237599e+00
  2.069003e+01    1.232897e+00
  2.070590e+01    1.217092e+00
  2.072178e+01    1.216014e+00
  2.073766e+01    1.224131e+00
  2.075353e+01    1.200416e+00
  2.076941e+01    1.223899e+00
  2.078528e+01    1.207121e+00
  2.080116e+01    1.220775e+00
  2.081703e+01    1.253751e+00
  2.083291e+01    1.247907e+00
  2.084878e+01    1.226606e+00
  2.086466e+01    1.183776e+00
  2.088054e+01    1.216282e+00
  2.089641e+01    1.227557e+00
  2.091229e+01    1.226513e+00
  2.092816e+01    1.231380e+00
  2.094404e+01    1.237734e+00
  2.095991e+01    1.236257e+00
  2.097579e+01    1.233954e+00
  2.099166e+01    1.217536e+00
  2.100754e+01    1.217384e+00
  2.102342e+01    1.201298e+00
  2.103929e+01    1.218935e+00
  2.105517e+01    1.231974e+00
  2.107104e+01    1.235822e+00
  2.108692e+01    1.212971e+00
  2.110279e+01    1.202732e+00
  2.111867e+01    1.208985e+00
  2.113455e+01    1.239210e+00
  2.115042e+01    1.233513e+00
  2.116630e+01    1.219251e+00
  2.118217e+01    1.238667e+00
  2.119805e+01    1.250876e+00
  2.121392e+01    1.248145e+00
  2.122980e+01    1.268840e+00
  2.124567e+01    1.266522e+00
  2.126155e+01    1.283202e+00
  2.127743e+01    1.260525e+00
  2.129330e+01    1.275919e+00
  2.130918e+01    1.265394e+00
  2.132505e+01    1.278725e+00
  2.134093e+01    1.302664e+00
  2.135680e+01    1.294387e+00
  2.137268e+01    1.293640e+00
  2.138855e+01    1.322891e+00
  2.140443e+01    1.316897e+00
  2.142031e+01    1.335248e+00
  2.143618e+01    1.327192e+00
  2.145206e+01    1.382472e+00
  2.146793e+01    1.399921e+00
  2.148381e+01    1.392191e+00
  2.149968e+01    1.425786e+00
  2.151556e+01    1.460163e+00
  2.153143e+01    1.488351e+00
  2.154731e+01    1.530901e+00
  2.156319e+01    1.564386e+00
  2.157906e+01    1.608388e+00
  2.159494e+01    1.706827e+00
  2.161081e+01    1.768914e+00
  2.162669e+01    1.856070e+00
  2.164256e+01    1.974089e+00
  2.165844e+01    2.128621e+00
  2.167431e+01    2.344692e+00
  2.169019e+01    2.550352e+00
  2.170607e+01    2.848286e+00
  2.172194e+01    3.181627e+00
  2.173782e+01    3.573742e+00
  2.175369e+01    4.075465e+00
  2.176957e+01    4.640990e+00
  2.178544e+01    5.254498e+00
  2.180132e+01    5.876373e+00
  2.181719e+01    6.534087e+00
  2.183307e+01    7.270832e+00
  2.184895e+01    7.932153e+00
  2.186482e+01    8.462812e+00
  2.188070e+01    8.835640e+00
  2.189657e+01    8.995105e+00
  2.191245e+01    8.825511e+00
  2.192832e+01    8.320083e+00
  2.194420e+01    7.517137e+00
  2.196007e+01    6.621957e+00
  2.197595e+01    5.714347e+00
  2.199183e+01    4.876849e+00
  2.200770e+01    4.175081e+00
  2.202358e+01    3.647014e+00
  2.203945e+01    3.212329e+00
  2.205533e+01    2.866586e+00
  2.207120e+01    2.591544e+00
  2.208708e+01    2.344594e+00
  2.210296e+01    2.175522e+00
  2.211883e+01    2.030205e+00
  2.213471e+01    1.878358e+00
  2.215058e+01    1.781972e+00
  2.216646e+01    1.683573e+00
  2.218233e+01    1.614304e+00
  2.219821e+01    1.544202e+00
  2.221408e+01    1.492888e+00
  2.222996e+01    1.494397e+00
  2.224584e+01    1.417945e+00
  2.226171e+01    1.397369e+00
  2.227759e+01    1.368740e+00
  2.229346e+01    1.320902e+00
  2.230934e+01    1.296039e+00
  2.232521e+01    1.263383e+00
  2.234109e+01    1.281451e+00
  2.235696e+01    1.290742e+00
  2.237284e+01    1.238657e+00
  2.238872e+01    1.233611e+00
  2.240459e+01    1.226072e+00
  2.242047e+01    1.185931e+00
  2.243634e+01    1.177372e+00
  2.245222e+01    1.194454e+00
  2.246809e+01    1.178139e+00
  2.248397e+01    1.170468e+00
  2.249984e+01    1.171807e+00
  2.251572e+01    1.155607e+00
  2.253160e+01    1.139192e+00
  2.254747e+01    1.123521e+00
  2.256335e+01    1.117008e+00
  2.257922e+01    1.117561e+00
  2.259510e+01    1.116106e+00
  2.261097e+01    1.114696e+00
  2.262685e+01    1.109108e+00
  2.264272e+01    1.069690e+00
  2.265860e+01    1.112257e+00
  2.267448e+01    1.145563e+00
  2.269035e+01    1.101472e+00
  2.270623e+01    1.093593e+00
  2.272210e+01    1.073039e+00
  2.273798e+01    1.084037e+00
  2.275385e+01    1.090599e+00
  2.276973e+01    1.073550e+00
  2.278560e+01    1.073863e+00
  2.280148e+01    1.047602e+00
  2.281736e+01    1.063476e+00
  2.283323e+01    1.062491e+00
  2.284911e+01    1.042853e+00
  2.286498e+01    1.041393e+00
  2.288086e+01    1.021593e+00
  2.289673e+01    1.018689e+00
  2.291261e+01    1.035232e+00
  2.292848e+01    1.034524e+00
  2.294436e+01    1.032940e+00
  2.296024e+01    1.053763e+00
  2.297611e+01    1.015971e+00
  2.299199e+01    1.031733e+00
  2.300786e+01    1.042455e+00
  2.302374e+01    1.005655e+00
  2.303961e+01    9.914956e-01
  2.305549e+01    1.013532e+00
  2.307137e+01    1.021065e+00
  2.308724e+01    1.019117e+00
  2.310312e+01    1.010215e+00
  2.311899e+01    1.015534e+00
  2.313487e+01    9.928673e-01
  2.315074e+01    9.847383e-01
  2.316662e+01    9.903541e-01
  2.318249e+01    1.023011e+00
  2.319837e+01    1.020971e+00
  2.321425e+01    1.024311e+00
  2.323012e+01    9.960595e-01
  2.324600e+01    1.003225e+00
  2.326187e+01    9.851058e-01
  2.327775e+01    9.884422e-01
  2.329362e+01    1.009828e+00
  2.330950e+01    9.994909e-01
  2.332537e+01    9.597011e-01
  2.334125e+01    9.830492e-01
  2.335713e+01    9.852716e-01
  2.337300e+01    9.821971e-01
  2.338888e+01    9.766628e-01
  2.340475e+01    9.785062e-01
  2.342063e+01    9.916872e-01
  2.343650e+01    9.917150e-01
  2.345238e+01    9.769532e-01
  2.346825e+01    9.699789e-01
  2.348413e+01    9.605801e-01
  2.350001e+01    9.532913e-01
  2.351588e+01    9.701537e-01
  2.353176e+01    9.781983e-01
  2.354763e+01    9.699380e-01
  2.356351e+01    9.668374e-01
  2.357938e+01    9.711673e-01
  2.359526e+01    9.699581e-01
  2.361113e+01    9.638894e-01
  2.362701e+01    9.728733e-01
  2.364289e+01    9.666471e-01
  2.365876e+01    9.470176e-01
  2.367464e+01    9.614262e-01
  2.369051e+01    9.468347e-01
  2.370639e+01    9.369661e-01
  2.372226e+01    9.440398e-01
  2.373814e+01    9.417961e-01
  2.375401e+01    9.437512e-01
  2.376989e+01    9.225712e-01
  2.378577e+01    9.543785e-01
  2.380164e+01    9.241951e-01
  2.381752e+01    9.242464e-01
  2.383339e+01    9.423410e-01
  2.384927e+01    9.285433e-01
  2.386514e+01    9.125910e-01
  2.388102e+01    9.254934e-01
  2.389689e+01    9.236469e-01
  2.391277e+01    9.427517e-01
  2.392865e+01    9.272997e-01
  2.394452e+01    9.277931e-01
  2.396040e+01    9.201330e-01
  2.397627e+01    8.736420e-01
  2.399215e+01    9.105496e-01
  2.400802e+01    9.178169e-01
  2.402390e+01    9.146824e-01
  2.403978e+01    9.037184e-01
  2.405565e+01    9.271712e-01
  2.407153e+01    8.993858e-01
  2.408740e+01    8.943595e-01
  2.410328e+01    9.000128e-01
  2.411915e+01    9.039173e-01
  2.413503e+01    9.023291e-01
  2.415090e+01    8.914224e-01
  2.416678e+01    8.800307e-01
  2.418266e+01    8.748654e-01
  2.419853e+01    8.754556e-01
  2.421441e+01    8.906980e-01
  2.423028e+01    8.927944e-01
  2.424616e+01    8.819128e-01
  2.426203e+01    9.030765e-01
  2.427791e+01    8.956106e-01
  2.429378e+01    9.015052e-01
  2.430966e+01    8.998241e-01
  2.432554e+01    8.814372e-01
  2.434141e+01    9.088513e-01
  2.435729e+01    9.165674e-01
  2.437316e+01    8.945201e-01
  2.438904e+01    9.051750e-01
  2.440491e+01    9.064928e-01
  2.442079e+01    9.126201e-01
  2.443666e+01    8.954312e-01
  2.445254e+01    8.947961e-01
  2.446842e+01    8.885102e-01
  2.448429e+01    8.972225e-01
  2.450017e+01    8.945115e-01
  2.451604e+01    8.876995e-01
  2.453192e+01    8.937096e-01
  2.454779e+01    9.131350e-01
  2.456367e+01    8.906338e-01
  2.457954e+01    8.925739e-01
  2.459542e+01    8.877984e-01
  2.461130e+01    8.888939e-01
  2.462717e+01    8.859352e-01
  2.464305e+01    8.774245e-01
  2.465892e+01    8.932040e-01
  2.467480e+01    9.110028e-01
  2.469067e+01    9.054087e-01
  2.470655e+01    9.012967e-01
  2.472242e+01    8.917641e-01
  2.473830e+01    8.985981e-01
  2.475418e+01    9.081380e-01
  2.477005e+01    8.993311e-01
  2.478593e+01    8.986721e-01
  2.480180e+01    9.035149e-01
  2.481768e+01    8.922657e-01
  2.483355e+01    9.043791e-01
  2.484943e+01    9.031888e-01
  2.486530e+01    8.853958e-01
  2.488118e+01    9.144160e-01
  2.489706e+01    9.048268e-01
  2.491293e+01    8.901830e-01
  2.492881e+01    9.027710e-01
  2.494468e+01    9.017462e-01
  2.496056e+01    8.859650e-01
  2.497643e+01    8.821883e-01
  2.499231e+01    8.952034e-01
  2.500819e+01    8.876971e-01
  2.502406e+01    9.010888e-01
  2.503994e+01    9.007534e-01
  2.505581e+01    9.225134e-01
  2.507169e+01    9.064778e-01
  2.508756e+01    9.236069e-01
  2.510344e+01    9.354445e-01
  2.511931e+01    9.310958e-01
  2.513519e+01    9.274244e-01
  2.515107e+01    9.100093e-01
  2.516694e+01    9.282443e-01
  2.518282e+01    9.621754e-01
  2.519869e+01    9.455398e-01
  2.521457e+01    9.366944e-01
  2.523044e+01    9.401490e-01
  2.524632e+01    9.513720e-01
  2.526219e+01    9.660472e-01
  2.527807e+01    9.380927e-01
  2.529395e+01    9.507532e-01
  2.530982e+01    9.687160e-01
  2.532570e+01    9.945659e-01
  2.534157e+01    9.885748e-01
  2.535745e+01    9.685609e-01
  2.537332e+01    9.626115e-01
  2.538920e+01    9.900979e-01
  2.540507e+01    9.943185e-01
  2.542095e+01    1.012391e+00
  2.543683e+01    1.016511e+00
  2.545270e+01    1.014074e+00
  2.546858e+01    1.042418e+00
  2.548445e+01    1.028492e+00
  2.550033e+01    1.050037e+00
  2.551620e+01    1.066428e+00
  2.553208e+01    1.070315e+00
  2.554795e+01    1.105568e+00
  2.556383e+01    1.148204e+00
  2.557971e+01    1.185432e+00
  2.559558e+01    1.181992e+00
  2.561146e+01    1.216587e+00
  2.562733e+01    1.259360e+00
  2.564321e+01    1.302529e+00
  2.565908e+01    1.383644e+00
  2.567496e+01    1.437051e+00
  2.569083e+01    1.510867e+00
  2.570671e+01    1.603157e+00
  2.572259e+01    1.706234e+00
  2.573846e+01    1.850274e+00
  2.575434e+01    2.028431e+00
  2.577021e+01    2.219770e+00
  2.578609e+01    2.526466e+00
  2.580196e+01    2.831617e+00
  2.581784e+01    3.225816e+00
  2.583371e+01    3.703674e+00
  2.584959e+01    4.204429e+00
  2.586547e+01    4.711381e+00
  2.588134e+01    5.242389e+00
  2.589722e+01    5.854239e+00
  2.591309e+01    6.389482e+00
  2.592897e+01    6.834707e+00
  2.594484e+01    7.119752e+00
  2.596072e+01    7.158391e+00
  2.597660e+01    7.006183e+00
  2.599247e+01    6.600037e+00
  2.600835e+01    5.974692e+00
  2.602422e+01    5.272463e+00
  2.604010e+01    4.603539e+00
  2.605597e+01    3.985704e+00
  2.607185e+01    3.474993e+00
  2.608772e+01    2.984512e+00
  2.610360e+01    2.642376e+00
  2.611948e+01    2.368740e+00
  2.613535e+01    2.172899e+00
  2.615123e+01    1.975749e+00
  2.616710e+01    1.823328e+00
  2.618298e+01    1.704546e+00
  2.619885e+01    1.557226e+00
  2.621473e+01    1.474682e+00
  2.623060e+01    1.419410e+00
  2.624648e+01    1.353454e+00
  2.626236e+01    1.315150e+00
  2.627823e+01    1.287850e+00
  2.629411e+01    1.223762e+00
  2.630998e+01    1.180513e+00
  2.632586e+01    1.166811e+00
  2.634173e+01    1.139643e+00
  2.635761e+01    1.113784e+00
  2.637348e+01    1.082193e+00
  2.638936e+01    1.068423e+00
  2.640524e+01    1.049312e+00
  2.642111e+01    1.053436e+00
  2.643699e+01    1.047418e+00
  2.645286e+01    1.044658e+00
  2.646874e+01    1.024686e+00
  2.648461e+01    1.013332e+00
  2.650049e+01    1.015183e+00
  2.651636e+01    1.003304e+00
  2.653224e+01    9.864630e-01
  2.654812e+01    9.785454e-01
  2.656399e+01    1.000599e+00
  2.657987e+01    1.001493e+00
  2.659574e+01    1.001580e+00
  2.661162e+01    9.942202e-01
  2.662749e+01    9.864457e-01
  2.664337e+01    9.960124e-01
  2.665924e+01    9.900199e-01
  2.667512e+01    9.903117e-01
  2.669100e+01    9.838574e-01
  2.670687e+01    9.563151e-01
  2.672275e+01    9.662575e-01
  2.673862e+01    9.600055e-01
  2.675450e+01    9.807913e-01
  2.677037e+01    9.922843e-01
  2.678625e+01    9.679554e-01
  2.680212e+01    9.738376e-01
  2.681800e+01    9.687116e-01
  2.683388e+01    9.789467e-01
  2.684975e+01    9.945880e-01
  2.686563e+01    9.921404e-01
  2.688150e+01    9.809701e-01
  2.689738e+01    9.954347e-01
  2.691325e+01    1.006784e+00
  2.692913e+01    1.022364e+00
  2.694501e+01    1.036939e+00
  2.696088e+01    1.035627e+00
  2.697676e+01    1.058393e+00
  2.699263e+01    1.072891e+00
  2.700851e+01    1.083121e+00
  2.702438e+01    1.150020e+00
  2.704026e+01    1.203550e+00
  2.705613e+01    1.253714e+00
  2.707201e+01    1.336768e+00
  2.708789e+01    1.426565e+00
  2.710376e+01    1.512798e+00
  2.711964e+01    1.560826e+00
  2.713551e+01    1.722385e+00
  2.715139e+01    1.871361e+00
  2.716726e+01    1.983065e+00
  2.718314e+01    2.102037e+00
  2.719901e+01    2.155663e+00
  2.721489e+01    2.172409e+00
  2.723077e+01    2.178757e+00
  2.724664e+01    2.122703e+00
  2.726252e+01    1.965343e+00
  2.727839e+01    1.858468e+00
  2.729427e+01    1.708484e+00
  2.731014e+01    1.572257e+00
  2.732602e+01    1.467330e+00
  2.734189e+01    1.356711e+00
  2.735777e+01    1.291724e+00
  2.737365e+01    1.221103e+00
  2.738952e+01    1.177175e+00
  2.740540e+01    1.142236e+00
  2.742127e+01    1.117931e+00
  2.743715e+01    1.100026e+00
  2.745302e+01    1.061687e+00
  2.746890e+01    1.026516e+00
  2.748477e+01    9.942017e-01
  2.750065e+01    9.583354e-01
  2.751653e+01    9.658737e-01
  2.753240e+01    9.682147e-01
  2.754828e+01    9.730895e-01
  2.756415e+01    9.741756e-01
  2.758003e+01    9.567151e-01
  2.759590e+01    9.472042e-01
  2.761178e+01    9.317027e-01
  2.762765e+01    9.181615e-01
  2.764353e+01    9.216527e-01
  2.765941e+01    9.151469e-01
  2.767528e+01    9.127456e-01
  2.769116e+01    8.786604e-01
  2.770703e+01    8.825890e-01
  2.772291e+01    9.068852e-01
  2.773878e+01    8.932822e-01
  2.775466e+01    9.005959e-01
  2.777054e+01    9.108178e-01
  2.778641e+01    8.942461e-01
  2.780229e+01    8.882561e-01
  2.781816e+01    8.670906e-01
  2.783404e+01    8.559077e-01
  2.784991e+01    8.625066e-01
  2.786579e+01    8.962717e-01
  2.788166e+01    8.940159e-01
  2.789754e+01    8.767330e-01
  2.791342e+01    8.755949e-01
  2.792929e+01    8.730173e-01
  2.794517e+01    8.895401e-01
  2.796104e+01    8.894351e-01
  2.797692e+01    8.754591e-01
  2.799279e+01    8.668308e-01
  2.800867e+01    8.642048e-01
  2.802454e+01    8.734865e-01
  2.804042e+01    8.889363e-01
  2.805630e+01    8.743814e-01
  2.807217e+01    8.566150e-01
  2.808805e+01    8.663508e-01
  2.810392e+01    8.683507e-01
  2.811980e+01    8.412691e-01
  2.813567e+01    8.469653e-01
  2.815155e+01    8.625063e-01
  2.816742e+01    8.512614e-01
  2.818330e+01    8.509060e-01
  2.819918e+01    8.403456e-01
  2.821505e+01    8.667400e-01
  2.823093e+01    8.610330e-01
  2.824680e+01    8.503200e-01
  2.826268e+01    8.602266e-01
  2.827855e+01    8.828872e-01
  2.829443e+01    8.378784e-01
  2.831030e+01    8.689358e-01
  2.832618e+01    8.696655e-01
  2.834206e+01    8.715057e-01
  2.835793e+01    8.550714e-01
  2.837381e+01    8.324090e-01
  2.838968e+01    8.555181e-01
  2.840556e+01    8.710699e-01
  2.842143e+01    8.553340e-01
  2.843731e+01    8.395178e-01
  2.845318e+01    8.323629e-01
  2.846906e+01    8.255368e-01
  2.848494e+01    8.466929e-01
  2.850081e+01    8.389478e-01
  2.851669e+01    8.498828e-01
  2.853256e+01    8.476839e-01
  2.854844e+01    8.347294e-01
  2.856431e+01    8.274811e-01
  2.858019e+01    8.285104e-01
  2.859606e+01    8.212221e-01
  2.861194e+01    8.065218e-01
  2.862782e+01    8.276311e-01
  2.864369e+01    8.137357e-01
  2.865957e+01    8.316113e-01
  2.867544e+01    8.400747e-01
  2.869132e+01    8.331493e-01
  2.870719e+01    8.221313e-01
  2.872307e+01    8.427107e-01
  2.873895e+01    8.231784e-01
  2.875482e+01    8.193051e-01
  2.877070e+01    8.286673e-01
  2.878657e+01    8.339709e-01
  2.880245e+01    8.244615e-01
  2.881832e+01    8.337304e-01
  2.883420e+01    8.395851e-01
  2.885007e+01    8.251823e-01
  2.886595e+01    8.185843e-01
  2.888183e+01    8.420831e-01
  2.889770e+01    8.487569e-01
  2.891358e+01    8.489199e-01
  2.892945e+01    8.312566e-01
  2.894533e+01    8.360005e-01
  2.896120e+01    8.287381e-01
  2.897708e+01    8.056929e-01
  2.899295e+01    8.198467e-01
  2.900883e+01    8.149999e-01
  2.902471e+01    8.089572e-01
  2.904058e+01    8.123661e-01
  2.905646e+01    8.173438e-01
  2.907233e+01    8.173364e-01
  2.908821e+01    8.223717e-01
  2.910408e+01    7.984121e-01
  2.911996e+01    7.996916e-01
  2.913583e+01    8.184820e-01
  2.915171e+01    8.380919e-01
  2.916759e+01    8.081937e-01
  2.918346e+01    8.010703e-01
  2.919934e+01    8.003521e-01
  2.921521e+01    7.999184e-01
  2.923109e+01    8.183339e-01
  2.924696e+01    8.156695e-01
  2.926284e+01    8.237129e-01
  2.927871e+01    8.366747e-01
  2.929459e+01    8.431966e-01
  2.931047e+01    8.265339e-01
  2.932634e+01    8.265636e-01
  2.934222e+01    8.131962e-01
  2.935809e+01    8.124095e-01
  2.937397e+01    8.056823e-01
  2.938984e+01    8.066323e-01
  2.940572e+01    8.052831e-01
  2.942159e+01    8.089215e-01
  2.943747e+01    8.062362e-01
  2.945335e+01    8.084021e-01
  2.946922e+01    8.096880e-01
  2.948510e+01    7.967216e-01
  2.950097e+01    7.969693e-01
  2.951685e+01    8.112777e-01
  2.953272e+01    8.034526e-01
  2.954860e+01    7.861534e-01
  2.956447e+01    7.968616e-01
  2.958035e+01    8.046823e-01
  2.959623e+01    8.021507e-01
  2.961210e+01    7.925348e-01
  2.962798e+01    8.167669e-01
  2.964385e+01    8.105626e-01
  2.965973e+01    7.973553e-01
  2.967560e+01    8.076764e-01
  2.969148e+01    7.924508e-01
  2.970736e+01    7.998599e-01
  2.972323e+01    8.052424e-01
  2.973911e+01    8.054510e-01
  2.975498e+01    8.095323e-01
  2.977086e+01    7.882177e-01
  2.978673e+01    7.972077e-01
  2.980261e+01    7.952999e-01
  2.981848e+01    8.036909e-01
  2.983436e+01    8.130840e-01
  2.985024e+01    7.991606e-01
  2.986611e+01    7.813905e-01
  2.988199e+01    7.870066e-01
  2.989786e+01    8.011186e-01
  2.991374e+01    8.002063e-01
  2.992961e+01    8.014171e-01
  2.994549e+01    8.119492e-01
  2.996136e+01    7.986583e-01
  2.997724e+01    7.971285e-01
  2.999312e+01    8.133112e-01
  3.000899e+01    8.265173e-01
  3.002487e+01    8.028167e-01
  3.004074e+01    8.207417e-01
  3.005662e+01    8.227148e-01
  3.007249e+01    8.286632e-01
  3.008837e+01    8.124141e-01
  3.010424e+01    8.045668e-01
  3.012012e+01    7.970674e-01
  3.013600e+01    7.831461e-01
  3.015187e+01    7.876413e-01
  3.016775e+01    7.932826e-01
  3.018362e+01    7.988578e-01
  3.019950e+01    7.891878e-01
  3.021537e+01    7.937663e-01
  3.023125e+01    8.187186e-01
  3.024712e+01    7.877026e-01
  3.026300e+01    7.848765e-01
  3.027888e+01    7.881404e-01
  3.029475e+01    7.616151e-01
  3.031063e+01    7.764587e-01
  3.032650e+01    7.772459e-01
  3.034238e+01    7.869613e-01
  3.035825e+01    7.937986e-01
  3.037413e+01    8.285186e-01
  3.039000e+01    7.877988e-01
  3.040588e+01    7.988917e-01
  3.042176e+01    7.936122e-01
  3.043763e+01    7.767642e-01
  3.045351e+01    7.841320e-01
  3.046938e+01    7.899997e-01
  3.048526e+01    7.906573e-01
  3.050113e+01    7.830417e-01
  3.051701e+01    8.025495e-01
  3.053288e+01    7.936403e-01
  3.054876e+01    8.132682e-01
  3.056464e+01    8.153526e-01
  3.058051e+01    7.894512e-01
  3.059639e+01    7.723142e-01
  3.061226e+01    8.006508e-01
  3.062814e+01    7.936566e-01
  3.064401e+01    7.615650e-01
  3.065989e+01    7.873150e-01
  3.067577e+01    7.845972e-01
  3.069164e+01    7.814738e-01
  3.070752e+01    7.889515e-01
  3.072339e+01    7.723520e-01
  3.073927e+01    8.074362e-01
  3.075514e+01    8.133399e-01
  3.077102e+01    7.955933e-01
  3.078689e+01    7.873414e-01
  3.080277e+01    7.938846e-01
  3.081865e+01    7.972736e-01
  3.083452e+01    7.797076e-01
  3.085040e+01    8.008926e-01
  3.086627e+01    7.902735e-01
  3.088215e+01    7.837095e-01
  3.089802e+01    7.854400e-01
  3.091390e+01    7.932278e-01
  3.092977e+01    7.907302e-01
  3.094565e+01    7.773083e-01
  3.096153e+01    7.929538e-01
  3.097740e+01    7.972525e-01
  3.099328e+01    8.029201e-01
  3.100915e+01    7.954890e-01
  3.102503e+01    7.762908e-01
  3.104090e+01    7.904800e-01
  3.105678e+01    7.929707e-01
  3.107265e+01    7.757093e-01
  3.108853e+01    7.901066e-01
  3.110441e+01    8.064795e-01
  3.112028e+01    7.999474e-01
  3.113616e+01    7.864412e-01
  3.115203e+01    7.910942e-01
  3.116791e+01    7.992952e-01
  3.118378e+01    8.119504e-01
  3.119966e+01    8.059089e-01
  3.121553e+01    8.068509e-01
  3.123141e+01    8.042609e-01
  3.124729e+01    7.889423e-01
  3.126316e+01    7.893862e-01
  3.127904e+01    8.033310e-01
  3.129491e+01    8.171282e-01
  3.131079e+01    8.065864e-01
  3.132666e+01    7.992848e-01
  3.134254e+01    8.247332e-01
  3.135841e+01    8.000610e-01
  3.137429e+01    7.905896e-01
  3.139017e+01    8.125365e-01
  3.140604e+01    8.067400e-01
  3.142192e+01    8.174271e-01
  3.143779e+01    8.068898e-01
  3.145367e+01    8.064274e-01
  3.146954e+01    8.182060e-01
  3.148542e+01    8.190811e-01
  3.150129e+01    8.213677e-01
  3.151717e+01    8.527471e-01
  3.153305e+01    8.675084e-01
  3.154892e+01    8.658645e-01
  3.156480e+01    8.594741e-01
  3.158067e+01    8.579348e-01
  3.159655e+01    8.609665e-01
  3.161242e+01    8.967166e-01
  3.162830e+01    9.012485e-01
  3.164418e+01    9.206177e-01
  3.166005e+01    9.438338e-01
  3.167593e+01    9.785544e-01
  3.169180e+01    9.951130e-01
  3.170768e+01    1.042128e+00
  3.172355e+01    1.089258e+00
  3.173943e+01    1.124225e+00
  3.175530e+01    1.195983e+00
  3.177118e+01    1.262678e+00
  3.178706e+01    1.335542e+00
  3.180293e+01    1.470569e+00
  3.181881e+01    1.618800e+00
  3.183468e+01    1.725108e+00
  3.185056e+01    1.852637e+00
  3.186643e+01    1.969806e+00
  3.188231e+01    2.032424e+00
  3.189818e+01    2.105090e+00
  3.191406e+01    2.090809e+00
  3.192994e+01    2.034773e+00
  3.194581e+01    1.945941e+00
  3.196169e+01    1.812658e+00
  3.197756e+01    1.657634e+00
  3.199344e+01    1.540776e+00
  3.200931e+01    1.447342e+00
  3.202519e+01    1.316521e+00
  3.204106e+01    1.226074e+00
  3.205694e+01    1.129687e+00
  3.207282e+01    1.071067e+00
  3.208869e+01    1.015092e+00
  3.210457e+01    9.813817e-01
  3.212044e+01    9.694704e-01
  3.213632e+01    9.592143e-01
  3.215219e+01    9.255658e-01
  3.216807e+01    8.979087e-01
  3.218394e+01    8.853113e-01
  3.219982e+01    8.796556e-01
  3.221570e+01    8.533457e-01
  3.223157e+01    8.372483e-01
  3.224745e+01    8.379453e-01
  3.226332e+01    8.538656e-01
  3.227920e+01    8.489540e-01
  3.229507e+01    8.230695e-01
  3.231095e+01    8.057839e-01
  3.232682e+01    8.135573e-01
  3.234270e+01    7.976515e-01
  3.235858e+01    8.021401e-01
  3.237445e+01    8.093999e-01
  3.239033e+01    8.019598e-01
  3.240620e+01    8.079330e-01
  3.242208e+01    7.785870e-01
  3.243795e+01    7.850977e-01
  3.245383e+01    7.803409e-01
  3.246970e+01    8.096174e-01
  3.248558e+01    7.839417e-01
  3.250146e+01    7.891215e-01
  3.251733e+01    7.885998e-01
  3.253321e+01    7.909811e-01
  3.254908e+01    7.562506e-01
