# == pyFAI calibration ==
# Distance Sample to Detector: 0.3999999939076516 m
# PONI: 9.750e-02, 1.135e-01 m
# Rotations: -0.000175 0.000000 -0.000000 rad
# 
# == Fit2d calibration ==
# Distance Sample-beamCenter: 400.000 mm
# Center: x=1514.000, y=1300.000 pix
# Tilt: 0.010 deg  TiltPlanRot: 0.010 deg
# 
# Detector Detector	 Spline= None	 PixelSize= 7.500e-05, 7.500e-05 m
#    Detector has a mask: False 
#    Detector has a dark current: False 
#    detector has a flat field: False 
# 
# Wavelength: 6.888e-11 m
# Mask applied: user provided
# Dark current applied: False
# Flat field applied: False
# Polarization factor: 0.99
# Normalization factor: 1.0
# --> /home/myspot/data/2024_07_Rosario/Ru-CGO-ex/2024-07-27_003_Ru-CGO-ex_Reaction_dwell_000023_data_000085.dat
#       q_nm^-1             I 
  2.003187e-02    0.000000e+00
  3.590745e-02    0.000000e+00
  5.178302e-02    2.671064e-02
  6.765859e-02    1.327216e-01
  8.353417e-02    2.061996e-01
  9.940974e-02    6.332529e-02
  1.152853e-01    4.336030e-02
  1.311609e-01    4.873809e-02
  1.470365e-01    1.007033e-01
  1.629120e-01    4.192592e-02
  1.787876e-01    3.289878e-02
  1.946632e-01    2.815074e-02
  2.105388e-01    1.681185e-02
  2.264143e-01    4.999940e-02
  2.422899e-01    5.395178e-02
  2.581655e-01    5.419579e-02
  2.740411e-01    4.916428e-02
  2.899166e-01    2.605168e-02
  3.057922e-01    6.011055e-02
  3.216678e-01    5.352619e-02
  3.375433e-01    2.231732e-02
  3.534189e-01    5.636749e-02
  3.692945e-01    7.729653e-02
  3.851701e-01    6.206330e-02
  4.010456e-01    3.415168e-02
  4.169212e-01    3.327999e-02
  4.327968e-01    1.540672e-02
  4.486724e-01    2.495055e-02
  4.645479e-01    4.051188e-02
  4.804235e-01    2.329580e-02
  4.962991e-01    2.453453e-02
  5.121747e-01    1.797795e-02
  5.280502e-01    2.860043e-02
  5.439258e-01    5.067045e-02
  5.598014e-01    6.018349e-02
  5.756770e-01    7.183904e-02
  5.915525e-01    5.284949e-02
  6.074281e-01    3.253605e-02
  6.233037e-01    4.492742e-02
  6.391793e-01    5.881900e-02
  6.550548e-01    5.833473e-02
  6.709304e-01    4.730640e-02
  6.868060e-01    3.360362e-02
  7.026815e-01    2.609477e-02
  7.185571e-01    3.099150e-02
  7.344327e-01    3.556789e-02
  7.503083e-01    5.042149e-02
  7.661838e-01    1.016082e-01
  7.820594e-01    1.169078e-01
  7.979350e-01    1.513788e-01
  8.138106e-01    2.367577e-01
  8.296861e-01    3.150858e-01
  8.455617e-01    3.636588e-01
  8.614373e-01    4.468090e-01
  8.773129e-01    4.658871e-01
  8.931884e-01    5.432667e-01
  9.090640e-01    6.386687e-01
  9.249396e-01    6.565726e-01
  9.408152e-01    7.533180e-01
  9.566907e-01    8.651156e-01
  9.725663e-01    9.172127e-01
  9.884419e-01    1.112527e+00
  1.004317e+00    1.210477e+00
  1.020193e+00    1.274625e+00
  1.036069e+00    1.274616e+00
  1.051944e+00    1.379867e+00
  1.067820e+00    1.529984e+00
  1.083695e+00    1.565495e+00
  1.099571e+00    1.491181e+00
  1.115446e+00    1.612119e+00
  1.131322e+00    1.624957e+00
  1.147198e+00    1.682780e+00
  1.163073e+00    1.614735e+00
  1.178949e+00    1.610151e+00
  1.194824e+00    1.759387e+00
  1.210700e+00    2.040833e+00
  1.226575e+00    2.266411e+00
  1.242451e+00    2.423664e+00
  1.258327e+00    2.415053e+00
  1.274202e+00    2.508108e+00
  1.290078e+00    2.652282e+00
  1.305953e+00    2.673259e+00
  1.321829e+00    2.828370e+00
  1.337705e+00    2.813407e+00
  1.353580e+00    2.709636e+00
  1.369456e+00    2.761993e+00
  1.385331e+00    2.847450e+00
  1.401207e+00    2.885248e+00
  1.417082e+00    2.897627e+00
  1.432958e+00    2.927152e+00
  1.448834e+00    2.949060e+00
  1.464709e+00    2.885679e+00
  1.480585e+00    2.914855e+00
  1.496460e+00    3.069347e+00
  1.512336e+00    3.255574e+00
  1.528211e+00    3.312745e+00
  1.544087e+00    3.326611e+00
  1.559963e+00    3.293460e+00
  1.575838e+00    3.272682e+00
  1.591714e+00    3.423586e+00
  1.607589e+00    3.335603e+00
  1.623465e+00    3.156740e+00
  1.639340e+00    3.133430e+00
  1.655216e+00    3.236561e+00
  1.671092e+00    3.249252e+00
  1.686967e+00    3.227563e+00
  1.702843e+00    3.117576e+00
  1.718718e+00    3.072437e+00
  1.734594e+00    2.998382e+00
  1.750469e+00    3.050828e+00
  1.766345e+00    3.039545e+00
  1.782221e+00    2.969378e+00
  1.798096e+00    2.915244e+00
  1.813972e+00    3.066655e+00
  1.829847e+00    3.182926e+00
  1.845723e+00    3.184367e+00
  1.861598e+00    3.111522e+00
  1.877474e+00    3.116396e+00
  1.893350e+00    3.053469e+00
  1.909225e+00    3.047549e+00
  1.925101e+00    3.093156e+00
  1.940976e+00    2.971478e+00
  1.956852e+00    3.011304e+00
  1.972727e+00    3.093022e+00
  1.988603e+00    2.984154e+00
  2.004479e+00    3.009158e+00
  2.020354e+00    3.068626e+00
  2.036230e+00    3.076980e+00
  2.052105e+00    3.036072e+00
  2.067981e+00    3.034900e+00
  2.083856e+00    3.172997e+00
  2.099732e+00    3.110794e+00
  2.115608e+00    3.198665e+00
  2.131483e+00    3.076499e+00
  2.147359e+00    3.020148e+00
  2.163234e+00    3.106334e+00
  2.179110e+00    3.236608e+00
  2.194985e+00    3.110932e+00
  2.210861e+00    3.177908e+00
  2.226737e+00    3.290454e+00
  2.242612e+00    3.111518e+00
  2.258488e+00    3.068136e+00
  2.274363e+00    3.075249e+00
  2.290239e+00    3.199040e+00
  2.306115e+00    3.150948e+00
  2.321990e+00    3.256592e+00
  2.337866e+00    3.188715e+00
  2.353741e+00    3.240252e+00
  2.369617e+00    3.136670e+00
  2.385492e+00    3.127609e+00
  2.401368e+00    3.151943e+00
  2.417244e+00    3.159432e+00
  2.433119e+00    3.201163e+00
  2.448995e+00    3.173161e+00
  2.464870e+00    3.317944e+00
  2.480746e+00    3.340252e+00
  2.496621e+00    3.219460e+00
  2.512497e+00    3.232536e+00
  2.528373e+00    3.261826e+00
  2.544248e+00    3.334508e+00
  2.560124e+00    3.328730e+00
  2.575999e+00    3.184397e+00
  2.591875e+00    3.186462e+00
  2.607750e+00    3.199178e+00
  2.623626e+00    3.195719e+00
  2.639502e+00    3.178950e+00
  2.655377e+00    3.241471e+00
  2.671253e+00    3.264272e+00
  2.687128e+00    3.256260e+00
  2.703004e+00    3.281560e+00
  2.718879e+00    3.241426e+00
  2.734755e+00    3.224688e+00
  2.750631e+00    3.261452e+00
  2.766506e+00    3.278303e+00
  2.782382e+00    3.360361e+00
  2.798257e+00    3.350736e+00
  2.814133e+00    3.182198e+00
  2.830008e+00    3.240091e+00
  2.845884e+00    3.304100e+00
  2.861760e+00    3.303001e+00
  2.877635e+00    3.300233e+00
  2.893511e+00    3.364065e+00
  2.909386e+00    3.348609e+00
  2.925262e+00    3.171464e+00
  2.941137e+00    3.271779e+00
  2.957013e+00    3.321243e+00
  2.972889e+00    3.373319e+00
  2.988764e+00    3.349344e+00
  3.004640e+00    3.391113e+00
  3.020515e+00    3.390805e+00
  3.036391e+00    3.371212e+00
  3.052266e+00    3.358670e+00
  3.068142e+00    3.378143e+00
  3.084018e+00    3.385965e+00
  3.099893e+00    3.346058e+00
  3.115769e+00    3.381044e+00
  3.131644e+00    3.308809e+00
  3.147520e+00    3.353258e+00
  3.163395e+00    3.437538e+00
  3.179271e+00    3.424148e+00
  3.195147e+00    3.369706e+00
  3.211022e+00    3.331200e+00
  3.226898e+00    3.285685e+00
  3.242773e+00    3.356679e+00
  3.258649e+00    3.447700e+00
  3.274525e+00    3.441552e+00
  3.290400e+00    3.370106e+00
  3.306276e+00    3.385835e+00
  3.322151e+00    3.554910e+00
  3.338027e+00    3.524117e+00
  3.353902e+00    3.390248e+00
  3.369778e+00    3.379167e+00
  3.385654e+00    3.365902e+00
  3.401529e+00    3.409187e+00
  3.417405e+00    3.434294e+00
  3.433280e+00    3.434191e+00
  3.449156e+00    3.468677e+00
  3.465031e+00    3.471144e+00
  3.480907e+00    3.461620e+00
  3.496783e+00    3.511398e+00
  3.512658e+00    3.437323e+00
  3.528534e+00    3.480341e+00
  3.544409e+00    3.581972e+00
  3.560285e+00    3.571465e+00
  3.576160e+00    3.513501e+00
  3.592036e+00    3.569743e+00
  3.607912e+00    3.502122e+00
  3.623787e+00    3.477685e+00
  3.639663e+00    3.477774e+00
  3.655538e+00    3.469061e+00
  3.671414e+00    3.419731e+00
  3.687289e+00    3.447413e+00
  3.703165e+00    3.443411e+00
  3.719041e+00    3.512368e+00
  3.734916e+00    3.430784e+00
  3.750792e+00    3.449822e+00
  3.766667e+00    3.582843e+00
  3.782543e+00    3.564167e+00
  3.798418e+00    3.532414e+00
  3.814294e+00    3.479929e+00
  3.830170e+00    3.533788e+00
  3.846045e+00    3.538826e+00
  3.861921e+00    3.522704e+00
  3.877796e+00    3.499071e+00
  3.893672e+00    3.502161e+00
  3.909547e+00    3.481897e+00
  3.925423e+00    3.376122e+00
  3.941299e+00    3.507863e+00
  3.957174e+00    3.557390e+00
  3.973050e+00    3.562162e+00
  3.988925e+00    3.602500e+00
  4.004801e+00    3.566362e+00
  4.020676e+00    3.561037e+00
  4.036552e+00    3.493967e+00
  4.052428e+00    3.471883e+00
  4.068303e+00    3.497171e+00
  4.084179e+00    3.453171e+00
  4.100054e+00    3.474975e+00
  4.115930e+00    3.485805e+00
  4.131806e+00    3.540363e+00
  4.147681e+00    3.513910e+00
  4.163557e+00    3.474477e+00
  4.179432e+00    3.555965e+00
  4.195308e+00    3.622234e+00
  4.211183e+00    3.558441e+00
  4.227059e+00    3.528214e+00
  4.242935e+00    3.597973e+00
  4.258810e+00    3.583393e+00
  4.274686e+00    3.616275e+00
  4.290561e+00    3.602600e+00
  4.306437e+00    3.528451e+00
  4.322312e+00    3.473495e+00
  4.338188e+00    3.547668e+00
  4.354064e+00    3.709379e+00
  4.369939e+00    3.629277e+00
  4.385815e+00    3.632328e+00
  4.401690e+00    3.550795e+00
  4.417566e+00    3.564578e+00
  4.433441e+00    3.663338e+00
  4.449317e+00    3.620368e+00
  4.465193e+00    3.573601e+00
  4.481068e+00    3.491309e+00
  4.496944e+00    3.468291e+00
  4.512819e+00    3.543684e+00
  4.528695e+00    3.598417e+00
  4.544570e+00    3.541058e+00
  4.560446e+00    3.555230e+00
  4.576322e+00    3.546899e+00
  4.592197e+00    3.661333e+00
  4.608073e+00    3.700028e+00
  4.623948e+00    3.671218e+00
  4.639824e+00    3.696536e+00
  4.655699e+00    3.628514e+00
  4.671575e+00    3.673196e+00
  4.687451e+00    3.668516e+00
  4.703326e+00    3.576072e+00
  4.719202e+00    3.613486e+00
  4.735077e+00    3.680316e+00
  4.750953e+00    3.636064e+00
  4.766828e+00    3.611477e+00
  4.782704e+00    3.544260e+00
  4.798580e+00    3.601025e+00
  4.814455e+00    3.619479e+00
  4.830331e+00    3.628487e+00
  4.846206e+00    3.667665e+00
  4.862082e+00    3.678082e+00
  4.877957e+00    3.607235e+00
  4.893833e+00    3.587806e+00
  4.909709e+00    3.665657e+00
  4.925584e+00    3.621844e+00
  4.941460e+00    3.651792e+00
  4.957335e+00    3.634575e+00
  4.973211e+00    3.606426e+00
  4.989086e+00    3.574896e+00
  5.004962e+00    3.555866e+00
  5.020838e+00    3.625375e+00
  5.036713e+00    3.693437e+00
  5.052589e+00    3.640418e+00
  5.068464e+00    3.691355e+00
  5.084340e+00    3.671212e+00
  5.100216e+00    3.693851e+00
  5.116091e+00    3.645802e+00
  5.131967e+00    3.596218e+00
  5.147842e+00    3.595021e+00
  5.163718e+00    3.704611e+00
  5.179593e+00    3.745799e+00
  5.195469e+00    3.640229e+00
  5.211345e+00    3.635326e+00
  5.227220e+00    3.654768e+00
  5.243096e+00    3.705513e+00
  5.258971e+00    3.753044e+00
  5.274847e+00    3.712678e+00
  5.290722e+00    3.597509e+00
  5.306598e+00    3.620636e+00
  5.322474e+00    3.653036e+00
  5.338349e+00    3.649257e+00
  5.354225e+00    3.645219e+00
  5.370100e+00    3.673356e+00
  5.385976e+00    3.645653e+00
  5.401851e+00    3.576468e+00
  5.417727e+00    3.646224e+00
  5.433603e+00    3.663670e+00
  5.449478e+00    3.558647e+00
  5.465354e+00    3.652393e+00
  5.481229e+00    3.628753e+00
  5.497105e+00    3.582039e+00
  5.512980e+00    3.654469e+00
  5.528856e+00    3.650858e+00
  5.544732e+00    3.643893e+00
  5.560607e+00    3.594956e+00
  5.576483e+00    3.580032e+00
  5.592358e+00    3.547622e+00
  5.608234e+00    3.570413e+00
  5.624109e+00    3.635202e+00
  5.639985e+00    3.581063e+00
  5.655861e+00    3.548984e+00
  5.671736e+00    3.620726e+00
  5.687612e+00    3.616897e+00
  5.703487e+00    3.611618e+00
  5.719363e+00    3.601919e+00
  5.735238e+00    3.613675e+00
  5.751114e+00    3.579716e+00
  5.766990e+00    3.620226e+00
  5.782865e+00    3.562325e+00
  5.798741e+00    3.569554e+00
  5.814616e+00    3.655846e+00
  5.830492e+00    3.674694e+00
  5.846367e+00    3.580002e+00
  5.862243e+00    3.584824e+00
  5.878119e+00    3.566689e+00
  5.893994e+00    3.503087e+00
  5.909870e+00    3.520733e+00
  5.925745e+00    3.527144e+00
  5.941621e+00    3.550167e+00
  5.957497e+00    3.602443e+00
  5.973372e+00    3.593465e+00
  5.989248e+00    3.578105e+00
  6.005123e+00    3.485781e+00
  6.020999e+00    3.428063e+00
  6.036874e+00    3.454815e+00
  6.052750e+00    3.530776e+00
  6.068626e+00    3.514072e+00
  6.084501e+00    3.561744e+00
  6.100377e+00    3.661779e+00
  6.116252e+00    3.712018e+00
  6.132128e+00    3.649880e+00
  6.148003e+00    3.638276e+00
  6.163879e+00    3.643809e+00
  6.179755e+00    3.589931e+00
  6.195630e+00    3.541458e+00
  6.211506e+00    3.568051e+00
  6.227381e+00    3.541395e+00
  6.243257e+00    3.469480e+00
  6.259132e+00    3.551115e+00
  6.275008e+00    3.558654e+00
  6.290884e+00    3.520011e+00
  6.306759e+00    3.484838e+00
  6.322635e+00    3.524784e+00
  6.338510e+00    3.568905e+00
  6.354386e+00    3.567609e+00
  6.370261e+00    3.546743e+00
  6.386137e+00    3.487704e+00
  6.402013e+00    3.520647e+00
  6.417888e+00    3.549496e+00
  6.433764e+00    3.566923e+00
  6.449639e+00    3.549255e+00
  6.465515e+00    3.548130e+00
  6.481390e+00    3.569499e+00
  6.497266e+00    3.563271e+00
  6.513142e+00    3.514316e+00
  6.529017e+00    3.504029e+00
  6.544893e+00    3.518192e+00
  6.560768e+00    3.519966e+00
  6.576644e+00    3.521387e+00
  6.592519e+00    3.493929e+00
  6.608395e+00    3.569826e+00
  6.624271e+00    3.580388e+00
  6.640146e+00    3.485576e+00
  6.656022e+00    3.488113e+00
  6.671897e+00    3.562448e+00
  6.687773e+00    3.567938e+00
  6.703648e+00    3.574815e+00
  6.719524e+00    3.606021e+00
  6.735400e+00    3.571383e+00
  6.751275e+00    3.493731e+00
  6.767151e+00    3.520133e+00
  6.783026e+00    3.579657e+00
  6.798902e+00    3.533388e+00
  6.814777e+00    3.553090e+00
  6.830653e+00    3.513002e+00
  6.846529e+00    3.547118e+00
  6.862404e+00    3.563781e+00
  6.878280e+00    3.579158e+00
  6.894155e+00    3.533518e+00
  6.910031e+00    3.467129e+00
  6.925907e+00    3.518298e+00
  6.941782e+00    3.522004e+00
  6.957658e+00    3.548003e+00
  6.973533e+00    3.522812e+00
  6.989409e+00    3.567797e+00
  7.005284e+00    3.589615e+00
  7.021160e+00    3.507287e+00
  7.037036e+00    3.499683e+00
  7.052911e+00    3.529082e+00
  7.068787e+00    3.558240e+00
  7.084662e+00    3.480045e+00
  7.100538e+00    3.493201e+00
  7.116413e+00    3.569322e+00
  7.132289e+00    3.463524e+00
  7.148165e+00    3.445750e+00
  7.164040e+00    3.549560e+00
  7.179916e+00    3.538604e+00
  7.195791e+00    3.526847e+00
  7.211667e+00    3.551791e+00
  7.227542e+00    3.517540e+00
  7.243418e+00    3.450576e+00
  7.259294e+00    3.495378e+00
  7.275169e+00    3.545592e+00
  7.291045e+00    3.514708e+00
  7.306920e+00    3.569107e+00
  7.322796e+00    3.545966e+00
  7.338671e+00    3.532808e+00
  7.354547e+00    3.444688e+00
  7.370423e+00    3.485005e+00
  7.386298e+00    3.490498e+00
  7.402174e+00    3.555309e+00
  7.418049e+00    3.480882e+00
  7.433925e+00    3.511119e+00
  7.449800e+00    3.499881e+00
  7.465676e+00    3.411257e+00
  7.481552e+00    3.478986e+00
  7.497427e+00    3.438265e+00
  7.513303e+00    3.420733e+00
  7.529178e+00    3.488637e+00
  7.545054e+00    3.479919e+00
  7.560929e+00    3.480784e+00
  7.576805e+00    3.438361e+00
  7.592681e+00    3.414181e+00
  7.608556e+00    3.411812e+00
  7.624432e+00    3.414692e+00
  7.640307e+00    3.452531e+00
  7.656183e+00    3.466385e+00
  7.672058e+00    3.435596e+00
  7.687934e+00    3.408174e+00
  7.703810e+00    3.441172e+00
  7.719685e+00    3.441274e+00
  7.735561e+00    3.366979e+00
  7.751436e+00    3.383470e+00
  7.767312e+00    3.396279e+00
  7.783187e+00    3.392986e+00
  7.799063e+00    3.379672e+00
  7.814939e+00    3.390442e+00
  7.830814e+00    3.444887e+00
  7.846690e+00    3.490280e+00
  7.862565e+00    3.399083e+00
  7.878441e+00    3.443621e+00
  7.894317e+00    3.481482e+00
  7.910192e+00    3.472494e+00
  7.926068e+00    3.470064e+00
  7.941943e+00    3.463957e+00
  7.957819e+00    3.411714e+00
  7.973694e+00    3.408888e+00
  7.989570e+00    3.453593e+00
  8.005446e+00    3.456294e+00
  8.021321e+00    3.450459e+00
  8.037197e+00    3.423864e+00
  8.053072e+00    3.398711e+00
  8.068948e+00    3.484902e+00
  8.084823e+00    3.507271e+00
  8.100699e+00    3.478051e+00
  8.116575e+00    3.419106e+00
  8.132450e+00    3.425178e+00
  8.148326e+00    3.429435e+00
  8.164201e+00    3.458017e+00
  8.180077e+00    3.471217e+00
  8.195952e+00    3.448714e+00
  8.211828e+00    3.435116e+00
  8.227704e+00    3.439630e+00
  8.243579e+00    3.454892e+00
  8.259455e+00    3.436255e+00
  8.275330e+00    3.424844e+00
  8.291206e+00    3.422358e+00
  8.307081e+00    3.453721e+00
  8.322957e+00    3.438644e+00
  8.338833e+00    3.385191e+00
  8.354708e+00    3.394975e+00
  8.370584e+00    3.426342e+00
  8.386459e+00    3.451094e+00
  8.402335e+00    3.403920e+00
  8.418210e+00    3.389389e+00
  8.434086e+00    3.460262e+00
  8.449962e+00    3.526316e+00
  8.465837e+00    3.399297e+00
  8.481713e+00    3.318376e+00
  8.497588e+00    3.361605e+00
  8.513464e+00    3.372180e+00
  8.529339e+00    3.332246e+00
  8.545215e+00    3.323915e+00
  8.561091e+00    3.349590e+00
  8.576966e+00    3.406638e+00
  8.592842e+00    3.358753e+00
  8.608717e+00    3.391097e+00
  8.624593e+00    3.384229e+00
  8.640468e+00    3.346098e+00
  8.656344e+00    3.383699e+00
  8.672220e+00    3.363492e+00
  8.688095e+00    3.349132e+00
  8.703971e+00    3.303789e+00
  8.719846e+00    3.311769e+00
  8.735722e+00    3.361822e+00
  8.751598e+00    3.409680e+00
  8.767473e+00    3.310091e+00
  8.783349e+00    3.318397e+00
  8.799224e+00    3.333813e+00
  8.815100e+00    3.295468e+00
  8.830975e+00    3.295412e+00
  8.846851e+00    3.306274e+00
  8.862727e+00    3.329149e+00
  8.878602e+00    3.283446e+00
  8.894478e+00    3.297355e+00
  8.910353e+00    3.323887e+00
  8.926229e+00    3.364098e+00
  8.942104e+00    3.308443e+00
  8.957980e+00    3.256675e+00
  8.973856e+00    3.306691e+00
  8.989731e+00    3.294203e+00
  9.005607e+00    3.314112e+00
  9.021482e+00    3.265020e+00
  9.037358e+00    3.258772e+00
  9.053233e+00    3.287510e+00
  9.069109e+00    3.330428e+00
  9.084985e+00    3.307129e+00
  9.100860e+00    3.286804e+00
  9.116736e+00    3.304899e+00
  9.132611e+00    3.293143e+00
  9.148487e+00    3.243087e+00
  9.164362e+00    3.219653e+00
  9.180238e+00    3.244390e+00
  9.196114e+00    3.270351e+00
  9.211989e+00    3.202094e+00
  9.227865e+00    3.216179e+00
  9.243740e+00    3.271243e+00
  9.259616e+00    3.230553e+00
  9.275491e+00    3.235358e+00
  9.291367e+00    3.242431e+00
  9.307243e+00    3.259599e+00
  9.323118e+00    3.295670e+00
  9.338994e+00    3.296408e+00
  9.354869e+00    3.279812e+00
  9.370745e+00    3.237412e+00
  9.386620e+00    3.228539e+00
  9.402496e+00    3.221869e+00
  9.418372e+00    3.208325e+00
  9.434247e+00    3.163902e+00
  9.450123e+00    3.172440e+00
  9.465998e+00    3.242492e+00
  9.481874e+00    3.191375e+00
  9.497749e+00    3.175601e+00
  9.513625e+00    3.219773e+00
  9.529501e+00    3.238532e+00
  9.545376e+00    3.236296e+00
  9.561252e+00    3.212073e+00
  9.577127e+00    3.232193e+00
  9.593003e+00    3.209643e+00
  9.608878e+00    3.219380e+00
  9.624754e+00    3.249856e+00
  9.640630e+00    3.187363e+00
  9.656505e+00    3.168926e+00
  9.672381e+00    3.189240e+00
  9.688256e+00    3.236313e+00
  9.704132e+00    3.260079e+00
  9.720008e+00    3.249378e+00
  9.735883e+00    3.183939e+00
  9.751759e+00    3.130145e+00
  9.767634e+00    3.176719e+00
  9.783510e+00    3.203089e+00
  9.799385e+00    3.222615e+00
  9.815261e+00    3.175013e+00
  9.831137e+00    3.110215e+00
  9.847012e+00    3.121639e+00
  9.862888e+00    3.143512e+00
  9.878763e+00    3.132892e+00
  9.894639e+00    3.099488e+00
  9.910514e+00    3.099220e+00
  9.926390e+00    3.126778e+00
  9.942266e+00    3.158359e+00
  9.958141e+00    3.096776e+00
  9.974017e+00    3.106347e+00
  9.989892e+00    3.128754e+00
  1.000577e+01    3.164714e+00
  1.002164e+01    3.161770e+00
  1.003752e+01    3.107254e+00
  1.005339e+01    3.133445e+00
  1.006927e+01    3.082297e+00
  1.008515e+01    3.087481e+00
  1.010102e+01    3.116418e+00
  1.011690e+01    3.144523e+00
  1.013277e+01    3.129443e+00
  1.014865e+01    3.146210e+00
  1.016452e+01    3.130510e+00
  1.018040e+01    3.075297e+00
  1.019627e+01    3.077513e+00
  1.021215e+01    3.124251e+00
  1.022803e+01    3.102297e+00
  1.024390e+01    3.085481e+00
  1.025978e+01    3.077562e+00
  1.027565e+01    3.131567e+00
  1.029153e+01    3.084385e+00
  1.030740e+01    3.073502e+00
  1.032328e+01    3.038306e+00
  1.033915e+01    3.020148e+00
  1.035503e+01    2.991396e+00
  1.037091e+01    2.988080e+00
  1.038678e+01    3.032834e+00
  1.040266e+01    3.032906e+00
  1.041853e+01    3.025892e+00
  1.043441e+01    2.983983e+00
  1.045028e+01    3.058120e+00
  1.046616e+01    3.052463e+00
  1.048204e+01    3.032662e+00
  1.049791e+01    2.998876e+00
  1.051379e+01    2.976887e+00
  1.052966e+01    2.971233e+00
  1.054554e+01    2.979735e+00
  1.056141e+01    3.035104e+00
  1.057729e+01    3.043386e+00
  1.059316e+01    2.988175e+00
  1.060904e+01    2.977874e+00
  1.062492e+01    3.000151e+00
  1.064079e+01    3.004475e+00
  1.065667e+01    2.953697e+00
  1.067254e+01    2.942137e+00
  1.068842e+01    2.945431e+00
  1.070429e+01    2.968909e+00
  1.072017e+01    2.998001e+00
  1.073604e+01    3.010184e+00
  1.075192e+01    2.982556e+00
  1.076780e+01    2.961249e+00
  1.078367e+01    2.906270e+00
  1.079955e+01    2.909092e+00
  1.081542e+01    2.916987e+00
  1.083130e+01    2.929591e+00
  1.084717e+01    2.961997e+00
  1.086305e+01    2.925117e+00
  1.087892e+01    2.934550e+00
  1.089480e+01    2.929221e+00
  1.091068e+01    2.935913e+00
  1.092655e+01    2.945009e+00
  1.094243e+01    2.999882e+00
  1.095830e+01    2.937069e+00
  1.097418e+01    2.856013e+00
  1.099005e+01    2.902496e+00
  1.100593e+01    2.892947e+00
  1.102180e+01    2.867496e+00
  1.103768e+01    2.860165e+00
  1.105356e+01    2.924703e+00
  1.106943e+01    2.884208e+00
  1.108531e+01    2.859668e+00
  1.110118e+01    2.849596e+00
  1.111706e+01    2.867591e+00
  1.113293e+01    2.896714e+00
  1.114881e+01    2.896627e+00
  1.116468e+01    2.864202e+00
  1.118056e+01    2.857184e+00
  1.119644e+01    2.880838e+00
  1.121231e+01    2.847384e+00
  1.122819e+01    2.860460e+00
  1.124406e+01    2.842659e+00
  1.125994e+01    2.836285e+00
  1.127581e+01    2.847970e+00
  1.129169e+01    2.862050e+00
  1.130756e+01    2.862938e+00
  1.132344e+01    2.855438e+00
  1.133932e+01    2.837088e+00
  1.135519e+01    2.802392e+00
  1.137107e+01    2.777088e+00
  1.138694e+01    2.821423e+00
  1.140282e+01    2.863857e+00
  1.141869e+01    2.842748e+00
  1.143457e+01    2.860385e+00
  1.145045e+01    2.816378e+00
  1.146632e+01    2.796845e+00
  1.148220e+01    2.779112e+00
  1.149807e+01    2.775918e+00
  1.151395e+01    2.825866e+00
  1.152982e+01    2.859413e+00
  1.154570e+01    2.840217e+00
  1.156157e+01    2.829440e+00
  1.157745e+01    2.814529e+00
  1.159333e+01    2.782077e+00
  1.160920e+01    2.792208e+00
  1.162508e+01    2.769367e+00
  1.164095e+01    2.792816e+00
  1.165683e+01    2.737170e+00
  1.167270e+01    2.746139e+00
  1.168858e+01    2.768584e+00
  1.170445e+01    2.763943e+00
  1.172033e+01    2.795758e+00
  1.173621e+01    2.746727e+00
  1.175208e+01    2.727302e+00
  1.176796e+01    2.709440e+00
  1.178383e+01    2.774806e+00
  1.179971e+01    2.719102e+00
  1.181558e+01    2.719254e+00
  1.183146e+01    2.785043e+00
  1.184733e+01    2.762939e+00
  1.186321e+01    2.746879e+00
  1.187909e+01    2.699580e+00
  1.189496e+01    2.685115e+00
  1.191084e+01    2.695002e+00
  1.192671e+01    2.716413e+00
  1.194259e+01    2.717382e+00
  1.195846e+01    2.734423e+00
  1.197434e+01    2.707119e+00
  1.199021e+01    2.681634e+00
  1.200609e+01    2.692674e+00
  1.202197e+01    2.694885e+00
  1.203784e+01    2.728438e+00
  1.205372e+01    2.704408e+00
  1.206959e+01    2.744303e+00
  1.208547e+01    2.717507e+00
  1.210134e+01    2.709257e+00
  1.211722e+01    2.628145e+00
  1.213309e+01    2.674669e+00
  1.214897e+01    2.683672e+00
  1.216485e+01    2.672627e+00
  1.218072e+01    2.651835e+00
  1.219660e+01    2.699420e+00
  1.221247e+01    2.702091e+00
  1.222835e+01    2.697580e+00
  1.224422e+01    2.681128e+00
  1.226010e+01    2.721871e+00
  1.227597e+01    2.783107e+00
  1.229185e+01    2.736321e+00
  1.230773e+01    2.694657e+00
  1.232360e+01    2.716833e+00
  1.233948e+01    2.657583e+00
  1.235535e+01    2.703230e+00
  1.237123e+01    2.673946e+00
  1.238710e+01    2.668679e+00
  1.240298e+01    2.655357e+00
  1.241886e+01    2.652119e+00
  1.243473e+01    2.656418e+00
  1.245061e+01    2.694917e+00
  1.246648e+01    2.712503e+00
  1.248236e+01    2.686999e+00
  1.249823e+01    2.697010e+00
  1.251411e+01    2.696647e+00
  1.252998e+01    2.732900e+00
  1.254586e+01    2.751031e+00
  1.256174e+01    2.763034e+00
  1.257761e+01    2.741850e+00
  1.259349e+01    2.754799e+00
  1.260936e+01    2.765193e+00
  1.262524e+01    2.783078e+00
  1.264111e+01    2.808457e+00
  1.265699e+01    2.827515e+00
  1.267286e+01    2.813822e+00
  1.268874e+01    2.791427e+00
  1.270462e+01    2.849150e+00
  1.272049e+01    2.848794e+00
  1.273637e+01    2.845481e+00
  1.275224e+01    2.846622e+00
  1.276812e+01    2.906832e+00
  1.278399e+01    2.975574e+00
  1.279987e+01    3.011657e+00
  1.281574e+01    3.050261e+00
  1.283162e+01    3.100366e+00
  1.284750e+01    3.190841e+00
  1.286337e+01    3.235042e+00
  1.287925e+01    3.350250e+00
  1.289512e+01    3.464948e+00
  1.291100e+01    3.711093e+00
  1.292687e+01    3.890622e+00
  1.294275e+01    4.091873e+00
  1.295862e+01    4.392510e+00
  1.297450e+01    4.821153e+00
  1.299038e+01    5.342659e+00
  1.300625e+01    6.053161e+00
  1.302213e+01    6.812336e+00
  1.303800e+01    7.814676e+00
  1.305388e+01    9.055480e+00
  1.306975e+01    1.019995e+01
  1.308563e+01    1.160485e+01
  1.310150e+01    1.283140e+01
  1.311738e+01    1.385617e+01
  1.313326e+01    1.497853e+01
  1.314913e+01    1.593748e+01
  1.316501e+01    1.646533e+01
  1.318088e+01    1.647618e+01
  1.319676e+01    1.560208e+01
  1.321263e+01    1.412217e+01
  1.322851e+01    1.243239e+01
  1.324438e+01    1.061704e+01
  1.326026e+01    8.966911e+00
  1.327614e+01    7.806050e+00
  1.329201e+01    6.761281e+00
  1.330789e+01    5.973509e+00
  1.332376e+01    5.347400e+00
  1.333964e+01    4.792531e+00
  1.335551e+01    4.419084e+00
  1.337139e+01    4.111575e+00
  1.338727e+01    3.837213e+00
  1.340314e+01    3.647588e+00
  1.341902e+01    3.484862e+00
  1.343489e+01    3.322191e+00
  1.345077e+01    3.228814e+00
  1.346664e+01    3.135982e+00
  1.348252e+01    3.073304e+00
  1.349839e+01    2.985804e+00
  1.351427e+01    2.894726e+00
  1.353015e+01    2.852291e+00
  1.354602e+01    2.786887e+00
  1.356190e+01    2.709852e+00
  1.357777e+01    2.716115e+00
  1.359365e+01    2.729985e+00
  1.360952e+01    2.686277e+00
  1.362540e+01    2.651991e+00
  1.364127e+01    2.642756e+00
  1.365715e+01    2.611312e+00
  1.367303e+01    2.546198e+00
  1.368890e+01    2.561558e+00
  1.370478e+01    2.561977e+00
  1.372065e+01    2.542561e+00
  1.373653e+01    2.529364e+00
  1.375240e+01    2.541000e+00
  1.376828e+01    2.500637e+00
  1.378415e+01    2.461188e+00
  1.380003e+01    2.413874e+00
  1.381591e+01    2.422769e+00
  1.383178e+01    2.441779e+00
  1.384766e+01    2.430893e+00
  1.386353e+01    2.429435e+00
  1.387941e+01    2.414216e+00
  1.389528e+01    2.380549e+00
  1.391116e+01    2.349208e+00
  1.392703e+01    2.408124e+00
  1.394291e+01    2.408679e+00
  1.395879e+01    2.369844e+00
  1.397466e+01    2.336247e+00
  1.399054e+01    2.341093e+00
  1.400641e+01    2.348048e+00
  1.402229e+01    2.335588e+00
  1.403816e+01    2.335528e+00
  1.405404e+01    2.342696e+00
  1.406991e+01    2.353157e+00
  1.408579e+01    2.313908e+00
  1.410167e+01    2.306138e+00
  1.411754e+01    2.307387e+00
  1.413342e+01    2.310184e+00
  1.414929e+01    2.313976e+00
  1.416517e+01    2.295937e+00
  1.418104e+01    2.304267e+00
  1.419692e+01    2.308583e+00
  1.421279e+01    2.329985e+00
  1.422867e+01    2.311690e+00
  1.424455e+01    2.308311e+00
  1.426042e+01    2.299404e+00
  1.427630e+01    2.263453e+00
  1.429217e+01    2.255408e+00
  1.430805e+01    2.282330e+00
  1.432392e+01    2.247738e+00
  1.433980e+01    2.245355e+00
  1.435568e+01    2.233408e+00
  1.437155e+01    2.241088e+00
  1.438743e+01    2.217199e+00
  1.440330e+01    2.205739e+00
  1.441918e+01    2.236487e+00
  1.443505e+01    2.219570e+00
  1.445093e+01    2.229026e+00
  1.446680e+01    2.238601e+00
  1.448268e+01    2.220945e+00
  1.449856e+01    2.273330e+00
  1.451443e+01    2.259610e+00
  1.453031e+01    2.215916e+00
  1.454618e+01    2.230416e+00
  1.456206e+01    2.236016e+00
  1.457793e+01    2.228926e+00
  1.459381e+01    2.206766e+00
  1.460968e+01    2.172889e+00
  1.462556e+01    2.248975e+00
  1.464144e+01    2.242365e+00
  1.465731e+01    2.231029e+00
  1.467319e+01    2.199867e+00
  1.468906e+01    2.183082e+00
  1.470494e+01    2.157832e+00
  1.472081e+01    2.163404e+00
  1.473669e+01    2.181979e+00
  1.475256e+01    2.170796e+00
  1.476844e+01    2.202417e+00
  1.478432e+01    2.225101e+00
  1.480019e+01    2.215908e+00
  1.481607e+01    2.219295e+00
  1.483194e+01    2.228105e+00
  1.484782e+01    2.233343e+00
  1.486369e+01    2.260490e+00
  1.487957e+01    2.280125e+00
  1.489544e+01    2.263116e+00
  1.491132e+01    2.235393e+00
  1.492720e+01    2.264791e+00
  1.494307e+01    2.258447e+00
  1.495895e+01    2.276843e+00
  1.497482e+01    2.362635e+00
  1.499070e+01    2.382034e+00
  1.500657e+01    2.469631e+00
  1.502245e+01    2.505181e+00
  1.503832e+01    2.566954e+00
  1.505420e+01    2.731136e+00
  1.507008e+01    2.887614e+00
  1.508595e+01    3.045725e+00
  1.510183e+01    3.225964e+00
  1.511770e+01    3.509221e+00
  1.513358e+01    3.773623e+00
  1.514945e+01    4.213033e+00
  1.516533e+01    4.574555e+00
  1.518120e+01    4.936258e+00
  1.519708e+01    5.281035e+00
  1.521296e+01    5.461926e+00
  1.522883e+01    5.545073e+00
  1.524471e+01    5.738137e+00
  1.526058e+01    5.810691e+00
  1.527646e+01    5.692856e+00
  1.529233e+01    5.439686e+00
  1.530821e+01    5.115273e+00
  1.532409e+01    4.599659e+00
  1.533996e+01    4.124513e+00
  1.535584e+01    3.714343e+00
  1.537171e+01    3.404667e+00
  1.538759e+01    3.139163e+00
  1.540346e+01    2.963184e+00
  1.541934e+01    2.796880e+00
  1.543521e+01    2.634426e+00
  1.545109e+01    2.492515e+00
  1.546697e+01    2.438266e+00
  1.548284e+01    2.347578e+00
  1.549872e+01    2.294382e+00
  1.551459e+01    2.261904e+00
  1.553047e+01    2.238234e+00
  1.554634e+01    2.190999e+00
  1.556222e+01    2.141206e+00
  1.557809e+01    2.140505e+00
  1.559397e+01    2.123757e+00
  1.560985e+01    2.133933e+00
  1.562572e+01    2.071017e+00
  1.564160e+01    2.047758e+00
  1.565747e+01    2.049760e+00
  1.567335e+01    1.985928e+00
  1.568922e+01    1.988176e+00
  1.570510e+01    2.005444e+00
  1.572097e+01    2.001136e+00
  1.573685e+01    2.009534e+00
  1.575273e+01    2.004644e+00
  1.576860e+01    1.964768e+00
  1.578448e+01    1.958830e+00
  1.580035e+01    1.951021e+00
  1.581623e+01    1.948088e+00
  1.583210e+01    1.936360e+00
  1.584798e+01    1.921065e+00
  1.586385e+01    1.927568e+00
  1.587973e+01    1.908035e+00
  1.589561e+01    1.887092e+00
  1.591148e+01    1.894860e+00
  1.592736e+01    1.866687e+00
  1.594323e+01    1.894263e+00
  1.595911e+01    1.882671e+00
  1.597498e+01    1.877517e+00
  1.599086e+01    1.876883e+00
  1.600673e+01    1.883695e+00
  1.602261e+01    1.861480e+00
  1.603849e+01    1.887599e+00
  1.605436e+01    1.869020e+00
  1.607024e+01    1.854908e+00
  1.608611e+01    1.866822e+00
  1.610199e+01    1.877965e+00
  1.611786e+01    1.871340e+00
  1.613374e+01    1.852565e+00
  1.614961e+01    1.812773e+00
  1.616549e+01    1.842290e+00
  1.618137e+01    1.827787e+00
  1.619724e+01    1.810640e+00
  1.621312e+01    1.784301e+00
  1.622899e+01    1.816139e+00
  1.624487e+01    1.835211e+00
  1.626074e+01    1.844709e+00
  1.627662e+01    1.815936e+00
  1.629250e+01    1.782447e+00
  1.630837e+01    1.810501e+00
  1.632425e+01    1.817305e+00
  1.634012e+01    1.793029e+00
  1.635600e+01    1.757997e+00
  1.637187e+01    1.760281e+00
  1.638775e+01    1.790361e+00
  1.640362e+01    1.767165e+00
  1.641950e+01    1.754925e+00
  1.643538e+01    1.729811e+00
  1.645125e+01    1.736260e+00
  1.646713e+01    1.751880e+00
  1.648300e+01    1.796710e+00
  1.649888e+01    1.772338e+00
  1.651475e+01    1.746817e+00
  1.653063e+01    1.730330e+00
  1.654650e+01    1.687670e+00
  1.656238e+01    1.732864e+00
  1.657826e+01    1.758978e+00
  1.659413e+01    1.762434e+00
  1.661001e+01    1.722617e+00
  1.662588e+01    1.739513e+00
  1.664176e+01    1.742355e+00
  1.665763e+01    1.726515e+00
  1.667351e+01    1.743114e+00
  1.668938e+01    1.720035e+00
  1.670526e+01    1.727911e+00
  1.672114e+01    1.711518e+00
  1.673701e+01    1.683625e+00
  1.675289e+01    1.694096e+00
  1.676876e+01    1.704210e+00
  1.678464e+01    1.708373e+00
  1.680051e+01    1.738609e+00
  1.681639e+01    1.678861e+00
  1.683226e+01    1.679364e+00
  1.684814e+01    1.692954e+00
  1.686402e+01    1.710811e+00
  1.687989e+01    1.722861e+00
  1.689577e+01    1.715811e+00
  1.691164e+01    1.694540e+00
  1.692752e+01    1.680836e+00
  1.694339e+01    1.683904e+00
  1.695927e+01    1.659791e+00
  1.697514e+01    1.695834e+00
  1.699102e+01    1.680368e+00
  1.700690e+01    1.644025e+00
  1.702277e+01    1.651696e+00
  1.703865e+01    1.648609e+00
  1.705452e+01    1.669978e+00
  1.707040e+01    1.671819e+00
  1.708627e+01    1.652034e+00
  1.710215e+01    1.658136e+00
  1.711802e+01    1.665428e+00
  1.713390e+01    1.664016e+00
  1.714978e+01    1.645351e+00
  1.716565e+01    1.626961e+00
  1.718153e+01    1.646894e+00
  1.719740e+01    1.654422e+00
  1.721328e+01    1.607303e+00
  1.722915e+01    1.594596e+00
  1.724503e+01    1.621630e+00
  1.726091e+01    1.636775e+00
  1.727678e+01    1.597969e+00
  1.729266e+01    1.608484e+00
  1.730853e+01    1.641655e+00
  1.732441e+01    1.630859e+00
  1.734028e+01    1.618634e+00
  1.735616e+01    1.609693e+00
  1.737203e+01    1.647402e+00
  1.738791e+01    1.624651e+00
  1.740379e+01    1.616310e+00
  1.741966e+01    1.567949e+00
  1.743554e+01    1.591028e+00
  1.745141e+01    1.619937e+00
  1.746729e+01    1.634808e+00
  1.748316e+01    1.633482e+00
  1.749904e+01    1.603228e+00
  1.751491e+01    1.570513e+00
  1.753079e+01    1.602511e+00
  1.754667e+01    1.599940e+00
  1.756254e+01    1.591953e+00
  1.757842e+01    1.558586e+00
  1.759429e+01    1.537405e+00
  1.761017e+01    1.550056e+00
  1.762604e+01    1.560041e+00
  1.764192e+01    1.563715e+00
  1.765779e+01    1.581458e+00
  1.767367e+01    1.580377e+00
  1.768955e+01    1.564188e+00
  1.770542e+01    1.541134e+00
  1.772130e+01    1.554514e+00
  1.773717e+01    1.549134e+00
  1.775305e+01    1.532385e+00
  1.776892e+01    1.547405e+00
  1.778480e+01    1.571338e+00
  1.780067e+01    1.546833e+00
  1.781655e+01    1.518703e+00
  1.783243e+01    1.523127e+00
  1.784830e+01    1.529861e+00
  1.786418e+01    1.516527e+00
  1.788005e+01    1.496083e+00
  1.789593e+01    1.539085e+00
  1.791180e+01    1.561401e+00
  1.792768e+01    1.568315e+00
  1.794355e+01    1.534157e+00
  1.795943e+01    1.507921e+00
  1.797531e+01    1.502918e+00
  1.799118e+01    1.526366e+00
  1.800706e+01    1.532146e+00
  1.802293e+01    1.520519e+00
  1.803881e+01    1.516661e+00
  1.805468e+01    1.522184e+00
  1.807056e+01    1.525162e+00
  1.808643e+01    1.486379e+00
  1.810231e+01    1.479483e+00
  1.811819e+01    1.499079e+00
  1.813406e+01    1.473178e+00
  1.814994e+01    1.490627e+00
  1.816581e+01    1.505386e+00
  1.818169e+01    1.502906e+00
  1.819756e+01    1.490427e+00
  1.821344e+01    1.475353e+00
  1.822932e+01    1.450546e+00
  1.824519e+01    1.453258e+00
  1.826107e+01    1.479233e+00
  1.827694e+01    1.480869e+00
  1.829282e+01    1.473686e+00
  1.830869e+01    1.474585e+00
  1.832457e+01    1.488583e+00
  1.834044e+01    1.476585e+00
  1.835632e+01    1.483814e+00
  1.837220e+01    1.466387e+00
  1.838807e+01    1.442029e+00
  1.840395e+01    1.457413e+00
  1.841982e+01    1.446338e+00
  1.843570e+01    1.459050e+00
  1.845157e+01    1.445532e+00
  1.846745e+01    1.461080e+00
  1.848332e+01    1.437838e+00
  1.849920e+01    1.460205e+00
  1.851508e+01    1.454291e+00
  1.853095e+01    1.444543e+00
  1.854683e+01    1.461756e+00
  1.856270e+01    1.436585e+00
  1.857858e+01    1.438042e+00
  1.859445e+01    1.463558e+00
  1.861033e+01    1.456917e+00
  1.862620e+01    1.459157e+00
  1.864208e+01    1.426777e+00
  1.865796e+01    1.410589e+00
  1.867383e+01    1.441203e+00
  1.868971e+01    1.445694e+00
  1.870558e+01    1.417992e+00
  1.872146e+01    1.426433e+00
  1.873733e+01    1.404243e+00
  1.875321e+01    1.400265e+00
  1.876908e+01    1.382744e+00
  1.878496e+01    1.374877e+00
  1.880084e+01    1.395480e+00
  1.881671e+01    1.385493e+00
  1.883259e+01    1.393515e+00
  1.884846e+01    1.409700e+00
  1.886434e+01    1.387239e+00
  1.888021e+01    1.399093e+00
  1.889609e+01    1.399691e+00
  1.891196e+01    1.386775e+00
  1.892784e+01    1.380200e+00
  1.894372e+01    1.372176e+00
  1.895959e+01    1.388428e+00
  1.897547e+01    1.372879e+00
  1.899134e+01    1.388924e+00
  1.900722e+01    1.405304e+00
  1.902309e+01    1.412643e+00
  1.903897e+01    1.389149e+00
  1.905484e+01    1.396837e+00
  1.907072e+01    1.410555e+00
  1.908660e+01    1.380421e+00
  1.910247e+01    1.367814e+00
  1.911835e+01    1.369000e+00
  1.913422e+01    1.367139e+00
  1.915010e+01    1.357337e+00
  1.916597e+01    1.367706e+00
  1.918185e+01    1.384970e+00
  1.919773e+01    1.384301e+00
  1.921360e+01    1.360219e+00
  1.922948e+01    1.373311e+00
  1.924535e+01    1.377545e+00
  1.926123e+01    1.379350e+00
  1.927710e+01    1.376843e+00
  1.929298e+01    1.367143e+00
  1.930885e+01    1.347488e+00
  1.932473e+01    1.341792e+00
  1.934061e+01    1.353401e+00
  1.935648e+01    1.382792e+00
  1.937236e+01    1.353183e+00
  1.938823e+01    1.379099e+00
  1.940411e+01    1.358624e+00
  1.941998e+01    1.339068e+00
  1.943586e+01    1.350793e+00
  1.945173e+01    1.351769e+00
  1.946761e+01    1.335523e+00
  1.948349e+01    1.338519e+00
  1.949936e+01    1.348657e+00
  1.951524e+01    1.348577e+00
  1.953111e+01    1.334890e+00
  1.954699e+01    1.342367e+00
  1.956286e+01    1.345871e+00
  1.957874e+01    1.340072e+00
  1.959461e+01    1.309776e+00
  1.961049e+01    1.307857e+00
  1.962637e+01    1.341935e+00
  1.964224e+01    1.338586e+00
  1.965812e+01    1.299532e+00
  1.967399e+01    1.310514e+00
  1.968987e+01    1.306753e+00
  1.970574e+01    1.312989e+00
  1.972162e+01    1.294935e+00
  1.973749e+01    1.322208e+00
  1.975337e+01    1.326025e+00
  1.976925e+01    1.304695e+00
  1.978512e+01    1.307866e+00
  1.980100e+01    1.285524e+00
  1.981687e+01    1.300752e+00
  1.983275e+01    1.325343e+00
  1.984862e+01    1.296219e+00
  1.986450e+01    1.300688e+00
  1.988037e+01    1.278201e+00
  1.989625e+01    1.285118e+00
  1.991213e+01    1.266052e+00
  1.992800e+01    1.299491e+00
  1.994388e+01    1.300400e+00
  1.995975e+01    1.282973e+00
  1.997563e+01    1.251079e+00
  1.999150e+01    1.269942e+00
  2.000738e+01    1.281457e+00
  2.002325e+01    1.277682e+00
  2.003913e+01    1.267606e+00
  2.005501e+01    1.268835e+00
  2.007088e+01    1.265981e+00
  2.008676e+01    1.273654e+00
  2.010263e+01    1.262909e+00
  2.011851e+01    1.261325e+00
  2.013438e+01    1.245134e+00
  2.015026e+01    1.259287e+00
  2.016614e+01    1.261062e+00
  2.018201e+01    1.260297e+00
  2.019789e+01    1.255743e+00
  2.021376e+01    1.253808e+00
  2.022964e+01    1.276354e+00
  2.024551e+01    1.275971e+00
  2.026139e+01    1.268951e+00
  2.027726e+01    1.263269e+00
  2.029314e+01    1.246653e+00
  2.030902e+01    1.236051e+00
  2.032489e+01    1.234971e+00
  2.034077e+01    1.255243e+00
  2.035664e+01    1.265487e+00
  2.037252e+01    1.267535e+00
  2.038839e+01    1.271016e+00
  2.040427e+01    1.241361e+00
  2.042014e+01    1.246492e+00
  2.043602e+01    1.241053e+00
  2.045190e+01    1.252823e+00
  2.046777e+01    1.230106e+00
  2.048365e+01    1.249412e+00
  2.049952e+01    1.259974e+00
  2.051540e+01    1.233362e+00
  2.053127e+01    1.230808e+00
  2.054715e+01    1.239438e+00
  2.056302e+01    1.233505e+00
  2.057890e+01    1.234361e+00
  2.059478e+01    1.217897e+00
  2.061065e+01    1.249553e+00
  2.062653e+01    1.256617e+00
  2.064240e+01    1.257105e+00
  2.065828e+01    1.245340e+00
  2.067415e+01    1.231681e+00
  2.069003e+01    1.234957e+00
  2.070590e+01    1.212048e+00
  2.072178e+01    1.195998e+00
  2.073766e+01    1.198813e+00
  2.075353e+01    1.230910e+00
  2.076941e+01    1.219185e+00
  2.078528e+01    1.226257e+00
  2.080116e+01    1.244103e+00
  2.081703e+01    1.218469e+00
  2.083291e+01    1.214907e+00
  2.084878e+01    1.236738e+00
  2.086466e+01    1.230897e+00
  2.088054e+01    1.223147e+00
  2.089641e+01    1.215107e+00
  2.091229e+01    1.237872e+00
  2.092816e+01    1.252698e+00
  2.094404e+01    1.230365e+00
  2.095991e+01    1.233871e+00
  2.097579e+01    1.222216e+00
  2.099166e+01    1.217355e+00
  2.100754e+01    1.240388e+00
  2.102342e+01    1.208280e+00
  2.103929e+01    1.204143e+00
  2.105517e+01    1.195301e+00
  2.107104e+01    1.225154e+00
  2.108692e+01    1.243884e+00
  2.110279e+01    1.230956e+00
  2.111867e+01    1.239843e+00
  2.113455e+01    1.256593e+00
  2.115042e+01    1.240340e+00
  2.116630e+01    1.256977e+00
  2.118217e+01    1.228282e+00
  2.119805e+01    1.233372e+00
  2.121392e+01    1.235400e+00
  2.122980e+01    1.236498e+00
  2.124567e+01    1.252216e+00
  2.126155e+01    1.243745e+00
  2.127743e+01    1.246099e+00
  2.129330e+01    1.248932e+00
  2.130918e+01    1.279182e+00
  2.132505e+01    1.276626e+00
  2.134093e+01    1.269483e+00
  2.135680e+01    1.282069e+00
  2.137268e+01    1.265242e+00
  2.138855e+01    1.292166e+00
  2.140443e+01    1.323731e+00
  2.142031e+01    1.339656e+00
  2.143618e+01    1.340027e+00
  2.145206e+01    1.352891e+00
  2.146793e+01    1.366711e+00
  2.148381e+01    1.393644e+00
  2.149968e+01    1.452191e+00
  2.151556e+01    1.477165e+00
  2.153143e+01    1.508940e+00
  2.154731e+01    1.522128e+00
  2.156319e+01    1.577356e+00
  2.157906e+01    1.616314e+00
  2.159494e+01    1.679706e+00
  2.161081e+01    1.752332e+00
  2.162669e+01    1.862066e+00
  2.164256e+01    1.993342e+00
  2.165844e+01    2.142934e+00
  2.167431e+01    2.322958e+00
  2.169019e+01    2.544409e+00
  2.170607e+01    2.823745e+00
  2.172194e+01    3.184855e+00
  2.173782e+01    3.633234e+00
  2.175369e+01    4.100108e+00
  2.176957e+01    4.651696e+00
  2.178544e+01    5.287547e+00
  2.180132e+01    5.958387e+00
  2.181719e+01    6.606878e+00
  2.183307e+01    7.244238e+00
  2.184895e+01    7.903925e+00
  2.186482e+01    8.518698e+00
  2.188070e+01    8.945444e+00
  2.189657e+01    8.988319e+00
  2.191245e+01    8.769185e+00
  2.192832e+01    8.290439e+00
  2.194420e+01    7.472800e+00
  2.196007e+01    6.530022e+00
  2.197595e+01    5.617314e+00
  2.199183e+01    4.825311e+00
  2.200770e+01    4.163660e+00
  2.202358e+01    3.594245e+00
  2.203945e+01    3.149706e+00
  2.205533e+01    2.813578e+00
  2.207120e+01    2.526116e+00
  2.208708e+01    2.296007e+00
  2.210296e+01    2.149748e+00
  2.211883e+01    2.020830e+00
  2.213471e+01    1.872859e+00
  2.215058e+01    1.770210e+00
  2.216646e+01    1.678097e+00
  2.218233e+01    1.628918e+00
  2.219821e+01    1.558565e+00
  2.221408e+01    1.491219e+00
  2.222996e+01    1.428247e+00
  2.224584e+01    1.409322e+00
  2.226171e+01    1.371166e+00
  2.227759e+01    1.352567e+00
  2.229346e+01    1.349196e+00
  2.230934e+01    1.320143e+00
  2.232521e+01    1.276843e+00
  2.234109e+01    1.245404e+00
  2.235696e+01    1.236980e+00
  2.237284e+01    1.218592e+00
  2.238872e+01    1.225208e+00
  2.240459e+01    1.191649e+00
  2.242047e+01    1.196982e+00
  2.243634e+01    1.198590e+00
  2.245222e+01    1.176492e+00
  2.246809e+01    1.168848e+00
  2.248397e+01    1.174064e+00
  2.249984e+01    1.143029e+00
  2.251572e+01    1.145964e+00
  2.253160e+01    1.110548e+00
  2.254747e+01    1.100873e+00
  2.256335e+01    1.117717e+00
  2.257922e+01    1.131383e+00
  2.259510e+01    1.115765e+00
  2.261097e+01    1.096132e+00
  2.262685e+01    1.111140e+00
  2.264272e+01    1.110282e+00
  2.265860e+01    1.100882e+00
  2.267448e+01    1.096446e+00
  2.269035e+01    1.073788e+00
  2.270623e+01    1.083294e+00
  2.272210e+01    1.058832e+00
  2.273798e+01    1.074231e+00
  2.275385e+01    1.085778e+00
  2.276973e+01    1.061046e+00
  2.278560e+01    1.056464e+00
  2.280148e+01    1.046341e+00
  2.281736e+01    1.062182e+00
  2.283323e+01    1.068614e+00
  2.284911e+01    1.046174e+00
  2.286498e+01    1.045431e+00
  2.288086e+01    1.031463e+00
  2.289673e+01    1.044782e+00
  2.291261e+01    1.036852e+00
  2.292848e+01    1.048154e+00
  2.294436e+01    1.041243e+00
  2.296024e+01    1.029684e+00
  2.297611e+01    1.011870e+00
  2.299199e+01    1.010250e+00
  2.300786e+01    1.018185e+00
  2.302374e+01    1.024388e+00
  2.303961e+01    1.027377e+00
  2.305549e+01    1.015604e+00
  2.307137e+01    9.966277e-01
  2.308724e+01    9.965090e-01
  2.310312e+01    9.895824e-01
  2.311899e+01    1.001710e+00
  2.313487e+01    1.002527e+00
  2.315074e+01    1.007321e+00
  2.316662e+01    9.928246e-01
  2.318249e+01    1.002319e+00
  2.319837e+01    9.975538e-01
  2.321425e+01    9.899159e-01
  2.323012e+01    9.819506e-01
  2.324600e+01    9.666470e-01
  2.326187e+01    9.843360e-01
  2.327775e+01    9.831408e-01
  2.329362e+01    9.792747e-01
  2.330950e+01    9.842800e-01
  2.332537e+01    9.763274e-01
  2.334125e+01    1.003186e+00
  2.335713e+01    9.916212e-01
  2.337300e+01    9.480041e-01
  2.338888e+01    9.708817e-01
  2.340475e+01    9.846336e-01
  2.342063e+01    9.406711e-01
  2.343650e+01    9.582284e-01
  2.345238e+01    9.669269e-01
  2.346825e+01    9.680071e-01
  2.348413e+01    9.809337e-01
  2.350001e+01    9.934152e-01
  2.351588e+01    9.827229e-01
  2.353176e+01    9.615858e-01
  2.354763e+01    9.391766e-01
  2.356351e+01    9.406130e-01
  2.357938e+01    9.500979e-01
  2.359526e+01    9.653894e-01
  2.361113e+01    9.311643e-01
  2.362701e+01    9.482448e-01
  2.364289e+01    9.471402e-01
  2.365876e+01    9.724163e-01
  2.367464e+01    9.511585e-01
  2.369051e+01    9.565354e-01
  2.370639e+01    9.478946e-01
  2.372226e+01    9.289589e-01
  2.373814e+01    9.242783e-01
  2.375401e+01    9.135302e-01
  2.376989e+01    9.111567e-01
  2.378577e+01    9.369246e-01
  2.380164e+01    9.199689e-01
  2.381752e+01    9.111804e-01
  2.383339e+01    9.100631e-01
  2.384927e+01    9.232445e-01
  2.386514e+01    9.315376e-01
  2.388102e+01    9.139310e-01
  2.389689e+01    9.299729e-01
  2.391277e+01    9.170584e-01
  2.392865e+01    9.318286e-01
  2.394452e+01    9.211045e-01
  2.396040e+01    9.082834e-01
  2.397627e+01    8.957343e-01
  2.399215e+01    9.135922e-01
  2.400802e+01    9.238154e-01
  2.402390e+01    8.944524e-01
  2.403978e+01    8.905902e-01
  2.405565e+01    9.053891e-01
  2.407153e+01    8.837564e-01
  2.408740e+01    8.786062e-01
  2.410328e+01    8.952742e-01
  2.411915e+01    8.996111e-01
  2.413503e+01    8.632355e-01
  2.415090e+01    8.707502e-01
  2.416678e+01    8.743360e-01
  2.418266e+01    8.865102e-01
  2.419853e+01    8.714978e-01
  2.421441e+01    8.783790e-01
  2.423028e+01    8.750791e-01
  2.424616e+01    8.789787e-01
  2.426203e+01    8.914598e-01
  2.427791e+01    8.940145e-01
  2.429378e+01    9.036096e-01
  2.430966e+01    9.048150e-01
  2.432554e+01    9.116887e-01
  2.434141e+01    8.911779e-01
  2.435729e+01    8.903763e-01
  2.437316e+01    8.916618e-01
  2.438904e+01    8.987531e-01
  2.440491e+01    9.039944e-01
  2.442079e+01    9.012722e-01
  2.443666e+01    9.047021e-01
  2.445254e+01    9.014481e-01
  2.446842e+01    9.024515e-01
  2.448429e+01    9.049874e-01
  2.450017e+01    8.848668e-01
  2.451604e+01    9.045833e-01
  2.453192e+01    9.009271e-01
  2.454779e+01    9.016989e-01
  2.456367e+01    9.012837e-01
  2.457954e+01    8.783464e-01
  2.459542e+01    8.772481e-01
  2.461130e+01    8.731288e-01
  2.462717e+01    8.805845e-01
  2.464305e+01    9.148555e-01
  2.465892e+01    9.003797e-01
  2.467480e+01    8.972556e-01
  2.469067e+01    9.069581e-01
  2.470655e+01    8.947032e-01
  2.472242e+01    9.054438e-01
  2.473830e+01    8.940839e-01
  2.475418e+01    8.981546e-01
  2.477005e+01    8.859037e-01
  2.478593e+01    8.793247e-01
  2.480180e+01    8.953435e-01
  2.481768e+01    9.018963e-01
  2.483355e+01    8.733898e-01
  2.484943e+01    8.753640e-01
  2.486530e+01    8.928619e-01
  2.488118e+01    8.918321e-01
  2.489706e+01    8.935664e-01
  2.491293e+01    8.800477e-01
  2.492881e+01    8.878642e-01
  2.494468e+01    8.776691e-01
  2.496056e+01    8.767663e-01
  2.497643e+01    9.059223e-01
  2.499231e+01    8.941334e-01
  2.500819e+01    8.908681e-01
  2.502406e+01    8.832785e-01
  2.503994e+01    9.092813e-01
  2.505581e+01    9.184995e-01
  2.507169e+01    9.093758e-01
  2.508756e+01    9.064903e-01
  2.510344e+01    8.994693e-01
  2.511931e+01    9.247894e-01
  2.513519e+01    9.113389e-01
  2.515107e+01    8.853033e-01
  2.516694e+01    9.074696e-01
  2.518282e+01    9.438594e-01
  2.519869e+01    9.334078e-01
  2.521457e+01    9.200630e-01
  2.523044e+01    9.292225e-01
  2.524632e+01    9.324752e-01
  2.526219e+01    9.454941e-01
  2.527807e+01    9.515477e-01
  2.529395e+01    9.567347e-01
  2.530982e+01    9.642710e-01
  2.532570e+01    9.672015e-01
  2.534157e+01    9.799719e-01
  2.535745e+01    9.969839e-01
  2.537332e+01    9.888329e-01
  2.538920e+01    1.002291e+00
  2.540507e+01    9.993297e-01
  2.542095e+01    9.875012e-01
  2.543683e+01    1.012483e+00
  2.545270e+01    1.026742e+00
  2.546858e+01    1.028499e+00
  2.548445e+01    1.036739e+00
  2.550033e+01    1.042275e+00
  2.551620e+01    1.074732e+00
  2.553208e+01    1.105615e+00
  2.554795e+01    1.128078e+00
  2.556383e+01    1.138313e+00
  2.557971e+01    1.153249e+00
  2.559558e+01    1.198344e+00
  2.561146e+01    1.243013e+00
  2.562733e+01    1.275576e+00
  2.564321e+01    1.299665e+00
  2.565908e+01    1.356880e+00
  2.567496e+01    1.431342e+00
  2.569083e+01    1.517539e+00
  2.570671e+01    1.638662e+00
  2.572259e+01    1.752650e+00
  2.573846e+01    1.890401e+00
  2.575434e+01    2.064462e+00
  2.577021e+01    2.274924e+00
  2.578609e+01    2.537526e+00
  2.580196e+01    2.880973e+00
  2.581784e+01    3.277185e+00
  2.583371e+01    3.711428e+00
  2.584959e+01    4.265747e+00
  2.586547e+01    4.770126e+00
  2.588134e+01    5.296568e+00
  2.589722e+01    5.898911e+00
  2.591309e+01    6.484789e+00
  2.592897e+01    6.855715e+00
  2.594484e+01    7.121797e+00
  2.596072e+01    7.176173e+00
  2.597660e+01    6.957740e+00
  2.599247e+01    6.572804e+00
  2.600835e+01    5.948444e+00
  2.602422e+01    5.260584e+00
  2.604010e+01    4.582740e+00
  2.605597e+01    3.950696e+00
  2.607185e+01    3.397058e+00
  2.608772e+01    2.955134e+00
  2.610360e+01    2.603894e+00
  2.611948e+01    2.340281e+00
  2.613535e+01    2.136859e+00
  2.615123e+01    1.960739e+00
  2.616710e+01    1.793796e+00
  2.618298e+01    1.665307e+00
  2.619885e+01    1.567136e+00
  2.621473e+01    1.495862e+00
  2.623060e+01    1.407242e+00
  2.624648e+01    1.334003e+00
  2.626236e+01    1.282552e+00
  2.627823e+01    1.243441e+00
  2.629411e+01    1.218018e+00
  2.630998e+01    1.201264e+00
  2.632586e+01    1.150173e+00
  2.634173e+01    1.108967e+00
  2.635761e+01    1.096497e+00
  2.637348e+01    1.088414e+00
  2.638936e+01    1.043052e+00
  2.640524e+01    1.051568e+00
  2.642111e+01    1.032975e+00
  2.643699e+01    1.034883e+00
  2.645286e+01    1.032040e+00
  2.646874e+01    1.014788e+00
  2.648461e+01    9.985585e-01
  2.650049e+01    1.030902e+00
  2.651636e+01    1.030660e+00
  2.653224e+01    1.004009e+00
  2.654812e+01    9.961053e-01
  2.656399e+01    9.869928e-01
  2.657987e+01    9.838759e-01
  2.659574e+01    9.894687e-01
  2.661162e+01    9.769384e-01
  2.662749e+01    9.704605e-01
  2.664337e+01    9.610431e-01
  2.665924e+01    9.667284e-01
  2.667512e+01    9.677928e-01
  2.669100e+01    9.685973e-01
  2.670687e+01    9.611499e-01
  2.672275e+01    9.753071e-01
  2.673862e+01    9.699836e-01
  2.675450e+01    9.705063e-01
  2.677037e+01    9.593569e-01
  2.678625e+01    9.791721e-01
  2.680212e+01    9.901977e-01
  2.681800e+01    1.002889e+00
  2.683388e+01    9.895001e-01
  2.684975e+01    9.766514e-01
  2.686563e+01    9.896754e-01
  2.688150e+01    1.014034e+00
  2.689738e+01    1.023239e+00
  2.691325e+01    1.022268e+00
  2.692913e+01    1.025964e+00
  2.694501e+01    1.021979e+00
  2.696088e+01    1.038554e+00
  2.697676e+01    1.066854e+00
  2.699263e+01    1.085070e+00
  2.700851e+01    1.097926e+00
  2.702438e+01    1.136027e+00
  2.704026e+01    1.199687e+00
  2.705613e+01    1.264449e+00
  2.707201e+01    1.303670e+00
  2.708789e+01    1.405098e+00
  2.710376e+01    1.483851e+00
  2.711964e+01    1.610805e+00
  2.713551e+01    1.733025e+00
  2.715139e+01    1.882510e+00
  2.716726e+01    2.003691e+00
  2.718314e+01    2.104397e+00
  2.719901e+01    2.181411e+00
  2.721489e+01    2.189676e+00
  2.723077e+01    2.178986e+00
  2.724664e+01    2.069561e+00
  2.726252e+01    1.940909e+00
  2.727839e+01    1.808868e+00
  2.729427e+01    1.686624e+00
  2.731014e+01    1.558303e+00
  2.732602e+01    1.428047e+00
  2.734189e+01    1.353696e+00
  2.735777e+01    1.277528e+00
  2.737365e+01    1.222784e+00
  2.738952e+01    1.169387e+00
  2.740540e+01    1.126461e+00
  2.742127e+01    1.085975e+00
  2.743715e+01    1.041511e+00
  2.745302e+01    1.048483e+00
  2.746890e+01    1.048216e+00
  2.748477e+01    1.038641e+00
  2.750065e+01    9.952225e-01
  2.751653e+01    9.659777e-01
  2.753240e+01    9.563875e-01
  2.754828e+01    9.393635e-01
  2.756415e+01    9.377632e-01
  2.758003e+01    9.372401e-01
  2.759590e+01    9.270765e-01
  2.761178e+01    9.346127e-01
  2.762765e+01    9.223806e-01
  2.764353e+01    9.370162e-01
  2.765941e+01    9.410722e-01
  2.767528e+01    9.137737e-01
  2.769116e+01    8.939752e-01
  2.770703e+01    8.999162e-01
  2.772291e+01    9.131931e-01
  2.773878e+01    9.122404e-01
  2.775466e+01    9.101449e-01
  2.777054e+01    9.046122e-01
  2.778641e+01    8.900352e-01
  2.780229e+01    8.899714e-01
  2.781816e+01    8.784001e-01
  2.783404e+01    8.959820e-01
  2.784991e+01    8.708953e-01
  2.786579e+01    8.752192e-01
  2.788166e+01    8.900403e-01
  2.789754e+01    8.750147e-01
  2.791342e+01    8.858661e-01
  2.792929e+01    8.660365e-01
  2.794517e+01    8.482906e-01
  2.796104e+01    8.652627e-01
  2.797692e+01    8.798825e-01
  2.799279e+01    8.838256e-01
  2.800867e+01    8.817040e-01
  2.802454e+01    8.750536e-01
  2.804042e+01    8.666985e-01
  2.805630e+01    8.677450e-01
  2.807217e+01    8.718935e-01
  2.808805e+01    8.367575e-01
  2.810392e+01    8.426346e-01
  2.811980e+01    8.582835e-01
  2.813567e+01    8.630934e-01
  2.815155e+01    8.624225e-01
  2.816742e+01    8.630168e-01
  2.818330e+01    8.437877e-01
  2.819918e+01    8.349972e-01
  2.821505e+01    8.317984e-01
  2.823093e+01    8.499907e-01
  2.824680e+01    8.436355e-01
  2.826268e+01    8.608643e-01
  2.827855e+01    8.579121e-01
  2.829443e+01    8.562867e-01
  2.831030e+01    8.331885e-01
  2.832618e+01    8.200383e-01
  2.834206e+01    8.338286e-01
  2.835793e+01    8.446149e-01
  2.837381e+01    8.471503e-01
  2.838968e+01    8.726956e-01
  2.840556e+01    8.395605e-01
  2.842143e+01    8.294271e-01
  2.843731e+01    8.230114e-01
  2.845318e+01    8.441601e-01
  2.846906e+01    8.438299e-01
  2.848494e+01    8.471369e-01
  2.850081e+01    8.437679e-01
  2.851669e+01    8.513093e-01
  2.853256e+01    8.607851e-01
  2.854844e+01    8.283697e-01
  2.856431e+01    8.434736e-01
  2.858019e+01    8.524804e-01
  2.859606e+01    8.537056e-01
  2.861194e+01    8.371989e-01
  2.862782e+01    8.192518e-01
  2.864369e+01    8.488309e-01
  2.865957e+01    8.558502e-01
  2.867544e+01    8.403075e-01
  2.869132e+01    8.442093e-01
  2.870719e+01    8.517206e-01
  2.872307e+01    8.492413e-01
  2.873895e+01    8.371649e-01
  2.875482e+01    8.405488e-01
  2.877070e+01    8.382376e-01
  2.878657e+01    8.259847e-01
  2.880245e+01    8.291902e-01
  2.881832e+01    8.161189e-01
  2.883420e+01    8.466593e-01
  2.885007e+01    8.321092e-01
  2.886595e+01    7.978643e-01
  2.888183e+01    8.288141e-01
  2.889770e+01    8.308671e-01
  2.891358e+01    8.149225e-01
  2.892945e+01    8.014696e-01
  2.894533e+01    8.323545e-01
  2.896120e+01    8.243004e-01
  2.897708e+01    8.298298e-01
  2.899295e+01    8.339863e-01
  2.900883e+01    8.370270e-01
  2.902471e+01    8.280613e-01
  2.904058e+01    8.336790e-01
  2.905646e+01    8.075756e-01
  2.907233e+01    8.114223e-01
  2.908821e+01    8.005997e-01
  2.910408e+01    8.257439e-01
  2.911996e+01    8.018738e-01
  2.913583e+01    8.159435e-01
  2.915171e+01    8.219737e-01
  2.916759e+01    8.320113e-01
  2.918346e+01    8.358564e-01
  2.919934e+01    8.292776e-01
  2.921521e+01    7.993608e-01
  2.923109e+01    8.172963e-01
  2.924696e+01    8.152935e-01
  2.926284e+01    8.335335e-01
  2.927871e+01    8.240473e-01
  2.929459e+01    8.220937e-01
  2.931047e+01    7.859781e-01
  2.932634e+01    7.900832e-01
  2.934222e+01    8.024910e-01
  2.935809e+01    7.831352e-01
  2.937397e+01    8.049928e-01
  2.938984e+01    8.361191e-01
  2.940572e+01    8.139074e-01
  2.942159e+01    7.959752e-01
  2.943747e+01    8.058531e-01
  2.945335e+01    7.937040e-01
  2.946922e+01    7.783244e-01
  2.948510e+01    8.013248e-01
  2.950097e+01    8.093069e-01
  2.951685e+01    8.150878e-01
  2.953272e+01    7.966239e-01
  2.954860e+01    7.991825e-01
  2.956447e+01    8.003378e-01
  2.958035e+01    8.069688e-01
  2.959623e+01    7.988958e-01
  2.961210e+01    7.885498e-01
  2.962798e+01    7.947533e-01
  2.964385e+01    7.993596e-01
  2.965973e+01    7.879562e-01
  2.967560e+01    7.918649e-01
  2.969148e+01    8.055917e-01
  2.970736e+01    8.290309e-01
  2.972323e+01    8.066227e-01
  2.973911e+01    7.928147e-01
  2.975498e+01    7.808622e-01
  2.977086e+01    8.005354e-01
  2.978673e+01    8.186621e-01
  2.980261e+01    8.028766e-01
  2.981848e+01    8.117401e-01
  2.983436e+01    7.875141e-01
  2.985024e+01    7.957586e-01
  2.986611e+01    7.824891e-01
  2.988199e+01    7.799087e-01
  2.989786e+01    7.980777e-01
  2.991374e+01    7.982302e-01
  2.992961e+01    7.764631e-01
  2.994549e+01    7.886510e-01
  2.996136e+01    7.979546e-01
  2.997724e+01    7.846798e-01
  2.999312e+01    8.059623e-01
  3.000899e+01    7.980010e-01
  3.002487e+01    8.127645e-01
  3.004074e+01    8.146227e-01
  3.005662e+01    8.098484e-01
  3.007249e+01    8.188751e-01
  3.008837e+01    7.909396e-01
  3.010424e+01    7.960764e-01
  3.012012e+01    7.792190e-01
  3.013600e+01    7.904167e-01
  3.015187e+01    8.066230e-01
  3.016775e+01    7.909011e-01
  3.018362e+01    7.921137e-01
  3.019950e+01    8.333556e-01
  3.021537e+01    7.933474e-01
  3.023125e+01    7.840890e-01
  3.024712e+01    7.966204e-01
  3.026300e+01    7.870472e-01
  3.027888e+01    7.718706e-01
  3.029475e+01    7.838187e-01
  3.031063e+01    8.074551e-01
  3.032650e+01    8.021516e-01
  3.034238e+01    8.103814e-01
  3.035825e+01    8.051705e-01
  3.037413e+01    7.901843e-01
  3.039000e+01    7.956214e-01
  3.040588e+01    7.855852e-01
  3.042176e+01    7.800176e-01
  3.043763e+01    8.055812e-01
  3.045351e+01    7.925683e-01
  3.046938e+01    7.740473e-01
  3.048526e+01    7.805920e-01
  3.050113e+01    7.713611e-01
  3.051701e+01    7.610051e-01
  3.053288e+01    7.741488e-01
  3.054876e+01    7.720844e-01
  3.056464e+01    8.004169e-01
  3.058051e+01    7.803843e-01
  3.059639e+01    7.845570e-01
  3.061226e+01    7.758839e-01
  3.062814e+01    7.977784e-01
  3.064401e+01    8.125961e-01
  3.065989e+01    7.810974e-01
  3.067577e+01    7.681376e-01
  3.069164e+01    7.786450e-01
  3.070752e+01    7.634411e-01
  3.072339e+01    7.676321e-01
  3.073927e+01    7.946419e-01
  3.075514e+01    7.967234e-01
  3.077102e+01    8.033080e-01
  3.078689e+01    7.916592e-01
  3.080277e+01    7.822395e-01
  3.081865e+01    7.664479e-01
  3.083452e+01    7.789866e-01
  3.085040e+01    7.949417e-01
  3.086627e+01    7.895107e-01
  3.088215e+01    7.666510e-01
  3.089802e+01    7.820730e-01
  3.091390e+01    7.913705e-01
  3.092977e+01    7.698225e-01
  3.094565e+01    7.753081e-01
  3.096153e+01    7.890100e-01
  3.097740e+01    7.653639e-01
  3.099328e+01    7.899374e-01
  3.100915e+01    7.818692e-01
  3.102503e+01    7.944242e-01
  3.104090e+01    7.745202e-01
  3.105678e+01    8.089746e-01
  3.107265e+01    7.855906e-01
  3.108853e+01    8.053995e-01
  3.110441e+01    7.927570e-01
  3.112028e+01    7.858788e-01
  3.113616e+01    8.066059e-01
  3.115203e+01    8.015013e-01
  3.116791e+01    7.870408e-01
  3.118378e+01    7.920935e-01
  3.119966e+01    7.920823e-01
  3.121553e+01    7.849906e-01
  3.123141e+01    8.070636e-01
  3.124729e+01    8.045626e-01
  3.126316e+01    7.778530e-01
  3.127904e+01    7.971625e-01
  3.129491e+01    8.099021e-01
  3.131079e+01    7.995290e-01
  3.132666e+01    7.903807e-01
  3.134254e+01    7.888158e-01
  3.135841e+01    7.594647e-01
  3.137429e+01    7.891422e-01
  3.139017e+01    8.183341e-01
  3.140604e+01    8.110455e-01
  3.142192e+01    8.042182e-01
  3.143779e+01    8.291595e-01
  3.145367e+01    8.405464e-01
  3.146954e+01    8.349686e-01
  3.148542e+01    8.210776e-01
  3.150129e+01    8.187122e-01
  3.151717e+01    8.275925e-01
  3.153305e+01    8.262623e-01
  3.154892e+01    8.292004e-01
  3.156480e+01    8.500668e-01
  3.158067e+01    8.803633e-01
  3.159655e+01    9.000517e-01
  3.161242e+01    9.028535e-01
  3.162830e+01    9.281343e-01
  3.164418e+01    9.489608e-01
  3.166005e+01    9.542001e-01
  3.167593e+01    9.689155e-01
  3.169180e+01    1.003996e+00
  3.170768e+01    1.022892e+00
  3.172355e+01    1.091667e+00
  3.173943e+01    1.157253e+00
  3.175530e+01    1.209569e+00
  3.177118e+01    1.285747e+00
  3.178706e+01    1.405474e+00
  3.180293e+01    1.527917e+00
  3.181881e+01    1.622064e+00
  3.183468e+01    1.745404e+00
  3.185056e+01    1.880679e+00
  3.186643e+01    1.958315e+00
  3.188231e+01    2.063333e+00
  3.189818e+01    2.107692e+00
  3.191406e+01    2.085680e+00
  3.192994e+01    2.040258e+00
  3.194581e+01    1.968671e+00
  3.196169e+01    1.814533e+00
  3.197756e+01    1.673565e+00
  3.199344e+01    1.526755e+00
  3.200931e+01    1.410200e+00
  3.202519e+01    1.294077e+00
  3.204106e+01    1.243469e+00
  3.205694e+01    1.174779e+00
  3.207282e+01    1.098749e+00
  3.208869e+01    1.046644e+00
  3.210457e+01    1.028334e+00
  3.212044e+01    1.026544e+00
  3.213632e+01    9.543838e-01
  3.215219e+01    9.087490e-01
  3.216807e+01    8.874367e-01
  3.218394e+01    8.931238e-01
  3.219982e+01    8.644483e-01
  3.221570e+01    8.794782e-01
  3.223157e+01    8.688857e-01
  3.224745e+01    8.579381e-01
  3.226332e+01    8.328333e-01
  3.227920e+01    8.208089e-01
  3.229507e+01    8.040132e-01
  3.231095e+01    8.025487e-01
  3.232682e+01    8.163251e-01
  3.234270e+01    8.131883e-01
  3.235858e+01    8.072243e-01
  3.237445e+01    8.164117e-01
  3.239033e+01    7.913263e-01
  3.240620e+01    7.871701e-01
  3.242208e+01    7.664339e-01
  3.243795e+01    8.048840e-01
  3.245383e+01    7.839675e-01
  3.246970e+01    7.692114e-01
  3.248558e+01    7.736142e-01
  3.250146e+01    7.640188e-01
  3.251733e+01    7.647467e-01
  3.253321e+01    7.802965e-01
  3.254908e+01    8.051506e-01
