# == pyFAI calibration ==
# Distance Sample to Detector: 0.3999999939076516 m
# PONI: 9.750e-02, 1.135e-01 m
# Rotations: -0.000175 0.000000 -0.000000 rad
# 
# == Fit2d calibration ==
# Distance Sample-beamCenter: 400.000 mm
# Center: x=1514.000, y=1300.000 pix
# Tilt: 0.010 deg  TiltPlanRot: 0.010 deg
# 
# Detector Detector	 Spline= None	 PixelSize= 7.500e-05, 7.500e-05 m
#    Detector has a mask: False 
#    Detector has a dark current: False 
#    detector has a flat field: False 
# 
# Wavelength: 6.888e-11 m
# Mask applied: user provided
# Dark current applied: False
# Flat field applied: False
# Polarization factor: 0.99
# Normalization factor: 1.0
# --> /home/myspot/data/2024_07_Rosario/Ru-CGO-ex/2024-07-27_003_Ru-CGO-ex_Reaction_dwell_000023_data_000159.dat
#       q_nm^-1             I 
  2.003187e-02    1.647358e-01
  3.590745e-02    1.261806e-01
  5.178302e-02    1.354949e-01
  6.765859e-02    2.052465e-01
  8.353417e-02    2.013016e-01
  9.940974e-02    6.075488e-02
  1.152853e-01    8.031461e-02
  1.311609e-01    1.144318e-01
  1.470365e-01    2.650365e-02
  1.629120e-01    3.072495e-02
  1.787876e-01    6.300607e-02
  1.946632e-01    3.102491e-02
  2.105388e-01    3.293910e-02
  2.264143e-01    1.112040e-01
  2.422899e-01    6.770003e-02
  2.581655e-01    6.361853e-02
  2.740411e-01    2.377370e-02
  2.899166e-01    2.185031e-02
  3.057922e-01    5.062222e-02
  3.216678e-01    5.249527e-02
  3.375433e-01    3.262840e-02
  3.534189e-01    2.950305e-02
  3.692945e-01    4.420559e-02
  3.851701e-01    5.880391e-02
  4.010456e-01    4.170177e-02
  4.169212e-01    2.158971e-02
  4.327968e-01    3.746598e-02
  4.486724e-01    5.387981e-02
  4.645479e-01    5.456191e-02
  4.804235e-01    3.998219e-02
  4.962991e-01    2.596007e-02
  5.121747e-01    1.479664e-02
  5.280502e-01    4.749949e-02
  5.439258e-01    4.672276e-02
  5.598014e-01    3.287234e-02
  5.756770e-01    5.644136e-02
  5.915525e-01    4.061056e-02
  6.074281e-01    4.473185e-02
  6.233037e-01    4.872401e-02
  6.391793e-01    3.331149e-02
  6.550548e-01    2.810268e-02
  6.709304e-01    5.843676e-02
  6.868060e-01    4.840609e-02
  7.026815e-01    3.490385e-02
  7.185571e-01    3.641208e-02
  7.344327e-01    4.044347e-02
  7.503083e-01    5.784507e-02
  7.661838e-01    5.522926e-02
  7.820594e-01    1.226866e-01
  7.979350e-01    1.866839e-01
  8.138106e-01    1.993575e-01
  8.296861e-01    2.684978e-01
  8.455617e-01    3.410310e-01
  8.614373e-01    3.838204e-01
  8.773129e-01    4.604706e-01
  8.931884e-01    6.096984e-01
  9.090640e-01    7.095793e-01
  9.249396e-01    7.474588e-01
  9.408152e-01    7.885844e-01
  9.566907e-01    9.080244e-01
  9.725663e-01    1.020140e+00
  9.884419e-01    1.121075e+00
  1.004317e+00    1.195891e+00
  1.020193e+00    1.279703e+00
  1.036069e+00    1.371568e+00
  1.051944e+00    1.353454e+00
  1.067820e+00    1.397096e+00
  1.083695e+00    1.535200e+00
  1.099571e+00    1.495285e+00
  1.115446e+00    1.458412e+00
  1.131322e+00    1.614007e+00
  1.147198e+00    1.637101e+00
  1.163073e+00    1.662384e+00
  1.178949e+00    1.730351e+00
  1.194824e+00    1.725987e+00
  1.210700e+00    2.031151e+00
  1.226575e+00    2.150887e+00
  1.242451e+00    2.343660e+00
  1.258327e+00    2.419170e+00
  1.274202e+00    2.469071e+00
  1.290078e+00    2.553465e+00
  1.305953e+00    2.624388e+00
  1.321829e+00    2.777644e+00
  1.337705e+00    2.640594e+00
  1.353580e+00    2.710904e+00
  1.369456e+00    2.600396e+00
  1.385331e+00    2.766397e+00
  1.401207e+00    2.843061e+00
  1.417082e+00    2.883730e+00
  1.432958e+00    2.849942e+00
  1.448834e+00    2.902442e+00
  1.464709e+00    2.862933e+00
  1.480585e+00    2.929580e+00
  1.496460e+00    3.035863e+00
  1.512336e+00    3.104769e+00
  1.528211e+00    3.281233e+00
  1.544087e+00    3.089298e+00
  1.559963e+00    3.063857e+00
  1.575838e+00    3.238983e+00
  1.591714e+00    3.195838e+00
  1.607589e+00    3.207081e+00
  1.623465e+00    3.231257e+00
  1.639340e+00    3.101217e+00
  1.655216e+00    3.039377e+00
  1.671092e+00    3.228104e+00
  1.686967e+00    3.210591e+00
  1.702843e+00    3.126360e+00
  1.718718e+00    3.047137e+00
  1.734594e+00    3.058915e+00
  1.750469e+00    3.059329e+00
  1.766345e+00    3.088406e+00
  1.782221e+00    3.054622e+00
  1.798096e+00    3.086786e+00
  1.813972e+00    3.200603e+00
  1.829847e+00    3.054185e+00
  1.845723e+00    3.070300e+00
  1.861598e+00    3.118973e+00
  1.877474e+00    2.999254e+00
  1.893350e+00    2.984821e+00
  1.909225e+00    3.051058e+00
  1.925101e+00    3.057013e+00
  1.940976e+00    3.167803e+00
  1.956852e+00    3.121789e+00
  1.972727e+00    3.015510e+00
  1.988603e+00    3.011907e+00
  2.004479e+00    3.050886e+00
  2.020354e+00    2.945716e+00
  2.036230e+00    2.990571e+00
  2.052105e+00    3.123514e+00
  2.067981e+00    3.040182e+00
  2.083856e+00    3.095609e+00
  2.099732e+00    2.984726e+00
  2.115608e+00    3.008490e+00
  2.131483e+00    2.980004e+00
  2.147359e+00    3.182312e+00
  2.163234e+00    3.071363e+00
  2.179110e+00    3.113867e+00
  2.194985e+00    3.197127e+00
  2.210861e+00    3.147285e+00
  2.226737e+00    3.055851e+00
  2.242612e+00    3.116387e+00
  2.258488e+00    3.207216e+00
  2.274363e+00    3.094568e+00
  2.290239e+00    3.037477e+00
  2.306115e+00    3.116046e+00
  2.321990e+00    3.133583e+00
  2.337866e+00    3.121491e+00
  2.353741e+00    3.086500e+00
  2.369617e+00    3.089789e+00
  2.385492e+00    3.137026e+00
  2.401368e+00    3.104665e+00
  2.417244e+00    3.190860e+00
  2.433119e+00    3.053836e+00
  2.448995e+00    3.083048e+00
  2.464870e+00    3.152966e+00
  2.480746e+00    3.097502e+00
  2.496621e+00    3.172737e+00
  2.512497e+00    3.255378e+00
  2.528373e+00    3.175982e+00
  2.544248e+00    3.014975e+00
  2.560124e+00    3.056314e+00
  2.575999e+00    3.171509e+00
  2.591875e+00    3.189664e+00
  2.607750e+00    3.249579e+00
  2.623626e+00    3.195599e+00
  2.639502e+00    3.203487e+00
  2.655377e+00    3.292119e+00
  2.671253e+00    3.228390e+00
  2.687128e+00    3.231397e+00
  2.703004e+00    3.217838e+00
  2.718879e+00    3.274038e+00
  2.734755e+00    3.225037e+00
  2.750631e+00    3.308993e+00
  2.766506e+00    3.274035e+00
  2.782382e+00    3.293033e+00
  2.798257e+00    3.340449e+00
  2.814133e+00    3.346895e+00
  2.830008e+00    3.290168e+00
  2.845884e+00    3.296167e+00
  2.861760e+00    3.261786e+00
  2.877635e+00    3.258498e+00
  2.893511e+00    3.225826e+00
  2.909386e+00    3.229153e+00
  2.925262e+00    3.356615e+00
  2.941137e+00    3.335534e+00
  2.957013e+00    3.339744e+00
  2.972889e+00    3.278377e+00
  2.988764e+00    3.262420e+00
  3.004640e+00    3.275252e+00
  3.020515e+00    3.318265e+00
  3.036391e+00    3.328808e+00
  3.052266e+00    3.335978e+00
  3.068142e+00    3.181238e+00
  3.084018e+00    3.268094e+00
  3.099893e+00    3.345425e+00
  3.115769e+00    3.311069e+00
  3.131644e+00    3.333123e+00
  3.147520e+00    3.339636e+00
  3.163395e+00    3.426764e+00
  3.179271e+00    3.333790e+00
  3.195147e+00    3.349480e+00
  3.211022e+00    3.311453e+00
  3.226898e+00    3.331172e+00
  3.242773e+00    3.342695e+00
  3.258649e+00    3.400038e+00
  3.274525e+00    3.429623e+00
  3.290400e+00    3.430454e+00
  3.306276e+00    3.449122e+00
  3.322151e+00    3.339454e+00
  3.338027e+00    3.304407e+00
  3.353902e+00    3.345385e+00
  3.369778e+00    3.356060e+00
  3.385654e+00    3.416162e+00
  3.401529e+00    3.409232e+00
  3.417405e+00    3.436970e+00
  3.433280e+00    3.408362e+00
  3.449156e+00    3.363764e+00
  3.465031e+00    3.445398e+00
  3.480907e+00    3.412655e+00
  3.496783e+00    3.376555e+00
  3.512658e+00    3.282978e+00
  3.528534e+00    3.386220e+00
  3.544409e+00    3.406727e+00
  3.560285e+00    3.447824e+00
  3.576160e+00    3.459629e+00
  3.592036e+00    3.418125e+00
  3.607912e+00    3.416373e+00
  3.623787e+00    3.460254e+00
  3.639663e+00    3.370110e+00
  3.655538e+00    3.335124e+00
  3.671414e+00    3.485077e+00
  3.687289e+00    3.459408e+00
  3.703165e+00    3.388204e+00
  3.719041e+00    3.468259e+00
  3.734916e+00    3.423488e+00
  3.750792e+00    3.428132e+00
  3.766667e+00    3.425955e+00
  3.782543e+00    3.420807e+00
  3.798418e+00    3.440639e+00
  3.814294e+00    3.523895e+00
  3.830170e+00    3.513811e+00
  3.846045e+00    3.479163e+00
  3.861921e+00    3.467616e+00
  3.877796e+00    3.505403e+00
  3.893672e+00    3.507688e+00
  3.909547e+00    3.459195e+00
  3.925423e+00    3.481453e+00
  3.941299e+00    3.438623e+00
  3.957174e+00    3.498414e+00
  3.973050e+00    3.460544e+00
  3.988925e+00    3.507017e+00
  4.004801e+00    3.472490e+00
  4.020676e+00    3.423309e+00
  4.036552e+00    3.483087e+00
  4.052428e+00    3.513410e+00
  4.068303e+00    3.493293e+00
  4.084179e+00    3.420635e+00
  4.100054e+00    3.457876e+00
  4.115930e+00    3.513443e+00
  4.131806e+00    3.519723e+00
  4.147681e+00    3.542475e+00
  4.163557e+00    3.530887e+00
  4.179432e+00    3.534816e+00
  4.195308e+00    3.528851e+00
  4.211183e+00    3.452848e+00
  4.227059e+00    3.451519e+00
  4.242935e+00    3.535338e+00
  4.258810e+00    3.625752e+00
  4.274686e+00    3.565689e+00
  4.290561e+00    3.566380e+00
  4.306437e+00    3.493738e+00
  4.322312e+00    3.457819e+00
  4.338188e+00    3.470934e+00
  4.354064e+00    3.580970e+00
  4.369939e+00    3.566929e+00
  4.385815e+00    3.525274e+00
  4.401690e+00    3.506423e+00
  4.417566e+00    3.615457e+00
  4.433441e+00    3.557004e+00
  4.449317e+00    3.549315e+00
  4.465193e+00    3.560159e+00
  4.481068e+00    3.556370e+00
  4.496944e+00    3.567747e+00
  4.512819e+00    3.570882e+00
  4.528695e+00    3.604190e+00
  4.544570e+00    3.645467e+00
  4.560446e+00    3.585218e+00
  4.576322e+00    3.501581e+00
  4.592197e+00    3.556609e+00
  4.608073e+00    3.575028e+00
  4.623948e+00    3.566651e+00
  4.639824e+00    3.591133e+00
  4.655699e+00    3.594075e+00
  4.671575e+00    3.590123e+00
  4.687451e+00    3.568263e+00
  4.703326e+00    3.573537e+00
  4.719202e+00    3.590976e+00
  4.735077e+00    3.583310e+00
  4.750953e+00    3.605223e+00
  4.766828e+00    3.614455e+00
  4.782704e+00    3.544827e+00
  4.798580e+00    3.556030e+00
  4.814455e+00    3.602884e+00
  4.830331e+00    3.636703e+00
  4.846206e+00    3.607887e+00
  4.862082e+00    3.631045e+00
  4.877957e+00    3.567091e+00
  4.893833e+00    3.600535e+00
  4.909709e+00    3.558473e+00
  4.925584e+00    3.554252e+00
  4.941460e+00    3.625127e+00
  4.957335e+00    3.704215e+00
  4.973211e+00    3.725047e+00
  4.989086e+00    3.646532e+00
  5.004962e+00    3.576110e+00
  5.020838e+00    3.637279e+00
  5.036713e+00    3.626449e+00
  5.052589e+00    3.643433e+00
  5.068464e+00    3.647582e+00
  5.084340e+00    3.630900e+00
  5.100216e+00    3.683946e+00
  5.116091e+00    3.622493e+00
  5.131967e+00    3.664042e+00
  5.147842e+00    3.618552e+00
  5.163718e+00    3.561094e+00
  5.179593e+00    3.601076e+00
  5.195469e+00    3.614856e+00
  5.211345e+00    3.737174e+00
  5.227220e+00    3.743886e+00
  5.243096e+00    3.611424e+00
  5.258971e+00    3.605304e+00
  5.274847e+00    3.604574e+00
  5.290722e+00    3.584327e+00
  5.306598e+00    3.673105e+00
  5.322474e+00    3.696218e+00
  5.338349e+00    3.523412e+00
  5.354225e+00    3.510949e+00
  5.370100e+00    3.618785e+00
  5.385976e+00    3.563805e+00
  5.401851e+00    3.601670e+00
  5.417727e+00    3.736769e+00
  5.433603e+00    3.735844e+00
  5.449478e+00    3.565544e+00
  5.465354e+00    3.495955e+00
  5.481229e+00    3.543546e+00
  5.497105e+00    3.508144e+00
  5.512980e+00    3.611416e+00
  5.528856e+00    3.632243e+00
  5.544732e+00    3.601317e+00
  5.560607e+00    3.610471e+00
  5.576483e+00    3.650463e+00
  5.592358e+00    3.589737e+00
  5.608234e+00    3.573138e+00
  5.624109e+00    3.571483e+00
  5.639985e+00    3.596413e+00
  5.655861e+00    3.576929e+00
  5.671736e+00    3.612048e+00
  5.687612e+00    3.548279e+00
  5.703487e+00    3.606027e+00
  5.719363e+00    3.624455e+00
  5.735238e+00    3.622277e+00
  5.751114e+00    3.617259e+00
  5.766990e+00    3.635512e+00
  5.782865e+00    3.580186e+00
  5.798741e+00    3.618222e+00
  5.814616e+00    3.644970e+00
  5.830492e+00    3.575223e+00
  5.846367e+00    3.526993e+00
  5.862243e+00    3.552427e+00
  5.878119e+00    3.586884e+00
  5.893994e+00    3.515378e+00
  5.909870e+00    3.499732e+00
  5.925745e+00    3.482087e+00
  5.941621e+00    3.561907e+00
  5.957497e+00    3.584724e+00
  5.973372e+00    3.461090e+00
  5.989248e+00    3.465493e+00
  6.005123e+00    3.482077e+00
  6.020999e+00    3.435327e+00
  6.036874e+00    3.500649e+00
  6.052750e+00    3.599907e+00
  6.068626e+00    3.541086e+00
  6.084501e+00    3.502262e+00
  6.100377e+00    3.588071e+00
  6.116252e+00    3.498422e+00
  6.132128e+00    3.484464e+00
  6.148003e+00    3.599470e+00
  6.163879e+00    3.601140e+00
  6.179755e+00    3.600864e+00
  6.195630e+00    3.604024e+00
  6.211506e+00    3.534473e+00
  6.227381e+00    3.518960e+00
  6.243257e+00    3.540567e+00
  6.259132e+00    3.500262e+00
  6.275008e+00    3.545612e+00
  6.290884e+00    3.523520e+00
  6.306759e+00    3.581889e+00
  6.322635e+00    3.615277e+00
  6.338510e+00    3.510425e+00
  6.354386e+00    3.508321e+00
  6.370261e+00    3.569125e+00
  6.386137e+00    3.548956e+00
  6.402013e+00    3.490428e+00
  6.417888e+00    3.510841e+00
  6.433764e+00    3.596980e+00
  6.449639e+00    3.633013e+00
  6.465515e+00    3.605965e+00
  6.481390e+00    3.544128e+00
  6.497266e+00    3.476884e+00
  6.513142e+00    3.538202e+00
  6.529017e+00    3.665774e+00
  6.544893e+00    3.592483e+00
  6.560768e+00    3.515318e+00
  6.576644e+00    3.537752e+00
  6.592519e+00    3.573958e+00
  6.608395e+00    3.598551e+00
  6.624271e+00    3.541993e+00
  6.640146e+00    3.538903e+00
  6.656022e+00    3.551657e+00
  6.671897e+00    3.502646e+00
  6.687773e+00    3.490500e+00
  6.703648e+00    3.511590e+00
  6.719524e+00    3.550436e+00
  6.735400e+00    3.519609e+00
  6.751275e+00    3.586390e+00
  6.767151e+00    3.510186e+00
  6.783026e+00    3.511497e+00
  6.798902e+00    3.541305e+00
  6.814777e+00    3.527562e+00
  6.830653e+00    3.587992e+00
  6.846529e+00    3.546836e+00
  6.862404e+00    3.482526e+00
  6.878280e+00    3.514005e+00
  6.894155e+00    3.495440e+00
  6.910031e+00    3.459142e+00
  6.925907e+00    3.543657e+00
  6.941782e+00    3.520369e+00
  6.957658e+00    3.519903e+00
  6.973533e+00    3.495123e+00
  6.989409e+00    3.484936e+00
  7.005284e+00    3.460100e+00
  7.021160e+00    3.508909e+00
  7.037036e+00    3.621981e+00
  7.052911e+00    3.655855e+00
  7.068787e+00    3.562749e+00
  7.084662e+00    3.527582e+00
  7.100538e+00    3.518736e+00
  7.116413e+00    3.561223e+00
  7.132289e+00    3.513877e+00
  7.148165e+00    3.515110e+00
  7.164040e+00    3.513310e+00
  7.179916e+00    3.514479e+00
  7.195791e+00    3.516514e+00
  7.211667e+00    3.471581e+00
  7.227542e+00    3.526949e+00
  7.243418e+00    3.511870e+00
  7.259294e+00    3.536587e+00
  7.275169e+00    3.514634e+00
  7.291045e+00    3.475127e+00
  7.306920e+00    3.475292e+00
  7.322796e+00    3.574127e+00
  7.338671e+00    3.550878e+00
  7.354547e+00    3.525237e+00
  7.370423e+00    3.481307e+00
  7.386298e+00    3.512385e+00
  7.402174e+00    3.487855e+00
  7.418049e+00    3.450490e+00
  7.433925e+00    3.498193e+00
  7.449800e+00    3.488522e+00
  7.465676e+00    3.463596e+00
  7.481552e+00    3.491187e+00
  7.497427e+00    3.485689e+00
  7.513303e+00    3.436368e+00
  7.529178e+00    3.443055e+00
  7.545054e+00    3.461866e+00
  7.560929e+00    3.434616e+00
  7.576805e+00    3.456418e+00
  7.592681e+00    3.453975e+00
  7.608556e+00    3.452692e+00
  7.624432e+00    3.502388e+00
  7.640307e+00    3.472012e+00
  7.656183e+00    3.381811e+00
  7.672058e+00    3.350102e+00
  7.687934e+00    3.407039e+00
  7.703810e+00    3.360936e+00
  7.719685e+00    3.404044e+00
  7.735561e+00    3.447780e+00
  7.751436e+00    3.418479e+00
  7.767312e+00    3.413921e+00
  7.783187e+00    3.404082e+00
  7.799063e+00    3.408246e+00
  7.814939e+00    3.404428e+00
  7.830814e+00    3.399041e+00
  7.846690e+00    3.405636e+00
  7.862565e+00    3.379977e+00
  7.878441e+00    3.400043e+00
  7.894317e+00    3.414605e+00
  7.910192e+00    3.387268e+00
  7.926068e+00    3.403459e+00
  7.941943e+00    3.368796e+00
  7.957819e+00    3.346684e+00
  7.973694e+00    3.436931e+00
  7.989570e+00    3.477795e+00
  8.005446e+00    3.392437e+00
  8.021321e+00    3.298855e+00
  8.037197e+00    3.365860e+00
  8.053072e+00    3.360772e+00
  8.068948e+00    3.383055e+00
  8.084823e+00    3.383610e+00
  8.100699e+00    3.389211e+00
  8.116575e+00    3.443680e+00
  8.132450e+00    3.393376e+00
  8.148326e+00    3.395132e+00
  8.164201e+00    3.460499e+00
  8.180077e+00    3.466099e+00
  8.195952e+00    3.461046e+00
  8.211828e+00    3.477211e+00
  8.227704e+00    3.455939e+00
  8.243579e+00    3.424015e+00
  8.259455e+00    3.395286e+00
  8.275330e+00    3.360411e+00
  8.291206e+00    3.393324e+00
  8.307081e+00    3.399066e+00
  8.322957e+00    3.404679e+00
  8.338833e+00    3.401423e+00
  8.354708e+00    3.397451e+00
  8.370584e+00    3.318944e+00
  8.386459e+00    3.334805e+00
  8.402335e+00    3.374926e+00
  8.418210e+00    3.402375e+00
  8.434086e+00    3.376482e+00
  8.449962e+00    3.334608e+00
  8.465837e+00    3.323661e+00
  8.481713e+00    3.384939e+00
  8.497588e+00    3.318257e+00
  8.513464e+00    3.379947e+00
  8.529339e+00    3.352036e+00
  8.545215e+00    3.300267e+00
  8.561091e+00    3.354806e+00
  8.576966e+00    3.324048e+00
  8.592842e+00    3.300079e+00
  8.608717e+00    3.348295e+00
  8.624593e+00    3.337309e+00
  8.640468e+00    3.301672e+00
  8.656344e+00    3.287417e+00
  8.672220e+00    3.295716e+00
  8.688095e+00    3.300797e+00
  8.703971e+00    3.278529e+00
  8.719846e+00    3.228525e+00
  8.735722e+00    3.280438e+00
  8.751598e+00    3.234718e+00
  8.767473e+00    3.244827e+00
  8.783349e+00    3.255699e+00
  8.799224e+00    3.265002e+00
  8.815100e+00    3.269026e+00
  8.830975e+00    3.301102e+00
  8.846851e+00    3.337215e+00
  8.862727e+00    3.308111e+00
  8.878602e+00    3.308038e+00
  8.894478e+00    3.351052e+00
  8.910353e+00    3.321587e+00
  8.926229e+00    3.262500e+00
  8.942104e+00    3.187254e+00
  8.957980e+00    3.265045e+00
  8.973856e+00    3.241254e+00
  8.989731e+00    3.246939e+00
  9.005607e+00    3.205608e+00
  9.021482e+00    3.287162e+00
  9.037358e+00    3.279799e+00
  9.053233e+00    3.224580e+00
  9.069109e+00    3.287014e+00
  9.084985e+00    3.264521e+00
  9.100860e+00    3.277557e+00
  9.116736e+00    3.294312e+00
  9.132611e+00    3.295719e+00
  9.148487e+00    3.257551e+00
  9.164362e+00    3.292854e+00
  9.180238e+00    3.300600e+00
  9.196114e+00    3.239658e+00
  9.211989e+00    3.258558e+00
  9.227865e+00    3.240721e+00
  9.243740e+00    3.267480e+00
  9.259616e+00    3.247717e+00
  9.275491e+00    3.187529e+00
  9.291367e+00    3.169019e+00
  9.307243e+00    3.247313e+00
  9.323118e+00    3.195985e+00
  9.338994e+00    3.141483e+00
  9.354869e+00    3.191523e+00
  9.370745e+00    3.202960e+00
  9.386620e+00    3.203169e+00
  9.402496e+00    3.230392e+00
  9.418372e+00    3.260067e+00
  9.434247e+00    3.227283e+00
  9.450123e+00    3.202982e+00
  9.465998e+00    3.170472e+00
  9.481874e+00    3.163093e+00
  9.497749e+00    3.197832e+00
  9.513625e+00    3.182153e+00
  9.529501e+00    3.223996e+00
  9.545376e+00    3.216669e+00
  9.561252e+00    3.230495e+00
  9.577127e+00    3.226987e+00
  9.593003e+00    3.184070e+00
  9.608878e+00    3.215237e+00
  9.624754e+00    3.196723e+00
  9.640630e+00    3.214974e+00
  9.656505e+00    3.160140e+00
  9.672381e+00    3.173202e+00
  9.688256e+00    3.166913e+00
  9.704132e+00    3.086972e+00
  9.720008e+00    3.129206e+00
  9.735883e+00    3.193559e+00
  9.751759e+00    3.168459e+00
  9.767634e+00    3.162790e+00
  9.783510e+00    3.106728e+00
  9.799385e+00    3.143351e+00
  9.815261e+00    3.129887e+00
  9.831137e+00    3.134222e+00
  9.847012e+00    3.129004e+00
  9.862888e+00    3.085094e+00
  9.878763e+00    3.094478e+00
  9.894639e+00    3.067683e+00
  9.910514e+00    3.117380e+00
  9.926390e+00    3.082504e+00
  9.942266e+00    3.122002e+00
  9.958141e+00    3.099743e+00
  9.974017e+00    3.113919e+00
  9.989892e+00    3.093667e+00
  1.000577e+01    3.047927e+00
  1.002164e+01    3.069804e+00
  1.003752e+01    3.143465e+00
  1.005339e+01    3.108358e+00
  1.006927e+01    3.043238e+00
  1.008515e+01    3.038014e+00
  1.010102e+01    2.981231e+00
  1.011690e+01    3.039418e+00
  1.013277e+01    2.984973e+00
  1.014865e+01    3.025545e+00
  1.016452e+01    3.033149e+00
  1.018040e+01    2.998771e+00
  1.019627e+01    2.970602e+00
  1.021215e+01    3.048694e+00
  1.022803e+01    3.043153e+00
  1.024390e+01    3.060114e+00
  1.025978e+01    3.065039e+00
  1.027565e+01    3.064731e+00
  1.029153e+01    3.066331e+00
  1.030740e+01    3.021381e+00
  1.032328e+01    3.067047e+00
  1.033915e+01    3.050739e+00
  1.035503e+01    3.032753e+00
  1.037091e+01    3.085370e+00
  1.038678e+01    3.048435e+00
  1.040266e+01    3.027838e+00
  1.041853e+01    2.988303e+00
  1.043441e+01    3.007320e+00
  1.045028e+01    2.997959e+00
  1.046616e+01    2.993580e+00
  1.048204e+01    3.034267e+00
  1.049791e+01    2.964560e+00
  1.051379e+01    3.030385e+00
  1.052966e+01    3.005530e+00
  1.054554e+01    2.964471e+00
  1.056141e+01    3.008033e+00
  1.057729e+01    2.985132e+00
  1.059316e+01    2.988388e+00
  1.060904e+01    2.921582e+00
  1.062492e+01    3.008322e+00
  1.064079e+01    3.016686e+00
  1.065667e+01    2.998924e+00
  1.067254e+01    2.978736e+00
  1.068842e+01    2.926166e+00
  1.070429e+01    2.940980e+00
  1.072017e+01    2.938600e+00
  1.073604e+01    2.955809e+00
  1.075192e+01    2.950635e+00
  1.076780e+01    2.915930e+00
  1.078367e+01    2.940103e+00
  1.079955e+01    2.934279e+00
  1.081542e+01    2.922327e+00
  1.083130e+01    2.959659e+00
  1.084717e+01    2.920932e+00
  1.086305e+01    2.896707e+00
  1.087892e+01    2.980742e+00
  1.089480e+01    2.940985e+00
  1.091068e+01    2.881062e+00
  1.092655e+01    2.905156e+00
  1.094243e+01    2.929926e+00
  1.095830e+01    2.896724e+00
  1.097418e+01    2.883166e+00
  1.099005e+01    2.908683e+00
  1.100593e+01    2.938252e+00
  1.102180e+01    2.871686e+00
  1.103768e+01    2.875582e+00
  1.105356e+01    2.891125e+00
  1.106943e+01    2.828099e+00
  1.108531e+01    2.873856e+00
  1.110118e+01    2.860776e+00
  1.111706e+01    2.880379e+00
  1.113293e+01    2.852936e+00
  1.114881e+01    2.888076e+00
  1.116468e+01    2.888282e+00
  1.118056e+01    2.852548e+00
  1.119644e+01    2.847379e+00
  1.121231e+01    2.844520e+00
  1.122819e+01    2.862281e+00
  1.124406e+01    2.841421e+00
  1.125994e+01    2.828718e+00
  1.127581e+01    2.775054e+00
  1.129169e+01    2.849076e+00
  1.130756e+01    2.859915e+00
  1.132344e+01    2.785104e+00
  1.133932e+01    2.828738e+00
  1.135519e+01    2.798910e+00
  1.137107e+01    2.818424e+00
  1.138694e+01    2.785154e+00
  1.140282e+01    2.818329e+00
  1.141869e+01    2.813766e+00
  1.143457e+01    2.822530e+00
  1.145045e+01    2.773393e+00
  1.146632e+01    2.838046e+00
  1.148220e+01    2.845489e+00
  1.149807e+01    2.829097e+00
  1.151395e+01    2.820833e+00
  1.152982e+01    2.782108e+00
  1.154570e+01    2.769384e+00
  1.156157e+01    2.746250e+00
  1.157745e+01    2.780199e+00
  1.159333e+01    2.796522e+00
  1.160920e+01    2.781873e+00
  1.162508e+01    2.742764e+00
  1.164095e+01    2.705833e+00
  1.165683e+01    2.731066e+00
  1.167270e+01    2.730623e+00
  1.168858e+01    2.769626e+00
  1.170445e+01    2.786397e+00
  1.172033e+01    2.807840e+00
  1.173621e+01    2.753796e+00
  1.175208e+01    2.687779e+00
  1.176796e+01    2.724755e+00
  1.178383e+01    2.761763e+00
  1.179971e+01    2.720376e+00
  1.181558e+01    2.709235e+00
  1.183146e+01    2.692373e+00
  1.184733e+01    2.680681e+00
  1.186321e+01    2.721010e+00
  1.187909e+01    2.745365e+00
  1.189496e+01    2.732599e+00
  1.191084e+01    2.744297e+00
  1.192671e+01    2.779194e+00
  1.194259e+01    2.752605e+00
  1.195846e+01    2.672271e+00
  1.197434e+01    2.710636e+00
  1.199021e+01    2.719438e+00
  1.200609e+01    2.687517e+00
  1.202197e+01    2.714511e+00
  1.203784e+01    2.677195e+00
  1.205372e+01    2.679187e+00
  1.206959e+01    2.677622e+00
  1.208547e+01    2.697140e+00
  1.210134e+01    2.713414e+00
  1.211722e+01    2.701833e+00
  1.213309e+01    2.677490e+00
  1.214897e+01    2.663252e+00
  1.216485e+01    2.667753e+00
  1.218072e+01    2.664514e+00
  1.219660e+01    2.683868e+00
  1.221247e+01    2.753622e+00
  1.222835e+01    2.721116e+00
  1.224422e+01    2.641693e+00
  1.226010e+01    2.629636e+00
  1.227597e+01    2.693059e+00
  1.229185e+01    2.676087e+00
  1.230773e+01    2.664223e+00
  1.232360e+01    2.656323e+00
  1.233948e+01    2.689277e+00
  1.235535e+01    2.648494e+00
  1.237123e+01    2.633668e+00
  1.238710e+01    2.683764e+00
  1.240298e+01    2.636498e+00
  1.241886e+01    2.688870e+00
  1.243473e+01    2.719534e+00
  1.245061e+01    2.681327e+00
  1.246648e+01    2.697554e+00
  1.248236e+01    2.703646e+00
  1.249823e+01    2.702604e+00
  1.251411e+01    2.711522e+00
  1.252998e+01    2.675222e+00
  1.254586e+01    2.704805e+00
  1.256174e+01    2.702547e+00
  1.257761e+01    2.698769e+00
  1.259349e+01    2.692977e+00
  1.260936e+01    2.731627e+00
  1.262524e+01    2.761994e+00
  1.264111e+01    2.771689e+00
  1.265699e+01    2.729398e+00
  1.267286e+01    2.771764e+00
  1.268874e+01    2.777906e+00
  1.270462e+01    2.798887e+00
  1.272049e+01    2.824180e+00
  1.273637e+01    2.842180e+00
  1.275224e+01    2.845378e+00
  1.276812e+01    2.882618e+00
  1.278399e+01    2.915548e+00
  1.279987e+01    2.985962e+00
  1.281574e+01    3.052819e+00
  1.283162e+01    3.142411e+00
  1.284750e+01    3.157751e+00
  1.286337e+01    3.206048e+00
  1.287925e+01    3.341453e+00
  1.289512e+01    3.445089e+00
  1.291100e+01    3.614243e+00
  1.292687e+01    3.776230e+00
  1.294275e+01    4.021539e+00
  1.295862e+01    4.323755e+00
  1.297450e+01    4.643345e+00
  1.299038e+01    5.209869e+00
  1.300625e+01    5.867970e+00
  1.302213e+01    6.635085e+00
  1.303800e+01    7.702598e+00
  1.305388e+01    8.836425e+00
  1.306975e+01    1.002211e+01
  1.308563e+01    1.133657e+01
  1.310150e+01    1.249920e+01
  1.311738e+01    1.366083e+01
  1.313326e+01    1.462227e+01
  1.314913e+01    1.542040e+01
  1.316501e+01    1.615106e+01
  1.318088e+01    1.616838e+01
  1.319676e+01    1.554478e+01
  1.321263e+01    1.402500e+01
  1.322851e+01    1.236364e+01
  1.324438e+01    1.064058e+01
  1.326026e+01    8.990413e+00
  1.327614e+01    7.709765e+00
  1.329201e+01    6.676960e+00
  1.330789e+01    5.910271e+00
  1.332376e+01    5.269303e+00
  1.333964e+01    4.810653e+00
  1.335551e+01    4.378585e+00
  1.337139e+01    4.085071e+00
  1.338727e+01    3.847882e+00
  1.340314e+01    3.618633e+00
  1.341902e+01    3.448238e+00
  1.343489e+01    3.365721e+00
  1.345077e+01    3.221270e+00
  1.346664e+01    3.125518e+00
  1.348252e+01    3.020352e+00
  1.349839e+01    2.916185e+00
  1.351427e+01    2.846285e+00
  1.353015e+01    2.838153e+00
  1.354602e+01    2.753223e+00
  1.356190e+01    2.725669e+00
  1.357777e+01    2.726252e+00
  1.359365e+01    2.682645e+00
  1.360952e+01    2.666260e+00
  1.362540e+01    2.595415e+00
  1.364127e+01    2.566947e+00
  1.365715e+01    2.567327e+00
  1.367303e+01    2.559596e+00
  1.368890e+01    2.607899e+00
  1.370478e+01    2.516296e+00
  1.372065e+01    2.504011e+00
  1.373653e+01    2.490056e+00
  1.375240e+01    2.456165e+00
  1.376828e+01    2.469293e+00
  1.378415e+01    2.434480e+00
  1.380003e+01    2.423125e+00
  1.381591e+01    2.409962e+00
  1.383178e+01    2.456856e+00
  1.384766e+01    2.437809e+00
  1.386353e+01    2.372145e+00
  1.387941e+01    2.404344e+00
  1.389528e+01    2.403603e+00
  1.391116e+01    2.415374e+00
  1.392703e+01    2.432030e+00
  1.394291e+01    2.381220e+00
  1.395879e+01    2.372184e+00
  1.397466e+01    2.380895e+00
  1.399054e+01    2.387161e+00
  1.400641e+01    2.368617e+00
  1.402229e+01    2.334444e+00
  1.403816e+01    2.330651e+00
  1.405404e+01    2.386051e+00
  1.406991e+01    2.350309e+00
  1.408579e+01    2.338585e+00
  1.410167e+01    2.284322e+00
  1.411754e+01    2.281543e+00
  1.413342e+01    2.274708e+00
  1.414929e+01    2.294780e+00
  1.416517e+01    2.284014e+00
  1.418104e+01    2.295865e+00
  1.419692e+01    2.290468e+00
  1.421279e+01    2.313693e+00
  1.422867e+01    2.315080e+00
  1.424455e+01    2.272584e+00
  1.426042e+01    2.280868e+00
  1.427630e+01    2.246160e+00
  1.429217e+01    2.269148e+00
  1.430805e+01    2.326154e+00
  1.432392e+01    2.276272e+00
  1.433980e+01    2.249787e+00
  1.435568e+01    2.196527e+00
  1.437155e+01    2.222989e+00
  1.438743e+01    2.216775e+00
  1.440330e+01    2.219818e+00
  1.441918e+01    2.248551e+00
  1.443505e+01    2.227940e+00
  1.445093e+01    2.214386e+00
  1.446680e+01    2.189824e+00
  1.448268e+01    2.214873e+00
  1.449856e+01    2.253571e+00
  1.451443e+01    2.220315e+00
  1.453031e+01    2.201428e+00
  1.454618e+01    2.213804e+00
  1.456206e+01    2.174435e+00
  1.457793e+01    2.216415e+00
  1.459381e+01    2.206919e+00
  1.460968e+01    2.208525e+00
  1.462556e+01    2.202116e+00
  1.464144e+01    2.212267e+00
  1.465731e+01    2.183936e+00
  1.467319e+01    2.172915e+00
  1.468906e+01    2.169975e+00
  1.470494e+01    2.214073e+00
  1.472081e+01    2.209668e+00
  1.473669e+01    2.183748e+00
  1.475256e+01    2.176988e+00
  1.476844e+01    2.178343e+00
  1.478432e+01    2.198090e+00
  1.480019e+01    2.226923e+00
  1.481607e+01    2.178161e+00
  1.483194e+01    2.163612e+00
  1.484782e+01    2.143301e+00
  1.486369e+01    2.204799e+00
  1.487957e+01    2.216960e+00
  1.489544e+01    2.235057e+00
  1.491132e+01    2.280019e+00
  1.492720e+01    2.227588e+00
  1.494307e+01    2.290752e+00
  1.495895e+01    2.300807e+00
  1.497482e+01    2.306358e+00
  1.499070e+01    2.366015e+00
  1.500657e+01    2.453320e+00
  1.502245e+01    2.465892e+00
  1.503832e+01    2.561993e+00
  1.505420e+01    2.592278e+00
  1.507008e+01    2.745548e+00
  1.508595e+01    2.910919e+00
  1.510183e+01    3.147453e+00
  1.511770e+01    3.493880e+00
  1.513358e+01    3.797941e+00
  1.514945e+01    4.101399e+00
  1.516533e+01    4.487808e+00
  1.518120e+01    4.833687e+00
  1.519708e+01    5.122261e+00
  1.521296e+01    5.360073e+00
  1.522883e+01    5.504115e+00
  1.524471e+01    5.618280e+00
  1.526058e+01    5.729083e+00
  1.527646e+01    5.641363e+00
  1.529233e+01    5.396179e+00
  1.530821e+01    5.119802e+00
  1.532409e+01    4.614272e+00
  1.533996e+01    4.123888e+00
  1.535584e+01    3.706741e+00
  1.537171e+01    3.392394e+00
  1.538759e+01    3.178073e+00
  1.540346e+01    2.935288e+00
  1.541934e+01    2.745683e+00
  1.543521e+01    2.579720e+00
  1.545109e+01    2.494465e+00
  1.546697e+01    2.449668e+00
  1.548284e+01    2.367161e+00
  1.549872e+01    2.283233e+00
  1.551459e+01    2.233098e+00
  1.553047e+01    2.163280e+00
  1.554634e+01    2.149834e+00
  1.556222e+01    2.136967e+00
  1.557809e+01    2.099068e+00
  1.559397e+01    2.084125e+00
  1.560985e+01    2.063547e+00
  1.562572e+01    2.047627e+00
  1.564160e+01    2.016909e+00
  1.565747e+01    2.015557e+00
  1.567335e+01    2.031975e+00
  1.568922e+01    2.000056e+00
  1.570510e+01    1.964944e+00
  1.572097e+01    1.961932e+00
  1.573685e+01    1.959703e+00
  1.575273e+01    1.974959e+00
  1.576860e+01    1.945897e+00
  1.578448e+01    1.974388e+00
  1.580035e+01    1.933424e+00
  1.581623e+01    1.888208e+00
  1.583210e+01    1.935957e+00
  1.584798e+01    1.928312e+00
  1.586385e+01    1.899607e+00
  1.587973e+01    1.849288e+00
  1.589561e+01    1.877537e+00
  1.591148e+01    1.909770e+00
  1.592736e+01    1.889047e+00
  1.594323e+01    1.881565e+00
  1.595911e+01    1.870781e+00
  1.597498e+01    1.876311e+00
  1.599086e+01    1.867586e+00
  1.600673e+01    1.873001e+00
  1.602261e+01    1.850740e+00
  1.603849e+01    1.838359e+00
  1.605436e+01    1.826856e+00
  1.607024e+01    1.837518e+00
  1.608611e+01    1.851933e+00
  1.610199e+01    1.830896e+00
  1.611786e+01    1.826403e+00
  1.613374e+01    1.802062e+00
  1.614961e+01    1.815742e+00
  1.616549e+01    1.821531e+00
  1.618137e+01    1.835081e+00
  1.619724e+01    1.845614e+00
  1.621312e+01    1.842328e+00
  1.622899e+01    1.807460e+00
  1.624487e+01    1.786993e+00
  1.626074e+01    1.811209e+00
  1.627662e+01    1.844361e+00
  1.629250e+01    1.820712e+00
  1.630837e+01    1.782923e+00
  1.632425e+01    1.796341e+00
  1.634012e+01    1.813568e+00
  1.635600e+01    1.795668e+00
  1.637187e+01    1.759073e+00
  1.638775e+01    1.767566e+00
  1.640362e+01    1.762832e+00
  1.641950e+01    1.785262e+00
  1.643538e+01    1.778828e+00
  1.645125e+01    1.741466e+00
  1.646713e+01    1.747111e+00
  1.648300e+01    1.760713e+00
  1.649888e+01    1.751325e+00
  1.651475e+01    1.732189e+00
  1.653063e+01    1.708567e+00
  1.654650e+01    1.739950e+00
  1.656238e+01    1.723894e+00
  1.657826e+01    1.742484e+00
  1.659413e+01    1.725714e+00
  1.661001e+01    1.731160e+00
  1.662588e+01    1.728838e+00
  1.664176e+01    1.737936e+00
  1.665763e+01    1.728645e+00
  1.667351e+01    1.727272e+00
  1.668938e+01    1.740180e+00
  1.670526e+01    1.701835e+00
  1.672114e+01    1.698465e+00
  1.673701e+01    1.713488e+00
  1.675289e+01    1.697885e+00
  1.676876e+01    1.701844e+00
  1.678464e+01    1.690464e+00
  1.680051e+01    1.695216e+00
  1.681639e+01    1.669068e+00
  1.683226e+01    1.663088e+00
  1.684814e+01    1.684243e+00
  1.686402e+01    1.707111e+00
  1.687989e+01    1.691386e+00
  1.689577e+01    1.684469e+00
  1.691164e+01    1.662992e+00
  1.692752e+01    1.682977e+00
  1.694339e+01    1.652439e+00
  1.695927e+01    1.650363e+00
  1.697514e+01    1.656026e+00
  1.699102e+01    1.658996e+00
  1.700690e+01    1.654408e+00
  1.702277e+01    1.670737e+00
  1.703865e+01    1.681315e+00
  1.705452e+01    1.664226e+00
  1.707040e+01    1.601616e+00
  1.708627e+01    1.617088e+00
  1.710215e+01    1.605266e+00
  1.711802e+01    1.595950e+00
  1.713390e+01    1.621744e+00
  1.714978e+01    1.655560e+00
  1.716565e+01    1.635870e+00
  1.718153e+01    1.637613e+00
  1.719740e+01    1.626717e+00
  1.721328e+01    1.627978e+00
  1.722915e+01    1.612470e+00
  1.724503e+01    1.610370e+00
  1.726091e+01    1.586750e+00
  1.727678e+01    1.604239e+00
  1.729266e+01    1.627579e+00
  1.730853e+01    1.600021e+00
  1.732441e+01    1.565497e+00
  1.734028e+01    1.578178e+00
  1.735616e+01    1.605280e+00
  1.737203e+01    1.584560e+00
  1.738791e+01    1.569006e+00
  1.740379e+01    1.589042e+00
  1.741966e+01    1.587593e+00
  1.743554e+01    1.605108e+00
  1.745141e+01    1.588460e+00
  1.746729e+01    1.564569e+00
  1.748316e+01    1.554403e+00
  1.749904e+01    1.569286e+00
  1.751491e+01    1.579039e+00
  1.753079e+01    1.568761e+00
  1.754667e+01    1.574236e+00
  1.756254e+01    1.585429e+00
  1.757842e+01    1.548796e+00
  1.759429e+01    1.535544e+00
  1.761017e+01    1.553876e+00
  1.762604e+01    1.563404e+00
  1.764192e+01    1.555302e+00
  1.765779e+01    1.531752e+00
  1.767367e+01    1.539262e+00
  1.768955e+01    1.546136e+00
  1.770542e+01    1.542194e+00
  1.772130e+01    1.524244e+00
  1.773717e+01    1.541914e+00
  1.775305e+01    1.557714e+00
  1.776892e+01    1.539731e+00
  1.778480e+01    1.562898e+00
  1.780067e+01    1.562287e+00
  1.781655e+01    1.561702e+00
  1.783243e+01    1.523358e+00
  1.784830e+01    1.498285e+00
  1.786418e+01    1.508283e+00
  1.788005e+01    1.524293e+00
  1.789593e+01    1.490738e+00
  1.791180e+01    1.499218e+00
  1.792768e+01    1.510366e+00
  1.794355e+01    1.538750e+00
  1.795943e+01    1.518561e+00
  1.797531e+01    1.512099e+00
  1.799118e+01    1.496281e+00
  1.800706e+01    1.508716e+00
  1.802293e+01    1.498215e+00
  1.803881e+01    1.487043e+00
  1.805468e+01    1.492620e+00
  1.807056e+01    1.506149e+00
  1.808643e+01    1.486283e+00
  1.810231e+01    1.505437e+00
  1.811819e+01    1.511286e+00
  1.813406e+01    1.480394e+00
  1.814994e+01    1.474817e+00
  1.816581e+01    1.472296e+00
  1.818169e+01    1.479517e+00
  1.819756e+01    1.444998e+00
  1.821344e+01    1.462752e+00
  1.822932e+01    1.484449e+00
  1.824519e+01    1.456938e+00
  1.826107e+01    1.456778e+00
  1.827694e+01    1.447576e+00
  1.829282e+01    1.441672e+00
  1.830869e+01    1.465191e+00
  1.832457e+01    1.471555e+00
  1.834044e+01    1.456228e+00
  1.835632e+01    1.455072e+00
  1.837220e+01    1.427102e+00
  1.838807e+01    1.426408e+00
  1.840395e+01    1.460972e+00
  1.841982e+01    1.444553e+00
  1.843570e+01    1.452393e+00
  1.845157e+01    1.451244e+00
  1.846745e+01    1.444348e+00
  1.848332e+01    1.426944e+00
  1.849920e+01    1.438965e+00
  1.851508e+01    1.411448e+00
  1.853095e+01    1.433571e+00
  1.854683e+01    1.424824e+00
  1.856270e+01    1.423699e+00
  1.857858e+01    1.444772e+00
  1.859445e+01    1.449276e+00
  1.861033e+01    1.453761e+00
  1.862620e+01    1.452864e+00
  1.864208e+01    1.449211e+00
  1.865796e+01    1.412036e+00
  1.867383e+01    1.414907e+00
  1.868971e+01    1.432968e+00
  1.870558e+01    1.388780e+00
  1.872146e+01    1.392029e+00
  1.873733e+01    1.412348e+00
  1.875321e+01    1.401931e+00
  1.876908e+01    1.412890e+00
  1.878496e+01    1.410395e+00
  1.880084e+01    1.417309e+00
  1.881671e+01    1.396433e+00
  1.883259e+01    1.434424e+00
  1.884846e+01    1.447674e+00
  1.886434e+01    1.435563e+00
  1.888021e+01    1.398866e+00
  1.889609e+01    1.385091e+00
  1.891196e+01    1.378490e+00
  1.892784e+01    1.396160e+00
  1.894372e+01    1.395425e+00
  1.895959e+01    1.401654e+00
  1.897547e+01    1.389080e+00
  1.899134e+01    1.374421e+00
  1.900722e+01    1.353627e+00
  1.902309e+01    1.363822e+00
  1.903897e+01    1.341972e+00
  1.905484e+01    1.349949e+00
  1.907072e+01    1.369564e+00
  1.908660e+01    1.363724e+00
  1.910247e+01    1.383759e+00
  1.911835e+01    1.349094e+00
  1.913422e+01    1.381857e+00
  1.915010e+01    1.384142e+00
  1.916597e+01    1.376822e+00
  1.918185e+01    1.371434e+00
  1.919773e+01    1.371134e+00
  1.921360e+01    1.352175e+00
  1.922948e+01    1.353597e+00
  1.924535e+01    1.371019e+00
  1.926123e+01    1.363758e+00
  1.927710e+01    1.344903e+00
  1.929298e+01    1.360544e+00
  1.930885e+01    1.353777e+00
  1.932473e+01    1.354105e+00
  1.934061e+01    1.334038e+00
  1.935648e+01    1.336033e+00
  1.937236e+01    1.319474e+00
  1.938823e+01    1.319925e+00
  1.940411e+01    1.334101e+00
  1.941998e+01    1.325331e+00
  1.943586e+01    1.311963e+00
  1.945173e+01    1.304864e+00
  1.946761e+01    1.321378e+00
  1.948349e+01    1.323305e+00
  1.949936e+01    1.334734e+00
  1.951524e+01    1.323271e+00
  1.953111e+01    1.335956e+00
  1.954699e+01    1.325585e+00
  1.956286e+01    1.318491e+00
  1.957874e+01    1.313876e+00
  1.959461e+01    1.292804e+00
  1.961049e+01    1.311062e+00
  1.962637e+01    1.308650e+00
  1.964224e+01    1.298989e+00
  1.965812e+01    1.293659e+00
  1.967399e+01    1.290284e+00
  1.968987e+01    1.288768e+00
  1.970574e+01    1.292558e+00
  1.972162e+01    1.300478e+00
  1.973749e+01    1.290034e+00
  1.975337e+01    1.289387e+00
  1.976925e+01    1.293218e+00
  1.978512e+01    1.298502e+00
  1.980100e+01    1.302198e+00
  1.981687e+01    1.308479e+00
  1.983275e+01    1.284679e+00
  1.984862e+01    1.281879e+00
  1.986450e+01    1.273475e+00
  1.988037e+01    1.259904e+00
  1.989625e+01    1.261353e+00
  1.991213e+01    1.285951e+00
  1.992800e+01    1.279235e+00
  1.994388e+01    1.243196e+00
  1.995975e+01    1.263934e+00
  1.997563e+01    1.292334e+00
  1.999150e+01    1.272981e+00
  2.000738e+01    1.296074e+00
  2.002325e+01    1.292701e+00
  2.003913e+01    1.250539e+00
  2.005501e+01    1.254210e+00
  2.007088e+01    1.273994e+00
  2.008676e+01    1.273416e+00
  2.010263e+01    1.252360e+00
  2.011851e+01    1.252452e+00
  2.013438e+01    1.256961e+00
  2.015026e+01    1.242149e+00
  2.016614e+01    1.259267e+00
  2.018201e+01    1.255517e+00
  2.019789e+01    1.247742e+00
  2.021376e+01    1.242318e+00
  2.022964e+01    1.226765e+00
  2.024551e+01    1.248663e+00
  2.026139e+01    1.265566e+00
  2.027726e+01    1.267252e+00
  2.029314e+01    1.251379e+00
  2.030902e+01    1.273456e+00
  2.032489e+01    1.263769e+00
  2.034077e+01    1.225820e+00
  2.035664e+01    1.234953e+00
  2.037252e+01    1.236599e+00
  2.038839e+01    1.228751e+00
  2.040427e+01    1.250896e+00
  2.042014e+01    1.246196e+00
  2.043602e+01    1.262136e+00
  2.045190e+01    1.239468e+00
  2.046777e+01    1.252376e+00
  2.048365e+01    1.245777e+00
  2.049952e+01    1.247393e+00
  2.051540e+01    1.247141e+00
  2.053127e+01    1.251391e+00
  2.054715e+01    1.221681e+00
  2.056302e+01    1.243061e+00
  2.057890e+01    1.225148e+00
  2.059478e+01    1.215465e+00
  2.061065e+01    1.222696e+00
  2.062653e+01    1.215429e+00
  2.064240e+01    1.220812e+00
  2.065828e+01    1.232054e+00
  2.067415e+01    1.219887e+00
  2.069003e+01    1.222898e+00
  2.070590e+01    1.232871e+00
  2.072178e+01    1.229696e+00
  2.073766e+01    1.206170e+00
  2.075353e+01    1.214935e+00
  2.076941e+01    1.203884e+00
  2.078528e+01    1.223651e+00
  2.080116e+01    1.239296e+00
  2.081703e+01    1.206120e+00
  2.083291e+01    1.209266e+00
  2.084878e+01    1.213389e+00
  2.086466e+01    1.213447e+00
  2.088054e+01    1.220325e+00
  2.089641e+01    1.220464e+00
  2.091229e+01    1.206736e+00
  2.092816e+01    1.210902e+00
  2.094404e+01    1.223659e+00
  2.095991e+01    1.205881e+00
  2.097579e+01    1.202874e+00
  2.099166e+01    1.203335e+00
  2.100754e+01    1.202897e+00
  2.102342e+01    1.210505e+00
  2.103929e+01    1.215463e+00
  2.105517e+01    1.227606e+00
  2.107104e+01    1.215145e+00
  2.108692e+01    1.231150e+00
  2.110279e+01    1.231254e+00
  2.111867e+01    1.199915e+00
  2.113455e+01    1.194434e+00
  2.115042e+01    1.223545e+00
  2.116630e+01    1.243529e+00
  2.118217e+01    1.221173e+00
  2.119805e+01    1.218884e+00
  2.121392e+01    1.238465e+00
  2.122980e+01    1.234215e+00
  2.124567e+01    1.246936e+00
  2.126155e+01    1.256377e+00
  2.127743e+01    1.256018e+00
  2.129330e+01    1.274269e+00
  2.130918e+01    1.243538e+00
  2.132505e+01    1.247056e+00
  2.134093e+01    1.269852e+00
  2.135680e+01    1.267314e+00
  2.137268e+01    1.293255e+00
  2.138855e+01    1.296809e+00
  2.140443e+01    1.297546e+00
  2.142031e+01    1.328618e+00
  2.143618e+01    1.332548e+00
  2.145206e+01    1.328022e+00
  2.146793e+01    1.356972e+00
  2.148381e+01    1.379031e+00
  2.149968e+01    1.429700e+00
  2.151556e+01    1.434669e+00
  2.153143e+01    1.465364e+00
  2.154731e+01    1.505290e+00
  2.156319e+01    1.549872e+00
  2.157906e+01    1.616068e+00
  2.159494e+01    1.664487e+00
  2.161081e+01    1.760086e+00
  2.162669e+01    1.861524e+00
  2.164256e+01    1.958353e+00
  2.165844e+01    2.111098e+00
  2.167431e+01    2.243215e+00
  2.169019e+01    2.451112e+00
  2.170607e+01    2.702185e+00
  2.172194e+01    3.074432e+00
  2.173782e+01    3.515682e+00
  2.175369e+01    3.962904e+00
  2.176957e+01    4.524790e+00
  2.178544e+01    5.141185e+00
  2.180132e+01    5.809874e+00
  2.181719e+01    6.417102e+00
  2.183307e+01    7.090323e+00
  2.184895e+01    7.660050e+00
  2.186482e+01    8.200269e+00
  2.188070e+01    8.673897e+00
  2.189657e+01    8.846824e+00
  2.191245e+01    8.665181e+00
  2.192832e+01    8.218530e+00
  2.194420e+01    7.424025e+00
  2.196007e+01    6.523145e+00
  2.197595e+01    5.657912e+00
  2.199183e+01    4.836711e+00
  2.200770e+01    4.124581e+00
  2.202358e+01    3.602608e+00
  2.203945e+01    3.142690e+00
  2.205533e+01    2.841213e+00
  2.207120e+01    2.558784e+00
  2.208708e+01    2.332859e+00
  2.210296e+01    2.125219e+00
  2.211883e+01    2.015970e+00
  2.213471e+01    1.856971e+00
  2.215058e+01    1.740303e+00
  2.216646e+01    1.652586e+00
  2.218233e+01    1.598524e+00
  2.219821e+01    1.529490e+00
  2.221408e+01    1.492090e+00
  2.222996e+01    1.435605e+00
  2.224584e+01    1.398849e+00
  2.226171e+01    1.376305e+00
  2.227759e+01    1.344185e+00
  2.229346e+01    1.305291e+00
  2.230934e+01    1.288616e+00
  2.232521e+01    1.251397e+00
  2.234109e+01    1.247347e+00
  2.235696e+01    1.228894e+00
  2.237284e+01    1.222248e+00
  2.238872e+01    1.180073e+00
  2.240459e+01    1.165056e+00
  2.242047e+01    1.186181e+00
  2.243634e+01    1.170998e+00
  2.245222e+01    1.147540e+00
  2.246809e+01    1.146182e+00
  2.248397e+01    1.137949e+00
  2.249984e+01    1.110848e+00
  2.251572e+01    1.113491e+00
  2.253160e+01    1.109434e+00
  2.254747e+01    1.141592e+00
  2.256335e+01    1.111107e+00
  2.257922e+01    1.109418e+00
  2.259510e+01    1.094430e+00
  2.261097e+01    1.099249e+00
  2.262685e+01    1.096025e+00
  2.264272e+01    1.091007e+00
  2.265860e+01    1.082977e+00
  2.267448e+01    1.084236e+00
  2.269035e+01    1.091899e+00
  2.270623e+01    1.087909e+00
  2.272210e+01    1.067834e+00
  2.273798e+01    1.058195e+00
  2.275385e+01    1.076251e+00
  2.276973e+01    1.050532e+00
  2.278560e+01    1.070887e+00
  2.280148e+01    1.073445e+00
  2.281736e+01    1.044948e+00
  2.283323e+01    1.052464e+00
  2.284911e+01    1.039708e+00
  2.286498e+01    1.040148e+00
  2.288086e+01    1.025147e+00
  2.289673e+01    1.008663e+00
  2.291261e+01    1.006407e+00
  2.292848e+01    1.032094e+00
  2.294436e+01    1.026758e+00
  2.296024e+01    1.033388e+00
  2.297611e+01    1.037090e+00
  2.299199e+01    1.014955e+00
  2.300786e+01    9.819802e-01
  2.302374e+01    9.906256e-01
  2.303961e+01    9.956836e-01
  2.305549e+01    9.949110e-01
  2.307137e+01    1.003716e+00
  2.308724e+01    1.014807e+00
  2.310312e+01    1.001431e+00
  2.311899e+01    9.855216e-01
  2.313487e+01    9.897033e-01
  2.315074e+01    9.910170e-01
  2.316662e+01    9.942430e-01
  2.318249e+01    1.007804e+00
  2.319837e+01    1.001714e+00
  2.321425e+01    1.000886e+00
  2.323012e+01    9.945441e-01
  2.324600e+01    1.011619e+00
  2.326187e+01    9.743061e-01
  2.327775e+01    9.599387e-01
  2.329362e+01    9.738669e-01
  2.330950e+01    9.708580e-01
  2.332537e+01    9.587756e-01
  2.334125e+01    9.696564e-01
  2.335713e+01    9.860747e-01
  2.337300e+01    9.988565e-01
  2.338888e+01    9.544867e-01
  2.340475e+01    9.334641e-01
  2.342063e+01    9.467872e-01
  2.343650e+01    9.592763e-01
  2.345238e+01    9.739474e-01
  2.346825e+01    9.676716e-01
  2.348413e+01    9.727562e-01
  2.350001e+01    9.371133e-01
  2.351588e+01    9.394678e-01
  2.353176e+01    9.407700e-01
  2.354763e+01    9.350024e-01
  2.356351e+01    9.426029e-01
  2.357938e+01    9.546288e-01
  2.359526e+01    9.711115e-01
  2.361113e+01    9.855453e-01
  2.362701e+01    9.666604e-01
  2.364289e+01    9.629787e-01
  2.365876e+01    9.496943e-01
  2.367464e+01    9.518352e-01
  2.369051e+01    9.404014e-01
  2.370639e+01    9.307684e-01
  2.372226e+01    9.435575e-01
  2.373814e+01    9.049773e-01
  2.375401e+01    9.051321e-01
  2.376989e+01    8.999921e-01
  2.378577e+01    9.032909e-01
  2.380164e+01    9.026223e-01
  2.381752e+01    9.033403e-01
  2.383339e+01    9.047140e-01
  2.384927e+01    9.105403e-01
  2.386514e+01    9.122573e-01
  2.388102e+01    9.085569e-01
  2.389689e+01    9.088095e-01
  2.391277e+01    8.918568e-01
  2.392865e+01    8.935544e-01
  2.394452e+01    9.107267e-01
  2.396040e+01    8.786597e-01
  2.397627e+01    8.939116e-01
  2.399215e+01    9.040564e-01
  2.400802e+01    8.694823e-01
  2.402390e+01    8.934461e-01
  2.403978e+01    9.011790e-01
  2.405565e+01    8.868845e-01
  2.407153e+01    8.731959e-01
  2.408740e+01    8.870028e-01
  2.410328e+01    8.901534e-01
  2.411915e+01    8.827376e-01
  2.413503e+01    8.827775e-01
  2.415090e+01    8.908427e-01
  2.416678e+01    8.860863e-01
  2.418266e+01    8.899507e-01
  2.419853e+01    8.683344e-01
  2.421441e+01    8.787354e-01
  2.423028e+01    8.659977e-01
  2.424616e+01    8.609957e-01
  2.426203e+01    8.647400e-01
  2.427791e+01    8.755552e-01
  2.429378e+01    8.556749e-01
  2.430966e+01    8.761747e-01
  2.432554e+01    8.780497e-01
  2.434141e+01    8.765719e-01
  2.435729e+01    8.682604e-01
  2.437316e+01    8.834260e-01
  2.438904e+01    9.004269e-01
  2.440491e+01    8.721695e-01
  2.442079e+01    8.676219e-01
  2.443666e+01    8.804404e-01
  2.445254e+01    8.631187e-01
  2.446842e+01    8.687036e-01
  2.448429e+01    8.946663e-01
  2.450017e+01    8.984910e-01
  2.451604e+01    8.809437e-01
  2.453192e+01    8.828871e-01
  2.454779e+01    8.759288e-01
  2.456367e+01    8.876477e-01
  2.457954e+01    9.006837e-01
  2.459542e+01    8.943982e-01
  2.461130e+01    8.916584e-01
  2.462717e+01    8.939618e-01
  2.464305e+01    8.730164e-01
  2.465892e+01    8.885546e-01
  2.467480e+01    8.935748e-01
  2.469067e+01    8.933672e-01
  2.470655e+01    8.778719e-01
  2.472242e+01    8.639230e-01
  2.473830e+01    8.614342e-01
  2.475418e+01    8.854105e-01
  2.477005e+01    8.917776e-01
  2.478593e+01    8.884669e-01
  2.480180e+01    8.814234e-01
  2.481768e+01    8.928089e-01
  2.483355e+01    8.673048e-01
  2.484943e+01    8.675518e-01
  2.486530e+01    8.860323e-01
  2.488118e+01    9.000323e-01
  2.489706e+01    8.918962e-01
  2.491293e+01    8.757925e-01
  2.492881e+01    9.045473e-01
  2.494468e+01    9.054201e-01
  2.496056e+01    8.795688e-01
  2.497643e+01    8.923317e-01
  2.499231e+01    8.914519e-01
  2.500819e+01    8.846813e-01
  2.502406e+01    8.732293e-01
  2.503994e+01    8.711162e-01
  2.505581e+01    8.903826e-01
  2.507169e+01    8.974205e-01
  2.508756e+01    8.825939e-01
  2.510344e+01    8.781380e-01
  2.511931e+01    8.924137e-01
  2.513519e+01    9.154570e-01
  2.515107e+01    9.145305e-01
  2.516694e+01    9.139186e-01
  2.518282e+01    9.159005e-01
  2.519869e+01    9.108794e-01
  2.521457e+01    9.106035e-01
  2.523044e+01    9.277807e-01
  2.524632e+01    9.235921e-01
  2.526219e+01    9.162914e-01
  2.527807e+01    9.180983e-01
  2.529395e+01    9.332325e-01
  2.530982e+01    9.308633e-01
  2.532570e+01    9.521236e-01
  2.534157e+01    9.700598e-01
  2.535745e+01    9.744633e-01
  2.537332e+01    1.014391e+00
  2.538920e+01    1.001126e+00
  2.540507e+01    9.763098e-01
  2.542095e+01    1.005108e+00
  2.543683e+01    1.005253e+00
  2.545270e+01    9.886028e-01
  2.546858e+01    1.017543e+00
  2.548445e+01    1.032577e+00
  2.550033e+01    1.026350e+00
  2.551620e+01    1.084501e+00
  2.553208e+01    1.086923e+00
  2.554795e+01    1.102928e+00
  2.556383e+01    1.141168e+00
  2.557971e+01    1.161557e+00
  2.559558e+01    1.178576e+00
  2.561146e+01    1.202795e+00
  2.562733e+01    1.254199e+00
  2.564321e+01    1.269773e+00
  2.565908e+01    1.320910e+00
  2.567496e+01    1.405118e+00
  2.569083e+01    1.469637e+00
  2.570671e+01    1.567050e+00
  2.572259e+01    1.672006e+00
  2.573846e+01    1.822613e+00
  2.575434e+01    1.988796e+00
  2.577021e+01    2.174497e+00
  2.578609e+01    2.437217e+00
  2.580196e+01    2.753719e+00
  2.581784e+01    3.109397e+00
  2.583371e+01    3.579176e+00
  2.584959e+01    4.100227e+00
  2.586547e+01    4.656174e+00
  2.588134e+01    5.158544e+00
  2.589722e+01    5.693890e+00
  2.591309e+01    6.235425e+00
  2.592897e+01    6.663125e+00
  2.594484e+01    6.987223e+00
  2.596072e+01    7.024267e+00
  2.597660e+01    6.898849e+00
  2.599247e+01    6.537742e+00
  2.600835e+01    5.941851e+00
  2.602422e+01    5.265561e+00
  2.604010e+01    4.560877e+00
  2.605597e+01    3.959294e+00
  2.607185e+01    3.419932e+00
  2.608772e+01    2.976721e+00
  2.610360e+01    2.654026e+00
  2.611948e+01    2.344502e+00
  2.613535e+01    2.086074e+00
  2.615123e+01    1.927703e+00
  2.616710e+01    1.798160e+00
  2.618298e+01    1.645129e+00
  2.619885e+01    1.530270e+00
  2.621473e+01    1.482972e+00
  2.623060e+01    1.400460e+00
  2.624648e+01    1.335933e+00
  2.626236e+01    1.294357e+00
  2.627823e+01    1.235818e+00
  2.629411e+01    1.198779e+00
  2.630998e+01    1.174460e+00
  2.632586e+01    1.147053e+00
  2.634173e+01    1.118144e+00
  2.635761e+01    1.099029e+00
  2.637348e+01    1.091752e+00
  2.638936e+01    1.051813e+00
  2.640524e+01    1.035721e+00
  2.642111e+01    1.033089e+00
  2.643699e+01    1.046288e+00
  2.645286e+01    1.029951e+00
  2.646874e+01    9.989903e-01
  2.648461e+01    1.012775e+00
  2.650049e+01    9.917210e-01
  2.651636e+01    9.973038e-01
  2.653224e+01    9.894457e-01
  2.654812e+01    9.922637e-01
  2.656399e+01    9.838132e-01
  2.657987e+01    1.000131e+00
  2.659574e+01    9.782466e-01
  2.661162e+01    9.849242e-01
  2.662749e+01    9.925107e-01
  2.664337e+01    9.802552e-01
  2.665924e+01    9.540647e-01
  2.667512e+01    9.634748e-01
  2.669100e+01    9.542907e-01
  2.670687e+01    9.702954e-01
  2.672275e+01    9.607848e-01
  2.673862e+01    9.476968e-01
  2.675450e+01    9.516377e-01
  2.677037e+01    9.650733e-01
  2.678625e+01    9.723863e-01
  2.680212e+01    9.783227e-01
  2.681800e+01    9.845626e-01
  2.683388e+01    9.600268e-01
  2.684975e+01    9.551653e-01
  2.686563e+01    9.712726e-01
  2.688150e+01    9.842235e-01
  2.689738e+01    9.760994e-01
  2.691325e+01    9.822119e-01
  2.692913e+01    1.021815e+00
  2.694501e+01    1.025639e+00
  2.696088e+01    1.031589e+00
  2.697676e+01    1.030762e+00
  2.699263e+01    1.056817e+00
  2.700851e+01    1.088301e+00
  2.702438e+01    1.139579e+00
  2.704026e+01    1.202930e+00
  2.705613e+01    1.243180e+00
  2.707201e+01    1.275986e+00
  2.708789e+01    1.379927e+00
  2.710376e+01    1.502392e+00
  2.711964e+01    1.596024e+00
  2.713551e+01    1.707207e+00
  2.715139e+01    1.858479e+00
  2.716726e+01    1.950687e+00
  2.718314e+01    2.015836e+00
  2.719901e+01    2.090774e+00
  2.721489e+01    2.125234e+00
  2.723077e+01    2.112222e+00
  2.724664e+01    2.079027e+00
  2.726252e+01    1.982954e+00
  2.727839e+01    1.842101e+00
  2.729427e+01    1.685297e+00
  2.731014e+01    1.543585e+00
  2.732602e+01    1.417271e+00
  2.734189e+01    1.350504e+00
  2.735777e+01    1.269180e+00
  2.737365e+01    1.210638e+00
  2.738952e+01    1.162723e+00
  2.740540e+01    1.121895e+00
  2.742127e+01    1.077282e+00
  2.743715e+01    1.045668e+00
  2.745302e+01    1.021344e+00
  2.746890e+01    1.031297e+00
  2.748477e+01    1.006932e+00
  2.750065e+01    9.848129e-01
  2.751653e+01    9.678286e-01
  2.753240e+01    9.594043e-01
  2.754828e+01    9.588196e-01
  2.756415e+01    9.298168e-01
  2.758003e+01    9.055915e-01
  2.759590e+01    9.377205e-01
  2.761178e+01    9.339507e-01
  2.762765e+01    9.189409e-01
  2.764353e+01    9.147593e-01
  2.765941e+01    9.247910e-01
  2.767528e+01    9.060865e-01
  2.769116e+01    8.885380e-01
  2.770703e+01    8.894659e-01
  2.772291e+01    9.095277e-01
  2.773878e+01    9.010891e-01
  2.775466e+01    8.648059e-01
  2.777054e+01    8.804228e-01
  2.778641e+01    8.892293e-01
  2.780229e+01    8.620365e-01
  2.781816e+01    8.831718e-01
  2.783404e+01    8.888142e-01
  2.784991e+01    8.729674e-01
  2.786579e+01    8.575337e-01
  2.788166e+01    8.652292e-01
  2.789754e+01    8.668926e-01
  2.791342e+01    8.460090e-01
  2.792929e+01    8.644762e-01
  2.794517e+01    8.623091e-01
  2.796104e+01    8.533403e-01
  2.797692e+01    8.623468e-01
  2.799279e+01    8.675177e-01
  2.800867e+01    8.523918e-01
  2.802454e+01    8.681861e-01
  2.804042e+01    8.696893e-01
  2.805630e+01    8.459590e-01
  2.807217e+01    8.567524e-01
  2.808805e+01    8.695493e-01
  2.810392e+01    8.477954e-01
  2.811980e+01    8.458244e-01
  2.813567e+01    8.294178e-01
  2.815155e+01    8.519375e-01
  2.816742e+01    8.449833e-01
  2.818330e+01    8.416030e-01
  2.819918e+01    8.499956e-01
  2.821505e+01    8.542204e-01
  2.823093e+01    8.470664e-01
  2.824680e+01    8.225901e-01
  2.826268e+01    8.699794e-01
  2.827855e+01    8.793149e-01
  2.829443e+01    8.497159e-01
  2.831030e+01    8.381253e-01
  2.832618e+01    8.206968e-01
  2.834206e+01    8.466077e-01
  2.835793e+01    8.275323e-01
  2.837381e+01    8.242014e-01
  2.838968e+01    8.196484e-01
  2.840556e+01    8.493215e-01
  2.842143e+01    8.529522e-01
  2.843731e+01    8.504455e-01
  2.845318e+01    8.423082e-01
  2.846906e+01    8.148254e-01
  2.848494e+01    8.305564e-01
  2.850081e+01    8.547950e-01
  2.851669e+01    8.609030e-01
  2.853256e+01    8.300000e-01
  2.854844e+01    8.159916e-01
  2.856431e+01    8.334511e-01
  2.858019e+01    8.195764e-01
  2.859606e+01    8.313918e-01
  2.861194e+01    8.215032e-01
  2.862782e+01    8.339339e-01
  2.864369e+01    8.365943e-01
  2.865957e+01    8.330098e-01
  2.867544e+01    8.391811e-01
  2.869132e+01    8.267919e-01
  2.870719e+01    8.407338e-01
  2.872307e+01    8.299712e-01
  2.873895e+01    8.195512e-01
  2.875482e+01    8.377618e-01
  2.877070e+01    8.357522e-01
  2.878657e+01    8.266827e-01
  2.880245e+01    8.121393e-01
  2.881832e+01    8.048205e-01
  2.883420e+01    8.078069e-01
  2.885007e+01    8.204343e-01
  2.886595e+01    8.166496e-01
  2.888183e+01    8.120264e-01
  2.889770e+01    8.082405e-01
  2.891358e+01    8.072296e-01
  2.892945e+01    8.272822e-01
  2.894533e+01    8.389874e-01
  2.896120e+01    8.059657e-01
  2.897708e+01    7.968017e-01
  2.899295e+01    7.994696e-01
  2.900883e+01    7.996418e-01
  2.902471e+01    8.114049e-01
  2.904058e+01    8.043063e-01
  2.905646e+01    7.952445e-01
  2.907233e+01    7.935776e-01
  2.908821e+01    7.946063e-01
  2.910408e+01    7.998362e-01
  2.911996e+01    8.214090e-01
  2.913583e+01    8.137004e-01
  2.915171e+01    7.890994e-01
  2.916759e+01    7.891954e-01
  2.918346e+01    8.106762e-01
  2.919934e+01    8.077484e-01
  2.921521e+01    8.168595e-01
  2.923109e+01    7.847726e-01
  2.924696e+01    7.979526e-01
  2.926284e+01    7.942696e-01
  2.927871e+01    8.019063e-01
  2.929459e+01    8.201001e-01
  2.931047e+01    7.983881e-01
  2.932634e+01    8.147995e-01
  2.934222e+01    7.967221e-01
  2.935809e+01    7.842103e-01
  2.937397e+01    7.798399e-01
  2.938984e+01    7.955859e-01
  2.940572e+01    7.934275e-01
  2.942159e+01    7.958226e-01
  2.943747e+01    7.800890e-01
  2.945335e+01    7.970166e-01
  2.946922e+01    7.828928e-01
  2.948510e+01    7.830767e-01
  2.950097e+01    7.925944e-01
  2.951685e+01    7.941598e-01
  2.953272e+01    8.015488e-01
  2.954860e+01    8.064627e-01
  2.956447e+01    8.001205e-01
  2.958035e+01    7.675823e-01
  2.959623e+01    7.841022e-01
  2.961210e+01    7.985469e-01
  2.962798e+01    7.878109e-01
  2.964385e+01    8.052752e-01
  2.965973e+01    8.044493e-01
  2.967560e+01    7.707532e-01
  2.969148e+01    7.773147e-01
  2.970736e+01    8.046995e-01
  2.972323e+01    8.038200e-01
  2.973911e+01    8.019616e-01
  2.975498e+01    8.026511e-01
  2.977086e+01    8.057045e-01
  2.978673e+01    7.998909e-01
  2.980261e+01    7.919287e-01
  2.981848e+01    7.966279e-01
  2.983436e+01    7.910294e-01
  2.985024e+01    7.796825e-01
  2.986611e+01    7.773307e-01
  2.988199e+01    7.860720e-01
  2.989786e+01    7.649640e-01
  2.991374e+01    7.842087e-01
  2.992961e+01    8.013837e-01
  2.994549e+01    8.250781e-01
  2.996136e+01    8.273270e-01
  2.997724e+01    8.215601e-01
  2.999312e+01    7.996542e-01
  3.000899e+01    7.851568e-01
  3.002487e+01    7.951512e-01
  3.004074e+01    8.035127e-01
  3.005662e+01    8.105464e-01
  3.007249e+01    8.264295e-01
  3.008837e+01    8.068725e-01
  3.010424e+01    8.216374e-01
  3.012012e+01    8.049085e-01
  3.013600e+01    7.918003e-01
  3.015187e+01    7.800214e-01
  3.016775e+01    7.847168e-01
  3.018362e+01    7.866567e-01
  3.019950e+01    7.857097e-01
  3.021537e+01    8.018398e-01
  3.023125e+01    7.783848e-01
  3.024712e+01    7.739407e-01
  3.026300e+01    7.861905e-01
  3.027888e+01    7.833210e-01
  3.029475e+01    7.888395e-01
  3.031063e+01    7.568818e-01
  3.032650e+01    7.790906e-01
  3.034238e+01    7.837623e-01
  3.035825e+01    7.638369e-01
  3.037413e+01    7.662237e-01
  3.039000e+01    7.761673e-01
  3.040588e+01    7.799472e-01
  3.042176e+01    7.939602e-01
  3.043763e+01    7.896872e-01
  3.045351e+01    7.950711e-01
  3.046938e+01    7.878513e-01
  3.048526e+01    7.954407e-01
  3.050113e+01    7.872695e-01
  3.051701e+01    7.489377e-01
  3.053288e+01    7.835239e-01
  3.054876e+01    7.942185e-01
  3.056464e+01    7.719663e-01
  3.058051e+01    7.707560e-01
  3.059639e+01    7.898627e-01
  3.061226e+01    7.855129e-01
  3.062814e+01    7.742872e-01
  3.064401e+01    7.705370e-01
  3.065989e+01    7.796023e-01
  3.067577e+01    7.797495e-01
  3.069164e+01    7.755322e-01
  3.070752e+01    7.679605e-01
  3.072339e+01    7.755864e-01
  3.073927e+01    7.747395e-01
  3.075514e+01    7.750683e-01
  3.077102e+01    8.141824e-01
  3.078689e+01    8.015162e-01
  3.080277e+01    7.695499e-01
  3.081865e+01    7.900103e-01
  3.083452e+01    8.001441e-01
  3.085040e+01    7.761897e-01
  3.086627e+01    7.905987e-01
  3.088215e+01    8.049192e-01
  3.089802e+01    7.997630e-01
  3.091390e+01    8.098577e-01
  3.092977e+01    7.902003e-01
  3.094565e+01    7.709219e-01
  3.096153e+01    7.554487e-01
  3.097740e+01    7.518739e-01
  3.099328e+01    7.503188e-01
  3.100915e+01    7.598159e-01
  3.102503e+01    7.699315e-01
  3.104090e+01    7.779685e-01
  3.105678e+01    7.890614e-01
  3.107265e+01    7.828625e-01
  3.108853e+01    7.937828e-01
  3.110441e+01    7.620236e-01
  3.112028e+01    7.693280e-01
  3.113616e+01    7.479801e-01
  3.115203e+01    7.660637e-01
  3.116791e+01    7.699883e-01
  3.118378e+01    7.725934e-01
  3.119966e+01    7.842534e-01
  3.121553e+01    7.678469e-01
  3.123141e+01    7.945284e-01
  3.124729e+01    7.909631e-01
  3.126316e+01    7.653617e-01
  3.127904e+01    7.898702e-01
  3.129491e+01    8.039228e-01
  3.131079e+01    7.792972e-01
  3.132666e+01    7.914680e-01
  3.134254e+01    8.044651e-01
  3.135841e+01    7.913503e-01
  3.137429e+01    7.964077e-01
  3.139017e+01    8.119466e-01
  3.140604e+01    8.097957e-01
  3.142192e+01    8.233879e-01
  3.143779e+01    8.067244e-01
  3.145367e+01    8.210440e-01
  3.146954e+01    8.220801e-01
  3.148542e+01    8.283251e-01
  3.150129e+01    8.411477e-01
  3.151717e+01    8.530422e-01
  3.153305e+01    8.416916e-01
  3.154892e+01    8.341572e-01
  3.156480e+01    8.389938e-01
  3.158067e+01    8.596654e-01
  3.159655e+01    8.738111e-01
  3.161242e+01    8.733137e-01
  3.162830e+01    8.978971e-01
  3.164418e+01    8.931439e-01
  3.166005e+01    9.111530e-01
  3.167593e+01    9.564348e-01
  3.169180e+01    9.744244e-01
  3.170768e+01    1.033135e+00
  3.172355e+01    1.050516e+00
  3.173943e+01    1.104796e+00
  3.175530e+01    1.178303e+00
  3.177118e+01    1.236025e+00
  3.178706e+01    1.316732e+00
  3.180293e+01    1.431460e+00
  3.181881e+01    1.536493e+00
  3.183468e+01    1.660664e+00
  3.185056e+01    1.800598e+00
  3.186643e+01    1.943350e+00
  3.188231e+01    2.033878e+00
  3.189818e+01    2.047772e+00
  3.191406e+01    2.044384e+00
  3.192994e+01    2.001253e+00
  3.194581e+01    1.871779e+00
  3.196169e+01    1.778490e+00
  3.197756e+01    1.653265e+00
  3.199344e+01    1.524888e+00
  3.200931e+01    1.424994e+00
  3.202519e+01    1.317309e+00
  3.204106e+01    1.203370e+00
  3.205694e+01    1.149668e+00
  3.207282e+01    1.103560e+00
  3.208869e+01    1.009010e+00
  3.210457e+01    9.911857e-01
  3.212044e+01    9.793328e-01
  3.213632e+01    9.245471e-01
  3.215219e+01    8.975539e-01
  3.216807e+01    8.819519e-01
  3.218394e+01    8.616771e-01
  3.219982e+01    8.518201e-01
  3.221570e+01    8.411492e-01
  3.223157e+01    8.447042e-01
  3.224745e+01    8.224394e-01
  3.226332e+01    8.129370e-01
  3.227920e+01    8.173795e-01
  3.229507e+01    8.080748e-01
  3.231095e+01    8.245621e-01
  3.232682e+01    7.785492e-01
  3.234270e+01    7.990901e-01
  3.235858e+01    8.046143e-01
  3.237445e+01    8.200598e-01
  3.239033e+01    8.028973e-01
  3.240620e+01    7.986358e-01
  3.242208e+01    7.762229e-01
  3.243795e+01    7.851138e-01
  3.245383e+01    7.623101e-01
  3.246970e+01    7.752221e-01
  3.248558e+01    7.940716e-01
  3.250146e+01    7.960194e-01
  3.251733e+01    8.064551e-01
  3.253321e+01    7.694211e-01
  3.254908e+01    7.615382e-01
