# == pyFAI calibration ==
# Distance Sample to Detector: 0.3999999939076516 m
# PONI: 9.750e-02, 1.135e-01 m
# Rotations: -0.000175 0.000000 -0.000000 rad
# 
# == Fit2d calibration ==
# Distance Sample-beamCenter: 400.000 mm
# Center: x=1514.000, y=1300.000 pix
# Tilt: 0.010 deg  TiltPlanRot: 0.010 deg
# 
# Detector Detector	 Spline= None	 PixelSize= 7.500e-05, 7.500e-05 m
#    Detector has a mask: False 
#    Detector has a dark current: False 
#    detector has a flat field: False 
# 
# Wavelength: 6.888e-11 m
# Mask applied: user provided
# Dark current applied: False
# Flat field applied: False
# Polarization factor: 0.99
# Normalization factor: 1.0
# --> /home/myspot/data/2024_07_Rosario/Ru-CGO-ex/2024-07-27_003_Ru-CGO-ex_Reaction_dwell_000023_data_000028.dat
#       q_nm^-1             I 
  2.003187e-02    0.000000e+00
  3.590745e-02    1.058838e-01
  5.178302e-02    1.655745e-01
  6.765859e-02    8.214690e-02
  8.353417e-02    8.456338e-02
  9.940974e-02    1.147429e-01
  1.152853e-01    1.627413e-01
  1.311609e-01    5.190227e-02
  1.470365e-01    5.994134e-02
  1.629120e-01    1.319393e-01
  1.787876e-01    4.475717e-02
  1.946632e-01    1.253858e-02
  2.105388e-01    3.720579e-02
  2.264143e-01    4.511452e-02
  2.422899e-01    3.333206e-02
  2.581655e-01    2.104309e-02
  2.740411e-01    2.210261e-02
  2.899166e-01    1.844356e-02
  3.057922e-01    2.019441e-02
  3.216678e-01    2.144540e-02
  3.375433e-01    6.249366e-02
  3.534189e-01    7.467145e-02
  3.692945e-01    4.496971e-02
  3.851701e-01    3.660090e-02
  4.010456e-01    2.568194e-02
  4.169212e-01    3.050885e-02
  4.327968e-01    3.972406e-02
  4.486724e-01    2.930539e-02
  4.645479e-01    2.389196e-02
  4.804235e-01    2.398709e-02
  4.962991e-01    2.670770e-02
  5.121747e-01    2.652614e-02
  5.280502e-01    2.774931e-02
  5.439258e-01    3.636545e-02
  5.598014e-01    4.380313e-02
  5.756770e-01    3.013834e-02
  5.915525e-01    3.555676e-02
  6.074281e-01    4.369986e-02
  6.233037e-01    4.007188e-02
  6.391793e-01    6.326740e-02
  6.550548e-01    2.746853e-02
  6.709304e-01    3.229950e-02
  6.868060e-01    3.738857e-02
  7.026815e-01    5.607299e-02
  7.185571e-01    4.380896e-02
  7.344327e-01    2.754292e-02
  7.503083e-01    5.511384e-02
  7.661838e-01    7.700027e-02
  7.820594e-01    1.050485e-01
  7.979350e-01    1.600483e-01
  8.138106e-01    2.258386e-01
  8.296861e-01    2.984440e-01
  8.455617e-01    4.111474e-01
  8.614373e-01    4.105676e-01
  8.773129e-01    4.341469e-01
  8.931884e-01    4.909259e-01
  9.090640e-01    6.718038e-01
  9.249396e-01    7.205702e-01
  9.408152e-01    7.877861e-01
  9.566907e-01    8.802872e-01
  9.725663e-01    9.707676e-01
  9.884419e-01    1.053897e+00
  1.004317e+00    1.094428e+00
  1.020193e+00    1.191131e+00
  1.036069e+00    1.310747e+00
  1.051944e+00    1.314838e+00
  1.067820e+00    1.419802e+00
  1.083695e+00    1.537808e+00
  1.099571e+00    1.730722e+00
  1.115446e+00    1.653839e+00
  1.131322e+00    1.691008e+00
  1.147198e+00    1.616026e+00
  1.163073e+00    1.681424e+00
  1.178949e+00    1.801461e+00
  1.194824e+00    1.910309e+00
  1.210700e+00    2.028138e+00
  1.226575e+00    2.308343e+00
  1.242451e+00    2.463519e+00
  1.258327e+00    2.483368e+00
  1.274202e+00    2.450128e+00
  1.290078e+00    2.597660e+00
  1.305953e+00    2.677106e+00
  1.321829e+00    2.738654e+00
  1.337705e+00    2.861987e+00
  1.353580e+00    2.752495e+00
  1.369456e+00    2.718996e+00
  1.385331e+00    2.759119e+00
  1.401207e+00    2.728059e+00
  1.417082e+00    2.896087e+00
  1.432958e+00    3.003647e+00
  1.448834e+00    3.267853e+00
  1.464709e+00    3.156043e+00
  1.480585e+00    3.059760e+00
  1.496460e+00    3.264368e+00
  1.512336e+00    3.329266e+00
  1.528211e+00    3.362073e+00
  1.544087e+00    3.210278e+00
  1.559963e+00    3.110857e+00
  1.575838e+00    3.164082e+00
  1.591714e+00    3.170407e+00
  1.607589e+00    3.122137e+00
  1.623465e+00    3.132734e+00
  1.639340e+00    3.134332e+00
  1.655216e+00    3.063443e+00
  1.671092e+00    3.008177e+00
  1.686967e+00    2.995159e+00
  1.702843e+00    3.133005e+00
  1.718718e+00    3.077480e+00
  1.734594e+00    3.004332e+00
  1.750469e+00    3.191456e+00
  1.766345e+00    3.139658e+00
  1.782221e+00    3.083455e+00
  1.798096e+00    3.160562e+00
  1.813972e+00    3.251439e+00
  1.829847e+00    3.199535e+00
  1.845723e+00    3.187934e+00
  1.861598e+00    3.065891e+00
  1.877474e+00    3.004654e+00
  1.893350e+00    3.044954e+00
  1.909225e+00    3.089446e+00
  1.925101e+00    3.064738e+00
  1.940976e+00    3.121574e+00
  1.956852e+00    3.098591e+00
  1.972727e+00    3.143027e+00
  1.988603e+00    3.073717e+00
  2.004479e+00    3.057902e+00
  2.020354e+00    3.015085e+00
  2.036230e+00    3.060084e+00
  2.052105e+00    3.028867e+00
  2.067981e+00    3.087639e+00
  2.083856e+00    3.050214e+00
  2.099732e+00    3.031181e+00
  2.115608e+00    3.214093e+00
  2.131483e+00    3.166631e+00
  2.147359e+00    3.059452e+00
  2.163234e+00    2.946329e+00
  2.179110e+00    2.945314e+00
  2.194985e+00    3.178852e+00
  2.210861e+00    3.309335e+00
  2.226737e+00    3.201093e+00
  2.242612e+00    3.053719e+00
  2.258488e+00    3.080436e+00
  2.274363e+00    3.123456e+00
  2.290239e+00    3.126953e+00
  2.306115e+00    3.151201e+00
  2.321990e+00    3.201027e+00
  2.337866e+00    3.317622e+00
  2.353741e+00    3.210952e+00
  2.369617e+00    3.189309e+00
  2.385492e+00    3.233205e+00
  2.401368e+00    3.163917e+00
  2.417244e+00    3.108833e+00
  2.433119e+00    3.143209e+00
  2.448995e+00    3.173416e+00
  2.464870e+00    3.232081e+00
  2.480746e+00    3.121561e+00
  2.496621e+00    3.166860e+00
  2.512497e+00    3.241661e+00
  2.528373e+00    3.256327e+00
  2.544248e+00    3.274696e+00
  2.560124e+00    3.250400e+00
  2.575999e+00    3.298354e+00
  2.591875e+00    3.308158e+00
  2.607750e+00    3.209673e+00
  2.623626e+00    3.267978e+00
  2.639502e+00    3.261642e+00
  2.655377e+00    3.320593e+00
  2.671253e+00    3.266827e+00
  2.687128e+00    3.221842e+00
  2.703004e+00    3.185152e+00
  2.718879e+00    3.250836e+00
  2.734755e+00    3.305528e+00
  2.750631e+00    3.279538e+00
  2.766506e+00    3.326331e+00
  2.782382e+00    3.287320e+00
  2.798257e+00    3.327010e+00
  2.814133e+00    3.339616e+00
  2.830008e+00    3.309099e+00
  2.845884e+00    3.215795e+00
  2.861760e+00    3.111871e+00
  2.877635e+00    3.198217e+00
  2.893511e+00    3.326986e+00
  2.909386e+00    3.232648e+00
  2.925262e+00    3.241453e+00
  2.941137e+00    3.329990e+00
  2.957013e+00    3.435487e+00
  2.972889e+00    3.331354e+00
  2.988764e+00    3.328955e+00
  3.004640e+00    3.314748e+00
  3.020515e+00    3.344383e+00
  3.036391e+00    3.378794e+00
  3.052266e+00    3.386304e+00
  3.068142e+00    3.357452e+00
  3.084018e+00    3.317126e+00
  3.099893e+00    3.391909e+00
  3.115769e+00    3.344478e+00
  3.131644e+00    3.346111e+00
  3.147520e+00    3.345481e+00
  3.163395e+00    3.322274e+00
  3.179271e+00    3.326367e+00
  3.195147e+00    3.274719e+00
  3.211022e+00    3.309057e+00
  3.226898e+00    3.378226e+00
  3.242773e+00    3.429178e+00
  3.258649e+00    3.450397e+00
  3.274525e+00    3.470718e+00
  3.290400e+00    3.416841e+00
  3.306276e+00    3.345339e+00
  3.322151e+00    3.452443e+00
  3.338027e+00    3.445627e+00
  3.353902e+00    3.403558e+00
  3.369778e+00    3.525801e+00
  3.385654e+00    3.433837e+00
  3.401529e+00    3.404555e+00
  3.417405e+00    3.454829e+00
  3.433280e+00    3.438128e+00
  3.449156e+00    3.389465e+00
  3.465031e+00    3.456625e+00
  3.480907e+00    3.468354e+00
  3.496783e+00    3.499857e+00
  3.512658e+00    3.489186e+00
  3.528534e+00    3.337506e+00
  3.544409e+00    3.490464e+00
  3.560285e+00    3.532285e+00
  3.576160e+00    3.541683e+00
  3.592036e+00    3.473063e+00
  3.607912e+00    3.448457e+00
  3.623787e+00    3.567577e+00
  3.639663e+00    3.523764e+00
  3.655538e+00    3.544583e+00
  3.671414e+00    3.569253e+00
  3.687289e+00    3.473305e+00
  3.703165e+00    3.400520e+00
  3.719041e+00    3.416442e+00
  3.734916e+00    3.471069e+00
  3.750792e+00    3.485774e+00
  3.766667e+00    3.470734e+00
  3.782543e+00    3.468942e+00
  3.798418e+00    3.498122e+00
  3.814294e+00    3.468110e+00
  3.830170e+00    3.393663e+00
  3.846045e+00    3.438131e+00
  3.861921e+00    3.527367e+00
  3.877796e+00    3.550337e+00
  3.893672e+00    3.539458e+00
  3.909547e+00    3.498869e+00
  3.925423e+00    3.571176e+00
  3.941299e+00    3.615668e+00
  3.957174e+00    3.499874e+00
  3.973050e+00    3.460157e+00
  3.988925e+00    3.473023e+00
  4.004801e+00    3.527600e+00
  4.020676e+00    3.559532e+00
  4.036552e+00    3.466818e+00
  4.052428e+00    3.469422e+00
  4.068303e+00    3.611742e+00
  4.084179e+00    3.520408e+00
  4.100054e+00    3.550797e+00
  4.115930e+00    3.523600e+00
  4.131806e+00    3.494111e+00
  4.147681e+00    3.491546e+00
  4.163557e+00    3.471855e+00
  4.179432e+00    3.528535e+00
  4.195308e+00    3.604558e+00
  4.211183e+00    3.527272e+00
  4.227059e+00    3.548414e+00
  4.242935e+00    3.664447e+00
  4.258810e+00    3.606273e+00
  4.274686e+00    3.595071e+00
  4.290561e+00    3.572390e+00
  4.306437e+00    3.515369e+00
  4.322312e+00    3.544102e+00
  4.338188e+00    3.539698e+00
  4.354064e+00    3.506740e+00
  4.369939e+00    3.637487e+00
  4.385815e+00    3.667437e+00
  4.401690e+00    3.587416e+00
  4.417566e+00    3.414056e+00
  4.433441e+00    3.531346e+00
  4.449317e+00    3.665001e+00
  4.465193e+00    3.537764e+00
  4.481068e+00    3.542590e+00
  4.496944e+00    3.622839e+00
  4.512819e+00    3.684731e+00
  4.528695e+00    3.697747e+00
  4.544570e+00    3.578790e+00
  4.560446e+00    3.548626e+00
  4.576322e+00    3.612307e+00
  4.592197e+00    3.623547e+00
  4.608073e+00    3.630626e+00
  4.623948e+00    3.608352e+00
  4.639824e+00    3.645709e+00
  4.655699e+00    3.693079e+00
  4.671575e+00    3.736312e+00
  4.687451e+00    3.706037e+00
  4.703326e+00    3.658434e+00
  4.719202e+00    3.639253e+00
  4.735077e+00    3.611109e+00
  4.750953e+00    3.679293e+00
  4.766828e+00    3.699055e+00
  4.782704e+00    3.684986e+00
  4.798580e+00    3.646813e+00
  4.814455e+00    3.688938e+00
  4.830331e+00    3.668958e+00
  4.846206e+00    3.550518e+00
  4.862082e+00    3.527262e+00
  4.877957e+00    3.676959e+00
  4.893833e+00    3.660619e+00
  4.909709e+00    3.729578e+00
  4.925584e+00    3.682306e+00
  4.941460e+00    3.684329e+00
  4.957335e+00    3.759434e+00
  4.973211e+00    3.690706e+00
  4.989086e+00    3.692476e+00
  5.004962e+00    3.661187e+00
  5.020838e+00    3.672380e+00
  5.036713e+00    3.746948e+00
  5.052589e+00    3.623282e+00
  5.068464e+00    3.608403e+00
  5.084340e+00    3.689706e+00
  5.100216e+00    3.633640e+00
  5.116091e+00    3.631013e+00
  5.131967e+00    3.749133e+00
  5.147842e+00    3.685295e+00
  5.163718e+00    3.672179e+00
  5.179593e+00    3.662190e+00
  5.195469e+00    3.642258e+00
  5.211345e+00    3.630607e+00
  5.227220e+00    3.746876e+00
  5.243096e+00    3.697384e+00
  5.258971e+00    3.622221e+00
  5.274847e+00    3.610161e+00
  5.290722e+00    3.588257e+00
  5.306598e+00    3.650356e+00
  5.322474e+00    3.650958e+00
  5.338349e+00    3.680469e+00
  5.354225e+00    3.590303e+00
  5.370100e+00    3.603784e+00
  5.385976e+00    3.597545e+00
  5.401851e+00    3.615602e+00
  5.417727e+00    3.662186e+00
  5.433603e+00    3.682128e+00
  5.449478e+00    3.647063e+00
  5.465354e+00    3.510295e+00
  5.481229e+00    3.577838e+00
  5.497105e+00    3.684887e+00
  5.512980e+00    3.656163e+00
  5.528856e+00    3.614871e+00
  5.544732e+00    3.551299e+00
  5.560607e+00    3.526301e+00
  5.576483e+00    3.686415e+00
  5.592358e+00    3.714555e+00
  5.608234e+00    3.619702e+00
  5.624109e+00    3.608582e+00
  5.639985e+00    3.616484e+00
  5.655861e+00    3.615268e+00
  5.671736e+00    3.596426e+00
  5.687612e+00    3.627609e+00
  5.703487e+00    3.614984e+00
  5.719363e+00    3.530829e+00
  5.735238e+00    3.469521e+00
  5.751114e+00    3.495101e+00
  5.766990e+00    3.576753e+00
  5.782865e+00    3.647909e+00
  5.798741e+00    3.609839e+00
  5.814616e+00    3.553809e+00
  5.830492e+00    3.571567e+00
  5.846367e+00    3.562715e+00
  5.862243e+00    3.527918e+00
  5.878119e+00    3.462169e+00
  5.893994e+00    3.492679e+00
  5.909870e+00    3.559221e+00
  5.925745e+00    3.514983e+00
  5.941621e+00    3.491499e+00
  5.957497e+00    3.553425e+00
  5.973372e+00    3.580758e+00
  5.989248e+00    3.573352e+00
  6.005123e+00    3.590365e+00
  6.020999e+00    3.595613e+00
  6.036874e+00    3.615556e+00
  6.052750e+00    3.627132e+00
  6.068626e+00    3.557254e+00
  6.084501e+00    3.609608e+00
  6.100377e+00    3.667549e+00
  6.116252e+00    3.695907e+00
  6.132128e+00    3.608952e+00
  6.148003e+00    3.599709e+00
  6.163879e+00    3.553436e+00
  6.179755e+00    3.555966e+00
  6.195630e+00    3.514769e+00
  6.211506e+00    3.583596e+00
  6.227381e+00    3.642282e+00
  6.243257e+00    3.547593e+00
  6.259132e+00    3.497221e+00
  6.275008e+00    3.562127e+00
  6.290884e+00    3.655383e+00
  6.306759e+00    3.632692e+00
  6.322635e+00    3.641639e+00
  6.338510e+00    3.651636e+00
  6.354386e+00    3.573723e+00
  6.370261e+00    3.534600e+00
  6.386137e+00    3.566707e+00
  6.402013e+00    3.565533e+00
  6.417888e+00    3.583678e+00
  6.433764e+00    3.637375e+00
  6.449639e+00    3.575258e+00
  6.465515e+00    3.530424e+00
  6.481390e+00    3.586369e+00
  6.497266e+00    3.629467e+00
  6.513142e+00    3.593147e+00
  6.529017e+00    3.592427e+00
  6.544893e+00    3.575631e+00
  6.560768e+00    3.521494e+00
  6.576644e+00    3.538527e+00
  6.592519e+00    3.542267e+00
  6.608395e+00    3.589738e+00
  6.624271e+00    3.567004e+00
  6.640146e+00    3.527165e+00
  6.656022e+00    3.527198e+00
  6.671897e+00    3.551440e+00
  6.687773e+00    3.612568e+00
  6.703648e+00    3.564841e+00
  6.719524e+00    3.538068e+00
  6.735400e+00    3.604782e+00
  6.751275e+00    3.567628e+00
  6.767151e+00    3.563411e+00
  6.783026e+00    3.531633e+00
  6.798902e+00    3.564450e+00
  6.814777e+00    3.537804e+00
  6.830653e+00    3.623634e+00
  6.846529e+00    3.536780e+00
  6.862404e+00    3.563446e+00
  6.878280e+00    3.529336e+00
  6.894155e+00    3.509153e+00
  6.910031e+00    3.563902e+00
  6.925907e+00    3.517417e+00
  6.941782e+00    3.469514e+00
  6.957658e+00    3.529573e+00
  6.973533e+00    3.558415e+00
  6.989409e+00    3.514948e+00
  7.005284e+00    3.489885e+00
  7.021160e+00    3.526780e+00
  7.037036e+00    3.524508e+00
  7.052911e+00    3.577979e+00
  7.068787e+00    3.524647e+00
  7.084662e+00    3.577048e+00
  7.100538e+00    3.585709e+00
  7.116413e+00    3.513985e+00
  7.132289e+00    3.564703e+00
  7.148165e+00    3.541754e+00
  7.164040e+00    3.553090e+00
  7.179916e+00    3.501072e+00
  7.195791e+00    3.450495e+00
  7.211667e+00    3.548089e+00
  7.227542e+00    3.481990e+00
  7.243418e+00    3.446231e+00
  7.259294e+00    3.510218e+00
  7.275169e+00    3.486158e+00
  7.291045e+00    3.491271e+00
  7.306920e+00    3.446593e+00
  7.322796e+00    3.496275e+00
  7.338671e+00    3.553058e+00
  7.354547e+00    3.595265e+00
  7.370423e+00    3.580591e+00
  7.386298e+00    3.464978e+00
  7.402174e+00    3.466060e+00
  7.418049e+00    3.540901e+00
  7.433925e+00    3.547528e+00
  7.449800e+00    3.468370e+00
  7.465676e+00    3.475860e+00
  7.481552e+00    3.520319e+00
  7.497427e+00    3.492979e+00
  7.513303e+00    3.520523e+00
  7.529178e+00    3.546543e+00
  7.545054e+00    3.549082e+00
  7.560929e+00    3.484400e+00
  7.576805e+00    3.394856e+00
  7.592681e+00    3.409222e+00
  7.608556e+00    3.446590e+00
  7.624432e+00    3.508826e+00
  7.640307e+00    3.537112e+00
  7.656183e+00    3.460934e+00
  7.672058e+00    3.441762e+00
  7.687934e+00    3.481126e+00
  7.703810e+00    3.511856e+00
  7.719685e+00    3.460079e+00
  7.735561e+00    3.454392e+00
  7.751436e+00    3.450148e+00
  7.767312e+00    3.442854e+00
  7.783187e+00    3.463046e+00
  7.799063e+00    3.461467e+00
  7.814939e+00    3.438009e+00
  7.830814e+00    3.455402e+00
  7.846690e+00    3.484600e+00
  7.862565e+00    3.504514e+00
  7.878441e+00    3.539496e+00
  7.894317e+00    3.542625e+00
  7.910192e+00    3.564630e+00
  7.926068e+00    3.482861e+00
  7.941943e+00    3.409944e+00
  7.957819e+00    3.454109e+00
  7.973694e+00    3.391073e+00
  7.989570e+00    3.380312e+00
  8.005446e+00    3.480856e+00
  8.021321e+00    3.440331e+00
  8.037197e+00    3.419638e+00
  8.053072e+00    3.410804e+00
  8.068948e+00    3.436927e+00
  8.084823e+00    3.460020e+00
  8.100699e+00    3.457418e+00
  8.116575e+00    3.470052e+00
  8.132450e+00    3.440452e+00
  8.148326e+00    3.490129e+00
  8.164201e+00    3.468270e+00
  8.180077e+00    3.508526e+00
  8.195952e+00    3.487820e+00
  8.211828e+00    3.483345e+00
  8.227704e+00    3.468419e+00
  8.243579e+00    3.481628e+00
  8.259455e+00    3.424991e+00
  8.275330e+00    3.408380e+00
  8.291206e+00    3.488731e+00
  8.307081e+00    3.449611e+00
  8.322957e+00    3.442104e+00
  8.338833e+00    3.393414e+00
  8.354708e+00    3.414963e+00
  8.370584e+00    3.461048e+00
  8.386459e+00    3.468379e+00
  8.402335e+00    3.416876e+00
  8.418210e+00    3.344607e+00
  8.434086e+00    3.334692e+00
  8.449962e+00    3.372257e+00
  8.465837e+00    3.374566e+00
  8.481713e+00    3.378649e+00
  8.497588e+00    3.320044e+00
  8.513464e+00    3.327962e+00
  8.529339e+00    3.433110e+00
  8.545215e+00    3.456239e+00
  8.561091e+00    3.406510e+00
  8.576966e+00    3.344058e+00
  8.592842e+00    3.375329e+00
  8.608717e+00    3.399093e+00
  8.624593e+00    3.352368e+00
  8.640468e+00    3.350064e+00
  8.656344e+00    3.332364e+00
  8.672220e+00    3.371965e+00
  8.688095e+00    3.329727e+00
  8.703971e+00    3.333333e+00
  8.719846e+00    3.339086e+00
  8.735722e+00    3.314955e+00
  8.751598e+00    3.319994e+00
  8.767473e+00    3.274235e+00
  8.783349e+00    3.361666e+00
  8.799224e+00    3.348662e+00
  8.815100e+00    3.420429e+00
  8.830975e+00    3.422876e+00
  8.846851e+00    3.346243e+00
  8.862727e+00    3.288069e+00
  8.878602e+00    3.309274e+00
  8.894478e+00    3.321845e+00
  8.910353e+00    3.325130e+00
  8.926229e+00    3.313762e+00
  8.942104e+00    3.322467e+00
  8.957980e+00    3.289118e+00
  8.973856e+00    3.249384e+00
  8.989731e+00    3.294183e+00
  9.005607e+00    3.301033e+00
  9.021482e+00    3.292046e+00
  9.037358e+00    3.303630e+00
  9.053233e+00    3.314191e+00
  9.069109e+00    3.288359e+00
  9.084985e+00    3.229842e+00
  9.100860e+00    3.323417e+00
  9.116736e+00    3.279757e+00
  9.132611e+00    3.222580e+00
  9.148487e+00    3.256742e+00
  9.164362e+00    3.256284e+00
  9.180238e+00    3.218681e+00
  9.196114e+00    3.183596e+00
  9.211989e+00    3.230086e+00
  9.227865e+00    3.244665e+00
  9.243740e+00    3.281224e+00
  9.259616e+00    3.264448e+00
  9.275491e+00    3.238946e+00
  9.291367e+00    3.277205e+00
  9.307243e+00    3.237807e+00
  9.323118e+00    3.235471e+00
  9.338994e+00    3.242351e+00
  9.354869e+00    3.195167e+00
  9.370745e+00    3.219692e+00
  9.386620e+00    3.216870e+00
  9.402496e+00    3.231189e+00
  9.418372e+00    3.220413e+00
  9.434247e+00    3.250059e+00
  9.450123e+00    3.249267e+00
  9.465998e+00    3.226533e+00
  9.481874e+00    3.204127e+00
  9.497749e+00    3.143280e+00
  9.513625e+00    3.210449e+00
  9.529501e+00    3.197360e+00
  9.545376e+00    3.226308e+00
  9.561252e+00    3.234761e+00
  9.577127e+00    3.213099e+00
  9.593003e+00    3.217075e+00
  9.608878e+00    3.212130e+00
  9.624754e+00    3.137973e+00
  9.640630e+00    3.138556e+00
  9.656505e+00    3.206588e+00
  9.672381e+00    3.171165e+00
  9.688256e+00    3.158733e+00
  9.704132e+00    3.184180e+00
  9.720008e+00    3.186968e+00
  9.735883e+00    3.183880e+00
  9.751759e+00    3.209613e+00
  9.767634e+00    3.231916e+00
  9.783510e+00    3.229551e+00
  9.799385e+00    3.181943e+00
  9.815261e+00    3.125790e+00
  9.831137e+00    3.169551e+00
  9.847012e+00    3.184070e+00
  9.862888e+00    3.128718e+00
  9.878763e+00    3.141069e+00
  9.894639e+00    3.221624e+00
  9.910514e+00    3.194471e+00
  9.926390e+00    3.164438e+00
  9.942266e+00    3.114940e+00
  9.958141e+00    3.118831e+00
  9.974017e+00    3.039207e+00
  9.989892e+00    3.084518e+00
  1.000577e+01    3.116199e+00
  1.002164e+01    3.148691e+00
  1.003752e+01    3.149011e+00
  1.005339e+01    3.142043e+00
  1.006927e+01    3.135900e+00
  1.008515e+01    3.082496e+00
  1.010102e+01    3.112423e+00
  1.011690e+01    3.059904e+00
  1.013277e+01    3.062746e+00
  1.014865e+01    3.086643e+00
  1.016452e+01    3.074926e+00
  1.018040e+01    3.049365e+00
  1.019627e+01    3.073410e+00
  1.021215e+01    3.099313e+00
  1.022803e+01    3.104063e+00
  1.024390e+01    3.100265e+00
  1.025978e+01    3.095414e+00
  1.027565e+01    3.065503e+00
  1.029153e+01    3.040425e+00
  1.030740e+01    3.026548e+00
  1.032328e+01    3.070287e+00
  1.033915e+01    3.098790e+00
  1.035503e+01    3.061524e+00
  1.037091e+01    3.053627e+00
  1.038678e+01    3.042961e+00
  1.040266e+01    3.072326e+00
  1.041853e+01    3.075455e+00
  1.043441e+01    3.014597e+00
  1.045028e+01    3.062238e+00
  1.046616e+01    3.002426e+00
  1.048204e+01    3.024925e+00
  1.049791e+01    3.036957e+00
  1.051379e+01    3.110165e+00
  1.052966e+01    3.050592e+00
  1.054554e+01    3.056876e+00
  1.056141e+01    3.081698e+00
  1.057729e+01    3.021737e+00
  1.059316e+01    2.957893e+00
  1.060904e+01    3.021305e+00
  1.062492e+01    2.998986e+00
  1.064079e+01    2.965414e+00
  1.065667e+01    3.003829e+00
  1.067254e+01    3.023391e+00
  1.068842e+01    2.993413e+00
  1.070429e+01    2.988949e+00
  1.072017e+01    2.935832e+00
  1.073604e+01    2.983598e+00
  1.075192e+01    3.008453e+00
  1.076780e+01    3.010503e+00
  1.078367e+01    2.968891e+00
  1.079955e+01    2.996152e+00
  1.081542e+01    2.974254e+00
  1.083130e+01    2.989228e+00
  1.084717e+01    2.913865e+00
  1.086305e+01    2.892834e+00
  1.087892e+01    2.871902e+00
  1.089480e+01    2.891082e+00
  1.091068e+01    2.942188e+00
  1.092655e+01    2.955692e+00
  1.094243e+01    2.902182e+00
  1.095830e+01    2.910958e+00
  1.097418e+01    2.898498e+00
  1.099005e+01    2.928695e+00
  1.100593e+01    2.915373e+00
  1.102180e+01    2.928935e+00
  1.103768e+01    2.979105e+00
  1.105356e+01    2.897454e+00
  1.106943e+01    2.876839e+00
  1.108531e+01    2.911683e+00
  1.110118e+01    2.912252e+00
  1.111706e+01    2.925325e+00
  1.113293e+01    2.949757e+00
  1.114881e+01    2.945831e+00
  1.116468e+01    2.916518e+00
  1.118056e+01    2.929174e+00
  1.119644e+01    2.937617e+00
  1.121231e+01    2.871529e+00
  1.122819e+01    2.859131e+00
  1.124406e+01    2.863580e+00
  1.125994e+01    2.852750e+00
  1.127581e+01    2.863273e+00
  1.129169e+01    2.882233e+00
  1.130756e+01    2.882721e+00
  1.132344e+01    2.810735e+00
  1.133932e+01    2.866539e+00
  1.135519e+01    2.843127e+00
  1.137107e+01    2.837538e+00
  1.138694e+01    2.835866e+00
  1.140282e+01    2.843276e+00
  1.141869e+01    2.821275e+00
  1.143457e+01    2.804958e+00
  1.145045e+01    2.798318e+00
  1.146632e+01    2.829425e+00
  1.148220e+01    2.791723e+00
  1.149807e+01    2.742711e+00
  1.151395e+01    2.807754e+00
  1.152982e+01    2.845371e+00
  1.154570e+01    2.826592e+00
  1.156157e+01    2.849377e+00
  1.157745e+01    2.827396e+00
  1.159333e+01    2.698418e+00
  1.160920e+01    2.733501e+00
  1.162508e+01    2.772628e+00
  1.164095e+01    2.744246e+00
  1.165683e+01    2.779421e+00
  1.167270e+01    2.771078e+00
  1.168858e+01    2.740575e+00
  1.170445e+01    2.747489e+00
  1.172033e+01    2.728326e+00
  1.173621e+01    2.766314e+00
  1.175208e+01    2.805284e+00
  1.176796e+01    2.772541e+00
  1.178383e+01    2.760625e+00
  1.179971e+01    2.819971e+00
  1.181558e+01    2.799201e+00
  1.183146e+01    2.726016e+00
  1.184733e+01    2.736073e+00
  1.186321e+01    2.755278e+00
  1.187909e+01    2.743573e+00
  1.189496e+01    2.738697e+00
  1.191084e+01    2.749068e+00
  1.192671e+01    2.800117e+00
  1.194259e+01    2.738612e+00
  1.195846e+01    2.749343e+00
  1.197434e+01    2.727412e+00
  1.199021e+01    2.693104e+00
  1.200609e+01    2.717987e+00
  1.202197e+01    2.713420e+00
  1.203784e+01    2.735856e+00
  1.205372e+01    2.702526e+00
  1.206959e+01    2.698625e+00
  1.208547e+01    2.667735e+00
  1.210134e+01    2.686827e+00
  1.211722e+01    2.692918e+00
  1.213309e+01    2.719334e+00
  1.214897e+01    2.731036e+00
  1.216485e+01    2.694906e+00
  1.218072e+01    2.704578e+00
  1.219660e+01    2.683683e+00
  1.221247e+01    2.675647e+00
  1.222835e+01    2.659581e+00
  1.224422e+01    2.678633e+00
  1.226010e+01    2.731328e+00
  1.227597e+01    2.710993e+00
  1.229185e+01    2.699108e+00
  1.230773e+01    2.701370e+00
  1.232360e+01    2.712892e+00
  1.233948e+01    2.718674e+00
  1.235535e+01    2.735168e+00
  1.237123e+01    2.709136e+00
  1.238710e+01    2.685309e+00
  1.240298e+01    2.688510e+00
  1.241886e+01    2.697157e+00
  1.243473e+01    2.709340e+00
  1.245061e+01    2.746190e+00
  1.246648e+01    2.726500e+00
  1.248236e+01    2.702342e+00
  1.249823e+01    2.748677e+00
  1.251411e+01    2.710639e+00
  1.252998e+01    2.727270e+00
  1.254586e+01    2.761210e+00
  1.256174e+01    2.749758e+00
  1.257761e+01    2.767509e+00
  1.259349e+01    2.768296e+00
  1.260936e+01    2.714383e+00
  1.262524e+01    2.685546e+00
  1.264111e+01    2.757679e+00
  1.265699e+01    2.784413e+00
  1.267286e+01    2.792164e+00
  1.268874e+01    2.857189e+00
  1.270462e+01    2.853530e+00
  1.272049e+01    2.864705e+00
  1.273637e+01    2.930815e+00
  1.275224e+01    2.914065e+00
  1.276812e+01    2.924566e+00
  1.278399e+01    2.945375e+00
  1.279987e+01    2.991041e+00
  1.281574e+01    3.056309e+00
  1.283162e+01    3.161977e+00
  1.284750e+01    3.210880e+00
  1.286337e+01    3.300270e+00
  1.287925e+01    3.375976e+00
  1.289512e+01    3.497571e+00
  1.291100e+01    3.700184e+00
  1.292687e+01    3.888389e+00
  1.294275e+01    4.140377e+00
  1.295862e+01    4.403626e+00
  1.297450e+01    4.835787e+00
  1.299038e+01    5.292551e+00
  1.300625e+01    5.915757e+00
  1.302213e+01    6.723155e+00
  1.303800e+01    7.751970e+00
  1.305388e+01    8.970294e+00
  1.306975e+01    1.025703e+01
  1.308563e+01    1.147838e+01
  1.310150e+01    1.275218e+01
  1.311738e+01    1.394192e+01
  1.313326e+01    1.488029e+01
  1.314913e+01    1.570662e+01
  1.316501e+01    1.636695e+01
  1.318088e+01    1.640776e+01
  1.319676e+01    1.565203e+01
  1.321263e+01    1.438255e+01
  1.322851e+01    1.253058e+01
  1.324438e+01    1.068149e+01
  1.326026e+01    9.234709e+00
  1.327614e+01    7.855149e+00
  1.329201e+01    6.776068e+00
  1.330789e+01    5.969794e+00
  1.332376e+01    5.312325e+00
  1.333964e+01    4.871431e+00
  1.335551e+01    4.522305e+00
  1.337139e+01    4.168378e+00
  1.338727e+01    3.867768e+00
  1.340314e+01    3.644786e+00
  1.341902e+01    3.473615e+00
  1.343489e+01    3.375225e+00
  1.345077e+01    3.248395e+00
  1.346664e+01    3.141847e+00
  1.348252e+01    3.074563e+00
  1.349839e+01    2.976719e+00
  1.351427e+01    2.894424e+00
  1.353015e+01    2.863005e+00
  1.354602e+01    2.827963e+00
  1.356190e+01    2.823520e+00
  1.357777e+01    2.746320e+00
  1.359365e+01    2.711390e+00
  1.360952e+01    2.710636e+00
  1.362540e+01    2.676218e+00
  1.364127e+01    2.634474e+00
  1.365715e+01    2.613381e+00
  1.367303e+01    2.563454e+00
  1.368890e+01    2.595375e+00
  1.370478e+01    2.533155e+00
  1.372065e+01    2.527285e+00
  1.373653e+01    2.493938e+00
  1.375240e+01    2.510882e+00
  1.376828e+01    2.532910e+00
  1.378415e+01    2.506532e+00
  1.380003e+01    2.507944e+00
  1.381591e+01    2.478798e+00
  1.383178e+01    2.456899e+00
  1.384766e+01    2.443277e+00
  1.386353e+01    2.454524e+00
  1.387941e+01    2.461540e+00
  1.389528e+01    2.441689e+00
  1.391116e+01    2.424148e+00
  1.392703e+01    2.397539e+00
  1.394291e+01    2.436171e+00
  1.395879e+01    2.417474e+00
  1.397466e+01    2.420170e+00
  1.399054e+01    2.413708e+00
  1.400641e+01    2.378443e+00
  1.402229e+01    2.370871e+00
  1.403816e+01    2.358709e+00
  1.405404e+01    2.335099e+00
  1.406991e+01    2.370132e+00
  1.408579e+01    2.339615e+00
  1.410167e+01    2.336227e+00
  1.411754e+01    2.333132e+00
  1.413342e+01    2.302886e+00
  1.414929e+01    2.278784e+00
  1.416517e+01    2.310058e+00
  1.418104e+01    2.301307e+00
  1.419692e+01    2.353256e+00
  1.421279e+01    2.302221e+00
  1.422867e+01    2.310135e+00
  1.424455e+01    2.290210e+00
  1.426042e+01    2.311360e+00
  1.427630e+01    2.287949e+00
  1.429217e+01    2.293653e+00
  1.430805e+01    2.283233e+00
  1.432392e+01    2.297740e+00
  1.433980e+01    2.265345e+00
  1.435568e+01    2.262028e+00
  1.437155e+01    2.267311e+00
  1.438743e+01    2.292046e+00
  1.440330e+01    2.248022e+00
  1.441918e+01    2.271908e+00
  1.443505e+01    2.240826e+00
  1.445093e+01    2.226529e+00
  1.446680e+01    2.245886e+00
  1.448268e+01    2.280254e+00
  1.449856e+01    2.297633e+00
  1.451443e+01    2.282817e+00
  1.453031e+01    2.229680e+00
  1.454618e+01    2.248239e+00
  1.456206e+01    2.260762e+00
  1.457793e+01    2.224587e+00
  1.459381e+01    2.208940e+00
  1.460968e+01    2.226430e+00
  1.462556e+01    2.232602e+00
  1.464144e+01    2.231583e+00
  1.465731e+01    2.222808e+00
  1.467319e+01    2.242598e+00
  1.468906e+01    2.266723e+00
  1.470494e+01    2.237745e+00
  1.472081e+01    2.216097e+00
  1.473669e+01    2.200262e+00
  1.475256e+01    2.175390e+00
  1.476844e+01    2.138587e+00
  1.478432e+01    2.179385e+00
  1.480019e+01    2.189598e+00
  1.481607e+01    2.200801e+00
  1.483194e+01    2.201822e+00
  1.484782e+01    2.206572e+00
  1.486369e+01    2.227386e+00
  1.487957e+01    2.236856e+00
  1.489544e+01    2.275628e+00
  1.491132e+01    2.314979e+00
  1.492720e+01    2.297182e+00
  1.494307e+01    2.276735e+00
  1.495895e+01    2.316844e+00
  1.497482e+01    2.363656e+00
  1.499070e+01    2.366405e+00
  1.500657e+01    2.425258e+00
  1.502245e+01    2.494770e+00
  1.503832e+01    2.643045e+00
  1.505420e+01    2.715003e+00
  1.507008e+01    2.842954e+00
  1.508595e+01    3.016864e+00
  1.510183e+01    3.236854e+00
  1.511770e+01    3.459454e+00
  1.513358e+01    3.786119e+00
  1.514945e+01    4.180765e+00
  1.516533e+01    4.539647e+00
  1.518120e+01    4.866488e+00
  1.519708e+01    5.176072e+00
  1.521296e+01    5.495399e+00
  1.522883e+01    5.626186e+00
  1.524471e+01    5.688771e+00
  1.526058e+01    5.855595e+00
  1.527646e+01    5.835801e+00
  1.529233e+01    5.617660e+00
  1.530821e+01    5.168637e+00
  1.532409e+01    4.655349e+00
  1.533996e+01    4.205493e+00
  1.535584e+01    3.775391e+00
  1.537171e+01    3.446521e+00
  1.538759e+01    3.151258e+00
  1.540346e+01    2.966081e+00
  1.541934e+01    2.795166e+00
  1.543521e+01    2.637813e+00
  1.545109e+01    2.554244e+00
  1.546697e+01    2.469052e+00
  1.548284e+01    2.396774e+00
  1.549872e+01    2.298505e+00
  1.551459e+01    2.281656e+00
  1.553047e+01    2.250841e+00
  1.554634e+01    2.204178e+00
  1.556222e+01    2.161647e+00
  1.557809e+01    2.142824e+00
  1.559397e+01    2.109673e+00
  1.560985e+01    2.112801e+00
  1.562572e+01    2.081343e+00
  1.564160e+01    2.056761e+00
  1.565747e+01    2.040530e+00
  1.567335e+01    2.020757e+00
  1.568922e+01    1.974490e+00
  1.570510e+01    2.023914e+00
  1.572097e+01    1.992644e+00
  1.573685e+01    1.984089e+00
  1.575273e+01    1.963641e+00
  1.576860e+01    1.977133e+00
  1.578448e+01    1.982743e+00
  1.580035e+01    1.978625e+00
  1.581623e+01    1.914950e+00
  1.583210e+01    1.933856e+00
  1.584798e+01    1.910004e+00
  1.586385e+01    1.883981e+00
  1.587973e+01    1.918345e+00
  1.589561e+01    1.902058e+00
  1.591148e+01    1.933276e+00
  1.592736e+01    1.924947e+00
  1.594323e+01    1.896910e+00
  1.595911e+01    1.919281e+00
  1.597498e+01    1.872930e+00
  1.599086e+01    1.857806e+00
  1.600673e+01    1.855833e+00
  1.602261e+01    1.876765e+00
  1.603849e+01    1.879795e+00
  1.605436e+01    1.885083e+00
  1.607024e+01    1.895081e+00
  1.608611e+01    1.869136e+00
  1.610199e+01    1.881681e+00
  1.611786e+01    1.841428e+00
  1.613374e+01    1.840345e+00
  1.614961e+01    1.854674e+00
  1.616549e+01    1.850178e+00
  1.618137e+01    1.844113e+00
  1.619724e+01    1.872362e+00
  1.621312e+01    1.815218e+00
  1.622899e+01    1.803177e+00
  1.624487e+01    1.854783e+00
  1.626074e+01    1.835050e+00
  1.627662e+01    1.772113e+00
  1.629250e+01    1.811201e+00
  1.630837e+01    1.812392e+00
  1.632425e+01    1.812713e+00
  1.634012e+01    1.811710e+00
  1.635600e+01    1.794854e+00
  1.637187e+01    1.811112e+00
  1.638775e+01    1.815339e+00
  1.640362e+01    1.780437e+00
  1.641950e+01    1.778176e+00
  1.643538e+01    1.793504e+00
  1.645125e+01    1.780231e+00
  1.646713e+01    1.746577e+00
  1.648300e+01    1.718504e+00
  1.649888e+01    1.759953e+00
  1.651475e+01    1.748935e+00
  1.653063e+01    1.785739e+00
  1.654650e+01    1.745652e+00
  1.656238e+01    1.730177e+00
  1.657826e+01    1.691965e+00
  1.659413e+01    1.722513e+00
  1.661001e+01    1.715723e+00
  1.662588e+01    1.714875e+00
  1.664176e+01    1.760472e+00
  1.665763e+01    1.767437e+00
  1.667351e+01    1.755800e+00
  1.668938e+01    1.724586e+00
  1.670526e+01    1.722632e+00
  1.672114e+01    1.728363e+00
  1.673701e+01    1.736219e+00
  1.675289e+01    1.717495e+00
  1.676876e+01    1.706279e+00
  1.678464e+01    1.711922e+00
  1.680051e+01    1.682802e+00
  1.681639e+01    1.680350e+00
  1.683226e+01    1.695092e+00
  1.684814e+01    1.720028e+00
  1.686402e+01    1.695535e+00
  1.687989e+01    1.668830e+00
  1.689577e+01    1.640474e+00
  1.691164e+01    1.647658e+00
  1.692752e+01    1.696152e+00
  1.694339e+01    1.653569e+00
  1.695927e+01    1.665447e+00
  1.697514e+01    1.693581e+00
  1.699102e+01    1.666121e+00
  1.700690e+01    1.680664e+00
  1.702277e+01    1.691843e+00
  1.703865e+01    1.637042e+00
  1.705452e+01    1.655959e+00
  1.707040e+01    1.654061e+00
  1.708627e+01    1.652295e+00
  1.710215e+01    1.680870e+00
  1.711802e+01    1.676446e+00
  1.713390e+01    1.661868e+00
  1.714978e+01    1.631212e+00
  1.716565e+01    1.626428e+00
  1.718153e+01    1.609982e+00
  1.719740e+01    1.605333e+00
  1.721328e+01    1.640183e+00
  1.722915e+01    1.620792e+00
  1.724503e+01    1.619718e+00
  1.726091e+01    1.609065e+00
  1.727678e+01    1.585012e+00
  1.729266e+01    1.590136e+00
  1.730853e+01    1.567948e+00
  1.732441e+01    1.603652e+00
  1.734028e+01    1.608080e+00
  1.735616e+01    1.604511e+00
  1.737203e+01    1.617079e+00
  1.738791e+01    1.601893e+00
  1.740379e+01    1.561663e+00
  1.741966e+01    1.604590e+00
  1.743554e+01    1.603900e+00
  1.745141e+01    1.607971e+00
  1.746729e+01    1.613923e+00
  1.748316e+01    1.605313e+00
  1.749904e+01    1.602312e+00
  1.751491e+01    1.617713e+00
  1.753079e+01    1.598967e+00
  1.754667e+01    1.612710e+00
  1.756254e+01    1.581129e+00
  1.757842e+01    1.563573e+00
  1.759429e+01    1.596660e+00
  1.761017e+01    1.592638e+00
  1.762604e+01    1.562836e+00
  1.764192e+01    1.568700e+00
  1.765779e+01    1.567747e+00
  1.767367e+01    1.544805e+00
  1.768955e+01    1.547895e+00
  1.770542e+01    1.559233e+00
  1.772130e+01    1.558301e+00
  1.773717e+01    1.572860e+00
  1.775305e+01    1.594803e+00
  1.776892e+01    1.560700e+00
  1.778480e+01    1.555162e+00
  1.780067e+01    1.573768e+00
  1.781655e+01    1.563520e+00
  1.783243e+01    1.559430e+00
  1.784830e+01    1.540124e+00
  1.786418e+01    1.523657e+00
  1.788005e+01    1.511961e+00
  1.789593e+01    1.551536e+00
  1.791180e+01    1.548148e+00
  1.792768e+01    1.530881e+00
  1.794355e+01    1.524832e+00
  1.795943e+01    1.507464e+00
  1.797531e+01    1.510694e+00
  1.799118e+01    1.521400e+00
  1.800706e+01    1.516998e+00
  1.802293e+01    1.522161e+00
  1.803881e+01    1.527120e+00
  1.805468e+01    1.520322e+00
  1.807056e+01    1.510470e+00
  1.808643e+01    1.495990e+00
  1.810231e+01    1.502505e+00
  1.811819e+01    1.507611e+00
  1.813406e+01    1.508348e+00
  1.814994e+01    1.495555e+00
  1.816581e+01    1.506094e+00
  1.818169e+01    1.515720e+00
  1.819756e+01    1.501176e+00
  1.821344e+01    1.477462e+00
  1.822932e+01    1.493143e+00
  1.824519e+01    1.509433e+00
  1.826107e+01    1.474580e+00
  1.827694e+01    1.464864e+00
  1.829282e+01    1.463664e+00
  1.830869e+01    1.467076e+00
  1.832457e+01    1.464134e+00
  1.834044e+01    1.458833e+00
  1.835632e+01    1.475008e+00
  1.837220e+01    1.468785e+00
  1.838807e+01    1.485283e+00
  1.840395e+01    1.484090e+00
  1.841982e+01    1.454647e+00
  1.843570e+01    1.479440e+00
  1.845157e+01    1.468758e+00
  1.846745e+01    1.464589e+00
  1.848332e+01    1.438325e+00
  1.849920e+01    1.419044e+00
  1.851508e+01    1.458805e+00
  1.853095e+01    1.452237e+00
  1.854683e+01    1.449066e+00
  1.856270e+01    1.445940e+00
  1.857858e+01    1.469178e+00
  1.859445e+01    1.422998e+00
  1.861033e+01    1.403968e+00
  1.862620e+01    1.423379e+00
  1.864208e+01    1.446253e+00
  1.865796e+01    1.438971e+00
  1.867383e+01    1.434700e+00
  1.868971e+01    1.419344e+00
  1.870558e+01    1.394456e+00
  1.872146e+01    1.417946e+00
  1.873733e+01    1.428559e+00
  1.875321e+01    1.432366e+00
  1.876908e+01    1.410846e+00
  1.878496e+01    1.404699e+00
  1.880084e+01    1.383748e+00
  1.881671e+01    1.376990e+00
  1.883259e+01    1.401343e+00
  1.884846e+01    1.406333e+00
  1.886434e+01    1.371944e+00
  1.888021e+01    1.400224e+00
  1.889609e+01    1.420925e+00
  1.891196e+01    1.413035e+00
  1.892784e+01    1.391081e+00
  1.894372e+01    1.401613e+00
  1.895959e+01    1.374276e+00
  1.897547e+01    1.383958e+00
  1.899134e+01    1.371616e+00
  1.900722e+01    1.396825e+00
  1.902309e+01    1.399228e+00
  1.903897e+01    1.372414e+00
  1.905484e+01    1.360727e+00
  1.907072e+01    1.383996e+00
  1.908660e+01    1.389195e+00
  1.910247e+01    1.372660e+00
  1.911835e+01    1.362341e+00
  1.913422e+01    1.387912e+00
  1.915010e+01    1.388795e+00
  1.916597e+01    1.362275e+00
  1.918185e+01    1.382027e+00
  1.919773e+01    1.360765e+00
  1.921360e+01    1.344853e+00
  1.922948e+01    1.358128e+00
  1.924535e+01    1.395817e+00
  1.926123e+01    1.375416e+00
  1.927710e+01    1.362441e+00
  1.929298e+01    1.344584e+00
  1.930885e+01    1.356871e+00
  1.932473e+01    1.328495e+00
  1.934061e+01    1.316942e+00
  1.935648e+01    1.366511e+00
  1.937236e+01    1.373237e+00
  1.938823e+01    1.343510e+00
  1.940411e+01    1.340681e+00
  1.941998e+01    1.345496e+00
  1.943586e+01    1.336520e+00
  1.945173e+01    1.357740e+00
  1.946761e+01    1.361515e+00
  1.948349e+01    1.355945e+00
  1.949936e+01    1.339764e+00
  1.951524e+01    1.339098e+00
  1.953111e+01    1.327880e+00
  1.954699e+01    1.337540e+00
  1.956286e+01    1.326065e+00
  1.957874e+01    1.337950e+00
  1.959461e+01    1.313369e+00
  1.961049e+01    1.298973e+00
  1.962637e+01    1.295752e+00
  1.964224e+01    1.301530e+00
  1.965812e+01    1.318855e+00
  1.967399e+01    1.338903e+00
  1.968987e+01    1.313116e+00
  1.970574e+01    1.323386e+00
  1.972162e+01    1.336643e+00
  1.973749e+01    1.331016e+00
  1.975337e+01    1.300036e+00
  1.976925e+01    1.322072e+00
  1.978512e+01    1.305603e+00
  1.980100e+01    1.297866e+00
  1.981687e+01    1.304362e+00
  1.983275e+01    1.307835e+00
  1.984862e+01    1.323325e+00
  1.986450e+01    1.313567e+00
  1.988037e+01    1.301531e+00
  1.989625e+01    1.316529e+00
  1.991213e+01    1.285232e+00
  1.992800e+01    1.251229e+00
  1.994388e+01    1.277530e+00
  1.995975e+01    1.280480e+00
  1.997563e+01    1.283582e+00
  1.999150e+01    1.278194e+00
  2.000738e+01    1.288157e+00
  2.002325e+01    1.278390e+00
  2.003913e+01    1.287693e+00
  2.005501e+01    1.270004e+00
  2.007088e+01    1.255830e+00
  2.008676e+01    1.285246e+00
  2.010263e+01    1.292388e+00
  2.011851e+01    1.267942e+00
  2.013438e+01    1.261268e+00
  2.015026e+01    1.272686e+00
  2.016614e+01    1.241256e+00
  2.018201e+01    1.264825e+00
  2.019789e+01    1.250167e+00
  2.021376e+01    1.250272e+00
  2.022964e+01    1.253142e+00
  2.024551e+01    1.288036e+00
  2.026139e+01    1.277567e+00
  2.027726e+01    1.269529e+00
  2.029314e+01    1.259793e+00
  2.030902e+01    1.249183e+00
  2.032489e+01    1.246953e+00
  2.034077e+01    1.252761e+00
  2.035664e+01    1.270517e+00
  2.037252e+01    1.249632e+00
  2.038839e+01    1.259161e+00
  2.040427e+01    1.259638e+00
  2.042014e+01    1.249777e+00
  2.043602e+01    1.247483e+00
  2.045190e+01    1.249841e+00
  2.046777e+01    1.280379e+00
  2.048365e+01    1.252762e+00
  2.049952e+01    1.252494e+00
  2.051540e+01    1.263797e+00
  2.053127e+01    1.246119e+00
  2.054715e+01    1.232949e+00
  2.056302e+01    1.249305e+00
  2.057890e+01    1.217913e+00
  2.059478e+01    1.230823e+00
  2.061065e+01    1.261688e+00
  2.062653e+01    1.241994e+00
  2.064240e+01    1.255959e+00
  2.065828e+01    1.272877e+00
  2.067415e+01    1.254515e+00
  2.069003e+01    1.252737e+00
  2.070590e+01    1.218301e+00
  2.072178e+01    1.221915e+00
  2.073766e+01    1.228489e+00
  2.075353e+01    1.241961e+00
  2.076941e+01    1.247087e+00
  2.078528e+01    1.241240e+00
  2.080116e+01    1.243008e+00
  2.081703e+01    1.232075e+00
  2.083291e+01    1.216861e+00
  2.084878e+01    1.227285e+00
  2.086466e+01    1.247504e+00
  2.088054e+01    1.230227e+00
  2.089641e+01    1.228636e+00
  2.091229e+01    1.224944e+00
  2.092816e+01    1.256180e+00
  2.094404e+01    1.217055e+00
  2.095991e+01    1.201859e+00
  2.097579e+01    1.226974e+00
  2.099166e+01    1.217921e+00
  2.100754e+01    1.225196e+00
  2.102342e+01    1.253587e+00
  2.103929e+01    1.241781e+00
  2.105517e+01    1.238864e+00
  2.107104e+01    1.253543e+00
  2.108692e+01    1.219858e+00
  2.110279e+01    1.233210e+00
  2.111867e+01    1.229799e+00
  2.113455e+01    1.235450e+00
  2.115042e+01    1.240634e+00
  2.116630e+01    1.216980e+00
  2.118217e+01    1.243892e+00
  2.119805e+01    1.236895e+00
  2.121392e+01    1.221624e+00
  2.122980e+01    1.250036e+00
  2.124567e+01    1.257215e+00
  2.126155e+01    1.243738e+00
  2.127743e+01    1.249905e+00
  2.129330e+01    1.261092e+00
  2.130918e+01    1.243441e+00
  2.132505e+01    1.276731e+00
  2.134093e+01    1.279281e+00
  2.135680e+01    1.282935e+00
  2.137268e+01    1.266903e+00
  2.138855e+01    1.291886e+00
  2.140443e+01    1.307674e+00
  2.142031e+01    1.335033e+00
  2.143618e+01    1.313200e+00
  2.145206e+01    1.343988e+00
  2.146793e+01    1.416147e+00
  2.148381e+01    1.418041e+00
  2.149968e+01    1.435829e+00
  2.151556e+01    1.449600e+00
  2.153143e+01    1.481840e+00
  2.154731e+01    1.531820e+00
  2.156319e+01    1.574711e+00
  2.157906e+01    1.615981e+00
  2.159494e+01    1.678408e+00
  2.161081e+01    1.778984e+00
  2.162669e+01    1.876579e+00
  2.164256e+01    1.969515e+00
  2.165844e+01    2.139821e+00
  2.167431e+01    2.302415e+00
  2.169019e+01    2.533908e+00
  2.170607e+01    2.787287e+00
  2.172194e+01    3.106182e+00
  2.173782e+01    3.517375e+00
  2.175369e+01    4.087843e+00
  2.176957e+01    4.584736e+00
  2.178544e+01    5.197869e+00
  2.180132e+01    5.899786e+00
  2.181719e+01    6.559356e+00
  2.183307e+01    7.227804e+00
  2.184895e+01    7.830132e+00
  2.186482e+01    8.413342e+00
  2.188070e+01    8.802496e+00
  2.189657e+01    8.925739e+00
  2.191245e+01    8.704540e+00
  2.192832e+01    8.249296e+00
  2.194420e+01    7.513886e+00
  2.196007e+01    6.643022e+00
  2.197595e+01    5.776518e+00
  2.199183e+01    4.950136e+00
  2.200770e+01    4.226588e+00
  2.202358e+01    3.667778e+00
  2.203945e+01    3.251286e+00
  2.205533e+01    2.848665e+00
  2.207120e+01    2.558435e+00
  2.208708e+01    2.341233e+00
  2.210296e+01    2.165772e+00
  2.211883e+01    2.005545e+00
  2.213471e+01    1.866984e+00
  2.215058e+01    1.752958e+00
  2.216646e+01    1.704603e+00
  2.218233e+01    1.639724e+00
  2.219821e+01    1.567357e+00
  2.221408e+01    1.514459e+00
  2.222996e+01    1.476735e+00
  2.224584e+01    1.429192e+00
  2.226171e+01    1.376242e+00
  2.227759e+01    1.348604e+00
  2.229346e+01    1.332095e+00
  2.230934e+01    1.305353e+00
  2.232521e+01    1.309827e+00
  2.234109e+01    1.276329e+00
  2.235696e+01    1.254131e+00
  2.237284e+01    1.225457e+00
  2.238872e+01    1.213438e+00
  2.240459e+01    1.172416e+00
  2.242047e+01    1.172764e+00
  2.243634e+01    1.183194e+00
  2.245222e+01    1.155651e+00
  2.246809e+01    1.163785e+00
  2.248397e+01    1.159808e+00
  2.249984e+01    1.147291e+00
  2.251572e+01    1.147896e+00
  2.253160e+01    1.127573e+00
  2.254747e+01    1.113304e+00
  2.256335e+01    1.132199e+00
  2.257922e+01    1.125619e+00
  2.259510e+01    1.121709e+00
  2.261097e+01    1.099888e+00
  2.262685e+01    1.123710e+00
  2.264272e+01    1.139010e+00
  2.265860e+01    1.121030e+00
  2.267448e+01    1.084108e+00
  2.269035e+01    1.076015e+00
  2.270623e+01    1.085436e+00
  2.272210e+01    1.062604e+00
  2.273798e+01    1.063982e+00
  2.275385e+01    1.079980e+00
  2.276973e+01    1.051651e+00
  2.278560e+01    1.048730e+00
  2.280148e+01    1.056927e+00
  2.281736e+01    1.059992e+00
  2.283323e+01    1.062512e+00
  2.284911e+01    1.044828e+00
  2.286498e+01    1.034290e+00
  2.288086e+01    1.040138e+00
  2.289673e+01    1.046814e+00
  2.291261e+01    1.056687e+00
  2.292848e+01    1.038311e+00
  2.294436e+01    1.028392e+00
  2.296024e+01    1.017941e+00
  2.297611e+01    1.024232e+00
  2.299199e+01    1.006520e+00
  2.300786e+01    1.012012e+00
  2.302374e+01    1.017197e+00
  2.303961e+01    1.016344e+00
  2.305549e+01    9.941517e-01
  2.307137e+01    1.023933e+00
  2.308724e+01    1.036083e+00
  2.310312e+01    1.002942e+00
  2.311899e+01    1.006296e+00
  2.313487e+01    1.013393e+00
  2.315074e+01    1.028695e+00
  2.316662e+01    1.008297e+00
  2.318249e+01    1.008109e+00
  2.319837e+01    1.011598e+00
  2.321425e+01    1.007712e+00
  2.323012e+01    9.992360e-01
  2.324600e+01    9.963982e-01
  2.326187e+01    9.962783e-01
  2.327775e+01    9.967916e-01
  2.329362e+01    9.996871e-01
  2.330950e+01    9.869978e-01
  2.332537e+01    9.759516e-01
  2.334125e+01    9.858286e-01
  2.335713e+01    9.754935e-01
  2.337300e+01    9.739611e-01
  2.338888e+01    9.987531e-01
  2.340475e+01    9.848915e-01
  2.342063e+01    9.741185e-01
  2.343650e+01    9.576032e-01
  2.345238e+01    9.668471e-01
  2.346825e+01    9.971054e-01
  2.348413e+01    9.762946e-01
  2.350001e+01    9.545577e-01
  2.351588e+01    9.530932e-01
  2.353176e+01    9.790462e-01
  2.354763e+01    9.772238e-01
  2.356351e+01    9.678328e-01
  2.357938e+01    9.651365e-01
  2.359526e+01    9.821205e-01
  2.361113e+01    9.768238e-01
  2.362701e+01    9.572538e-01
  2.364289e+01    9.446217e-01
  2.365876e+01    9.327242e-01
  2.367464e+01    9.465508e-01
  2.369051e+01    9.450096e-01
  2.370639e+01    9.427809e-01
  2.372226e+01    9.526554e-01
  2.373814e+01    9.726231e-01
  2.375401e+01    9.428143e-01
  2.376989e+01    9.384477e-01
  2.378577e+01    9.377584e-01
  2.380164e+01    9.140685e-01
  2.381752e+01    9.131823e-01
  2.383339e+01    9.217774e-01
  2.384927e+01    9.057013e-01
  2.386514e+01    9.074863e-01
  2.388102e+01    9.146968e-01
  2.389689e+01    9.262026e-01
  2.391277e+01    9.121934e-01
  2.392865e+01    9.198728e-01
  2.394452e+01    9.133288e-01
  2.396040e+01    9.063386e-01
  2.397627e+01    9.135068e-01
  2.399215e+01    9.184864e-01
  2.400802e+01    9.140085e-01
  2.402390e+01    9.006573e-01
  2.403978e+01    8.975784e-01
  2.405565e+01    8.994178e-01
  2.407153e+01    8.805946e-01
  2.408740e+01    8.852963e-01
  2.410328e+01    8.870882e-01
  2.411915e+01    9.024951e-01
  2.413503e+01    8.684279e-01
  2.415090e+01    8.993564e-01
  2.416678e+01    9.132444e-01
  2.418266e+01    9.123996e-01
  2.419853e+01    9.071937e-01
  2.421441e+01    9.188536e-01
  2.423028e+01    8.962991e-01
  2.424616e+01    8.616116e-01
  2.426203e+01    8.806140e-01
  2.427791e+01    8.833363e-01
  2.429378e+01    8.778080e-01
  2.430966e+01    8.910044e-01
  2.432554e+01    9.055535e-01
  2.434141e+01    8.742564e-01
  2.435729e+01    9.063420e-01
  2.437316e+01    9.062451e-01
  2.438904e+01    8.955852e-01
  2.440491e+01    8.770491e-01
  2.442079e+01    8.776736e-01
  2.443666e+01    8.872498e-01
  2.445254e+01    8.914179e-01
  2.446842e+01    8.907166e-01
  2.448429e+01    8.926697e-01
  2.450017e+01    8.877835e-01
  2.451604e+01    8.915129e-01
  2.453192e+01    8.932300e-01
  2.454779e+01    8.913763e-01
  2.456367e+01    9.048579e-01
  2.457954e+01    9.024754e-01
  2.459542e+01    8.736511e-01
  2.461130e+01    8.746728e-01
  2.462717e+01    8.751472e-01
  2.464305e+01    8.851940e-01
  2.465892e+01    8.936498e-01
  2.467480e+01    8.889716e-01
  2.469067e+01    8.886239e-01
  2.470655e+01    8.959627e-01
  2.472242e+01    8.942106e-01
  2.473830e+01    8.761967e-01
  2.475418e+01    8.765479e-01
  2.477005e+01    8.897761e-01
  2.478593e+01    8.735536e-01
  2.480180e+01    8.866501e-01
  2.481768e+01    8.970178e-01
  2.483355e+01    9.072351e-01
  2.484943e+01    9.219282e-01
  2.486530e+01    8.931182e-01
  2.488118e+01    9.049400e-01
  2.489706e+01    9.070227e-01
  2.491293e+01    9.092747e-01
  2.492881e+01    9.003972e-01
  2.494468e+01    8.949293e-01
  2.496056e+01    8.979100e-01
  2.497643e+01    8.962727e-01
  2.499231e+01    8.821130e-01
  2.500819e+01    8.802315e-01
  2.502406e+01    9.011401e-01
  2.503994e+01    8.923656e-01
  2.505581e+01    9.033322e-01
  2.507169e+01    9.066901e-01
  2.508756e+01    9.124916e-01
  2.510344e+01    9.117119e-01
  2.511931e+01    9.070697e-01
  2.513519e+01    9.169379e-01
  2.515107e+01    9.290591e-01
  2.516694e+01    9.347975e-01
  2.518282e+01    9.288625e-01
  2.519869e+01    9.541240e-01
  2.521457e+01    9.501055e-01
  2.523044e+01    9.210846e-01
  2.524632e+01    9.341592e-01
  2.526219e+01    9.472576e-01
  2.527807e+01    9.684441e-01
  2.529395e+01    9.560037e-01
  2.530982e+01    9.689973e-01
  2.532570e+01    9.702830e-01
  2.534157e+01    9.620385e-01
  2.535745e+01    9.755505e-01
  2.537332e+01    9.898849e-01
  2.538920e+01    9.781370e-01
  2.540507e+01    9.818329e-01
  2.542095e+01    1.013994e+00
  2.543683e+01    1.026766e+00
  2.545270e+01    1.004440e+00
  2.546858e+01    1.061947e+00
  2.548445e+01    1.072161e+00
  2.550033e+01    1.047063e+00
  2.551620e+01    1.055471e+00
  2.553208e+01    1.098636e+00
  2.554795e+01    1.113137e+00
  2.556383e+01    1.100597e+00
  2.557971e+01    1.162692e+00
  2.559558e+01    1.223650e+00
  2.561146e+01    1.232110e+00
  2.562733e+01    1.268960e+00
  2.564321e+01    1.296209e+00
  2.565908e+01    1.361111e+00
  2.567496e+01    1.443247e+00
  2.569083e+01    1.505137e+00
  2.570671e+01    1.583155e+00
  2.572259e+01    1.703449e+00
  2.573846e+01    1.857128e+00
  2.575434e+01    2.029297e+00
  2.577021e+01    2.216918e+00
  2.578609e+01    2.490282e+00
  2.580196e+01    2.824017e+00
  2.581784e+01    3.226316e+00
  2.583371e+01    3.669587e+00
  2.584959e+01    4.154239e+00
  2.586547e+01    4.708025e+00
  2.588134e+01    5.276451e+00
  2.589722e+01    5.851871e+00
  2.591309e+01    6.369446e+00
  2.592897e+01    6.835754e+00
  2.594484e+01    7.116179e+00
  2.596072e+01    7.251165e+00
  2.597660e+01    7.037828e+00
  2.599247e+01    6.645216e+00
  2.600835e+01    6.048202e+00
  2.602422e+01    5.359237e+00
  2.604010e+01    4.665856e+00
  2.605597e+01    4.012983e+00
  2.607185e+01    3.479395e+00
  2.608772e+01    3.009910e+00
  2.610360e+01    2.644412e+00
  2.611948e+01    2.355534e+00
  2.613535e+01    2.147509e+00
  2.615123e+01    1.972157e+00
  2.616710e+01    1.825585e+00
  2.618298e+01    1.684556e+00
  2.619885e+01    1.620041e+00
  2.621473e+01    1.502120e+00
  2.623060e+01    1.427246e+00
  2.624648e+01    1.356363e+00
  2.626236e+01    1.310093e+00
  2.627823e+01    1.255713e+00
  2.629411e+01    1.220563e+00
  2.630998e+01    1.180991e+00
  2.632586e+01    1.154593e+00
  2.634173e+01    1.118787e+00
  2.635761e+01    1.122195e+00
  2.637348e+01    1.082312e+00
  2.638936e+01    1.059021e+00
  2.640524e+01    1.062983e+00
  2.642111e+01    1.033698e+00
  2.643699e+01    1.043729e+00
  2.645286e+01    1.033500e+00
  2.646874e+01    1.033864e+00
  2.648461e+01    1.021651e+00
  2.650049e+01    1.028969e+00
  2.651636e+01    1.026618e+00
  2.653224e+01    1.021256e+00
  2.654812e+01    9.961500e-01
  2.656399e+01    9.896398e-01
  2.657987e+01    1.001509e+00
  2.659574e+01    9.801210e-01
  2.661162e+01    9.810279e-01
  2.662749e+01    1.006559e+00
  2.664337e+01    9.776061e-01
  2.665924e+01    9.839962e-01
  2.667512e+01    9.845790e-01
  2.669100e+01    9.711800e-01
  2.670687e+01    9.596894e-01
  2.672275e+01    9.645793e-01
  2.673862e+01    9.593142e-01
  2.675450e+01    9.701156e-01
  2.677037e+01    9.744616e-01
  2.678625e+01    9.905670e-01
  2.680212e+01    9.862272e-01
  2.681800e+01    9.878669e-01
  2.683388e+01    1.002220e+00
  2.684975e+01    9.871587e-01
  2.686563e+01    1.001804e+00
  2.688150e+01    9.953617e-01
  2.689738e+01    9.801944e-01
  2.691325e+01    1.004352e+00
  2.692913e+01    1.010697e+00
  2.694501e+01    1.009271e+00
  2.696088e+01    1.032643e+00
  2.697676e+01    1.067554e+00
  2.699263e+01    1.109712e+00
  2.700851e+01    1.101416e+00
  2.702438e+01    1.149648e+00
  2.704026e+01    1.211566e+00
  2.705613e+01    1.247502e+00
  2.707201e+01    1.330061e+00
  2.708789e+01    1.410885e+00
  2.710376e+01    1.508471e+00
  2.711964e+01    1.601441e+00
  2.713551e+01    1.701416e+00
  2.715139e+01    1.835648e+00
  2.716726e+01    1.977012e+00
  2.718314e+01    2.056790e+00
  2.719901e+01    2.134373e+00
  2.721489e+01    2.207803e+00
  2.723077e+01    2.192458e+00
  2.724664e+01    2.139827e+00
  2.726252e+01    2.013533e+00
  2.727839e+01    1.840378e+00
  2.729427e+01    1.695133e+00
  2.731014e+01    1.589343e+00
  2.732602e+01    1.474935e+00
  2.734189e+01    1.337791e+00
  2.735777e+01    1.263370e+00
  2.737365e+01    1.230721e+00
  2.738952e+01    1.180885e+00
  2.740540e+01    1.123332e+00
  2.742127e+01    1.090577e+00
  2.743715e+01    1.076737e+00
  2.745302e+01    1.046181e+00
  2.746890e+01    1.022601e+00
  2.748477e+01    9.951823e-01
  2.750065e+01    9.898003e-01
  2.751653e+01    9.847026e-01
  2.753240e+01    9.751626e-01
  2.754828e+01    9.616131e-01
  2.756415e+01    9.486715e-01
  2.758003e+01    9.420033e-01
  2.759590e+01    9.290292e-01
  2.761178e+01    9.167275e-01
  2.762765e+01    9.302441e-01
  2.764353e+01    9.153759e-01
  2.765941e+01    9.140458e-01
  2.767528e+01    9.156115e-01
  2.769116e+01    8.926222e-01
  2.770703e+01    8.964806e-01
  2.772291e+01    9.055160e-01
  2.773878e+01    8.976526e-01
  2.775466e+01    8.830529e-01
  2.777054e+01    9.136477e-01
  2.778641e+01    8.850266e-01
  2.780229e+01    8.906219e-01
  2.781816e+01    8.871300e-01
  2.783404e+01    8.836693e-01
  2.784991e+01    8.745924e-01
  2.786579e+01    8.849184e-01
  2.788166e+01    8.929558e-01
  2.789754e+01    8.852323e-01
  2.791342e+01    8.784959e-01
  2.792929e+01    8.818268e-01
  2.794517e+01    8.740837e-01
  2.796104e+01    8.724742e-01
  2.797692e+01    8.935801e-01
  2.799279e+01    8.969033e-01
  2.800867e+01    8.782362e-01
  2.802454e+01    8.729304e-01
  2.804042e+01    8.573364e-01
  2.805630e+01    8.448543e-01
  2.807217e+01    8.537264e-01
  2.808805e+01    8.672047e-01
  2.810392e+01    8.520560e-01
  2.811980e+01    8.716940e-01
  2.813567e+01    8.504064e-01
  2.815155e+01    8.585145e-01
  2.816742e+01    8.826209e-01
  2.818330e+01    8.597577e-01
  2.819918e+01    8.289444e-01
  2.821505e+01    8.458316e-01
  2.823093e+01    8.703472e-01
  2.824680e+01    8.599321e-01
  2.826268e+01    8.389793e-01
  2.827855e+01    8.659920e-01
  2.829443e+01    8.677865e-01
  2.831030e+01    8.756253e-01
  2.832618e+01    8.621524e-01
  2.834206e+01    8.541684e-01
  2.835793e+01    8.229988e-01
  2.837381e+01    8.436599e-01
  2.838968e+01    8.509817e-01
  2.840556e+01    8.563477e-01
  2.842143e+01    8.382331e-01
  2.843731e+01    8.571393e-01
  2.845318e+01    8.567613e-01
  2.846906e+01    8.605079e-01
  2.848494e+01    8.403108e-01
  2.850081e+01    8.451645e-01
  2.851669e+01    8.405709e-01
  2.853256e+01    8.455925e-01
  2.854844e+01    8.608518e-01
  2.856431e+01    8.450011e-01
  2.858019e+01    8.556978e-01
  2.859606e+01    8.635693e-01
  2.861194e+01    8.328846e-01
  2.862782e+01    8.293352e-01
  2.864369e+01    8.469756e-01
  2.865957e+01    8.368380e-01
  2.867544e+01    8.375036e-01
  2.869132e+01    8.421738e-01
  2.870719e+01    8.372723e-01
  2.872307e+01    8.409983e-01
  2.873895e+01    8.540877e-01
  2.875482e+01    8.434361e-01
  2.877070e+01    8.555765e-01
  2.878657e+01    8.170612e-01
  2.880245e+01    8.282986e-01
  2.881832e+01    8.211559e-01
  2.883420e+01    8.414505e-01
  2.885007e+01    8.381689e-01
  2.886595e+01    8.202006e-01
  2.888183e+01    8.197862e-01
  2.889770e+01    8.029554e-01
  2.891358e+01    8.148094e-01
  2.892945e+01    8.258930e-01
  2.894533e+01    8.413035e-01
  2.896120e+01    8.323564e-01
  2.897708e+01    8.232141e-01
  2.899295e+01    8.306020e-01
  2.900883e+01    8.333388e-01
  2.902471e+01    8.349153e-01
  2.904058e+01    8.320060e-01
  2.905646e+01    8.171955e-01
  2.907233e+01    8.320583e-01
  2.908821e+01    8.152856e-01
  2.910408e+01    8.133683e-01
  2.911996e+01    8.154661e-01
  2.913583e+01    8.091369e-01
  2.915171e+01    8.393067e-01
  2.916759e+01    8.356788e-01
  2.918346e+01    8.452823e-01
  2.919934e+01    8.263630e-01
  2.921521e+01    8.099160e-01
  2.923109e+01    8.006593e-01
  2.924696e+01    8.109776e-01
  2.926284e+01    8.178509e-01
  2.927871e+01    8.089088e-01
  2.929459e+01    8.050406e-01
  2.931047e+01    8.262717e-01
  2.932634e+01    8.233816e-01
  2.934222e+01    8.093122e-01
  2.935809e+01    8.077446e-01
  2.937397e+01    8.148694e-01
  2.938984e+01    8.228592e-01
  2.940572e+01    8.101751e-01
  2.942159e+01    8.136612e-01
  2.943747e+01    8.190374e-01
  2.945335e+01    8.057147e-01
  2.946922e+01    8.118862e-01
  2.948510e+01    7.906762e-01
  2.950097e+01    8.365893e-01
  2.951685e+01    8.443193e-01
  2.953272e+01    8.237524e-01
  2.954860e+01    7.930545e-01
  2.956447e+01    7.925843e-01
  2.958035e+01    7.947481e-01
  2.959623e+01    8.050298e-01
  2.961210e+01    7.983425e-01
  2.962798e+01    8.047020e-01
  2.964385e+01    7.970090e-01
  2.965973e+01    8.048308e-01
  2.967560e+01    7.929636e-01
  2.969148e+01    8.089177e-01
  2.970736e+01    7.714034e-01
  2.972323e+01    7.892665e-01
  2.973911e+01    7.893282e-01
  2.975498e+01    7.988926e-01
  2.977086e+01    7.980701e-01
  2.978673e+01    8.080215e-01
  2.980261e+01    7.980549e-01
  2.981848e+01    8.074515e-01
  2.983436e+01    7.941696e-01
  2.985024e+01    8.071183e-01
  2.986611e+01    7.885576e-01
  2.988199e+01    7.833567e-01
  2.989786e+01    7.836878e-01
  2.991374e+01    7.939631e-01
  2.992961e+01    7.943967e-01
  2.994549e+01    7.725957e-01
  2.996136e+01    7.893286e-01
  2.997724e+01    7.979882e-01
  2.999312e+01    8.175238e-01
  3.000899e+01    8.278898e-01
  3.002487e+01    8.303897e-01
  3.004074e+01    8.347683e-01
  3.005662e+01    8.306407e-01
  3.007249e+01    8.295036e-01
  3.008837e+01    8.389690e-01
  3.010424e+01    8.012995e-01
  3.012012e+01    7.826458e-01
  3.013600e+01    7.760254e-01
  3.015187e+01    7.966281e-01
  3.016775e+01    7.812697e-01
  3.018362e+01    7.719545e-01
  3.019950e+01    7.912909e-01
  3.021537e+01    7.845871e-01
  3.023125e+01    7.812448e-01
  3.024712e+01    7.996529e-01
  3.026300e+01    8.108012e-01
  3.027888e+01    7.715645e-01
  3.029475e+01    7.760299e-01
  3.031063e+01    7.987720e-01
  3.032650e+01    8.125243e-01
  3.034238e+01    8.077803e-01
  3.035825e+01    7.901497e-01
  3.037413e+01    7.898579e-01
  3.039000e+01    7.852716e-01
  3.040588e+01    7.941163e-01
  3.042176e+01    8.049530e-01
  3.043763e+01    7.921636e-01
  3.045351e+01    7.973596e-01
  3.046938e+01    7.812273e-01
  3.048526e+01    7.709389e-01
  3.050113e+01    7.732618e-01
  3.051701e+01    7.669378e-01
  3.053288e+01    8.047253e-01
  3.054876e+01    7.846991e-01
  3.056464e+01    7.872400e-01
  3.058051e+01    7.837963e-01
  3.059639e+01    7.939914e-01
  3.061226e+01    7.819363e-01
  3.062814e+01    7.846467e-01
  3.064401e+01    7.735127e-01
  3.065989e+01    7.939117e-01
  3.067577e+01    7.865735e-01
  3.069164e+01    7.809035e-01
  3.070752e+01    7.871360e-01
  3.072339e+01    7.857041e-01
  3.073927e+01    7.861481e-01
  3.075514e+01    7.954246e-01
  3.077102e+01    8.111205e-01
  3.078689e+01    7.958606e-01
  3.080277e+01    8.064971e-01
  3.081865e+01    7.975268e-01
  3.083452e+01    7.983018e-01
  3.085040e+01    7.894306e-01
  3.086627e+01    7.706980e-01
  3.088215e+01    7.972478e-01
  3.089802e+01    7.903619e-01
  3.091390e+01    7.841690e-01
  3.092977e+01    7.721153e-01
  3.094565e+01    7.689546e-01
  3.096153e+01    8.123020e-01
  3.097740e+01    7.871791e-01
  3.099328e+01    7.898971e-01
  3.100915e+01    7.741937e-01
  3.102503e+01    7.729521e-01
  3.104090e+01    7.775723e-01
  3.105678e+01    7.956852e-01
  3.107265e+01    8.017773e-01
  3.108853e+01    8.081877e-01
  3.110441e+01    8.145044e-01
  3.112028e+01    7.943944e-01
  3.113616e+01    7.877095e-01
  3.115203e+01    7.998584e-01
  3.116791e+01    8.095913e-01
  3.118378e+01    8.062312e-01
  3.119966e+01    7.937543e-01
  3.121553e+01    7.998348e-01
  3.123141e+01    7.847198e-01
  3.124729e+01    8.085295e-01
  3.126316e+01    7.951203e-01
  3.127904e+01    8.174037e-01
  3.129491e+01    8.157777e-01
  3.131079e+01    8.147177e-01
  3.132666e+01    8.157914e-01
  3.134254e+01    8.019402e-01
  3.135841e+01    8.012859e-01
  3.137429e+01    7.921149e-01
  3.139017e+01    8.040906e-01
  3.140604e+01    8.181201e-01
  3.142192e+01    8.231953e-01
  3.143779e+01    8.235118e-01
  3.145367e+01    8.045961e-01
  3.146954e+01    8.258674e-01
  3.148542e+01    8.351317e-01
  3.150129e+01    8.320396e-01
  3.151717e+01    8.375215e-01
  3.153305e+01    8.540497e-01
  3.154892e+01    8.485579e-01
  3.156480e+01    8.513644e-01
  3.158067e+01    8.647994e-01
  3.159655e+01    8.671847e-01
  3.161242e+01    8.841270e-01
  3.162830e+01    9.137049e-01
  3.164418e+01    9.423247e-01
  3.166005e+01    9.738117e-01
  3.167593e+01    9.585544e-01
  3.169180e+01    9.800769e-01
  3.170768e+01    1.028204e+00
  3.172355e+01    1.085361e+00
  3.173943e+01    1.117986e+00
  3.175530e+01    1.184839e+00
  3.177118e+01    1.267589e+00
  3.178706e+01    1.357229e+00
  3.180293e+01    1.457827e+00
  3.181881e+01    1.587735e+00
  3.183468e+01    1.695060e+00
  3.185056e+01    1.848858e+00
  3.186643e+01    1.980668e+00
  3.188231e+01    1.995161e+00
  3.189818e+01    2.061883e+00
  3.191406e+01    2.085379e+00
  3.192994e+01    2.053553e+00
  3.194581e+01    1.948609e+00
  3.196169e+01    1.809330e+00
  3.197756e+01    1.701401e+00
  3.199344e+01    1.553662e+00
  3.200931e+01    1.437770e+00
  3.202519e+01    1.331808e+00
  3.204106e+01    1.255277e+00
  3.205694e+01    1.156353e+00
  3.207282e+01    1.086910e+00
  3.208869e+01    1.060456e+00
  3.210457e+01    1.009027e+00
  3.212044e+01    9.889241e-01
  3.213632e+01    9.475924e-01
  3.215219e+01    9.128844e-01
  3.216807e+01    8.964961e-01
  3.218394e+01    8.768876e-01
  3.219982e+01    8.579141e-01
  3.221570e+01    8.431290e-01
  3.223157e+01    8.380776e-01
  3.224745e+01    8.534554e-01
  3.226332e+01    8.342332e-01
  3.227920e+01    8.161924e-01
  3.229507e+01    8.300415e-01
  3.231095e+01    8.048188e-01
  3.232682e+01    8.267422e-01
  3.234270e+01    8.257337e-01
  3.235858e+01    8.007531e-01
  3.237445e+01    7.952203e-01
  3.239033e+01    8.014371e-01
  3.240620e+01    7.910234e-01
  3.242208e+01    7.966883e-01
  3.243795e+01    7.764202e-01
  3.245383e+01    7.857623e-01
  3.246970e+01    7.974560e-01
  3.248558e+01    7.995014e-01
  3.250146e+01    7.831615e-01
  3.251733e+01    7.655389e-01
  3.253321e+01    7.515317e-01
  3.254908e+01    7.711737e-01
