# == pyFAI calibration ==
# Distance Sample to Detector: 0.3999999939076516 m
# PONI: 9.750e-02, 1.135e-01 m
# Rotations: -0.000175 0.000000 -0.000000 rad
# 
# == Fit2d calibration ==
# Distance Sample-beamCenter: 400.000 mm
# Center: x=1514.000, y=1300.000 pix
# Tilt: 0.010 deg  TiltPlanRot: 0.010 deg
# 
# Detector Detector	 Spline= None	 PixelSize= 7.500e-05, 7.500e-05 m
#    Detector has a mask: False 
#    Detector has a dark current: False 
#    detector has a flat field: False 
# 
# Wavelength: 6.888e-11 m
# Mask applied: user provided
# Dark current applied: False
# Flat field applied: False
# Polarization factor: 0.99
# Normalization factor: 1.0
# --> /home/myspot/data/2024_07_Rosario/Ru-CGO-ex/2024-07-27_003_Ru-CGO-ex_Reaction_dwell_000023_data_000152.dat
#       q_nm^-1             I 
  2.003187e-02    0.000000e+00
  3.590745e-02    6.860051e-02
  5.178302e-02    2.116616e-01
  6.765859e-02    2.577826e-01
  8.353417e-02    2.238699e-01
  9.940974e-02    1.155416e-01
  1.152853e-01    4.737504e-02
  1.311609e-01    3.847094e-02
  1.470365e-01    6.783420e-02
  1.629120e-01    3.990209e-02
  1.787876e-01    2.446911e-02
  1.946632e-01    1.986707e-02
  2.105388e-01    3.700741e-02
  2.264143e-01    2.199921e-02
  2.422899e-01    3.025105e-02
  2.581655e-01    3.937259e-02
  2.740411e-01    4.397383e-02
  2.899166e-01    2.823623e-02
  3.057922e-01    1.811942e-02
  3.216678e-01    2.968994e-02
  3.375433e-01    7.218686e-02
  3.534189e-01    1.022369e-01
  3.692945e-01    5.932750e-02
  3.851701e-01    3.241358e-02
  4.010456e-01    4.943117e-02
  4.169212e-01    2.853147e-02
  4.327968e-01    3.415097e-02
  4.486724e-01    2.598442e-02
  4.645479e-01    5.530834e-02
  4.804235e-01    6.720124e-02
  4.962991e-01    7.679737e-02
  5.121747e-01    7.611331e-02
  5.280502e-01    5.238686e-02
  5.439258e-01    3.806923e-02
  5.598014e-01    4.284882e-02
  5.756770e-01    3.759971e-02
  5.915525e-01    2.808805e-02
  6.074281e-01    1.027767e-02
  6.233037e-01    2.930592e-02
  6.391793e-01    3.982465e-02
  6.550548e-01    4.686164e-02
  6.709304e-01    5.457215e-02
  6.868060e-01    2.713955e-02
  7.026815e-01    3.227973e-02
  7.185571e-01    7.553666e-02
  7.344327e-01    7.953086e-02
  7.503083e-01    7.300073e-02
  7.661838e-01    1.068864e-01
  7.820594e-01    9.953618e-02
  7.979350e-01    1.263373e-01
  8.138106e-01    2.674816e-01
  8.296861e-01    3.204048e-01
  8.455617e-01    3.966021e-01
  8.614373e-01    3.940769e-01
  8.773129e-01    4.947996e-01
  8.931884e-01    5.364028e-01
  9.090640e-01    6.247116e-01
  9.249396e-01    6.571577e-01
  9.408152e-01    7.016302e-01
  9.566907e-01    8.324671e-01
  9.725663e-01    9.482517e-01
  9.884419e-01    1.047763e+00
  1.004317e+00    1.102159e+00
  1.020193e+00    1.148432e+00
  1.036069e+00    1.299118e+00
  1.051944e+00    1.429282e+00
  1.067820e+00    1.463055e+00
  1.083695e+00    1.447998e+00
  1.099571e+00    1.567585e+00
  1.115446e+00    1.599403e+00
  1.131322e+00    1.661627e+00
  1.147198e+00    1.664877e+00
  1.163073e+00    1.655429e+00
  1.178949e+00    1.676467e+00
  1.194824e+00    1.805599e+00
  1.210700e+00    1.936027e+00
  1.226575e+00    2.189173e+00
  1.242451e+00    2.415530e+00
  1.258327e+00    2.489682e+00
  1.274202e+00    2.635132e+00
  1.290078e+00    2.632062e+00
  1.305953e+00    2.517773e+00
  1.321829e+00    2.643471e+00
  1.337705e+00    2.768407e+00
  1.353580e+00    2.760377e+00
  1.369456e+00    2.692392e+00
  1.385331e+00    2.816758e+00
  1.401207e+00    2.862091e+00
  1.417082e+00    2.844238e+00
  1.432958e+00    2.810504e+00
  1.448834e+00    2.891625e+00
  1.464709e+00    2.958099e+00
  1.480585e+00    3.075377e+00
  1.496460e+00    3.196660e+00
  1.512336e+00    3.198777e+00
  1.528211e+00    3.094649e+00
  1.544087e+00    3.039905e+00
  1.559963e+00    3.083040e+00
  1.575838e+00    3.127184e+00
  1.591714e+00    3.179560e+00
  1.607589e+00    3.165555e+00
  1.623465e+00    3.112101e+00
  1.639340e+00    3.040892e+00
  1.655216e+00    3.091475e+00
  1.671092e+00    3.145987e+00
  1.686967e+00    2.972432e+00
  1.702843e+00    2.917001e+00
  1.718718e+00    3.065421e+00
  1.734594e+00    3.101071e+00
  1.750469e+00    3.126822e+00
  1.766345e+00    3.153110e+00
  1.782221e+00    3.191870e+00
  1.798096e+00    3.141125e+00
  1.813972e+00    3.087118e+00
  1.829847e+00    2.989729e+00
  1.845723e+00    3.100929e+00
  1.861598e+00    3.070945e+00
  1.877474e+00    3.054860e+00
  1.893350e+00    3.121093e+00
  1.909225e+00    3.020281e+00
  1.925101e+00    2.968888e+00
  1.940976e+00    3.090189e+00
  1.956852e+00    3.061774e+00
  1.972727e+00    3.052968e+00
  1.988603e+00    3.027993e+00
  2.004479e+00    3.085032e+00
  2.020354e+00    3.124035e+00
  2.036230e+00    3.160432e+00
  2.052105e+00    3.062637e+00
  2.067981e+00    3.073754e+00
  2.083856e+00    3.145617e+00
  2.099732e+00    3.214196e+00
  2.115608e+00    3.137800e+00
  2.131483e+00    3.136916e+00
  2.147359e+00    3.113408e+00
  2.163234e+00    3.038764e+00
  2.179110e+00    3.120507e+00
  2.194985e+00    3.222321e+00
  2.210861e+00    3.156542e+00
  2.226737e+00    3.070102e+00
  2.242612e+00    3.167128e+00
  2.258488e+00    3.143504e+00
  2.274363e+00    3.123942e+00
  2.290239e+00    3.091300e+00
  2.306115e+00    3.163501e+00
  2.321990e+00    3.141476e+00
  2.337866e+00    3.231656e+00
  2.353741e+00    3.183368e+00
  2.369617e+00    3.045151e+00
  2.385492e+00    3.106770e+00
  2.401368e+00    3.222712e+00
  2.417244e+00    3.217414e+00
  2.433119e+00    3.215496e+00
  2.448995e+00    3.159837e+00
  2.464870e+00    3.168663e+00
  2.480746e+00    3.115458e+00
  2.496621e+00    3.167419e+00
  2.512497e+00    3.175922e+00
  2.528373e+00    3.213306e+00
  2.544248e+00    3.255611e+00
  2.560124e+00    3.198612e+00
  2.575999e+00    3.233277e+00
  2.591875e+00    3.248059e+00
  2.607750e+00    3.129928e+00
  2.623626e+00    3.144452e+00
  2.639502e+00    3.185750e+00
  2.655377e+00    3.283521e+00
  2.671253e+00    3.225689e+00
  2.687128e+00    3.178387e+00
  2.703004e+00    3.234097e+00
  2.718879e+00    3.305096e+00
  2.734755e+00    3.363254e+00
  2.750631e+00    3.246749e+00
  2.766506e+00    3.340146e+00
  2.782382e+00    3.388128e+00
  2.798257e+00    3.268510e+00
  2.814133e+00    3.288438e+00
  2.830008e+00    3.298477e+00
  2.845884e+00    3.379602e+00
  2.861760e+00    3.255220e+00
  2.877635e+00    3.353278e+00
  2.893511e+00    3.307193e+00
  2.909386e+00    3.354039e+00
  2.925262e+00    3.259100e+00
  2.941137e+00    3.215518e+00
  2.957013e+00    3.236269e+00
  2.972889e+00    3.299115e+00
  2.988764e+00    3.346095e+00
  3.004640e+00    3.297564e+00
  3.020515e+00    3.289084e+00
  3.036391e+00    3.315650e+00
  3.052266e+00    3.358760e+00
  3.068142e+00    3.419022e+00
  3.084018e+00    3.278811e+00
  3.099893e+00    3.347088e+00
  3.115769e+00    3.336505e+00
  3.131644e+00    3.287137e+00
  3.147520e+00    3.348149e+00
  3.163395e+00    3.308648e+00
  3.179271e+00    3.324103e+00
  3.195147e+00    3.305586e+00
  3.211022e+00    3.349942e+00
  3.226898e+00    3.339052e+00
  3.242773e+00    3.328183e+00
  3.258649e+00    3.468632e+00
  3.274525e+00    3.413254e+00
  3.290400e+00    3.263183e+00
  3.306276e+00    3.319376e+00
  3.322151e+00    3.488501e+00
  3.338027e+00    3.385875e+00
  3.353902e+00    3.241880e+00
  3.369778e+00    3.277781e+00
  3.385654e+00    3.336402e+00
  3.401529e+00    3.389324e+00
  3.417405e+00    3.526761e+00
  3.433280e+00    3.446604e+00
  3.449156e+00    3.420619e+00
  3.465031e+00    3.419781e+00
  3.480907e+00    3.410306e+00
  3.496783e+00    3.295572e+00
  3.512658e+00    3.262635e+00
  3.528534e+00    3.314357e+00
  3.544409e+00    3.517161e+00
  3.560285e+00    3.418233e+00
  3.576160e+00    3.388734e+00
  3.592036e+00    3.429828e+00
  3.607912e+00    3.366597e+00
  3.623787e+00    3.376797e+00
  3.639663e+00    3.385296e+00
  3.655538e+00    3.376617e+00
  3.671414e+00    3.364481e+00
  3.687289e+00    3.409505e+00
  3.703165e+00    3.462140e+00
  3.719041e+00    3.524036e+00
  3.734916e+00    3.537073e+00
  3.750792e+00    3.489563e+00
  3.766667e+00    3.445996e+00
  3.782543e+00    3.415115e+00
  3.798418e+00    3.455749e+00
  3.814294e+00    3.487698e+00
  3.830170e+00    3.445157e+00
  3.846045e+00    3.505182e+00
  3.861921e+00    3.539980e+00
  3.877796e+00    3.515919e+00
  3.893672e+00    3.465785e+00
  3.909547e+00    3.349012e+00
  3.925423e+00    3.404467e+00
  3.941299e+00    3.512556e+00
  3.957174e+00    3.493786e+00
  3.973050e+00    3.518142e+00
  3.988925e+00    3.539256e+00
  4.004801e+00    3.510870e+00
  4.020676e+00    3.533422e+00
  4.036552e+00    3.537760e+00
  4.052428e+00    3.498921e+00
  4.068303e+00    3.517323e+00
  4.084179e+00    3.517318e+00
  4.100054e+00    3.546527e+00
  4.115930e+00    3.477206e+00
  4.131806e+00    3.484415e+00
  4.147681e+00    3.528087e+00
  4.163557e+00    3.639690e+00
  4.179432e+00    3.595414e+00
  4.195308e+00    3.515095e+00
  4.211183e+00    3.524424e+00
  4.227059e+00    3.484624e+00
  4.242935e+00    3.531258e+00
  4.258810e+00    3.576876e+00
  4.274686e+00    3.555109e+00
  4.290561e+00    3.556667e+00
  4.306437e+00    3.550511e+00
  4.322312e+00    3.579288e+00
  4.338188e+00    3.665309e+00
  4.354064e+00    3.534723e+00
  4.369939e+00    3.519470e+00
  4.385815e+00    3.645385e+00
  4.401690e+00    3.616803e+00
  4.417566e+00    3.542677e+00
  4.433441e+00    3.505445e+00
  4.449317e+00    3.619642e+00
  4.465193e+00    3.553317e+00
  4.481068e+00    3.665338e+00
  4.496944e+00    3.692109e+00
  4.512819e+00    3.579687e+00
  4.528695e+00    3.526942e+00
  4.544570e+00    3.593488e+00
  4.560446e+00    3.630427e+00
  4.576322e+00    3.694657e+00
  4.592197e+00    3.580426e+00
  4.608073e+00    3.626724e+00
  4.623948e+00    3.636920e+00
  4.639824e+00    3.664978e+00
  4.655699e+00    3.635130e+00
  4.671575e+00    3.561504e+00
  4.687451e+00    3.599764e+00
  4.703326e+00    3.645809e+00
  4.719202e+00    3.566553e+00
  4.735077e+00    3.593109e+00
  4.750953e+00    3.708254e+00
  4.766828e+00    3.614645e+00
  4.782704e+00    3.517734e+00
  4.798580e+00    3.502517e+00
  4.814455e+00    3.559950e+00
  4.830331e+00    3.533829e+00
  4.846206e+00    3.603199e+00
  4.862082e+00    3.649169e+00
  4.877957e+00    3.618749e+00
  4.893833e+00    3.612159e+00
  4.909709e+00    3.603867e+00
  4.925584e+00    3.658860e+00
  4.941460e+00    3.638436e+00
  4.957335e+00    3.582395e+00
  4.973211e+00    3.625940e+00
  4.989086e+00    3.631301e+00
  5.004962e+00    3.618276e+00
  5.020838e+00    3.641135e+00
  5.036713e+00    3.523912e+00
  5.052589e+00    3.586166e+00
  5.068464e+00    3.632970e+00
  5.084340e+00    3.674895e+00
  5.100216e+00    3.684294e+00
  5.116091e+00    3.637226e+00
  5.131967e+00    3.668670e+00
  5.147842e+00    3.694710e+00
  5.163718e+00    3.624075e+00
  5.179593e+00    3.638071e+00
  5.195469e+00    3.626979e+00
  5.211345e+00    3.712919e+00
  5.227220e+00    3.754786e+00
  5.243096e+00    3.661553e+00
  5.258971e+00    3.652928e+00
  5.274847e+00    3.697232e+00
  5.290722e+00    3.681827e+00
  5.306598e+00    3.600758e+00
  5.322474e+00    3.578721e+00
  5.338349e+00    3.661355e+00
  5.354225e+00    3.656981e+00
  5.370100e+00    3.611728e+00
  5.385976e+00    3.602169e+00
  5.401851e+00    3.615175e+00
  5.417727e+00    3.627658e+00
  5.433603e+00    3.571722e+00
  5.449478e+00    3.574300e+00
  5.465354e+00    3.467483e+00
  5.481229e+00    3.564267e+00
  5.497105e+00    3.624697e+00
  5.512980e+00    3.601236e+00
  5.528856e+00    3.592110e+00
  5.544732e+00    3.618823e+00
  5.560607e+00    3.588897e+00
  5.576483e+00    3.624238e+00
  5.592358e+00    3.552638e+00
  5.608234e+00    3.546937e+00
  5.624109e+00    3.613201e+00
  5.639985e+00    3.578626e+00
  5.655861e+00    3.643073e+00
  5.671736e+00    3.616916e+00
  5.687612e+00    3.579202e+00
  5.703487e+00    3.533118e+00
  5.719363e+00    3.586777e+00
  5.735238e+00    3.660622e+00
  5.751114e+00    3.629636e+00
  5.766990e+00    3.668244e+00
  5.782865e+00    3.602268e+00
  5.798741e+00    3.616170e+00
  5.814616e+00    3.591598e+00
  5.830492e+00    3.565177e+00
  5.846367e+00    3.436794e+00
  5.862243e+00    3.495261e+00
  5.878119e+00    3.554326e+00
  5.893994e+00    3.495521e+00
  5.909870e+00    3.525991e+00
  5.925745e+00    3.537206e+00
  5.941621e+00    3.573848e+00
  5.957497e+00    3.533283e+00
  5.973372e+00    3.499344e+00
  5.989248e+00    3.434209e+00
  6.005123e+00    3.416591e+00
  6.020999e+00    3.470033e+00
  6.036874e+00    3.456003e+00
  6.052750e+00    3.580806e+00
  6.068626e+00    3.613657e+00
  6.084501e+00    3.613624e+00
  6.100377e+00    3.581148e+00
  6.116252e+00    3.611608e+00
  6.132128e+00    3.652652e+00
  6.148003e+00    3.575305e+00
  6.163879e+00    3.521028e+00
  6.179755e+00    3.548210e+00
  6.195630e+00    3.593542e+00
  6.211506e+00    3.558113e+00
  6.227381e+00    3.558247e+00
  6.243257e+00    3.621466e+00
  6.259132e+00    3.513700e+00
  6.275008e+00    3.569663e+00
  6.290884e+00    3.532068e+00
  6.306759e+00    3.456606e+00
  6.322635e+00    3.539948e+00
  6.338510e+00    3.666053e+00
  6.354386e+00    3.569623e+00
  6.370261e+00    3.505463e+00
  6.386137e+00    3.546335e+00
  6.402013e+00    3.583356e+00
  6.417888e+00    3.585168e+00
  6.433764e+00    3.514452e+00
  6.449639e+00    3.480150e+00
  6.465515e+00    3.596552e+00
  6.481390e+00    3.579674e+00
  6.497266e+00    3.514260e+00
  6.513142e+00    3.517877e+00
  6.529017e+00    3.503144e+00
  6.544893e+00    3.467564e+00
  6.560768e+00    3.514527e+00
  6.576644e+00    3.504574e+00
  6.592519e+00    3.578101e+00
  6.608395e+00    3.624020e+00
  6.624271e+00    3.641275e+00
  6.640146e+00    3.585127e+00
  6.656022e+00    3.557787e+00
  6.671897e+00    3.511101e+00
  6.687773e+00    3.535609e+00
  6.703648e+00    3.576666e+00
  6.719524e+00    3.632976e+00
  6.735400e+00    3.623367e+00
  6.751275e+00    3.546488e+00
  6.767151e+00    3.470459e+00
  6.783026e+00    3.615314e+00
  6.798902e+00    3.566393e+00
  6.814777e+00    3.543764e+00
  6.830653e+00    3.558518e+00
  6.846529e+00    3.589556e+00
  6.862404e+00    3.586328e+00
  6.878280e+00    3.504735e+00
  6.894155e+00    3.461189e+00
  6.910031e+00    3.421933e+00
  6.925907e+00    3.480100e+00
  6.941782e+00    3.497734e+00
  6.957658e+00    3.546140e+00
  6.973533e+00    3.636303e+00
  6.989409e+00    3.576088e+00
  7.005284e+00    3.532873e+00
  7.021160e+00    3.512607e+00
  7.037036e+00    3.520214e+00
  7.052911e+00    3.532394e+00
  7.068787e+00    3.543106e+00
  7.084662e+00    3.507222e+00
  7.100538e+00    3.542784e+00
  7.116413e+00    3.465524e+00
  7.132289e+00    3.442765e+00
  7.148165e+00    3.508079e+00
  7.164040e+00    3.549144e+00
  7.179916e+00    3.500683e+00
  7.195791e+00    3.524569e+00
  7.211667e+00    3.552834e+00
  7.227542e+00    3.520200e+00
  7.243418e+00    3.555960e+00
  7.259294e+00    3.515812e+00
  7.275169e+00    3.481265e+00
  7.291045e+00    3.480937e+00
  7.306920e+00    3.532442e+00
  7.322796e+00    3.564098e+00
  7.338671e+00    3.485255e+00
  7.354547e+00    3.448912e+00
  7.370423e+00    3.423912e+00
  7.386298e+00    3.449849e+00
  7.402174e+00    3.423828e+00
  7.418049e+00    3.457911e+00
  7.433925e+00    3.459204e+00
  7.449800e+00    3.530613e+00
  7.465676e+00    3.561188e+00
  7.481552e+00    3.531416e+00
  7.497427e+00    3.535822e+00
  7.513303e+00    3.410912e+00
  7.529178e+00    3.431880e+00
  7.545054e+00    3.458737e+00
  7.560929e+00    3.482408e+00
  7.576805e+00    3.468341e+00
  7.592681e+00    3.438131e+00
  7.608556e+00    3.398604e+00
  7.624432e+00    3.445343e+00
  7.640307e+00    3.517725e+00
  7.656183e+00    3.423958e+00
  7.672058e+00    3.410090e+00
  7.687934e+00    3.463161e+00
  7.703810e+00    3.420281e+00
  7.719685e+00    3.389302e+00
  7.735561e+00    3.436685e+00
  7.751436e+00    3.464405e+00
  7.767312e+00    3.462343e+00
  7.783187e+00    3.488247e+00
  7.799063e+00    3.480919e+00
  7.814939e+00    3.415091e+00
  7.830814e+00    3.421108e+00
  7.846690e+00    3.427704e+00
  7.862565e+00    3.354898e+00
  7.878441e+00    3.387447e+00
  7.894317e+00    3.408489e+00
  7.910192e+00    3.368026e+00
  7.926068e+00    3.375046e+00
  7.941943e+00    3.424234e+00
  7.957819e+00    3.438632e+00
  7.973694e+00    3.420005e+00
  7.989570e+00    3.479374e+00
  8.005446e+00    3.443231e+00
  8.021321e+00    3.456820e+00
  8.037197e+00    3.458083e+00
  8.053072e+00    3.445981e+00
  8.068948e+00    3.411345e+00
  8.084823e+00    3.409891e+00
  8.100699e+00    3.433747e+00
  8.116575e+00    3.449026e+00
  8.132450e+00    3.435386e+00
  8.148326e+00    3.446774e+00
  8.164201e+00    3.429062e+00
  8.180077e+00    3.475210e+00
  8.195952e+00    3.410419e+00
  8.211828e+00    3.452876e+00
  8.227704e+00    3.520727e+00
  8.243579e+00    3.466614e+00
  8.259455e+00    3.429589e+00
  8.275330e+00    3.422300e+00
  8.291206e+00    3.353410e+00
  8.307081e+00    3.380994e+00
  8.322957e+00    3.392392e+00
  8.338833e+00    3.353186e+00
  8.354708e+00    3.426354e+00
  8.370584e+00    3.323092e+00
  8.386459e+00    3.372178e+00
  8.402335e+00    3.346070e+00
  8.418210e+00    3.389569e+00
  8.434086e+00    3.374049e+00
  8.449962e+00    3.327493e+00
  8.465837e+00    3.323339e+00
  8.481713e+00    3.343542e+00
  8.497588e+00    3.450015e+00
  8.513464e+00    3.372665e+00
  8.529339e+00    3.366096e+00
  8.545215e+00    3.346358e+00
  8.561091e+00    3.347671e+00
  8.576966e+00    3.278018e+00
  8.592842e+00    3.316720e+00
  8.608717e+00    3.342013e+00
  8.624593e+00    3.317805e+00
  8.640468e+00    3.327816e+00
  8.656344e+00    3.294502e+00
  8.672220e+00    3.305751e+00
  8.688095e+00    3.295846e+00
  8.703971e+00    3.324827e+00
  8.719846e+00    3.290004e+00
  8.735722e+00    3.278596e+00
  8.751598e+00    3.354607e+00
  8.767473e+00    3.317722e+00
  8.783349e+00    3.292358e+00
  8.799224e+00    3.299561e+00
  8.815100e+00    3.328185e+00
  8.830975e+00    3.276958e+00
  8.846851e+00    3.277253e+00
  8.862727e+00    3.267426e+00
  8.878602e+00    3.299009e+00
  8.894478e+00    3.367930e+00
  8.910353e+00    3.338556e+00
  8.926229e+00    3.317976e+00
  8.942104e+00    3.272597e+00
  8.957980e+00    3.250713e+00
  8.973856e+00    3.320463e+00
  8.989731e+00    3.328983e+00
  9.005607e+00    3.292964e+00
  9.021482e+00    3.281612e+00
  9.037358e+00    3.216077e+00
  9.053233e+00    3.231444e+00
  9.069109e+00    3.290476e+00
  9.084985e+00    3.256845e+00
  9.100860e+00    3.278283e+00
  9.116736e+00    3.279302e+00
  9.132611e+00    3.250469e+00
  9.148487e+00    3.324921e+00
  9.164362e+00    3.289469e+00
  9.180238e+00    3.244099e+00
  9.196114e+00    3.197067e+00
  9.211989e+00    3.279224e+00
  9.227865e+00    3.273252e+00
  9.243740e+00    3.268362e+00
  9.259616e+00    3.205634e+00
  9.275491e+00    3.203129e+00
  9.291367e+00    3.212379e+00
  9.307243e+00    3.209886e+00
  9.323118e+00    3.238172e+00
  9.338994e+00    3.217881e+00
  9.354869e+00    3.232720e+00
  9.370745e+00    3.156999e+00
  9.386620e+00    3.158369e+00
  9.402496e+00    3.204789e+00
  9.418372e+00    3.239788e+00
  9.434247e+00    3.234986e+00
  9.450123e+00    3.250880e+00
  9.465998e+00    3.250673e+00
  9.481874e+00    3.222003e+00
  9.497749e+00    3.150898e+00
  9.513625e+00    3.189335e+00
  9.529501e+00    3.235839e+00
  9.545376e+00    3.202803e+00
  9.561252e+00    3.217759e+00
  9.577127e+00    3.170978e+00
  9.593003e+00    3.215665e+00
  9.608878e+00    3.181143e+00
  9.624754e+00    3.180373e+00
  9.640630e+00    3.230684e+00
  9.656505e+00    3.271772e+00
  9.672381e+00    3.217315e+00
  9.688256e+00    3.191689e+00
  9.704132e+00    3.167166e+00
  9.720008e+00    3.151588e+00
  9.735883e+00    3.159680e+00
  9.751759e+00    3.210460e+00
  9.767634e+00    3.222063e+00
  9.783510e+00    3.129590e+00
  9.799385e+00    3.180602e+00
  9.815261e+00    3.184381e+00
  9.831137e+00    3.106881e+00
  9.847012e+00    3.104111e+00
  9.862888e+00    3.134274e+00
  9.878763e+00    3.149635e+00
  9.894639e+00    3.153746e+00
  9.910514e+00    3.121270e+00
  9.926390e+00    3.097420e+00
  9.942266e+00    3.097262e+00
  9.958141e+00    3.105399e+00
  9.974017e+00    3.139214e+00
  9.989892e+00    3.175985e+00
  1.000577e+01    3.160223e+00
  1.002164e+01    3.119616e+00
  1.003752e+01    3.064349e+00
  1.005339e+01    3.073981e+00
  1.006927e+01    3.101055e+00
  1.008515e+01    3.096601e+00
  1.010102e+01    3.099176e+00
  1.011690e+01    3.127846e+00
  1.013277e+01    3.118149e+00
  1.014865e+01    3.086185e+00
  1.016452e+01    3.097164e+00
  1.018040e+01    3.098505e+00
  1.019627e+01    3.081697e+00
  1.021215e+01    3.040150e+00
  1.022803e+01    3.022181e+00
  1.024390e+01    3.016076e+00
  1.025978e+01    3.046770e+00
  1.027565e+01    3.057558e+00
  1.029153e+01    3.050407e+00
  1.030740e+01    3.042414e+00
  1.032328e+01    3.007884e+00
  1.033915e+01    3.003348e+00
  1.035503e+01    3.111953e+00
  1.037091e+01    3.099144e+00
  1.038678e+01    3.069190e+00
  1.040266e+01    3.047580e+00
  1.041853e+01    3.020091e+00
  1.043441e+01    3.005793e+00
  1.045028e+01    3.039243e+00
  1.046616e+01    3.001964e+00
  1.048204e+01    3.016117e+00
  1.049791e+01    3.030896e+00
  1.051379e+01    3.037410e+00
  1.052966e+01    2.997552e+00
  1.054554e+01    3.015141e+00
  1.056141e+01    2.997862e+00
  1.057729e+01    2.994678e+00
  1.059316e+01    3.025299e+00
  1.060904e+01    2.968109e+00
  1.062492e+01    2.959193e+00
  1.064079e+01    2.952230e+00
  1.065667e+01    2.978135e+00
  1.067254e+01    3.024124e+00
  1.068842e+01    3.017782e+00
  1.070429e+01    2.983513e+00
  1.072017e+01    3.006241e+00
  1.073604e+01    2.949975e+00
  1.075192e+01    2.958112e+00
  1.076780e+01    2.953243e+00
  1.078367e+01    2.972561e+00
  1.079955e+01    2.896417e+00
  1.081542e+01    2.896983e+00
  1.083130e+01    2.893084e+00
  1.084717e+01    2.948019e+00
  1.086305e+01    2.917448e+00
  1.087892e+01    2.929198e+00
  1.089480e+01    2.942388e+00
  1.091068e+01    2.925025e+00
  1.092655e+01    2.920521e+00
  1.094243e+01    2.880636e+00
  1.095830e+01    2.910924e+00
  1.097418e+01    2.882607e+00
  1.099005e+01    2.918191e+00
  1.100593e+01    2.962648e+00
  1.102180e+01    2.933656e+00
  1.103768e+01    2.879890e+00
  1.105356e+01    2.886656e+00
  1.106943e+01    2.832981e+00
  1.108531e+01    2.853274e+00
  1.110118e+01    2.918236e+00
  1.111706e+01    2.867802e+00
  1.113293e+01    2.868446e+00
  1.114881e+01    2.826330e+00
  1.116468e+01    2.865072e+00
  1.118056e+01    2.898774e+00
  1.119644e+01    2.871719e+00
  1.121231e+01    2.858148e+00
  1.122819e+01    2.850420e+00
  1.124406e+01    2.848143e+00
  1.125994e+01    2.837987e+00
  1.127581e+01    2.822764e+00
  1.129169e+01    2.824889e+00
  1.130756e+01    2.830219e+00
  1.132344e+01    2.859714e+00
  1.133932e+01    2.803755e+00
  1.135519e+01    2.784913e+00
  1.137107e+01    2.813560e+00
  1.138694e+01    2.792393e+00
  1.140282e+01    2.791496e+00
  1.141869e+01    2.817068e+00
  1.143457e+01    2.810300e+00
  1.145045e+01    2.800684e+00
  1.146632e+01    2.784921e+00
  1.148220e+01    2.771229e+00
  1.149807e+01    2.739841e+00
  1.151395e+01    2.744288e+00
  1.152982e+01    2.779763e+00
  1.154570e+01    2.808277e+00
  1.156157e+01    2.797154e+00
  1.157745e+01    2.792758e+00
  1.159333e+01    2.800628e+00
  1.160920e+01    2.760883e+00
  1.162508e+01    2.756338e+00
  1.164095e+01    2.726543e+00
  1.165683e+01    2.714902e+00
  1.167270e+01    2.786353e+00
  1.168858e+01    2.766207e+00
  1.170445e+01    2.753350e+00
  1.172033e+01    2.716747e+00
  1.173621e+01    2.708555e+00
  1.175208e+01    2.762288e+00
  1.176796e+01    2.765712e+00
  1.178383e+01    2.758307e+00
  1.179971e+01    2.742267e+00
  1.181558e+01    2.709342e+00
  1.183146e+01    2.711565e+00
  1.184733e+01    2.671692e+00
  1.186321e+01    2.702960e+00
  1.187909e+01    2.717376e+00
  1.189496e+01    2.732654e+00
  1.191084e+01    2.698726e+00
  1.192671e+01    2.669308e+00
  1.194259e+01    2.671306e+00
  1.195846e+01    2.735485e+00
  1.197434e+01    2.692201e+00
  1.199021e+01    2.712352e+00
  1.200609e+01    2.684548e+00
  1.202197e+01    2.685981e+00
  1.203784e+01    2.681334e+00
  1.205372e+01    2.706606e+00
  1.206959e+01    2.703108e+00
  1.208547e+01    2.657034e+00
  1.210134e+01    2.660590e+00
  1.211722e+01    2.696630e+00
  1.213309e+01    2.673913e+00
  1.214897e+01    2.666001e+00
  1.216485e+01    2.645847e+00
  1.218072e+01    2.625368e+00
  1.219660e+01    2.657872e+00
  1.221247e+01    2.711244e+00
  1.222835e+01    2.734394e+00
  1.224422e+01    2.713198e+00
  1.226010e+01    2.652902e+00
  1.227597e+01    2.621943e+00
  1.229185e+01    2.653409e+00
  1.230773e+01    2.642277e+00
  1.232360e+01    2.680772e+00
  1.233948e+01    2.691177e+00
  1.235535e+01    2.678248e+00
  1.237123e+01    2.705005e+00
  1.238710e+01    2.688686e+00
  1.240298e+01    2.663512e+00
  1.241886e+01    2.663912e+00
  1.243473e+01    2.693446e+00
  1.245061e+01    2.661703e+00
  1.246648e+01    2.659234e+00
  1.248236e+01    2.709022e+00
  1.249823e+01    2.690498e+00
  1.251411e+01    2.749297e+00
  1.252998e+01    2.755244e+00
  1.254586e+01    2.741281e+00
  1.256174e+01    2.704432e+00
  1.257761e+01    2.748198e+00
  1.259349e+01    2.698012e+00
  1.260936e+01    2.666260e+00
  1.262524e+01    2.778171e+00
  1.264111e+01    2.771797e+00
  1.265699e+01    2.755655e+00
  1.267286e+01    2.739674e+00
  1.268874e+01    2.779270e+00
  1.270462e+01    2.787643e+00
  1.272049e+01    2.837265e+00
  1.273637e+01    2.841339e+00
  1.275224e+01    2.899959e+00
  1.276812e+01    2.924863e+00
  1.278399e+01    2.978656e+00
  1.279987e+01    3.003211e+00
  1.281574e+01    3.030143e+00
  1.283162e+01    3.078134e+00
  1.284750e+01    3.121130e+00
  1.286337e+01    3.227625e+00
  1.287925e+01    3.345380e+00
  1.289512e+01    3.481025e+00
  1.291100e+01    3.645715e+00
  1.292687e+01    3.911764e+00
  1.294275e+01    4.081723e+00
  1.295862e+01    4.347726e+00
  1.297450e+01    4.760583e+00
  1.299038e+01    5.228698e+00
  1.300625e+01    5.813710e+00
  1.302213e+01    6.683042e+00
  1.303800e+01    7.650851e+00
  1.305388e+01    8.850417e+00
  1.306975e+01    1.019885e+01
  1.308563e+01    1.148254e+01
  1.310150e+01    1.271894e+01
  1.311738e+01    1.374162e+01
  1.313326e+01    1.467290e+01
  1.314913e+01    1.547958e+01
  1.316501e+01    1.614388e+01
  1.318088e+01    1.620744e+01
  1.319676e+01    1.551724e+01
  1.321263e+01    1.423835e+01
  1.322851e+01    1.256463e+01
  1.324438e+01    1.063528e+01
  1.326026e+01    9.020235e+00
  1.327614e+01    7.711383e+00
  1.329201e+01    6.657763e+00
  1.330789e+01    5.868179e+00
  1.332376e+01    5.277881e+00
  1.333964e+01    4.777864e+00
  1.335551e+01    4.415847e+00
  1.337139e+01    4.127546e+00
  1.338727e+01    3.826308e+00
  1.340314e+01    3.638369e+00
  1.341902e+01    3.503740e+00
  1.343489e+01    3.336885e+00
  1.345077e+01    3.207654e+00
  1.346664e+01    3.133022e+00
  1.348252e+01    3.008672e+00
  1.349839e+01    2.967192e+00
  1.351427e+01    2.917461e+00
  1.353015e+01    2.846127e+00
  1.354602e+01    2.792302e+00
  1.356190e+01    2.765760e+00
  1.357777e+01    2.725812e+00
  1.359365e+01    2.650304e+00
  1.360952e+01    2.634544e+00
  1.362540e+01    2.636304e+00
  1.364127e+01    2.596935e+00
  1.365715e+01    2.597379e+00
  1.367303e+01    2.582937e+00
  1.368890e+01    2.549662e+00
  1.370478e+01    2.539587e+00
  1.372065e+01    2.548732e+00
  1.373653e+01    2.515186e+00
  1.375240e+01    2.477898e+00
  1.376828e+01    2.494370e+00
  1.378415e+01    2.471484e+00
  1.380003e+01    2.494152e+00
  1.381591e+01    2.467128e+00
  1.383178e+01    2.428319e+00
  1.384766e+01    2.416783e+00
  1.386353e+01    2.435426e+00
  1.387941e+01    2.446621e+00
  1.389528e+01    2.441020e+00
  1.391116e+01    2.415616e+00
  1.392703e+01    2.437342e+00
  1.394291e+01    2.372107e+00
  1.395879e+01    2.361146e+00
  1.397466e+01    2.385771e+00
  1.399054e+01    2.390983e+00
  1.400641e+01    2.389295e+00
  1.402229e+01    2.356453e+00
  1.403816e+01    2.306769e+00
  1.405404e+01    2.303305e+00
  1.406991e+01    2.330381e+00
  1.408579e+01    2.289536e+00
  1.410167e+01    2.291226e+00
  1.411754e+01    2.325264e+00
  1.413342e+01    2.319936e+00
  1.414929e+01    2.290427e+00
  1.416517e+01    2.322157e+00
  1.418104e+01    2.297533e+00
  1.419692e+01    2.270844e+00
  1.421279e+01    2.264771e+00
  1.422867e+01    2.246641e+00
  1.424455e+01    2.306178e+00
  1.426042e+01    2.305218e+00
  1.427630e+01    2.283334e+00
  1.429217e+01    2.276231e+00
  1.430805e+01    2.288676e+00
  1.432392e+01    2.260671e+00
  1.433980e+01    2.233434e+00
  1.435568e+01    2.202963e+00
  1.437155e+01    2.228347e+00
  1.438743e+01    2.241676e+00
  1.440330e+01    2.284425e+00
  1.441918e+01    2.270960e+00
  1.443505e+01    2.213025e+00
  1.445093e+01    2.248010e+00
  1.446680e+01    2.247729e+00
  1.448268e+01    2.221510e+00
  1.449856e+01    2.210634e+00
  1.451443e+01    2.176861e+00
  1.453031e+01    2.180200e+00
  1.454618e+01    2.222678e+00
  1.456206e+01    2.226459e+00
  1.457793e+01    2.206404e+00
  1.459381e+01    2.201319e+00
  1.460968e+01    2.198969e+00
  1.462556e+01    2.174987e+00
  1.464144e+01    2.190952e+00
  1.465731e+01    2.153649e+00
  1.467319e+01    2.171390e+00
  1.468906e+01    2.159784e+00
  1.470494e+01    2.183440e+00
  1.472081e+01    2.217468e+00
  1.473669e+01    2.189616e+00
  1.475256e+01    2.167052e+00
  1.476844e+01    2.220160e+00
  1.478432e+01    2.212873e+00
  1.480019e+01    2.178732e+00
  1.481607e+01    2.205403e+00
  1.483194e+01    2.210469e+00
  1.484782e+01    2.226884e+00
  1.486369e+01    2.219506e+00
  1.487957e+01    2.181931e+00
  1.489544e+01    2.206690e+00
  1.491132e+01    2.220809e+00
  1.492720e+01    2.251084e+00
  1.494307e+01    2.324178e+00
  1.495895e+01    2.326792e+00
  1.497482e+01    2.321783e+00
  1.499070e+01    2.375171e+00
  1.500657e+01    2.457138e+00
  1.502245e+01    2.482091e+00
  1.503832e+01    2.568371e+00
  1.505420e+01    2.667081e+00
  1.507008e+01    2.795976e+00
  1.508595e+01    2.975742e+00
  1.510183e+01    3.182544e+00
  1.511770e+01    3.440060e+00
  1.513358e+01    3.737045e+00
  1.514945e+01    4.086774e+00
  1.516533e+01    4.460338e+00
  1.518120e+01    4.853186e+00
  1.519708e+01    5.126401e+00
  1.521296e+01    5.414237e+00
  1.522883e+01    5.520482e+00
  1.524471e+01    5.688828e+00
  1.526058e+01    5.853283e+00
  1.527646e+01    5.794970e+00
  1.529233e+01    5.499856e+00
  1.530821e+01    5.088323e+00
  1.532409e+01    4.622424e+00
  1.533996e+01    4.207647e+00
  1.535584e+01    3.717953e+00
  1.537171e+01    3.363845e+00
  1.538759e+01    3.116582e+00
  1.540346e+01    2.886208e+00
  1.541934e+01    2.716994e+00
  1.543521e+01    2.590456e+00
  1.545109e+01    2.527962e+00
  1.546697e+01    2.386845e+00
  1.548284e+01    2.301425e+00
  1.549872e+01    2.296424e+00
  1.551459e+01    2.254406e+00
  1.553047e+01    2.200719e+00
  1.554634e+01    2.155035e+00
  1.556222e+01    2.120903e+00
  1.557809e+01    2.155910e+00
  1.559397e+01    2.121291e+00
  1.560985e+01    2.045129e+00
  1.562572e+01    2.036965e+00
  1.564160e+01    2.034678e+00
  1.565747e+01    2.030125e+00
  1.567335e+01    2.000362e+00
  1.568922e+01    1.979467e+00
  1.570510e+01    1.994160e+00
  1.572097e+01    1.988837e+00
  1.573685e+01    1.989548e+00
  1.575273e+01    1.984688e+00
  1.576860e+01    1.987197e+00
  1.578448e+01    1.917711e+00
  1.580035e+01    1.942439e+00
  1.581623e+01    1.944325e+00
  1.583210e+01    1.930781e+00
  1.584798e+01    1.905790e+00
  1.586385e+01    1.897107e+00
  1.587973e+01    1.905891e+00
  1.589561e+01    1.904285e+00
  1.591148e+01    1.897603e+00
  1.592736e+01    1.857195e+00
  1.594323e+01    1.884946e+00
  1.595911e+01    1.833159e+00
  1.597498e+01    1.841522e+00
  1.599086e+01    1.858639e+00
  1.600673e+01    1.839700e+00
  1.602261e+01    1.859058e+00
  1.603849e+01    1.834480e+00
  1.605436e+01    1.888226e+00
  1.607024e+01    1.866329e+00
  1.608611e+01    1.825580e+00
  1.610199e+01    1.809614e+00
  1.611786e+01    1.820806e+00
  1.613374e+01    1.804373e+00
  1.614961e+01    1.819667e+00
  1.616549e+01    1.801592e+00
  1.618137e+01    1.809051e+00
  1.619724e+01    1.816820e+00
  1.621312e+01    1.830632e+00
  1.622899e+01    1.837040e+00
  1.624487e+01    1.823646e+00
  1.626074e+01    1.804452e+00
  1.627662e+01    1.787016e+00
  1.629250e+01    1.789325e+00
  1.630837e+01    1.784639e+00
  1.632425e+01    1.784480e+00
  1.634012e+01    1.771598e+00
  1.635600e+01    1.832468e+00
  1.637187e+01    1.807506e+00
  1.638775e+01    1.736294e+00
  1.640362e+01    1.760889e+00
  1.641950e+01    1.781360e+00
  1.643538e+01    1.787103e+00
  1.645125e+01    1.755957e+00
  1.646713e+01    1.761237e+00
  1.648300e+01    1.801518e+00
  1.649888e+01    1.796809e+00
  1.651475e+01    1.729519e+00
  1.653063e+01    1.748815e+00
  1.654650e+01    1.730219e+00
  1.656238e+01    1.736682e+00
  1.657826e+01    1.772843e+00
  1.659413e+01    1.745402e+00
  1.661001e+01    1.726298e+00
  1.662588e+01    1.738847e+00
  1.664176e+01    1.718705e+00
  1.665763e+01    1.698053e+00
  1.667351e+01    1.683653e+00
  1.668938e+01    1.718780e+00
  1.670526e+01    1.702213e+00
  1.672114e+01    1.724788e+00
  1.673701e+01    1.714832e+00
  1.675289e+01    1.714368e+00
  1.676876e+01    1.703773e+00
  1.678464e+01    1.706783e+00
  1.680051e+01    1.712388e+00
  1.681639e+01    1.727208e+00
  1.683226e+01    1.714889e+00
  1.684814e+01    1.666888e+00
  1.686402e+01    1.673565e+00
  1.687989e+01    1.690078e+00
  1.689577e+01    1.683020e+00
  1.691164e+01    1.679846e+00
  1.692752e+01    1.666955e+00
  1.694339e+01    1.657884e+00
  1.695927e+01    1.659321e+00
  1.697514e+01    1.662247e+00
  1.699102e+01    1.656004e+00
  1.700690e+01    1.648527e+00
  1.702277e+01    1.645565e+00
  1.703865e+01    1.648288e+00
  1.705452e+01    1.621552e+00
  1.707040e+01    1.638497e+00
  1.708627e+01    1.651818e+00
  1.710215e+01    1.646391e+00
  1.711802e+01    1.665694e+00
  1.713390e+01    1.644163e+00
  1.714978e+01    1.597662e+00
  1.716565e+01    1.620247e+00
  1.718153e+01    1.585322e+00
  1.719740e+01    1.640813e+00
  1.721328e+01    1.668521e+00
  1.722915e+01    1.624699e+00
  1.724503e+01    1.594746e+00
  1.726091e+01    1.593936e+00
  1.727678e+01    1.598988e+00
  1.729266e+01    1.605972e+00
  1.730853e+01    1.615616e+00
  1.732441e+01    1.607097e+00
  1.734028e+01    1.588551e+00
  1.735616e+01    1.598839e+00
  1.737203e+01    1.628757e+00
  1.738791e+01    1.621780e+00
  1.740379e+01    1.609693e+00
  1.741966e+01    1.578613e+00
  1.743554e+01    1.590620e+00
  1.745141e+01    1.618091e+00
  1.746729e+01    1.608121e+00
  1.748316e+01    1.604008e+00
  1.749904e+01    1.561906e+00
  1.751491e+01    1.579175e+00
  1.753079e+01    1.562313e+00
  1.754667e+01    1.567439e+00
  1.756254e+01    1.557326e+00
  1.757842e+01    1.561439e+00
  1.759429e+01    1.573478e+00
  1.761017e+01    1.599136e+00
  1.762604e+01    1.595314e+00
  1.764192e+01    1.552427e+00
  1.765779e+01    1.536980e+00
  1.767367e+01    1.519757e+00
  1.768955e+01    1.541953e+00
  1.770542e+01    1.553242e+00
  1.772130e+01    1.524158e+00
  1.773717e+01    1.523673e+00
  1.775305e+01    1.550762e+00
  1.776892e+01    1.540751e+00
  1.778480e+01    1.543429e+00
  1.780067e+01    1.534300e+00
  1.781655e+01    1.519732e+00
  1.783243e+01    1.518512e+00
  1.784830e+01    1.552457e+00
  1.786418e+01    1.539101e+00
  1.788005e+01    1.516650e+00
  1.789593e+01    1.521793e+00
  1.791180e+01    1.541323e+00
  1.792768e+01    1.476826e+00
  1.794355e+01    1.507124e+00
  1.795943e+01    1.527923e+00
  1.797531e+01    1.529649e+00
  1.799118e+01    1.511472e+00
  1.800706e+01    1.544636e+00
  1.802293e+01    1.497159e+00
  1.803881e+01    1.485509e+00
  1.805468e+01    1.528762e+00
  1.807056e+01    1.521661e+00
  1.808643e+01    1.527882e+00
  1.810231e+01    1.528002e+00
  1.811819e+01    1.512852e+00
  1.813406e+01    1.487455e+00
  1.814994e+01    1.484548e+00
  1.816581e+01    1.499506e+00
  1.818169e+01    1.488923e+00
  1.819756e+01    1.482051e+00
  1.821344e+01    1.489487e+00
  1.822932e+01    1.469286e+00
  1.824519e+01    1.459592e+00
  1.826107e+01    1.460363e+00
  1.827694e+01    1.454530e+00
  1.829282e+01    1.472802e+00
  1.830869e+01    1.484393e+00
  1.832457e+01    1.483264e+00
  1.834044e+01    1.474879e+00
  1.835632e+01    1.456599e+00
  1.837220e+01    1.459367e+00
  1.838807e+01    1.487629e+00
  1.840395e+01    1.475074e+00
  1.841982e+01    1.475908e+00
  1.843570e+01    1.475463e+00
  1.845157e+01    1.462436e+00
  1.846745e+01    1.471634e+00
  1.848332e+01    1.447373e+00
  1.849920e+01    1.441087e+00
  1.851508e+01    1.419960e+00
  1.853095e+01    1.438652e+00
  1.854683e+01    1.435811e+00
  1.856270e+01    1.433614e+00
  1.857858e+01    1.436767e+00
  1.859445e+01    1.419471e+00
  1.861033e+01    1.432374e+00
  1.862620e+01    1.432608e+00
  1.864208e+01    1.437935e+00
  1.865796e+01    1.443338e+00
  1.867383e+01    1.427042e+00
  1.868971e+01    1.416742e+00
  1.870558e+01    1.400061e+00
  1.872146e+01    1.408822e+00
  1.873733e+01    1.435254e+00
  1.875321e+01    1.422685e+00
  1.876908e+01    1.404002e+00
  1.878496e+01    1.414412e+00
  1.880084e+01    1.403767e+00
  1.881671e+01    1.398917e+00
  1.883259e+01    1.400163e+00
  1.884846e+01    1.387375e+00
  1.886434e+01    1.389217e+00
  1.888021e+01    1.388531e+00
  1.889609e+01    1.412997e+00
  1.891196e+01    1.397798e+00
  1.892784e+01    1.374683e+00
  1.894372e+01    1.383515e+00
  1.895959e+01    1.386741e+00
  1.897547e+01    1.368283e+00
  1.899134e+01    1.361502e+00
  1.900722e+01    1.334488e+00
  1.902309e+01    1.339375e+00
  1.903897e+01    1.382203e+00
  1.905484e+01    1.367648e+00
  1.907072e+01    1.386000e+00
  1.908660e+01    1.373753e+00
  1.910247e+01    1.366708e+00
  1.911835e+01    1.375686e+00
  1.913422e+01    1.377779e+00
  1.915010e+01    1.353586e+00
  1.916597e+01    1.377217e+00
  1.918185e+01    1.363143e+00
  1.919773e+01    1.375678e+00
  1.921360e+01    1.356351e+00
  1.922948e+01    1.357666e+00
  1.924535e+01    1.386250e+00
  1.926123e+01    1.358585e+00
  1.927710e+01    1.353262e+00
  1.929298e+01    1.340311e+00
  1.930885e+01    1.361724e+00
  1.932473e+01    1.346737e+00
  1.934061e+01    1.367390e+00
  1.935648e+01    1.346043e+00
  1.937236e+01    1.349047e+00
  1.938823e+01    1.353397e+00
  1.940411e+01    1.349861e+00
  1.941998e+01    1.352277e+00
  1.943586e+01    1.335048e+00
  1.945173e+01    1.334411e+00
  1.946761e+01    1.325890e+00
  1.948349e+01    1.357647e+00
  1.949936e+01    1.366251e+00
  1.951524e+01    1.317991e+00
  1.953111e+01    1.326952e+00
  1.954699e+01    1.321548e+00
  1.956286e+01    1.301498e+00
  1.957874e+01    1.314882e+00
  1.959461e+01    1.309904e+00
  1.961049e+01    1.315871e+00
  1.962637e+01    1.318684e+00
  1.964224e+01    1.320014e+00
  1.965812e+01    1.309422e+00
  1.967399e+01    1.309387e+00
  1.968987e+01    1.297863e+00
  1.970574e+01    1.319028e+00
  1.972162e+01    1.333892e+00
  1.973749e+01    1.294473e+00
  1.975337e+01    1.279085e+00
  1.976925e+01    1.308497e+00
  1.978512e+01    1.295989e+00
  1.980100e+01    1.295588e+00
  1.981687e+01    1.285500e+00
  1.983275e+01    1.293027e+00
  1.984862e+01    1.311864e+00
  1.986450e+01    1.283860e+00
  1.988037e+01    1.286263e+00
  1.989625e+01    1.293920e+00
  1.991213e+01    1.285583e+00
  1.992800e+01    1.296955e+00
  1.994388e+01    1.290280e+00
  1.995975e+01    1.290816e+00
  1.997563e+01    1.266269e+00
  1.999150e+01    1.267125e+00
  2.000738e+01    1.276138e+00
  2.002325e+01    1.269115e+00
  2.003913e+01    1.276021e+00
  2.005501e+01    1.252814e+00
  2.007088e+01    1.262871e+00
  2.008676e+01    1.277338e+00
  2.010263e+01    1.258630e+00
  2.011851e+01    1.246603e+00
  2.013438e+01    1.260152e+00
  2.015026e+01    1.264763e+00
  2.016614e+01    1.259709e+00
  2.018201e+01    1.258684e+00
  2.019789e+01    1.246123e+00
  2.021376e+01    1.281034e+00
  2.022964e+01    1.274796e+00
  2.024551e+01    1.250973e+00
  2.026139e+01    1.236397e+00
  2.027726e+01    1.242833e+00
  2.029314e+01    1.251380e+00
  2.030902e+01    1.250978e+00
  2.032489e+01    1.259496e+00
  2.034077e+01    1.243673e+00
  2.035664e+01    1.277463e+00
  2.037252e+01    1.250739e+00
  2.038839e+01    1.241400e+00
  2.040427e+01    1.250557e+00
  2.042014e+01    1.255100e+00
  2.043602e+01    1.246799e+00
  2.045190e+01    1.248937e+00
  2.046777e+01    1.248388e+00
  2.048365e+01    1.263397e+00
  2.049952e+01    1.254472e+00
  2.051540e+01    1.239209e+00
  2.053127e+01    1.218289e+00
  2.054715e+01    1.196140e+00
  2.056302e+01    1.216559e+00
  2.057890e+01    1.221947e+00
  2.059478e+01    1.232766e+00
  2.061065e+01    1.233320e+00
  2.062653e+01    1.232886e+00
  2.064240e+01    1.215830e+00
  2.065828e+01    1.250757e+00
  2.067415e+01    1.213579e+00
  2.069003e+01    1.209967e+00
  2.070590e+01    1.235279e+00
  2.072178e+01    1.221258e+00
  2.073766e+01    1.223770e+00
  2.075353e+01    1.204395e+00
  2.076941e+01    1.202553e+00
  2.078528e+01    1.208237e+00
  2.080116e+01    1.200240e+00
  2.081703e+01    1.194075e+00
  2.083291e+01    1.216283e+00
  2.084878e+01    1.195904e+00
  2.086466e+01    1.247268e+00
  2.088054e+01    1.245488e+00
  2.089641e+01    1.216946e+00
  2.091229e+01    1.238937e+00
  2.092816e+01    1.232009e+00
  2.094404e+01    1.225859e+00
  2.095991e+01    1.234477e+00
  2.097579e+01    1.210716e+00
  2.099166e+01    1.187428e+00
  2.100754e+01    1.206876e+00
  2.102342e+01    1.208046e+00
  2.103929e+01    1.227886e+00
  2.105517e+01    1.223937e+00
  2.107104e+01    1.232206e+00
  2.108692e+01    1.199667e+00
  2.110279e+01    1.234513e+00
  2.111867e+01    1.231514e+00
  2.113455e+01    1.214531e+00
  2.115042e+01    1.218444e+00
  2.116630e+01    1.220691e+00
  2.118217e+01    1.234801e+00
  2.119805e+01    1.246338e+00
  2.121392e+01    1.244858e+00
  2.122980e+01    1.273166e+00
  2.124567e+01    1.244328e+00
  2.126155e+01    1.244694e+00
  2.127743e+01    1.244503e+00
  2.129330e+01    1.263944e+00
  2.130918e+01    1.274130e+00
  2.132505e+01    1.279825e+00
  2.134093e+01    1.246357e+00
  2.135680e+01    1.279813e+00
  2.137268e+01    1.298829e+00
  2.138855e+01    1.314513e+00
  2.140443e+01    1.313927e+00
  2.142031e+01    1.312022e+00
  2.143618e+01    1.345219e+00
  2.145206e+01    1.367827e+00
  2.146793e+01    1.377700e+00
  2.148381e+01    1.387624e+00
  2.149968e+01    1.433288e+00
  2.151556e+01    1.441251e+00
  2.153143e+01    1.461102e+00
  2.154731e+01    1.504080e+00
  2.156319e+01    1.563090e+00
  2.157906e+01    1.621920e+00
  2.159494e+01    1.685977e+00
  2.161081e+01    1.773997e+00
  2.162669e+01    1.864932e+00
  2.164256e+01    1.987129e+00
  2.165844e+01    2.115282e+00
  2.167431e+01    2.272748e+00
  2.169019e+01    2.485930e+00
  2.170607e+01    2.775154e+00
  2.172194e+01    3.132579e+00
  2.173782e+01    3.540538e+00
  2.175369e+01    4.017700e+00
  2.176957e+01    4.554749e+00
  2.178544e+01    5.173836e+00
  2.180132e+01    5.813584e+00
  2.181719e+01    6.469488e+00
  2.183307e+01    7.127685e+00
  2.184895e+01    7.720079e+00
  2.186482e+01    8.273909e+00
  2.188070e+01    8.724332e+00
  2.189657e+01    8.927848e+00
  2.191245e+01    8.680594e+00
  2.192832e+01    8.214242e+00
  2.194420e+01    7.495515e+00
  2.196007e+01    6.574168e+00
  2.197595e+01    5.707078e+00
  2.199183e+01    4.847435e+00
  2.200770e+01    4.194375e+00
  2.202358e+01    3.645675e+00
  2.203945e+01    3.189300e+00
  2.205533e+01    2.804553e+00
  2.207120e+01    2.527721e+00
  2.208708e+01    2.320200e+00
  2.210296e+01    2.151985e+00
  2.211883e+01    1.963913e+00
  2.213471e+01    1.854947e+00
  2.215058e+01    1.777560e+00
  2.216646e+01    1.674619e+00
  2.218233e+01    1.614206e+00
  2.219821e+01    1.529780e+00
  2.221408e+01    1.469129e+00
  2.222996e+01    1.422185e+00
  2.224584e+01    1.388369e+00
  2.226171e+01    1.362984e+00
  2.227759e+01    1.371366e+00
  2.229346e+01    1.309781e+00
  2.230934e+01    1.298844e+00
  2.232521e+01    1.268326e+00
  2.234109e+01    1.254669e+00
  2.235696e+01    1.245352e+00
  2.237284e+01    1.240637e+00
  2.238872e+01    1.221249e+00
  2.240459e+01    1.210685e+00
  2.242047e+01    1.198695e+00
  2.243634e+01    1.199238e+00
  2.245222e+01    1.187433e+00
  2.246809e+01    1.172012e+00
  2.248397e+01    1.144749e+00
  2.249984e+01    1.118805e+00
  2.251572e+01    1.124487e+00
  2.253160e+01    1.131840e+00
  2.254747e+01    1.134085e+00
  2.256335e+01    1.134178e+00
  2.257922e+01    1.123232e+00
  2.259510e+01    1.138278e+00
  2.261097e+01    1.133290e+00
  2.262685e+01    1.100827e+00
  2.264272e+01    1.083863e+00
  2.265860e+01    1.069765e+00
  2.267448e+01    1.089277e+00
  2.269035e+01    1.081507e+00
  2.270623e+01    1.066828e+00
  2.272210e+01    1.075222e+00
  2.273798e+01    1.051570e+00
  2.275385e+01    1.076026e+00
  2.276973e+01    1.074912e+00
  2.278560e+01    1.056517e+00
  2.280148e+01    1.064262e+00
  2.281736e+01    1.049821e+00
  2.283323e+01    1.050131e+00
  2.284911e+01    1.040906e+00
  2.286498e+01    1.034436e+00
  2.288086e+01    1.023051e+00
  2.289673e+01    1.041208e+00
  2.291261e+01    1.030845e+00
  2.292848e+01    1.043344e+00
  2.294436e+01    1.032372e+00
  2.296024e+01    1.017764e+00
  2.297611e+01    1.014391e+00
  2.299199e+01    1.023022e+00
  2.300786e+01    1.012324e+00
  2.302374e+01    1.013076e+00
  2.303961e+01    1.041142e+00
  2.305549e+01    1.030505e+00
  2.307137e+01    1.016637e+00
  2.308724e+01    1.006180e+00
  2.310312e+01    1.003670e+00
  2.311899e+01    1.011907e+00
  2.313487e+01    1.010673e+00
  2.315074e+01    1.003791e+00
  2.316662e+01    9.982714e-01
  2.318249e+01    9.832668e-01
  2.319837e+01    9.693555e-01
  2.321425e+01    9.759499e-01
  2.323012e+01    9.822940e-01
  2.324600e+01    9.799874e-01
  2.326187e+01    9.628156e-01
  2.327775e+01    9.726051e-01
  2.329362e+01    9.804007e-01
  2.330950e+01    9.750741e-01
  2.332537e+01    9.730728e-01
  2.334125e+01    9.776554e-01
  2.335713e+01    9.782237e-01
  2.337300e+01    9.544075e-01
  2.338888e+01    9.576558e-01
  2.340475e+01    9.521882e-01
  2.342063e+01    9.616854e-01
  2.343650e+01    9.697276e-01
  2.345238e+01    9.549347e-01
  2.346825e+01    9.427662e-01
  2.348413e+01    9.619594e-01
  2.350001e+01    9.583068e-01
  2.351588e+01    9.754501e-01
  2.353176e+01    9.608716e-01
  2.354763e+01    9.721460e-01
  2.356351e+01    9.720877e-01
  2.357938e+01    9.487289e-01
  2.359526e+01    9.466192e-01
  2.361113e+01    9.503481e-01
  2.362701e+01    9.426894e-01
  2.364289e+01    9.534994e-01
  2.365876e+01    9.507318e-01
  2.367464e+01    9.334499e-01
  2.369051e+01    9.189488e-01
  2.370639e+01    9.234502e-01
  2.372226e+01    9.367209e-01
  2.373814e+01    9.208504e-01
  2.375401e+01    9.151114e-01
  2.376989e+01    9.372075e-01
  2.378577e+01    9.324412e-01
  2.380164e+01    9.119903e-01
  2.381752e+01    9.206378e-01
  2.383339e+01    9.043397e-01
  2.384927e+01    8.791952e-01
  2.386514e+01    9.205546e-01
  2.388102e+01    9.207718e-01
  2.389689e+01    9.144490e-01
  2.391277e+01    8.982985e-01
  2.392865e+01    8.937235e-01
  2.394452e+01    8.969654e-01
  2.396040e+01    8.921870e-01
  2.397627e+01    9.059078e-01
  2.399215e+01    8.901308e-01
  2.400802e+01    9.078122e-01
  2.402390e+01    8.897092e-01
  2.403978e+01    9.060548e-01
  2.405565e+01    8.960418e-01
  2.407153e+01    8.903832e-01
  2.408740e+01    8.880023e-01
  2.410328e+01    8.902466e-01
  2.411915e+01    8.970646e-01
  2.413503e+01    8.911026e-01
  2.415090e+01    8.846249e-01
  2.416678e+01    8.750651e-01
  2.418266e+01    8.548420e-01
  2.419853e+01    8.793119e-01
  2.421441e+01    8.700973e-01
  2.423028e+01    8.688053e-01
  2.424616e+01    8.621196e-01
  2.426203e+01    8.837524e-01
  2.427791e+01    8.911191e-01
  2.429378e+01    8.863337e-01
  2.430966e+01    8.752164e-01
  2.432554e+01    8.808867e-01
  2.434141e+01    8.677315e-01
  2.435729e+01    8.803225e-01
  2.437316e+01    8.955325e-01
  2.438904e+01    9.000859e-01
  2.440491e+01    8.817754e-01
  2.442079e+01    8.836732e-01
  2.443666e+01    8.828321e-01
  2.445254e+01    9.061508e-01
  2.446842e+01    9.099801e-01
  2.448429e+01    9.018918e-01
  2.450017e+01    8.785958e-01
  2.451604e+01    8.885834e-01
  2.453192e+01    8.782883e-01
  2.454779e+01    8.837059e-01
  2.456367e+01    8.821400e-01
  2.457954e+01    8.871660e-01
  2.459542e+01    8.748838e-01
  2.461130e+01    8.821628e-01
  2.462717e+01    8.842263e-01
  2.464305e+01    8.895048e-01
  2.465892e+01    8.683881e-01
  2.467480e+01    8.771672e-01
  2.469067e+01    8.865222e-01
  2.470655e+01    9.003218e-01
  2.472242e+01    8.876131e-01
  2.473830e+01    8.889214e-01
  2.475418e+01    8.786629e-01
  2.477005e+01    8.820280e-01
  2.478593e+01    8.710486e-01
  2.480180e+01    9.002284e-01
  2.481768e+01    8.728347e-01
  2.483355e+01    8.696504e-01
  2.484943e+01    8.806019e-01
  2.486530e+01    8.819912e-01
  2.488118e+01    8.971062e-01
  2.489706e+01    9.018482e-01
  2.491293e+01    8.839571e-01
  2.492881e+01    8.977261e-01
  2.494468e+01    8.883145e-01
  2.496056e+01    8.644511e-01
  2.497643e+01    8.876518e-01
  2.499231e+01    8.956600e-01
  2.500819e+01    8.973846e-01
  2.502406e+01    8.976301e-01
  2.503994e+01    9.099951e-01
  2.505581e+01    9.095748e-01
  2.507169e+01    9.057766e-01
  2.508756e+01    9.105200e-01
  2.510344e+01    9.194729e-01
  2.511931e+01    8.940560e-01
  2.513519e+01    8.973674e-01
  2.515107e+01    9.081817e-01
  2.516694e+01    9.142601e-01
  2.518282e+01    9.157887e-01
  2.519869e+01    9.290823e-01
  2.521457e+01    9.275060e-01
  2.523044e+01    9.268844e-01
  2.524632e+01    9.330353e-01
  2.526219e+01    9.151725e-01
  2.527807e+01    9.316642e-01
  2.529395e+01    9.424253e-01
  2.530982e+01    9.787920e-01
  2.532570e+01    9.604990e-01
  2.534157e+01    9.596964e-01
  2.535745e+01    9.762734e-01
  2.537332e+01    1.002568e+00
  2.538920e+01    9.870814e-01
  2.540507e+01    9.999878e-01
  2.542095e+01    1.011012e+00
  2.543683e+01    1.023106e+00
  2.545270e+01    1.027146e+00
  2.546858e+01    1.032393e+00
  2.548445e+01    1.055344e+00
  2.550033e+01    1.066392e+00
  2.551620e+01    1.060188e+00
  2.553208e+01    1.085007e+00
  2.554795e+01    1.108190e+00
  2.556383e+01    1.105705e+00
  2.557971e+01    1.133401e+00
  2.559558e+01    1.157403e+00
  2.561146e+01    1.202543e+00
  2.562733e+01    1.250310e+00
  2.564321e+01    1.294233e+00
  2.565908e+01    1.354823e+00
  2.567496e+01    1.420354e+00
  2.569083e+01    1.506551e+00
  2.570671e+01    1.589267e+00
  2.572259e+01    1.682887e+00
  2.573846e+01    1.849359e+00
  2.575434e+01    2.021696e+00
  2.577021e+01    2.247130e+00
  2.578609e+01    2.476554e+00
  2.580196e+01    2.783124e+00
  2.581784e+01    3.166953e+00
  2.583371e+01    3.628060e+00
  2.584959e+01    4.112494e+00
  2.586547e+01    4.658981e+00
  2.588134e+01    5.226024e+00
  2.589722e+01    5.842984e+00
  2.591309e+01    6.340920e+00
  2.592897e+01    6.755587e+00
  2.594484e+01    7.039539e+00
  2.596072e+01    7.113893e+00
  2.597660e+01    6.979031e+00
  2.599247e+01    6.553731e+00
  2.600835e+01    5.919138e+00
  2.602422e+01    5.323348e+00
  2.604010e+01    4.591957e+00
  2.605597e+01    3.998292e+00
  2.607185e+01    3.454054e+00
  2.608772e+01    3.007573e+00
  2.610360e+01    2.613241e+00
  2.611948e+01    2.348609e+00
  2.613535e+01    2.113655e+00
  2.615123e+01    1.933124e+00
  2.616710e+01    1.779172e+00
  2.618298e+01    1.668719e+00
  2.619885e+01    1.572838e+00
  2.621473e+01    1.479656e+00
  2.623060e+01    1.371176e+00
  2.624648e+01    1.327789e+00
  2.626236e+01    1.266208e+00
  2.627823e+01    1.229505e+00
  2.629411e+01    1.193303e+00
  2.630998e+01    1.167697e+00
  2.632586e+01    1.148974e+00
  2.634173e+01    1.101178e+00
  2.635761e+01    1.075435e+00
  2.637348e+01    1.067673e+00
  2.638936e+01    1.053920e+00
  2.640524e+01    1.038484e+00
  2.642111e+01    1.059447e+00
  2.643699e+01    1.025698e+00
  2.645286e+01    9.875798e-01
  2.646874e+01    9.872522e-01
  2.648461e+01    9.938418e-01
  2.650049e+01    9.852359e-01
  2.651636e+01    9.985169e-01
  2.653224e+01    9.973375e-01
  2.654812e+01    9.764575e-01
  2.656399e+01    9.636294e-01
  2.657987e+01    9.626536e-01
  2.659574e+01    9.864936e-01
  2.661162e+01    9.908026e-01
  2.662749e+01    1.009378e+00
  2.664337e+01    1.013388e+00
  2.665924e+01    9.871114e-01
  2.667512e+01    9.668537e-01
  2.669100e+01    9.521845e-01
  2.670687e+01    9.584375e-01
  2.672275e+01    9.671910e-01
  2.673862e+01    9.835145e-01
  2.675450e+01    9.708623e-01
  2.677037e+01    9.545835e-01
  2.678625e+01    9.687977e-01
  2.680212e+01    1.006404e+00
  2.681800e+01    9.842358e-01
  2.683388e+01    9.661433e-01
  2.684975e+01    9.846371e-01
  2.686563e+01    9.868740e-01
  2.688150e+01    9.894914e-01
  2.689738e+01    9.872316e-01
  2.691325e+01    1.006090e+00
  2.692913e+01    1.002359e+00
  2.694501e+01    1.032126e+00
  2.696088e+01    1.041319e+00
  2.697676e+01    1.067991e+00
  2.699263e+01    1.085768e+00
  2.700851e+01    1.072759e+00
  2.702438e+01    1.133740e+00
  2.704026e+01    1.203686e+00
  2.705613e+01    1.244496e+00
  2.707201e+01    1.330021e+00
  2.708789e+01    1.393288e+00
  2.710376e+01    1.509508e+00
  2.711964e+01    1.622747e+00
  2.713551e+01    1.750962e+00
  2.715139e+01    1.844279e+00
  2.716726e+01    1.953756e+00
  2.718314e+01    2.051784e+00
  2.719901e+01    2.132904e+00
  2.721489e+01    2.147991e+00
  2.723077e+01    2.139756e+00
  2.724664e+01    2.076499e+00
  2.726252e+01    1.961911e+00
  2.727839e+01    1.805240e+00
  2.729427e+01    1.699544e+00
  2.731014e+01    1.593280e+00
  2.732602e+01    1.466312e+00
  2.734189e+01    1.347316e+00
  2.735777e+01    1.275077e+00
  2.737365e+01    1.224955e+00
  2.738952e+01    1.159328e+00
  2.740540e+01    1.129012e+00
  2.742127e+01    1.103414e+00
  2.743715e+01    1.046411e+00
  2.745302e+01    1.023449e+00
  2.746890e+01    1.005588e+00
  2.748477e+01    9.997512e-01
  2.750065e+01    9.644180e-01
  2.751653e+01    9.655597e-01
  2.753240e+01    9.525619e-01
  2.754828e+01    9.194991e-01
  2.756415e+01    9.339201e-01
  2.758003e+01    9.424572e-01
  2.759590e+01    9.326656e-01
  2.761178e+01    9.056097e-01
  2.762765e+01    9.023970e-01
  2.764353e+01    9.267274e-01
  2.765941e+01    9.122482e-01
  2.767528e+01    8.992582e-01
  2.769116e+01    9.101337e-01
  2.770703e+01    9.002042e-01
  2.772291e+01    9.068072e-01
  2.773878e+01    9.008847e-01
  2.775466e+01    8.981616e-01
  2.777054e+01    9.067950e-01
  2.778641e+01    8.931944e-01
  2.780229e+01    8.892173e-01
  2.781816e+01    8.949299e-01
  2.783404e+01    8.800460e-01
  2.784991e+01    8.810283e-01
  2.786579e+01    8.777521e-01
  2.788166e+01    8.849849e-01
  2.789754e+01    8.716976e-01
  2.791342e+01    8.923725e-01
  2.792929e+01    8.726079e-01
  2.794517e+01    8.629767e-01
  2.796104e+01    8.741670e-01
  2.797692e+01    8.670167e-01
  2.799279e+01    8.634315e-01
  2.800867e+01    8.550947e-01
  2.802454e+01    8.742356e-01
  2.804042e+01    8.719202e-01
  2.805630e+01    8.516152e-01
  2.807217e+01    8.521141e-01
  2.808805e+01    8.534942e-01
  2.810392e+01    8.500224e-01
  2.811980e+01    8.655869e-01
  2.813567e+01    8.500636e-01
  2.815155e+01    8.477704e-01
  2.816742e+01    8.437939e-01
  2.818330e+01    8.573619e-01
  2.819918e+01    8.678342e-01
  2.821505e+01    8.614031e-01
  2.823093e+01    8.673546e-01
  2.824680e+01    8.509218e-01
  2.826268e+01    8.488099e-01
  2.827855e+01    8.599675e-01
  2.829443e+01    8.428087e-01
  2.831030e+01    8.281856e-01
  2.832618e+01    8.411509e-01
  2.834206e+01    8.337414e-01
  2.835793e+01    8.229454e-01
  2.837381e+01    8.363873e-01
  2.838968e+01    8.321311e-01
  2.840556e+01    8.351908e-01
  2.842143e+01    8.302370e-01
  2.843731e+01    8.304194e-01
  2.845318e+01    8.267317e-01
  2.846906e+01    8.134219e-01
  2.848494e+01    8.151656e-01
  2.850081e+01    8.422504e-01
  2.851669e+01    8.357220e-01
  2.853256e+01    8.438112e-01
  2.854844e+01    8.263213e-01
  2.856431e+01    8.169850e-01
  2.858019e+01    8.147272e-01
  2.859606e+01    8.176174e-01
  2.861194e+01    8.215418e-01
  2.862782e+01    8.177463e-01
  2.864369e+01    8.240535e-01
  2.865957e+01    8.094815e-01
  2.867544e+01    8.341194e-01
  2.869132e+01    8.494080e-01
  2.870719e+01    8.121386e-01
  2.872307e+01    8.143007e-01
  2.873895e+01    8.172796e-01
  2.875482e+01    8.502550e-01
  2.877070e+01    8.550408e-01
  2.878657e+01    8.598462e-01
  2.880245e+01    8.355955e-01
  2.881832e+01    8.163125e-01
  2.883420e+01    8.178385e-01
  2.885007e+01    8.101647e-01
  2.886595e+01    8.183433e-01
  2.888183e+01    8.332690e-01
  2.889770e+01    8.426229e-01
  2.891358e+01    8.280761e-01
  2.892945e+01    8.045849e-01
  2.894533e+01    8.070827e-01
  2.896120e+01    8.047937e-01
  2.897708e+01    8.191695e-01
  2.899295e+01    8.128168e-01
  2.900883e+01    8.209080e-01
  2.902471e+01    8.172227e-01
  2.904058e+01    8.097236e-01
  2.905646e+01    8.061301e-01
  2.907233e+01    8.099110e-01
  2.908821e+01    8.141649e-01
  2.910408e+01    8.210374e-01
  2.911996e+01    8.302702e-01
  2.913583e+01    8.272339e-01
  2.915171e+01    8.101774e-01
  2.916759e+01    8.119825e-01
  2.918346e+01    8.225838e-01
  2.919934e+01    8.094834e-01
  2.921521e+01    8.304541e-01
  2.923109e+01    7.959909e-01
  2.924696e+01    7.894198e-01
  2.926284e+01    8.119645e-01
  2.927871e+01    8.111638e-01
  2.929459e+01    7.970683e-01
  2.931047e+01    7.929694e-01
  2.932634e+01    8.102721e-01
  2.934222e+01    7.951046e-01
  2.935809e+01    8.141082e-01
  2.937397e+01    7.932794e-01
  2.938984e+01    8.046493e-01
  2.940572e+01    7.986134e-01
  2.942159e+01    8.100549e-01
  2.943747e+01    8.067651e-01
  2.945335e+01    8.076926e-01
  2.946922e+01    8.168403e-01
  2.948510e+01    7.927537e-01
  2.950097e+01    8.129226e-01
  2.951685e+01    7.871471e-01
  2.953272e+01    8.077721e-01
  2.954860e+01    7.948617e-01
  2.956447e+01    7.980270e-01
  2.958035e+01    7.988760e-01
  2.959623e+01    7.885665e-01
  2.961210e+01    7.941514e-01
  2.962798e+01    7.950799e-01
  2.964385e+01    7.660279e-01
  2.965973e+01    7.646213e-01
  2.967560e+01    7.720675e-01
  2.969148e+01    7.967139e-01
  2.970736e+01    8.017075e-01
  2.972323e+01    8.072569e-01
  2.973911e+01    7.925490e-01
  2.975498e+01    7.752090e-01
  2.977086e+01    7.864141e-01
  2.978673e+01    8.052697e-01
  2.980261e+01    8.089022e-01
  2.981848e+01    8.024940e-01
  2.983436e+01    7.990070e-01
  2.985024e+01    7.821367e-01
  2.986611e+01    7.912741e-01
  2.988199e+01    8.045101e-01
  2.989786e+01    7.973679e-01
  2.991374e+01    7.974045e-01
  2.992961e+01    7.940539e-01
  2.994549e+01    8.063816e-01
  2.996136e+01    7.904979e-01
  2.997724e+01    7.950542e-01
  2.999312e+01    8.125491e-01
  3.000899e+01    8.080245e-01
  3.002487e+01    7.863890e-01
  3.004074e+01    8.053618e-01
  3.005662e+01    7.937722e-01
  3.007249e+01    8.148171e-01
  3.008837e+01    8.144295e-01
  3.010424e+01    7.971781e-01
  3.012012e+01    8.069634e-01
  3.013600e+01    7.819816e-01
  3.015187e+01    7.553953e-01
  3.016775e+01    7.806656e-01
  3.018362e+01    7.847608e-01
  3.019950e+01    7.873492e-01
  3.021537e+01    7.762074e-01
  3.023125e+01    7.830880e-01
  3.024712e+01    7.659161e-01
  3.026300e+01    8.116245e-01
  3.027888e+01    8.063211e-01
  3.029475e+01    8.080704e-01
  3.031063e+01    7.855402e-01
  3.032650e+01    7.833388e-01
  3.034238e+01    7.880465e-01
  3.035825e+01    7.867714e-01
  3.037413e+01    7.806962e-01
  3.039000e+01    7.754417e-01
  3.040588e+01    7.994086e-01
  3.042176e+01    7.684237e-01
  3.043763e+01    7.577386e-01
  3.045351e+01    7.609258e-01
  3.046938e+01    7.698500e-01
  3.048526e+01    7.716104e-01
  3.050113e+01    7.805328e-01
  3.051701e+01    7.716535e-01
  3.053288e+01    7.674450e-01
  3.054876e+01    7.880332e-01
  3.056464e+01    7.891538e-01
  3.058051e+01    7.722488e-01
  3.059639e+01    7.833828e-01
  3.061226e+01    7.801108e-01
  3.062814e+01    7.758478e-01
  3.064401e+01    7.837854e-01
  3.065989e+01    7.698861e-01
  3.067577e+01    7.598684e-01
  3.069164e+01    7.911560e-01
  3.070752e+01    7.839995e-01
  3.072339e+01    7.791439e-01
  3.073927e+01    7.639114e-01
  3.075514e+01    7.735760e-01
  3.077102e+01    7.831239e-01
  3.078689e+01    7.893677e-01
  3.080277e+01    7.827331e-01
  3.081865e+01    7.797903e-01
  3.083452e+01    7.870392e-01
  3.085040e+01    7.861246e-01
  3.086627e+01    7.912506e-01
  3.088215e+01    7.937447e-01
  3.089802e+01    7.845131e-01
  3.091390e+01    7.924680e-01
  3.092977e+01    7.739025e-01
  3.094565e+01    7.723224e-01
  3.096153e+01    7.770248e-01
  3.097740e+01    8.026189e-01
  3.099328e+01    7.822145e-01
  3.100915e+01    7.836497e-01
  3.102503e+01    8.036628e-01
  3.104090e+01    8.056741e-01
  3.105678e+01    8.116556e-01
  3.107265e+01    7.904923e-01
  3.108853e+01    7.689395e-01
  3.110441e+01    7.744622e-01
  3.112028e+01    7.918860e-01
  3.113616e+01    7.856910e-01
  3.115203e+01    7.885336e-01
  3.116791e+01    7.924605e-01
  3.118378e+01    7.948717e-01
  3.119966e+01    7.905774e-01
  3.121553e+01    7.946952e-01
  3.123141e+01    7.980087e-01
  3.124729e+01    7.733195e-01
  3.126316e+01    7.912496e-01
  3.127904e+01    7.778423e-01
  3.129491e+01    7.868055e-01
  3.131079e+01    7.898439e-01
  3.132666e+01    7.969572e-01
  3.134254e+01    7.900740e-01
  3.135841e+01    7.995684e-01
  3.137429e+01    7.973203e-01
  3.139017e+01    8.197617e-01
  3.140604e+01    7.975470e-01
  3.142192e+01    7.966019e-01
  3.143779e+01    8.119108e-01
  3.145367e+01    8.250739e-01
  3.146954e+01    8.064770e-01
  3.148542e+01    8.026863e-01
  3.150129e+01    8.193767e-01
  3.151717e+01    8.332568e-01
  3.153305e+01    8.279590e-01
  3.154892e+01    8.224394e-01
  3.156480e+01    8.516315e-01
  3.158067e+01    8.800606e-01
  3.159655e+01    8.954238e-01
  3.161242e+01    8.989090e-01
  3.162830e+01    9.151422e-01
  3.164418e+01    8.938723e-01
  3.166005e+01    9.164382e-01
  3.167593e+01    9.536245e-01
  3.169180e+01    9.667151e-01
  3.170768e+01    1.023703e+00
  3.172355e+01    1.057219e+00
  3.173943e+01    1.102428e+00
  3.175530e+01    1.164793e+00
  3.177118e+01    1.247727e+00
  3.178706e+01    1.350540e+00
  3.180293e+01    1.433498e+00
  3.181881e+01    1.564181e+00
  3.183468e+01    1.675076e+00
  3.185056e+01    1.811287e+00
  3.186643e+01    1.939336e+00
  3.188231e+01    2.070868e+00
  3.189818e+01    2.079708e+00
  3.191406e+01    2.066042e+00
  3.192994e+01    2.005607e+00
  3.194581e+01    1.943368e+00
  3.196169e+01    1.857283e+00
  3.197756e+01    1.698105e+00
  3.199344e+01    1.539366e+00
  3.200931e+01    1.440545e+00
  3.202519e+01    1.297379e+00
  3.204106e+01    1.226816e+00
  3.205694e+01    1.154613e+00
  3.207282e+01    1.101327e+00
  3.208869e+01    1.029144e+00
  3.210457e+01    9.933090e-01
  3.212044e+01    9.884440e-01
  3.213632e+01    9.302630e-01
  3.215219e+01    9.127904e-01
  3.216807e+01    9.107529e-01
  3.218394e+01    8.727272e-01
  3.219982e+01    8.487785e-01
  3.221570e+01    8.228606e-01
  3.223157e+01    8.447729e-01
  3.224745e+01    8.337166e-01
  3.226332e+01    8.265585e-01
  3.227920e+01    8.356941e-01
  3.229507e+01    8.095315e-01
  3.231095e+01    8.028995e-01
  3.232682e+01    8.047662e-01
  3.234270e+01    8.041310e-01
  3.235858e+01    7.817163e-01
  3.237445e+01    7.945509e-01
  3.239033e+01    7.859856e-01
  3.240620e+01    7.775193e-01
  3.242208e+01    7.877927e-01
  3.243795e+01    7.639593e-01
  3.245383e+01    7.793822e-01
  3.246970e+01    7.791911e-01
  3.248558e+01    7.890495e-01
  3.250146e+01    7.779953e-01
  3.251733e+01    7.766621e-01
  3.253321e+01    7.693347e-01
  3.254908e+01    7.519239e-01
