# == pyFAI calibration ==
# Distance Sample to Detector: 0.3999999939076516 m
# PONI: 9.750e-02, 1.135e-01 m
# Rotations: -0.000175 0.000000 -0.000000 rad
# 
# == Fit2d calibration ==
# Distance Sample-beamCenter: 400.000 mm
# Center: x=1514.000, y=1300.000 pix
# Tilt: 0.010 deg  TiltPlanRot: 0.010 deg
# 
# Detector Detector	 Spline= None	 PixelSize= 7.500e-05, 7.500e-05 m
#    Detector has a mask: False 
#    Detector has a dark current: False 
#    detector has a flat field: False 
# 
# Wavelength: 6.888e-11 m
# Mask applied: user provided
# Dark current applied: False
# Flat field applied: False
# Polarization factor: 0.99
# Normalization factor: 1.0
# --> /home/myspot/data/2024_07_Rosario/Ru-CGO-ex/2024-07-27_003_Ru-CGO-ex_Reaction_dwell_000023_data_000111.dat
#       q_nm^-1             I 
  2.003187e-02    0.000000e+00
  3.590745e-02    0.000000e+00
  5.178302e-02    0.000000e+00
  6.765859e-02    8.484551e-02
  8.353417e-02    1.546970e-01
  9.940974e-02    1.130607e-01
  1.152853e-01    7.354912e-02
  1.311609e-01    2.876877e-03
  1.470365e-01    0.000000e+00
  1.629120e-01    0.000000e+00
  1.787876e-01    1.910486e-02
  1.946632e-01    2.606896e-02
  2.105388e-01    1.457486e-02
  2.264143e-01    1.656780e-02
  2.422899e-01    2.564010e-02
  2.581655e-01    4.438452e-02
  2.740411e-01    6.304196e-02
  2.899166e-01    7.197820e-02
  3.057922e-01    2.998219e-02
  3.216678e-01    1.542242e-03
  3.375433e-01    2.719999e-02
  3.534189e-01    7.238314e-03
  3.692945e-01    1.514883e-02
  3.851701e-01    2.704105e-02
  4.010456e-01    3.945722e-02
  4.169212e-01    5.325129e-02
  4.327968e-01    3.725496e-02
  4.486724e-01    1.802286e-02
  4.645479e-01    3.054112e-02
  4.804235e-01    2.746188e-02
  4.962991e-01    2.366543e-02
  5.121747e-01    3.080557e-02
  5.280502e-01    4.468348e-02
  5.439258e-01    2.503804e-02
  5.598014e-01    3.903540e-02
  5.756770e-01    4.890322e-02
  5.915525e-01    3.682648e-02
  6.074281e-01    4.761740e-02
  6.233037e-01    4.932883e-02
  6.391793e-01    5.046656e-02
  6.550548e-01    3.524749e-02
  6.709304e-01    6.833278e-02
  6.868060e-01    4.813820e-02
  7.026815e-01    4.193570e-02
  7.185571e-01    5.128412e-02
  7.344327e-01    5.303585e-02
  7.503083e-01    6.822067e-02
  7.661838e-01    9.971645e-02
  7.820594e-01    1.066211e-01
  7.979350e-01    1.575315e-01
  8.138106e-01    2.542405e-01
  8.296861e-01    2.605216e-01
  8.455617e-01    3.407572e-01
  8.614373e-01    4.004270e-01
  8.773129e-01    4.340183e-01
  8.931884e-01    6.038368e-01
  9.090640e-01    7.206885e-01
  9.249396e-01    7.279629e-01
  9.408152e-01    8.109443e-01
  9.566907e-01    8.696612e-01
  9.725663e-01    1.004306e+00
  9.884419e-01    1.209282e+00
  1.004317e+00    1.307093e+00
  1.020193e+00    1.287926e+00
  1.036069e+00    1.340381e+00
  1.051944e+00    1.405878e+00
  1.067820e+00    1.468135e+00
  1.083695e+00    1.524814e+00
  1.099571e+00    1.491072e+00
  1.115446e+00    1.552295e+00
  1.131322e+00    1.644152e+00
  1.147198e+00    1.771465e+00
  1.163073e+00    1.711292e+00
  1.178949e+00    1.766011e+00
  1.194824e+00    1.896244e+00
  1.210700e+00    1.952730e+00
  1.226575e+00    2.176712e+00
  1.242451e+00    2.345338e+00
  1.258327e+00    2.617342e+00
  1.274202e+00    2.672282e+00
  1.290078e+00    2.683420e+00
  1.305953e+00    2.605148e+00
  1.321829e+00    2.623133e+00
  1.337705e+00    2.683292e+00
  1.353580e+00    2.772908e+00
  1.369456e+00    2.736622e+00
  1.385331e+00    2.630155e+00
  1.401207e+00    2.875716e+00
  1.417082e+00    2.930711e+00
  1.432958e+00    2.968900e+00
  1.448834e+00    2.981189e+00
  1.464709e+00    3.121881e+00
  1.480585e+00    3.046072e+00
  1.496460e+00    3.021362e+00
  1.512336e+00    3.196384e+00
  1.528211e+00    3.415834e+00
  1.544087e+00    3.221703e+00
  1.559963e+00    3.207037e+00
  1.575838e+00    3.151691e+00
  1.591714e+00    3.111748e+00
  1.607589e+00    3.137806e+00
  1.623465e+00    3.208035e+00
  1.639340e+00    3.103987e+00
  1.655216e+00    3.095738e+00
  1.671092e+00    3.201363e+00
  1.686967e+00    3.166007e+00
  1.702843e+00    3.101260e+00
  1.718718e+00    3.051048e+00
  1.734594e+00    3.168871e+00
  1.750469e+00    3.090548e+00
  1.766345e+00    3.202448e+00
  1.782221e+00    3.113986e+00
  1.798096e+00    3.132447e+00
  1.813972e+00    3.130420e+00
  1.829847e+00    3.143175e+00
  1.845723e+00    3.151981e+00
  1.861598e+00    3.170060e+00
  1.877474e+00    3.199730e+00
  1.893350e+00    3.193654e+00
  1.909225e+00    3.047459e+00
  1.925101e+00    3.063179e+00
  1.940976e+00    3.090370e+00
  1.956852e+00    3.106005e+00
  1.972727e+00    3.068465e+00
  1.988603e+00    3.067068e+00
  2.004479e+00    3.134659e+00
  2.020354e+00    3.204053e+00
  2.036230e+00    3.162004e+00
  2.052105e+00    3.054003e+00
  2.067981e+00    3.022152e+00
  2.083856e+00    2.956274e+00
  2.099732e+00    3.074099e+00
  2.115608e+00    3.087250e+00
  2.131483e+00    3.106634e+00
  2.147359e+00    3.118427e+00
  2.163234e+00    3.139714e+00
  2.179110e+00    3.005006e+00
  2.194985e+00    3.030537e+00
  2.210861e+00    3.173144e+00
  2.226737e+00    3.192649e+00
  2.242612e+00    3.177146e+00
  2.258488e+00    3.162817e+00
  2.274363e+00    3.124144e+00
  2.290239e+00    3.080556e+00
  2.306115e+00    3.156506e+00
  2.321990e+00    3.095306e+00
  2.337866e+00    3.143410e+00
  2.353741e+00    3.177528e+00
  2.369617e+00    3.122830e+00
  2.385492e+00    3.264189e+00
  2.401368e+00    3.168829e+00
  2.417244e+00    3.167842e+00
  2.433119e+00    3.198059e+00
  2.448995e+00    3.209934e+00
  2.464870e+00    3.254535e+00
  2.480746e+00    3.173984e+00
  2.496621e+00    3.117310e+00
  2.512497e+00    3.239911e+00
  2.528373e+00    3.251487e+00
  2.544248e+00    3.127747e+00
  2.560124e+00    3.145370e+00
  2.575999e+00    3.184594e+00
  2.591875e+00    3.177007e+00
  2.607750e+00    3.160015e+00
  2.623626e+00    3.259858e+00
  2.639502e+00    3.282584e+00
  2.655377e+00    3.153256e+00
  2.671253e+00    3.193037e+00
  2.687128e+00    3.245572e+00
  2.703004e+00    3.270264e+00
  2.718879e+00    3.322468e+00
  2.734755e+00    3.332918e+00
  2.750631e+00    3.363280e+00
  2.766506e+00    3.313693e+00
  2.782382e+00    3.265986e+00
  2.798257e+00    3.263399e+00
  2.814133e+00    3.347946e+00
  2.830008e+00    3.297038e+00
  2.845884e+00    3.297452e+00
  2.861760e+00    3.305781e+00
  2.877635e+00    3.290580e+00
  2.893511e+00    3.375446e+00
  2.909386e+00    3.367576e+00
  2.925262e+00    3.379994e+00
  2.941137e+00    3.266452e+00
  2.957013e+00    3.279336e+00
  2.972889e+00    3.372223e+00
  2.988764e+00    3.382909e+00
  3.004640e+00    3.327381e+00
  3.020515e+00    3.359146e+00
  3.036391e+00    3.413497e+00
  3.052266e+00    3.325842e+00
  3.068142e+00    3.312531e+00
  3.084018e+00    3.390906e+00
  3.099893e+00    3.277210e+00
  3.115769e+00    3.371958e+00
  3.131644e+00    3.385175e+00
  3.147520e+00    3.422944e+00
  3.163395e+00    3.402804e+00
  3.179271e+00    3.357049e+00
  3.195147e+00    3.340888e+00
  3.211022e+00    3.429642e+00
  3.226898e+00    3.436851e+00
  3.242773e+00    3.392543e+00
  3.258649e+00    3.457648e+00
  3.274525e+00    3.473762e+00
  3.290400e+00    3.423077e+00
  3.306276e+00    3.441650e+00
  3.322151e+00    3.497613e+00
  3.338027e+00    3.430661e+00
  3.353902e+00    3.393328e+00
  3.369778e+00    3.437774e+00
  3.385654e+00    3.384429e+00
  3.401529e+00    3.417852e+00
  3.417405e+00    3.425149e+00
  3.433280e+00    3.457033e+00
  3.449156e+00    3.417441e+00
  3.465031e+00    3.408255e+00
  3.480907e+00    3.349633e+00
  3.496783e+00    3.460953e+00
  3.512658e+00    3.451071e+00
  3.528534e+00    3.530707e+00
  3.544409e+00    3.556399e+00
  3.560285e+00    3.463326e+00
  3.576160e+00    3.367301e+00
  3.592036e+00    3.412230e+00
  3.607912e+00    3.448344e+00
  3.623787e+00    3.452573e+00
  3.639663e+00    3.454338e+00
  3.655538e+00    3.489773e+00
  3.671414e+00    3.492391e+00
  3.687289e+00    3.400949e+00
  3.703165e+00    3.323605e+00
  3.719041e+00    3.338333e+00
  3.734916e+00    3.462766e+00
  3.750792e+00    3.618736e+00
  3.766667e+00    3.630490e+00
  3.782543e+00    3.551201e+00
  3.798418e+00    3.519089e+00
  3.814294e+00    3.520825e+00
  3.830170e+00    3.509720e+00
  3.846045e+00    3.522961e+00
  3.861921e+00    3.560822e+00
  3.877796e+00    3.594685e+00
  3.893672e+00    3.534968e+00
  3.909547e+00    3.468351e+00
  3.925423e+00    3.448142e+00
  3.941299e+00    3.470896e+00
  3.957174e+00    3.549407e+00
  3.973050e+00    3.466032e+00
  3.988925e+00    3.447621e+00
  4.004801e+00    3.559508e+00
  4.020676e+00    3.571185e+00
  4.036552e+00    3.513396e+00
  4.052428e+00    3.490694e+00
  4.068303e+00    3.551765e+00
  4.084179e+00    3.536195e+00
  4.100054e+00    3.573427e+00
  4.115930e+00    3.574681e+00
  4.131806e+00    3.583524e+00
  4.147681e+00    3.599699e+00
  4.163557e+00    3.628466e+00
  4.179432e+00    3.502943e+00
  4.195308e+00    3.519035e+00
  4.211183e+00    3.567664e+00
  4.227059e+00    3.580302e+00
  4.242935e+00    3.623034e+00
  4.258810e+00    3.611109e+00
  4.274686e+00    3.649266e+00
  4.290561e+00    3.597586e+00
  4.306437e+00    3.576445e+00
  4.322312e+00    3.612935e+00
  4.338188e+00    3.572453e+00
  4.354064e+00    3.545122e+00
  4.369939e+00    3.482882e+00
  4.385815e+00    3.536093e+00
  4.401690e+00    3.595427e+00
  4.417566e+00    3.624087e+00
  4.433441e+00    3.576886e+00
  4.449317e+00    3.577347e+00
  4.465193e+00    3.615658e+00
  4.481068e+00    3.630446e+00
  4.496944e+00    3.603876e+00
  4.512819e+00    3.545691e+00
  4.528695e+00    3.609951e+00
  4.544570e+00    3.655761e+00
  4.560446e+00    3.595452e+00
  4.576322e+00    3.608782e+00
  4.592197e+00    3.581416e+00
  4.608073e+00    3.599477e+00
  4.623948e+00    3.687349e+00
  4.639824e+00    3.644883e+00
  4.655699e+00    3.643048e+00
  4.671575e+00    3.629204e+00
  4.687451e+00    3.593523e+00
  4.703326e+00    3.657344e+00
  4.719202e+00    3.694432e+00
  4.735077e+00    3.626385e+00
  4.750953e+00    3.645915e+00
  4.766828e+00    3.592409e+00
  4.782704e+00    3.562886e+00
  4.798580e+00    3.623701e+00
  4.814455e+00    3.601611e+00
  4.830331e+00    3.627250e+00
  4.846206e+00    3.674596e+00
  4.862082e+00    3.634431e+00
  4.877957e+00    3.646505e+00
  4.893833e+00    3.701330e+00
  4.909709e+00    3.713520e+00
  4.925584e+00    3.644963e+00
  4.941460e+00    3.683616e+00
  4.957335e+00    3.674307e+00
  4.973211e+00    3.705118e+00
  4.989086e+00    3.656854e+00
  5.004962e+00    3.601453e+00
  5.020838e+00    3.659204e+00
  5.036713e+00    3.613002e+00
  5.052589e+00    3.580361e+00
  5.068464e+00    3.697200e+00
  5.084340e+00    3.687046e+00
  5.100216e+00    3.645641e+00
  5.116091e+00    3.703167e+00
  5.131967e+00    3.671346e+00
  5.147842e+00    3.660188e+00
  5.163718e+00    3.708848e+00
  5.179593e+00    3.678132e+00
  5.195469e+00    3.652566e+00
  5.211345e+00    3.710917e+00
  5.227220e+00    3.762872e+00
  5.243096e+00    3.633892e+00
  5.258971e+00    3.649998e+00
  5.274847e+00    3.760406e+00
  5.290722e+00    3.657344e+00
  5.306598e+00    3.689259e+00
  5.322474e+00    3.673455e+00
  5.338349e+00    3.666751e+00
  5.354225e+00    3.646128e+00
  5.370100e+00    3.678105e+00
  5.385976e+00    3.665117e+00
  5.401851e+00    3.627895e+00
  5.417727e+00    3.680114e+00
  5.433603e+00    3.664341e+00
  5.449478e+00    3.613068e+00
  5.465354e+00    3.657761e+00
  5.481229e+00    3.642808e+00
  5.497105e+00    3.576787e+00
  5.512980e+00    3.574244e+00
  5.528856e+00    3.619331e+00
  5.544732e+00    3.704807e+00
  5.560607e+00    3.687816e+00
  5.576483e+00    3.688437e+00
  5.592358e+00    3.664535e+00
  5.608234e+00    3.608023e+00
  5.624109e+00    3.581806e+00
  5.639985e+00    3.554440e+00
  5.655861e+00    3.592401e+00
  5.671736e+00    3.547733e+00
  5.687612e+00    3.535682e+00
  5.703487e+00    3.577238e+00
  5.719363e+00    3.606601e+00
  5.735238e+00    3.577170e+00
  5.751114e+00    3.620435e+00
  5.766990e+00    3.528265e+00
  5.782865e+00    3.583894e+00
  5.798741e+00    3.525361e+00
  5.814616e+00    3.496790e+00
  5.830492e+00    3.464006e+00
  5.846367e+00    3.558497e+00
  5.862243e+00    3.611946e+00
  5.878119e+00    3.421429e+00
  5.893994e+00    3.524768e+00
  5.909870e+00    3.596399e+00
  5.925745e+00    3.444196e+00
  5.941621e+00    3.465266e+00
  5.957497e+00    3.492860e+00
  5.973372e+00    3.510229e+00
  5.989248e+00    3.518923e+00
  6.005123e+00    3.451346e+00
  6.020999e+00    3.573137e+00
  6.036874e+00    3.496462e+00
  6.052750e+00    3.498565e+00
  6.068626e+00    3.565112e+00
  6.084501e+00    3.543037e+00
  6.100377e+00    3.604641e+00
  6.116252e+00    3.659465e+00
  6.132128e+00    3.618280e+00
  6.148003e+00    3.515654e+00
  6.163879e+00    3.505638e+00
  6.179755e+00    3.510375e+00
  6.195630e+00    3.560147e+00
  6.211506e+00    3.643157e+00
  6.227381e+00    3.722284e+00
  6.243257e+00    3.630200e+00
  6.259132e+00    3.533030e+00
  6.275008e+00    3.556152e+00
  6.290884e+00    3.569170e+00
  6.306759e+00    3.544061e+00
  6.322635e+00    3.556036e+00
  6.338510e+00    3.559743e+00
  6.354386e+00    3.572992e+00
  6.370261e+00    3.604668e+00
  6.386137e+00    3.576257e+00
  6.402013e+00    3.519950e+00
  6.417888e+00    3.545375e+00
  6.433764e+00    3.485003e+00
  6.449639e+00    3.508459e+00
  6.465515e+00    3.562585e+00
  6.481390e+00    3.538129e+00
  6.497266e+00    3.507553e+00
  6.513142e+00    3.468606e+00
  6.529017e+00    3.470199e+00
  6.544893e+00    3.503820e+00
  6.560768e+00    3.556876e+00
  6.576644e+00    3.510377e+00
  6.592519e+00    3.541966e+00
  6.608395e+00    3.593051e+00
  6.624271e+00    3.516019e+00
  6.640146e+00    3.620432e+00
  6.656022e+00    3.588508e+00
  6.671897e+00    3.584978e+00
  6.687773e+00    3.526303e+00
  6.703648e+00    3.520489e+00
  6.719524e+00    3.728803e+00
  6.735400e+00    3.694001e+00
  6.751275e+00    3.671022e+00
  6.767151e+00    3.596085e+00
  6.783026e+00    3.584713e+00
  6.798902e+00    3.588911e+00
  6.814777e+00    3.575278e+00
  6.830653e+00    3.561725e+00
  6.846529e+00    3.522676e+00
  6.862404e+00    3.528151e+00
  6.878280e+00    3.589036e+00
  6.894155e+00    3.643426e+00
  6.910031e+00    3.610140e+00
  6.925907e+00    3.536057e+00
  6.941782e+00    3.487269e+00
  6.957658e+00    3.469254e+00
  6.973533e+00    3.475641e+00
  6.989409e+00    3.531854e+00
  7.005284e+00    3.583460e+00
  7.021160e+00    3.559405e+00
  7.037036e+00    3.525151e+00
  7.052911e+00    3.527820e+00
  7.068787e+00    3.505137e+00
  7.084662e+00    3.474420e+00
  7.100538e+00    3.574266e+00
  7.116413e+00    3.559592e+00
  7.132289e+00    3.523816e+00
  7.148165e+00    3.476229e+00
  7.164040e+00    3.498874e+00
  7.179916e+00    3.582660e+00
  7.195791e+00    3.512074e+00
  7.211667e+00    3.552573e+00
  7.227542e+00    3.582196e+00
  7.243418e+00    3.555407e+00
  7.259294e+00    3.526835e+00
  7.275169e+00    3.590177e+00
  7.291045e+00    3.524368e+00
  7.306920e+00    3.510942e+00
  7.322796e+00    3.531127e+00
  7.338671e+00    3.551994e+00
  7.354547e+00    3.458250e+00
  7.370423e+00    3.440875e+00
  7.386298e+00    3.462294e+00
  7.402174e+00    3.495199e+00
  7.418049e+00    3.476737e+00
  7.433925e+00    3.438470e+00
  7.449800e+00    3.491815e+00
  7.465676e+00    3.507333e+00
  7.481552e+00    3.513040e+00
  7.497427e+00    3.530273e+00
  7.513303e+00    3.524068e+00
  7.529178e+00    3.509251e+00
  7.545054e+00    3.427169e+00
  7.560929e+00    3.421789e+00
  7.576805e+00    3.506487e+00
  7.592681e+00    3.509123e+00
  7.608556e+00    3.411939e+00
  7.624432e+00    3.529856e+00
  7.640307e+00    3.515919e+00
  7.656183e+00    3.511241e+00
  7.672058e+00    3.452114e+00
  7.687934e+00    3.487185e+00
  7.703810e+00    3.493860e+00
  7.719685e+00    3.552213e+00
  7.735561e+00    3.440337e+00
  7.751436e+00    3.494462e+00
  7.767312e+00    3.463418e+00
  7.783187e+00    3.473416e+00
  7.799063e+00    3.488622e+00
  7.814939e+00    3.468010e+00
  7.830814e+00    3.415582e+00
  7.846690e+00    3.408485e+00
  7.862565e+00    3.388013e+00
  7.878441e+00    3.444369e+00
  7.894317e+00    3.461841e+00
  7.910192e+00    3.418583e+00
  7.926068e+00    3.362561e+00
  7.941943e+00    3.426896e+00
  7.957819e+00    3.413341e+00
  7.973694e+00    3.438669e+00
  7.989570e+00    3.423079e+00
  8.005446e+00    3.404918e+00
  8.021321e+00    3.443152e+00
  8.037197e+00    3.476425e+00
  8.053072e+00    3.463279e+00
  8.068948e+00    3.462526e+00
  8.084823e+00    3.452832e+00
  8.100699e+00    3.440893e+00
  8.116575e+00    3.478178e+00
  8.132450e+00    3.482102e+00
  8.148326e+00    3.539506e+00
  8.164201e+00    3.500400e+00
  8.180077e+00    3.401916e+00
  8.195952e+00    3.471033e+00
  8.211828e+00    3.521266e+00
  8.227704e+00    3.488914e+00
  8.243579e+00    3.456923e+00
  8.259455e+00    3.368530e+00
  8.275330e+00    3.396486e+00
  8.291206e+00    3.431990e+00
  8.307081e+00    3.396928e+00
  8.322957e+00    3.407017e+00
  8.338833e+00    3.442255e+00
  8.354708e+00    3.474404e+00
  8.370584e+00    3.374787e+00
  8.386459e+00    3.369588e+00
  8.402335e+00    3.380778e+00
  8.418210e+00    3.387542e+00
  8.434086e+00    3.376769e+00
  8.449962e+00    3.380394e+00
  8.465837e+00    3.340021e+00
  8.481713e+00    3.428585e+00
  8.497588e+00    3.418565e+00
  8.513464e+00    3.405674e+00
  8.529339e+00    3.383272e+00
  8.545215e+00    3.418191e+00
  8.561091e+00    3.385445e+00
  8.576966e+00    3.362260e+00
  8.592842e+00    3.412136e+00
  8.608717e+00    3.403275e+00
  8.624593e+00    3.410352e+00
  8.640468e+00    3.342897e+00
  8.656344e+00    3.338133e+00
  8.672220e+00    3.329935e+00
  8.688095e+00    3.346332e+00
  8.703971e+00    3.334755e+00
  8.719846e+00    3.297936e+00
  8.735722e+00    3.307880e+00
  8.751598e+00    3.261597e+00
  8.767473e+00    3.318925e+00
  8.783349e+00    3.298172e+00
  8.799224e+00    3.297624e+00
  8.815100e+00    3.311587e+00
  8.830975e+00    3.276935e+00
  8.846851e+00    3.227524e+00
  8.862727e+00    3.246680e+00
  8.878602e+00    3.303668e+00
  8.894478e+00    3.347307e+00
  8.910353e+00    3.382859e+00
  8.926229e+00    3.336303e+00
  8.942104e+00    3.287945e+00
  8.957980e+00    3.266127e+00
  8.973856e+00    3.240221e+00
  8.989731e+00    3.248429e+00
  9.005607e+00    3.241252e+00
  9.021482e+00    3.265298e+00
  9.037358e+00    3.280822e+00
  9.053233e+00    3.295486e+00
  9.069109e+00    3.318105e+00
  9.084985e+00    3.316298e+00
  9.100860e+00    3.276953e+00
  9.116736e+00    3.291641e+00
  9.132611e+00    3.258494e+00
  9.148487e+00    3.241428e+00
  9.164362e+00    3.199320e+00
  9.180238e+00    3.260569e+00
  9.196114e+00    3.307721e+00
  9.211989e+00    3.256989e+00
  9.227865e+00    3.302383e+00
  9.243740e+00    3.251427e+00
  9.259616e+00    3.300834e+00
  9.275491e+00    3.248945e+00
  9.291367e+00    3.199623e+00
  9.307243e+00    3.183374e+00
  9.323118e+00    3.235734e+00
  9.338994e+00    3.244090e+00
  9.354869e+00    3.219670e+00
  9.370745e+00    3.256930e+00
  9.386620e+00    3.292758e+00
  9.402496e+00    3.302493e+00
  9.418372e+00    3.291224e+00
  9.434247e+00    3.268898e+00
  9.450123e+00    3.236674e+00
  9.465998e+00    3.273591e+00
  9.481874e+00    3.302648e+00
  9.497749e+00    3.204361e+00
  9.513625e+00    3.181815e+00
  9.529501e+00    3.226491e+00
  9.545376e+00    3.236555e+00
  9.561252e+00    3.229374e+00
  9.577127e+00    3.225595e+00
  9.593003e+00    3.221215e+00
  9.608878e+00    3.155328e+00
  9.624754e+00    3.166758e+00
  9.640630e+00    3.180014e+00
  9.656505e+00    3.246831e+00
  9.672381e+00    3.181628e+00
  9.688256e+00    3.180660e+00
  9.704132e+00    3.215852e+00
  9.720008e+00    3.186859e+00
  9.735883e+00    3.163285e+00
  9.751759e+00    3.194446e+00
  9.767634e+00    3.169782e+00
  9.783510e+00    3.177322e+00
  9.799385e+00    3.133490e+00
  9.815261e+00    3.138216e+00
  9.831137e+00    3.189184e+00
  9.847012e+00    3.187392e+00
  9.862888e+00    3.073711e+00
  9.878763e+00    3.099633e+00
  9.894639e+00    3.142874e+00
  9.910514e+00    3.125129e+00
  9.926390e+00    3.134101e+00
  9.942266e+00    3.199761e+00
  9.958141e+00    3.152476e+00
  9.974017e+00    3.113317e+00
  9.989892e+00    3.100710e+00
  1.000577e+01    3.105824e+00
  1.002164e+01    3.193967e+00
  1.003752e+01    3.171325e+00
  1.005339e+01    3.091049e+00
  1.006927e+01    3.078602e+00
  1.008515e+01    3.121589e+00
  1.010102e+01    3.149482e+00
  1.011690e+01    3.128136e+00
  1.013277e+01    3.108446e+00
  1.014865e+01    3.094218e+00
  1.016452e+01    3.085090e+00
  1.018040e+01    3.074118e+00
  1.019627e+01    3.063030e+00
  1.021215e+01    3.096459e+00
  1.022803e+01    3.078655e+00
  1.024390e+01    3.041115e+00
  1.025978e+01    3.031283e+00
  1.027565e+01    3.103316e+00
  1.029153e+01    3.101623e+00
  1.030740e+01    3.079466e+00
  1.032328e+01    3.019156e+00
  1.033915e+01    3.060208e+00
  1.035503e+01    3.094546e+00
  1.037091e+01    3.082018e+00
  1.038678e+01    3.077044e+00
  1.040266e+01    3.022172e+00
  1.041853e+01    3.018716e+00
  1.043441e+01    3.030169e+00
  1.045028e+01    3.025248e+00
  1.046616e+01    3.024895e+00
  1.048204e+01    3.009714e+00
  1.049791e+01    3.043460e+00
  1.051379e+01    3.039768e+00
  1.052966e+01    3.014538e+00
  1.054554e+01    3.041849e+00
  1.056141e+01    3.005732e+00
  1.057729e+01    3.040081e+00
  1.059316e+01    3.048023e+00
  1.060904e+01    3.001804e+00
  1.062492e+01    2.972164e+00
  1.064079e+01    3.018821e+00
  1.065667e+01    2.994081e+00
  1.067254e+01    3.042465e+00
  1.068842e+01    2.996678e+00
  1.070429e+01    2.980908e+00
  1.072017e+01    2.976732e+00
  1.073604e+01    2.959758e+00
  1.075192e+01    2.994956e+00
  1.076780e+01    2.974891e+00
  1.078367e+01    2.972377e+00
  1.079955e+01    3.003808e+00
  1.081542e+01    2.974758e+00
  1.083130e+01    2.940253e+00
  1.084717e+01    2.968425e+00
  1.086305e+01    2.948262e+00
  1.087892e+01    2.918871e+00
  1.089480e+01    2.901391e+00
  1.091068e+01    2.895734e+00
  1.092655e+01    2.860300e+00
  1.094243e+01    2.863103e+00
  1.095830e+01    2.890802e+00
  1.097418e+01    2.854836e+00
  1.099005e+01    2.876744e+00
  1.100593e+01    2.864020e+00
  1.102180e+01    2.868207e+00
  1.103768e+01    2.857882e+00
  1.105356e+01    2.898318e+00
  1.106943e+01    2.854102e+00
  1.108531e+01    2.828335e+00
  1.110118e+01    2.866932e+00
  1.111706e+01    2.842803e+00
  1.113293e+01    2.878762e+00
  1.114881e+01    2.852855e+00
  1.116468e+01    2.810400e+00
  1.118056e+01    2.889147e+00
  1.119644e+01    2.876853e+00
  1.121231e+01    2.899484e+00
  1.122819e+01    2.854892e+00
  1.124406e+01    2.822029e+00
  1.125994e+01    2.841357e+00
  1.127581e+01    2.909879e+00
  1.129169e+01    2.830766e+00
  1.130756e+01    2.855238e+00
  1.132344e+01    2.852252e+00
  1.133932e+01    2.839978e+00
  1.135519e+01    2.850492e+00
  1.137107e+01    2.806314e+00
  1.138694e+01    2.824949e+00
  1.140282e+01    2.850140e+00
  1.141869e+01    2.814017e+00
  1.143457e+01    2.837388e+00
  1.145045e+01    2.833534e+00
  1.146632e+01    2.792158e+00
  1.148220e+01    2.793305e+00
  1.149807e+01    2.784386e+00
  1.151395e+01    2.777070e+00
  1.152982e+01    2.809000e+00
  1.154570e+01    2.773541e+00
  1.156157e+01    2.801000e+00
  1.157745e+01    2.765789e+00
  1.159333e+01    2.792044e+00
  1.160920e+01    2.781365e+00
  1.162508e+01    2.775610e+00
  1.164095e+01    2.787425e+00
  1.165683e+01    2.768536e+00
  1.167270e+01    2.741741e+00
  1.168858e+01    2.735839e+00
  1.170445e+01    2.791657e+00
  1.172033e+01    2.737800e+00
  1.173621e+01    2.757643e+00
  1.175208e+01    2.795028e+00
  1.176796e+01    2.754789e+00
  1.178383e+01    2.771142e+00
  1.179971e+01    2.739130e+00
  1.181558e+01    2.764669e+00
  1.183146e+01    2.788870e+00
  1.184733e+01    2.741678e+00
  1.186321e+01    2.719574e+00
  1.187909e+01    2.723924e+00
  1.189496e+01    2.721642e+00
  1.191084e+01    2.714678e+00
  1.192671e+01    2.684807e+00
  1.194259e+01    2.672235e+00
  1.195846e+01    2.715045e+00
  1.197434e+01    2.733017e+00
  1.199021e+01    2.703990e+00
  1.200609e+01    2.750005e+00
  1.202197e+01    2.732598e+00
  1.203784e+01    2.706186e+00
  1.205372e+01    2.698846e+00
  1.206959e+01    2.698542e+00
  1.208547e+01    2.690851e+00
  1.210134e+01    2.712867e+00
  1.211722e+01    2.707868e+00
  1.213309e+01    2.684006e+00
  1.214897e+01    2.695904e+00
  1.216485e+01    2.755341e+00
  1.218072e+01    2.705781e+00
  1.219660e+01    2.694492e+00
  1.221247e+01    2.729935e+00
  1.222835e+01    2.779959e+00
  1.224422e+01    2.709017e+00
  1.226010e+01    2.697323e+00
  1.227597e+01    2.748177e+00
  1.229185e+01    2.738150e+00
  1.230773e+01    2.714186e+00
  1.232360e+01    2.710442e+00
  1.233948e+01    2.698642e+00
  1.235535e+01    2.670065e+00
  1.237123e+01    2.686244e+00
  1.238710e+01    2.746443e+00
  1.240298e+01    2.707451e+00
  1.241886e+01    2.718366e+00
  1.243473e+01    2.735793e+00
  1.245061e+01    2.707086e+00
  1.246648e+01    2.704998e+00
  1.248236e+01    2.723204e+00
  1.249823e+01    2.695949e+00
  1.251411e+01    2.664272e+00
  1.252998e+01    2.724630e+00
  1.254586e+01    2.740983e+00
  1.256174e+01    2.708325e+00
  1.257761e+01    2.775987e+00
  1.259349e+01    2.793627e+00
  1.260936e+01    2.774200e+00
  1.262524e+01    2.784086e+00
  1.264111e+01    2.813749e+00
  1.265699e+01    2.787615e+00
  1.267286e+01    2.819494e+00
  1.268874e+01    2.837881e+00
  1.270462e+01    2.850180e+00
  1.272049e+01    2.849937e+00
  1.273637e+01    2.851266e+00
  1.275224e+01    2.873332e+00
  1.276812e+01    2.938138e+00
  1.278399e+01    2.980910e+00
  1.279987e+01    2.999182e+00
  1.281574e+01    3.094580e+00
  1.283162e+01    3.144221e+00
  1.284750e+01    3.234547e+00
  1.286337e+01    3.287369e+00
  1.287925e+01    3.377556e+00
  1.289512e+01    3.488318e+00
  1.291100e+01    3.647684e+00
  1.292687e+01    3.883859e+00
  1.294275e+01    4.088759e+00
  1.295862e+01    4.421518e+00
  1.297450e+01    4.779244e+00
  1.299038e+01    5.269611e+00
  1.300625e+01    6.022758e+00
  1.302213e+01    6.881636e+00
  1.303800e+01    7.878885e+00
  1.305388e+01    9.025300e+00
  1.306975e+01    1.038825e+01
  1.308563e+01    1.167419e+01
  1.310150e+01    1.279923e+01
  1.311738e+01    1.383082e+01
  1.313326e+01    1.495366e+01
  1.314913e+01    1.591265e+01
  1.316501e+01    1.645712e+01
  1.318088e+01    1.645638e+01
  1.319676e+01    1.555360e+01
  1.321263e+01    1.420571e+01
  1.322851e+01    1.236644e+01
  1.324438e+01    1.067358e+01
  1.326026e+01    9.085824e+00
  1.327614e+01    7.731147e+00
  1.329201e+01    6.753709e+00
  1.330789e+01    5.971596e+00
  1.332376e+01    5.258414e+00
  1.333964e+01    4.842895e+00
  1.335551e+01    4.446123e+00
  1.337139e+01    4.127811e+00
  1.338727e+01    3.875018e+00
  1.340314e+01    3.658890e+00
  1.341902e+01    3.535702e+00
  1.343489e+01    3.367275e+00
  1.345077e+01    3.221938e+00
  1.346664e+01    3.150484e+00
  1.348252e+01    3.047581e+00
  1.349839e+01    2.971898e+00
  1.351427e+01    2.886366e+00
  1.353015e+01    2.831976e+00
  1.354602e+01    2.830253e+00
  1.356190e+01    2.809532e+00
  1.357777e+01    2.771442e+00
  1.359365e+01    2.696329e+00
  1.360952e+01    2.656479e+00
  1.362540e+01    2.658454e+00
  1.364127e+01    2.640146e+00
  1.365715e+01    2.591050e+00
  1.367303e+01    2.571183e+00
  1.368890e+01    2.536363e+00
  1.370478e+01    2.576541e+00
  1.372065e+01    2.575139e+00
  1.373653e+01    2.526696e+00
  1.375240e+01    2.493263e+00
  1.376828e+01    2.521466e+00
  1.378415e+01    2.469084e+00
  1.380003e+01    2.487493e+00
  1.381591e+01    2.499997e+00
  1.383178e+01    2.459417e+00
  1.384766e+01    2.447245e+00
  1.386353e+01    2.455159e+00
  1.387941e+01    2.458749e+00
  1.389528e+01    2.407289e+00
  1.391116e+01    2.420903e+00
  1.392703e+01    2.422092e+00
  1.394291e+01    2.397504e+00
  1.395879e+01    2.371388e+00
  1.397466e+01    2.393313e+00
  1.399054e+01    2.404118e+00
  1.400641e+01    2.381029e+00
  1.402229e+01    2.348490e+00
  1.403816e+01    2.367435e+00
  1.405404e+01    2.362684e+00
  1.406991e+01    2.373204e+00
  1.408579e+01    2.413357e+00
  1.410167e+01    2.390650e+00
  1.411754e+01    2.370890e+00
  1.413342e+01    2.367642e+00
  1.414929e+01    2.329667e+00
  1.416517e+01    2.346932e+00
  1.418104e+01    2.347293e+00
  1.419692e+01    2.310904e+00
  1.421279e+01    2.238732e+00
  1.422867e+01    2.267191e+00
  1.424455e+01    2.280428e+00
  1.426042e+01    2.315168e+00
  1.427630e+01    2.293720e+00
  1.429217e+01    2.282053e+00
  1.430805e+01    2.240639e+00
  1.432392e+01    2.241667e+00
  1.433980e+01    2.294966e+00
  1.435568e+01    2.253786e+00
  1.437155e+01    2.257991e+00
  1.438743e+01    2.270112e+00
  1.440330e+01    2.253590e+00
  1.441918e+01    2.186938e+00
  1.443505e+01    2.201160e+00
  1.445093e+01    2.200900e+00
  1.446680e+01    2.237410e+00
  1.448268e+01    2.231536e+00
  1.449856e+01    2.243408e+00
  1.451443e+01    2.252013e+00
  1.453031e+01    2.250255e+00
  1.454618e+01    2.255095e+00
  1.456206e+01    2.243640e+00
  1.457793e+01    2.237378e+00
  1.459381e+01    2.251937e+00
  1.460968e+01    2.202835e+00
  1.462556e+01    2.206373e+00
  1.464144e+01    2.184440e+00
  1.465731e+01    2.192825e+00
  1.467319e+01    2.192688e+00
  1.468906e+01    2.195449e+00
  1.470494e+01    2.183759e+00
  1.472081e+01    2.161292e+00
  1.473669e+01    2.173644e+00
  1.475256e+01    2.220076e+00
  1.476844e+01    2.190521e+00
  1.478432e+01    2.203566e+00
  1.480019e+01    2.197579e+00
  1.481607e+01    2.217597e+00
  1.483194e+01    2.248257e+00
  1.484782e+01    2.242185e+00
  1.486369e+01    2.237912e+00
  1.487957e+01    2.212267e+00
  1.489544e+01    2.236166e+00
  1.491132e+01    2.270753e+00
  1.492720e+01    2.290058e+00
  1.494307e+01    2.261654e+00
  1.495895e+01    2.343800e+00
  1.497482e+01    2.354039e+00
  1.499070e+01    2.359843e+00
  1.500657e+01    2.446850e+00
  1.502245e+01    2.482359e+00
  1.503832e+01    2.591998e+00
  1.505420e+01    2.690435e+00
  1.507008e+01    2.836956e+00
  1.508595e+01    3.040917e+00
  1.510183e+01    3.252790e+00
  1.511770e+01    3.491927e+00
  1.513358e+01    3.800068e+00
  1.514945e+01    4.149940e+00
  1.516533e+01    4.600304e+00
  1.518120e+01    4.947489e+00
  1.519708e+01    5.155894e+00
  1.521296e+01    5.441006e+00
  1.522883e+01    5.704840e+00
  1.524471e+01    5.846555e+00
  1.526058e+01    5.821574e+00
  1.527646e+01    5.811489e+00
  1.529233e+01    5.451264e+00
  1.530821e+01    5.089830e+00
  1.532409e+01    4.636337e+00
  1.533996e+01    4.192116e+00
  1.535584e+01    3.780193e+00
  1.537171e+01    3.384627e+00
  1.538759e+01    3.122597e+00
  1.540346e+01    2.944306e+00
  1.541934e+01    2.762373e+00
  1.543521e+01    2.598082e+00
  1.545109e+01    2.481028e+00
  1.546697e+01    2.426510e+00
  1.548284e+01    2.362645e+00
  1.549872e+01    2.282760e+00
  1.551459e+01    2.243708e+00
  1.553047e+01    2.231012e+00
  1.554634e+01    2.212071e+00
  1.556222e+01    2.190674e+00
  1.557809e+01    2.125388e+00
  1.559397e+01    2.076618e+00
  1.560985e+01    2.057043e+00
  1.562572e+01    2.024700e+00
  1.564160e+01    2.024123e+00
  1.565747e+01    2.051869e+00
  1.567335e+01    2.024296e+00
  1.568922e+01    2.037854e+00
  1.570510e+01    1.988471e+00
  1.572097e+01    1.952713e+00
  1.573685e+01    1.966652e+00
  1.575273e+01    2.019356e+00
  1.576860e+01    2.018957e+00
  1.578448e+01    1.970582e+00
  1.580035e+01    1.952678e+00
  1.581623e+01    1.923650e+00
  1.583210e+01    1.935835e+00
  1.584798e+01    1.924289e+00
  1.586385e+01    1.939472e+00
  1.587973e+01    1.898450e+00
  1.589561e+01    1.914850e+00
  1.591148e+01    1.923876e+00
  1.592736e+01    1.886341e+00
  1.594323e+01    1.885609e+00
  1.595911e+01    1.878075e+00
  1.597498e+01    1.908085e+00
  1.599086e+01    1.910093e+00
  1.600673e+01    1.880500e+00
  1.602261e+01    1.882540e+00
  1.603849e+01    1.881846e+00
  1.605436e+01    1.841831e+00
  1.607024e+01    1.858153e+00
  1.608611e+01    1.850103e+00
  1.610199e+01    1.851775e+00
  1.611786e+01    1.841457e+00
  1.613374e+01    1.843161e+00
  1.614961e+01    1.866245e+00
  1.616549e+01    1.858221e+00
  1.618137e+01    1.844818e+00
  1.619724e+01    1.840243e+00
  1.621312e+01    1.820786e+00
  1.622899e+01    1.810320e+00
  1.624487e+01    1.811251e+00
  1.626074e+01    1.801591e+00
  1.627662e+01    1.766832e+00
  1.629250e+01    1.789803e+00
  1.630837e+01    1.797645e+00
  1.632425e+01    1.819189e+00
  1.634012e+01    1.800281e+00
  1.635600e+01    1.809473e+00
  1.637187e+01    1.767747e+00
  1.638775e+01    1.799073e+00
  1.640362e+01    1.789740e+00
  1.641950e+01    1.758628e+00
  1.643538e+01    1.790599e+00
  1.645125e+01    1.761352e+00
  1.646713e+01    1.737874e+00
  1.648300e+01    1.745110e+00
  1.649888e+01    1.769808e+00
  1.651475e+01    1.753644e+00
  1.653063e+01    1.783636e+00
  1.654650e+01    1.771592e+00
  1.656238e+01    1.739338e+00
  1.657826e+01    1.751172e+00
  1.659413e+01    1.738697e+00
  1.661001e+01    1.736718e+00
  1.662588e+01    1.750292e+00
  1.664176e+01    1.767859e+00
  1.665763e+01    1.740426e+00
  1.667351e+01    1.721658e+00
  1.668938e+01    1.701648e+00
  1.670526e+01    1.701231e+00
  1.672114e+01    1.710399e+00
  1.673701e+01    1.729036e+00
  1.675289e+01    1.724851e+00
  1.676876e+01    1.729326e+00
  1.678464e+01    1.725690e+00
  1.680051e+01    1.732370e+00
  1.681639e+01    1.768491e+00
  1.683226e+01    1.704972e+00
  1.684814e+01    1.657185e+00
  1.686402e+01    1.654473e+00
  1.687989e+01    1.681766e+00
  1.689577e+01    1.688776e+00
  1.691164e+01    1.662855e+00
  1.692752e+01    1.680052e+00
  1.694339e+01    1.708146e+00
  1.695927e+01    1.679858e+00
  1.697514e+01    1.688001e+00
  1.699102e+01    1.685647e+00
  1.700690e+01    1.661712e+00
  1.702277e+01    1.667200e+00
  1.703865e+01    1.654061e+00
  1.705452e+01    1.661903e+00
  1.707040e+01    1.612691e+00
  1.708627e+01    1.615876e+00
  1.710215e+01    1.617867e+00
  1.711802e+01    1.651064e+00
  1.713390e+01    1.617854e+00
  1.714978e+01    1.655733e+00
  1.716565e+01    1.649777e+00
  1.718153e+01    1.643812e+00
  1.719740e+01    1.631267e+00
  1.721328e+01    1.625443e+00
  1.722915e+01    1.629146e+00
  1.724503e+01    1.599661e+00
  1.726091e+01    1.590678e+00
  1.727678e+01    1.607296e+00
  1.729266e+01    1.617830e+00
  1.730853e+01    1.610579e+00
  1.732441e+01    1.613582e+00
  1.734028e+01    1.610340e+00
  1.735616e+01    1.612759e+00
  1.737203e+01    1.598475e+00
  1.738791e+01    1.574178e+00
  1.740379e+01    1.593361e+00
  1.741966e+01    1.589895e+00
  1.743554e+01    1.576832e+00
  1.745141e+01    1.611629e+00
  1.746729e+01    1.592061e+00
  1.748316e+01    1.595521e+00
  1.749904e+01    1.600108e+00
  1.751491e+01    1.603184e+00
  1.753079e+01    1.584631e+00
  1.754667e+01    1.565943e+00
  1.756254e+01    1.564118e+00
  1.757842e+01    1.582875e+00
  1.759429e+01    1.570463e+00
  1.761017e+01    1.569514e+00
  1.762604e+01    1.585838e+00
  1.764192e+01    1.563981e+00
  1.765779e+01    1.574317e+00
  1.767367e+01    1.574269e+00
  1.768955e+01    1.543184e+00
  1.770542e+01    1.535400e+00
  1.772130e+01    1.554595e+00
  1.773717e+01    1.586643e+00
  1.775305e+01    1.555262e+00
  1.776892e+01    1.551086e+00
  1.778480e+01    1.535037e+00
  1.780067e+01    1.518676e+00
  1.781655e+01    1.525035e+00
  1.783243e+01    1.519996e+00
  1.784830e+01    1.511945e+00
  1.786418e+01    1.522517e+00
  1.788005e+01    1.551688e+00
  1.789593e+01    1.543084e+00
  1.791180e+01    1.552580e+00
  1.792768e+01    1.547118e+00
  1.794355e+01    1.520625e+00
  1.795943e+01    1.496369e+00
  1.797531e+01    1.511471e+00
  1.799118e+01    1.533376e+00
  1.800706e+01    1.514904e+00
  1.802293e+01    1.525458e+00
  1.803881e+01    1.498788e+00
  1.805468e+01    1.504699e+00
  1.807056e+01    1.530224e+00
  1.808643e+01    1.511125e+00
  1.810231e+01    1.523558e+00
  1.811819e+01    1.487145e+00
  1.813406e+01    1.488008e+00
  1.814994e+01    1.504870e+00
  1.816581e+01    1.502550e+00
  1.818169e+01    1.487458e+00
  1.819756e+01    1.517291e+00
  1.821344e+01    1.506684e+00
  1.822932e+01    1.507080e+00
  1.824519e+01    1.465237e+00
  1.826107e+01    1.456738e+00
  1.827694e+01    1.455093e+00
  1.829282e+01    1.458555e+00
  1.830869e+01    1.479700e+00
  1.832457e+01    1.480381e+00
  1.834044e+01    1.478933e+00
  1.835632e+01    1.460966e+00
  1.837220e+01    1.484892e+00
  1.838807e+01    1.461863e+00
  1.840395e+01    1.444260e+00
  1.841982e+01    1.441719e+00
  1.843570e+01    1.451534e+00
  1.845157e+01    1.462620e+00
  1.846745e+01    1.456774e+00
  1.848332e+01    1.447752e+00
  1.849920e+01    1.413988e+00
  1.851508e+01    1.450210e+00
  1.853095e+01    1.438551e+00
  1.854683e+01    1.433941e+00
  1.856270e+01    1.438026e+00
  1.857858e+01    1.413712e+00
  1.859445e+01    1.396401e+00
  1.861033e+01    1.426092e+00
  1.862620e+01    1.438477e+00
  1.864208e+01    1.436780e+00
  1.865796e+01    1.463232e+00
  1.867383e+01    1.444894e+00
  1.868971e+01    1.435737e+00
  1.870558e+01    1.413229e+00
  1.872146e+01    1.438125e+00
  1.873733e+01    1.435288e+00
  1.875321e+01    1.439387e+00
  1.876908e+01    1.422203e+00
  1.878496e+01    1.399182e+00
  1.880084e+01    1.420813e+00
  1.881671e+01    1.417965e+00
  1.883259e+01    1.393659e+00
  1.884846e+01    1.390138e+00
  1.886434e+01    1.415423e+00
  1.888021e+01    1.400429e+00
  1.889609e+01    1.400628e+00
  1.891196e+01    1.369257e+00
  1.892784e+01    1.363679e+00
  1.894372e+01    1.405745e+00
  1.895959e+01    1.434094e+00
  1.897547e+01    1.414455e+00
  1.899134e+01    1.388940e+00
  1.900722e+01    1.400181e+00
  1.902309e+01    1.396536e+00
  1.903897e+01    1.387934e+00
  1.905484e+01    1.374253e+00
  1.907072e+01    1.371411e+00
  1.908660e+01    1.405249e+00
  1.910247e+01    1.395342e+00
  1.911835e+01    1.404304e+00
  1.913422e+01    1.370569e+00
  1.915010e+01    1.369358e+00
  1.916597e+01    1.371926e+00
  1.918185e+01    1.359691e+00
  1.919773e+01    1.371595e+00
  1.921360e+01    1.359608e+00
  1.922948e+01    1.368633e+00
  1.924535e+01    1.368234e+00
  1.926123e+01    1.376108e+00
  1.927710e+01    1.386155e+00
  1.929298e+01    1.373989e+00
  1.930885e+01    1.355360e+00
  1.932473e+01    1.346694e+00
  1.934061e+01    1.346728e+00
  1.935648e+01    1.330456e+00
  1.937236e+01    1.364725e+00
  1.938823e+01    1.348611e+00
  1.940411e+01    1.358662e+00
  1.941998e+01    1.344224e+00
  1.943586e+01    1.306600e+00
  1.945173e+01    1.316389e+00
  1.946761e+01    1.350237e+00
  1.948349e+01    1.342640e+00
  1.949936e+01    1.329963e+00
  1.951524e+01    1.322309e+00
  1.953111e+01    1.328447e+00
  1.954699e+01    1.341045e+00
  1.956286e+01    1.319209e+00
  1.957874e+01    1.324665e+00
  1.959461e+01    1.343897e+00
  1.961049e+01    1.317880e+00
  1.962637e+01    1.307954e+00
  1.964224e+01    1.333803e+00
  1.965812e+01    1.328483e+00
  1.967399e+01    1.305276e+00
  1.968987e+01    1.305151e+00
  1.970574e+01    1.305243e+00
  1.972162e+01    1.309966e+00
  1.973749e+01    1.302272e+00
  1.975337e+01    1.318162e+00
  1.976925e+01    1.327569e+00
  1.978512e+01    1.310057e+00
  1.980100e+01    1.296970e+00
  1.981687e+01    1.271683e+00
  1.983275e+01    1.264402e+00
  1.984862e+01    1.287700e+00
  1.986450e+01    1.295328e+00
  1.988037e+01    1.297022e+00
  1.989625e+01    1.288182e+00
  1.991213e+01    1.287482e+00
  1.992800e+01    1.298165e+00
  1.994388e+01    1.289391e+00
  1.995975e+01    1.277487e+00
  1.997563e+01    1.297472e+00
  1.999150e+01    1.293377e+00
  2.000738e+01    1.296908e+00
  2.002325e+01    1.279165e+00
  2.003913e+01    1.286501e+00
  2.005501e+01    1.295860e+00
  2.007088e+01    1.273597e+00
  2.008676e+01    1.266394e+00
  2.010263e+01    1.302532e+00
  2.011851e+01    1.304530e+00
  2.013438e+01    1.287966e+00
  2.015026e+01    1.280081e+00
  2.016614e+01    1.285103e+00
  2.018201e+01    1.277152e+00
  2.019789e+01    1.272169e+00
  2.021376e+01    1.251306e+00
  2.022964e+01    1.280099e+00
  2.024551e+01    1.276836e+00
  2.026139e+01    1.222896e+00
  2.027726e+01    1.246492e+00
  2.029314e+01    1.240899e+00
  2.030902e+01    1.271176e+00
  2.032489e+01    1.277091e+00
  2.034077e+01    1.288665e+00
  2.035664e+01    1.295105e+00
  2.037252e+01    1.273842e+00
  2.038839e+01    1.253526e+00
  2.040427e+01    1.234074e+00
  2.042014e+01    1.259238e+00
  2.043602e+01    1.270226e+00
  2.045190e+01    1.220637e+00
  2.046777e+01    1.246945e+00
  2.048365e+01    1.222165e+00
  2.049952e+01    1.229254e+00
  2.051540e+01    1.276598e+00
  2.053127e+01    1.242180e+00
  2.054715e+01    1.236187e+00
  2.056302e+01    1.250572e+00
  2.057890e+01    1.245765e+00
  2.059478e+01    1.234812e+00
  2.061065e+01    1.221667e+00
  2.062653e+01    1.225732e+00
  2.064240e+01    1.245265e+00
  2.065828e+01    1.252258e+00
  2.067415e+01    1.233633e+00
  2.069003e+01    1.237685e+00
  2.070590e+01    1.216989e+00
  2.072178e+01    1.226728e+00
  2.073766e+01    1.240767e+00
  2.075353e+01    1.237867e+00
  2.076941e+01    1.237265e+00
  2.078528e+01    1.237793e+00
  2.080116e+01    1.229154e+00
  2.081703e+01    1.237739e+00
  2.083291e+01    1.244658e+00
  2.084878e+01    1.209737e+00
  2.086466e+01    1.198132e+00
  2.088054e+01    1.232812e+00
  2.089641e+01    1.240204e+00
  2.091229e+01    1.236839e+00
  2.092816e+01    1.234721e+00
  2.094404e+01    1.213432e+00
  2.095991e+01    1.215845e+00
  2.097579e+01    1.212926e+00
  2.099166e+01    1.230996e+00
  2.100754e+01    1.230157e+00
  2.102342e+01    1.205779e+00
  2.103929e+01    1.210892e+00
  2.105517e+01    1.231980e+00
  2.107104e+01    1.234058e+00
  2.108692e+01    1.246640e+00
  2.110279e+01    1.236901e+00
  2.111867e+01    1.214415e+00
  2.113455e+01    1.241734e+00
  2.115042e+01    1.230670e+00
  2.116630e+01    1.253807e+00
  2.118217e+01    1.224215e+00
  2.119805e+01    1.229659e+00
  2.121392e+01    1.222895e+00
  2.122980e+01    1.219261e+00
  2.124567e+01    1.260030e+00
  2.126155e+01    1.233059e+00
  2.127743e+01    1.239326e+00
  2.129330e+01    1.268785e+00
  2.130918e+01    1.262415e+00
  2.132505e+01    1.302731e+00
  2.134093e+01    1.295862e+00
  2.135680e+01    1.251101e+00
  2.137268e+01    1.271094e+00
  2.138855e+01    1.294888e+00
  2.140443e+01    1.335218e+00
  2.142031e+01    1.369448e+00
  2.143618e+01    1.352650e+00
  2.145206e+01    1.339164e+00
  2.146793e+01    1.380713e+00
  2.148381e+01    1.391656e+00
  2.149968e+01    1.441087e+00
  2.151556e+01    1.463379e+00
  2.153143e+01    1.490638e+00
  2.154731e+01    1.524395e+00
  2.156319e+01    1.589662e+00
  2.157906e+01    1.611037e+00
  2.159494e+01    1.681145e+00
  2.161081e+01    1.756347e+00
  2.162669e+01    1.855443e+00
  2.164256e+01    1.997867e+00
  2.165844e+01    2.133132e+00
  2.167431e+01    2.349773e+00
  2.169019e+01    2.540630e+00
  2.170607e+01    2.799066e+00
  2.172194e+01    3.181947e+00
  2.173782e+01    3.596322e+00
  2.175369e+01    4.073396e+00
  2.176957e+01    4.652580e+00
  2.178544e+01    5.287039e+00
  2.180132e+01    5.990342e+00
  2.181719e+01    6.676679e+00
  2.183307e+01    7.351573e+00
  2.184895e+01    7.897796e+00
  2.186482e+01    8.463061e+00
  2.188070e+01    8.849230e+00
  2.189657e+01    8.940272e+00
  2.191245e+01    8.766724e+00
  2.192832e+01    8.214499e+00
  2.194420e+01    7.440618e+00
  2.196007e+01    6.414739e+00
  2.197595e+01    5.567663e+00
  2.199183e+01    4.813138e+00
  2.200770e+01    4.155426e+00
  2.202358e+01    3.615481e+00
  2.203945e+01    3.157792e+00
  2.205533e+01    2.806324e+00
  2.207120e+01    2.540342e+00
  2.208708e+01    2.335605e+00
  2.210296e+01    2.147740e+00
  2.211883e+01    1.982596e+00
  2.213471e+01    1.898397e+00
  2.215058e+01    1.804149e+00
  2.216646e+01    1.703451e+00
  2.218233e+01    1.604852e+00
  2.219821e+01    1.568321e+00
  2.221408e+01    1.504765e+00
  2.222996e+01    1.450418e+00
  2.224584e+01    1.389262e+00
  2.226171e+01    1.346779e+00
  2.227759e+01    1.329942e+00
  2.229346e+01    1.305126e+00
  2.230934e+01    1.317973e+00
  2.232521e+01    1.287901e+00
  2.234109e+01    1.265559e+00
  2.235696e+01    1.249911e+00
  2.237284e+01    1.224715e+00
  2.238872e+01    1.213550e+00
  2.240459e+01    1.205231e+00
  2.242047e+01    1.184567e+00
  2.243634e+01    1.179828e+00
  2.245222e+01    1.181381e+00
  2.246809e+01    1.162407e+00
  2.248397e+01    1.162328e+00
  2.249984e+01    1.142106e+00
  2.251572e+01    1.148239e+00
  2.253160e+01    1.156346e+00
  2.254747e+01    1.119989e+00
  2.256335e+01    1.116197e+00
  2.257922e+01    1.126557e+00
  2.259510e+01    1.117327e+00
  2.261097e+01    1.118625e+00
  2.262685e+01    1.093816e+00
  2.264272e+01    1.106640e+00
  2.265860e+01    1.088732e+00
  2.267448e+01    1.086477e+00
  2.269035e+01    1.074178e+00
  2.270623e+01    1.066792e+00
  2.272210e+01    1.066845e+00
  2.273798e+01    1.073315e+00
  2.275385e+01    1.087851e+00
  2.276973e+01    1.061780e+00
  2.278560e+01    1.058196e+00
  2.280148e+01    1.044678e+00
  2.281736e+01    1.052562e+00
  2.283323e+01    1.042442e+00
  2.284911e+01    1.041774e+00
  2.286498e+01    1.045637e+00
  2.288086e+01    1.048841e+00
  2.289673e+01    1.064129e+00
  2.291261e+01    1.045144e+00
  2.292848e+01    1.046800e+00
  2.294436e+01    1.036792e+00
  2.296024e+01    1.020818e+00
  2.297611e+01    1.020137e+00
  2.299199e+01    1.027790e+00
  2.300786e+01    1.023762e+00
  2.302374e+01    1.025161e+00
  2.303961e+01    1.029398e+00
  2.305549e+01    1.020265e+00
  2.307137e+01    1.009653e+00
  2.308724e+01    9.983119e-01
  2.310312e+01    9.964197e-01
  2.311899e+01    1.007076e+00
  2.313487e+01    1.017784e+00
  2.315074e+01    1.019433e+00
  2.316662e+01    1.016405e+00
  2.318249e+01    9.877193e-01
  2.319837e+01    9.744198e-01
  2.321425e+01    9.671762e-01
  2.323012e+01    1.000559e+00
  2.324600e+01    1.008690e+00
  2.326187e+01    1.007010e+00
  2.327775e+01    9.911103e-01
  2.329362e+01    9.891031e-01
  2.330950e+01    9.980293e-01
  2.332537e+01    9.889115e-01
  2.334125e+01    9.860668e-01
  2.335713e+01    9.787251e-01
  2.337300e+01    9.870461e-01
  2.338888e+01    1.004697e+00
  2.340475e+01    9.967101e-01
  2.342063e+01    9.737622e-01
  2.343650e+01    9.648059e-01
  2.345238e+01    9.649608e-01
  2.346825e+01    9.641752e-01
  2.348413e+01    9.734495e-01
  2.350001e+01    9.895284e-01
  2.351588e+01    9.682860e-01
  2.353176e+01    9.601960e-01
  2.354763e+01    9.515251e-01
  2.356351e+01    9.567566e-01
  2.357938e+01    9.621403e-01
  2.359526e+01    9.772231e-01
  2.361113e+01    9.683486e-01
  2.362701e+01    9.598862e-01
  2.364289e+01    9.577386e-01
  2.365876e+01    9.515699e-01
  2.367464e+01    9.230422e-01
  2.369051e+01    9.540631e-01
  2.370639e+01    9.461852e-01
  2.372226e+01    9.447228e-01
  2.373814e+01    9.404893e-01
  2.375401e+01    9.264575e-01
  2.376989e+01    9.313625e-01
  2.378577e+01    9.379799e-01
  2.380164e+01    9.181260e-01
  2.381752e+01    9.065446e-01
  2.383339e+01    9.064483e-01
  2.384927e+01    9.091293e-01
  2.386514e+01    8.983527e-01
  2.388102e+01    9.126937e-01
  2.389689e+01    9.333454e-01
  2.391277e+01    9.163619e-01
  2.392865e+01    9.210739e-01
  2.394452e+01    9.058074e-01
  2.396040e+01    8.909141e-01
  2.397627e+01    9.093031e-01
  2.399215e+01    9.080735e-01
  2.400802e+01    9.183519e-01
  2.402390e+01    9.003215e-01
  2.403978e+01    8.762789e-01
  2.405565e+01    8.856873e-01
  2.407153e+01    9.034988e-01
  2.408740e+01    8.785405e-01
  2.410328e+01    8.705094e-01
  2.411915e+01    9.002146e-01
  2.413503e+01    8.955020e-01
  2.415090e+01    8.766982e-01
  2.416678e+01    8.919774e-01
  2.418266e+01    8.798226e-01
  2.419853e+01    8.589013e-01
  2.421441e+01    8.699038e-01
  2.423028e+01    8.812137e-01
  2.424616e+01    8.866106e-01
  2.426203e+01    9.011452e-01
  2.427791e+01    8.977609e-01
  2.429378e+01    8.894554e-01
  2.430966e+01    8.942844e-01
  2.432554e+01    9.024320e-01
  2.434141e+01    9.160804e-01
  2.435729e+01    8.928788e-01
  2.437316e+01    8.999333e-01
  2.438904e+01    8.913596e-01
  2.440491e+01    8.888154e-01
  2.442079e+01    9.037377e-01
  2.443666e+01    9.087511e-01
  2.445254e+01    8.890945e-01
  2.446842e+01    8.957722e-01
  2.448429e+01    8.963060e-01
  2.450017e+01    9.092157e-01
  2.451604e+01    9.045971e-01
  2.453192e+01    9.033295e-01
  2.454779e+01    8.937030e-01
  2.456367e+01    8.930488e-01
  2.457954e+01    8.813449e-01
  2.459542e+01    8.769754e-01
  2.461130e+01    8.885862e-01
  2.462717e+01    8.946326e-01
  2.464305e+01    9.070075e-01
  2.465892e+01    8.895222e-01
  2.467480e+01    8.937556e-01
  2.469067e+01    8.915380e-01
  2.470655e+01    8.922521e-01
  2.472242e+01    8.905613e-01
  2.473830e+01    8.994492e-01
  2.475418e+01    8.944952e-01
  2.477005e+01    8.891767e-01
  2.478593e+01    8.961889e-01
  2.480180e+01    9.159792e-01
  2.481768e+01    9.071601e-01
  2.483355e+01    8.718687e-01
  2.484943e+01    8.851352e-01
  2.486530e+01    8.931751e-01
  2.488118e+01    8.915067e-01
  2.489706e+01    9.035271e-01
  2.491293e+01    8.838118e-01
  2.492881e+01    9.124724e-01
  2.494468e+01    8.912308e-01
  2.496056e+01    9.011280e-01
  2.497643e+01    9.109050e-01
  2.499231e+01    8.871129e-01
  2.500819e+01    8.868049e-01
  2.502406e+01    8.966264e-01
  2.503994e+01    9.092228e-01
  2.505581e+01    9.043959e-01
  2.507169e+01    9.091918e-01
  2.508756e+01    9.096911e-01
  2.510344e+01    9.065207e-01
  2.511931e+01    9.069723e-01
  2.513519e+01    8.964506e-01
  2.515107e+01    9.175087e-01
  2.516694e+01    9.161436e-01
  2.518282e+01    9.260989e-01
  2.519869e+01    9.377517e-01
  2.521457e+01    9.493144e-01
  2.523044e+01    9.340375e-01
  2.524632e+01    9.215151e-01
  2.526219e+01    9.466754e-01
  2.527807e+01    9.469972e-01
  2.529395e+01    9.495372e-01
  2.530982e+01    9.735970e-01
  2.532570e+01    9.727061e-01
  2.534157e+01    9.550233e-01
  2.535745e+01    9.681077e-01
  2.537332e+01    9.889171e-01
  2.538920e+01    9.747683e-01
  2.540507e+01    1.011617e+00
  2.542095e+01    1.035889e+00
  2.543683e+01    1.039183e+00
  2.545270e+01    1.035001e+00
  2.546858e+01    1.056375e+00
  2.548445e+01    1.065113e+00
  2.550033e+01    1.068369e+00
  2.551620e+01    1.068906e+00
  2.553208e+01    1.099533e+00
  2.554795e+01    1.110613e+00
  2.556383e+01    1.128195e+00
  2.557971e+01    1.173354e+00
  2.559558e+01    1.202474e+00
  2.561146e+01    1.233620e+00
  2.562733e+01    1.258427e+00
  2.564321e+01    1.317617e+00
  2.565908e+01    1.370291e+00
  2.567496e+01    1.441860e+00
  2.569083e+01    1.520824e+00
  2.570671e+01    1.623724e+00
  2.572259e+01    1.755167e+00
  2.573846e+01    1.884013e+00
  2.575434e+01    2.071830e+00
  2.577021e+01    2.293048e+00
  2.578609e+01    2.540465e+00
  2.580196e+01    2.902649e+00
  2.581784e+01    3.241379e+00
  2.583371e+01    3.735927e+00
  2.584959e+01    4.291930e+00
  2.586547e+01    4.858719e+00
  2.588134e+01    5.386099e+00
  2.589722e+01    5.941856e+00
  2.591309e+01    6.502696e+00
  2.592897e+01    6.818067e+00
  2.594484e+01    7.082072e+00
  2.596072e+01    7.218244e+00
  2.597660e+01    6.969841e+00
  2.599247e+01    6.463803e+00
  2.600835e+01    5.880404e+00
  2.602422e+01    5.179220e+00
  2.604010e+01    4.552748e+00
  2.605597e+01    3.984669e+00
  2.607185e+01    3.395592e+00
  2.608772e+01    2.986163e+00
  2.610360e+01    2.624098e+00
  2.611948e+01    2.350513e+00
  2.613535e+01    2.127570e+00
  2.615123e+01    1.937766e+00
  2.616710e+01    1.786245e+00
  2.618298e+01    1.676426e+00
  2.619885e+01    1.589883e+00
  2.621473e+01    1.480115e+00
  2.623060e+01    1.433619e+00
  2.624648e+01    1.345054e+00
  2.626236e+01    1.268996e+00
  2.627823e+01    1.253949e+00
  2.629411e+01    1.227846e+00
  2.630998e+01    1.158471e+00
  2.632586e+01    1.166116e+00
  2.634173e+01    1.152845e+00
  2.635761e+01    1.105831e+00
  2.637348e+01    1.099725e+00
  2.638936e+01    1.059900e+00
  2.640524e+01    1.043630e+00
  2.642111e+01    1.061889e+00
  2.643699e+01    1.051851e+00
  2.645286e+01    1.040241e+00
  2.646874e+01    1.043643e+00
  2.648461e+01    9.967800e-01
  2.650049e+01    1.011643e+00
  2.651636e+01    1.001192e+00
  2.653224e+01    9.828330e-01
  2.654812e+01    1.016478e+00
  2.656399e+01    1.012100e+00
  2.657987e+01    9.943783e-01
  2.659574e+01    9.816775e-01
  2.661162e+01    9.973804e-01
  2.662749e+01    9.878181e-01
  2.664337e+01    9.686275e-01
  2.665924e+01    9.781087e-01
  2.667512e+01    9.604483e-01
  2.669100e+01    9.820523e-01
  2.670687e+01    9.807275e-01
  2.672275e+01    9.591733e-01
  2.673862e+01    9.557970e-01
  2.675450e+01    9.760452e-01
  2.677037e+01    9.897708e-01
  2.678625e+01    9.672205e-01
  2.680212e+01    9.682841e-01
  2.681800e+01    9.653081e-01
  2.683388e+01    9.803647e-01
  2.684975e+01    9.756235e-01
  2.686563e+01    9.740964e-01
  2.688150e+01    9.819651e-01
  2.689738e+01    1.005141e+00
  2.691325e+01    1.022218e+00
  2.692913e+01    1.008646e+00
  2.694501e+01    1.038703e+00
  2.696088e+01    1.060272e+00
  2.697676e+01    1.088103e+00
  2.699263e+01    1.092226e+00
  2.700851e+01    1.120425e+00
  2.702438e+01    1.153446e+00
  2.704026e+01    1.210011e+00
  2.705613e+01    1.261870e+00
  2.707201e+01    1.356335e+00
  2.708789e+01    1.445076e+00
  2.710376e+01    1.511714e+00
  2.711964e+01    1.631016e+00
  2.713551e+01    1.758112e+00
  2.715139e+01    1.848078e+00
  2.716726e+01    1.985050e+00
  2.718314e+01    2.087694e+00
  2.719901e+01    2.162262e+00
  2.721489e+01    2.202947e+00
  2.723077e+01    2.161788e+00
  2.724664e+01    2.108412e+00
  2.726252e+01    1.973122e+00
  2.727839e+01    1.816941e+00
  2.729427e+01    1.682226e+00
  2.731014e+01    1.566943e+00
  2.732602e+01    1.440040e+00
  2.734189e+01    1.349103e+00
  2.735777e+01    1.267706e+00
  2.737365e+01    1.197934e+00
  2.738952e+01    1.159754e+00
  2.740540e+01    1.128203e+00
  2.742127e+01    1.101167e+00
  2.743715e+01    1.058391e+00
  2.745302e+01    1.052543e+00
  2.746890e+01    1.025813e+00
  2.748477e+01    9.951823e-01
  2.750065e+01    9.886414e-01
  2.751653e+01    9.811074e-01
  2.753240e+01    9.700989e-01
  2.754828e+01    9.843269e-01
  2.756415e+01    9.471011e-01
  2.758003e+01    9.243775e-01
  2.759590e+01    9.426812e-01
  2.761178e+01    9.418278e-01
  2.762765e+01    9.295085e-01
  2.764353e+01    9.130656e-01
  2.765941e+01    9.077393e-01
  2.767528e+01    9.204251e-01
  2.769116e+01    9.291264e-01
  2.770703e+01    8.951036e-01
  2.772291e+01    8.904796e-01
  2.773878e+01    8.860686e-01
  2.775466e+01    8.925322e-01
  2.777054e+01    8.985472e-01
  2.778641e+01    8.743747e-01
  2.780229e+01    8.822917e-01
  2.781816e+01    8.793626e-01
  2.783404e+01    8.565485e-01
  2.784991e+01    8.727538e-01
  2.786579e+01    8.944403e-01
  2.788166e+01    9.149579e-01
  2.789754e+01    9.036349e-01
  2.791342e+01    8.913838e-01
  2.792929e+01    8.736427e-01
  2.794517e+01    8.674217e-01
  2.796104e+01    8.671657e-01
  2.797692e+01    8.796359e-01
  2.799279e+01    8.834110e-01
  2.800867e+01    9.051120e-01
  2.802454e+01    9.171646e-01
  2.804042e+01    8.790730e-01
  2.805630e+01    8.588738e-01
  2.807217e+01    8.704637e-01
  2.808805e+01    8.754433e-01
  2.810392e+01    8.580476e-01
  2.811980e+01    8.649872e-01
  2.813567e+01    8.605120e-01
  2.815155e+01    8.534215e-01
  2.816742e+01    8.474968e-01
  2.818330e+01    8.403211e-01
  2.819918e+01    8.384705e-01
  2.821505e+01    8.487926e-01
  2.823093e+01    8.469031e-01
  2.824680e+01    8.400159e-01
  2.826268e+01    8.583853e-01
  2.827855e+01    8.654835e-01
  2.829443e+01    8.685372e-01
  2.831030e+01    8.439344e-01
  2.832618e+01    8.273633e-01
  2.834206e+01    8.184991e-01
  2.835793e+01    8.292779e-01
  2.837381e+01    8.418420e-01
  2.838968e+01    8.392543e-01
  2.840556e+01    8.460123e-01
  2.842143e+01    8.457335e-01
  2.843731e+01    8.529519e-01
  2.845318e+01    8.537537e-01
  2.846906e+01    8.666480e-01
  2.848494e+01    8.374706e-01
  2.850081e+01    8.365246e-01
  2.851669e+01    8.330347e-01
  2.853256e+01    8.346214e-01
  2.854844e+01    8.539653e-01
  2.856431e+01    8.287529e-01
  2.858019e+01    8.177949e-01
  2.859606e+01    8.414539e-01
  2.861194e+01    8.364705e-01
  2.862782e+01    8.257097e-01
  2.864369e+01    7.966446e-01
  2.865957e+01    8.227772e-01
  2.867544e+01    8.335763e-01
  2.869132e+01    8.306737e-01
  2.870719e+01    8.172240e-01
  2.872307e+01    8.384372e-01
  2.873895e+01    8.245599e-01
  2.875482e+01    8.137414e-01
  2.877070e+01    8.471008e-01
  2.878657e+01    8.388533e-01
  2.880245e+01    8.302360e-01
  2.881832e+01    8.365881e-01
  2.883420e+01    8.277431e-01
  2.885007e+01    8.292426e-01
  2.886595e+01    8.327552e-01
  2.888183e+01    8.425578e-01
  2.889770e+01    8.425034e-01
  2.891358e+01    8.421397e-01
  2.892945e+01    8.276964e-01
  2.894533e+01    8.096626e-01
  2.896120e+01    8.271483e-01
  2.897708e+01    8.305180e-01
  2.899295e+01    8.249228e-01
  2.900883e+01    8.273799e-01
  2.902471e+01    8.264276e-01
  2.904058e+01    8.037454e-01
  2.905646e+01    8.133602e-01
  2.907233e+01    8.212240e-01
  2.908821e+01    8.344718e-01
  2.910408e+01    8.205922e-01
  2.911996e+01    8.225890e-01
  2.913583e+01    8.221335e-01
  2.915171e+01    8.077404e-01
  2.916759e+01    8.289269e-01
  2.918346e+01    8.116488e-01
  2.919934e+01    7.973049e-01
  2.921521e+01    8.133529e-01
  2.923109e+01    8.256704e-01
  2.924696e+01    8.169658e-01
  2.926284e+01    8.102651e-01
  2.927871e+01    8.015012e-01
  2.929459e+01    7.992117e-01
  2.931047e+01    8.102701e-01
  2.932634e+01    8.038660e-01
  2.934222e+01    8.135111e-01
  2.935809e+01    8.179249e-01
  2.937397e+01    7.959805e-01
  2.938984e+01    8.268026e-01
  2.940572e+01    8.389697e-01
  2.942159e+01    8.373985e-01
  2.943747e+01    8.158100e-01
  2.945335e+01    7.883571e-01
  2.946922e+01    7.907937e-01
  2.948510e+01    8.015375e-01
  2.950097e+01    8.170483e-01
  2.951685e+01    7.931704e-01
  2.953272e+01    7.957561e-01
  2.954860e+01    8.024629e-01
  2.956447e+01    8.060452e-01
  2.958035e+01    8.129246e-01
  2.959623e+01    7.987377e-01
  2.961210e+01    8.057234e-01
  2.962798e+01    8.004844e-01
  2.964385e+01    8.018188e-01
  2.965973e+01    7.915450e-01
  2.967560e+01    8.044376e-01
  2.969148e+01    8.052534e-01
  2.970736e+01    8.001229e-01
  2.972323e+01    7.681670e-01
  2.973911e+01    7.848684e-01
  2.975498e+01    7.886981e-01
  2.977086e+01    8.066543e-01
  2.978673e+01    8.071267e-01
  2.980261e+01    8.081213e-01
  2.981848e+01    7.814413e-01
  2.983436e+01    7.872215e-01
  2.985024e+01    8.024872e-01
  2.986611e+01    7.964220e-01
  2.988199e+01    7.922029e-01
  2.989786e+01    7.877696e-01
  2.991374e+01    8.117164e-01
  2.992961e+01    8.062047e-01
  2.994549e+01    7.821756e-01
  2.996136e+01    7.543510e-01
  2.997724e+01    7.871933e-01
  2.999312e+01    7.918851e-01
  3.000899e+01    8.075176e-01
  3.002487e+01    8.061909e-01
  3.004074e+01    7.915680e-01
  3.005662e+01    8.188407e-01
  3.007249e+01    8.172871e-01
  3.008837e+01    8.049118e-01
  3.010424e+01    8.024622e-01
  3.012012e+01    7.956233e-01
  3.013600e+01    7.871630e-01
  3.015187e+01    7.885876e-01
  3.016775e+01    8.025196e-01
  3.018362e+01    7.920827e-01
  3.019950e+01    7.922634e-01
  3.021537e+01    7.749008e-01
  3.023125e+01    7.828392e-01
  3.024712e+01    7.623408e-01
  3.026300e+01    7.677284e-01
  3.027888e+01    7.837356e-01
  3.029475e+01    8.120608e-01
  3.031063e+01    7.853582e-01
  3.032650e+01    7.668518e-01
  3.034238e+01    7.824704e-01
  3.035825e+01    7.944185e-01
  3.037413e+01    7.824604e-01
  3.039000e+01    7.873337e-01
  3.040588e+01    7.999538e-01
  3.042176e+01    7.789277e-01
  3.043763e+01    7.714021e-01
  3.045351e+01    7.844439e-01
  3.046938e+01    8.018934e-01
  3.048526e+01    8.069066e-01
  3.050113e+01    7.708414e-01
  3.051701e+01    7.621678e-01
  3.053288e+01    7.863749e-01
  3.054876e+01    8.096786e-01
  3.056464e+01    7.890496e-01
  3.058051e+01    7.715717e-01
  3.059639e+01    7.703062e-01
  3.061226e+01    7.728204e-01
  3.062814e+01    7.831260e-01
  3.064401e+01    7.785649e-01
  3.065989e+01    7.573786e-01
  3.067577e+01    7.690094e-01
  3.069164e+01    7.951860e-01
  3.070752e+01    8.005999e-01
  3.072339e+01    7.981053e-01
  3.073927e+01    8.006745e-01
  3.075514e+01    7.695273e-01
  3.077102e+01    7.767398e-01
  3.078689e+01    7.771075e-01
  3.080277e+01    7.959914e-01
  3.081865e+01    7.812738e-01
  3.083452e+01    7.875528e-01
  3.085040e+01    7.828066e-01
  3.086627e+01    7.836055e-01
  3.088215e+01    7.836136e-01
  3.089802e+01    7.879927e-01
  3.091390e+01    7.721329e-01
  3.092977e+01    7.759703e-01
  3.094565e+01    7.942060e-01
  3.096153e+01    7.862926e-01
  3.097740e+01    7.609109e-01
  3.099328e+01    7.722222e-01
  3.100915e+01    8.022453e-01
  3.102503e+01    8.077337e-01
  3.104090e+01    7.838882e-01
  3.105678e+01    7.895375e-01
  3.107265e+01    7.774565e-01
  3.108853e+01    7.830123e-01
  3.110441e+01    8.139327e-01
  3.112028e+01    7.941853e-01
  3.113616e+01    7.998242e-01
  3.115203e+01    8.226577e-01
  3.116791e+01    8.213282e-01
  3.118378e+01    7.986643e-01
  3.119966e+01    7.975814e-01
  3.121553e+01    8.031917e-01
  3.123141e+01    7.887249e-01
  3.124729e+01    8.077900e-01
  3.126316e+01    8.143140e-01
  3.127904e+01    8.173842e-01
  3.129491e+01    8.160315e-01
  3.131079e+01    7.930020e-01
  3.132666e+01    7.808143e-01
  3.134254e+01    8.019383e-01
  3.135841e+01    8.171139e-01
  3.137429e+01    8.330615e-01
  3.139017e+01    8.229774e-01
  3.140604e+01    8.235028e-01
  3.142192e+01    8.109886e-01
  3.143779e+01    8.075111e-01
  3.145367e+01    7.966559e-01
  3.146954e+01    8.017655e-01
  3.148542e+01    8.356875e-01
  3.150129e+01    8.374005e-01
  3.151717e+01    8.454102e-01
  3.153305e+01    8.465580e-01
  3.154892e+01    8.720537e-01
  3.156480e+01    8.530600e-01
  3.158067e+01    8.765561e-01
  3.159655e+01    8.894250e-01
  3.161242e+01    9.058424e-01
  3.162830e+01    9.144263e-01
  3.164418e+01    9.188933e-01
  3.166005e+01    9.318841e-01
  3.167593e+01    9.542722e-01
  3.169180e+01    9.770730e-01
  3.170768e+01    1.033756e+00
  3.172355e+01    1.060997e+00
  3.173943e+01    1.126626e+00
  3.175530e+01    1.192616e+00
  3.177118e+01    1.261873e+00
  3.178706e+01    1.368241e+00
  3.180293e+01    1.463323e+00
  3.181881e+01    1.604561e+00
  3.183468e+01    1.748068e+00
  3.185056e+01    1.867404e+00
  3.186643e+01    2.010120e+00
  3.188231e+01    2.095582e+00
  3.189818e+01    2.124246e+00
  3.191406e+01    2.065931e+00
  3.192994e+01    2.016735e+00
  3.194581e+01    1.957371e+00
  3.196169e+01    1.813139e+00
  3.197756e+01    1.653883e+00
  3.199344e+01    1.546969e+00
  3.200931e+01    1.421644e+00
  3.202519e+01    1.304037e+00
  3.204106e+01    1.206579e+00
  3.205694e+01    1.156562e+00
  3.207282e+01    1.116833e+00
  3.208869e+01    1.050115e+00
  3.210457e+01    9.977229e-01
  3.212044e+01    9.810277e-01
  3.213632e+01    9.406747e-01
  3.215219e+01    9.168627e-01
  3.216807e+01    9.142255e-01
  3.218394e+01    9.067878e-01
  3.219982e+01    8.840884e-01
  3.221570e+01    8.344653e-01
  3.223157e+01    8.261440e-01
  3.224745e+01    8.458993e-01
  3.226332e+01    8.622192e-01
  3.227920e+01    8.185641e-01
  3.229507e+01    8.036945e-01
  3.231095e+01    8.124120e-01
  3.232682e+01    8.088705e-01
  3.234270e+01    8.216460e-01
  3.235858e+01    8.142616e-01
  3.237445e+01    7.945321e-01
  3.239033e+01    8.134938e-01
  3.240620e+01    7.936810e-01
  3.242208e+01    7.745742e-01
  3.243795e+01    7.796004e-01
  3.245383e+01    7.766548e-01
  3.246970e+01    7.824093e-01
  3.248558e+01    7.672988e-01
  3.250146e+01    7.717732e-01
  3.251733e+01    7.720801e-01
  3.253321e+01    7.643713e-01
  3.254908e+01    7.934032e-01
