# == pyFAI calibration ==
# Distance Sample to Detector: 0.3999999939076516 m
# PONI: 9.750e-02, 1.135e-01 m
# Rotations: -0.000175 0.000000 -0.000000 rad
# 
# == Fit2d calibration ==
# Distance Sample-beamCenter: 400.000 mm
# Center: x=1514.000, y=1300.000 pix
# Tilt: 0.010 deg  TiltPlanRot: 0.010 deg
# 
# Detector Detector	 Spline= None	 PixelSize= 7.500e-05, 7.500e-05 m
#    Detector has a mask: False 
#    Detector has a dark current: False 
#    detector has a flat field: False 
# 
# Wavelength: 6.888e-11 m
# Mask applied: user provided
# Dark current applied: False
# Flat field applied: False
# Polarization factor: 0.99
# Normalization factor: 1.0
# --> /home/myspot/data/2024_07_Rosario/Ru-CGO-ex/2024-07-27_003_Ru-CGO-ex_Reaction_dwell_000023_data_000059.dat
#       q_nm^-1             I 
  2.003187e-02    1.424646e-01
  3.590745e-02    3.430026e-02
  5.178302e-02    6.857210e-02
  6.765859e-02    4.632000e-02
  8.353417e-02    1.970544e-01
  9.940974e-02    1.137280e-01
  1.152853e-01    9.989391e-02
  1.311609e-01    1.050093e-01
  1.470365e-01    5.389620e-02
  1.629120e-01    4.720474e-02
  1.787876e-01    7.260875e-02
  1.946632e-01    4.261428e-02
  2.105388e-01    7.242126e-02
  2.264143e-01    5.815247e-02
  2.422899e-01    1.260834e-02
  2.581655e-01    1.725031e-02
  2.740411e-01    4.266502e-02
  2.899166e-01    3.139134e-02
  3.057922e-01    4.558733e-02
  3.216678e-01    2.137941e-02
  3.375433e-01    1.454952e-02
  3.534189e-01    7.268039e-02
  3.692945e-01    3.879460e-02
  3.851701e-01    3.640056e-02
  4.010456e-01    4.817139e-02
  4.169212e-01    6.054178e-02
  4.327968e-01    7.531875e-02
  4.486724e-01    4.403925e-02
  4.645479e-01    3.206798e-02
  4.804235e-01    2.023808e-02
  4.962991e-01    3.302391e-02
  5.121747e-01    4.276683e-02
  5.280502e-01    4.135929e-02
  5.439258e-01    2.889353e-02
  5.598014e-01    3.773816e-02
  5.756770e-01    6.163773e-02
  5.915525e-01    7.487500e-02
  6.074281e-01    5.777829e-02
  6.233037e-01    4.095067e-02
  6.391793e-01    3.814510e-02
  6.550548e-01    5.171011e-02
  6.709304e-01    5.118963e-02
  6.868060e-01    4.169166e-02
  7.026815e-01    4.571833e-02
  7.185571e-01    6.773753e-02
  7.344327e-01    7.266001e-02
  7.503083e-01    5.672317e-02
  7.661838e-01    7.151438e-02
  7.820594e-01    7.906930e-02
  7.979350e-01    1.237699e-01
  8.138106e-01    2.101444e-01
  8.296861e-01    3.235116e-01
  8.455617e-01    3.582168e-01
  8.614373e-01    4.198323e-01
  8.773129e-01    5.390462e-01
  8.931884e-01    6.620913e-01
  9.090640e-01    6.490542e-01
  9.249396e-01    7.624648e-01
  9.408152e-01    8.160163e-01
  9.566907e-01    9.218416e-01
  9.725663e-01    1.026335e+00
  9.884419e-01    1.076897e+00
  1.004317e+00    1.236625e+00
  1.020193e+00    1.367224e+00
  1.036069e+00    1.369938e+00
  1.051944e+00    1.450979e+00
  1.067820e+00    1.445079e+00
  1.083695e+00    1.543787e+00
  1.099571e+00    1.551386e+00
  1.115446e+00    1.600847e+00
  1.131322e+00    1.570396e+00
  1.147198e+00    1.610883e+00
  1.163073e+00    1.714380e+00
  1.178949e+00    1.739192e+00
  1.194824e+00    1.792164e+00
  1.210700e+00    2.022948e+00
  1.226575e+00    2.317612e+00
  1.242451e+00    2.327017e+00
  1.258327e+00    2.408717e+00
  1.274202e+00    2.496017e+00
  1.290078e+00    2.572304e+00
  1.305953e+00    2.594969e+00
  1.321829e+00    2.643599e+00
  1.337705e+00    2.582863e+00
  1.353580e+00    2.726494e+00
  1.369456e+00    2.838932e+00
  1.385331e+00    2.903968e+00
  1.401207e+00    2.829497e+00
  1.417082e+00    2.880605e+00
  1.432958e+00    2.992879e+00
  1.448834e+00    2.898084e+00
  1.464709e+00    2.886605e+00
  1.480585e+00    3.103058e+00
  1.496460e+00    3.159592e+00
  1.512336e+00    3.126739e+00
  1.528211e+00    3.096282e+00
  1.544087e+00    3.175365e+00
  1.559963e+00    3.334882e+00
  1.575838e+00    3.090972e+00
  1.591714e+00    3.068916e+00
  1.607589e+00    3.215953e+00
  1.623465e+00    3.214063e+00
  1.639340e+00    3.015334e+00
  1.655216e+00    3.176503e+00
  1.671092e+00    3.167051e+00
  1.686967e+00    3.186853e+00
  1.702843e+00    3.211114e+00
  1.718718e+00    3.019309e+00
  1.734594e+00    3.051619e+00
  1.750469e+00    3.025239e+00
  1.766345e+00    3.085962e+00
  1.782221e+00    3.069305e+00
  1.798096e+00    2.966514e+00
  1.813972e+00    2.931198e+00
  1.829847e+00    3.029828e+00
  1.845723e+00    3.073540e+00
  1.861598e+00    3.142456e+00
  1.877474e+00    3.024411e+00
  1.893350e+00    3.176683e+00
  1.909225e+00    3.156343e+00
  1.925101e+00    3.064861e+00
  1.940976e+00    3.199195e+00
  1.956852e+00    3.084917e+00
  1.972727e+00    3.031435e+00
  1.988603e+00    2.997487e+00
  2.004479e+00    3.009848e+00
  2.020354e+00    2.859874e+00
  2.036230e+00    3.007324e+00
  2.052105e+00    3.301684e+00
  2.067981e+00    3.190877e+00
  2.083856e+00    3.154927e+00
  2.099732e+00    3.120387e+00
  2.115608e+00    3.105705e+00
  2.131483e+00    3.166558e+00
  2.147359e+00    3.145602e+00
  2.163234e+00    3.190336e+00
  2.179110e+00    3.111072e+00
  2.194985e+00    3.079199e+00
  2.210861e+00    3.007292e+00
  2.226737e+00    3.114548e+00
  2.242612e+00    3.228161e+00
  2.258488e+00    3.121726e+00
  2.274363e+00    3.163850e+00
  2.290239e+00    3.126313e+00
  2.306115e+00    2.954365e+00
  2.321990e+00    3.086946e+00
  2.337866e+00    3.138454e+00
  2.353741e+00    3.102280e+00
  2.369617e+00    3.124538e+00
  2.385492e+00    3.209385e+00
  2.401368e+00    3.197816e+00
  2.417244e+00    3.068987e+00
  2.433119e+00    3.146276e+00
  2.448995e+00    3.147591e+00
  2.464870e+00    3.197348e+00
  2.480746e+00    3.226124e+00
  2.496621e+00    3.221620e+00
  2.512497e+00    3.221529e+00
  2.528373e+00    3.275387e+00
  2.544248e+00    3.259195e+00
  2.560124e+00    3.154819e+00
  2.575999e+00    3.153065e+00
  2.591875e+00    3.337283e+00
  2.607750e+00    3.257564e+00
  2.623626e+00    3.188753e+00
  2.639502e+00    3.289077e+00
  2.655377e+00    3.277609e+00
  2.671253e+00    3.328448e+00
  2.687128e+00    3.330955e+00
  2.703004e+00    3.389353e+00
  2.718879e+00    3.286665e+00
  2.734755e+00    3.310390e+00
  2.750631e+00    3.295012e+00
  2.766506e+00    3.311847e+00
  2.782382e+00    3.232120e+00
  2.798257e+00    3.282887e+00
  2.814133e+00    3.300021e+00
  2.830008e+00    3.266450e+00
  2.845884e+00    3.381045e+00
  2.861760e+00    3.477756e+00
  2.877635e+00    3.381953e+00
  2.893511e+00    3.330062e+00
  2.909386e+00    3.435143e+00
  2.925262e+00    3.349428e+00
  2.941137e+00    3.319499e+00
  2.957013e+00    3.264701e+00
  2.972889e+00    3.239462e+00
  2.988764e+00    3.291110e+00
  3.004640e+00    3.292715e+00
  3.020515e+00    3.351849e+00
  3.036391e+00    3.205480e+00
  3.052266e+00    3.316773e+00
  3.068142e+00    3.427706e+00
  3.084018e+00    3.391753e+00
  3.099893e+00    3.313943e+00
  3.115769e+00    3.398620e+00
  3.131644e+00    3.451809e+00
  3.147520e+00    3.425965e+00
  3.163395e+00    3.452637e+00
  3.179271e+00    3.421833e+00
  3.195147e+00    3.469716e+00
  3.211022e+00    3.550205e+00
  3.226898e+00    3.479661e+00
  3.242773e+00    3.367036e+00
  3.258649e+00    3.432597e+00
  3.274525e+00    3.345402e+00
  3.290400e+00    3.328622e+00
  3.306276e+00    3.305398e+00
  3.322151e+00    3.393321e+00
  3.338027e+00    3.399189e+00
  3.353902e+00    3.474956e+00
  3.369778e+00    3.479755e+00
  3.385654e+00    3.425567e+00
  3.401529e+00    3.396343e+00
  3.417405e+00    3.382877e+00
  3.433280e+00    3.348149e+00
  3.449156e+00    3.389635e+00
  3.465031e+00    3.458292e+00
  3.480907e+00    3.411047e+00
  3.496783e+00    3.429581e+00
  3.512658e+00    3.459387e+00
  3.528534e+00    3.398088e+00
  3.544409e+00    3.483112e+00
  3.560285e+00    3.533270e+00
  3.576160e+00    3.545492e+00
  3.592036e+00    3.453294e+00
  3.607912e+00    3.344230e+00
  3.623787e+00    3.435109e+00
  3.639663e+00    3.505734e+00
  3.655538e+00    3.491891e+00
  3.671414e+00    3.492476e+00
  3.687289e+00    3.521168e+00
  3.703165e+00    3.518188e+00
  3.719041e+00    3.481092e+00
  3.734916e+00    3.497132e+00
  3.750792e+00    3.486997e+00
  3.766667e+00    3.512972e+00
  3.782543e+00    3.445221e+00
  3.798418e+00    3.353242e+00
  3.814294e+00    3.451565e+00
  3.830170e+00    3.489952e+00
  3.846045e+00    3.521802e+00
  3.861921e+00    3.486576e+00
  3.877796e+00    3.565635e+00
  3.893672e+00    3.586591e+00
  3.909547e+00    3.494919e+00
  3.925423e+00    3.408490e+00
  3.941299e+00    3.422652e+00
  3.957174e+00    3.503347e+00
  3.973050e+00    3.604629e+00
  3.988925e+00    3.611282e+00
  4.004801e+00    3.578495e+00
  4.020676e+00    3.491247e+00
  4.036552e+00    3.500764e+00
  4.052428e+00    3.500826e+00
  4.068303e+00    3.516757e+00
  4.084179e+00    3.466544e+00
  4.100054e+00    3.446611e+00
  4.115930e+00    3.508925e+00
  4.131806e+00    3.598073e+00
  4.147681e+00    3.540690e+00
  4.163557e+00    3.563404e+00
  4.179432e+00    3.534589e+00
  4.195308e+00    3.542242e+00
  4.211183e+00    3.531537e+00
  4.227059e+00    3.486707e+00
  4.242935e+00    3.569905e+00
  4.258810e+00    3.608681e+00
  4.274686e+00    3.607603e+00
  4.290561e+00    3.601167e+00
  4.306437e+00    3.593865e+00
  4.322312e+00    3.579504e+00
  4.338188e+00    3.552296e+00
  4.354064e+00    3.609253e+00
  4.369939e+00    3.598775e+00
  4.385815e+00    3.668023e+00
  4.401690e+00    3.617028e+00
  4.417566e+00    3.633296e+00
  4.433441e+00    3.650874e+00
  4.449317e+00    3.555430e+00
  4.465193e+00    3.518836e+00
  4.481068e+00    3.524491e+00
  4.496944e+00    3.577047e+00
  4.512819e+00    3.566994e+00
  4.528695e+00    3.624526e+00
  4.544570e+00    3.610142e+00
  4.560446e+00    3.597786e+00
  4.576322e+00    3.691945e+00
  4.592197e+00    3.774174e+00
  4.608073e+00    3.628057e+00
  4.623948e+00    3.642838e+00
  4.639824e+00    3.534293e+00
  4.655699e+00    3.431314e+00
  4.671575e+00    3.681682e+00
  4.687451e+00    3.662723e+00
  4.703326e+00    3.701862e+00
  4.719202e+00    3.635714e+00
  4.735077e+00    3.631266e+00
  4.750953e+00    3.626330e+00
  4.766828e+00    3.620606e+00
  4.782704e+00    3.597896e+00
  4.798580e+00    3.634361e+00
  4.814455e+00    3.596938e+00
  4.830331e+00    3.565198e+00
  4.846206e+00    3.562526e+00
  4.862082e+00    3.610657e+00
  4.877957e+00    3.675387e+00
  4.893833e+00    3.694285e+00
  4.909709e+00    3.633330e+00
  4.925584e+00    3.591925e+00
  4.941460e+00    3.570676e+00
  4.957335e+00    3.676556e+00
  4.973211e+00    3.777489e+00
  4.989086e+00    3.709449e+00
  5.004962e+00    3.666861e+00
  5.020838e+00    3.614403e+00
  5.036713e+00    3.639933e+00
  5.052589e+00    3.656853e+00
  5.068464e+00    3.655862e+00
  5.084340e+00    3.649372e+00
  5.100216e+00    3.594004e+00
  5.116091e+00    3.615240e+00
  5.131967e+00    3.617110e+00
  5.147842e+00    3.591343e+00
  5.163718e+00    3.619876e+00
  5.179593e+00    3.689739e+00
  5.195469e+00    3.698395e+00
  5.211345e+00    3.746139e+00
  5.227220e+00    3.728585e+00
  5.243096e+00    3.579682e+00
  5.258971e+00    3.646581e+00
  5.274847e+00    3.622609e+00
  5.290722e+00    3.630701e+00
  5.306598e+00    3.675467e+00
  5.322474e+00    3.690497e+00
  5.338349e+00    3.723233e+00
  5.354225e+00    3.731755e+00
  5.370100e+00    3.731291e+00
  5.385976e+00    3.747412e+00
  5.401851e+00    3.655633e+00
  5.417727e+00    3.651594e+00
  5.433603e+00    3.623900e+00
  5.449478e+00    3.545410e+00
  5.465354e+00    3.520349e+00
  5.481229e+00    3.613605e+00
  5.497105e+00    3.618437e+00
  5.512980e+00    3.631655e+00
  5.528856e+00    3.653516e+00
  5.544732e+00    3.681761e+00
  5.560607e+00    3.676976e+00
  5.576483e+00    3.547890e+00
  5.592358e+00    3.475738e+00
  5.608234e+00    3.549585e+00
  5.624109e+00    3.603535e+00
  5.639985e+00    3.579590e+00
  5.655861e+00    3.537575e+00
  5.671736e+00    3.667312e+00
  5.687612e+00    3.678176e+00
  5.703487e+00    3.562604e+00
  5.719363e+00    3.597951e+00
  5.735238e+00    3.571727e+00
  5.751114e+00    3.580100e+00
  5.766990e+00    3.620922e+00
  5.782865e+00    3.532854e+00
  5.798741e+00    3.533114e+00
  5.814616e+00    3.632665e+00
  5.830492e+00    3.629457e+00
  5.846367e+00    3.623556e+00
  5.862243e+00    3.460360e+00
  5.878119e+00    3.486333e+00
  5.893994e+00    3.547439e+00
  5.909870e+00    3.578826e+00
  5.925745e+00    3.559367e+00
  5.941621e+00    3.530700e+00
  5.957497e+00    3.546604e+00
  5.973372e+00    3.480448e+00
  5.989248e+00    3.509495e+00
  6.005123e+00    3.524079e+00
  6.020999e+00    3.496478e+00
  6.036874e+00    3.544365e+00
  6.052750e+00    3.496777e+00
  6.068626e+00    3.562421e+00
  6.084501e+00    3.576601e+00
  6.100377e+00    3.634842e+00
  6.116252e+00    3.667940e+00
  6.132128e+00    3.623933e+00
  6.148003e+00    3.632604e+00
  6.163879e+00    3.624423e+00
  6.179755e+00    3.594101e+00
  6.195630e+00    3.546156e+00
  6.211506e+00    3.584005e+00
  6.227381e+00    3.601527e+00
  6.243257e+00    3.551898e+00
  6.259132e+00    3.533274e+00
  6.275008e+00    3.528918e+00
  6.290884e+00    3.563873e+00
  6.306759e+00    3.538825e+00
  6.322635e+00    3.466258e+00
  6.338510e+00    3.512126e+00
  6.354386e+00    3.583667e+00
  6.370261e+00    3.590676e+00
  6.386137e+00    3.615589e+00
  6.402013e+00    3.534257e+00
  6.417888e+00    3.550884e+00
  6.433764e+00    3.555428e+00
  6.449639e+00    3.551786e+00
  6.465515e+00    3.573113e+00
  6.481390e+00    3.647486e+00
  6.497266e+00    3.583144e+00
  6.513142e+00    3.592403e+00
  6.529017e+00    3.619192e+00
  6.544893e+00    3.579101e+00
  6.560768e+00    3.651428e+00
  6.576644e+00    3.538786e+00
  6.592519e+00    3.605716e+00
  6.608395e+00    3.571558e+00
  6.624271e+00    3.602209e+00
  6.640146e+00    3.615385e+00
  6.656022e+00    3.508379e+00
  6.671897e+00    3.548100e+00
  6.687773e+00    3.643283e+00
  6.703648e+00    3.590811e+00
  6.719524e+00    3.597396e+00
  6.735400e+00    3.567004e+00
  6.751275e+00    3.511458e+00
  6.767151e+00    3.524568e+00
  6.783026e+00    3.650939e+00
  6.798902e+00    3.577557e+00
  6.814777e+00    3.539871e+00
  6.830653e+00    3.570542e+00
  6.846529e+00    3.523564e+00
  6.862404e+00    3.554475e+00
  6.878280e+00    3.567606e+00
  6.894155e+00    3.530992e+00
  6.910031e+00    3.602777e+00
  6.925907e+00    3.542953e+00
  6.941782e+00    3.539642e+00
  6.957658e+00    3.558202e+00
  6.973533e+00    3.525497e+00
  6.989409e+00    3.558723e+00
  7.005284e+00    3.604811e+00
  7.021160e+00    3.551368e+00
  7.037036e+00    3.560985e+00
  7.052911e+00    3.574691e+00
  7.068787e+00    3.527748e+00
  7.084662e+00    3.558518e+00
  7.100538e+00    3.504094e+00
  7.116413e+00    3.569917e+00
  7.132289e+00    3.587116e+00
  7.148165e+00    3.504912e+00
  7.164040e+00    3.526205e+00
  7.179916e+00    3.499985e+00
  7.195791e+00    3.512474e+00
  7.211667e+00    3.591436e+00
  7.227542e+00    3.591359e+00
  7.243418e+00    3.529337e+00
  7.259294e+00    3.509802e+00
  7.275169e+00    3.539928e+00
  7.291045e+00    3.577658e+00
  7.306920e+00    3.583389e+00
  7.322796e+00    3.505885e+00
  7.338671e+00    3.496336e+00
  7.354547e+00    3.428082e+00
  7.370423e+00    3.420592e+00
  7.386298e+00    3.503853e+00
  7.402174e+00    3.511970e+00
  7.418049e+00    3.497046e+00
  7.433925e+00    3.511663e+00
  7.449800e+00    3.489834e+00
  7.465676e+00    3.448104e+00
  7.481552e+00    3.525517e+00
  7.497427e+00    3.509388e+00
  7.513303e+00    3.515268e+00
  7.529178e+00    3.456216e+00
  7.545054e+00    3.461535e+00
  7.560929e+00    3.494344e+00
  7.576805e+00    3.498767e+00
  7.592681e+00    3.423527e+00
  7.608556e+00    3.478186e+00
  7.624432e+00    3.545403e+00
  7.640307e+00    3.478681e+00
  7.656183e+00    3.489290e+00
  7.672058e+00    3.425728e+00
  7.687934e+00    3.451028e+00
  7.703810e+00    3.445846e+00
  7.719685e+00    3.454428e+00
  7.735561e+00    3.397007e+00
  7.751436e+00    3.396176e+00
  7.767312e+00    3.442761e+00
  7.783187e+00    3.450230e+00
  7.799063e+00    3.393804e+00
  7.814939e+00    3.404214e+00
  7.830814e+00    3.430551e+00
  7.846690e+00    3.460585e+00
  7.862565e+00    3.433866e+00
  7.878441e+00    3.429977e+00
  7.894317e+00    3.399147e+00
  7.910192e+00    3.440681e+00
  7.926068e+00    3.527088e+00
  7.941943e+00    3.409703e+00
  7.957819e+00    3.448660e+00
  7.973694e+00    3.392462e+00
  7.989570e+00    3.307677e+00
  8.005446e+00    3.322142e+00
  8.021321e+00    3.422111e+00
  8.037197e+00    3.496449e+00
  8.053072e+00    3.492357e+00
  8.068948e+00    3.461740e+00
  8.084823e+00    3.518121e+00
  8.100699e+00    3.441674e+00
  8.116575e+00    3.434110e+00
  8.132450e+00    3.564664e+00
  8.148326e+00    3.595038e+00
  8.164201e+00    3.554743e+00
  8.180077e+00    3.537215e+00
  8.195952e+00    3.556747e+00
  8.211828e+00    3.527289e+00
  8.227704e+00    3.520264e+00
  8.243579e+00    3.502533e+00
  8.259455e+00    3.467988e+00
  8.275330e+00    3.455338e+00
  8.291206e+00    3.368619e+00
  8.307081e+00    3.466648e+00
  8.322957e+00    3.451500e+00
  8.338833e+00    3.403005e+00
  8.354708e+00    3.392950e+00
  8.370584e+00    3.398572e+00
  8.386459e+00    3.412836e+00
  8.402335e+00    3.390079e+00
  8.418210e+00    3.358809e+00
  8.434086e+00    3.397820e+00
  8.449962e+00    3.407114e+00
  8.465837e+00    3.390804e+00
  8.481713e+00    3.368545e+00
  8.497588e+00    3.351546e+00
  8.513464e+00    3.343966e+00
  8.529339e+00    3.353758e+00
  8.545215e+00    3.330601e+00
  8.561091e+00    3.321942e+00
  8.576966e+00    3.364166e+00
  8.592842e+00    3.376620e+00
  8.608717e+00    3.367706e+00
  8.624593e+00    3.386409e+00
  8.640468e+00    3.355616e+00
  8.656344e+00    3.387253e+00
  8.672220e+00    3.415960e+00
  8.688095e+00    3.369187e+00
  8.703971e+00    3.327849e+00
  8.719846e+00    3.375244e+00
  8.735722e+00    3.437446e+00
  8.751598e+00    3.372571e+00
  8.767473e+00    3.310806e+00
  8.783349e+00    3.365389e+00
  8.799224e+00    3.368308e+00
  8.815100e+00    3.374610e+00
  8.830975e+00    3.366234e+00
  8.846851e+00    3.348300e+00
  8.862727e+00    3.334109e+00
  8.878602e+00    3.301831e+00
  8.894478e+00    3.308722e+00
  8.910353e+00    3.301346e+00
  8.926229e+00    3.299530e+00
  8.942104e+00    3.316004e+00
  8.957980e+00    3.255841e+00
  8.973856e+00    3.266024e+00
  8.989731e+00    3.320860e+00
  9.005607e+00    3.312214e+00
  9.021482e+00    3.289888e+00
  9.037358e+00    3.304492e+00
  9.053233e+00    3.291837e+00
  9.069109e+00    3.269516e+00
  9.084985e+00    3.285685e+00
  9.100860e+00    3.235659e+00
  9.116736e+00    3.249137e+00
  9.132611e+00    3.236962e+00
  9.148487e+00    3.296914e+00
  9.164362e+00    3.314875e+00
  9.180238e+00    3.297535e+00
  9.196114e+00    3.325516e+00
  9.211989e+00    3.280916e+00
  9.227865e+00    3.287423e+00
  9.243740e+00    3.259382e+00
  9.259616e+00    3.271141e+00
  9.275491e+00    3.220113e+00
  9.291367e+00    3.222610e+00
  9.307243e+00    3.268288e+00
  9.323118e+00    3.263962e+00
  9.338994e+00    3.201245e+00
  9.354869e+00    3.219037e+00
  9.370745e+00    3.272052e+00
  9.386620e+00    3.190781e+00
  9.402496e+00    3.225050e+00
  9.418372e+00    3.302032e+00
  9.434247e+00    3.275135e+00
  9.450123e+00    3.243864e+00
  9.465998e+00    3.261587e+00
  9.481874e+00    3.305063e+00
  9.497749e+00    3.236507e+00
  9.513625e+00    3.234200e+00
  9.529501e+00    3.218097e+00
  9.545376e+00    3.257456e+00
  9.561252e+00    3.289737e+00
  9.577127e+00    3.268384e+00
  9.593003e+00    3.245711e+00
  9.608878e+00    3.191743e+00
  9.624754e+00    3.254705e+00
  9.640630e+00    3.265814e+00
  9.656505e+00    3.217076e+00
  9.672381e+00    3.180763e+00
  9.688256e+00    3.132572e+00
  9.704132e+00    3.168990e+00
  9.720008e+00    3.174460e+00
  9.735883e+00    3.189104e+00
  9.751759e+00    3.166231e+00
  9.767634e+00    3.135570e+00
  9.783510e+00    3.154883e+00
  9.799385e+00    3.183510e+00
  9.815261e+00    3.150203e+00
  9.831137e+00    3.117386e+00
  9.847012e+00    3.150892e+00
  9.862888e+00    3.143763e+00
  9.878763e+00    3.177664e+00
  9.894639e+00    3.121748e+00
  9.910514e+00    3.096684e+00
  9.926390e+00    3.095111e+00
  9.942266e+00    3.155924e+00
  9.958141e+00    3.129943e+00
  9.974017e+00    3.105242e+00
  9.989892e+00    3.118839e+00
  1.000577e+01    3.110920e+00
  1.002164e+01    3.100243e+00
  1.003752e+01    3.098489e+00
  1.005339e+01    3.097229e+00
  1.006927e+01    3.073576e+00
  1.008515e+01    3.075784e+00
  1.010102e+01    3.051600e+00
  1.011690e+01    3.083289e+00
  1.013277e+01    3.081877e+00
  1.014865e+01    3.072268e+00
  1.016452e+01    3.050272e+00
  1.018040e+01    3.044539e+00
  1.019627e+01    3.115584e+00
  1.021215e+01    3.051901e+00
  1.022803e+01    3.009620e+00
  1.024390e+01    3.050050e+00
  1.025978e+01    3.059512e+00
  1.027565e+01    3.035784e+00
  1.029153e+01    3.118274e+00
  1.030740e+01    3.122762e+00
  1.032328e+01    3.088549e+00
  1.033915e+01    3.038895e+00
  1.035503e+01    3.048523e+00
  1.037091e+01    3.081692e+00
  1.038678e+01    3.038239e+00
  1.040266e+01    3.070290e+00
  1.041853e+01    3.021158e+00
  1.043441e+01    3.052397e+00
  1.045028e+01    3.049244e+00
  1.046616e+01    3.026403e+00
  1.048204e+01    3.037269e+00
  1.049791e+01    3.041747e+00
  1.051379e+01    2.995764e+00
  1.052966e+01    3.029143e+00
  1.054554e+01    3.058524e+00
  1.056141e+01    3.036972e+00
  1.057729e+01    3.027229e+00
  1.059316e+01    2.990867e+00
  1.060904e+01    2.959841e+00
  1.062492e+01    2.951605e+00
  1.064079e+01    2.965167e+00
  1.065667e+01    3.022129e+00
  1.067254e+01    3.048300e+00
  1.068842e+01    2.973514e+00
  1.070429e+01    2.940104e+00
  1.072017e+01    2.988262e+00
  1.073604e+01    2.972290e+00
  1.075192e+01    2.935426e+00
  1.076780e+01    2.999401e+00
  1.078367e+01    2.995764e+00
  1.079955e+01    2.974242e+00
  1.081542e+01    2.953495e+00
  1.083130e+01    2.947913e+00
  1.084717e+01    2.924673e+00
  1.086305e+01    2.926267e+00
  1.087892e+01    2.948702e+00
  1.089480e+01    2.945103e+00
  1.091068e+01    2.934915e+00
  1.092655e+01    2.967914e+00
  1.094243e+01    2.904776e+00
  1.095830e+01    2.932722e+00
  1.097418e+01    2.920110e+00
  1.099005e+01    2.887653e+00
  1.100593e+01    2.880370e+00
  1.102180e+01    2.884064e+00
  1.103768e+01    2.938385e+00
  1.105356e+01    2.844853e+00
  1.106943e+01    2.871794e+00
  1.108531e+01    2.891960e+00
  1.110118e+01    2.892798e+00
  1.111706e+01    2.890345e+00
  1.113293e+01    2.910942e+00
  1.114881e+01    2.887960e+00
  1.116468e+01    2.891118e+00
  1.118056e+01    2.910401e+00
  1.119644e+01    2.885198e+00
  1.121231e+01    2.877081e+00
  1.122819e+01    2.833973e+00
  1.124406e+01    2.822498e+00
  1.125994e+01    2.831583e+00
  1.127581e+01    2.854984e+00
  1.129169e+01    2.859451e+00
  1.130756e+01    2.869824e+00
  1.132344e+01    2.817973e+00
  1.133932e+01    2.835195e+00
  1.135519e+01    2.804726e+00
  1.137107e+01    2.800519e+00
  1.138694e+01    2.798517e+00
  1.140282e+01    2.796094e+00
  1.141869e+01    2.820314e+00
  1.143457e+01    2.824847e+00
  1.145045e+01    2.841558e+00
  1.146632e+01    2.820803e+00
  1.148220e+01    2.815517e+00
  1.149807e+01    2.832241e+00
  1.151395e+01    2.851600e+00
  1.152982e+01    2.816433e+00
  1.154570e+01    2.818049e+00
  1.156157e+01    2.811753e+00
  1.157745e+01    2.799260e+00
  1.159333e+01    2.780782e+00
  1.160920e+01    2.769494e+00
  1.162508e+01    2.769749e+00
  1.164095e+01    2.739225e+00
  1.165683e+01    2.812123e+00
  1.167270e+01    2.799672e+00
  1.168858e+01    2.757179e+00
  1.170445e+01    2.766628e+00
  1.172033e+01    2.762983e+00
  1.173621e+01    2.744655e+00
  1.175208e+01    2.715620e+00
  1.176796e+01    2.715577e+00
  1.178383e+01    2.771547e+00
  1.179971e+01    2.838256e+00
  1.181558e+01    2.778049e+00
  1.183146e+01    2.704492e+00
  1.184733e+01    2.709152e+00
  1.186321e+01    2.741088e+00
  1.187909e+01    2.714469e+00
  1.189496e+01    2.731980e+00
  1.191084e+01    2.705824e+00
  1.192671e+01    2.732048e+00
  1.194259e+01    2.777924e+00
  1.195846e+01    2.732523e+00
  1.197434e+01    2.717371e+00
  1.199021e+01    2.718539e+00
  1.200609e+01    2.678664e+00
  1.202197e+01    2.689525e+00
  1.203784e+01    2.716796e+00
  1.205372e+01    2.702832e+00
  1.206959e+01    2.696573e+00
  1.208547e+01    2.709030e+00
  1.210134e+01    2.728236e+00
  1.211722e+01    2.737600e+00
  1.213309e+01    2.696821e+00
  1.214897e+01    2.703700e+00
  1.216485e+01    2.752601e+00
  1.218072e+01    2.722426e+00
  1.219660e+01    2.716615e+00
  1.221247e+01    2.742794e+00
  1.222835e+01    2.739133e+00
  1.224422e+01    2.737946e+00
  1.226010e+01    2.726288e+00
  1.227597e+01    2.738042e+00
  1.229185e+01    2.670081e+00
  1.230773e+01    2.717671e+00
  1.232360e+01    2.703099e+00
  1.233948e+01    2.715919e+00
  1.235535e+01    2.729571e+00
  1.237123e+01    2.714139e+00
  1.238710e+01    2.687840e+00
  1.240298e+01    2.686856e+00
  1.241886e+01    2.721032e+00
  1.243473e+01    2.718056e+00
  1.245061e+01    2.706610e+00
  1.246648e+01    2.680207e+00
  1.248236e+01    2.706922e+00
  1.249823e+01    2.729319e+00
  1.251411e+01    2.719321e+00
  1.252998e+01    2.717653e+00
  1.254586e+01    2.756885e+00
  1.256174e+01    2.725243e+00
  1.257761e+01    2.745912e+00
  1.259349e+01    2.735499e+00
  1.260936e+01    2.715355e+00
  1.262524e+01    2.748089e+00
  1.264111e+01    2.792326e+00
  1.265699e+01    2.774528e+00
  1.267286e+01    2.821514e+00
  1.268874e+01    2.819221e+00
  1.270462e+01    2.825495e+00
  1.272049e+01    2.808182e+00
  1.273637e+01    2.844708e+00
  1.275224e+01    2.918395e+00
  1.276812e+01    2.963118e+00
  1.278399e+01    2.994383e+00
  1.279987e+01    3.030146e+00
  1.281574e+01    3.103618e+00
  1.283162e+01    3.149351e+00
  1.284750e+01    3.210303e+00
  1.286337e+01    3.291000e+00
  1.287925e+01    3.356695e+00
  1.289512e+01    3.495264e+00
  1.291100e+01    3.686279e+00
  1.292687e+01    3.916285e+00
  1.294275e+01    4.150943e+00
  1.295862e+01    4.428845e+00
  1.297450e+01    4.852966e+00
  1.299038e+01    5.342960e+00
  1.300625e+01    5.929826e+00
  1.302213e+01    6.777559e+00
  1.303800e+01    7.865155e+00
  1.305388e+01    9.049236e+00
  1.306975e+01    1.030140e+01
  1.308563e+01    1.162332e+01
  1.310150e+01    1.279490e+01
  1.311738e+01    1.398742e+01
  1.313326e+01    1.500219e+01
  1.314913e+01    1.570636e+01
  1.316501e+01    1.632028e+01
  1.318088e+01    1.640751e+01
  1.319676e+01    1.562424e+01
  1.321263e+01    1.427099e+01
  1.322851e+01    1.243028e+01
  1.324438e+01    1.059723e+01
  1.326026e+01    8.943488e+00
  1.327614e+01    7.627907e+00
  1.329201e+01    6.699270e+00
  1.330789e+01    5.939423e+00
  1.332376e+01    5.254408e+00
  1.333964e+01    4.758935e+00
  1.335551e+01    4.391532e+00
  1.337139e+01    4.113011e+00
  1.338727e+01    3.859635e+00
  1.340314e+01    3.662899e+00
  1.341902e+01    3.454950e+00
  1.343489e+01    3.365986e+00
  1.345077e+01    3.237315e+00
  1.346664e+01    3.114203e+00
  1.348252e+01    3.057663e+00
  1.349839e+01    2.951315e+00
  1.351427e+01    2.881989e+00
  1.353015e+01    2.843367e+00
  1.354602e+01    2.816933e+00
  1.356190e+01    2.743121e+00
  1.357777e+01    2.700804e+00
  1.359365e+01    2.709237e+00
  1.360952e+01    2.665641e+00
  1.362540e+01    2.649692e+00
  1.364127e+01    2.653919e+00
  1.365715e+01    2.641123e+00
  1.367303e+01    2.622221e+00
  1.368890e+01    2.595046e+00
  1.370478e+01    2.582836e+00
  1.372065e+01    2.571564e+00
  1.373653e+01    2.538680e+00
  1.375240e+01    2.466194e+00
  1.376828e+01    2.490888e+00
  1.378415e+01    2.512528e+00
  1.380003e+01    2.490533e+00
  1.381591e+01    2.414231e+00
  1.383178e+01    2.432723e+00
  1.384766e+01    2.465956e+00
  1.386353e+01    2.442673e+00
  1.387941e+01    2.445386e+00
  1.389528e+01    2.423972e+00
  1.391116e+01    2.393468e+00
  1.392703e+01    2.416515e+00
  1.394291e+01    2.381338e+00
  1.395879e+01    2.382800e+00
  1.397466e+01    2.353565e+00
  1.399054e+01    2.390568e+00
  1.400641e+01    2.385950e+00
  1.402229e+01    2.386343e+00
  1.403816e+01    2.383143e+00
  1.405404e+01    2.386039e+00
  1.406991e+01    2.352278e+00
  1.408579e+01    2.332217e+00
  1.410167e+01    2.368980e+00
  1.411754e+01    2.358810e+00
  1.413342e+01    2.335014e+00
  1.414929e+01    2.319324e+00
  1.416517e+01    2.296781e+00
  1.418104e+01    2.328715e+00
  1.419692e+01    2.313588e+00
  1.421279e+01    2.298573e+00
  1.422867e+01    2.281785e+00
  1.424455e+01    2.273919e+00
  1.426042e+01    2.292269e+00
  1.427630e+01    2.254939e+00
  1.429217e+01    2.266403e+00
  1.430805e+01    2.263168e+00
  1.432392e+01    2.308694e+00
  1.433980e+01    2.272740e+00
  1.435568e+01    2.245049e+00
  1.437155e+01    2.275757e+00
  1.438743e+01    2.234732e+00
  1.440330e+01    2.220808e+00
  1.441918e+01    2.198728e+00
  1.443505e+01    2.219042e+00
  1.445093e+01    2.286910e+00
  1.446680e+01    2.261529e+00
  1.448268e+01    2.258027e+00
  1.449856e+01    2.235332e+00
  1.451443e+01    2.209868e+00
  1.453031e+01    2.224773e+00
  1.454618e+01    2.219754e+00
  1.456206e+01    2.193495e+00
  1.457793e+01    2.232361e+00
  1.459381e+01    2.234505e+00
  1.460968e+01    2.212837e+00
  1.462556e+01    2.187874e+00
  1.464144e+01    2.251687e+00
  1.465731e+01    2.241361e+00
  1.467319e+01    2.240955e+00
  1.468906e+01    2.230596e+00
  1.470494e+01    2.216402e+00
  1.472081e+01    2.223125e+00
  1.473669e+01    2.219020e+00
  1.475256e+01    2.217174e+00
  1.476844e+01    2.232991e+00
  1.478432e+01    2.207521e+00
  1.480019e+01    2.201098e+00
  1.481607e+01    2.204166e+00
  1.483194e+01    2.209298e+00
  1.484782e+01    2.242384e+00
  1.486369e+01    2.260785e+00
  1.487957e+01    2.268315e+00
  1.489544e+01    2.276733e+00
  1.491132e+01    2.255689e+00
  1.492720e+01    2.267631e+00
  1.494307e+01    2.279482e+00
  1.495895e+01    2.310898e+00
  1.497482e+01    2.356417e+00
  1.499070e+01    2.427731e+00
  1.500657e+01    2.469802e+00
  1.502245e+01    2.541941e+00
  1.503832e+01    2.651250e+00
  1.505420e+01    2.726197e+00
  1.507008e+01    2.834134e+00
  1.508595e+01    3.048248e+00
  1.510183e+01    3.251136e+00
  1.511770e+01    3.512524e+00
  1.513358e+01    3.849658e+00
  1.514945e+01    4.139154e+00
  1.516533e+01    4.544227e+00
  1.518120e+01    4.953401e+00
  1.519708e+01    5.235281e+00
  1.521296e+01    5.467439e+00
  1.522883e+01    5.615438e+00
  1.524471e+01    5.767868e+00
  1.526058e+01    5.750993e+00
  1.527646e+01    5.629860e+00
  1.529233e+01    5.476373e+00
  1.530821e+01    5.110646e+00
  1.532409e+01    4.650336e+00
  1.533996e+01    4.163160e+00
  1.535584e+01    3.720790e+00
  1.537171e+01    3.381305e+00
  1.538759e+01    3.120216e+00
  1.540346e+01    2.912261e+00
  1.541934e+01    2.773441e+00
  1.543521e+01    2.622606e+00
  1.545109e+01    2.494663e+00
  1.546697e+01    2.447035e+00
  1.548284e+01    2.345926e+00
  1.549872e+01    2.290924e+00
  1.551459e+01    2.236608e+00
  1.553047e+01    2.194553e+00
  1.554634e+01    2.186154e+00
  1.556222e+01    2.194953e+00
  1.557809e+01    2.127944e+00
  1.559397e+01    2.081940e+00
  1.560985e+01    2.098203e+00
  1.562572e+01    2.110817e+00
  1.564160e+01    2.069306e+00
  1.565747e+01    2.022040e+00
  1.567335e+01    2.061221e+00
  1.568922e+01    2.041778e+00
  1.570510e+01    2.031063e+00
  1.572097e+01    1.982184e+00
  1.573685e+01    1.949607e+00
  1.575273e+01    1.947327e+00
  1.576860e+01    1.955129e+00
  1.578448e+01    1.944044e+00
  1.580035e+01    1.953930e+00
  1.581623e+01    1.922072e+00
  1.583210e+01    1.915619e+00
  1.584798e+01    1.903875e+00
  1.586385e+01    1.914121e+00
  1.587973e+01    1.924491e+00
  1.589561e+01    1.909442e+00
  1.591148e+01    1.891194e+00
  1.592736e+01    1.876137e+00
  1.594323e+01    1.898055e+00
  1.595911e+01    1.883847e+00
  1.597498e+01    1.892115e+00
  1.599086e+01    1.913140e+00
  1.600673e+01    1.866242e+00
  1.602261e+01    1.848762e+00
  1.603849e+01    1.888440e+00
  1.605436e+01    1.880022e+00
  1.607024e+01    1.848754e+00
  1.608611e+01    1.864164e+00
  1.610199e+01    1.859829e+00
  1.611786e+01    1.847924e+00
  1.613374e+01    1.842365e+00
  1.614961e+01    1.868961e+00
  1.616549e+01    1.846755e+00
  1.618137e+01    1.824427e+00
  1.619724e+01    1.846431e+00
  1.621312e+01    1.827802e+00
  1.622899e+01    1.800445e+00
  1.624487e+01    1.844457e+00
  1.626074e+01    1.811932e+00
  1.627662e+01    1.835257e+00
  1.629250e+01    1.851311e+00
  1.630837e+01    1.829644e+00
  1.632425e+01    1.803711e+00
  1.634012e+01    1.805631e+00
  1.635600e+01    1.778457e+00
  1.637187e+01    1.798928e+00
  1.638775e+01    1.781737e+00
  1.640362e+01    1.780211e+00
  1.641950e+01    1.794143e+00
  1.643538e+01    1.751006e+00
  1.645125e+01    1.758793e+00
  1.646713e+01    1.762780e+00
  1.648300e+01    1.758180e+00
  1.649888e+01    1.792993e+00
  1.651475e+01    1.794544e+00
  1.653063e+01    1.790849e+00
  1.654650e+01    1.767032e+00
  1.656238e+01    1.724013e+00
  1.657826e+01    1.743603e+00
  1.659413e+01    1.759605e+00
  1.661001e+01    1.757143e+00
  1.662588e+01    1.772331e+00
  1.664176e+01    1.757316e+00
  1.665763e+01    1.749284e+00
  1.667351e+01    1.748758e+00
  1.668938e+01    1.716740e+00
  1.670526e+01    1.708916e+00
  1.672114e+01    1.688642e+00
  1.673701e+01    1.709126e+00
  1.675289e+01    1.741442e+00
  1.676876e+01    1.720347e+00
  1.678464e+01    1.712082e+00
  1.680051e+01    1.720125e+00
  1.681639e+01    1.728167e+00
  1.683226e+01    1.719197e+00
  1.684814e+01    1.694384e+00
  1.686402e+01    1.670314e+00
  1.687989e+01    1.675163e+00
  1.689577e+01    1.665322e+00
  1.691164e+01    1.689129e+00
  1.692752e+01    1.729844e+00
  1.694339e+01    1.692124e+00
  1.695927e+01    1.682823e+00
  1.697514e+01    1.669956e+00
  1.699102e+01    1.671062e+00
  1.700690e+01    1.669721e+00
  1.702277e+01    1.659122e+00
  1.703865e+01    1.686988e+00
  1.705452e+01    1.690618e+00
  1.707040e+01    1.662848e+00
  1.708627e+01    1.660486e+00
  1.710215e+01    1.666760e+00
  1.711802e+01    1.660381e+00
  1.713390e+01    1.629510e+00
  1.714978e+01    1.633954e+00
  1.716565e+01    1.650769e+00
  1.718153e+01    1.642214e+00
  1.719740e+01    1.641548e+00
  1.721328e+01    1.605635e+00
  1.722915e+01    1.627411e+00
  1.724503e+01    1.626222e+00
  1.726091e+01    1.621011e+00
  1.727678e+01    1.634047e+00
  1.729266e+01    1.643897e+00
  1.730853e+01    1.625298e+00
  1.732441e+01    1.606774e+00
  1.734028e+01    1.594092e+00
  1.735616e+01    1.581675e+00
  1.737203e+01    1.630992e+00
  1.738791e+01    1.601542e+00
  1.740379e+01    1.597766e+00
  1.741966e+01    1.626255e+00
  1.743554e+01    1.642812e+00
  1.745141e+01    1.631759e+00
  1.746729e+01    1.600659e+00
  1.748316e+01    1.563917e+00
  1.749904e+01    1.600860e+00
  1.751491e+01    1.619546e+00
  1.753079e+01    1.603236e+00
  1.754667e+01    1.559023e+00
  1.756254e+01    1.581508e+00
  1.757842e+01    1.587647e+00
  1.759429e+01    1.588037e+00
  1.761017e+01    1.566440e+00
  1.762604e+01    1.560950e+00
  1.764192e+01    1.571431e+00
  1.765779e+01    1.565256e+00
  1.767367e+01    1.572935e+00
  1.768955e+01    1.559585e+00
  1.770542e+01    1.534431e+00
  1.772130e+01    1.551991e+00
  1.773717e+01    1.547368e+00
  1.775305e+01    1.545564e+00
  1.776892e+01    1.549670e+00
  1.778480e+01    1.537334e+00
  1.780067e+01    1.551573e+00
  1.781655e+01    1.530836e+00
  1.783243e+01    1.522846e+00
  1.784830e+01    1.521357e+00
  1.786418e+01    1.531120e+00
  1.788005e+01    1.533001e+00
  1.789593e+01    1.545274e+00
  1.791180e+01    1.586249e+00
  1.792768e+01    1.523976e+00
  1.794355e+01    1.520962e+00
  1.795943e+01    1.531741e+00
  1.797531e+01    1.520586e+00
  1.799118e+01    1.490765e+00
  1.800706e+01    1.524066e+00
  1.802293e+01    1.501945e+00
  1.803881e+01    1.489734e+00
  1.805468e+01    1.521621e+00
  1.807056e+01    1.511786e+00
  1.808643e+01    1.512218e+00
  1.810231e+01    1.520464e+00
  1.811819e+01    1.502088e+00
  1.813406e+01    1.491536e+00
  1.814994e+01    1.488627e+00
  1.816581e+01    1.499197e+00
  1.818169e+01    1.475742e+00
  1.819756e+01    1.501683e+00
  1.821344e+01    1.490783e+00
  1.822932e+01    1.474617e+00
  1.824519e+01    1.460365e+00
  1.826107e+01    1.485675e+00
  1.827694e+01    1.470831e+00
  1.829282e+01    1.472133e+00
  1.830869e+01    1.485954e+00
  1.832457e+01    1.472032e+00
  1.834044e+01    1.469108e+00
  1.835632e+01    1.464203e+00
  1.837220e+01    1.483903e+00
  1.838807e+01    1.451452e+00
  1.840395e+01    1.436813e+00
  1.841982e+01    1.456899e+00
  1.843570e+01    1.480970e+00
  1.845157e+01    1.446530e+00
  1.846745e+01    1.449319e+00
  1.848332e+01    1.450363e+00
  1.849920e+01    1.452229e+00
  1.851508e+01    1.436754e+00
  1.853095e+01    1.440403e+00
  1.854683e+01    1.444282e+00
  1.856270e+01    1.440782e+00
  1.857858e+01    1.406962e+00
  1.859445e+01    1.409662e+00
  1.861033e+01    1.423029e+00
  1.862620e+01    1.436283e+00
  1.864208e+01    1.409644e+00
  1.865796e+01    1.400656e+00
  1.867383e+01    1.421921e+00
  1.868971e+01    1.422819e+00
  1.870558e+01    1.425818e+00
  1.872146e+01    1.448120e+00
  1.873733e+01    1.433931e+00
  1.875321e+01    1.404640e+00
  1.876908e+01    1.420714e+00
  1.878496e+01    1.406454e+00
  1.880084e+01    1.400612e+00
  1.881671e+01    1.403714e+00
  1.883259e+01    1.364525e+00
  1.884846e+01    1.375730e+00
  1.886434e+01    1.384801e+00
  1.888021e+01    1.365479e+00
  1.889609e+01    1.405049e+00
  1.891196e+01    1.434371e+00
  1.892784e+01    1.427772e+00
  1.894372e+01    1.430283e+00
  1.895959e+01    1.379729e+00
  1.897547e+01    1.381465e+00
  1.899134e+01    1.373042e+00
  1.900722e+01    1.386086e+00
  1.902309e+01    1.396815e+00
  1.903897e+01    1.392248e+00
  1.905484e+01    1.368453e+00
  1.907072e+01    1.359306e+00
  1.908660e+01    1.399272e+00
  1.910247e+01    1.384001e+00
  1.911835e+01    1.389439e+00
  1.913422e+01    1.392540e+00
  1.915010e+01    1.395204e+00
  1.916597e+01    1.360574e+00
  1.918185e+01    1.344672e+00
  1.919773e+01    1.361921e+00
  1.921360e+01    1.376143e+00
  1.922948e+01    1.369614e+00
  1.924535e+01    1.378125e+00
  1.926123e+01    1.361832e+00
  1.927710e+01    1.342313e+00
  1.929298e+01    1.375912e+00
  1.930885e+01    1.372369e+00
  1.932473e+01    1.361283e+00
  1.934061e+01    1.339803e+00
  1.935648e+01    1.308399e+00
  1.937236e+01    1.333610e+00
  1.938823e+01    1.361189e+00
  1.940411e+01    1.339378e+00
  1.941998e+01    1.343191e+00
  1.943586e+01    1.342034e+00
  1.945173e+01    1.320333e+00
  1.946761e+01    1.329381e+00
  1.948349e+01    1.345607e+00
  1.949936e+01    1.307232e+00
  1.951524e+01    1.318568e+00
  1.953111e+01    1.335294e+00
  1.954699e+01    1.363531e+00
  1.956286e+01    1.360420e+00
  1.957874e+01    1.342812e+00
  1.959461e+01    1.305617e+00
  1.961049e+01    1.326974e+00
  1.962637e+01    1.316108e+00
  1.964224e+01    1.315005e+00
  1.965812e+01    1.305470e+00
  1.967399e+01    1.314586e+00
  1.968987e+01    1.322612e+00
  1.970574e+01    1.307021e+00
  1.972162e+01    1.298019e+00
  1.973749e+01    1.317770e+00
  1.975337e+01    1.304797e+00
  1.976925e+01    1.306123e+00
  1.978512e+01    1.306121e+00
  1.980100e+01    1.275797e+00
  1.981687e+01    1.284130e+00
  1.983275e+01    1.319598e+00
  1.984862e+01    1.273307e+00
  1.986450e+01    1.284306e+00
  1.988037e+01    1.301346e+00
  1.989625e+01    1.304812e+00
  1.991213e+01    1.296131e+00
  1.992800e+01    1.286384e+00
  1.994388e+01    1.278728e+00
  1.995975e+01    1.294122e+00
  1.997563e+01    1.311086e+00
  1.999150e+01    1.316598e+00
  2.000738e+01    1.289562e+00
  2.002325e+01    1.263507e+00
  2.003913e+01    1.290646e+00
  2.005501e+01    1.277209e+00
  2.007088e+01    1.285266e+00
  2.008676e+01    1.282702e+00
  2.010263e+01    1.312123e+00
  2.011851e+01    1.297510e+00
  2.013438e+01    1.287605e+00
  2.015026e+01    1.280936e+00
  2.016614e+01    1.276309e+00
  2.018201e+01    1.275305e+00
  2.019789e+01    1.285663e+00
  2.021376e+01    1.262562e+00
  2.022964e+01    1.244862e+00
  2.024551e+01    1.248324e+00
  2.026139e+01    1.275136e+00
  2.027726e+01    1.251929e+00
  2.029314e+01    1.256324e+00
  2.030902e+01    1.266808e+00
  2.032489e+01    1.243834e+00
  2.034077e+01    1.247756e+00
  2.035664e+01    1.248835e+00
  2.037252e+01    1.237812e+00
  2.038839e+01    1.238001e+00
  2.040427e+01    1.271640e+00
  2.042014e+01    1.258842e+00
  2.043602e+01    1.244409e+00
  2.045190e+01    1.231926e+00
  2.046777e+01    1.238501e+00
  2.048365e+01    1.248968e+00
  2.049952e+01    1.257307e+00
  2.051540e+01    1.235503e+00
  2.053127e+01    1.241837e+00
  2.054715e+01    1.241996e+00
  2.056302e+01    1.257138e+00
  2.057890e+01    1.244992e+00
  2.059478e+01    1.223181e+00
  2.061065e+01    1.232522e+00
  2.062653e+01    1.225525e+00
  2.064240e+01    1.224981e+00
  2.065828e+01    1.235975e+00
  2.067415e+01    1.241128e+00
  2.069003e+01    1.231456e+00
  2.070590e+01    1.244398e+00
  2.072178e+01    1.251742e+00
  2.073766e+01    1.235286e+00
  2.075353e+01    1.227314e+00
  2.076941e+01    1.251529e+00
  2.078528e+01    1.204065e+00
  2.080116e+01    1.224994e+00
  2.081703e+01    1.222763e+00
  2.083291e+01    1.217072e+00
  2.084878e+01    1.215228e+00
  2.086466e+01    1.188909e+00
  2.088054e+01    1.209741e+00
  2.089641e+01    1.224486e+00
  2.091229e+01    1.246523e+00
  2.092816e+01    1.251233e+00
  2.094404e+01    1.208835e+00
  2.095991e+01    1.238106e+00
  2.097579e+01    1.245960e+00
  2.099166e+01    1.239376e+00
  2.100754e+01    1.219856e+00
  2.102342e+01    1.200800e+00
  2.103929e+01    1.212662e+00
  2.105517e+01    1.194949e+00
  2.107104e+01    1.214394e+00
  2.108692e+01    1.211090e+00
  2.110279e+01    1.203997e+00
  2.111867e+01    1.223661e+00
  2.113455e+01    1.234349e+00
  2.115042e+01    1.245282e+00
  2.116630e+01    1.244872e+00
  2.118217e+01    1.222834e+00
  2.119805e+01    1.224894e+00
  2.121392e+01    1.237004e+00
  2.122980e+01    1.227987e+00
  2.124567e+01    1.269272e+00
  2.126155e+01    1.268049e+00
  2.127743e+01    1.276658e+00
  2.129330e+01    1.268145e+00
  2.130918e+01    1.249926e+00
  2.132505e+01    1.265703e+00
  2.134093e+01    1.296789e+00
  2.135680e+01    1.289005e+00
  2.137268e+01    1.291167e+00
  2.138855e+01    1.309921e+00
  2.140443e+01    1.314977e+00
  2.142031e+01    1.340250e+00
  2.143618e+01    1.360436e+00
  2.145206e+01    1.360179e+00
  2.146793e+01    1.380096e+00
  2.148381e+01    1.394287e+00
  2.149968e+01    1.408845e+00
  2.151556e+01    1.447235e+00
  2.153143e+01    1.504858e+00
  2.154731e+01    1.545490e+00
  2.156319e+01    1.568299e+00
  2.157906e+01    1.625357e+00
  2.159494e+01    1.686641e+00
  2.161081e+01    1.783992e+00
  2.162669e+01    1.865293e+00
  2.164256e+01    2.000686e+00
  2.165844e+01    2.155533e+00
  2.167431e+01    2.337095e+00
  2.169019e+01    2.559510e+00
  2.170607e+01    2.853524e+00
  2.172194e+01    3.126379e+00
  2.173782e+01    3.612575e+00
  2.175369e+01    4.132933e+00
  2.176957e+01    4.650832e+00
  2.178544e+01    5.290751e+00
  2.180132e+01    6.003516e+00
  2.181719e+01    6.654535e+00
  2.183307e+01    7.277033e+00
  2.184895e+01    7.838133e+00
  2.186482e+01    8.466143e+00
  2.188070e+01    8.856135e+00
  2.189657e+01    8.917123e+00
  2.191245e+01    8.668316e+00
  2.192832e+01    8.141499e+00
  2.194420e+01    7.328549e+00
  2.196007e+01    6.497829e+00
  2.197595e+01    5.541839e+00
  2.199183e+01    4.675973e+00
  2.200770e+01    4.052275e+00
  2.202358e+01    3.560048e+00
  2.203945e+01    3.120802e+00
  2.205533e+01    2.781656e+00
  2.207120e+01    2.492542e+00
  2.208708e+01    2.300308e+00
  2.210296e+01    2.155838e+00
  2.211883e+01    1.988939e+00
  2.213471e+01    1.843201e+00
  2.215058e+01    1.742335e+00
  2.216646e+01    1.663108e+00
  2.218233e+01    1.574997e+00
  2.219821e+01    1.554052e+00
  2.221408e+01    1.511738e+00
  2.222996e+01    1.441520e+00
  2.224584e+01    1.402834e+00
  2.226171e+01    1.365072e+00
  2.227759e+01    1.330446e+00
  2.229346e+01    1.320385e+00
  2.230934e+01    1.322399e+00
  2.232521e+01    1.295437e+00
  2.234109e+01    1.265635e+00
  2.235696e+01    1.230596e+00
  2.237284e+01    1.226985e+00
  2.238872e+01    1.209165e+00
  2.240459e+01    1.207573e+00
  2.242047e+01    1.209329e+00
  2.243634e+01    1.174893e+00
  2.245222e+01    1.165008e+00
  2.246809e+01    1.164778e+00
  2.248397e+01    1.146149e+00
  2.249984e+01    1.134155e+00
  2.251572e+01    1.128733e+00
  2.253160e+01    1.136416e+00
  2.254747e+01    1.128275e+00
  2.256335e+01    1.106279e+00
  2.257922e+01    1.097513e+00
  2.259510e+01    1.107873e+00
  2.261097e+01    1.118672e+00
  2.262685e+01    1.103150e+00
  2.264272e+01    1.086946e+00
  2.265860e+01    1.066993e+00
  2.267448e+01    1.058037e+00
  2.269035e+01    1.090908e+00
  2.270623e+01    1.102609e+00
  2.272210e+01    1.100806e+00
  2.273798e+01    1.075621e+00
  2.275385e+01    1.074879e+00
  2.276973e+01    1.065794e+00
  2.278560e+01    1.065421e+00
  2.280148e+01    1.050987e+00
  2.281736e+01    1.042454e+00
  2.283323e+01    1.046247e+00
  2.284911e+01    1.073961e+00
  2.286498e+01    1.068795e+00
  2.288086e+01    1.040151e+00
  2.289673e+01    1.026303e+00
  2.291261e+01    1.043141e+00
  2.292848e+01    1.036105e+00
  2.294436e+01    1.014309e+00
  2.296024e+01    1.040107e+00
  2.297611e+01    1.022826e+00
  2.299199e+01    1.015552e+00
  2.300786e+01    1.041890e+00
  2.302374e+01    1.013601e+00
  2.303961e+01    1.006443e+00
  2.305549e+01    1.041196e+00
  2.307137e+01    1.014997e+00
  2.308724e+01    1.016177e+00
  2.310312e+01    9.985680e-01
  2.311899e+01    1.002203e+00
  2.313487e+01    1.005986e+00
  2.315074e+01    1.013020e+00
  2.316662e+01    1.013241e+00
  2.318249e+01    1.022114e+00
  2.319837e+01    1.019243e+00
  2.321425e+01    9.937292e-01
  2.323012e+01    9.855466e-01
  2.324600e+01    9.755456e-01
  2.326187e+01    9.880034e-01
  2.327775e+01    9.948203e-01
  2.329362e+01    9.917561e-01
  2.330950e+01    1.012147e+00
  2.332537e+01    9.806684e-01
  2.334125e+01    9.751838e-01
  2.335713e+01    9.810544e-01
  2.337300e+01    9.676409e-01
  2.338888e+01    9.454250e-01
  2.340475e+01    9.536097e-01
  2.342063e+01    9.525233e-01
  2.343650e+01    9.694411e-01
  2.345238e+01    9.792040e-01
  2.346825e+01    9.744630e-01
  2.348413e+01    9.575081e-01
  2.350001e+01    9.737182e-01
  2.351588e+01    9.645832e-01
  2.353176e+01    9.602199e-01
  2.354763e+01    9.710958e-01
  2.356351e+01    9.610497e-01
  2.357938e+01    9.517780e-01
  2.359526e+01    9.606814e-01
  2.361113e+01    9.778360e-01
  2.362701e+01    9.537140e-01
  2.364289e+01    9.196954e-01
  2.365876e+01    9.411043e-01
  2.367464e+01    9.483090e-01
  2.369051e+01    9.488353e-01
  2.370639e+01    9.439881e-01
  2.372226e+01    9.231548e-01
  2.373814e+01    9.391398e-01
  2.375401e+01    9.427625e-01
  2.376989e+01    9.372949e-01
  2.378577e+01    9.106767e-01
  2.380164e+01    9.246138e-01
  2.381752e+01    9.150563e-01
  2.383339e+01    9.200338e-01
  2.384927e+01    9.403449e-01
  2.386514e+01    9.177752e-01
  2.388102e+01    9.017619e-01
  2.389689e+01    8.865121e-01
  2.391277e+01    9.039161e-01
  2.392865e+01    9.371436e-01
  2.394452e+01    9.244437e-01
  2.396040e+01    9.215499e-01
  2.397627e+01    9.111618e-01
  2.399215e+01    8.922407e-01
  2.400802e+01    9.042079e-01
  2.402390e+01    9.025404e-01
  2.403978e+01    8.922475e-01
  2.405565e+01    9.027183e-01
  2.407153e+01    9.056572e-01
  2.408740e+01    9.068949e-01
  2.410328e+01    9.042011e-01
  2.411915e+01    8.840899e-01
  2.413503e+01    8.816950e-01
  2.415090e+01    8.894485e-01
  2.416678e+01    8.809476e-01
  2.418266e+01    8.977393e-01
  2.419853e+01    8.941256e-01
  2.421441e+01    8.924603e-01
  2.423028e+01    8.877406e-01
  2.424616e+01    8.910289e-01
  2.426203e+01    8.998095e-01
  2.427791e+01    9.159787e-01
  2.429378e+01    9.195802e-01
  2.430966e+01    9.159529e-01
  2.432554e+01    8.908741e-01
  2.434141e+01    8.833221e-01
  2.435729e+01    8.756621e-01
  2.437316e+01    9.040912e-01
  2.438904e+01    8.996906e-01
  2.440491e+01    8.833892e-01
  2.442079e+01    8.900520e-01
  2.443666e+01    8.946026e-01
  2.445254e+01    8.884969e-01
  2.446842e+01    8.884842e-01
  2.448429e+01    8.914208e-01
  2.450017e+01    9.169888e-01
  2.451604e+01    9.131356e-01
  2.453192e+01    9.016275e-01
  2.454779e+01    9.000894e-01
  2.456367e+01    8.885871e-01
  2.457954e+01    8.794776e-01
  2.459542e+01    8.860134e-01
  2.461130e+01    9.010420e-01
  2.462717e+01    8.869914e-01
  2.464305e+01    8.882325e-01
  2.465892e+01    8.996560e-01
  2.467480e+01    8.846877e-01
  2.469067e+01    8.907074e-01
  2.470655e+01    9.190502e-01
  2.472242e+01    9.033681e-01
  2.473830e+01    8.983553e-01
  2.475418e+01    9.106763e-01
  2.477005e+01    9.166347e-01
  2.478593e+01    8.990591e-01
  2.480180e+01    9.125414e-01
  2.481768e+01    9.140667e-01
  2.483355e+01    8.902409e-01
  2.484943e+01    8.766641e-01
  2.486530e+01    8.929268e-01
  2.488118e+01    9.016637e-01
  2.489706e+01    9.054390e-01
  2.491293e+01    8.774124e-01
  2.492881e+01    8.722351e-01
  2.494468e+01    8.772243e-01
  2.496056e+01    8.793553e-01
  2.497643e+01    8.918068e-01
  2.499231e+01    9.011526e-01
  2.500819e+01    8.890085e-01
  2.502406e+01    9.047798e-01
  2.503994e+01    9.107054e-01
  2.505581e+01    9.067435e-01
  2.507169e+01    8.952504e-01
  2.508756e+01    9.040007e-01
  2.510344e+01    9.230865e-01
  2.511931e+01    9.050848e-01
  2.513519e+01    9.036939e-01
  2.515107e+01    9.294661e-01
  2.516694e+01    9.133781e-01
  2.518282e+01    9.065979e-01
  2.519869e+01    9.343671e-01
  2.521457e+01    9.481756e-01
  2.523044e+01    9.563556e-01
  2.524632e+01    9.309134e-01
  2.526219e+01    9.428877e-01
  2.527807e+01    9.451850e-01
  2.529395e+01    9.451713e-01
  2.530982e+01    9.774231e-01
  2.532570e+01    9.754869e-01
  2.534157e+01    9.729682e-01
  2.535745e+01    9.710340e-01
  2.537332e+01    9.766952e-01
  2.538920e+01    9.897982e-01
  2.540507e+01    1.000636e+00
  2.542095e+01    1.008155e+00
  2.543683e+01    9.994490e-01
  2.545270e+01    1.029772e+00
  2.546858e+01    1.046780e+00
  2.548445e+01    1.047584e+00
  2.550033e+01    1.062694e+00
  2.551620e+01    1.081661e+00
  2.553208e+01    1.095919e+00
  2.554795e+01    1.113658e+00
  2.556383e+01    1.147163e+00
  2.557971e+01    1.169182e+00
  2.559558e+01    1.160112e+00
  2.561146e+01    1.231039e+00
  2.562733e+01    1.272460e+00
  2.564321e+01    1.329069e+00
  2.565908e+01    1.372955e+00
  2.567496e+01    1.455719e+00
  2.569083e+01    1.529667e+00
  2.570671e+01    1.622112e+00
  2.572259e+01    1.732251e+00
  2.573846e+01    1.844438e+00
  2.575434e+01    2.021701e+00
  2.577021e+01    2.249446e+00
  2.578609e+01    2.526445e+00
  2.580196e+01    2.867414e+00
  2.581784e+01    3.238788e+00
  2.583371e+01    3.719286e+00
  2.584959e+01    4.205742e+00
  2.586547e+01    4.754241e+00
  2.588134e+01    5.365053e+00
  2.589722e+01    5.953309e+00
  2.591309e+01    6.473876e+00
  2.592897e+01    6.811994e+00
  2.594484e+01    7.053998e+00
  2.596072e+01    7.122663e+00
  2.597660e+01    6.841228e+00
  2.599247e+01    6.400258e+00
  2.600835e+01    5.867933e+00
  2.602422e+01    5.173926e+00
  2.604010e+01    4.488678e+00
  2.605597e+01    3.846362e+00
  2.607185e+01    3.316050e+00
  2.608772e+01    2.928939e+00
  2.610360e+01    2.564816e+00
  2.611948e+01    2.326854e+00
  2.613535e+01    2.137215e+00
  2.615123e+01    1.919881e+00
  2.616710e+01    1.781265e+00
  2.618298e+01    1.668616e+00
  2.619885e+01    1.546764e+00
  2.621473e+01    1.476040e+00
  2.623060e+01    1.403025e+00
  2.624648e+01    1.344528e+00
  2.626236e+01    1.308710e+00
  2.627823e+01    1.259879e+00
  2.629411e+01    1.199636e+00
  2.630998e+01    1.161848e+00
  2.632586e+01    1.152861e+00
  2.634173e+01    1.132819e+00
  2.635761e+01    1.100451e+00
  2.637348e+01    1.067436e+00
  2.638936e+01    1.064118e+00
  2.640524e+01    1.036470e+00
  2.642111e+01    1.037676e+00
  2.643699e+01    1.057279e+00
  2.645286e+01    1.055144e+00
  2.646874e+01    1.021208e+00
  2.648461e+01    1.015104e+00
  2.650049e+01    9.841059e-01
  2.651636e+01    1.001233e+00
  2.653224e+01    9.770920e-01
  2.654812e+01    9.843045e-01
  2.656399e+01    9.942023e-01
  2.657987e+01    1.011085e+00
  2.659574e+01    9.910824e-01
  2.661162e+01    9.821007e-01
  2.662749e+01    9.797756e-01
  2.664337e+01    9.972506e-01
  2.665924e+01    9.897960e-01
  2.667512e+01    9.764968e-01
  2.669100e+01    9.734163e-01
  2.670687e+01    9.866241e-01
  2.672275e+01    9.847397e-01
  2.673862e+01    9.794685e-01
  2.675450e+01    9.744656e-01
  2.677037e+01    9.681673e-01
  2.678625e+01    9.742157e-01
  2.680212e+01    9.720167e-01
  2.681800e+01    9.834757e-01
  2.683388e+01    9.651026e-01
  2.684975e+01    9.774357e-01
  2.686563e+01    9.815019e-01
  2.688150e+01    9.953991e-01
  2.689738e+01    1.011938e+00
  2.691325e+01    1.010820e+00
  2.692913e+01    1.009359e+00
  2.694501e+01    1.034870e+00
  2.696088e+01    1.061112e+00
  2.697676e+01    1.069275e+00
  2.699263e+01    1.062539e+00
  2.700851e+01    1.119648e+00
  2.702438e+01    1.174247e+00
  2.704026e+01    1.226608e+00
  2.705613e+01    1.261648e+00
  2.707201e+01    1.330015e+00
  2.708789e+01    1.402766e+00
  2.710376e+01    1.507284e+00
  2.711964e+01    1.629638e+00
  2.713551e+01    1.763415e+00
  2.715139e+01    1.856681e+00
  2.716726e+01    1.981230e+00
  2.718314e+01    2.086866e+00
  2.719901e+01    2.163572e+00
  2.721489e+01    2.160505e+00
  2.723077e+01    2.150006e+00
  2.724664e+01    2.064135e+00
  2.726252e+01    1.954464e+00
  2.727839e+01    1.834352e+00
  2.729427e+01    1.663327e+00
  2.731014e+01    1.531577e+00
  2.732602e+01    1.419713e+00
  2.734189e+01    1.340131e+00
  2.735777e+01    1.275503e+00
  2.737365e+01    1.218908e+00
  2.738952e+01    1.157345e+00
  2.740540e+01    1.133827e+00
  2.742127e+01    1.110314e+00
  2.743715e+01    1.071798e+00
  2.745302e+01    1.033944e+00
  2.746890e+01    1.010195e+00
  2.748477e+01    1.007511e+00
  2.750065e+01    1.007394e+00
  2.751653e+01    9.746027e-01
  2.753240e+01    9.638061e-01
  2.754828e+01    9.377070e-01
  2.756415e+01    9.540115e-01
  2.758003e+01    9.456100e-01
  2.759590e+01    9.472353e-01
  2.761178e+01    9.328134e-01
  2.762765e+01    9.278261e-01
  2.764353e+01    9.312677e-01
  2.765941e+01    8.964356e-01
  2.767528e+01    9.084522e-01
  2.769116e+01    8.781455e-01
  2.770703e+01    9.109005e-01
  2.772291e+01    9.059305e-01
  2.773878e+01    8.947908e-01
  2.775466e+01    8.840705e-01
  2.777054e+01    8.907871e-01
  2.778641e+01    8.993240e-01
  2.780229e+01    9.067457e-01
  2.781816e+01    8.953555e-01
  2.783404e+01    8.732535e-01
  2.784991e+01    8.758414e-01
  2.786579e+01    8.911468e-01
  2.788166e+01    8.944811e-01
  2.789754e+01    8.668029e-01
  2.791342e+01    8.681546e-01
  2.792929e+01    8.694871e-01
  2.794517e+01    8.621302e-01
  2.796104e+01    8.784581e-01
  2.797692e+01    8.635031e-01
  2.799279e+01    8.546697e-01
  2.800867e+01    8.700386e-01
  2.802454e+01    8.806484e-01
  2.804042e+01    8.710710e-01
  2.805630e+01    8.651746e-01
  2.807217e+01    8.664625e-01
  2.808805e+01    8.566088e-01
  2.810392e+01    8.639100e-01
  2.811980e+01    8.637254e-01
  2.813567e+01    8.741015e-01
  2.815155e+01    8.569922e-01
  2.816742e+01    8.619573e-01
  2.818330e+01    8.984078e-01
  2.819918e+01    8.629966e-01
  2.821505e+01    8.555677e-01
  2.823093e+01    8.633262e-01
  2.824680e+01    8.619978e-01
  2.826268e+01    8.489450e-01
  2.827855e+01    8.862864e-01
  2.829443e+01    8.784942e-01
  2.831030e+01    8.614036e-01
  2.832618e+01    8.478841e-01
  2.834206e+01    8.400550e-01
  2.835793e+01    8.689086e-01
  2.837381e+01    8.580099e-01
  2.838968e+01    8.544584e-01
  2.840556e+01    8.672598e-01
  2.842143e+01    8.605172e-01
  2.843731e+01    8.409112e-01
  2.845318e+01    8.315557e-01
  2.846906e+01    8.604112e-01
  2.848494e+01    8.594450e-01
  2.850081e+01    8.271232e-01
  2.851669e+01    8.194550e-01
  2.853256e+01    8.294980e-01
  2.854844e+01    8.596210e-01
  2.856431e+01    8.378236e-01
  2.858019e+01    8.341593e-01
  2.859606e+01    8.317280e-01
  2.861194e+01    8.148752e-01
  2.862782e+01    8.444853e-01
  2.864369e+01    8.482367e-01
  2.865957e+01    8.384667e-01
  2.867544e+01    8.573373e-01
  2.869132e+01    8.415498e-01
  2.870719e+01    8.329172e-01
  2.872307e+01    8.227783e-01
  2.873895e+01    8.174014e-01
  2.875482e+01    8.446712e-01
  2.877070e+01    8.420411e-01
  2.878657e+01    8.530454e-01
  2.880245e+01    8.342831e-01
  2.881832e+01    8.106999e-01
  2.883420e+01    8.070381e-01
  2.885007e+01    8.030653e-01
  2.886595e+01    8.295794e-01
  2.888183e+01    8.190961e-01
  2.889770e+01    8.052522e-01
  2.891358e+01    7.939433e-01
  2.892945e+01    7.961881e-01
  2.894533e+01    8.138415e-01
  2.896120e+01    8.062891e-01
  2.897708e+01    8.183049e-01
  2.899295e+01    8.227346e-01
  2.900883e+01    8.170125e-01
  2.902471e+01    8.327783e-01
  2.904058e+01    8.134471e-01
  2.905646e+01    8.160707e-01
  2.907233e+01    8.017467e-01
  2.908821e+01    8.052703e-01
  2.910408e+01    8.230001e-01
  2.911996e+01    8.250079e-01
  2.913583e+01    8.123857e-01
  2.915171e+01    8.147306e-01
  2.916759e+01    8.197444e-01
  2.918346e+01    8.009390e-01
  2.919934e+01    8.132149e-01
  2.921521e+01    8.147252e-01
  2.923109e+01    8.091883e-01
  2.924696e+01    8.172329e-01
  2.926284e+01    8.153353e-01
  2.927871e+01    8.239168e-01
  2.929459e+01    8.112345e-01
  2.931047e+01    8.151131e-01
  2.932634e+01    8.074583e-01
  2.934222e+01    8.031922e-01
  2.935809e+01    8.028740e-01
  2.937397e+01    7.893806e-01
  2.938984e+01    7.839122e-01
  2.940572e+01    7.934963e-01
  2.942159e+01    7.979947e-01
  2.943747e+01    8.103874e-01
  2.945335e+01    8.070597e-01
  2.946922e+01    8.117328e-01
  2.948510e+01    8.259987e-01
  2.950097e+01    8.111275e-01
  2.951685e+01    7.857677e-01
  2.953272e+01    7.868091e-01
  2.954860e+01    8.144838e-01
  2.956447e+01    8.121210e-01
  2.958035e+01    7.963418e-01
  2.959623e+01    8.122351e-01
  2.961210e+01    8.133059e-01
  2.962798e+01    8.177967e-01
  2.964385e+01    7.953730e-01
  2.965973e+01    7.829090e-01
  2.967560e+01    7.883171e-01
  2.969148e+01    7.841895e-01
  2.970736e+01    7.767534e-01
  2.972323e+01    8.101572e-01
  2.973911e+01    7.946346e-01
  2.975498e+01    7.973691e-01
  2.977086e+01    7.876495e-01
  2.978673e+01    7.824332e-01
  2.980261e+01    7.893445e-01
  2.981848e+01    8.027394e-01
  2.983436e+01    7.922578e-01
  2.985024e+01    7.788789e-01
  2.986611e+01    7.828208e-01
  2.988199e+01    7.816016e-01
  2.989786e+01    7.977611e-01
  2.991374e+01    8.124203e-01
  2.992961e+01    7.991470e-01
  2.994549e+01    8.075733e-01
  2.996136e+01    8.098168e-01
  2.997724e+01    8.216492e-01
  2.999312e+01    8.228609e-01
  3.000899e+01    8.134124e-01
  3.002487e+01    7.972844e-01
  3.004074e+01    7.984946e-01
  3.005662e+01    8.353878e-01
  3.007249e+01    8.183768e-01
  3.008837e+01    7.940409e-01
  3.010424e+01    7.965315e-01
  3.012012e+01    8.076369e-01
  3.013600e+01    8.115769e-01
  3.015187e+01    8.067623e-01
  3.016775e+01    7.983387e-01
  3.018362e+01    7.946951e-01
  3.019950e+01    7.881979e-01
  3.021537e+01    8.047023e-01
  3.023125e+01    8.063155e-01
  3.024712e+01    7.877842e-01
  3.026300e+01    7.788356e-01
  3.027888e+01    7.834110e-01
  3.029475e+01    7.998502e-01
  3.031063e+01    7.853894e-01
  3.032650e+01    8.052015e-01
  3.034238e+01    7.841769e-01
  3.035825e+01    8.015362e-01
  3.037413e+01    7.916713e-01
  3.039000e+01    7.978733e-01
  3.040588e+01    7.950146e-01
  3.042176e+01    7.712710e-01
  3.043763e+01    7.719507e-01
  3.045351e+01    7.904696e-01
  3.046938e+01    7.913173e-01
  3.048526e+01    7.866557e-01
  3.050113e+01    7.924669e-01
  3.051701e+01    7.816056e-01
  3.053288e+01    7.891970e-01
  3.054876e+01    7.852511e-01
  3.056464e+01    8.016299e-01
  3.058051e+01    7.999426e-01
  3.059639e+01    7.951017e-01
  3.061226e+01    7.811928e-01
  3.062814e+01    7.791187e-01
  3.064401e+01    7.801648e-01
  3.065989e+01    7.978290e-01
  3.067577e+01    7.940617e-01
  3.069164e+01    7.821018e-01
  3.070752e+01    7.746201e-01
  3.072339e+01    7.669134e-01
  3.073927e+01    7.887578e-01
  3.075514e+01    7.729111e-01
  3.077102e+01    7.880414e-01
  3.078689e+01    7.929443e-01
  3.080277e+01    7.737823e-01
  3.081865e+01    7.735910e-01
  3.083452e+01    7.747000e-01
  3.085040e+01    7.908541e-01
  3.086627e+01    7.757780e-01
  3.088215e+01    7.755560e-01
  3.089802e+01    7.989283e-01
  3.091390e+01    8.027249e-01
  3.092977e+01    7.765309e-01
  3.094565e+01    7.965780e-01
  3.096153e+01    7.726926e-01
  3.097740e+01    7.884110e-01
  3.099328e+01    7.879617e-01
  3.100915e+01    7.844397e-01
  3.102503e+01    7.872609e-01
  3.104090e+01    8.141561e-01
  3.105678e+01    8.034847e-01
  3.107265e+01    7.824761e-01
  3.108853e+01    7.930650e-01
  3.110441e+01    8.119582e-01
  3.112028e+01    8.092442e-01
  3.113616e+01    8.027000e-01
  3.115203e+01    7.915541e-01
  3.116791e+01    7.812911e-01
  3.118378e+01    7.744603e-01
  3.119966e+01    7.645329e-01
  3.121553e+01    7.902143e-01
  3.123141e+01    7.998042e-01
  3.124729e+01    8.125131e-01
  3.126316e+01    7.944147e-01
  3.127904e+01    7.978665e-01
  3.129491e+01    7.871186e-01
  3.131079e+01    7.929961e-01
  3.132666e+01    8.067493e-01
  3.134254e+01    8.291726e-01
  3.135841e+01    8.322368e-01
  3.137429e+01    8.245015e-01
  3.139017e+01    8.126798e-01
  3.140604e+01    8.310006e-01
  3.142192e+01    8.194631e-01
  3.143779e+01    8.149855e-01
  3.145367e+01    8.186058e-01
  3.146954e+01    8.166074e-01
  3.148542e+01    8.526949e-01
  3.150129e+01    8.403757e-01
  3.151717e+01    8.249298e-01
  3.153305e+01    8.292410e-01
  3.154892e+01    8.569407e-01
  3.156480e+01    8.682105e-01
  3.158067e+01    8.689334e-01
  3.159655e+01    8.671750e-01
  3.161242e+01    8.836524e-01
  3.162830e+01    8.944494e-01
  3.164418e+01    9.145327e-01
  3.166005e+01    9.504051e-01
  3.167593e+01    9.516144e-01
  3.169180e+01    9.949515e-01
  3.170768e+01    1.026804e+00
  3.172355e+01    1.049234e+00
  3.173943e+01    1.133326e+00
  3.175530e+01    1.210698e+00
  3.177118e+01    1.267537e+00
  3.178706e+01    1.365025e+00
  3.180293e+01    1.482275e+00
  3.181881e+01    1.580143e+00
  3.183468e+01    1.737235e+00
  3.185056e+01    1.839642e+00
  3.186643e+01    1.933485e+00
  3.188231e+01    2.041844e+00
  3.189818e+01    2.110785e+00
  3.191406e+01    2.047157e+00
  3.192994e+01    2.020977e+00
  3.194581e+01    1.944252e+00
  3.196169e+01    1.816066e+00
  3.197756e+01    1.655722e+00
  3.199344e+01    1.500428e+00
  3.200931e+01    1.431093e+00
  3.202519e+01    1.307404e+00
  3.204106e+01    1.185316e+00
  3.205694e+01    1.160174e+00
  3.207282e+01    1.081940e+00
  3.208869e+01    1.017697e+00
  3.210457e+01    1.012717e+00
  3.212044e+01    9.926242e-01
  3.213632e+01    9.485900e-01
  3.215219e+01    9.027782e-01
  3.216807e+01    8.896203e-01
  3.218394e+01    8.682903e-01
  3.219982e+01    8.661435e-01
  3.221570e+01    8.686662e-01
  3.223157e+01    8.715406e-01
  3.224745e+01    8.655270e-01
  3.226332e+01    8.321825e-01
  3.227920e+01    8.142032e-01
  3.229507e+01    8.203817e-01
  3.231095e+01    8.113965e-01
  3.232682e+01    8.065113e-01
  3.234270e+01    8.194576e-01
  3.235858e+01    8.274242e-01
  3.237445e+01    7.895486e-01
  3.239033e+01    7.731516e-01
  3.240620e+01    8.073791e-01
  3.242208e+01    7.936099e-01
  3.243795e+01    7.648295e-01
  3.245383e+01    7.960361e-01
  3.246970e+01    7.983440e-01
  3.248558e+01    7.829183e-01
  3.250146e+01    7.961450e-01
  3.251733e+01    7.776824e-01
  3.253321e+01    7.660160e-01
  3.254908e+01    7.675349e-01
