# == pyFAI calibration ==
# Distance Sample to Detector: 0.3999999939076516 m
# PONI: 9.750e-02, 1.135e-01 m
# Rotations: -0.000175 0.000000 -0.000000 rad
# 
# == Fit2d calibration ==
# Distance Sample-beamCenter: 400.000 mm
# Center: x=1514.000, y=1300.000 pix
# Tilt: 0.010 deg  TiltPlanRot: 0.010 deg
# 
# Detector Detector	 Spline= None	 PixelSize= 7.500e-05, 7.500e-05 m
#    Detector has a mask: False 
#    Detector has a dark current: False 
#    detector has a flat field: False 
# 
# Wavelength: 6.888e-11 m
# Mask applied: user provided
# Dark current applied: False
# Flat field applied: False
# Polarization factor: 0.99
# Normalization factor: 1.0
# --> /home/myspot/data/2024_07_Rosario/Ru-CGO-ex/2024-07-27_003_Ru-CGO-ex_Reaction_dwell_000023_data_000082.dat
#       q_nm^-1             I 
  2.003187e-02    3.738191e-01
  3.590745e-02    4.044054e-01
  5.178302e-02    3.578667e-01
  6.765859e-02    2.788856e-01
  8.353417e-02    2.136272e-01
  9.940974e-02    7.040439e-02
  1.152853e-01    2.709276e-02
  1.311609e-01    1.472141e-01
  1.470365e-01    4.035353e-02
  1.629120e-01    4.199025e-02
  1.787876e-01    3.091984e-02
  1.946632e-01    4.398410e-02
  2.105388e-01    3.014026e-02
  2.264143e-01    3.700439e-02
  2.422899e-01    3.859831e-02
  2.581655e-01    6.901409e-02
  2.740411e-01    7.338842e-02
  2.899166e-01    5.913133e-02
  3.057922e-01    4.932520e-02
  3.216678e-01    5.898820e-02
  3.375433e-01    5.644844e-02
  3.534189e-01    5.434532e-02
  3.692945e-01    4.366259e-02
  3.851701e-01    5.721978e-02
  4.010456e-01    6.594248e-02
  4.169212e-01    6.863067e-02
  4.327968e-01    5.861833e-02
  4.486724e-01    3.714645e-02
  4.645479e-01    5.521421e-02
  4.804235e-01    5.348943e-02
  4.962991e-01    4.520560e-02
  5.121747e-01    4.107250e-02
  5.280502e-01    3.548859e-02
  5.439258e-01    3.258362e-02
  5.598014e-01    2.203239e-02
  5.756770e-01    3.895916e-02
  5.915525e-01    3.641612e-02
  6.074281e-01    1.628843e-02
  6.233037e-01    1.648124e-02
  6.391793e-01    1.306023e-02
  6.550548e-01    4.641692e-02
  6.709304e-01    6.222510e-02
  6.868060e-01    5.820722e-02
  7.026815e-01    3.638666e-02
  7.185571e-01    3.276289e-02
  7.344327e-01    5.096220e-02
  7.503083e-01    4.492979e-02
  7.661838e-01    8.215035e-02
  7.820594e-01    1.224673e-01
  7.979350e-01    1.449597e-01
  8.138106e-01    2.205027e-01
  8.296861e-01    3.269382e-01
  8.455617e-01    3.590039e-01
  8.614373e-01    3.615077e-01
  8.773129e-01    4.475264e-01
  8.931884e-01    5.123720e-01
  9.090640e-01    5.943918e-01
  9.249396e-01    7.030825e-01
  9.408152e-01    8.290476e-01
  9.566907e-01    8.045375e-01
  9.725663e-01    9.869418e-01
  9.884419e-01    1.175102e+00
  1.004317e+00    1.317547e+00
  1.020193e+00    1.318480e+00
  1.036069e+00    1.364082e+00
  1.051944e+00    1.477332e+00
  1.067820e+00    1.591260e+00
  1.083695e+00    1.641121e+00
  1.099571e+00    1.537315e+00
  1.115446e+00    1.483178e+00
  1.131322e+00    1.527059e+00
  1.147198e+00    1.554014e+00
  1.163073e+00    1.608420e+00
  1.178949e+00    1.644794e+00
  1.194824e+00    1.594609e+00
  1.210700e+00    1.997463e+00
  1.226575e+00    2.169498e+00
  1.242451e+00    2.440765e+00
  1.258327e+00    2.595427e+00
  1.274202e+00    2.577548e+00
  1.290078e+00    2.633909e+00
  1.305953e+00    2.788929e+00
  1.321829e+00    2.693835e+00
  1.337705e+00    2.597053e+00
  1.353580e+00    2.838186e+00
  1.369456e+00    2.858521e+00
  1.385331e+00    2.835053e+00
  1.401207e+00    2.964272e+00
  1.417082e+00    2.972162e+00
  1.432958e+00    2.961875e+00
  1.448834e+00    3.076507e+00
  1.464709e+00    3.122084e+00
  1.480585e+00    3.121791e+00
  1.496460e+00    3.158340e+00
  1.512336e+00    3.233870e+00
  1.528211e+00    3.175734e+00
  1.544087e+00    3.123837e+00
  1.559963e+00    3.166259e+00
  1.575838e+00    3.123283e+00
  1.591714e+00    3.054241e+00
  1.607589e+00    3.194175e+00
  1.623465e+00    3.150080e+00
  1.639340e+00    3.224988e+00
  1.655216e+00    3.291570e+00
  1.671092e+00    3.224278e+00
  1.686967e+00    3.098578e+00
  1.702843e+00    3.134469e+00
  1.718718e+00    3.165604e+00
  1.734594e+00    3.073957e+00
  1.750469e+00    3.108189e+00
  1.766345e+00    3.201799e+00
  1.782221e+00    3.110036e+00
  1.798096e+00    3.002283e+00
  1.813972e+00    3.137712e+00
  1.829847e+00    3.166186e+00
  1.845723e+00    3.126672e+00
  1.861598e+00    2.999557e+00
  1.877474e+00    2.983917e+00
  1.893350e+00    3.010748e+00
  1.909225e+00    3.068495e+00
  1.925101e+00    3.100151e+00
  1.940976e+00    3.173824e+00
  1.956852e+00    3.089082e+00
  1.972727e+00    3.105421e+00
  1.988603e+00    3.160391e+00
  2.004479e+00    3.061049e+00
  2.020354e+00    3.104529e+00
  2.036230e+00    3.094386e+00
  2.052105e+00    3.106828e+00
  2.067981e+00    3.157249e+00
  2.083856e+00    3.113270e+00
  2.099732e+00    3.181410e+00
  2.115608e+00    3.191767e+00
  2.131483e+00    3.172094e+00
  2.147359e+00    3.100533e+00
  2.163234e+00    3.131031e+00
  2.179110e+00    3.106157e+00
  2.194985e+00    3.055485e+00
  2.210861e+00    3.017405e+00
  2.226737e+00    3.067139e+00
  2.242612e+00    3.004179e+00
  2.258488e+00    3.104222e+00
  2.274363e+00    3.089927e+00
  2.290239e+00    3.154793e+00
  2.306115e+00    3.248918e+00
  2.321990e+00    3.080725e+00
  2.337866e+00    3.121648e+00
  2.353741e+00    3.199747e+00
  2.369617e+00    3.126875e+00
  2.385492e+00    3.071900e+00
  2.401368e+00    3.170836e+00
  2.417244e+00    3.137024e+00
  2.433119e+00    3.133085e+00
  2.448995e+00    3.156407e+00
  2.464870e+00    3.199003e+00
  2.480746e+00    3.282914e+00
  2.496621e+00    3.190111e+00
  2.512497e+00    3.165015e+00
  2.528373e+00    3.137408e+00
  2.544248e+00    3.108433e+00
  2.560124e+00    3.203243e+00
  2.575999e+00    3.158684e+00
  2.591875e+00    3.179286e+00
  2.607750e+00    3.219186e+00
  2.623626e+00    3.188957e+00
  2.639502e+00    3.239276e+00
  2.655377e+00    3.338170e+00
  2.671253e+00    3.361737e+00
  2.687128e+00    3.289040e+00
  2.703004e+00    3.312933e+00
  2.718879e+00    3.356629e+00
  2.734755e+00    3.446787e+00
  2.750631e+00    3.341235e+00
  2.766506e+00    3.248515e+00
  2.782382e+00    3.281233e+00
  2.798257e+00    3.132273e+00
  2.814133e+00    3.180855e+00
  2.830008e+00    3.252441e+00
  2.845884e+00    3.344044e+00
  2.861760e+00    3.224674e+00
  2.877635e+00    3.328620e+00
  2.893511e+00    3.293991e+00
  2.909386e+00    3.320286e+00
  2.925262e+00    3.371740e+00
  2.941137e+00    3.305230e+00
  2.957013e+00    3.369923e+00
  2.972889e+00    3.357388e+00
  2.988764e+00    3.359957e+00
  3.004640e+00    3.282149e+00
  3.020515e+00    3.311727e+00
  3.036391e+00    3.320404e+00
  3.052266e+00    3.389787e+00
  3.068142e+00    3.409389e+00
  3.084018e+00    3.389830e+00
  3.099893e+00    3.277024e+00
  3.115769e+00    3.382447e+00
  3.131644e+00    3.336304e+00
  3.147520e+00    3.312608e+00
  3.163395e+00    3.283446e+00
  3.179271e+00    3.344193e+00
  3.195147e+00    3.423821e+00
  3.211022e+00    3.336988e+00
  3.226898e+00    3.412288e+00
  3.242773e+00    3.435739e+00
  3.258649e+00    3.341433e+00
  3.274525e+00    3.310105e+00
  3.290400e+00    3.348509e+00
  3.306276e+00    3.295618e+00
  3.322151e+00    3.437152e+00
  3.338027e+00    3.386240e+00
  3.353902e+00    3.373405e+00
  3.369778e+00    3.544954e+00
  3.385654e+00    3.477240e+00
  3.401529e+00    3.392599e+00
  3.417405e+00    3.478134e+00
  3.433280e+00    3.409326e+00
  3.449156e+00    3.336765e+00
  3.465031e+00    3.402616e+00
  3.480907e+00    3.481659e+00
  3.496783e+00    3.466045e+00
  3.512658e+00    3.459774e+00
  3.528534e+00    3.578654e+00
  3.544409e+00    3.449245e+00
  3.560285e+00    3.447275e+00
  3.576160e+00    3.518667e+00
  3.592036e+00    3.385578e+00
  3.607912e+00    3.449231e+00
  3.623787e+00    3.376201e+00
  3.639663e+00    3.452231e+00
  3.655538e+00    3.538860e+00
  3.671414e+00    3.658503e+00
  3.687289e+00    3.644778e+00
  3.703165e+00    3.566266e+00
  3.719041e+00    3.514938e+00
  3.734916e+00    3.489821e+00
  3.750792e+00    3.589933e+00
  3.766667e+00    3.591686e+00
  3.782543e+00    3.536444e+00
  3.798418e+00    3.492779e+00
  3.814294e+00    3.522861e+00
  3.830170e+00    3.555924e+00
  3.846045e+00    3.547024e+00
  3.861921e+00    3.508466e+00
  3.877796e+00    3.519605e+00
  3.893672e+00    3.566160e+00
  3.909547e+00    3.471307e+00
  3.925423e+00    3.453036e+00
  3.941299e+00    3.512830e+00
  3.957174e+00    3.586635e+00
  3.973050e+00    3.570656e+00
  3.988925e+00    3.513147e+00
  4.004801e+00    3.446035e+00
  4.020676e+00    3.566910e+00
  4.036552e+00    3.567658e+00
  4.052428e+00    3.606128e+00
  4.068303e+00    3.549306e+00
  4.084179e+00    3.504522e+00
  4.100054e+00    3.483431e+00
  4.115930e+00    3.552070e+00
  4.131806e+00    3.541069e+00
  4.147681e+00    3.531016e+00
  4.163557e+00    3.554819e+00
  4.179432e+00    3.524896e+00
  4.195308e+00    3.523490e+00
  4.211183e+00    3.549715e+00
  4.227059e+00    3.581383e+00
  4.242935e+00    3.689006e+00
  4.258810e+00    3.630126e+00
  4.274686e+00    3.528003e+00
  4.290561e+00    3.565100e+00
  4.306437e+00    3.637181e+00
  4.322312e+00    3.608480e+00
  4.338188e+00    3.606060e+00
  4.354064e+00    3.529196e+00
  4.369939e+00    3.533398e+00
  4.385815e+00    3.544166e+00
  4.401690e+00    3.461778e+00
  4.417566e+00    3.567096e+00
  4.433441e+00    3.641881e+00
  4.449317e+00    3.625008e+00
  4.465193e+00    3.607834e+00
  4.481068e+00    3.595429e+00
  4.496944e+00    3.611914e+00
  4.512819e+00    3.547714e+00
  4.528695e+00    3.561806e+00
  4.544570e+00    3.711075e+00
  4.560446e+00    3.734581e+00
  4.576322e+00    3.620291e+00
  4.592197e+00    3.686209e+00
  4.608073e+00    3.655690e+00
  4.623948e+00    3.595188e+00
  4.639824e+00    3.547074e+00
  4.655699e+00    3.598518e+00
  4.671575e+00    3.669239e+00
  4.687451e+00    3.652895e+00
  4.703326e+00    3.631202e+00
  4.719202e+00    3.596917e+00
  4.735077e+00    3.607745e+00
  4.750953e+00    3.652361e+00
  4.766828e+00    3.663945e+00
  4.782704e+00    3.636132e+00
  4.798580e+00    3.680471e+00
  4.814455e+00    3.701183e+00
  4.830331e+00    3.711818e+00
  4.846206e+00    3.659388e+00
  4.862082e+00    3.571598e+00
  4.877957e+00    3.628825e+00
  4.893833e+00    3.607765e+00
  4.909709e+00    3.623544e+00
  4.925584e+00    3.644405e+00
  4.941460e+00    3.609955e+00
  4.957335e+00    3.639187e+00
  4.973211e+00    3.598076e+00
  4.989086e+00    3.665373e+00
  5.004962e+00    3.722274e+00
  5.020838e+00    3.704628e+00
  5.036713e+00    3.715614e+00
  5.052589e+00    3.673523e+00
  5.068464e+00    3.715998e+00
  5.084340e+00    3.718920e+00
  5.100216e+00    3.652785e+00
  5.116091e+00    3.661657e+00
  5.131967e+00    3.701462e+00
  5.147842e+00    3.662320e+00
  5.163718e+00    3.719956e+00
  5.179593e+00    3.639552e+00
  5.195469e+00    3.650932e+00
  5.211345e+00    3.720945e+00
  5.227220e+00    3.726304e+00
  5.243096e+00    3.675141e+00
  5.258971e+00    3.775602e+00
  5.274847e+00    3.659300e+00
  5.290722e+00    3.572872e+00
  5.306598e+00    3.621651e+00
  5.322474e+00    3.654277e+00
  5.338349e+00    3.725188e+00
  5.354225e+00    3.729905e+00
  5.370100e+00    3.656066e+00
  5.385976e+00    3.600955e+00
  5.401851e+00    3.554064e+00
  5.417727e+00    3.552417e+00
  5.433603e+00    3.612818e+00
  5.449478e+00    3.691188e+00
  5.465354e+00    3.621468e+00
  5.481229e+00    3.646789e+00
  5.497105e+00    3.635639e+00
  5.512980e+00    3.549923e+00
  5.528856e+00    3.557338e+00
  5.544732e+00    3.598287e+00
  5.560607e+00    3.626731e+00
  5.576483e+00    3.679950e+00
  5.592358e+00    3.667075e+00
  5.608234e+00    3.534016e+00
  5.624109e+00    3.574248e+00
  5.639985e+00    3.602533e+00
  5.655861e+00    3.560496e+00
  5.671736e+00    3.577064e+00
  5.687612e+00    3.529426e+00
  5.703487e+00    3.651786e+00
  5.719363e+00    3.653165e+00
  5.735238e+00    3.639957e+00
  5.751114e+00    3.660371e+00
  5.766990e+00    3.614248e+00
  5.782865e+00    3.645820e+00
  5.798741e+00    3.598011e+00
  5.814616e+00    3.583965e+00
  5.830492e+00    3.643925e+00
  5.846367e+00    3.600593e+00
  5.862243e+00    3.563256e+00
  5.878119e+00    3.553131e+00
  5.893994e+00    3.627299e+00
  5.909870e+00    3.723390e+00
  5.925745e+00    3.693755e+00
  5.941621e+00    3.612575e+00
  5.957497e+00    3.587056e+00
  5.973372e+00    3.624873e+00
  5.989248e+00    3.558804e+00
  6.005123e+00    3.529517e+00
  6.020999e+00    3.506207e+00
  6.036874e+00    3.578632e+00
  6.052750e+00    3.594235e+00
  6.068626e+00    3.585184e+00
  6.084501e+00    3.590533e+00
  6.100377e+00    3.605752e+00
  6.116252e+00    3.622408e+00
  6.132128e+00    3.551596e+00
  6.148003e+00    3.535360e+00
  6.163879e+00    3.578273e+00
  6.179755e+00    3.582340e+00
  6.195630e+00    3.651031e+00
  6.211506e+00    3.586064e+00
  6.227381e+00    3.510021e+00
  6.243257e+00    3.599573e+00
  6.259132e+00    3.562052e+00
  6.275008e+00    3.532616e+00
  6.290884e+00    3.599745e+00
  6.306759e+00    3.642042e+00
  6.322635e+00    3.601414e+00
  6.338510e+00    3.569499e+00
  6.354386e+00    3.657308e+00
  6.370261e+00    3.676162e+00
  6.386137e+00    3.661880e+00
  6.402013e+00    3.651566e+00
  6.417888e+00    3.597759e+00
  6.433764e+00    3.589411e+00
  6.449639e+00    3.588612e+00
  6.465515e+00    3.621721e+00
  6.481390e+00    3.560272e+00
  6.497266e+00    3.564245e+00
  6.513142e+00    3.616986e+00
  6.529017e+00    3.577077e+00
  6.544893e+00    3.529079e+00
  6.560768e+00    3.593530e+00
  6.576644e+00    3.605812e+00
  6.592519e+00    3.612502e+00
  6.608395e+00    3.627201e+00
  6.624271e+00    3.521717e+00
  6.640146e+00    3.497514e+00
  6.656022e+00    3.537920e+00
  6.671897e+00    3.494894e+00
  6.687773e+00    3.468102e+00
  6.703648e+00    3.491406e+00
  6.719524e+00    3.506374e+00
  6.735400e+00    3.543444e+00
  6.751275e+00    3.566591e+00
  6.767151e+00    3.563159e+00
  6.783026e+00    3.534764e+00
  6.798902e+00    3.527101e+00
  6.814777e+00    3.555386e+00
  6.830653e+00    3.536206e+00
  6.846529e+00    3.570374e+00
  6.862404e+00    3.560338e+00
  6.878280e+00    3.544920e+00
  6.894155e+00    3.586632e+00
  6.910031e+00    3.619756e+00
  6.925907e+00    3.631627e+00
  6.941782e+00    3.602271e+00
  6.957658e+00    3.565591e+00
  6.973533e+00    3.504429e+00
  6.989409e+00    3.517499e+00
  7.005284e+00    3.528023e+00
  7.021160e+00    3.546994e+00
  7.037036e+00    3.526303e+00
  7.052911e+00    3.456529e+00
  7.068787e+00    3.535715e+00
  7.084662e+00    3.526632e+00
  7.100538e+00    3.500868e+00
  7.116413e+00    3.464197e+00
  7.132289e+00    3.461883e+00
  7.148165e+00    3.524215e+00
  7.164040e+00    3.571510e+00
  7.179916e+00    3.496162e+00
  7.195791e+00    3.503451e+00
  7.211667e+00    3.494951e+00
  7.227542e+00    3.517816e+00
  7.243418e+00    3.578559e+00
  7.259294e+00    3.581414e+00
  7.275169e+00    3.510746e+00
  7.291045e+00    3.498257e+00
  7.306920e+00    3.468103e+00
  7.322796e+00    3.523895e+00
  7.338671e+00    3.561401e+00
  7.354547e+00    3.525086e+00
  7.370423e+00    3.582915e+00
  7.386298e+00    3.573466e+00
  7.402174e+00    3.489116e+00
  7.418049e+00    3.465222e+00
  7.433925e+00    3.454211e+00
  7.449800e+00    3.491427e+00
  7.465676e+00    3.548118e+00
  7.481552e+00    3.505253e+00
  7.497427e+00    3.507806e+00
  7.513303e+00    3.533118e+00
  7.529178e+00    3.570251e+00
  7.545054e+00    3.545177e+00
  7.560929e+00    3.465715e+00
  7.576805e+00    3.463564e+00
  7.592681e+00    3.485178e+00
  7.608556e+00    3.524431e+00
  7.624432e+00    3.436944e+00
  7.640307e+00    3.526382e+00
  7.656183e+00    3.479072e+00
  7.672058e+00    3.512333e+00
  7.687934e+00    3.459306e+00
  7.703810e+00    3.434382e+00
  7.719685e+00    3.435815e+00
  7.735561e+00    3.462043e+00
  7.751436e+00    3.408218e+00
  7.767312e+00    3.432945e+00
  7.783187e+00    3.452399e+00
  7.799063e+00    3.508645e+00
  7.814939e+00    3.498529e+00
  7.830814e+00    3.465299e+00
  7.846690e+00    3.500618e+00
  7.862565e+00    3.421322e+00
  7.878441e+00    3.409776e+00
  7.894317e+00    3.423603e+00
  7.910192e+00    3.432630e+00
  7.926068e+00    3.453155e+00
  7.941943e+00    3.446019e+00
  7.957819e+00    3.460019e+00
  7.973694e+00    3.460446e+00
  7.989570e+00    3.480000e+00
  8.005446e+00    3.502396e+00
  8.021321e+00    3.529219e+00
  8.037197e+00    3.464479e+00
  8.053072e+00    3.398368e+00
  8.068948e+00    3.412607e+00
  8.084823e+00    3.476343e+00
  8.100699e+00    3.508629e+00
  8.116575e+00    3.474485e+00
  8.132450e+00    3.502891e+00
  8.148326e+00    3.538774e+00
  8.164201e+00    3.486118e+00
  8.180077e+00    3.476839e+00
  8.195952e+00    3.457539e+00
  8.211828e+00    3.465595e+00
  8.227704e+00    3.431550e+00
  8.243579e+00    3.417984e+00
  8.259455e+00    3.422238e+00
  8.275330e+00    3.448758e+00
  8.291206e+00    3.459818e+00
  8.307081e+00    3.467623e+00
  8.322957e+00    3.409415e+00
  8.338833e+00    3.418729e+00
  8.354708e+00    3.329433e+00
  8.370584e+00    3.330631e+00
  8.386459e+00    3.423895e+00
  8.402335e+00    3.428715e+00
  8.418210e+00    3.395477e+00
  8.434086e+00    3.440940e+00
  8.449962e+00    3.499704e+00
  8.465837e+00    3.417796e+00
  8.481713e+00    3.348223e+00
  8.497588e+00    3.317442e+00
  8.513464e+00    3.316511e+00
  8.529339e+00    3.341703e+00
  8.545215e+00    3.367774e+00
  8.561091e+00    3.424171e+00
  8.576966e+00    3.332616e+00
  8.592842e+00    3.372945e+00
  8.608717e+00    3.369783e+00
  8.624593e+00    3.337246e+00
  8.640468e+00    3.364143e+00
  8.656344e+00    3.325992e+00
  8.672220e+00    3.345121e+00
  8.688095e+00    3.379184e+00
  8.703971e+00    3.435985e+00
  8.719846e+00    3.409287e+00
  8.735722e+00    3.336992e+00
  8.751598e+00    3.389560e+00
  8.767473e+00    3.378928e+00
  8.783349e+00    3.350651e+00
  8.799224e+00    3.349857e+00
  8.815100e+00    3.355278e+00
  8.830975e+00    3.399429e+00
  8.846851e+00    3.358398e+00
  8.862727e+00    3.322928e+00
  8.878602e+00    3.344561e+00
  8.894478e+00    3.359805e+00
  8.910353e+00    3.299991e+00
  8.926229e+00    3.380343e+00
  8.942104e+00    3.398676e+00
  8.957980e+00    3.362163e+00
  8.973856e+00    3.353395e+00
  8.989731e+00    3.353167e+00
  9.005607e+00    3.337290e+00
  9.021482e+00    3.266785e+00
  9.037358e+00    3.272049e+00
  9.053233e+00    3.243002e+00
  9.069109e+00    3.261755e+00
  9.084985e+00    3.321529e+00
  9.100860e+00    3.299491e+00
  9.116736e+00    3.256996e+00
  9.132611e+00    3.234910e+00
  9.148487e+00    3.274841e+00
  9.164362e+00    3.303098e+00
  9.180238e+00    3.250489e+00
  9.196114e+00    3.273567e+00
  9.211989e+00    3.265485e+00
  9.227865e+00    3.265881e+00
  9.243740e+00    3.299959e+00
  9.259616e+00    3.281889e+00
  9.275491e+00    3.244435e+00
  9.291367e+00    3.234130e+00
  9.307243e+00    3.244902e+00
  9.323118e+00    3.276831e+00
  9.338994e+00    3.252228e+00
  9.354869e+00    3.237862e+00
  9.370745e+00    3.236156e+00
  9.386620e+00    3.242887e+00
  9.402496e+00    3.272900e+00
  9.418372e+00    3.281123e+00
  9.434247e+00    3.241920e+00
  9.450123e+00    3.167098e+00
  9.465998e+00    3.197484e+00
  9.481874e+00    3.235484e+00
  9.497749e+00    3.226553e+00
  9.513625e+00    3.155409e+00
  9.529501e+00    3.199099e+00
  9.545376e+00    3.201892e+00
  9.561252e+00    3.243135e+00
  9.577127e+00    3.259495e+00
  9.593003e+00    3.228572e+00
  9.608878e+00    3.279865e+00
  9.624754e+00    3.330361e+00
  9.640630e+00    3.218795e+00
  9.656505e+00    3.242242e+00
  9.672381e+00    3.236031e+00
  9.688256e+00    3.211941e+00
  9.704132e+00    3.232519e+00
  9.720008e+00    3.213697e+00
  9.735883e+00    3.233619e+00
  9.751759e+00    3.232945e+00
  9.767634e+00    3.198717e+00
  9.783510e+00    3.186974e+00
  9.799385e+00    3.242910e+00
  9.815261e+00    3.158827e+00
  9.831137e+00    3.158355e+00
  9.847012e+00    3.171338e+00
  9.862888e+00    3.209787e+00
  9.878763e+00    3.181757e+00
  9.894639e+00    3.182478e+00
  9.910514e+00    3.203131e+00
  9.926390e+00    3.230564e+00
  9.942266e+00    3.168563e+00
  9.958141e+00    3.156593e+00
  9.974017e+00    3.124417e+00
  9.989892e+00    3.084285e+00
  1.000577e+01    3.143559e+00
  1.002164e+01    3.139760e+00
  1.003752e+01    3.116534e+00
  1.005339e+01    3.114085e+00
  1.006927e+01    3.158085e+00
  1.008515e+01    3.100800e+00
  1.010102e+01    3.081801e+00
  1.011690e+01    3.054095e+00
  1.013277e+01    3.120423e+00
  1.014865e+01    3.126221e+00
  1.016452e+01    3.101760e+00
  1.018040e+01    3.048017e+00
  1.019627e+01    3.057126e+00
  1.021215e+01    3.101948e+00
  1.022803e+01    3.085677e+00
  1.024390e+01    3.069185e+00
  1.025978e+01    3.043386e+00
  1.027565e+01    3.090584e+00
  1.029153e+01    3.043259e+00
  1.030740e+01    3.022575e+00
  1.032328e+01    3.050512e+00
  1.033915e+01    3.070487e+00
  1.035503e+01    3.073003e+00
  1.037091e+01    3.057288e+00
  1.038678e+01    3.036067e+00
  1.040266e+01    3.005304e+00
  1.041853e+01    3.079891e+00
  1.043441e+01    2.998809e+00
  1.045028e+01    3.038048e+00
  1.046616e+01    3.042253e+00
  1.048204e+01    3.008276e+00
  1.049791e+01    3.031017e+00
  1.051379e+01    3.082603e+00
  1.052966e+01    2.985307e+00
  1.054554e+01    2.979830e+00
  1.056141e+01    3.033634e+00
  1.057729e+01    3.041510e+00
  1.059316e+01    3.064924e+00
  1.060904e+01    3.027230e+00
  1.062492e+01    3.026472e+00
  1.064079e+01    3.035607e+00
  1.065667e+01    2.952897e+00
  1.067254e+01    2.922607e+00
  1.068842e+01    2.931513e+00
  1.070429e+01    2.961218e+00
  1.072017e+01    3.004799e+00
  1.073604e+01    2.999425e+00
  1.075192e+01    3.021119e+00
  1.076780e+01    2.952907e+00
  1.078367e+01    2.966549e+00
  1.079955e+01    2.993284e+00
  1.081542e+01    2.957408e+00
  1.083130e+01    2.923486e+00
  1.084717e+01    2.928019e+00
  1.086305e+01    2.934232e+00
  1.087892e+01    2.925590e+00
  1.089480e+01    2.899722e+00
  1.091068e+01    2.915554e+00
  1.092655e+01    2.979465e+00
  1.094243e+01    2.960545e+00
  1.095830e+01    2.931483e+00
  1.097418e+01    2.904895e+00
  1.099005e+01    2.938579e+00
  1.100593e+01    2.971294e+00
  1.102180e+01    2.937877e+00
  1.103768e+01    2.880701e+00
  1.105356e+01    2.923714e+00
  1.106943e+01    2.926577e+00
  1.108531e+01    2.874530e+00
  1.110118e+01    2.889665e+00
  1.111706e+01    2.901271e+00
  1.113293e+01    2.889771e+00
  1.114881e+01    2.912593e+00
  1.116468e+01    2.941232e+00
  1.118056e+01    2.880228e+00
  1.119644e+01    2.891405e+00
  1.121231e+01    2.884324e+00
  1.122819e+01    2.876384e+00
  1.124406e+01    2.877887e+00
  1.125994e+01    2.822097e+00
  1.127581e+01    2.866930e+00
  1.129169e+01    2.866094e+00
  1.130756e+01    2.854522e+00
  1.132344e+01    2.848227e+00
  1.133932e+01    2.812510e+00
  1.135519e+01    2.832837e+00
  1.137107e+01    2.828619e+00
  1.138694e+01    2.786055e+00
  1.140282e+01    2.815464e+00
  1.141869e+01    2.868833e+00
  1.143457e+01    2.867259e+00
  1.145045e+01    2.855183e+00
  1.146632e+01    2.852175e+00
  1.148220e+01    2.836147e+00
  1.149807e+01    2.779850e+00
  1.151395e+01    2.808717e+00
  1.152982e+01    2.783545e+00
  1.154570e+01    2.762122e+00
  1.156157e+01    2.781354e+00
  1.157745e+01    2.793273e+00
  1.159333e+01    2.814932e+00
  1.160920e+01    2.868481e+00
  1.162508e+01    2.857425e+00
  1.164095e+01    2.813273e+00
  1.165683e+01    2.779503e+00
  1.167270e+01    2.808912e+00
  1.168858e+01    2.823125e+00
  1.170445e+01    2.737315e+00
  1.172033e+01    2.747600e+00
  1.173621e+01    2.810859e+00
  1.175208e+01    2.788376e+00
  1.176796e+01    2.770110e+00
  1.178383e+01    2.791208e+00
  1.179971e+01    2.765555e+00
  1.181558e+01    2.690296e+00
  1.183146e+01    2.691408e+00
  1.184733e+01    2.742982e+00
  1.186321e+01    2.739383e+00
  1.187909e+01    2.725412e+00
  1.189496e+01    2.726568e+00
  1.191084e+01    2.727153e+00
  1.192671e+01    2.737646e+00
  1.194259e+01    2.726958e+00
  1.195846e+01    2.733700e+00
  1.197434e+01    2.661332e+00
  1.199021e+01    2.707062e+00
  1.200609e+01    2.724550e+00
  1.202197e+01    2.749629e+00
  1.203784e+01    2.733925e+00
  1.205372e+01    2.707072e+00
  1.206959e+01    2.670482e+00
  1.208547e+01    2.733099e+00
  1.210134e+01    2.756335e+00
  1.211722e+01    2.734368e+00
  1.213309e+01    2.712290e+00
  1.214897e+01    2.718006e+00
  1.216485e+01    2.699985e+00
  1.218072e+01    2.721229e+00
  1.219660e+01    2.692802e+00
  1.221247e+01    2.641836e+00
  1.222835e+01    2.656862e+00
  1.224422e+01    2.679540e+00
  1.226010e+01    2.683837e+00
  1.227597e+01    2.704508e+00
  1.229185e+01    2.683110e+00
  1.230773e+01    2.719190e+00
  1.232360e+01    2.700845e+00
  1.233948e+01    2.717654e+00
  1.235535e+01    2.759969e+00
  1.237123e+01    2.757998e+00
  1.238710e+01    2.720167e+00
  1.240298e+01    2.716788e+00
  1.241886e+01    2.713994e+00
  1.243473e+01    2.688169e+00
  1.245061e+01    2.727459e+00
  1.246648e+01    2.797561e+00
  1.248236e+01    2.747862e+00
  1.249823e+01    2.665550e+00
  1.251411e+01    2.693683e+00
  1.252998e+01    2.731332e+00
  1.254586e+01    2.736192e+00
  1.256174e+01    2.791563e+00
  1.257761e+01    2.759512e+00
  1.259349e+01    2.722134e+00
  1.260936e+01    2.754140e+00
  1.262524e+01    2.792140e+00
  1.264111e+01    2.775552e+00
  1.265699e+01    2.771437e+00
  1.267286e+01    2.761306e+00
  1.268874e+01    2.821382e+00
  1.270462e+01    2.847264e+00
  1.272049e+01    2.849919e+00
  1.273637e+01    2.885739e+00
  1.275224e+01    2.888147e+00
  1.276812e+01    2.869872e+00
  1.278399e+01    2.979599e+00
  1.279987e+01    3.025590e+00
  1.281574e+01    3.075742e+00
  1.283162e+01    3.170671e+00
  1.284750e+01    3.239805e+00
  1.286337e+01    3.235551e+00
  1.287925e+01    3.377258e+00
  1.289512e+01    3.537645e+00
  1.291100e+01    3.733437e+00
  1.292687e+01    3.975079e+00
  1.294275e+01    4.205046e+00
  1.295862e+01    4.530470e+00
  1.297450e+01    4.880483e+00
  1.299038e+01    5.307051e+00
  1.300625e+01    6.010802e+00
  1.302213e+01    6.783191e+00
  1.303800e+01    7.761888e+00
  1.305388e+01    9.066276e+00
  1.306975e+01    1.030139e+01
  1.308563e+01    1.158496e+01
  1.310150e+01    1.282888e+01
  1.311738e+01    1.390585e+01
  1.313326e+01    1.503890e+01
  1.314913e+01    1.586791e+01
  1.316501e+01    1.634744e+01
  1.318088e+01    1.652188e+01
  1.319676e+01    1.583651e+01
  1.321263e+01    1.442206e+01
  1.322851e+01    1.252462e+01
  1.324438e+01    1.080943e+01
  1.326026e+01    9.215961e+00
  1.327614e+01    7.877992e+00
  1.329201e+01    6.865138e+00
  1.330789e+01    6.085518e+00
  1.332376e+01    5.410264e+00
  1.333964e+01    4.837036e+00
  1.335551e+01    4.445205e+00
  1.337139e+01    4.158329e+00
  1.338727e+01    3.813523e+00
  1.340314e+01    3.671799e+00
  1.341902e+01    3.460921e+00
  1.343489e+01    3.318972e+00
  1.345077e+01    3.233272e+00
  1.346664e+01    3.110663e+00
  1.348252e+01    3.029531e+00
  1.349839e+01    2.986467e+00
  1.351427e+01    2.874649e+00
  1.353015e+01    2.810835e+00
  1.354602e+01    2.776639e+00
  1.356190e+01    2.790040e+00
  1.357777e+01    2.759244e+00
  1.359365e+01    2.745550e+00
  1.360952e+01    2.709221e+00
  1.362540e+01    2.679797e+00
  1.364127e+01    2.626108e+00
  1.365715e+01    2.621702e+00
  1.367303e+01    2.587563e+00
  1.368890e+01    2.558249e+00
  1.370478e+01    2.546174e+00
  1.372065e+01    2.565700e+00
  1.373653e+01    2.542129e+00
  1.375240e+01    2.529063e+00
  1.376828e+01    2.524547e+00
  1.378415e+01    2.513793e+00
  1.380003e+01    2.465851e+00
  1.381591e+01    2.457548e+00
  1.383178e+01    2.505520e+00
  1.384766e+01    2.486586e+00
  1.386353e+01    2.461645e+00
  1.387941e+01    2.471555e+00
  1.389528e+01    2.472556e+00
  1.391116e+01    2.461641e+00
  1.392703e+01    2.414595e+00
  1.394291e+01    2.397411e+00
  1.395879e+01    2.412422e+00
  1.397466e+01    2.405768e+00
  1.399054e+01    2.380474e+00
  1.400641e+01    2.345933e+00
  1.402229e+01    2.381016e+00
  1.403816e+01    2.364950e+00
  1.405404e+01    2.355030e+00
  1.406991e+01    2.342188e+00
  1.408579e+01    2.348027e+00
  1.410167e+01    2.315516e+00
  1.411754e+01    2.316854e+00
  1.413342e+01    2.296551e+00
  1.414929e+01    2.301575e+00
  1.416517e+01    2.341791e+00
  1.418104e+01    2.313554e+00
  1.419692e+01    2.313215e+00
  1.421279e+01    2.332291e+00
  1.422867e+01    2.289880e+00
  1.424455e+01    2.273141e+00
  1.426042e+01    2.295082e+00
  1.427630e+01    2.294931e+00
  1.429217e+01    2.276795e+00
  1.430805e+01    2.233038e+00
  1.432392e+01    2.265038e+00
  1.433980e+01    2.304442e+00
  1.435568e+01    2.231428e+00
  1.437155e+01    2.223361e+00
  1.438743e+01    2.256734e+00
  1.440330e+01    2.258670e+00
  1.441918e+01    2.286292e+00
  1.443505e+01    2.246041e+00
  1.445093e+01    2.255032e+00
  1.446680e+01    2.268978e+00
  1.448268e+01    2.228954e+00
  1.449856e+01    2.239773e+00
  1.451443e+01    2.195166e+00
  1.453031e+01    2.228477e+00
  1.454618e+01    2.203188e+00
  1.456206e+01    2.196421e+00
  1.457793e+01    2.233948e+00
  1.459381e+01    2.258351e+00
  1.460968e+01    2.262836e+00
  1.462556e+01    2.232932e+00
  1.464144e+01    2.251257e+00
  1.465731e+01    2.253044e+00
  1.467319e+01    2.244947e+00
  1.468906e+01    2.226817e+00
  1.470494e+01    2.164011e+00
  1.472081e+01    2.170947e+00
  1.473669e+01    2.199163e+00
  1.475256e+01    2.161213e+00
  1.476844e+01    2.175566e+00
  1.478432e+01    2.231832e+00
  1.480019e+01    2.234615e+00
  1.481607e+01    2.257654e+00
  1.483194e+01    2.224554e+00
  1.484782e+01    2.215293e+00
  1.486369e+01    2.206777e+00
  1.487957e+01    2.266567e+00
  1.489544e+01    2.283876e+00
  1.491132e+01    2.284512e+00
  1.492720e+01    2.294882e+00
  1.494307e+01    2.302950e+00
  1.495895e+01    2.334411e+00
  1.497482e+01    2.352809e+00
  1.499070e+01    2.392586e+00
  1.500657e+01    2.426762e+00
  1.502245e+01    2.511023e+00
  1.503832e+01    2.617897e+00
  1.505420e+01    2.713064e+00
  1.507008e+01    2.827513e+00
  1.508595e+01    3.029511e+00
  1.510183e+01    3.214118e+00
  1.511770e+01    3.466719e+00
  1.513358e+01    3.792343e+00
  1.514945e+01    4.205740e+00
  1.516533e+01    4.624683e+00
  1.518120e+01    4.927010e+00
  1.519708e+01    5.180587e+00
  1.521296e+01    5.342175e+00
  1.522883e+01    5.599670e+00
  1.524471e+01    5.754452e+00
  1.526058e+01    5.917886e+00
  1.527646e+01    5.870295e+00
  1.529233e+01    5.528645e+00
  1.530821e+01    5.170538e+00
  1.532409e+01    4.710332e+00
  1.533996e+01    4.230432e+00
  1.535584e+01    3.769925e+00
  1.537171e+01    3.491570e+00
  1.538759e+01    3.235145e+00
  1.540346e+01    2.963593e+00
  1.541934e+01    2.795237e+00
  1.543521e+01    2.635323e+00
  1.545109e+01    2.511614e+00
  1.546697e+01    2.434622e+00
  1.548284e+01    2.375604e+00
  1.549872e+01    2.338249e+00
  1.551459e+01    2.317198e+00
  1.553047e+01    2.257133e+00
  1.554634e+01    2.184170e+00
  1.556222e+01    2.170975e+00
  1.557809e+01    2.130928e+00
  1.559397e+01    2.077769e+00
  1.560985e+01    2.061898e+00
  1.562572e+01    2.076693e+00
  1.564160e+01    2.026575e+00
  1.565747e+01    2.018037e+00
  1.567335e+01    2.038364e+00
  1.568922e+01    2.014917e+00
  1.570510e+01    2.011900e+00
  1.572097e+01    1.994695e+00
  1.573685e+01    1.989973e+00
  1.575273e+01    1.923110e+00
  1.576860e+01    1.941631e+00
  1.578448e+01    1.988314e+00
  1.580035e+01    2.009002e+00
  1.581623e+01    1.983066e+00
  1.583210e+01    1.924492e+00
  1.584798e+01    1.877794e+00
  1.586385e+01    1.881670e+00
  1.587973e+01    1.914556e+00
  1.589561e+01    1.938392e+00
  1.591148e+01    1.942618e+00
  1.592736e+01    1.913091e+00
  1.594323e+01    1.923344e+00
  1.595911e+01    1.908916e+00
  1.597498e+01    1.901208e+00
  1.599086e+01    1.943542e+00
  1.600673e+01    1.906592e+00
  1.602261e+01    1.860296e+00
  1.603849e+01    1.858956e+00
  1.605436e+01    1.865532e+00
  1.607024e+01    1.888533e+00
  1.608611e+01    1.852114e+00
  1.610199e+01    1.835294e+00
  1.611786e+01    1.851051e+00
  1.613374e+01    1.842108e+00
  1.614961e+01    1.788958e+00
  1.616549e+01    1.797803e+00
  1.618137e+01    1.822774e+00
  1.619724e+01    1.806796e+00
  1.621312e+01    1.828231e+00
  1.622899e+01    1.809159e+00
  1.624487e+01    1.816767e+00
  1.626074e+01    1.803526e+00
  1.627662e+01    1.806253e+00
  1.629250e+01    1.796665e+00
  1.630837e+01    1.796463e+00
  1.632425e+01    1.802786e+00
  1.634012e+01    1.791481e+00
  1.635600e+01    1.793986e+00
  1.637187e+01    1.807344e+00
  1.638775e+01    1.804758e+00
  1.640362e+01    1.753410e+00
  1.641950e+01    1.768235e+00
  1.643538e+01    1.802897e+00
  1.645125e+01    1.787384e+00
  1.646713e+01    1.772221e+00
  1.648300e+01    1.806273e+00
  1.649888e+01    1.771496e+00
  1.651475e+01    1.770362e+00
  1.653063e+01    1.763618e+00
  1.654650e+01    1.774852e+00
  1.656238e+01    1.765005e+00
  1.657826e+01    1.774656e+00
  1.659413e+01    1.763215e+00
  1.661001e+01    1.740061e+00
  1.662588e+01    1.723794e+00
  1.664176e+01    1.750705e+00
  1.665763e+01    1.743014e+00
  1.667351e+01    1.763662e+00
  1.668938e+01    1.735363e+00
  1.670526e+01    1.737275e+00
  1.672114e+01    1.742089e+00
  1.673701e+01    1.716972e+00
  1.675289e+01    1.716012e+00
  1.676876e+01    1.691104e+00
  1.678464e+01    1.728682e+00
  1.680051e+01    1.714362e+00
  1.681639e+01    1.713598e+00
  1.683226e+01    1.709022e+00
  1.684814e+01    1.699847e+00
  1.686402e+01    1.677579e+00
  1.687989e+01    1.690381e+00
  1.689577e+01    1.682683e+00
  1.691164e+01    1.679301e+00
  1.692752e+01    1.733186e+00
  1.694339e+01    1.739548e+00
  1.695927e+01    1.693312e+00
  1.697514e+01    1.684014e+00
  1.699102e+01    1.684278e+00
  1.700690e+01    1.673934e+00
  1.702277e+01    1.658743e+00
  1.703865e+01    1.671625e+00
  1.705452e+01    1.665716e+00
  1.707040e+01    1.654028e+00
  1.708627e+01    1.647910e+00
  1.710215e+01    1.644501e+00
  1.711802e+01    1.664875e+00
  1.713390e+01    1.662303e+00
  1.714978e+01    1.643523e+00
  1.716565e+01    1.615615e+00
  1.718153e+01    1.598211e+00
  1.719740e+01    1.643076e+00
  1.721328e+01    1.645095e+00
  1.722915e+01    1.651612e+00
  1.724503e+01    1.623488e+00
  1.726091e+01    1.627554e+00
  1.727678e+01    1.616138e+00
  1.729266e+01    1.641230e+00
  1.730853e+01    1.641842e+00
  1.732441e+01    1.603093e+00
  1.734028e+01    1.634550e+00
  1.735616e+01    1.651728e+00
  1.737203e+01    1.629507e+00
  1.738791e+01    1.593739e+00
  1.740379e+01    1.577331e+00
  1.741966e+01    1.591866e+00
  1.743554e+01    1.593260e+00
  1.745141e+01    1.558076e+00
  1.746729e+01    1.592643e+00
  1.748316e+01    1.607999e+00
  1.749904e+01    1.632739e+00
  1.751491e+01    1.634500e+00
  1.753079e+01    1.599046e+00
  1.754667e+01    1.584984e+00
  1.756254e+01    1.587294e+00
  1.757842e+01    1.570207e+00
  1.759429e+01    1.599096e+00
  1.761017e+01    1.589993e+00
  1.762604e+01    1.552954e+00
  1.764192e+01    1.540362e+00
  1.765779e+01    1.558084e+00
  1.767367e+01    1.566507e+00
  1.768955e+01    1.589865e+00
  1.770542e+01    1.596815e+00
  1.772130e+01    1.574571e+00
  1.773717e+01    1.553559e+00
  1.775305e+01    1.561446e+00
  1.776892e+01    1.564923e+00
  1.778480e+01    1.554565e+00
  1.780067e+01    1.565736e+00
  1.781655e+01    1.530311e+00
  1.783243e+01    1.520380e+00
  1.784830e+01    1.518101e+00
  1.786418e+01    1.543882e+00
  1.788005e+01    1.551455e+00
  1.789593e+01    1.513550e+00
  1.791180e+01    1.513643e+00
  1.792768e+01    1.511588e+00
  1.794355e+01    1.522018e+00
  1.795943e+01    1.522137e+00
  1.797531e+01    1.526312e+00
  1.799118e+01    1.522380e+00
  1.800706e+01    1.529922e+00
  1.802293e+01    1.537687e+00
  1.803881e+01    1.548969e+00
  1.805468e+01    1.555720e+00
  1.807056e+01    1.510942e+00
  1.808643e+01    1.505280e+00
  1.810231e+01    1.518643e+00
  1.811819e+01    1.509343e+00
  1.813406e+01    1.470770e+00
  1.814994e+01    1.475691e+00
  1.816581e+01    1.517438e+00
  1.818169e+01    1.498346e+00
  1.819756e+01    1.489241e+00
  1.821344e+01    1.508331e+00
  1.822932e+01    1.491646e+00
  1.824519e+01    1.469054e+00
  1.826107e+01    1.477333e+00
  1.827694e+01    1.471294e+00
  1.829282e+01    1.454439e+00
  1.830869e+01    1.480257e+00
  1.832457e+01    1.502202e+00
  1.834044e+01    1.481035e+00
  1.835632e+01    1.456748e+00
  1.837220e+01    1.469998e+00
  1.838807e+01    1.483713e+00
  1.840395e+01    1.484410e+00
  1.841982e+01    1.454715e+00
  1.843570e+01    1.453686e+00
  1.845157e+01    1.447176e+00
  1.846745e+01    1.463347e+00
  1.848332e+01    1.476942e+00
  1.849920e+01    1.448377e+00
  1.851508e+01    1.439336e+00
  1.853095e+01    1.416114e+00
  1.854683e+01    1.419765e+00
  1.856270e+01    1.414663e+00
  1.857858e+01    1.434597e+00
  1.859445e+01    1.458808e+00
  1.861033e+01    1.442973e+00
  1.862620e+01    1.435634e+00
  1.864208e+01    1.429150e+00
  1.865796e+01    1.396226e+00
  1.867383e+01    1.422262e+00
  1.868971e+01    1.423345e+00
  1.870558e+01    1.421507e+00
  1.872146e+01    1.444352e+00
  1.873733e+01    1.429779e+00
  1.875321e+01    1.417642e+00
  1.876908e+01    1.386326e+00
  1.878496e+01    1.402167e+00
  1.880084e+01    1.437947e+00
  1.881671e+01    1.432127e+00
  1.883259e+01    1.383490e+00
  1.884846e+01    1.376649e+00
  1.886434e+01    1.404784e+00
  1.888021e+01    1.423779e+00
  1.889609e+01    1.417932e+00
  1.891196e+01    1.395187e+00
  1.892784e+01    1.420490e+00
  1.894372e+01    1.409705e+00
  1.895959e+01    1.394197e+00
  1.897547e+01    1.398367e+00
  1.899134e+01    1.399690e+00
  1.900722e+01    1.357940e+00
  1.902309e+01    1.340853e+00
  1.903897e+01    1.344419e+00
  1.905484e+01    1.332386e+00
  1.907072e+01    1.340661e+00
  1.908660e+01    1.354088e+00
  1.910247e+01    1.373009e+00
  1.911835e+01    1.369470e+00
  1.913422e+01    1.376271e+00
  1.915010e+01    1.412303e+00
  1.916597e+01    1.378517e+00
  1.918185e+01    1.360051e+00
  1.919773e+01    1.353371e+00
  1.921360e+01    1.355590e+00
  1.922948e+01    1.349329e+00
  1.924535e+01    1.359128e+00
  1.926123e+01    1.326800e+00
  1.927710e+01    1.347697e+00
  1.929298e+01    1.363783e+00
  1.930885e+01    1.328728e+00
  1.932473e+01    1.342620e+00
  1.934061e+01    1.361442e+00
  1.935648e+01    1.361358e+00
  1.937236e+01    1.370745e+00
  1.938823e+01    1.367751e+00
  1.940411e+01    1.352822e+00
  1.941998e+01    1.345257e+00
  1.943586e+01    1.344676e+00
  1.945173e+01    1.353553e+00
  1.946761e+01    1.336729e+00
  1.948349e+01    1.350321e+00
  1.949936e+01    1.349021e+00
  1.951524e+01    1.344775e+00
  1.953111e+01    1.360082e+00
  1.954699e+01    1.334544e+00
  1.956286e+01    1.303014e+00
  1.957874e+01    1.322389e+00
  1.959461e+01    1.343656e+00
  1.961049e+01    1.345127e+00
  1.962637e+01    1.318410e+00
  1.964224e+01    1.319538e+00
  1.965812e+01    1.352822e+00
  1.967399e+01    1.298783e+00
  1.968987e+01    1.302346e+00
  1.970574e+01    1.318793e+00
  1.972162e+01    1.324636e+00
  1.973749e+01    1.320867e+00
  1.975337e+01    1.324851e+00
  1.976925e+01    1.331099e+00
  1.978512e+01    1.332215e+00
  1.980100e+01    1.326733e+00
  1.981687e+01    1.307505e+00
  1.983275e+01    1.294413e+00
  1.984862e+01    1.311167e+00
  1.986450e+01    1.300307e+00
  1.988037e+01    1.294662e+00
  1.989625e+01    1.297466e+00
  1.991213e+01    1.256063e+00
  1.992800e+01    1.274002e+00
  1.994388e+01    1.312095e+00
  1.995975e+01    1.305373e+00
  1.997563e+01    1.291815e+00
  1.999150e+01    1.293516e+00
  2.000738e+01    1.306640e+00
  2.002325e+01    1.290274e+00
  2.003913e+01    1.280931e+00
  2.005501e+01    1.267640e+00
  2.007088e+01    1.300249e+00
  2.008676e+01    1.317944e+00
  2.010263e+01    1.302159e+00
  2.011851e+01    1.279786e+00
  2.013438e+01    1.279966e+00
  2.015026e+01    1.270604e+00
  2.016614e+01    1.298151e+00
  2.018201e+01    1.259923e+00
  2.019789e+01    1.232301e+00
  2.021376e+01    1.257263e+00
  2.022964e+01    1.273887e+00
  2.024551e+01    1.248392e+00
  2.026139e+01    1.261195e+00
  2.027726e+01    1.255316e+00
  2.029314e+01    1.243249e+00
  2.030902e+01    1.261189e+00
  2.032489e+01    1.246499e+00
  2.034077e+01    1.234478e+00
  2.035664e+01    1.262582e+00
  2.037252e+01    1.274280e+00
  2.038839e+01    1.254715e+00
  2.040427e+01    1.246694e+00
  2.042014e+01    1.263120e+00
  2.043602e+01    1.246056e+00
  2.045190e+01    1.222365e+00
  2.046777e+01    1.216422e+00
  2.048365e+01    1.226034e+00
  2.049952e+01    1.251915e+00
  2.051540e+01    1.248560e+00
  2.053127e+01    1.263708e+00
  2.054715e+01    1.240957e+00
  2.056302e+01    1.251431e+00
  2.057890e+01    1.229503e+00
  2.059478e+01    1.244880e+00
  2.061065e+01    1.253997e+00
  2.062653e+01    1.241314e+00
  2.064240e+01    1.222557e+00
  2.065828e+01    1.227797e+00
  2.067415e+01    1.250749e+00
  2.069003e+01    1.240013e+00
  2.070590e+01    1.234205e+00
  2.072178e+01    1.226390e+00
  2.073766e+01    1.220146e+00
  2.075353e+01    1.236858e+00
  2.076941e+01    1.251461e+00
  2.078528e+01    1.245893e+00
  2.080116e+01    1.247994e+00
  2.081703e+01    1.243256e+00
  2.083291e+01    1.212504e+00
  2.084878e+01    1.213283e+00
  2.086466e+01    1.230647e+00
  2.088054e+01    1.223480e+00
  2.089641e+01    1.237656e+00
  2.091229e+01    1.220405e+00
  2.092816e+01    1.218898e+00
  2.094404e+01    1.236670e+00
  2.095991e+01    1.246380e+00
  2.097579e+01    1.234432e+00
  2.099166e+01    1.226249e+00
  2.100754e+01    1.243747e+00
  2.102342e+01    1.257726e+00
  2.103929e+01    1.250364e+00
  2.105517e+01    1.220000e+00
  2.107104e+01    1.247895e+00
  2.108692e+01    1.250598e+00
  2.110279e+01    1.220242e+00
  2.111867e+01    1.217446e+00
  2.113455e+01    1.244618e+00
  2.115042e+01    1.247814e+00
  2.116630e+01    1.223579e+00
  2.118217e+01    1.223785e+00
  2.119805e+01    1.223752e+00
  2.121392e+01    1.231182e+00
  2.122980e+01    1.255381e+00
  2.124567e+01    1.273957e+00
  2.126155e+01    1.276802e+00
  2.127743e+01    1.253402e+00
  2.129330e+01    1.246976e+00
  2.130918e+01    1.253223e+00
  2.132505e+01    1.282581e+00
  2.134093e+01    1.299370e+00
  2.135680e+01    1.283821e+00
  2.137268e+01    1.285366e+00
  2.138855e+01    1.311744e+00
  2.140443e+01    1.304035e+00
  2.142031e+01    1.318488e+00
  2.143618e+01    1.337322e+00
  2.145206e+01    1.344963e+00
  2.146793e+01    1.388275e+00
  2.148381e+01    1.422628e+00
  2.149968e+01    1.426903e+00
  2.151556e+01    1.462405e+00
  2.153143e+01    1.494657e+00
  2.154731e+01    1.508972e+00
  2.156319e+01    1.555088e+00
  2.157906e+01    1.604420e+00
  2.159494e+01    1.692755e+00
  2.161081e+01    1.783769e+00
  2.162669e+01    1.893671e+00
  2.164256e+01    2.004635e+00
  2.165844e+01    2.136894e+00
  2.167431e+01    2.313785e+00
  2.169019e+01    2.524927e+00
  2.170607e+01    2.827435e+00
  2.172194e+01    3.158266e+00
  2.173782e+01    3.580344e+00
  2.175369e+01    4.078470e+00
  2.176957e+01    4.649012e+00
  2.178544e+01    5.245684e+00
  2.180132e+01    5.872549e+00
  2.181719e+01    6.524357e+00
  2.183307e+01    7.230927e+00
  2.184895e+01    7.897233e+00
  2.186482e+01    8.475693e+00
  2.188070e+01    8.921661e+00
  2.189657e+01    8.960225e+00
  2.191245e+01    8.834261e+00
  2.192832e+01    8.287002e+00
  2.194420e+01    7.521884e+00
  2.196007e+01    6.657430e+00
  2.197595e+01    5.733281e+00
  2.199183e+01    4.896236e+00
  2.200770e+01    4.276589e+00
  2.202358e+01    3.690256e+00
  2.203945e+01    3.240961e+00
  2.205533e+01    2.859711e+00
  2.207120e+01    2.584213e+00
  2.208708e+01    2.386846e+00
  2.210296e+01    2.175332e+00
  2.211883e+01    2.017296e+00
  2.213471e+01    1.888306e+00
  2.215058e+01    1.778040e+00
  2.216646e+01    1.674327e+00
  2.218233e+01    1.601095e+00
  2.219821e+01    1.555405e+00
  2.221408e+01    1.525537e+00
  2.222996e+01    1.455280e+00
  2.224584e+01    1.413149e+00
  2.226171e+01    1.388156e+00
  2.227759e+01    1.367700e+00
  2.229346e+01    1.324413e+00
  2.230934e+01    1.300373e+00
  2.232521e+01    1.277854e+00
  2.234109e+01    1.264366e+00
  2.235696e+01    1.265718e+00
  2.237284e+01    1.242849e+00
  2.238872e+01    1.229018e+00
  2.240459e+01    1.212937e+00
  2.242047e+01    1.198715e+00
  2.243634e+01    1.204782e+00
  2.245222e+01    1.192315e+00
  2.246809e+01    1.160852e+00
  2.248397e+01    1.169225e+00
  2.249984e+01    1.152586e+00
  2.251572e+01    1.129662e+00
  2.253160e+01    1.115418e+00
  2.254747e+01    1.128156e+00
  2.256335e+01    1.155763e+00
  2.257922e+01    1.149219e+00
  2.259510e+01    1.144582e+00
  2.261097e+01    1.117767e+00
  2.262685e+01    1.114493e+00
  2.264272e+01    1.111685e+00
  2.265860e+01    1.094640e+00
  2.267448e+01    1.082484e+00
  2.269035e+01    1.111177e+00
  2.270623e+01    1.086555e+00
  2.272210e+01    1.074327e+00
  2.273798e+01    1.059561e+00
  2.275385e+01    1.057370e+00
  2.276973e+01    1.071097e+00
  2.278560e+01    1.066481e+00
  2.280148e+01    1.059016e+00
  2.281736e+01    1.064590e+00
  2.283323e+01    1.064106e+00
  2.284911e+01    1.072387e+00
  2.286498e+01    1.062821e+00
  2.288086e+01    1.046402e+00
  2.289673e+01    1.032685e+00
  2.291261e+01    1.028174e+00
  2.292848e+01    1.026512e+00
  2.294436e+01    1.042976e+00
  2.296024e+01    1.018351e+00
  2.297611e+01    1.024408e+00
  2.299199e+01    1.027997e+00
  2.300786e+01    1.033356e+00
  2.302374e+01    1.036500e+00
  2.303961e+01    1.008682e+00
  2.305549e+01    1.008663e+00
  2.307137e+01    1.030562e+00
  2.308724e+01    1.030132e+00
  2.310312e+01    9.993488e-01
  2.311899e+01    9.953709e-01
  2.313487e+01    1.011400e+00
  2.315074e+01    9.920396e-01
  2.316662e+01    9.835021e-01
  2.318249e+01    9.816147e-01
  2.319837e+01    1.004236e+00
  2.321425e+01    1.024289e+00
  2.323012e+01    9.987516e-01
  2.324600e+01    1.016227e+00
  2.326187e+01    9.979569e-01
  2.327775e+01    9.924434e-01
  2.329362e+01    9.849219e-01
  2.330950e+01    9.975105e-01
  2.332537e+01    9.836001e-01
  2.334125e+01    9.830958e-01
  2.335713e+01    9.811747e-01
  2.337300e+01    9.840752e-01
  2.338888e+01    9.753050e-01
  2.340475e+01    9.779531e-01
  2.342063e+01    9.756247e-01
  2.343650e+01    9.743064e-01
  2.345238e+01    9.810153e-01
  2.346825e+01    9.744720e-01
  2.348413e+01    9.763304e-01
  2.350001e+01    9.946455e-01
  2.351588e+01    9.912366e-01
  2.353176e+01    9.655936e-01
  2.354763e+01    9.707943e-01
  2.356351e+01    9.780186e-01
  2.357938e+01    9.656758e-01
  2.359526e+01    9.757673e-01
  2.361113e+01    9.723814e-01
  2.362701e+01    9.728952e-01
  2.364289e+01    9.760142e-01
  2.365876e+01    9.608517e-01
  2.367464e+01    9.311017e-01
  2.369051e+01    9.431220e-01
  2.370639e+01    9.347255e-01
  2.372226e+01    9.426345e-01
  2.373814e+01    9.491637e-01
  2.375401e+01    9.609987e-01
  2.376989e+01    9.268361e-01
  2.378577e+01    9.178484e-01
  2.380164e+01    9.225719e-01
  2.381752e+01    9.224198e-01
  2.383339e+01    9.069556e-01
  2.384927e+01    9.152840e-01
  2.386514e+01    9.059486e-01
  2.388102e+01    9.061615e-01
  2.389689e+01    9.348069e-01
  2.391277e+01    9.224345e-01
  2.392865e+01    9.182013e-01
  2.394452e+01    9.060490e-01
  2.396040e+01    9.100619e-01
  2.397627e+01    8.952738e-01
  2.399215e+01    9.043137e-01
  2.400802e+01    9.142770e-01
  2.402390e+01    8.976792e-01
  2.403978e+01    8.905317e-01
  2.405565e+01    8.821028e-01
  2.407153e+01    8.974901e-01
  2.408740e+01    8.975905e-01
  2.410328e+01    9.146114e-01
  2.411915e+01    8.971679e-01
  2.413503e+01    8.821834e-01
  2.415090e+01    8.777105e-01
  2.416678e+01    8.753043e-01
  2.418266e+01    8.829668e-01
  2.419853e+01    8.775795e-01
  2.421441e+01    8.615890e-01
  2.423028e+01    8.650626e-01
  2.424616e+01    8.650034e-01
  2.426203e+01    8.669721e-01
  2.427791e+01    8.985476e-01
  2.429378e+01    8.768889e-01
  2.430966e+01    8.911874e-01
  2.432554e+01    9.003761e-01
  2.434141e+01    8.961619e-01
  2.435729e+01    8.913845e-01
  2.437316e+01    8.955120e-01
  2.438904e+01    9.054629e-01
  2.440491e+01    8.902778e-01
  2.442079e+01    8.882604e-01
  2.443666e+01    8.970539e-01
  2.445254e+01    9.013263e-01
  2.446842e+01    8.961856e-01
  2.448429e+01    8.770733e-01
  2.450017e+01    8.974092e-01
  2.451604e+01    9.059263e-01
  2.453192e+01    8.763880e-01
  2.454779e+01    9.060727e-01
  2.456367e+01    9.098849e-01
  2.457954e+01    8.955673e-01
  2.459542e+01    9.023251e-01
  2.461130e+01    9.033467e-01
  2.462717e+01    9.069914e-01
  2.464305e+01    8.903428e-01
  2.465892e+01    9.020706e-01
  2.467480e+01    8.987097e-01
  2.469067e+01    8.861151e-01
  2.470655e+01    8.960280e-01
  2.472242e+01    8.990229e-01
  2.473830e+01    8.960956e-01
  2.475418e+01    9.073068e-01
  2.477005e+01    9.083019e-01
  2.478593e+01    9.089505e-01
  2.480180e+01    9.139844e-01
  2.481768e+01    8.967366e-01
  2.483355e+01    8.905345e-01
  2.484943e+01    9.112692e-01
  2.486530e+01    8.862499e-01
  2.488118e+01    9.051306e-01
  2.489706e+01    8.996236e-01
  2.491293e+01    8.989398e-01
  2.492881e+01    8.893222e-01
  2.494468e+01    8.796156e-01
  2.496056e+01    8.970666e-01
  2.497643e+01    8.906607e-01
  2.499231e+01    8.954446e-01
  2.500819e+01    8.864797e-01
  2.502406e+01    8.934121e-01
  2.503994e+01    9.244338e-01
  2.505581e+01    9.006942e-01
  2.507169e+01    8.942058e-01
  2.508756e+01    9.129539e-01
  2.510344e+01    9.116950e-01
  2.511931e+01    9.049708e-01
  2.513519e+01    9.164466e-01
  2.515107e+01    9.176646e-01
  2.516694e+01    9.157224e-01
  2.518282e+01    9.013138e-01
  2.519869e+01    9.215515e-01
  2.521457e+01    9.327701e-01
  2.523044e+01    9.261478e-01
  2.524632e+01    9.447762e-01
  2.526219e+01    9.619523e-01
  2.527807e+01    9.672309e-01
  2.529395e+01    9.705649e-01
  2.530982e+01    9.501665e-01
  2.532570e+01    9.530888e-01
  2.534157e+01    9.605943e-01
  2.535745e+01    9.700037e-01
  2.537332e+01    9.833048e-01
  2.538920e+01    9.939086e-01
  2.540507e+01    9.923652e-01
  2.542095e+01    1.007815e+00
  2.543683e+01    1.010522e+00
  2.545270e+01    1.034561e+00
  2.546858e+01    1.062257e+00
  2.548445e+01    1.055084e+00
  2.550033e+01    1.037055e+00
  2.551620e+01    1.070575e+00
  2.553208e+01    1.088612e+00
  2.554795e+01    1.107148e+00
  2.556383e+01    1.120577e+00
  2.557971e+01    1.144093e+00
  2.559558e+01    1.199586e+00
  2.561146e+01    1.236894e+00
  2.562733e+01    1.243993e+00
  2.564321e+01    1.290891e+00
  2.565908e+01    1.345392e+00
  2.567496e+01    1.436560e+00
  2.569083e+01    1.510783e+00
  2.570671e+01    1.627632e+00
  2.572259e+01    1.733929e+00
  2.573846e+01    1.887878e+00
  2.575434e+01    2.065321e+00
  2.577021e+01    2.235156e+00
  2.578609e+01    2.507609e+00
  2.580196e+01    2.800916e+00
  2.581784e+01    3.209738e+00
  2.583371e+01    3.674150e+00
  2.584959e+01    4.167767e+00
  2.586547e+01    4.736019e+00
  2.588134e+01    5.340923e+00
  2.589722e+01    5.821069e+00
  2.591309e+01    6.393939e+00
  2.592897e+01    6.826184e+00
  2.594484e+01    7.156949e+00
  2.596072e+01    7.234266e+00
  2.597660e+01    7.017310e+00
  2.599247e+01    6.652470e+00
  2.600835e+01    6.002653e+00
  2.602422e+01    5.322962e+00
  2.604010e+01    4.599173e+00
  2.605597e+01    3.958802e+00
  2.607185e+01    3.431091e+00
  2.608772e+01    3.015071e+00
  2.610360e+01    2.669792e+00
  2.611948e+01    2.371337e+00
  2.613535e+01    2.118207e+00
  2.615123e+01    1.949574e+00
  2.616710e+01    1.822894e+00
  2.618298e+01    1.685897e+00
  2.619885e+01    1.577482e+00
  2.621473e+01    1.512531e+00
  2.623060e+01    1.456906e+00
  2.624648e+01    1.381987e+00
  2.626236e+01    1.319794e+00
  2.627823e+01    1.254602e+00
  2.629411e+01    1.227224e+00
  2.630998e+01    1.186033e+00
  2.632586e+01    1.156202e+00
  2.634173e+01    1.108319e+00
  2.635761e+01    1.108486e+00
  2.637348e+01    1.098452e+00
  2.638936e+01    1.088174e+00
  2.640524e+01    1.080474e+00
  2.642111e+01    1.075511e+00
  2.643699e+01    1.080061e+00
  2.645286e+01    1.047030e+00
  2.646874e+01    1.041654e+00
  2.648461e+01    1.037329e+00
  2.650049e+01    1.004779e+00
  2.651636e+01    1.034604e+00
  2.653224e+01    1.035327e+00
  2.654812e+01    1.017377e+00
  2.656399e+01    9.727733e-01
  2.657987e+01    9.712466e-01
  2.659574e+01    9.776174e-01
  2.661162e+01    9.674333e-01
  2.662749e+01    9.770911e-01
  2.664337e+01    9.789547e-01
  2.665924e+01    9.873812e-01
  2.667512e+01    9.886227e-01
  2.669100e+01    9.799103e-01
  2.670687e+01    9.598616e-01
  2.672275e+01    9.852113e-01
  2.673862e+01    1.001281e+00
  2.675450e+01    9.890400e-01
  2.677037e+01    9.727733e-01
  2.678625e+01    9.806622e-01
  2.680212e+01    9.789950e-01
  2.681800e+01    9.820451e-01
  2.683388e+01    9.997397e-01
  2.684975e+01    9.876092e-01
  2.686563e+01    1.001421e+00
  2.688150e+01    9.909098e-01
  2.689738e+01    1.011897e+00
  2.691325e+01    1.002261e+00
  2.692913e+01    1.007274e+00
  2.694501e+01    1.017738e+00
  2.696088e+01    1.057528e+00
  2.697676e+01    1.081724e+00
  2.699263e+01    1.094518e+00
  2.700851e+01    1.140385e+00
  2.702438e+01    1.177489e+00
  2.704026e+01    1.216367e+00
  2.705613e+01    1.263294e+00
  2.707201e+01    1.348920e+00
  2.708789e+01    1.424523e+00
  2.710376e+01    1.525926e+00
  2.711964e+01    1.609838e+00
  2.713551e+01    1.735189e+00
  2.715139e+01    1.887864e+00
  2.716726e+01    1.977096e+00
  2.718314e+01    2.088320e+00
  2.719901e+01    2.167116e+00
  2.721489e+01    2.176181e+00
  2.723077e+01    2.191400e+00
  2.724664e+01    2.131790e+00
  2.726252e+01    2.008433e+00
  2.727839e+01    1.849846e+00
  2.729427e+01    1.722423e+00
  2.731014e+01    1.594415e+00
  2.732602e+01    1.450401e+00
  2.734189e+01    1.362002e+00
  2.735777e+01    1.278600e+00
  2.737365e+01    1.213546e+00
  2.738952e+01    1.178894e+00
  2.740540e+01    1.147921e+00
  2.742127e+01    1.118012e+00
  2.743715e+01    1.048947e+00
  2.745302e+01    1.038728e+00
  2.746890e+01    1.030256e+00
  2.748477e+01    9.912994e-01
  2.750065e+01    9.687207e-01
  2.751653e+01    9.621518e-01
  2.753240e+01    9.764143e-01
  2.754828e+01    9.554892e-01
  2.756415e+01    9.771882e-01
  2.758003e+01    9.661163e-01
  2.759590e+01    9.679812e-01
  2.761178e+01    9.324276e-01
  2.762765e+01    9.248084e-01
  2.764353e+01    9.354869e-01
  2.765941e+01    9.098537e-01
  2.767528e+01    9.043429e-01
  2.769116e+01    9.011638e-01
  2.770703e+01    9.127690e-01
  2.772291e+01    9.001005e-01
  2.773878e+01    8.939053e-01
  2.775466e+01    8.896011e-01
  2.777054e+01    9.072120e-01
  2.778641e+01    9.066430e-01
  2.780229e+01    8.697526e-01
  2.781816e+01    9.043530e-01
  2.783404e+01    8.719692e-01
  2.784991e+01    8.766141e-01
  2.786579e+01    8.786867e-01
  2.788166e+01    8.779089e-01
  2.789754e+01    8.796401e-01
  2.791342e+01    8.890721e-01
  2.792929e+01    8.971426e-01
  2.794517e+01    8.913062e-01
  2.796104e+01    8.674071e-01
  2.797692e+01    8.811285e-01
  2.799279e+01    8.915434e-01
  2.800867e+01    8.787864e-01
  2.802454e+01    8.457835e-01
  2.804042e+01    8.691974e-01
  2.805630e+01    8.803389e-01
  2.807217e+01    8.627859e-01
  2.808805e+01    8.808689e-01
  2.810392e+01    8.765885e-01
  2.811980e+01    8.701262e-01
  2.813567e+01    8.721526e-01
  2.815155e+01    8.605748e-01
  2.816742e+01    8.700134e-01
  2.818330e+01    8.574404e-01
  2.819918e+01    8.521867e-01
  2.821505e+01    8.670973e-01
  2.823093e+01    8.611106e-01
  2.824680e+01    8.649167e-01
  2.826268e+01    8.381463e-01
  2.827855e+01    8.445625e-01
  2.829443e+01    8.528928e-01
  2.831030e+01    8.608288e-01
  2.832618e+01    8.494660e-01
  2.834206e+01    8.451580e-01
  2.835793e+01    8.598307e-01
  2.837381e+01    8.696963e-01
  2.838968e+01    8.561589e-01
  2.840556e+01    8.388367e-01
  2.842143e+01    8.421229e-01
  2.843731e+01    8.420340e-01
  2.845318e+01    8.299997e-01
  2.846906e+01    8.231349e-01
  2.848494e+01    8.382719e-01
  2.850081e+01    8.754625e-01
  2.851669e+01    8.581168e-01
  2.853256e+01    8.501241e-01
  2.854844e+01    8.479677e-01
  2.856431e+01    8.375729e-01
  2.858019e+01    8.509108e-01
  2.859606e+01    8.222488e-01
  2.861194e+01    8.281735e-01
  2.862782e+01    8.348419e-01
  2.864369e+01    8.487303e-01
  2.865957e+01    8.348821e-01
  2.867544e+01    8.075066e-01
  2.869132e+01    8.275901e-01
  2.870719e+01    8.472375e-01
  2.872307e+01    8.585660e-01
  2.873895e+01    8.470678e-01
  2.875482e+01    8.318906e-01
  2.877070e+01    8.259940e-01
  2.878657e+01    8.169582e-01
  2.880245e+01    8.385368e-01
  2.881832e+01    8.352239e-01
  2.883420e+01    8.426383e-01
  2.885007e+01    8.490287e-01
  2.886595e+01    8.402934e-01
  2.888183e+01    8.326412e-01
  2.889770e+01    8.199983e-01
  2.891358e+01    8.194749e-01
  2.892945e+01    8.400331e-01
  2.894533e+01    8.274946e-01
  2.896120e+01    8.244061e-01
  2.897708e+01    8.290326e-01
  2.899295e+01    8.395633e-01
  2.900883e+01    8.154603e-01
  2.902471e+01    7.998888e-01
  2.904058e+01    8.105243e-01
  2.905646e+01    8.219560e-01
  2.907233e+01    8.134117e-01
  2.908821e+01    7.950066e-01
  2.910408e+01    8.063807e-01
  2.911996e+01    8.058220e-01
  2.913583e+01    8.205625e-01
  2.915171e+01    8.250738e-01
  2.916759e+01    8.204049e-01
  2.918346e+01    7.996579e-01
  2.919934e+01    8.115408e-01
  2.921521e+01    8.137611e-01
  2.923109e+01    7.956139e-01
  2.924696e+01    8.178122e-01
  2.926284e+01    8.122866e-01
  2.927871e+01    8.104005e-01
  2.929459e+01    8.202288e-01
  2.931047e+01    8.452469e-01
  2.932634e+01    8.231826e-01
  2.934222e+01    8.125135e-01
  2.935809e+01    8.119310e-01
  2.937397e+01    7.996800e-01
  2.938984e+01    8.107764e-01
  2.940572e+01    8.243644e-01
  2.942159e+01    8.088362e-01
  2.943747e+01    8.036327e-01
  2.945335e+01    7.924604e-01
  2.946922e+01    8.040418e-01
  2.948510e+01    8.167554e-01
  2.950097e+01    8.056228e-01
  2.951685e+01    8.028039e-01
  2.953272e+01    7.997534e-01
  2.954860e+01    7.970661e-01
  2.956447e+01    8.080958e-01
  2.958035e+01    8.102981e-01
  2.959623e+01    8.058865e-01
  2.961210e+01    8.007004e-01
  2.962798e+01    8.041516e-01
  2.964385e+01    8.075891e-01
  2.965973e+01    8.069824e-01
  2.967560e+01    8.158937e-01
  2.969148e+01    8.097706e-01
  2.970736e+01    8.089202e-01
  2.972323e+01    7.787405e-01
  2.973911e+01    8.024581e-01
  2.975498e+01    8.139517e-01
  2.977086e+01    8.069393e-01
  2.978673e+01    7.976244e-01
  2.980261e+01    8.031393e-01
  2.981848e+01    8.019331e-01
  2.983436e+01    7.996023e-01
  2.985024e+01    7.930767e-01
  2.986611e+01    7.914599e-01
  2.988199e+01    8.055072e-01
  2.989786e+01    7.971295e-01
  2.991374e+01    8.155767e-01
  2.992961e+01    8.302057e-01
  2.994549e+01    8.018295e-01
  2.996136e+01    8.159837e-01
  2.997724e+01    8.092295e-01
  2.999312e+01    7.955881e-01
  3.000899e+01    8.138491e-01
  3.002487e+01    8.193923e-01
  3.004074e+01    8.167897e-01
  3.005662e+01    8.295973e-01
  3.007249e+01    8.234193e-01
  3.008837e+01    8.241221e-01
  3.010424e+01    8.196372e-01
  3.012012e+01    8.106776e-01
  3.013600e+01    8.226572e-01
  3.015187e+01    8.140475e-01
  3.016775e+01    8.130700e-01
  3.018362e+01    8.056890e-01
  3.019950e+01    7.705849e-01
  3.021537e+01    7.568309e-01
  3.023125e+01    7.783213e-01
  3.024712e+01    7.817813e-01
  3.026300e+01    8.000396e-01
  3.027888e+01    8.162533e-01
  3.029475e+01    8.028524e-01
  3.031063e+01    7.944368e-01
  3.032650e+01    7.918296e-01
  3.034238e+01    7.890928e-01
  3.035825e+01    7.889961e-01
  3.037413e+01    7.747165e-01
  3.039000e+01    7.857481e-01
  3.040588e+01    7.848737e-01
  3.042176e+01    8.008788e-01
  3.043763e+01    8.014122e-01
  3.045351e+01    7.956799e-01
  3.046938e+01    7.916990e-01
  3.048526e+01    8.025091e-01
  3.050113e+01    8.142940e-01
  3.051701e+01    8.051684e-01
  3.053288e+01    8.008930e-01
  3.054876e+01    8.020287e-01
  3.056464e+01    7.992618e-01
  3.058051e+01    7.886962e-01
  3.059639e+01    7.934685e-01
  3.061226e+01    7.944101e-01
  3.062814e+01    7.941983e-01
  3.064401e+01    7.879884e-01
  3.065989e+01    8.108248e-01
  3.067577e+01    7.992800e-01
  3.069164e+01    7.964060e-01
  3.070752e+01    7.994498e-01
  3.072339e+01    7.704862e-01
  3.073927e+01    7.772359e-01
  3.075514e+01    7.789056e-01
  3.077102e+01    7.640980e-01
  3.078689e+01    7.807514e-01
  3.080277e+01    8.066127e-01
  3.081865e+01    8.046648e-01
  3.083452e+01    8.009807e-01
  3.085040e+01    7.995053e-01
  3.086627e+01    7.972291e-01
  3.088215e+01    7.858956e-01
  3.089802e+01    7.991319e-01
  3.091390e+01    7.811449e-01
  3.092977e+01    7.813345e-01
  3.094565e+01    7.935368e-01
  3.096153e+01    7.857932e-01
  3.097740e+01    7.731970e-01
  3.099328e+01    7.882090e-01
  3.100915e+01    7.877490e-01
  3.102503e+01    7.897863e-01
  3.104090e+01    7.876076e-01
  3.105678e+01    7.746139e-01
  3.107265e+01    7.923290e-01
  3.108853e+01    8.021763e-01
  3.110441e+01    7.964793e-01
  3.112028e+01    7.811946e-01
  3.113616e+01    7.913319e-01
  3.115203e+01    8.012629e-01
  3.116791e+01    8.026537e-01
  3.118378e+01    7.890481e-01
  3.119966e+01    7.825693e-01
  3.121553e+01    7.849046e-01
  3.123141e+01    7.781473e-01
  3.124729e+01    7.885612e-01
  3.126316e+01    8.063573e-01
  3.127904e+01    7.897446e-01
  3.129491e+01    8.030765e-01
  3.131079e+01    7.831112e-01
  3.132666e+01    8.058206e-01
  3.134254e+01    8.088850e-01
  3.135841e+01    8.203884e-01
  3.137429e+01    8.312015e-01
  3.139017e+01    8.086659e-01
  3.140604e+01    8.203425e-01
  3.142192e+01    8.467510e-01
  3.143779e+01    8.528619e-01
  3.145367e+01    8.248649e-01
  3.146954e+01    8.088130e-01
  3.148542e+01    8.507736e-01
  3.150129e+01    8.631672e-01
  3.151717e+01    8.403028e-01
  3.153305e+01    8.384871e-01
  3.154892e+01    8.522437e-01
  3.156480e+01    8.637855e-01
  3.158067e+01    8.703840e-01
  3.159655e+01    8.862059e-01
  3.161242e+01    9.006699e-01
  3.162830e+01    9.035608e-01
  3.164418e+01    9.439043e-01
  3.166005e+01    9.250070e-01
  3.167593e+01    9.738799e-01
  3.169180e+01    1.006014e+00
  3.170768e+01    1.043618e+00
  3.172355e+01    1.059700e+00
  3.173943e+01    1.105229e+00
  3.175530e+01    1.180919e+00
  3.177118e+01    1.261147e+00
  3.178706e+01    1.383693e+00
  3.180293e+01    1.488561e+00
  3.181881e+01    1.622309e+00
  3.183468e+01    1.754590e+00
  3.185056e+01    1.876566e+00
  3.186643e+01    2.002543e+00
  3.188231e+01    2.046342e+00
  3.189818e+01    2.091404e+00
  3.191406e+01    2.126233e+00
  3.192994e+01    2.034769e+00
  3.194581e+01    1.953089e+00
  3.196169e+01    1.851319e+00
  3.197756e+01    1.708968e+00
  3.199344e+01    1.600561e+00
  3.200931e+01    1.457511e+00
  3.202519e+01    1.327507e+00
  3.204106e+01    1.243212e+00
  3.205694e+01    1.167224e+00
  3.207282e+01    1.115955e+00
  3.208869e+01    1.052097e+00
  3.210457e+01    1.014451e+00
  3.212044e+01    1.016546e+00
  3.213632e+01    9.636350e-01
  3.215219e+01    9.254038e-01
  3.216807e+01    9.182256e-01
  3.218394e+01    9.151238e-01
  3.219982e+01    8.907521e-01
  3.221570e+01    8.735350e-01
  3.223157e+01    8.522392e-01
  3.224745e+01    8.287166e-01
  3.226332e+01    8.324175e-01
  3.227920e+01    8.459408e-01
  3.229507e+01    8.271794e-01
  3.231095e+01    8.476040e-01
  3.232682e+01    8.152148e-01
  3.234270e+01    8.039712e-01
  3.235858e+01    7.896819e-01
  3.237445e+01    8.092919e-01
  3.239033e+01    8.118902e-01
  3.240620e+01    8.115928e-01
  3.242208e+01    7.955349e-01
  3.243795e+01    8.012316e-01
  3.245383e+01    7.807397e-01
  3.246970e+01    7.705670e-01
  3.248558e+01    7.860667e-01
  3.250146e+01    7.755551e-01
  3.251733e+01    7.819897e-01
  3.253321e+01    7.629628e-01
  3.254908e+01    7.823281e-01
