# == pyFAI calibration ==
# Distance Sample to Detector: 0.3999999939076516 m
# PONI: 9.750e-02, 1.135e-01 m
# Rotations: -0.000175 0.000000 -0.000000 rad
# 
# == Fit2d calibration ==
# Distance Sample-beamCenter: 400.000 mm
# Center: x=1514.000, y=1300.000 pix
# Tilt: 0.010 deg  TiltPlanRot: 0.010 deg
# 
# Detector Detector	 Spline= None	 PixelSize= 7.500e-05, 7.500e-05 m
#    Detector has a mask: False 
#    Detector has a dark current: False 
#    detector has a flat field: False 
# 
# Wavelength: 6.888e-11 m
# Mask applied: user provided
# Dark current applied: False
# Flat field applied: False
# Polarization factor: 0.99
# Normalization factor: 1.0
# --> /home/myspot/data/2024_07_Rosario/Ru-CGO-ex/2024-07-27_003_Ru-CGO-ex_Reaction_dwell_000023_data_000121.dat
#       q_nm^-1             I 
  2.003187e-02    0.000000e+00
  3.590745e-02    0.000000e+00
  5.178302e-02    0.000000e+00
  6.765859e-02    3.249404e-02
  8.353417e-02    3.919208e-02
  9.940974e-02    0.000000e+00
  1.152853e-01    0.000000e+00
  1.311609e-01    4.536876e-02
  1.470365e-01    8.692576e-02
  1.629120e-01    5.132964e-02
  1.787876e-01    2.652757e-02
  1.946632e-01    1.163442e-02
  2.105388e-01    5.320426e-02
  2.264143e-01    9.488966e-02
  2.422899e-01    5.106962e-02
  2.581655e-01    3.564994e-02
  2.740411e-01    2.674501e-02
  2.899166e-01    2.069587e-02
  3.057922e-01    1.937865e-02
  3.216678e-01    2.454071e-02
  3.375433e-01    4.055063e-02
  3.534189e-01    2.424020e-02
  3.692945e-01    3.651413e-02
  3.851701e-01    3.028690e-02
  4.010456e-01    5.930426e-02
  4.169212e-01    5.155541e-02
  4.327968e-01    2.320847e-02
  4.486724e-01    2.941952e-02
  4.645479e-01    1.612840e-02
  4.804235e-01    4.487401e-02
  4.962991e-01    6.703058e-02
  5.121747e-01    4.682836e-02
  5.280502e-01    2.347136e-02
  5.439258e-01    3.034552e-02
  5.598014e-01    2.987892e-02
  5.756770e-01    1.489183e-02
  5.915525e-01    2.300766e-02
  6.074281e-01    4.813956e-02
  6.233037e-01    7.371890e-02
  6.391793e-01    7.195306e-02
  6.550548e-01    4.792278e-02
  6.709304e-01    3.685907e-02
  6.868060e-01    5.006801e-02
  7.026815e-01    3.857791e-02
  7.185571e-01    3.398759e-02
  7.344327e-01    4.679859e-02
  7.503083e-01    4.913310e-02
  7.661838e-01    8.076692e-02
  7.820594e-01    1.148168e-01
  7.979350e-01    1.823094e-01
  8.138106e-01    2.376303e-01
  8.296861e-01    2.629006e-01
  8.455617e-01    3.180414e-01
  8.614373e-01    3.914811e-01
  8.773129e-01    4.515710e-01
  8.931884e-01    5.466424e-01
  9.090640e-01    6.379209e-01
  9.249396e-01    7.364767e-01
  9.408152e-01    8.001456e-01
  9.566907e-01    8.774782e-01
  9.725663e-01    9.037237e-01
  9.884419e-01    1.068745e+00
  1.004317e+00    1.170108e+00
  1.020193e+00    1.306261e+00
  1.036069e+00    1.324050e+00
  1.051944e+00    1.381207e+00
  1.067820e+00    1.479280e+00
  1.083695e+00    1.515635e+00
  1.099571e+00    1.540507e+00
  1.115446e+00    1.572916e+00
  1.131322e+00    1.605764e+00
  1.147198e+00    1.612920e+00
  1.163073e+00    1.630943e+00
  1.178949e+00    1.760516e+00
  1.194824e+00    1.970925e+00
  1.210700e+00    2.123101e+00
  1.226575e+00    2.156746e+00
  1.242451e+00    2.302936e+00
  1.258327e+00    2.467016e+00
  1.274202e+00    2.410640e+00
  1.290078e+00    2.508518e+00
  1.305953e+00    2.597438e+00
  1.321829e+00    2.652581e+00
  1.337705e+00    2.605493e+00
  1.353580e+00    2.819666e+00
  1.369456e+00    2.848056e+00
  1.385331e+00    2.891145e+00
  1.401207e+00    2.882295e+00
  1.417082e+00    2.834811e+00
  1.432958e+00    2.920633e+00
  1.448834e+00    3.020575e+00
  1.464709e+00    3.060548e+00
  1.480585e+00    3.098902e+00
  1.496460e+00    3.072002e+00
  1.512336e+00    3.019600e+00
  1.528211e+00    3.068019e+00
  1.544087e+00    3.178680e+00
  1.559963e+00    3.194056e+00
  1.575838e+00    3.233862e+00
  1.591714e+00    3.120289e+00
  1.607589e+00    3.164077e+00
  1.623465e+00    3.077553e+00
  1.639340e+00    3.095554e+00
  1.655216e+00    3.149273e+00
  1.671092e+00    3.185236e+00
  1.686967e+00    3.193025e+00
  1.702843e+00    3.273930e+00
  1.718718e+00    3.186464e+00
  1.734594e+00    3.092655e+00
  1.750469e+00    3.092281e+00
  1.766345e+00    3.023115e+00
  1.782221e+00    3.035651e+00
  1.798096e+00    3.093163e+00
  1.813972e+00    3.045647e+00
  1.829847e+00    3.102226e+00
  1.845723e+00    3.148033e+00
  1.861598e+00    3.135385e+00
  1.877474e+00    3.073980e+00
  1.893350e+00    3.060707e+00
  1.909225e+00    3.054923e+00
  1.925101e+00    3.068359e+00
  1.940976e+00    2.985473e+00
  1.956852e+00    2.992737e+00
  1.972727e+00    3.075432e+00
  1.988603e+00    3.172599e+00
  2.004479e+00    3.130195e+00
  2.020354e+00    3.079591e+00
  2.036230e+00    3.208075e+00
  2.052105e+00    3.219128e+00
  2.067981e+00    3.096899e+00
  2.083856e+00    3.067728e+00
  2.099732e+00    3.144046e+00
  2.115608e+00    3.150956e+00
  2.131483e+00    3.130064e+00
  2.147359e+00    3.197293e+00
  2.163234e+00    3.054438e+00
  2.179110e+00    3.028593e+00
  2.194985e+00    3.167567e+00
  2.210861e+00    3.095394e+00
  2.226737e+00    3.085450e+00
  2.242612e+00    3.045956e+00
  2.258488e+00    3.084535e+00
  2.274363e+00    3.049296e+00
  2.290239e+00    3.027631e+00
  2.306115e+00    3.020075e+00
  2.321990e+00    3.110806e+00
  2.337866e+00    3.143266e+00
  2.353741e+00    3.203529e+00
  2.369617e+00    3.106932e+00
  2.385492e+00    3.155677e+00
  2.401368e+00    3.206017e+00
  2.417244e+00    3.153140e+00
  2.433119e+00    3.260402e+00
  2.448995e+00    3.279298e+00
  2.464870e+00    3.252585e+00
  2.480746e+00    3.232340e+00
  2.496621e+00    3.170107e+00
  2.512497e+00    3.292360e+00
  2.528373e+00    3.268078e+00
  2.544248e+00    3.203493e+00
  2.560124e+00    3.224205e+00
  2.575999e+00    3.201625e+00
  2.591875e+00    3.098795e+00
  2.607750e+00    3.184134e+00
  2.623626e+00    3.234905e+00
  2.639502e+00    3.284182e+00
  2.655377e+00    3.237740e+00
  2.671253e+00    3.288601e+00
  2.687128e+00    3.201149e+00
  2.703004e+00    3.214156e+00
  2.718879e+00    3.317421e+00
  2.734755e+00    3.195305e+00
  2.750631e+00    3.198497e+00
  2.766506e+00    3.371880e+00
  2.782382e+00    3.383966e+00
  2.798257e+00    3.256853e+00
  2.814133e+00    3.197765e+00
  2.830008e+00    3.289125e+00
  2.845884e+00    3.416628e+00
  2.861760e+00    3.343045e+00
  2.877635e+00    3.239787e+00
  2.893511e+00    3.254495e+00
  2.909386e+00    3.346828e+00
  2.925262e+00    3.360654e+00
  2.941137e+00    3.299495e+00
  2.957013e+00    3.287491e+00
  2.972889e+00    3.336999e+00
  2.988764e+00    3.411223e+00
  3.004640e+00    3.343160e+00
  3.020515e+00    3.337027e+00
  3.036391e+00    3.264794e+00
  3.052266e+00    3.304509e+00
  3.068142e+00    3.289102e+00
  3.084018e+00    3.260650e+00
  3.099893e+00    3.266255e+00
  3.115769e+00    3.383986e+00
  3.131644e+00    3.310901e+00
  3.147520e+00    3.272315e+00
  3.163395e+00    3.398888e+00
  3.179271e+00    3.373055e+00
  3.195147e+00    3.308532e+00
  3.211022e+00    3.412552e+00
  3.226898e+00    3.386511e+00
  3.242773e+00    3.374364e+00
  3.258649e+00    3.377469e+00
  3.274525e+00    3.357781e+00
  3.290400e+00    3.402645e+00
  3.306276e+00    3.395199e+00
  3.322151e+00    3.367076e+00
  3.338027e+00    3.363414e+00
  3.353902e+00    3.342858e+00
  3.369778e+00    3.375775e+00
  3.385654e+00    3.387732e+00
  3.401529e+00    3.419205e+00
  3.417405e+00    3.511661e+00
  3.433280e+00    3.391524e+00
  3.449156e+00    3.444115e+00
  3.465031e+00    3.400250e+00
  3.480907e+00    3.382783e+00
  3.496783e+00    3.386377e+00
  3.512658e+00    3.425875e+00
  3.528534e+00    3.464712e+00
  3.544409e+00    3.438444e+00
  3.560285e+00    3.404184e+00
  3.576160e+00    3.415332e+00
  3.592036e+00    3.498086e+00
  3.607912e+00    3.488040e+00
  3.623787e+00    3.460106e+00
  3.639663e+00    3.538008e+00
  3.655538e+00    3.506452e+00
  3.671414e+00    3.491323e+00
  3.687289e+00    3.451014e+00
  3.703165e+00    3.515474e+00
  3.719041e+00    3.458609e+00
  3.734916e+00    3.489613e+00
  3.750792e+00    3.462929e+00
  3.766667e+00    3.520427e+00
  3.782543e+00    3.496086e+00
  3.798418e+00    3.417723e+00
  3.814294e+00    3.459319e+00
  3.830170e+00    3.475006e+00
  3.846045e+00    3.536862e+00
  3.861921e+00    3.447586e+00
  3.877796e+00    3.476795e+00
  3.893672e+00    3.487557e+00
  3.909547e+00    3.509195e+00
  3.925423e+00    3.486216e+00
  3.941299e+00    3.511451e+00
  3.957174e+00    3.594097e+00
  3.973050e+00    3.541480e+00
  3.988925e+00    3.490449e+00
  4.004801e+00    3.465623e+00
  4.020676e+00    3.461590e+00
  4.036552e+00    3.493600e+00
  4.052428e+00    3.545997e+00
  4.068303e+00    3.593396e+00
  4.084179e+00    3.562429e+00
  4.100054e+00    3.500601e+00
  4.115930e+00    3.484253e+00
  4.131806e+00    3.613911e+00
  4.147681e+00    3.616839e+00
  4.163557e+00    3.643319e+00
  4.179432e+00    3.499941e+00
  4.195308e+00    3.510371e+00
  4.211183e+00    3.588947e+00
  4.227059e+00    3.548022e+00
  4.242935e+00    3.564565e+00
  4.258810e+00    3.571437e+00
  4.274686e+00    3.472907e+00
  4.290561e+00    3.526104e+00
  4.306437e+00    3.625772e+00
  4.322312e+00    3.668805e+00
  4.338188e+00    3.602702e+00
  4.354064e+00    3.542166e+00
  4.369939e+00    3.530751e+00
  4.385815e+00    3.525833e+00
  4.401690e+00    3.592083e+00
  4.417566e+00    3.536236e+00
  4.433441e+00    3.602043e+00
  4.449317e+00    3.490775e+00
  4.465193e+00    3.432703e+00
  4.481068e+00    3.477748e+00
  4.496944e+00    3.481036e+00
  4.512819e+00    3.607456e+00
  4.528695e+00    3.518477e+00
  4.544570e+00    3.574685e+00
  4.560446e+00    3.600686e+00
  4.576322e+00    3.617415e+00
  4.592197e+00    3.607817e+00
  4.608073e+00    3.589516e+00
  4.623948e+00    3.555466e+00
  4.639824e+00    3.546351e+00
  4.655699e+00    3.643615e+00
  4.671575e+00    3.631116e+00
  4.687451e+00    3.619904e+00
  4.703326e+00    3.538394e+00
  4.719202e+00    3.580111e+00
  4.735077e+00    3.676683e+00
  4.750953e+00    3.637026e+00
  4.766828e+00    3.659378e+00
  4.782704e+00    3.607153e+00
  4.798580e+00    3.623270e+00
  4.814455e+00    3.691436e+00
  4.830331e+00    3.644295e+00
  4.846206e+00    3.603601e+00
  4.862082e+00    3.637402e+00
  4.877957e+00    3.673998e+00
  4.893833e+00    3.593836e+00
  4.909709e+00    3.610335e+00
  4.925584e+00    3.662163e+00
  4.941460e+00    3.625798e+00
  4.957335e+00    3.593044e+00
  4.973211e+00    3.616868e+00
  4.989086e+00    3.582739e+00
  5.004962e+00    3.571829e+00
  5.020838e+00    3.705088e+00
  5.036713e+00    3.697691e+00
  5.052589e+00    3.661725e+00
  5.068464e+00    3.676301e+00
  5.084340e+00    3.653054e+00
  5.100216e+00    3.651360e+00
  5.116091e+00    3.745471e+00
  5.131967e+00    3.683209e+00
  5.147842e+00    3.591213e+00
  5.163718e+00    3.612209e+00
  5.179593e+00    3.674557e+00
  5.195469e+00    3.664648e+00
  5.211345e+00    3.658805e+00
  5.227220e+00    3.720033e+00
  5.243096e+00    3.654384e+00
  5.258971e+00    3.639684e+00
  5.274847e+00    3.758029e+00
  5.290722e+00    3.641780e+00
  5.306598e+00    3.618752e+00
  5.322474e+00    3.603962e+00
  5.338349e+00    3.650913e+00
  5.354225e+00    3.606144e+00
  5.370100e+00    3.625323e+00
  5.385976e+00    3.630246e+00
  5.401851e+00    3.605251e+00
  5.417727e+00    3.732749e+00
  5.433603e+00    3.752812e+00
  5.449478e+00    3.684088e+00
  5.465354e+00    3.626173e+00
  5.481229e+00    3.572710e+00
  5.497105e+00    3.602965e+00
  5.512980e+00    3.642035e+00
  5.528856e+00    3.590804e+00
  5.544732e+00    3.673165e+00
  5.560607e+00    3.674299e+00
  5.576483e+00    3.532732e+00
  5.592358e+00    3.520743e+00
  5.608234e+00    3.560318e+00
  5.624109e+00    3.658141e+00
  5.639985e+00    3.653530e+00
  5.655861e+00    3.643596e+00
  5.671736e+00    3.618797e+00
  5.687612e+00    3.643739e+00
  5.703487e+00    3.633985e+00
  5.719363e+00    3.607790e+00
  5.735238e+00    3.544009e+00
  5.751114e+00    3.599108e+00
  5.766990e+00    3.666515e+00
  5.782865e+00    3.540933e+00
  5.798741e+00    3.542501e+00
  5.814616e+00    3.528823e+00
  5.830492e+00    3.581745e+00
  5.846367e+00    3.584450e+00
  5.862243e+00    3.577244e+00
  5.878119e+00    3.501978e+00
  5.893994e+00    3.481529e+00
  5.909870e+00    3.517034e+00
  5.925745e+00    3.618328e+00
  5.941621e+00    3.576828e+00
  5.957497e+00    3.484509e+00
  5.973372e+00    3.488363e+00
  5.989248e+00    3.611857e+00
  6.005123e+00    3.548975e+00
  6.020999e+00    3.503283e+00
  6.036874e+00    3.573722e+00
  6.052750e+00    3.571790e+00
  6.068626e+00    3.552102e+00
  6.084501e+00    3.540563e+00
  6.100377e+00    3.556896e+00
  6.116252e+00    3.586910e+00
  6.132128e+00    3.596293e+00
  6.148003e+00    3.562041e+00
  6.163879e+00    3.554279e+00
  6.179755e+00    3.532672e+00
  6.195630e+00    3.585344e+00
  6.211506e+00    3.576486e+00
  6.227381e+00    3.547606e+00
  6.243257e+00    3.545279e+00
  6.259132e+00    3.610733e+00
  6.275008e+00    3.553595e+00
  6.290884e+00    3.528117e+00
  6.306759e+00    3.525712e+00
  6.322635e+00    3.521163e+00
  6.338510e+00    3.515392e+00
  6.354386e+00    3.514702e+00
  6.370261e+00    3.580541e+00
  6.386137e+00    3.566329e+00
  6.402013e+00    3.547633e+00
  6.417888e+00    3.613268e+00
  6.433764e+00    3.549965e+00
  6.449639e+00    3.585949e+00
  6.465515e+00    3.541350e+00
  6.481390e+00    3.655386e+00
  6.497266e+00    3.663270e+00
  6.513142e+00    3.611182e+00
  6.529017e+00    3.581622e+00
  6.544893e+00    3.562135e+00
  6.560768e+00    3.540714e+00
  6.576644e+00    3.600083e+00
  6.592519e+00    3.564390e+00
  6.608395e+00    3.549029e+00
  6.624271e+00    3.486376e+00
  6.640146e+00    3.616980e+00
  6.656022e+00    3.572817e+00
  6.671897e+00    3.579547e+00
  6.687773e+00    3.566548e+00
  6.703648e+00    3.545022e+00
  6.719524e+00    3.605797e+00
  6.735400e+00    3.607435e+00
  6.751275e+00    3.532998e+00
  6.767151e+00    3.519978e+00
  6.783026e+00    3.590280e+00
  6.798902e+00    3.613919e+00
  6.814777e+00    3.507284e+00
  6.830653e+00    3.503375e+00
  6.846529e+00    3.497398e+00
  6.862404e+00    3.551809e+00
  6.878280e+00    3.583798e+00
  6.894155e+00    3.517737e+00
  6.910031e+00    3.566160e+00
  6.925907e+00    3.532382e+00
  6.941782e+00    3.529172e+00
  6.957658e+00    3.502951e+00
  6.973533e+00    3.506341e+00
  6.989409e+00    3.501405e+00
  7.005284e+00    3.496340e+00
  7.021160e+00    3.515289e+00
  7.037036e+00    3.571506e+00
  7.052911e+00    3.628173e+00
  7.068787e+00    3.536253e+00
  7.084662e+00    3.602746e+00
  7.100538e+00    3.612168e+00
  7.116413e+00    3.509700e+00
  7.132289e+00    3.451810e+00
  7.148165e+00    3.491859e+00
  7.164040e+00    3.472862e+00
  7.179916e+00    3.477159e+00
  7.195791e+00    3.486980e+00
  7.211667e+00    3.497944e+00
  7.227542e+00    3.568799e+00
  7.243418e+00    3.431539e+00
  7.259294e+00    3.476037e+00
  7.275169e+00    3.487407e+00
  7.291045e+00    3.448279e+00
  7.306920e+00    3.477308e+00
  7.322796e+00    3.464817e+00
  7.338671e+00    3.484821e+00
  7.354547e+00    3.511989e+00
  7.370423e+00    3.406906e+00
  7.386298e+00    3.452396e+00
  7.402174e+00    3.504527e+00
  7.418049e+00    3.497881e+00
  7.433925e+00    3.430699e+00
  7.449800e+00    3.446877e+00
  7.465676e+00    3.538339e+00
  7.481552e+00    3.515363e+00
  7.497427e+00    3.538193e+00
  7.513303e+00    3.567988e+00
  7.529178e+00    3.488186e+00
  7.545054e+00    3.430465e+00
  7.560929e+00    3.426708e+00
  7.576805e+00    3.462896e+00
  7.592681e+00    3.529115e+00
  7.608556e+00    3.498843e+00
  7.624432e+00    3.394308e+00
  7.640307e+00    3.412224e+00
  7.656183e+00    3.460019e+00
  7.672058e+00    3.477944e+00
  7.687934e+00    3.399766e+00
  7.703810e+00    3.440881e+00
  7.719685e+00    3.385307e+00
  7.735561e+00    3.338536e+00
  7.751436e+00    3.411903e+00
  7.767312e+00    3.466800e+00
  7.783187e+00    3.434876e+00
  7.799063e+00    3.435044e+00
  7.814939e+00    3.453745e+00
  7.830814e+00    3.452808e+00
  7.846690e+00    3.419788e+00
  7.862565e+00    3.404476e+00
  7.878441e+00    3.442705e+00
  7.894317e+00    3.401621e+00
  7.910192e+00    3.351074e+00
  7.926068e+00    3.391091e+00
  7.941943e+00    3.440390e+00
  7.957819e+00    3.453497e+00
  7.973694e+00    3.419315e+00
  7.989570e+00    3.395431e+00
  8.005446e+00    3.426973e+00
  8.021321e+00    3.439734e+00
  8.037197e+00    3.419700e+00
  8.053072e+00    3.330534e+00
  8.068948e+00    3.330241e+00
  8.084823e+00    3.438957e+00
  8.100699e+00    3.390007e+00
  8.116575e+00    3.445899e+00
  8.132450e+00    3.425011e+00
  8.148326e+00    3.370086e+00
  8.164201e+00    3.483344e+00
  8.180077e+00    3.485082e+00
  8.195952e+00    3.478077e+00
  8.211828e+00    3.495907e+00
  8.227704e+00    3.497222e+00
  8.243579e+00    3.470416e+00
  8.259455e+00    3.466443e+00
  8.275330e+00    3.359561e+00
  8.291206e+00    3.416537e+00
  8.307081e+00    3.446402e+00
  8.322957e+00    3.355077e+00
  8.338833e+00    3.399854e+00
  8.354708e+00    3.414707e+00
  8.370584e+00    3.373542e+00
  8.386459e+00    3.409187e+00
  8.402335e+00    3.383937e+00
  8.418210e+00    3.395143e+00
  8.434086e+00    3.408841e+00
  8.449962e+00    3.352989e+00
  8.465837e+00    3.322621e+00
  8.481713e+00    3.282851e+00
  8.497588e+00    3.304230e+00
  8.513464e+00    3.351577e+00
  8.529339e+00    3.274788e+00
  8.545215e+00    3.367920e+00
  8.561091e+00    3.446290e+00
  8.576966e+00    3.375975e+00
  8.592842e+00    3.378511e+00
  8.608717e+00    3.377409e+00
  8.624593e+00    3.303868e+00
  8.640468e+00    3.298138e+00
  8.656344e+00    3.382446e+00
  8.672220e+00    3.328168e+00
  8.688095e+00    3.291124e+00
  8.703971e+00    3.300311e+00
  8.719846e+00    3.299847e+00
  8.735722e+00    3.325585e+00
  8.751598e+00    3.353441e+00
  8.767473e+00    3.321977e+00
  8.783349e+00    3.325335e+00
  8.799224e+00    3.294960e+00
  8.815100e+00    3.319722e+00
  8.830975e+00    3.311159e+00
  8.846851e+00    3.330785e+00
  8.862727e+00    3.366317e+00
  8.878602e+00    3.337657e+00
  8.894478e+00    3.258422e+00
  8.910353e+00    3.351707e+00
  8.926229e+00    3.347471e+00
  8.942104e+00    3.333781e+00
  8.957980e+00    3.303650e+00
  8.973856e+00    3.303550e+00
  8.989731e+00    3.251631e+00
  9.005607e+00    3.254506e+00
  9.021482e+00    3.269276e+00
  9.037358e+00    3.295654e+00
  9.053233e+00    3.280516e+00
  9.069109e+00    3.278104e+00
  9.084985e+00    3.285373e+00
  9.100860e+00    3.228068e+00
  9.116736e+00    3.229315e+00
  9.132611e+00    3.202001e+00
  9.148487e+00    3.264171e+00
  9.164362e+00    3.290369e+00
  9.180238e+00    3.248201e+00
  9.196114e+00    3.268501e+00
  9.211989e+00    3.214134e+00
  9.227865e+00    3.156748e+00
  9.243740e+00    3.194559e+00
  9.259616e+00    3.237706e+00
  9.275491e+00    3.246538e+00
  9.291367e+00    3.244915e+00
  9.307243e+00    3.175699e+00
  9.323118e+00    3.179535e+00
  9.338994e+00    3.265415e+00
  9.354869e+00    3.223596e+00
  9.370745e+00    3.188652e+00
  9.386620e+00    3.197629e+00
  9.402496e+00    3.201196e+00
  9.418372e+00    3.215638e+00
  9.434247e+00    3.231455e+00
  9.450123e+00    3.238498e+00
  9.465998e+00    3.207519e+00
  9.481874e+00    3.227301e+00
  9.497749e+00    3.242200e+00
  9.513625e+00    3.278060e+00
  9.529501e+00    3.243198e+00
  9.545376e+00    3.205032e+00
  9.561252e+00    3.232837e+00
  9.577127e+00    3.242022e+00
  9.593003e+00    3.253270e+00
  9.608878e+00    3.163003e+00
  9.624754e+00    3.179689e+00
  9.640630e+00    3.220230e+00
  9.656505e+00    3.181804e+00
  9.672381e+00    3.129147e+00
  9.688256e+00    3.134262e+00
  9.704132e+00    3.195597e+00
  9.720008e+00    3.184955e+00
  9.735883e+00    3.206934e+00
  9.751759e+00    3.162871e+00
  9.767634e+00    3.165073e+00
  9.783510e+00    3.204576e+00
  9.799385e+00    3.152190e+00
  9.815261e+00    3.174752e+00
  9.831137e+00    3.161583e+00
  9.847012e+00    3.149343e+00
  9.862888e+00    3.151846e+00
  9.878763e+00    3.135685e+00
  9.894639e+00    3.164909e+00
  9.910514e+00    3.136033e+00
  9.926390e+00    3.137831e+00
  9.942266e+00    3.137517e+00
  9.958141e+00    3.090315e+00
  9.974017e+00    3.122840e+00
  9.989892e+00    3.147439e+00
  1.000577e+01    3.119754e+00
  1.002164e+01    3.144377e+00
  1.003752e+01    3.133039e+00
  1.005339e+01    3.094144e+00
  1.006927e+01    3.088992e+00
  1.008515e+01    3.033769e+00
  1.010102e+01    3.080858e+00
  1.011690e+01    3.130986e+00
  1.013277e+01    3.111484e+00
  1.014865e+01    3.060779e+00
  1.016452e+01    3.034644e+00
  1.018040e+01    3.115519e+00
  1.019627e+01    3.114850e+00
  1.021215e+01    3.062941e+00
  1.022803e+01    3.074588e+00
  1.024390e+01    3.034024e+00
  1.025978e+01    2.983001e+00
  1.027565e+01    3.049456e+00
  1.029153e+01    3.031778e+00
  1.030740e+01    3.007454e+00
  1.032328e+01    3.060808e+00
  1.033915e+01    3.106799e+00
  1.035503e+01    3.113153e+00
  1.037091e+01    3.045365e+00
  1.038678e+01    3.011386e+00
  1.040266e+01    3.038763e+00
  1.041853e+01    3.061655e+00
  1.043441e+01    3.046576e+00
  1.045028e+01    3.023732e+00
  1.046616e+01    3.068355e+00
  1.048204e+01    3.047368e+00
  1.049791e+01    3.028299e+00
  1.051379e+01    2.990766e+00
  1.052966e+01    2.994375e+00
  1.054554e+01    2.990992e+00
  1.056141e+01    2.941152e+00
  1.057729e+01    3.024274e+00
  1.059316e+01    3.040558e+00
  1.060904e+01    2.998318e+00
  1.062492e+01    3.011956e+00
  1.064079e+01    2.977976e+00
  1.065667e+01    2.986565e+00
  1.067254e+01    2.990536e+00
  1.068842e+01    2.909286e+00
  1.070429e+01    2.932159e+00
  1.072017e+01    2.938894e+00
  1.073604e+01    2.964540e+00
  1.075192e+01    2.999336e+00
  1.076780e+01    2.951799e+00
  1.078367e+01    2.984463e+00
  1.079955e+01    2.982976e+00
  1.081542e+01    2.998399e+00
  1.083130e+01    2.968530e+00
  1.084717e+01    2.950737e+00
  1.086305e+01    2.922454e+00
  1.087892e+01    2.933484e+00
  1.089480e+01    2.900923e+00
  1.091068e+01    2.897635e+00
  1.092655e+01    2.931537e+00
  1.094243e+01    2.915597e+00
  1.095830e+01    2.939501e+00
  1.097418e+01    2.939839e+00
  1.099005e+01    2.912583e+00
  1.100593e+01    2.851416e+00
  1.102180e+01    2.873134e+00
  1.103768e+01    2.914878e+00
  1.105356e+01    2.894676e+00
  1.106943e+01    2.928802e+00
  1.108531e+01    2.878043e+00
  1.110118e+01    2.861345e+00
  1.111706e+01    2.899010e+00
  1.113293e+01    2.896244e+00
  1.114881e+01    2.903133e+00
  1.116468e+01    2.905426e+00
  1.118056e+01    2.868242e+00
  1.119644e+01    2.888498e+00
  1.121231e+01    2.844642e+00
  1.122819e+01    2.865200e+00
  1.124406e+01    2.914953e+00
  1.125994e+01    2.931858e+00
  1.127581e+01    2.844310e+00
  1.129169e+01    2.815845e+00
  1.130756e+01    2.803280e+00
  1.132344e+01    2.819544e+00
  1.133932e+01    2.784254e+00
  1.135519e+01    2.817477e+00
  1.137107e+01    2.784691e+00
  1.138694e+01    2.819592e+00
  1.140282e+01    2.812214e+00
  1.141869e+01    2.811003e+00
  1.143457e+01    2.813311e+00
  1.145045e+01    2.799479e+00
  1.146632e+01    2.761354e+00
  1.148220e+01    2.790641e+00
  1.149807e+01    2.828312e+00
  1.151395e+01    2.829542e+00
  1.152982e+01    2.780208e+00
  1.154570e+01    2.762261e+00
  1.156157e+01    2.757535e+00
  1.157745e+01    2.783120e+00
  1.159333e+01    2.760142e+00
  1.160920e+01    2.765458e+00
  1.162508e+01    2.743371e+00
  1.164095e+01    2.768503e+00
  1.165683e+01    2.780601e+00
  1.167270e+01    2.760233e+00
  1.168858e+01    2.742214e+00
  1.170445e+01    2.758493e+00
  1.172033e+01    2.768395e+00
  1.173621e+01    2.763845e+00
  1.175208e+01    2.759471e+00
  1.176796e+01    2.777683e+00
  1.178383e+01    2.788112e+00
  1.179971e+01    2.786016e+00
  1.181558e+01    2.710948e+00
  1.183146e+01    2.681808e+00
  1.184733e+01    2.711709e+00
  1.186321e+01    2.758450e+00
  1.187909e+01    2.715777e+00
  1.189496e+01    2.686110e+00
  1.191084e+01    2.711294e+00
  1.192671e+01    2.760474e+00
  1.194259e+01    2.742411e+00
  1.195846e+01    2.720937e+00
  1.197434e+01    2.730766e+00
  1.199021e+01    2.721123e+00
  1.200609e+01    2.757516e+00
  1.202197e+01    2.676604e+00
  1.203784e+01    2.656372e+00
  1.205372e+01    2.660398e+00
  1.206959e+01    2.709850e+00
  1.208547e+01    2.721306e+00
  1.210134e+01    2.716951e+00
  1.211722e+01    2.719959e+00
  1.213309e+01    2.679202e+00
  1.214897e+01    2.676616e+00
  1.216485e+01    2.713728e+00
  1.218072e+01    2.680964e+00
  1.219660e+01    2.664902e+00
  1.221247e+01    2.691533e+00
  1.222835e+01    2.665526e+00
  1.224422e+01    2.748490e+00
  1.226010e+01    2.750758e+00
  1.227597e+01    2.668127e+00
  1.229185e+01    2.672558e+00
  1.230773e+01    2.679711e+00
  1.232360e+01    2.663094e+00
  1.233948e+01    2.695779e+00
  1.235535e+01    2.696234e+00
  1.237123e+01    2.688778e+00
  1.238710e+01    2.684424e+00
  1.240298e+01    2.681405e+00
  1.241886e+01    2.684756e+00
  1.243473e+01    2.709172e+00
  1.245061e+01    2.693405e+00
  1.246648e+01    2.693504e+00
  1.248236e+01    2.710928e+00
  1.249823e+01    2.691043e+00
  1.251411e+01    2.738640e+00
  1.252998e+01    2.697392e+00
  1.254586e+01    2.687660e+00
  1.256174e+01    2.739353e+00
  1.257761e+01    2.729350e+00
  1.259349e+01    2.688055e+00
  1.260936e+01    2.684651e+00
  1.262524e+01    2.751561e+00
  1.264111e+01    2.746249e+00
  1.265699e+01    2.746351e+00
  1.267286e+01    2.820125e+00
  1.268874e+01    2.819751e+00
  1.270462e+01    2.832346e+00
  1.272049e+01    2.867947e+00
  1.273637e+01    2.849706e+00
  1.275224e+01    2.892793e+00
  1.276812e+01    2.965153e+00
  1.278399e+01    2.963275e+00
  1.279987e+01    2.986095e+00
  1.281574e+01    3.004686e+00
  1.283162e+01    3.085043e+00
  1.284750e+01    3.146808e+00
  1.286337e+01    3.217449e+00
  1.287925e+01    3.325540e+00
  1.289512e+01    3.442931e+00
  1.291100e+01    3.632530e+00
  1.292687e+01    3.831049e+00
  1.294275e+01    4.089859e+00
  1.295862e+01    4.421876e+00
  1.297450e+01    4.810046e+00
  1.299038e+01    5.270284e+00
  1.300625e+01    5.872367e+00
  1.302213e+01    6.659852e+00
  1.303800e+01    7.609884e+00
  1.305388e+01    8.805986e+00
  1.306975e+01    1.015384e+01
  1.308563e+01    1.144621e+01
  1.310150e+01    1.264346e+01
  1.311738e+01    1.383800e+01
  1.313326e+01    1.486907e+01
  1.314913e+01    1.571129e+01
  1.316501e+01    1.622844e+01
  1.318088e+01    1.637896e+01
  1.319676e+01    1.572246e+01
  1.321263e+01    1.438564e+01
  1.322851e+01    1.260856e+01
  1.324438e+01    1.072360e+01
  1.326026e+01    9.141481e+00
  1.327614e+01    7.800665e+00
  1.329201e+01    6.790172e+00
  1.330789e+01    5.930979e+00
  1.332376e+01    5.279748e+00
  1.333964e+01    4.835688e+00
  1.335551e+01    4.426586e+00
  1.337139e+01    4.166446e+00
  1.338727e+01    3.893787e+00
  1.340314e+01    3.655360e+00
  1.341902e+01    3.525602e+00
  1.343489e+01    3.353865e+00
  1.345077e+01    3.231398e+00
  1.346664e+01    3.140543e+00
  1.348252e+01    3.069882e+00
  1.349839e+01    3.041897e+00
  1.351427e+01    2.980927e+00
  1.353015e+01    2.890077e+00
  1.354602e+01    2.814014e+00
  1.356190e+01    2.772369e+00
  1.357777e+01    2.763229e+00
  1.359365e+01    2.729418e+00
  1.360952e+01    2.682899e+00
  1.362540e+01    2.670731e+00
  1.364127e+01    2.618391e+00
  1.365715e+01    2.605824e+00
  1.367303e+01    2.574456e+00
  1.368890e+01    2.565911e+00
  1.370478e+01    2.558870e+00
  1.372065e+01    2.494437e+00
  1.373653e+01    2.508125e+00
  1.375240e+01    2.541858e+00
  1.376828e+01    2.484128e+00
  1.378415e+01    2.493471e+00
  1.380003e+01    2.507928e+00
  1.381591e+01    2.477113e+00
  1.383178e+01    2.421479e+00
  1.384766e+01    2.389928e+00
  1.386353e+01    2.396000e+00
  1.387941e+01    2.399492e+00
  1.389528e+01    2.404459e+00
  1.391116e+01    2.414349e+00
  1.392703e+01    2.380542e+00
  1.394291e+01    2.421232e+00
  1.395879e+01    2.452006e+00
  1.397466e+01    2.448869e+00
  1.399054e+01    2.383607e+00
  1.400641e+01    2.360886e+00
  1.402229e+01    2.355088e+00
  1.403816e+01    2.338950e+00
  1.405404e+01    2.333837e+00
  1.406991e+01    2.369804e+00
  1.408579e+01    2.322732e+00
  1.410167e+01    2.315138e+00
  1.411754e+01    2.315785e+00
  1.413342e+01    2.328692e+00
  1.414929e+01    2.320843e+00
  1.416517e+01    2.296023e+00
  1.418104e+01    2.300711e+00
  1.419692e+01    2.342801e+00
  1.421279e+01    2.278251e+00
  1.422867e+01    2.268085e+00
  1.424455e+01    2.289886e+00
  1.426042e+01    2.231105e+00
  1.427630e+01    2.225987e+00
  1.429217e+01    2.246928e+00
  1.430805e+01    2.288502e+00
  1.432392e+01    2.275271e+00
  1.433980e+01    2.229120e+00
  1.435568e+01    2.275554e+00
  1.437155e+01    2.250180e+00
  1.438743e+01    2.276624e+00
  1.440330e+01    2.242556e+00
  1.441918e+01    2.235457e+00
  1.443505e+01    2.241873e+00
  1.445093e+01    2.213284e+00
  1.446680e+01    2.200302e+00
  1.448268e+01    2.225449e+00
  1.449856e+01    2.232202e+00
  1.451443e+01    2.263399e+00
  1.453031e+01    2.223958e+00
  1.454618e+01    2.229836e+00
  1.456206e+01    2.232120e+00
  1.457793e+01    2.216025e+00
  1.459381e+01    2.225856e+00
  1.460968e+01    2.209326e+00
  1.462556e+01    2.208817e+00
  1.464144e+01    2.242500e+00
  1.465731e+01    2.208711e+00
  1.467319e+01    2.147838e+00
  1.468906e+01    2.180331e+00
  1.470494e+01    2.226114e+00
  1.472081e+01    2.190566e+00
  1.473669e+01    2.166711e+00
  1.475256e+01    2.190568e+00
  1.476844e+01    2.184468e+00
  1.478432e+01    2.211304e+00
  1.480019e+01    2.189777e+00
  1.481607e+01    2.158119e+00
  1.483194e+01    2.183882e+00
  1.484782e+01    2.210321e+00
  1.486369e+01    2.236109e+00
  1.487957e+01    2.202526e+00
  1.489544e+01    2.269351e+00
  1.491132e+01    2.259001e+00
  1.492720e+01    2.263388e+00
  1.494307e+01    2.323951e+00
  1.495895e+01    2.323685e+00
  1.497482e+01    2.336976e+00
  1.499070e+01    2.442107e+00
  1.500657e+01    2.453160e+00
  1.502245e+01    2.503302e+00
  1.503832e+01    2.553738e+00
  1.505420e+01    2.708322e+00
  1.507008e+01    2.853667e+00
  1.508595e+01    2.971689e+00
  1.510183e+01    3.179446e+00
  1.511770e+01    3.495408e+00
  1.513358e+01    3.819686e+00
  1.514945e+01    4.135057e+00
  1.516533e+01    4.516289e+00
  1.518120e+01    4.920682e+00
  1.519708e+01    5.192591e+00
  1.521296e+01    5.421920e+00
  1.522883e+01    5.590576e+00
  1.524471e+01    5.720423e+00
  1.526058e+01    5.838540e+00
  1.527646e+01    5.708444e+00
  1.529233e+01    5.466769e+00
  1.530821e+01    5.142341e+00
  1.532409e+01    4.647779e+00
  1.533996e+01    4.212584e+00
  1.535584e+01    3.789251e+00
  1.537171e+01    3.429372e+00
  1.538759e+01    3.132888e+00
  1.540346e+01    2.942744e+00
  1.541934e+01    2.767681e+00
  1.543521e+01    2.640794e+00
  1.545109e+01    2.538384e+00
  1.546697e+01    2.434361e+00
  1.548284e+01    2.361065e+00
  1.549872e+01    2.332595e+00
  1.551459e+01    2.231624e+00
  1.553047e+01    2.165550e+00
  1.554634e+01    2.176345e+00
  1.556222e+01    2.158213e+00
  1.557809e+01    2.111779e+00
  1.559397e+01    2.070763e+00
  1.560985e+01    2.045347e+00
  1.562572e+01    2.059753e+00
  1.564160e+01    2.058199e+00
  1.565747e+01    2.048339e+00
  1.567335e+01    1.990417e+00
  1.568922e+01    1.997532e+00
  1.570510e+01    2.027336e+00
  1.572097e+01    1.980371e+00
  1.573685e+01    1.921245e+00
  1.575273e+01    1.924241e+00
  1.576860e+01    1.946563e+00
  1.578448e+01    1.934483e+00
  1.580035e+01    1.948085e+00
  1.581623e+01    1.964339e+00
  1.583210e+01    1.925798e+00
  1.584798e+01    1.907820e+00
  1.586385e+01    1.925407e+00
  1.587973e+01    1.928161e+00
  1.589561e+01    1.921722e+00
  1.591148e+01    1.900051e+00
  1.592736e+01    1.897376e+00
  1.594323e+01    1.866611e+00
  1.595911e+01    1.887582e+00
  1.597498e+01    1.903099e+00
  1.599086e+01    1.864727e+00
  1.600673e+01    1.859210e+00
  1.602261e+01    1.860819e+00
  1.603849e+01    1.861806e+00
  1.605436e+01    1.823394e+00
  1.607024e+01    1.863747e+00
  1.608611e+01    1.865381e+00
  1.610199e+01    1.860701e+00
  1.611786e+01    1.873729e+00
  1.613374e+01    1.825706e+00
  1.614961e+01    1.838905e+00
  1.616549e+01    1.851045e+00
  1.618137e+01    1.820263e+00
  1.619724e+01    1.801080e+00
  1.621312e+01    1.840860e+00
  1.622899e+01    1.825085e+00
  1.624487e+01    1.825938e+00
  1.626074e+01    1.788291e+00
  1.627662e+01    1.776587e+00
  1.629250e+01    1.762802e+00
  1.630837e+01    1.783227e+00
  1.632425e+01    1.803427e+00
  1.634012e+01    1.794076e+00
  1.635600e+01    1.819452e+00
  1.637187e+01    1.787792e+00
  1.638775e+01    1.789000e+00
  1.640362e+01    1.767199e+00
  1.641950e+01    1.740412e+00
  1.643538e+01    1.751109e+00
  1.645125e+01    1.738578e+00
  1.646713e+01    1.765990e+00
  1.648300e+01    1.798744e+00
  1.649888e+01    1.764042e+00
  1.651475e+01    1.769755e+00
  1.653063e+01    1.766259e+00
  1.654650e+01    1.759961e+00
  1.656238e+01    1.757066e+00
  1.657826e+01    1.754573e+00
  1.659413e+01    1.750419e+00
  1.661001e+01    1.742739e+00
  1.662588e+01    1.736847e+00
  1.664176e+01    1.741734e+00
  1.665763e+01    1.734028e+00
  1.667351e+01    1.738610e+00
  1.668938e+01    1.695681e+00
  1.670526e+01    1.722492e+00
  1.672114e+01    1.733781e+00
  1.673701e+01    1.736323e+00
  1.675289e+01    1.704224e+00
  1.676876e+01    1.736525e+00
  1.678464e+01    1.735698e+00
  1.680051e+01    1.724547e+00
  1.681639e+01    1.697581e+00
  1.683226e+01    1.714093e+00
  1.684814e+01    1.686046e+00
  1.686402e+01    1.650013e+00
  1.687989e+01    1.665117e+00
  1.689577e+01    1.683090e+00
  1.691164e+01    1.672489e+00
  1.692752e+01    1.672822e+00
  1.694339e+01    1.672515e+00
  1.695927e+01    1.664255e+00
  1.697514e+01    1.710712e+00
  1.699102e+01    1.697704e+00
  1.700690e+01    1.676816e+00
  1.702277e+01    1.661945e+00
  1.703865e+01    1.639021e+00
  1.705452e+01    1.622388e+00
  1.707040e+01    1.643548e+00
  1.708627e+01    1.660230e+00
  1.710215e+01    1.642499e+00
  1.711802e+01    1.665526e+00
  1.713390e+01    1.652998e+00
  1.714978e+01    1.650212e+00
  1.716565e+01    1.650800e+00
  1.718153e+01    1.614305e+00
  1.719740e+01    1.642049e+00
  1.721328e+01    1.653226e+00
  1.722915e+01    1.627497e+00
  1.724503e+01    1.608915e+00
  1.726091e+01    1.608745e+00
  1.727678e+01    1.617381e+00
  1.729266e+01    1.592198e+00
  1.730853e+01    1.623184e+00
  1.732441e+01    1.611457e+00
  1.734028e+01    1.601827e+00
  1.735616e+01    1.624512e+00
  1.737203e+01    1.600319e+00
  1.738791e+01    1.603056e+00
  1.740379e+01    1.584602e+00
  1.741966e+01    1.615118e+00
  1.743554e+01    1.585534e+00
  1.745141e+01    1.571758e+00
  1.746729e+01    1.578584e+00
  1.748316e+01    1.557271e+00
  1.749904e+01    1.580573e+00
  1.751491e+01    1.597922e+00
  1.753079e+01    1.575497e+00
  1.754667e+01    1.543478e+00
  1.756254e+01    1.559643e+00
  1.757842e+01    1.555018e+00
  1.759429e+01    1.538760e+00
  1.761017e+01    1.572309e+00
  1.762604e+01    1.550666e+00
  1.764192e+01    1.522322e+00
  1.765779e+01    1.544326e+00
  1.767367e+01    1.555310e+00
  1.768955e+01    1.557450e+00
  1.770542e+01    1.577810e+00
  1.772130e+01    1.580966e+00
  1.773717e+01    1.550475e+00
  1.775305e+01    1.538989e+00
  1.776892e+01    1.529963e+00
  1.778480e+01    1.505766e+00
  1.780067e+01    1.537915e+00
  1.781655e+01    1.536284e+00
  1.783243e+01    1.504127e+00
  1.784830e+01    1.512992e+00
  1.786418e+01    1.527441e+00
  1.788005e+01    1.510687e+00
  1.789593e+01    1.530888e+00
  1.791180e+01    1.519190e+00
  1.792768e+01    1.519310e+00
  1.794355e+01    1.479966e+00
  1.795943e+01    1.461589e+00
  1.797531e+01    1.495765e+00
  1.799118e+01    1.508725e+00
  1.800706e+01    1.503002e+00
  1.802293e+01    1.514930e+00
  1.803881e+01    1.508404e+00
  1.805468e+01    1.499415e+00
  1.807056e+01    1.497623e+00
  1.808643e+01    1.502420e+00
  1.810231e+01    1.490600e+00
  1.811819e+01    1.484805e+00
  1.813406e+01    1.496008e+00
  1.814994e+01    1.488471e+00
  1.816581e+01    1.481687e+00
  1.818169e+01    1.491465e+00
  1.819756e+01    1.479980e+00
  1.821344e+01    1.488497e+00
  1.822932e+01    1.496339e+00
  1.824519e+01    1.479988e+00
  1.826107e+01    1.453512e+00
  1.827694e+01    1.438041e+00
  1.829282e+01    1.448137e+00
  1.830869e+01    1.473213e+00
  1.832457e+01    1.445702e+00
  1.834044e+01    1.445947e+00
  1.835632e+01    1.447559e+00
  1.837220e+01    1.474619e+00
  1.838807e+01    1.462500e+00
  1.840395e+01    1.470602e+00
  1.841982e+01    1.486142e+00
  1.843570e+01    1.466385e+00
  1.845157e+01    1.462308e+00
  1.846745e+01    1.455388e+00
  1.848332e+01    1.451726e+00
  1.849920e+01    1.427038e+00
  1.851508e+01    1.415115e+00
  1.853095e+01    1.419241e+00
  1.854683e+01    1.399089e+00
  1.856270e+01    1.439379e+00
  1.857858e+01    1.469743e+00
  1.859445e+01    1.449798e+00
  1.861033e+01    1.441160e+00
  1.862620e+01    1.417680e+00
  1.864208e+01    1.432418e+00
  1.865796e+01    1.428753e+00
  1.867383e+01    1.419669e+00
  1.868971e+01    1.422273e+00
  1.870558e+01    1.375326e+00
  1.872146e+01    1.409383e+00
  1.873733e+01    1.455871e+00
  1.875321e+01    1.446736e+00
  1.876908e+01    1.407546e+00
  1.878496e+01    1.400424e+00
  1.880084e+01    1.397464e+00
  1.881671e+01    1.406571e+00
  1.883259e+01    1.399651e+00
  1.884846e+01    1.393194e+00
  1.886434e+01    1.383731e+00
  1.888021e+01    1.393440e+00
  1.889609e+01    1.363206e+00
  1.891196e+01    1.395791e+00
  1.892784e+01    1.406093e+00
  1.894372e+01    1.389706e+00
  1.895959e+01    1.403998e+00
  1.897547e+01    1.398961e+00
  1.899134e+01    1.381543e+00
  1.900722e+01    1.392525e+00
  1.902309e+01    1.414107e+00
  1.903897e+01    1.392992e+00
  1.905484e+01    1.394641e+00
  1.907072e+01    1.368392e+00
  1.908660e+01    1.364971e+00
  1.910247e+01    1.369455e+00
  1.911835e+01    1.362523e+00
  1.913422e+01    1.346047e+00
  1.915010e+01    1.362009e+00
  1.916597e+01    1.366740e+00
  1.918185e+01    1.375912e+00
  1.919773e+01    1.346422e+00
  1.921360e+01    1.384490e+00
  1.922948e+01    1.354213e+00
  1.924535e+01    1.346422e+00
  1.926123e+01    1.343942e+00
  1.927710e+01    1.344362e+00
  1.929298e+01    1.366938e+00
  1.930885e+01    1.354218e+00
  1.932473e+01    1.370866e+00
  1.934061e+01    1.357692e+00
  1.935648e+01    1.351733e+00
  1.937236e+01    1.347757e+00
  1.938823e+01    1.330377e+00
  1.940411e+01    1.338663e+00
  1.941998e+01    1.331614e+00
  1.943586e+01    1.333616e+00
  1.945173e+01    1.375896e+00
  1.946761e+01    1.327480e+00
  1.948349e+01    1.328690e+00
  1.949936e+01    1.324838e+00
  1.951524e+01    1.306370e+00
  1.953111e+01    1.299993e+00
  1.954699e+01    1.331274e+00
  1.956286e+01    1.352087e+00
  1.957874e+01    1.336712e+00
  1.959461e+01    1.309089e+00
  1.961049e+01    1.340540e+00
  1.962637e+01    1.332894e+00
  1.964224e+01    1.336655e+00
  1.965812e+01    1.337845e+00
  1.967399e+01    1.334143e+00
  1.968987e+01    1.301275e+00
  1.970574e+01    1.317606e+00
  1.972162e+01    1.318336e+00
  1.973749e+01    1.315104e+00
  1.975337e+01    1.321018e+00
  1.976925e+01    1.291221e+00
  1.978512e+01    1.332181e+00
  1.980100e+01    1.339595e+00
  1.981687e+01    1.316913e+00
  1.983275e+01    1.295455e+00
  1.984862e+01    1.282519e+00
  1.986450e+01    1.297234e+00
  1.988037e+01    1.290103e+00
  1.989625e+01    1.294054e+00
  1.991213e+01    1.272479e+00
  1.992800e+01    1.288868e+00
  1.994388e+01    1.279708e+00
  1.995975e+01    1.279442e+00
  1.997563e+01    1.272267e+00
  1.999150e+01    1.274864e+00
  2.000738e+01    1.292015e+00
  2.002325e+01    1.272795e+00
  2.003913e+01    1.281974e+00
  2.005501e+01    1.260742e+00
  2.007088e+01    1.284143e+00
  2.008676e+01    1.280301e+00
  2.010263e+01    1.279457e+00
  2.011851e+01    1.279506e+00
  2.013438e+01    1.281134e+00
  2.015026e+01    1.253240e+00
  2.016614e+01    1.263784e+00
  2.018201e+01    1.258044e+00
  2.019789e+01    1.266742e+00
  2.021376e+01    1.266378e+00
  2.022964e+01    1.239890e+00
  2.024551e+01    1.237455e+00
  2.026139e+01    1.242888e+00
  2.027726e+01    1.244818e+00
  2.029314e+01    1.254060e+00
  2.030902e+01    1.228871e+00
  2.032489e+01    1.245098e+00
  2.034077e+01    1.258882e+00
  2.035664e+01    1.248356e+00
  2.037252e+01    1.246234e+00
  2.038839e+01    1.276315e+00
  2.040427e+01    1.272099e+00
  2.042014e+01    1.264897e+00
  2.043602e+01    1.234445e+00
  2.045190e+01    1.231385e+00
  2.046777e+01    1.235371e+00
  2.048365e+01    1.242516e+00
  2.049952e+01    1.250886e+00
  2.051540e+01    1.257441e+00
  2.053127e+01    1.268486e+00
  2.054715e+01    1.255355e+00
  2.056302e+01    1.239565e+00
  2.057890e+01    1.253651e+00
  2.059478e+01    1.234260e+00
  2.061065e+01    1.227013e+00
  2.062653e+01    1.208366e+00
  2.064240e+01    1.224731e+00
  2.065828e+01    1.248643e+00
  2.067415e+01    1.244473e+00
  2.069003e+01    1.230420e+00
  2.070590e+01    1.227768e+00
  2.072178e+01    1.229897e+00
  2.073766e+01    1.228436e+00
  2.075353e+01    1.201192e+00
  2.076941e+01    1.205152e+00
  2.078528e+01    1.194688e+00
  2.080116e+01    1.227738e+00
  2.081703e+01    1.233849e+00
  2.083291e+01    1.238099e+00
  2.084878e+01    1.233766e+00
  2.086466e+01    1.253302e+00
  2.088054e+01    1.237727e+00
  2.089641e+01    1.224790e+00
  2.091229e+01    1.217362e+00
  2.092816e+01    1.219016e+00
  2.094404e+01    1.200339e+00
  2.095991e+01    1.208279e+00
  2.097579e+01    1.213828e+00
  2.099166e+01    1.200639e+00
  2.100754e+01    1.204688e+00
  2.102342e+01    1.203436e+00
  2.103929e+01    1.228638e+00
  2.105517e+01    1.249609e+00
  2.107104e+01    1.236992e+00
  2.108692e+01    1.249635e+00
  2.110279e+01    1.228127e+00
  2.111867e+01    1.204069e+00
  2.113455e+01    1.239294e+00
  2.115042e+01    1.235320e+00
  2.116630e+01    1.222465e+00
  2.118217e+01    1.241261e+00
  2.119805e+01    1.242384e+00
  2.121392e+01    1.226440e+00
  2.122980e+01    1.251887e+00
  2.124567e+01    1.256135e+00
  2.126155e+01    1.268797e+00
  2.127743e+01    1.252359e+00
  2.129330e+01    1.255585e+00
  2.130918e+01    1.266664e+00
  2.132505e+01    1.261612e+00
  2.134093e+01    1.255283e+00
  2.135680e+01    1.290613e+00
  2.137268e+01    1.291393e+00
  2.138855e+01    1.287015e+00
  2.140443e+01    1.296076e+00
  2.142031e+01    1.320464e+00
  2.143618e+01    1.317810e+00
  2.145206e+01    1.347046e+00
  2.146793e+01    1.372720e+00
  2.148381e+01    1.395136e+00
  2.149968e+01    1.402323e+00
  2.151556e+01    1.418342e+00
  2.153143e+01    1.481269e+00
  2.154731e+01    1.513385e+00
  2.156319e+01    1.555274e+00
  2.157906e+01    1.613279e+00
  2.159494e+01    1.703482e+00
  2.161081e+01    1.759463e+00
  2.162669e+01    1.866239e+00
  2.164256e+01    1.975363e+00
  2.165844e+01    2.145653e+00
  2.167431e+01    2.309824e+00
  2.169019e+01    2.514229e+00
  2.170607e+01    2.792746e+00
  2.172194e+01    3.065174e+00
  2.173782e+01    3.527539e+00
  2.175369e+01    4.013395e+00
  2.176957e+01    4.554421e+00
  2.178544e+01    5.223310e+00
  2.180132e+01    5.913182e+00
  2.181719e+01    6.482939e+00
  2.183307e+01    7.240320e+00
  2.184895e+01    7.888704e+00
  2.186482e+01    8.417540e+00
  2.188070e+01    8.808758e+00
  2.189657e+01    8.975000e+00
  2.191245e+01    8.840622e+00
  2.192832e+01    8.311337e+00
  2.194420e+01    7.466241e+00
  2.196007e+01    6.576076e+00
  2.197595e+01    5.702100e+00
  2.199183e+01    4.836226e+00
  2.200770e+01    4.162505e+00
  2.202358e+01    3.632599e+00
  2.203945e+01    3.176509e+00
  2.205533e+01    2.816725e+00
  2.207120e+01    2.579858e+00
  2.208708e+01    2.329594e+00
  2.210296e+01    2.141184e+00
  2.211883e+01    1.997921e+00
  2.213471e+01    1.861939e+00
  2.215058e+01    1.757828e+00
  2.216646e+01    1.691634e+00
  2.218233e+01    1.583997e+00
  2.219821e+01    1.551187e+00
  2.221408e+01    1.518145e+00
  2.222996e+01    1.476364e+00
  2.224584e+01    1.428285e+00
  2.226171e+01    1.384197e+00
  2.227759e+01    1.339845e+00
  2.229346e+01    1.322810e+00
  2.230934e+01    1.304547e+00
  2.232521e+01    1.287668e+00
  2.234109e+01    1.263607e+00
  2.235696e+01    1.234133e+00
  2.237284e+01    1.230122e+00
  2.238872e+01    1.228182e+00
  2.240459e+01    1.197802e+00
  2.242047e+01    1.191895e+00
  2.243634e+01    1.169494e+00
  2.245222e+01    1.147826e+00
  2.246809e+01    1.153203e+00
  2.248397e+01    1.163333e+00
  2.249984e+01    1.152809e+00
  2.251572e+01    1.149298e+00
  2.253160e+01    1.151866e+00
  2.254747e+01    1.127039e+00
  2.256335e+01    1.119401e+00
  2.257922e+01    1.103323e+00
  2.259510e+01    1.093703e+00
  2.261097e+01    1.072571e+00
  2.262685e+01    1.073402e+00
  2.264272e+01    1.065279e+00
  2.265860e+01    1.078327e+00
  2.267448e+01    1.112195e+00
  2.269035e+01    1.123472e+00
  2.270623e+01    1.098166e+00
  2.272210e+01    1.072951e+00
  2.273798e+01    1.071008e+00
  2.275385e+01    1.080620e+00
  2.276973e+01    1.060172e+00
  2.278560e+01    1.034625e+00
  2.280148e+01    1.051848e+00
  2.281736e+01    1.049785e+00
  2.283323e+01    1.037955e+00
  2.284911e+01    1.050243e+00
  2.286498e+01    1.035301e+00
  2.288086e+01    1.052173e+00
  2.289673e+01    1.054965e+00
  2.291261e+01    1.024553e+00
  2.292848e+01    1.026118e+00
  2.294436e+01    1.039191e+00
  2.296024e+01    1.021203e+00
  2.297611e+01    1.000522e+00
  2.299199e+01    9.952617e-01
  2.300786e+01    1.016133e+00
  2.302374e+01    1.017455e+00
  2.303961e+01    1.011444e+00
  2.305549e+01    1.045040e+00
  2.307137e+01    1.023589e+00
  2.308724e+01    1.031433e+00
  2.310312e+01    1.010746e+00
  2.311899e+01    1.004345e+00
  2.313487e+01    1.003216e+00
  2.315074e+01    9.926851e-01
  2.316662e+01    9.884098e-01
  2.318249e+01    9.997715e-01
  2.319837e+01    1.003442e+00
  2.321425e+01    9.936066e-01
  2.323012e+01    9.983148e-01
  2.324600e+01    9.984944e-01
  2.326187e+01    9.765593e-01
  2.327775e+01    9.771501e-01
  2.329362e+01    9.797242e-01
  2.330950e+01    9.786727e-01
  2.332537e+01    9.817221e-01
  2.334125e+01    1.002798e+00
  2.335713e+01    9.928560e-01
  2.337300e+01    9.741641e-01
  2.338888e+01    9.730523e-01
  2.340475e+01    9.833500e-01
  2.342063e+01    9.794709e-01
  2.343650e+01    9.626423e-01
  2.345238e+01    9.630142e-01
  2.346825e+01    9.688092e-01
  2.348413e+01    9.658477e-01
  2.350001e+01    9.669422e-01
  2.351588e+01    9.692837e-01
  2.353176e+01    9.588930e-01
  2.354763e+01    9.683621e-01
  2.356351e+01    9.681793e-01
  2.357938e+01    9.836872e-01
  2.359526e+01    9.704729e-01
  2.361113e+01    9.596446e-01
  2.362701e+01    9.631788e-01
  2.364289e+01    9.516200e-01
  2.365876e+01    9.486775e-01
  2.367464e+01    9.308075e-01
  2.369051e+01    9.241054e-01
  2.370639e+01    9.398231e-01
  2.372226e+01    9.419074e-01
  2.373814e+01    9.172119e-01
  2.375401e+01    9.265918e-01
  2.376989e+01    9.135862e-01
  2.378577e+01    9.283972e-01
  2.380164e+01    9.511656e-01
  2.381752e+01    9.495488e-01
  2.383339e+01    9.311591e-01
  2.384927e+01    9.209273e-01
  2.386514e+01    9.136572e-01
  2.388102e+01    9.075574e-01
  2.389689e+01    9.014622e-01
  2.391277e+01    9.016499e-01
  2.392865e+01    9.296675e-01
  2.394452e+01    9.057733e-01
  2.396040e+01    9.132461e-01
  2.397627e+01    9.062768e-01
  2.399215e+01    8.961680e-01
  2.400802e+01    9.003172e-01
  2.402390e+01    8.948630e-01
  2.403978e+01    9.000640e-01
  2.405565e+01    8.896883e-01
  2.407153e+01    8.955357e-01
  2.408740e+01    9.022793e-01
  2.410328e+01    8.920338e-01
  2.411915e+01    8.865916e-01
  2.413503e+01    8.831035e-01
  2.415090e+01    9.053932e-01
  2.416678e+01    8.902003e-01
  2.418266e+01    8.807552e-01
  2.419853e+01    8.741764e-01
  2.421441e+01    8.913977e-01
  2.423028e+01    8.882679e-01
  2.424616e+01    8.596021e-01
  2.426203e+01    8.698548e-01
  2.427791e+01    8.937426e-01
  2.429378e+01    8.932632e-01
  2.430966e+01    8.909263e-01
  2.432554e+01    9.018234e-01
  2.434141e+01    8.783948e-01
  2.435729e+01    8.906484e-01
  2.437316e+01    8.899122e-01
  2.438904e+01    8.873813e-01
  2.440491e+01    8.904696e-01
  2.442079e+01    8.684464e-01
  2.443666e+01    8.691674e-01
  2.445254e+01    8.782357e-01
  2.446842e+01    9.023211e-01
  2.448429e+01    8.916780e-01
  2.450017e+01    8.740889e-01
  2.451604e+01    9.071420e-01
  2.453192e+01    8.939731e-01
  2.454779e+01    8.744829e-01
  2.456367e+01    8.687163e-01
  2.457954e+01    8.818873e-01
  2.459542e+01    8.796552e-01
  2.461130e+01    8.921911e-01
  2.462717e+01    8.947459e-01
  2.464305e+01    9.037258e-01
  2.465892e+01    8.796430e-01
  2.467480e+01    8.792697e-01
  2.469067e+01    8.956540e-01
  2.470655e+01    9.102352e-01
  2.472242e+01    9.067193e-01
  2.473830e+01    8.872738e-01
  2.475418e+01    8.885377e-01
  2.477005e+01    8.933646e-01
  2.478593e+01    8.931731e-01
  2.480180e+01    9.102755e-01
  2.481768e+01    9.122280e-01
  2.483355e+01    8.802204e-01
  2.484943e+01    8.754116e-01
  2.486530e+01    8.901932e-01
  2.488118e+01    8.807195e-01
  2.489706e+01    8.715143e-01
  2.491293e+01    8.752231e-01
  2.492881e+01    8.631285e-01
  2.494468e+01    8.971431e-01
  2.496056e+01    8.840049e-01
  2.497643e+01    9.016127e-01
  2.499231e+01    9.085290e-01
  2.500819e+01    9.024727e-01
  2.502406e+01    8.897251e-01
  2.503994e+01    8.996863e-01
  2.505581e+01    8.835809e-01
  2.507169e+01    9.065695e-01
  2.508756e+01    9.089682e-01
  2.510344e+01    8.940113e-01
  2.511931e+01    8.928480e-01
  2.513519e+01    9.086404e-01
  2.515107e+01    9.123173e-01
  2.516694e+01    9.110140e-01
  2.518282e+01    8.999647e-01
  2.519869e+01    9.126123e-01
  2.521457e+01    9.265485e-01
  2.523044e+01    9.253451e-01
  2.524632e+01    9.469445e-01
  2.526219e+01    9.402449e-01
  2.527807e+01    9.285025e-01
  2.529395e+01    9.276151e-01
  2.530982e+01    9.489724e-01
  2.532570e+01    9.624644e-01
  2.534157e+01    9.704559e-01
  2.535745e+01    9.793252e-01
  2.537332e+01    9.945242e-01
  2.538920e+01    9.899109e-01
  2.540507e+01    9.691486e-01
  2.542095e+01    9.724356e-01
  2.543683e+01    9.859182e-01
  2.545270e+01    1.004742e+00
  2.546858e+01    1.023006e+00
  2.548445e+01    1.041200e+00
  2.550033e+01    1.058979e+00
  2.551620e+01    1.070823e+00
  2.553208e+01    1.095370e+00
  2.554795e+01    1.131859e+00
  2.556383e+01    1.164504e+00
  2.557971e+01    1.166818e+00
  2.559558e+01    1.186991e+00
  2.561146e+01    1.243299e+00
  2.562733e+01    1.255281e+00
  2.564321e+01    1.282791e+00
  2.565908e+01    1.363045e+00
  2.567496e+01    1.413537e+00
  2.569083e+01    1.519484e+00
  2.570671e+01    1.609622e+00
  2.572259e+01    1.726794e+00
  2.573846e+01    1.874808e+00
  2.575434e+01    2.015954e+00
  2.577021e+01    2.222130e+00
  2.578609e+01    2.474990e+00
  2.580196e+01    2.793018e+00
  2.581784e+01    3.191159e+00
  2.583371e+01    3.614903e+00
  2.584959e+01    4.137789e+00
  2.586547e+01    4.674738e+00
  2.588134e+01    5.247163e+00
  2.589722e+01    5.826039e+00
  2.591309e+01    6.333254e+00
  2.592897e+01    6.791656e+00
  2.594484e+01    7.157535e+00
  2.596072e+01    7.180734e+00
  2.597660e+01    6.970438e+00
  2.599247e+01    6.609379e+00
  2.600835e+01    5.985330e+00
  2.602422e+01    5.302058e+00
  2.604010e+01    4.612123e+00
  2.605597e+01    4.019083e+00
  2.607185e+01    3.456125e+00
  2.608772e+01    3.026611e+00
  2.610360e+01    2.640667e+00
  2.611948e+01    2.355230e+00
  2.613535e+01    2.117963e+00
  2.615123e+01    1.936134e+00
  2.616710e+01    1.791770e+00
  2.618298e+01    1.647337e+00
  2.619885e+01    1.556558e+00
  2.621473e+01    1.499302e+00
  2.623060e+01    1.419093e+00
  2.624648e+01    1.335780e+00
  2.626236e+01    1.304918e+00
  2.627823e+01    1.278425e+00
  2.629411e+01    1.202913e+00
  2.630998e+01    1.194682e+00
  2.632586e+01    1.132670e+00
  2.634173e+01    1.115213e+00
  2.635761e+01    1.107288e+00
  2.637348e+01    1.074953e+00
  2.638936e+01    1.061242e+00
  2.640524e+01    1.051223e+00
  2.642111e+01    1.037880e+00
  2.643699e+01    1.049598e+00
  2.645286e+01    1.045578e+00
  2.646874e+01    1.033936e+00
  2.648461e+01    9.994761e-01
  2.650049e+01    9.974473e-01
  2.651636e+01    9.955907e-01
  2.653224e+01    9.949185e-01
  2.654812e+01    9.819338e-01
  2.656399e+01    1.013786e+00
  2.657987e+01    9.922220e-01
  2.659574e+01    9.971302e-01
  2.661162e+01    9.895481e-01
  2.662749e+01    9.924964e-01
  2.664337e+01    9.768519e-01
  2.665924e+01    9.652672e-01
  2.667512e+01    9.699718e-01
  2.669100e+01    9.735395e-01
  2.670687e+01    9.720027e-01
  2.672275e+01    9.392691e-01
  2.673862e+01    9.351077e-01
  2.675450e+01    9.596536e-01
  2.677037e+01    9.801611e-01
  2.678625e+01    9.811285e-01
  2.680212e+01    9.834997e-01
  2.681800e+01    9.835334e-01
  2.683388e+01    9.764021e-01
  2.684975e+01    9.943177e-01
  2.686563e+01    9.852073e-01
  2.688150e+01    9.990180e-01
  2.689738e+01    1.016284e+00
  2.691325e+01    1.013329e+00
  2.692913e+01    1.011557e+00
  2.694501e+01    1.035706e+00
  2.696088e+01    1.043544e+00
  2.697676e+01    1.037705e+00
  2.699263e+01    1.066245e+00
  2.700851e+01    1.114022e+00
  2.702438e+01    1.151577e+00
  2.704026e+01    1.201233e+00
  2.705613e+01    1.255278e+00
  2.707201e+01    1.314292e+00
  2.708789e+01    1.407428e+00
  2.710376e+01    1.506464e+00
  2.711964e+01    1.608635e+00
  2.713551e+01    1.716054e+00
  2.715139e+01    1.868731e+00
  2.716726e+01    2.018173e+00
  2.718314e+01    2.074145e+00
  2.719901e+01    2.172070e+00
  2.721489e+01    2.212365e+00
  2.723077e+01    2.158861e+00
  2.724664e+01    2.088221e+00
  2.726252e+01    1.990233e+00
  2.727839e+01    1.823494e+00
  2.729427e+01    1.697370e+00
  2.731014e+01    1.581377e+00
  2.732602e+01    1.462388e+00
  2.734189e+01    1.329751e+00
  2.735777e+01    1.295199e+00
  2.737365e+01    1.202692e+00
  2.738952e+01    1.175900e+00
  2.740540e+01    1.138768e+00
  2.742127e+01    1.087062e+00
  2.743715e+01    1.066919e+00
  2.745302e+01    1.053412e+00
  2.746890e+01    1.024829e+00
  2.748477e+01    1.019700e+00
  2.750065e+01    9.627718e-01
  2.751653e+01    9.790810e-01
  2.753240e+01    9.772731e-01
  2.754828e+01    9.641956e-01
  2.756415e+01    9.496348e-01
  2.758003e+01    9.399199e-01
  2.759590e+01    9.444411e-01
  2.761178e+01    9.315683e-01
  2.762765e+01    9.215775e-01
  2.764353e+01    9.151344e-01
  2.765941e+01    9.294236e-01
  2.767528e+01    9.175670e-01
  2.769116e+01    9.142044e-01
  2.770703e+01    9.162292e-01
  2.772291e+01    9.068310e-01
  2.773878e+01    9.058271e-01
  2.775466e+01    8.971466e-01
  2.777054e+01    9.043918e-01
  2.778641e+01    8.831676e-01
  2.780229e+01    8.881180e-01
  2.781816e+01    8.871843e-01
  2.783404e+01    8.682452e-01
  2.784991e+01    8.664560e-01
  2.786579e+01    8.673139e-01
  2.788166e+01    8.558635e-01
  2.789754e+01    8.863508e-01
  2.791342e+01    8.742345e-01
  2.792929e+01    8.596324e-01
  2.794517e+01    8.646701e-01
  2.796104e+01    8.813559e-01
  2.797692e+01    8.656944e-01
  2.799279e+01    8.694170e-01
  2.800867e+01    8.690547e-01
  2.802454e+01    8.723052e-01
  2.804042e+01    8.480458e-01
  2.805630e+01    8.755238e-01
  2.807217e+01    8.681577e-01
  2.808805e+01    8.514727e-01
  2.810392e+01    8.772950e-01
  2.811980e+01    8.722041e-01
  2.813567e+01    8.414437e-01
  2.815155e+01    8.462544e-01
  2.816742e+01    8.643841e-01
  2.818330e+01    8.801902e-01
  2.819918e+01    8.742375e-01
  2.821505e+01    8.458716e-01
  2.823093e+01    8.393595e-01
  2.824680e+01    8.561013e-01
  2.826268e+01    8.465671e-01
  2.827855e+01    8.576915e-01
  2.829443e+01    8.691495e-01
  2.831030e+01    8.667518e-01
  2.832618e+01    8.600469e-01
  2.834206e+01    8.477382e-01
  2.835793e+01    8.593450e-01
  2.837381e+01    8.570293e-01
  2.838968e+01    8.299444e-01
  2.840556e+01    8.556132e-01
  2.842143e+01    8.385470e-01
  2.843731e+01    8.362791e-01
  2.845318e+01    8.615349e-01
  2.846906e+01    8.509822e-01
  2.848494e+01    8.426489e-01
  2.850081e+01    8.505360e-01
  2.851669e+01    8.388923e-01
  2.853256e+01    8.214282e-01
  2.854844e+01    8.338923e-01
  2.856431e+01    8.360639e-01
  2.858019e+01    8.533475e-01
  2.859606e+01    8.553973e-01
  2.861194e+01    8.282647e-01
  2.862782e+01    8.310906e-01
  2.864369e+01    8.273845e-01
  2.865957e+01    8.448777e-01
  2.867544e+01    8.301932e-01
  2.869132e+01    8.308759e-01
  2.870719e+01    8.289205e-01
  2.872307e+01    8.144443e-01
  2.873895e+01    8.351785e-01
  2.875482e+01    8.204618e-01
  2.877070e+01    8.281605e-01
  2.878657e+01    8.433092e-01
  2.880245e+01    8.130107e-01
  2.881832e+01    7.990494e-01
  2.883420e+01    8.207704e-01
  2.885007e+01    8.121185e-01
  2.886595e+01    8.403831e-01
  2.888183e+01    8.460587e-01
  2.889770e+01    8.365579e-01
  2.891358e+01    8.056903e-01
  2.892945e+01    7.939054e-01
  2.894533e+01    8.269511e-01
  2.896120e+01    8.162694e-01
  2.897708e+01    8.255486e-01
  2.899295e+01    8.315440e-01
  2.900883e+01    8.325366e-01
  2.902471e+01    8.026975e-01
  2.904058e+01    8.128703e-01
  2.905646e+01    8.189783e-01
  2.907233e+01    8.082038e-01
  2.908821e+01    7.938631e-01
  2.910408e+01    8.030471e-01
  2.911996e+01    8.100268e-01
  2.913583e+01    8.153231e-01
  2.915171e+01    8.200065e-01
  2.916759e+01    8.011307e-01
  2.918346e+01    8.122683e-01
  2.919934e+01    8.090364e-01
  2.921521e+01    7.995876e-01
  2.923109e+01    8.015481e-01
  2.924696e+01    8.296893e-01
  2.926284e+01    8.451992e-01
  2.927871e+01    8.323058e-01
  2.929459e+01    8.015926e-01
  2.931047e+01    8.085178e-01
  2.932634e+01    7.995911e-01
  2.934222e+01    8.057346e-01
  2.935809e+01    8.180541e-01
  2.937397e+01    8.208288e-01
  2.938984e+01    8.283221e-01
  2.940572e+01    8.336149e-01
  2.942159e+01    7.961906e-01
  2.943747e+01    8.059721e-01
  2.945335e+01    7.772328e-01
  2.946922e+01    7.986564e-01
  2.948510e+01    8.130498e-01
  2.950097e+01    8.144787e-01
  2.951685e+01    8.115774e-01
  2.953272e+01    7.946523e-01
  2.954860e+01    7.814738e-01
  2.956447e+01    8.002731e-01
  2.958035e+01    7.952927e-01
  2.959623e+01    8.057846e-01
  2.961210e+01    7.916836e-01
  2.962798e+01    7.776219e-01
  2.964385e+01    7.899378e-01
  2.965973e+01    7.685550e-01
  2.967560e+01    7.865965e-01
  2.969148e+01    8.045280e-01
  2.970736e+01    8.040547e-01
  2.972323e+01    7.958704e-01
  2.973911e+01    8.071458e-01
  2.975498e+01    7.784972e-01
  2.977086e+01    7.849509e-01
  2.978673e+01    8.016499e-01
  2.980261e+01    7.879214e-01
  2.981848e+01    8.009800e-01
  2.983436e+01    7.949415e-01
  2.985024e+01    7.819648e-01
  2.986611e+01    7.631127e-01
  2.988199e+01    7.833840e-01
  2.989786e+01    7.994965e-01
  2.991374e+01    7.830126e-01
  2.992961e+01    7.714463e-01
  2.994549e+01    7.980710e-01
  2.996136e+01    7.929432e-01
  2.997724e+01    7.949659e-01
  2.999312e+01    7.920626e-01
  3.000899e+01    7.992005e-01
  3.002487e+01    8.126361e-01
  3.004074e+01    8.146321e-01
  3.005662e+01    8.271850e-01
  3.007249e+01    8.231245e-01
  3.008837e+01    8.035921e-01
  3.010424e+01    7.885759e-01
  3.012012e+01    7.967613e-01
  3.013600e+01    8.170381e-01
  3.015187e+01    8.267327e-01
  3.016775e+01    7.888138e-01
  3.018362e+01    7.801991e-01
  3.019950e+01    7.762925e-01
  3.021537e+01    7.698883e-01
  3.023125e+01    7.802954e-01
  3.024712e+01    7.734677e-01
  3.026300e+01    7.846967e-01
  3.027888e+01    7.935625e-01
  3.029475e+01    7.919011e-01
  3.031063e+01    7.820783e-01
  3.032650e+01    7.625448e-01
  3.034238e+01    7.785708e-01
  3.035825e+01    7.878171e-01
  3.037413e+01    7.660437e-01
  3.039000e+01    7.761235e-01
  3.040588e+01    7.691759e-01
  3.042176e+01    7.850225e-01
  3.043763e+01    7.878272e-01
  3.045351e+01    7.852654e-01
  3.046938e+01    7.905787e-01
  3.048526e+01    7.978734e-01
  3.050113e+01    7.826430e-01
  3.051701e+01    7.958681e-01
  3.053288e+01    7.882652e-01
  3.054876e+01    7.726201e-01
  3.056464e+01    7.817214e-01
  3.058051e+01    8.017741e-01
  3.059639e+01    7.847858e-01
  3.061226e+01    7.889789e-01
  3.062814e+01    7.933366e-01
  3.064401e+01    8.057354e-01
  3.065989e+01    7.911961e-01
  3.067577e+01    7.771360e-01
  3.069164e+01    7.900403e-01
  3.070752e+01    7.919166e-01
  3.072339e+01    7.974458e-01
  3.073927e+01    7.853391e-01
  3.075514e+01    7.871706e-01
  3.077102e+01    7.860552e-01
  3.078689e+01    8.031667e-01
  3.080277e+01    7.937337e-01
  3.081865e+01    7.911398e-01
  3.083452e+01    7.952935e-01
  3.085040e+01    8.014222e-01
  3.086627e+01    7.853473e-01
  3.088215e+01    7.825924e-01
  3.089802e+01    7.818032e-01
  3.091390e+01    8.071973e-01
  3.092977e+01    7.859200e-01
  3.094565e+01    7.901445e-01
  3.096153e+01    7.975666e-01
  3.097740e+01    7.898088e-01
  3.099328e+01    7.907684e-01
  3.100915e+01    7.869000e-01
  3.102503e+01    7.533883e-01
  3.104090e+01    7.769640e-01
  3.105678e+01    7.728495e-01
  3.107265e+01    7.959677e-01
  3.108853e+01    7.768009e-01
  3.110441e+01    7.918981e-01
  3.112028e+01    7.963796e-01
  3.113616e+01    8.005522e-01
  3.115203e+01    7.884052e-01
  3.116791e+01    7.678819e-01
  3.118378e+01    7.671354e-01
  3.119966e+01    8.124982e-01
  3.121553e+01    7.943438e-01
  3.123141e+01    7.930067e-01
  3.124729e+01    7.936223e-01
  3.126316e+01    7.999474e-01
  3.127904e+01    8.088336e-01
  3.129491e+01    7.846709e-01
  3.131079e+01    7.951504e-01
  3.132666e+01    8.070630e-01
  3.134254e+01    8.146541e-01
  3.135841e+01    7.992834e-01
  3.137429e+01    8.122108e-01
  3.139017e+01    8.141420e-01
  3.140604e+01    8.123448e-01
  3.142192e+01    8.115306e-01
  3.143779e+01    8.021887e-01
  3.145367e+01    7.961423e-01
  3.146954e+01    8.136550e-01
  3.148542e+01    7.935003e-01
  3.150129e+01    8.264629e-01
  3.151717e+01    8.537223e-01
  3.153305e+01    8.523019e-01
  3.154892e+01    8.390165e-01
  3.156480e+01    8.583686e-01
  3.158067e+01    8.636422e-01
  3.159655e+01    8.701524e-01
  3.161242e+01    8.687370e-01
  3.162830e+01    8.760616e-01
  3.164418e+01    9.144286e-01
  3.166005e+01    9.240876e-01
  3.167593e+01    9.622584e-01
  3.169180e+01    9.959841e-01
  3.170768e+01    1.019867e+00
  3.172355e+01    1.055205e+00
  3.173943e+01    1.103383e+00
  3.175530e+01    1.159298e+00
  3.177118e+01    1.236701e+00
  3.178706e+01    1.370562e+00
  3.180293e+01    1.439270e+00
  3.181881e+01    1.577370e+00
  3.183468e+01    1.709924e+00
  3.185056e+01    1.829396e+00
  3.186643e+01    1.936210e+00
  3.188231e+01    2.058006e+00
  3.189818e+01    2.107097e+00
  3.191406e+01    2.109206e+00
  3.192994e+01    2.033979e+00
  3.194581e+01    1.970920e+00
  3.196169e+01    1.852971e+00
  3.197756e+01    1.696462e+00
  3.199344e+01    1.574114e+00
  3.200931e+01    1.462237e+00
  3.202519e+01    1.330126e+00
  3.204106e+01    1.238026e+00
  3.205694e+01    1.181617e+00
  3.207282e+01    1.102031e+00
  3.208869e+01    1.051939e+00
  3.210457e+01    1.001230e+00
  3.212044e+01    9.687709e-01
  3.213632e+01    9.188056e-01
  3.215219e+01    8.968906e-01
  3.216807e+01    8.768644e-01
  3.218394e+01    8.848656e-01
  3.219982e+01    8.828043e-01
  3.221570e+01    8.593031e-01
  3.223157e+01    8.312728e-01
  3.224745e+01    8.249198e-01
  3.226332e+01    8.338789e-01
  3.227920e+01    8.233066e-01
  3.229507e+01    8.539424e-01
  3.231095e+01    8.261146e-01
  3.232682e+01    8.020662e-01
  3.234270e+01    7.842773e-01
  3.235858e+01    7.971181e-01
  3.237445e+01    8.278946e-01
  3.239033e+01    8.117660e-01
  3.240620e+01    7.815833e-01
  3.242208e+01    7.867019e-01
  3.243795e+01    8.061519e-01
  3.245383e+01    7.954057e-01
  3.246970e+01    7.985263e-01
  3.248558e+01    7.841389e-01
  3.250146e+01    7.685466e-01
  3.251733e+01    7.772585e-01
  3.253321e+01    7.692713e-01
  3.254908e+01    7.673893e-01
