# == pyFAI calibration ==
# Distance Sample to Detector: 0.3999999939076516 m
# PONI: 9.750e-02, 1.135e-01 m
# Rotations: -0.000175 0.000000 -0.000000 rad
# 
# == Fit2d calibration ==
# Distance Sample-beamCenter: 400.000 mm
# Center: x=1514.000, y=1300.000 pix
# Tilt: 0.010 deg  TiltPlanRot: 0.010 deg
# 
# Detector Detector	 Spline= None	 PixelSize= 7.500e-05, 7.500e-05 m
#    Detector has a mask: False 
#    Detector has a dark current: False 
#    detector has a flat field: False 
# 
# Wavelength: 6.888e-11 m
# Mask applied: user provided
# Dark current applied: False
# Flat field applied: False
# Polarization factor: 0.99
# Normalization factor: 1.0
# --> /home/myspot/data/2024_07_Rosario/Ru-CGO-ex/2024-07-27_003_Ru-CGO-ex_Reaction_dwell_000023_data_000093.dat
#       q_nm^-1             I 
  2.003187e-02    7.711996e-02
  3.590745e-02    9.849580e-02
  5.178302e-02    1.157592e-01
  6.765859e-02    9.940475e-02
  8.353417e-02    2.039787e-01
  9.940974e-02    1.215587e-01
  1.152853e-01    1.028266e-01
  1.311609e-01    5.793523e-02
  1.470365e-01    2.545125e-02
  1.629120e-01    0.000000e+00
  1.787876e-01    0.000000e+00
  1.946632e-01    3.825308e-02
  2.105388e-01    5.802346e-02
  2.264143e-01    5.163556e-02
  2.422899e-01    1.889470e-02
  2.581655e-01    1.465419e-02
  2.740411e-01    1.382613e-02
  2.899166e-01    3.049295e-02
  3.057922e-01    8.837247e-02
  3.216678e-01    7.277196e-02
  3.375433e-01    2.894203e-02
  3.534189e-01    5.212910e-02
  3.692945e-01    2.289954e-02
  3.851701e-01    4.432273e-02
  4.010456e-01    2.944169e-02
  4.169212e-01    3.595338e-02
  4.327968e-01    6.885438e-02
  4.486724e-01    7.786976e-02
  4.645479e-01    5.402063e-02
  4.804235e-01    5.697696e-02
  4.962991e-01    7.612873e-02
  5.121747e-01    5.093098e-02
  5.280502e-01    2.869974e-02
  5.439258e-01    3.997734e-02
  5.598014e-01    4.972783e-02
  5.756770e-01    4.982013e-02
  5.915525e-01    4.938235e-02
  6.074281e-01    6.522427e-02
  6.233037e-01    3.259259e-02
  6.391793e-01    4.444908e-02
  6.550548e-01    3.139285e-02
  6.709304e-01    4.591810e-02
  6.868060e-01    5.942941e-02
  7.026815e-01    5.644156e-02
  7.185571e-01    4.279272e-02
  7.344327e-01    4.854044e-02
  7.503083e-01    4.881113e-02
  7.661838e-01    7.345520e-02
  7.820594e-01    1.727710e-01
  7.979350e-01    1.529618e-01
  8.138106e-01    1.971407e-01
  8.296861e-01    3.071828e-01
  8.455617e-01    4.161201e-01
  8.614373e-01    4.021147e-01
  8.773129e-01    5.334257e-01
  8.931884e-01    5.686014e-01
  9.090640e-01    5.919526e-01
  9.249396e-01    7.468944e-01
  9.408152e-01    7.763484e-01
  9.566907e-01    9.765661e-01
  9.725663e-01    1.042850e+00
  9.884419e-01    1.113387e+00
  1.004317e+00    1.148912e+00
  1.020193e+00    1.142861e+00
  1.036069e+00    1.277537e+00
  1.051944e+00    1.414841e+00
  1.067820e+00    1.548373e+00
  1.083695e+00    1.617248e+00
  1.099571e+00    1.625816e+00
  1.115446e+00    1.492509e+00
  1.131322e+00    1.565275e+00
  1.147198e+00    1.527328e+00
  1.163073e+00    1.558141e+00
  1.178949e+00    1.678745e+00
  1.194824e+00    1.877075e+00
  1.210700e+00    2.087367e+00
  1.226575e+00    2.217785e+00
  1.242451e+00    2.352168e+00
  1.258327e+00    2.438031e+00
  1.274202e+00    2.376919e+00
  1.290078e+00    2.427618e+00
  1.305953e+00    2.488604e+00
  1.321829e+00    2.526718e+00
  1.337705e+00    2.578487e+00
  1.353580e+00    2.718916e+00
  1.369456e+00    2.803073e+00
  1.385331e+00    2.804822e+00
  1.401207e+00    2.840134e+00
  1.417082e+00    2.934267e+00
  1.432958e+00    2.939682e+00
  1.448834e+00    3.076229e+00
  1.464709e+00    2.966788e+00
  1.480585e+00    2.997072e+00
  1.496460e+00    3.113209e+00
  1.512336e+00    3.113375e+00
  1.528211e+00    3.294907e+00
  1.544087e+00    3.159265e+00
  1.559963e+00    3.091936e+00
  1.575838e+00    3.226843e+00
  1.591714e+00    3.216597e+00
  1.607589e+00    3.060381e+00
  1.623465e+00    3.140321e+00
  1.639340e+00    3.037996e+00
  1.655216e+00    3.091094e+00
  1.671092e+00    3.059294e+00
  1.686967e+00    3.013872e+00
  1.702843e+00    3.023458e+00
  1.718718e+00    3.039996e+00
  1.734594e+00    3.068321e+00
  1.750469e+00    3.051493e+00
  1.766345e+00    3.056269e+00
  1.782221e+00    3.080022e+00
  1.798096e+00    3.086628e+00
  1.813972e+00    3.171898e+00
  1.829847e+00    3.175883e+00
  1.845723e+00    3.116234e+00
  1.861598e+00    2.990954e+00
  1.877474e+00    3.064588e+00
  1.893350e+00    3.051767e+00
  1.909225e+00    3.089791e+00
  1.925101e+00    3.132397e+00
  1.940976e+00    3.080184e+00
  1.956852e+00    3.092391e+00
  1.972727e+00    2.981048e+00
  1.988603e+00    3.028589e+00
  2.004479e+00    3.064784e+00
  2.020354e+00    3.048138e+00
  2.036230e+00    3.055605e+00
  2.052105e+00    3.089498e+00
  2.067981e+00    3.145476e+00
  2.083856e+00    3.175685e+00
  2.099732e+00    3.171502e+00
  2.115608e+00    3.057642e+00
  2.131483e+00    3.056422e+00
  2.147359e+00    3.103638e+00
  2.163234e+00    3.121494e+00
  2.179110e+00    3.174959e+00
  2.194985e+00    3.107220e+00
  2.210861e+00    3.150727e+00
  2.226737e+00    3.099639e+00
  2.242612e+00    3.099246e+00
  2.258488e+00    3.001870e+00
  2.274363e+00    3.077760e+00
  2.290239e+00    3.045654e+00
  2.306115e+00    3.134923e+00
  2.321990e+00    3.214853e+00
  2.337866e+00    3.167857e+00
  2.353741e+00    3.087342e+00
  2.369617e+00    3.081845e+00
  2.385492e+00    3.060785e+00
  2.401368e+00    3.218224e+00
  2.417244e+00    3.204539e+00
  2.433119e+00    3.183984e+00
  2.448995e+00    3.207705e+00
  2.464870e+00    3.140336e+00
  2.480746e+00    3.290436e+00
  2.496621e+00    3.188061e+00
  2.512497e+00    3.214157e+00
  2.528373e+00    3.204967e+00
  2.544248e+00    3.270664e+00
  2.560124e+00    3.220158e+00
  2.575999e+00    3.212524e+00
  2.591875e+00    3.255832e+00
  2.607750e+00    3.256646e+00
  2.623626e+00    3.172021e+00
  2.639502e+00    3.179312e+00
  2.655377e+00    3.366918e+00
  2.671253e+00    3.347889e+00
  2.687128e+00    3.212086e+00
  2.703004e+00    3.204516e+00
  2.718879e+00    3.187932e+00
  2.734755e+00    3.179449e+00
  2.750631e+00    3.193170e+00
  2.766506e+00    3.224430e+00
  2.782382e+00    3.196736e+00
  2.798257e+00    3.231025e+00
  2.814133e+00    3.259618e+00
  2.830008e+00    3.209625e+00
  2.845884e+00    3.217477e+00
  2.861760e+00    3.244510e+00
  2.877635e+00    3.261151e+00
  2.893511e+00    3.302986e+00
  2.909386e+00    3.301562e+00
  2.925262e+00    3.385145e+00
  2.941137e+00    3.356643e+00
  2.957013e+00    3.326726e+00
  2.972889e+00    3.249431e+00
  2.988764e+00    3.323173e+00
  3.004640e+00    3.287067e+00
  3.020515e+00    3.303285e+00
  3.036391e+00    3.283206e+00
  3.052266e+00    3.304335e+00
  3.068142e+00    3.238951e+00
  3.084018e+00    3.360888e+00
  3.099893e+00    3.421056e+00
  3.115769e+00    3.354738e+00
  3.131644e+00    3.334393e+00
  3.147520e+00    3.300100e+00
  3.163395e+00    3.386034e+00
  3.179271e+00    3.410057e+00
  3.195147e+00    3.441972e+00
  3.211022e+00    3.478612e+00
  3.226898e+00    3.400680e+00
  3.242773e+00    3.446415e+00
  3.258649e+00    3.376484e+00
  3.274525e+00    3.373415e+00
  3.290400e+00    3.434862e+00
  3.306276e+00    3.434957e+00
  3.322151e+00    3.284313e+00
  3.338027e+00    3.351714e+00
  3.353902e+00    3.436167e+00
  3.369778e+00    3.382523e+00
  3.385654e+00    3.312389e+00
  3.401529e+00    3.370935e+00
  3.417405e+00    3.440542e+00
  3.433280e+00    3.416408e+00
  3.449156e+00    3.359076e+00
  3.465031e+00    3.462779e+00
  3.480907e+00    3.506747e+00
  3.496783e+00    3.494249e+00
  3.512658e+00    3.488454e+00
  3.528534e+00    3.418918e+00
  3.544409e+00    3.415881e+00
  3.560285e+00    3.520531e+00
  3.576160e+00    3.548924e+00
  3.592036e+00    3.491222e+00
  3.607912e+00    3.535688e+00
  3.623787e+00    3.507879e+00
  3.639663e+00    3.461762e+00
  3.655538e+00    3.512460e+00
  3.671414e+00    3.485216e+00
  3.687289e+00    3.493590e+00
  3.703165e+00    3.495113e+00
  3.719041e+00    3.581562e+00
  3.734916e+00    3.616528e+00
  3.750792e+00    3.471157e+00
  3.766667e+00    3.481224e+00
  3.782543e+00    3.592485e+00
  3.798418e+00    3.535471e+00
  3.814294e+00    3.550113e+00
  3.830170e+00    3.542436e+00
  3.846045e+00    3.505402e+00
  3.861921e+00    3.511907e+00
  3.877796e+00    3.590427e+00
  3.893672e+00    3.558893e+00
  3.909547e+00    3.529948e+00
  3.925423e+00    3.514025e+00
  3.941299e+00    3.431077e+00
  3.957174e+00    3.465850e+00
  3.973050e+00    3.499286e+00
  3.988925e+00    3.520442e+00
  4.004801e+00    3.500413e+00
  4.020676e+00    3.519136e+00
  4.036552e+00    3.642454e+00
  4.052428e+00    3.683947e+00
  4.068303e+00    3.525146e+00
  4.084179e+00    3.458246e+00
  4.100054e+00    3.599054e+00
  4.115930e+00    3.556329e+00
  4.131806e+00    3.482456e+00
  4.147681e+00    3.579491e+00
  4.163557e+00    3.603367e+00
  4.179432e+00    3.545749e+00
  4.195308e+00    3.599633e+00
  4.211183e+00    3.561884e+00
  4.227059e+00    3.495747e+00
  4.242935e+00    3.566736e+00
  4.258810e+00    3.575864e+00
  4.274686e+00    3.565397e+00
  4.290561e+00    3.466906e+00
  4.306437e+00    3.538549e+00
  4.322312e+00    3.533041e+00
  4.338188e+00    3.563820e+00
  4.354064e+00    3.549614e+00
  4.369939e+00    3.559445e+00
  4.385815e+00    3.610416e+00
  4.401690e+00    3.600737e+00
  4.417566e+00    3.667971e+00
  4.433441e+00    3.586062e+00
  4.449317e+00    3.594987e+00
  4.465193e+00    3.543722e+00
  4.481068e+00    3.556237e+00
  4.496944e+00    3.553101e+00
  4.512819e+00    3.615408e+00
  4.528695e+00    3.606423e+00
  4.544570e+00    3.604364e+00
  4.560446e+00    3.626918e+00
  4.576322e+00    3.586349e+00
  4.592197e+00    3.531813e+00
  4.608073e+00    3.595069e+00
  4.623948e+00    3.615754e+00
  4.639824e+00    3.585010e+00
  4.655699e+00    3.648573e+00
  4.671575e+00    3.721638e+00
  4.687451e+00    3.633642e+00
  4.703326e+00    3.577289e+00
  4.719202e+00    3.683716e+00
  4.735077e+00    3.733876e+00
  4.750953e+00    3.683408e+00
  4.766828e+00    3.662266e+00
  4.782704e+00    3.568051e+00
  4.798580e+00    3.588612e+00
  4.814455e+00    3.692441e+00
  4.830331e+00    3.668612e+00
  4.846206e+00    3.635651e+00
  4.862082e+00    3.644620e+00
  4.877957e+00    3.704260e+00
  4.893833e+00    3.718483e+00
  4.909709e+00    3.636688e+00
  4.925584e+00    3.615116e+00
  4.941460e+00    3.593544e+00
  4.957335e+00    3.627207e+00
  4.973211e+00    3.651209e+00
  4.989086e+00    3.645755e+00
  5.004962e+00    3.605282e+00
  5.020838e+00    3.585639e+00
  5.036713e+00    3.687662e+00
  5.052589e+00    3.649686e+00
  5.068464e+00    3.606657e+00
  5.084340e+00    3.660763e+00
  5.100216e+00    3.717212e+00
  5.116091e+00    3.670931e+00
  5.131967e+00    3.641536e+00
  5.147842e+00    3.577649e+00
  5.163718e+00    3.611990e+00
  5.179593e+00    3.672988e+00
  5.195469e+00    3.672117e+00
  5.211345e+00    3.645294e+00
  5.227220e+00    3.660347e+00
  5.243096e+00    3.601689e+00
  5.258971e+00    3.631406e+00
  5.274847e+00    3.677006e+00
  5.290722e+00    3.585079e+00
  5.306598e+00    3.692831e+00
  5.322474e+00    3.722095e+00
  5.338349e+00    3.713171e+00
  5.354225e+00    3.680081e+00
  5.370100e+00    3.678034e+00
  5.385976e+00    3.666547e+00
  5.401851e+00    3.653264e+00
  5.417727e+00    3.654699e+00
  5.433603e+00    3.605131e+00
  5.449478e+00    3.555658e+00
  5.465354e+00    3.583081e+00
  5.481229e+00    3.470448e+00
  5.497105e+00    3.501633e+00
  5.512980e+00    3.554949e+00
  5.528856e+00    3.621177e+00
  5.544732e+00    3.614955e+00
  5.560607e+00    3.531509e+00
  5.576483e+00    3.529170e+00
  5.592358e+00    3.567850e+00
  5.608234e+00    3.638013e+00
  5.624109e+00    3.577593e+00
  5.639985e+00    3.651583e+00
  5.655861e+00    3.629662e+00
  5.671736e+00    3.608193e+00
  5.687612e+00    3.632382e+00
  5.703487e+00    3.576483e+00
  5.719363e+00    3.508383e+00
  5.735238e+00    3.562643e+00
  5.751114e+00    3.606844e+00
  5.766990e+00    3.616780e+00
  5.782865e+00    3.623136e+00
  5.798741e+00    3.526573e+00
  5.814616e+00    3.590714e+00
  5.830492e+00    3.560978e+00
  5.846367e+00    3.522161e+00
  5.862243e+00    3.566953e+00
  5.878119e+00    3.591788e+00
  5.893994e+00    3.532259e+00
  5.909870e+00    3.486159e+00
  5.925745e+00    3.462005e+00
  5.941621e+00    3.566558e+00
  5.957497e+00    3.571891e+00
  5.973372e+00    3.551900e+00
  5.989248e+00    3.555269e+00
  6.005123e+00    3.577673e+00
  6.020999e+00    3.600412e+00
  6.036874e+00    3.672348e+00
  6.052750e+00    3.558788e+00
  6.068626e+00    3.532347e+00
  6.084501e+00    3.486372e+00
  6.100377e+00    3.555283e+00
  6.116252e+00    3.602144e+00
  6.132128e+00    3.588431e+00
  6.148003e+00    3.572767e+00
  6.163879e+00    3.623120e+00
  6.179755e+00    3.538344e+00
  6.195630e+00    3.574821e+00
  6.211506e+00    3.575419e+00
  6.227381e+00    3.594386e+00
  6.243257e+00    3.536280e+00
  6.259132e+00    3.499027e+00
  6.275008e+00    3.445719e+00
  6.290884e+00    3.534894e+00
  6.306759e+00    3.559626e+00
  6.322635e+00    3.583814e+00
  6.338510e+00    3.630967e+00
  6.354386e+00    3.597158e+00
  6.370261e+00    3.579749e+00
  6.386137e+00    3.563844e+00
  6.402013e+00    3.564472e+00
  6.417888e+00    3.582013e+00
  6.433764e+00    3.550881e+00
  6.449639e+00    3.557373e+00
  6.465515e+00    3.584086e+00
  6.481390e+00    3.587635e+00
  6.497266e+00    3.599172e+00
  6.513142e+00    3.623581e+00
  6.529017e+00    3.554563e+00
  6.544893e+00    3.501833e+00
  6.560768e+00    3.537638e+00
  6.576644e+00    3.550040e+00
  6.592519e+00    3.527340e+00
  6.608395e+00    3.553651e+00
  6.624271e+00    3.552376e+00
  6.640146e+00    3.554372e+00
  6.656022e+00    3.615847e+00
  6.671897e+00    3.601535e+00
  6.687773e+00    3.576452e+00
  6.703648e+00    3.560280e+00
  6.719524e+00    3.523602e+00
  6.735400e+00    3.578361e+00
  6.751275e+00    3.636693e+00
  6.767151e+00    3.544011e+00
  6.783026e+00    3.534724e+00
  6.798902e+00    3.574060e+00
  6.814777e+00    3.660316e+00
  6.830653e+00    3.600117e+00
  6.846529e+00    3.536667e+00
  6.862404e+00    3.584795e+00
  6.878280e+00    3.683643e+00
  6.894155e+00    3.616330e+00
  6.910031e+00    3.515646e+00
  6.925907e+00    3.502767e+00
  6.941782e+00    3.517572e+00
  6.957658e+00    3.548679e+00
  6.973533e+00    3.582883e+00
  6.989409e+00    3.452497e+00
  7.005284e+00    3.518354e+00
  7.021160e+00    3.514612e+00
  7.037036e+00    3.563383e+00
  7.052911e+00    3.529997e+00
  7.068787e+00    3.467274e+00
  7.084662e+00    3.546567e+00
  7.100538e+00    3.548516e+00
  7.116413e+00    3.522598e+00
  7.132289e+00    3.570899e+00
  7.148165e+00    3.583547e+00
  7.164040e+00    3.510310e+00
  7.179916e+00    3.502723e+00
  7.195791e+00    3.567046e+00
  7.211667e+00    3.565567e+00
  7.227542e+00    3.546321e+00
  7.243418e+00    3.506383e+00
  7.259294e+00    3.513941e+00
  7.275169e+00    3.558092e+00
  7.291045e+00    3.580725e+00
  7.306920e+00    3.550068e+00
  7.322796e+00    3.499153e+00
  7.338671e+00    3.566003e+00
  7.354547e+00    3.545693e+00
  7.370423e+00    3.500463e+00
  7.386298e+00    3.500567e+00
  7.402174e+00    3.508048e+00
  7.418049e+00    3.513696e+00
  7.433925e+00    3.574208e+00
  7.449800e+00    3.522081e+00
  7.465676e+00    3.453869e+00
  7.481552e+00    3.460007e+00
  7.497427e+00    3.488957e+00
  7.513303e+00    3.455163e+00
  7.529178e+00    3.436267e+00
  7.545054e+00    3.477264e+00
  7.560929e+00    3.514548e+00
  7.576805e+00    3.489158e+00
  7.592681e+00    3.458156e+00
  7.608556e+00    3.493591e+00
  7.624432e+00    3.479021e+00
  7.640307e+00    3.495286e+00
  7.656183e+00    3.499090e+00
  7.672058e+00    3.461446e+00
  7.687934e+00    3.495954e+00
  7.703810e+00    3.469178e+00
  7.719685e+00    3.471831e+00
  7.735561e+00    3.462848e+00
  7.751436e+00    3.377122e+00
  7.767312e+00    3.469246e+00
  7.783187e+00    3.447239e+00
  7.799063e+00    3.477688e+00
  7.814939e+00    3.428295e+00
  7.830814e+00    3.426967e+00
  7.846690e+00    3.400640e+00
  7.862565e+00    3.440542e+00
  7.878441e+00    3.481639e+00
  7.894317e+00    3.422656e+00
  7.910192e+00    3.420370e+00
  7.926068e+00    3.455627e+00
  7.941943e+00    3.402255e+00
  7.957819e+00    3.458381e+00
  7.973694e+00    3.510826e+00
  7.989570e+00    3.403130e+00
  8.005446e+00    3.377883e+00
  8.021321e+00    3.393353e+00
  8.037197e+00    3.334794e+00
  8.053072e+00    3.425532e+00
  8.068948e+00    3.465973e+00
  8.084823e+00    3.493631e+00
  8.100699e+00    3.504371e+00
  8.116575e+00    3.559787e+00
  8.132450e+00    3.518718e+00
  8.148326e+00    3.462323e+00
  8.164201e+00    3.460221e+00
  8.180077e+00    3.448573e+00
  8.195952e+00    3.433652e+00
  8.211828e+00    3.493334e+00
  8.227704e+00    3.452105e+00
  8.243579e+00    3.425601e+00
  8.259455e+00    3.446856e+00
  8.275330e+00    3.394076e+00
  8.291206e+00    3.292143e+00
  8.307081e+00    3.361984e+00
  8.322957e+00    3.402810e+00
  8.338833e+00    3.473627e+00
  8.354708e+00    3.424830e+00
  8.370584e+00    3.344058e+00
  8.386459e+00    3.480127e+00
  8.402335e+00    3.448649e+00
  8.418210e+00    3.337727e+00
  8.434086e+00    3.343954e+00
  8.449962e+00    3.447465e+00
  8.465837e+00    3.401205e+00
  8.481713e+00    3.339784e+00
  8.497588e+00    3.331688e+00
  8.513464e+00    3.376838e+00
  8.529339e+00    3.306854e+00
  8.545215e+00    3.321575e+00
  8.561091e+00    3.347915e+00
  8.576966e+00    3.281469e+00
  8.592842e+00    3.351972e+00
  8.608717e+00    3.357123e+00
  8.624593e+00    3.336548e+00
  8.640468e+00    3.382193e+00
  8.656344e+00    3.365221e+00
  8.672220e+00    3.301226e+00
  8.688095e+00    3.317380e+00
  8.703971e+00    3.385730e+00
  8.719846e+00    3.340809e+00
  8.735722e+00    3.306076e+00
  8.751598e+00    3.349995e+00
  8.767473e+00    3.328414e+00
  8.783349e+00    3.276902e+00
  8.799224e+00    3.281444e+00
  8.815100e+00    3.275290e+00
  8.830975e+00    3.325000e+00
  8.846851e+00    3.323662e+00
  8.862727e+00    3.334399e+00
  8.878602e+00    3.339501e+00
  8.894478e+00    3.368779e+00
  8.910353e+00    3.342710e+00
  8.926229e+00    3.310009e+00
  8.942104e+00    3.365426e+00
  8.957980e+00    3.327105e+00
  8.973856e+00    3.302197e+00
  8.989731e+00    3.335224e+00
  9.005607e+00    3.340510e+00
  9.021482e+00    3.302392e+00
  9.037358e+00    3.298816e+00
  9.053233e+00    3.333728e+00
  9.069109e+00    3.274050e+00
  9.084985e+00    3.226940e+00
  9.100860e+00    3.244303e+00
  9.116736e+00    3.309095e+00
  9.132611e+00    3.342282e+00
  9.148487e+00    3.340640e+00
  9.164362e+00    3.302384e+00
  9.180238e+00    3.285423e+00
  9.196114e+00    3.291920e+00
  9.211989e+00    3.274467e+00
  9.227865e+00    3.331907e+00
  9.243740e+00    3.273629e+00
  9.259616e+00    3.273959e+00
  9.275491e+00    3.236879e+00
  9.291367e+00    3.248582e+00
  9.307243e+00    3.244774e+00
  9.323118e+00    3.213733e+00
  9.338994e+00    3.257982e+00
  9.354869e+00    3.256155e+00
  9.370745e+00    3.217786e+00
  9.386620e+00    3.186581e+00
  9.402496e+00    3.211745e+00
  9.418372e+00    3.188945e+00
  9.434247e+00    3.207586e+00
  9.450123e+00    3.209123e+00
  9.465998e+00    3.228955e+00
  9.481874e+00    3.299577e+00
  9.497749e+00    3.230168e+00
  9.513625e+00    3.178206e+00
  9.529501e+00    3.141524e+00
  9.545376e+00    3.218298e+00
  9.561252e+00    3.238301e+00
  9.577127e+00    3.216931e+00
  9.593003e+00    3.221371e+00
  9.608878e+00    3.216458e+00
  9.624754e+00    3.194247e+00
  9.640630e+00    3.169932e+00
  9.656505e+00    3.204278e+00
  9.672381e+00    3.199533e+00
  9.688256e+00    3.171481e+00
  9.704132e+00    3.140853e+00
  9.720008e+00    3.197685e+00
  9.735883e+00    3.166401e+00
  9.751759e+00    3.181900e+00
  9.767634e+00    3.172076e+00
  9.783510e+00    3.193056e+00
  9.799385e+00    3.191970e+00
  9.815261e+00    3.146345e+00
  9.831137e+00    3.165920e+00
  9.847012e+00    3.140994e+00
  9.862888e+00    3.238900e+00
  9.878763e+00    3.231378e+00
  9.894639e+00    3.145015e+00
  9.910514e+00    3.116689e+00
  9.926390e+00    3.181165e+00
  9.942266e+00    3.199938e+00
  9.958141e+00    3.130895e+00
  9.974017e+00    3.132220e+00
  9.989892e+00    3.115619e+00
  1.000577e+01    3.082955e+00
  1.002164e+01    3.087466e+00
  1.003752e+01    3.085169e+00
  1.005339e+01    3.075411e+00
  1.006927e+01    3.119073e+00
  1.008515e+01    3.129582e+00
  1.010102e+01    3.136337e+00
  1.011690e+01    3.140309e+00
  1.013277e+01    3.166634e+00
  1.014865e+01    3.116213e+00
  1.016452e+01    3.062309e+00
  1.018040e+01    3.018403e+00
  1.019627e+01    3.053265e+00
  1.021215e+01    3.032828e+00
  1.022803e+01    3.101693e+00
  1.024390e+01    3.116707e+00
  1.025978e+01    3.064260e+00
  1.027565e+01    3.068295e+00
  1.029153e+01    3.054881e+00
  1.030740e+01    2.997415e+00
  1.032328e+01    2.993451e+00
  1.033915e+01    3.032093e+00
  1.035503e+01    2.995680e+00
  1.037091e+01    2.977250e+00
  1.038678e+01    3.052948e+00
  1.040266e+01    3.089011e+00
  1.041853e+01    3.065910e+00
  1.043441e+01    2.974435e+00
  1.045028e+01    2.990042e+00
  1.046616e+01    3.011596e+00
  1.048204e+01    3.042273e+00
  1.049791e+01    3.016991e+00
  1.051379e+01    3.035168e+00
  1.052966e+01    3.031170e+00
  1.054554e+01    3.034553e+00
  1.056141e+01    2.972791e+00
  1.057729e+01    3.025574e+00
  1.059316e+01    3.035226e+00
  1.060904e+01    3.044353e+00
  1.062492e+01    3.009703e+00
  1.064079e+01    2.981523e+00
  1.065667e+01    2.996564e+00
  1.067254e+01    3.025007e+00
  1.068842e+01    2.970965e+00
  1.070429e+01    2.961776e+00
  1.072017e+01    2.965901e+00
  1.073604e+01    2.932947e+00
  1.075192e+01    2.941119e+00
  1.076780e+01    2.985375e+00
  1.078367e+01    2.909809e+00
  1.079955e+01    2.955403e+00
  1.081542e+01    2.921422e+00
  1.083130e+01    2.913925e+00
  1.084717e+01    2.948748e+00
  1.086305e+01    2.925628e+00
  1.087892e+01    2.936509e+00
  1.089480e+01    2.958642e+00
  1.091068e+01    2.974834e+00
  1.092655e+01    2.914118e+00
  1.094243e+01    2.902352e+00
  1.095830e+01    2.952823e+00
  1.097418e+01    2.915280e+00
  1.099005e+01    2.919117e+00
  1.100593e+01    2.930853e+00
  1.102180e+01    2.904579e+00
  1.103768e+01    2.903622e+00
  1.105356e+01    2.948350e+00
  1.106943e+01    2.920968e+00
  1.108531e+01    2.875289e+00
  1.110118e+01    2.863414e+00
  1.111706e+01    2.854315e+00
  1.113293e+01    2.848967e+00
  1.114881e+01    2.888785e+00
  1.116468e+01    2.867405e+00
  1.118056e+01    2.857619e+00
  1.119644e+01    2.888203e+00
  1.121231e+01    2.867950e+00
  1.122819e+01    2.893138e+00
  1.124406e+01    2.833650e+00
  1.125994e+01    2.833807e+00
  1.127581e+01    2.862697e+00
  1.129169e+01    2.929781e+00
  1.130756e+01    2.904346e+00
  1.132344e+01    2.849457e+00
  1.133932e+01    2.844347e+00
  1.135519e+01    2.861165e+00
  1.137107e+01    2.867863e+00
  1.138694e+01    2.817498e+00
  1.140282e+01    2.795445e+00
  1.141869e+01    2.776247e+00
  1.143457e+01    2.823938e+00
  1.145045e+01    2.818323e+00
  1.146632e+01    2.815174e+00
  1.148220e+01    2.801607e+00
  1.149807e+01    2.821012e+00
  1.151395e+01    2.800436e+00
  1.152982e+01    2.787646e+00
  1.154570e+01    2.817469e+00
  1.156157e+01    2.815487e+00
  1.157745e+01    2.812978e+00
  1.159333e+01    2.776079e+00
  1.160920e+01    2.791198e+00
  1.162508e+01    2.786880e+00
  1.164095e+01    2.785096e+00
  1.165683e+01    2.838644e+00
  1.167270e+01    2.825922e+00
  1.168858e+01    2.836212e+00
  1.170445e+01    2.762847e+00
  1.172033e+01    2.806886e+00
  1.173621e+01    2.762998e+00
  1.175208e+01    2.766659e+00
  1.176796e+01    2.722549e+00
  1.178383e+01    2.751778e+00
  1.179971e+01    2.728260e+00
  1.181558e+01    2.695743e+00
  1.183146e+01    2.748164e+00
  1.184733e+01    2.768220e+00
  1.186321e+01    2.757865e+00
  1.187909e+01    2.768302e+00
  1.189496e+01    2.759916e+00
  1.191084e+01    2.770186e+00
  1.192671e+01    2.735203e+00
  1.194259e+01    2.737366e+00
  1.195846e+01    2.751982e+00
  1.197434e+01    2.714313e+00
  1.199021e+01    2.717463e+00
  1.200609e+01    2.726344e+00
  1.202197e+01    2.736421e+00
  1.203784e+01    2.698043e+00
  1.205372e+01    2.656027e+00
  1.206959e+01    2.671283e+00
  1.208547e+01    2.650142e+00
  1.210134e+01    2.674612e+00
  1.211722e+01    2.682220e+00
  1.213309e+01    2.668859e+00
  1.214897e+01    2.663108e+00
  1.216485e+01    2.661957e+00
  1.218072e+01    2.717068e+00
  1.219660e+01    2.685404e+00
  1.221247e+01    2.665172e+00
  1.222835e+01    2.664975e+00
  1.224422e+01    2.700618e+00
  1.226010e+01    2.671651e+00
  1.227597e+01    2.667000e+00
  1.229185e+01    2.672612e+00
  1.230773e+01    2.710833e+00
  1.232360e+01    2.683305e+00
  1.233948e+01    2.706102e+00
  1.235535e+01    2.740872e+00
  1.237123e+01    2.665509e+00
  1.238710e+01    2.647990e+00
  1.240298e+01    2.671727e+00
  1.241886e+01    2.669483e+00
  1.243473e+01    2.681537e+00
  1.245061e+01    2.730556e+00
  1.246648e+01    2.698789e+00
  1.248236e+01    2.716897e+00
  1.249823e+01    2.754990e+00
  1.251411e+01    2.731369e+00
  1.252998e+01    2.740855e+00
  1.254586e+01    2.703876e+00
  1.256174e+01    2.719006e+00
  1.257761e+01    2.745012e+00
  1.259349e+01    2.724501e+00
  1.260936e+01    2.758899e+00
  1.262524e+01    2.740962e+00
  1.264111e+01    2.690481e+00
  1.265699e+01    2.761065e+00
  1.267286e+01    2.797851e+00
  1.268874e+01    2.797008e+00
  1.270462e+01    2.848046e+00
  1.272049e+01    2.884946e+00
  1.273637e+01    2.880841e+00
  1.275224e+01    2.853697e+00
  1.276812e+01    2.879224e+00
  1.278399e+01    2.960521e+00
  1.279987e+01    3.030573e+00
  1.281574e+01    3.098098e+00
  1.283162e+01    3.110782e+00
  1.284750e+01    3.209268e+00
  1.286337e+01    3.277548e+00
  1.287925e+01    3.324906e+00
  1.289512e+01    3.429246e+00
  1.291100e+01    3.660660e+00
  1.292687e+01    3.895418e+00
  1.294275e+01    4.116185e+00
  1.295862e+01    4.379853e+00
  1.297450e+01    4.786373e+00
  1.299038e+01    5.301925e+00
  1.300625e+01    5.919542e+00
  1.302213e+01    6.651720e+00
  1.303800e+01    7.583506e+00
  1.305388e+01    8.735868e+00
  1.306975e+01    1.003128e+01
  1.308563e+01    1.137918e+01
  1.310150e+01    1.252401e+01
  1.311738e+01    1.371532e+01
  1.313326e+01    1.485352e+01
  1.314913e+01    1.570518e+01
  1.316501e+01    1.623929e+01
  1.318088e+01    1.641866e+01
  1.319676e+01    1.575851e+01
  1.321263e+01    1.435269e+01
  1.322851e+01    1.259466e+01
  1.324438e+01    1.078633e+01
  1.326026e+01    9.141092e+00
  1.327614e+01    7.803136e+00
  1.329201e+01    6.713483e+00
  1.330789e+01    5.956181e+00
  1.332376e+01    5.315061e+00
  1.333964e+01    4.820456e+00
  1.335551e+01    4.475144e+00
  1.337139e+01    4.107617e+00
  1.338727e+01    3.832242e+00
  1.340314e+01    3.700807e+00
  1.341902e+01    3.500432e+00
  1.343489e+01    3.338315e+00
  1.345077e+01    3.239184e+00
  1.346664e+01    3.194992e+00
  1.348252e+01    3.080673e+00
  1.349839e+01    2.981674e+00
  1.351427e+01    2.901858e+00
  1.353015e+01    2.916073e+00
  1.354602e+01    2.791641e+00
  1.356190e+01    2.748035e+00
  1.357777e+01    2.762121e+00
  1.359365e+01    2.724303e+00
  1.360952e+01    2.671452e+00
  1.362540e+01    2.670346e+00
  1.364127e+01    2.615781e+00
  1.365715e+01    2.568809e+00
  1.367303e+01    2.605139e+00
  1.368890e+01    2.567536e+00
  1.370478e+01    2.570186e+00
  1.372065e+01    2.530090e+00
  1.373653e+01    2.539695e+00
  1.375240e+01    2.539739e+00
  1.376828e+01    2.554295e+00
  1.378415e+01    2.505655e+00
  1.380003e+01    2.497159e+00
  1.381591e+01    2.490873e+00
  1.383178e+01    2.426669e+00
  1.384766e+01    2.411325e+00
  1.386353e+01    2.390718e+00
  1.387941e+01    2.429376e+00
  1.389528e+01    2.436501e+00
  1.391116e+01    2.403470e+00
  1.392703e+01    2.394204e+00
  1.394291e+01    2.411726e+00
  1.395879e+01    2.379783e+00
  1.397466e+01    2.385048e+00
  1.399054e+01    2.363295e+00
  1.400641e+01    2.339360e+00
  1.402229e+01    2.341369e+00
  1.403816e+01    2.352970e+00
  1.405404e+01    2.342549e+00
  1.406991e+01    2.360765e+00
  1.408579e+01    2.347831e+00
  1.410167e+01    2.312064e+00
  1.411754e+01    2.347133e+00
  1.413342e+01    2.368191e+00
  1.414929e+01    2.332075e+00
  1.416517e+01    2.268083e+00
  1.418104e+01    2.273673e+00
  1.419692e+01    2.316186e+00
  1.421279e+01    2.295875e+00
  1.422867e+01    2.264955e+00
  1.424455e+01    2.304220e+00
  1.426042e+01    2.286302e+00
  1.427630e+01    2.275771e+00
  1.429217e+01    2.309042e+00
  1.430805e+01    2.264683e+00
  1.432392e+01    2.267727e+00
  1.433980e+01    2.292531e+00
  1.435568e+01    2.277071e+00
  1.437155e+01    2.249060e+00
  1.438743e+01    2.254619e+00
  1.440330e+01    2.258618e+00
  1.441918e+01    2.220279e+00
  1.443505e+01    2.258779e+00
  1.445093e+01    2.254784e+00
  1.446680e+01    2.213853e+00
  1.448268e+01    2.225557e+00
  1.449856e+01    2.234775e+00
  1.451443e+01    2.222310e+00
  1.453031e+01    2.229782e+00
  1.454618e+01    2.220176e+00
  1.456206e+01    2.243437e+00
  1.457793e+01    2.249142e+00
  1.459381e+01    2.238795e+00
  1.460968e+01    2.230862e+00
  1.462556e+01    2.187234e+00
  1.464144e+01    2.203523e+00
  1.465731e+01    2.207259e+00
  1.467319e+01    2.191705e+00
  1.468906e+01    2.232027e+00
  1.470494e+01    2.266405e+00
  1.472081e+01    2.236040e+00
  1.473669e+01    2.220295e+00
  1.475256e+01    2.222466e+00
  1.476844e+01    2.259582e+00
  1.478432e+01    2.218992e+00
  1.480019e+01    2.191012e+00
  1.481607e+01    2.182341e+00
  1.483194e+01    2.200197e+00
  1.484782e+01    2.209706e+00
  1.486369e+01    2.222903e+00
  1.487957e+01    2.182225e+00
  1.489544e+01    2.189169e+00
  1.491132e+01    2.246701e+00
  1.492720e+01    2.318506e+00
  1.494307e+01    2.319231e+00
  1.495895e+01    2.307425e+00
  1.497482e+01    2.362491e+00
  1.499070e+01    2.381865e+00
  1.500657e+01    2.439720e+00
  1.502245e+01    2.474304e+00
  1.503832e+01    2.533499e+00
  1.505420e+01    2.673658e+00
  1.507008e+01    2.836804e+00
  1.508595e+01    3.004272e+00
  1.510183e+01    3.219925e+00
  1.511770e+01    3.468128e+00
  1.513358e+01    3.771387e+00
  1.514945e+01    4.134281e+00
  1.516533e+01    4.564620e+00
  1.518120e+01    4.900872e+00
  1.519708e+01    5.185743e+00
  1.521296e+01    5.408875e+00
  1.522883e+01    5.668920e+00
  1.524471e+01    5.749089e+00
  1.526058e+01    5.830369e+00
  1.527646e+01    5.692724e+00
  1.529233e+01    5.429985e+00
  1.530821e+01    5.159134e+00
  1.532409e+01    4.734096e+00
  1.533996e+01    4.249130e+00
  1.535584e+01    3.781633e+00
  1.537171e+01    3.434063e+00
  1.538759e+01    3.201569e+00
  1.540346e+01    2.967007e+00
  1.541934e+01    2.754297e+00
  1.543521e+01    2.645361e+00
  1.545109e+01    2.555089e+00
  1.546697e+01    2.425181e+00
  1.548284e+01    2.357672e+00
  1.549872e+01    2.329084e+00
  1.551459e+01    2.264057e+00
  1.553047e+01    2.199612e+00
  1.554634e+01    2.154720e+00
  1.556222e+01    2.142615e+00
  1.557809e+01    2.124418e+00
  1.559397e+01    2.102527e+00
  1.560985e+01    2.086913e+00
  1.562572e+01    2.071901e+00
  1.564160e+01    2.029056e+00
  1.565747e+01    2.046601e+00
  1.567335e+01    2.047065e+00
  1.568922e+01    1.995685e+00
  1.570510e+01    1.992668e+00
  1.572097e+01    1.989774e+00
  1.573685e+01    1.962572e+00
  1.575273e+01    1.958485e+00
  1.576860e+01    1.981861e+00
  1.578448e+01    1.959350e+00
  1.580035e+01    1.907301e+00
  1.581623e+01    1.912920e+00
  1.583210e+01    1.949950e+00
  1.584798e+01    1.947096e+00
  1.586385e+01    1.917164e+00
  1.587973e+01    1.910088e+00
  1.589561e+01    1.909208e+00
  1.591148e+01    1.932213e+00
  1.592736e+01    1.916818e+00
  1.594323e+01    1.889025e+00
  1.595911e+01    1.896709e+00
  1.597498e+01    1.879089e+00
  1.599086e+01    1.884544e+00
  1.600673e+01    1.857709e+00
  1.602261e+01    1.880344e+00
  1.603849e+01    1.866644e+00
  1.605436e+01    1.840186e+00
  1.607024e+01    1.877240e+00
  1.608611e+01    1.884774e+00
  1.610199e+01    1.870920e+00
  1.611786e+01    1.848194e+00
  1.613374e+01    1.835254e+00
  1.614961e+01    1.828410e+00
  1.616549e+01    1.859349e+00
  1.618137e+01    1.836617e+00
  1.619724e+01    1.873805e+00
  1.621312e+01    1.861571e+00
  1.622899e+01    1.822181e+00
  1.624487e+01    1.818545e+00
  1.626074e+01    1.801231e+00
  1.627662e+01    1.813463e+00
  1.629250e+01    1.794708e+00
  1.630837e+01    1.777123e+00
  1.632425e+01    1.784458e+00
  1.634012e+01    1.798145e+00
  1.635600e+01    1.788969e+00
  1.637187e+01    1.794583e+00
  1.638775e+01    1.777516e+00
  1.640362e+01    1.788134e+00
  1.641950e+01    1.757174e+00
  1.643538e+01    1.769106e+00
  1.645125e+01    1.757987e+00
  1.646713e+01    1.738315e+00
  1.648300e+01    1.783141e+00
  1.649888e+01    1.749242e+00
  1.651475e+01    1.743381e+00
  1.653063e+01    1.753325e+00
  1.654650e+01    1.742191e+00
  1.656238e+01    1.755517e+00
  1.657826e+01    1.737041e+00
  1.659413e+01    1.755018e+00
  1.661001e+01    1.741905e+00
  1.662588e+01    1.745604e+00
  1.664176e+01    1.741519e+00
  1.665763e+01    1.739311e+00
  1.667351e+01    1.717093e+00
  1.668938e+01    1.722504e+00
  1.670526e+01    1.758886e+00
  1.672114e+01    1.707838e+00
  1.673701e+01    1.711569e+00
  1.675289e+01    1.725233e+00
  1.676876e+01    1.704171e+00
  1.678464e+01    1.712735e+00
  1.680051e+01    1.698122e+00
  1.681639e+01    1.723631e+00
  1.683226e+01    1.729709e+00
  1.684814e+01    1.713187e+00
  1.686402e+01    1.688258e+00
  1.687989e+01    1.696881e+00
  1.689577e+01    1.671078e+00
  1.691164e+01    1.687836e+00
  1.692752e+01    1.679693e+00
  1.694339e+01    1.684731e+00
  1.695927e+01    1.678732e+00
  1.697514e+01    1.668370e+00
  1.699102e+01    1.674945e+00
  1.700690e+01    1.704124e+00
  1.702277e+01    1.686011e+00
  1.703865e+01    1.686960e+00
  1.705452e+01    1.702390e+00
  1.707040e+01    1.656741e+00
  1.708627e+01    1.656543e+00
  1.710215e+01    1.660541e+00
  1.711802e+01    1.650027e+00
  1.713390e+01    1.629643e+00
  1.714978e+01    1.614979e+00
  1.716565e+01    1.652405e+00
  1.718153e+01    1.686895e+00
  1.719740e+01    1.644184e+00
  1.721328e+01    1.594897e+00
  1.722915e+01    1.613667e+00
  1.724503e+01    1.639587e+00
  1.726091e+01    1.620853e+00
  1.727678e+01    1.631779e+00
  1.729266e+01    1.622869e+00
  1.730853e+01    1.579787e+00
  1.732441e+01    1.608904e+00
  1.734028e+01    1.632818e+00
  1.735616e+01    1.619473e+00
  1.737203e+01    1.595138e+00
  1.738791e+01    1.609239e+00
  1.740379e+01    1.621928e+00
  1.741966e+01    1.622896e+00
  1.743554e+01    1.606638e+00
  1.745141e+01    1.584841e+00
  1.746729e+01    1.577641e+00
  1.748316e+01    1.603511e+00
  1.749904e+01    1.611870e+00
  1.751491e+01    1.584681e+00
  1.753079e+01    1.587653e+00
  1.754667e+01    1.583898e+00
  1.756254e+01    1.590469e+00
  1.757842e+01    1.558280e+00
  1.759429e+01    1.548672e+00
  1.761017e+01    1.574662e+00
  1.762604e+01    1.613290e+00
  1.764192e+01    1.567831e+00
  1.765779e+01    1.554541e+00
  1.767367e+01    1.572888e+00
  1.768955e+01    1.550897e+00
  1.770542e+01    1.540130e+00
  1.772130e+01    1.578598e+00
  1.773717e+01    1.566070e+00
  1.775305e+01    1.569434e+00
  1.776892e+01    1.574688e+00
  1.778480e+01    1.575976e+00
  1.780067e+01    1.524104e+00
  1.781655e+01    1.526109e+00
  1.783243e+01    1.545690e+00
  1.784830e+01    1.544778e+00
  1.786418e+01    1.480108e+00
  1.788005e+01    1.523330e+00
  1.789593e+01    1.528889e+00
  1.791180e+01    1.489116e+00
  1.792768e+01    1.512088e+00
  1.794355e+01    1.530389e+00
  1.795943e+01    1.503779e+00
  1.797531e+01    1.510537e+00
  1.799118e+01    1.504573e+00
  1.800706e+01    1.485662e+00
  1.802293e+01    1.511678e+00
  1.803881e+01    1.516718e+00
  1.805468e+01    1.487506e+00
  1.807056e+01    1.513030e+00
  1.808643e+01    1.486763e+00
  1.810231e+01    1.483871e+00
  1.811819e+01    1.495432e+00
  1.813406e+01    1.513675e+00
  1.814994e+01    1.490899e+00
  1.816581e+01    1.485944e+00
  1.818169e+01    1.477465e+00
  1.819756e+01    1.504230e+00
  1.821344e+01    1.485051e+00
  1.822932e+01    1.465607e+00
  1.824519e+01    1.459955e+00
  1.826107e+01    1.486338e+00
  1.827694e+01    1.501058e+00
  1.829282e+01    1.486651e+00
  1.830869e+01    1.492081e+00
  1.832457e+01    1.452518e+00
  1.834044e+01    1.475973e+00
  1.835632e+01    1.509433e+00
  1.837220e+01    1.481618e+00
  1.838807e+01    1.486744e+00
  1.840395e+01    1.483177e+00
  1.841982e+01    1.490728e+00
  1.843570e+01    1.446193e+00
  1.845157e+01    1.429677e+00
  1.846745e+01    1.432975e+00
  1.848332e+01    1.449312e+00
  1.849920e+01    1.431563e+00
  1.851508e+01    1.440100e+00
  1.853095e+01    1.446858e+00
  1.854683e+01    1.437647e+00
  1.856270e+01    1.410188e+00
  1.857858e+01    1.437756e+00
  1.859445e+01    1.463594e+00
  1.861033e+01    1.438599e+00
  1.862620e+01    1.404332e+00
  1.864208e+01    1.418595e+00
  1.865796e+01    1.428492e+00
  1.867383e+01    1.419935e+00
  1.868971e+01    1.407497e+00
  1.870558e+01    1.415062e+00
  1.872146e+01    1.402814e+00
  1.873733e+01    1.412550e+00
  1.875321e+01    1.426880e+00
  1.876908e+01    1.423283e+00
  1.878496e+01    1.427167e+00
  1.880084e+01    1.407441e+00
  1.881671e+01    1.426628e+00
  1.883259e+01    1.396222e+00
  1.884846e+01    1.401583e+00
  1.886434e+01    1.412205e+00
  1.888021e+01    1.412755e+00
  1.889609e+01    1.403690e+00
  1.891196e+01    1.394726e+00
  1.892784e+01    1.407821e+00
  1.894372e+01    1.428994e+00
  1.895959e+01    1.389287e+00
  1.897547e+01    1.360293e+00
  1.899134e+01    1.354326e+00
  1.900722e+01    1.351907e+00
  1.902309e+01    1.387914e+00
  1.903897e+01    1.402855e+00
  1.905484e+01    1.379550e+00
  1.907072e+01    1.373311e+00
  1.908660e+01    1.387746e+00
  1.910247e+01    1.366524e+00
  1.911835e+01    1.393992e+00
  1.913422e+01    1.381650e+00
  1.915010e+01    1.376433e+00
  1.916597e+01    1.364720e+00
  1.918185e+01    1.381487e+00
  1.919773e+01    1.365523e+00
  1.921360e+01    1.339793e+00
  1.922948e+01    1.334393e+00
  1.924535e+01    1.360627e+00
  1.926123e+01    1.365031e+00
  1.927710e+01    1.338602e+00
  1.929298e+01    1.349921e+00
  1.930885e+01    1.358803e+00
  1.932473e+01    1.368575e+00
  1.934061e+01    1.346224e+00
  1.935648e+01    1.347125e+00
  1.937236e+01    1.337986e+00
  1.938823e+01    1.341704e+00
  1.940411e+01    1.342716e+00
  1.941998e+01    1.329215e+00
  1.943586e+01    1.365816e+00
  1.945173e+01    1.359456e+00
  1.946761e+01    1.362630e+00
  1.948349e+01    1.357062e+00
  1.949936e+01    1.342954e+00
  1.951524e+01    1.342243e+00
  1.953111e+01    1.328686e+00
  1.954699e+01    1.334022e+00
  1.956286e+01    1.337091e+00
  1.957874e+01    1.318599e+00
  1.959461e+01    1.319499e+00
  1.961049e+01    1.351668e+00
  1.962637e+01    1.345904e+00
  1.964224e+01    1.327430e+00
  1.965812e+01    1.341167e+00
  1.967399e+01    1.318628e+00
  1.968987e+01    1.315537e+00
  1.970574e+01    1.300495e+00
  1.972162e+01    1.290791e+00
  1.973749e+01    1.307383e+00
  1.975337e+01    1.299210e+00
  1.976925e+01    1.297833e+00
  1.978512e+01    1.287162e+00
  1.980100e+01    1.316229e+00
  1.981687e+01    1.300780e+00
  1.983275e+01    1.294835e+00
  1.984862e+01    1.314486e+00
  1.986450e+01    1.307539e+00
  1.988037e+01    1.291519e+00
  1.989625e+01    1.302958e+00
  1.991213e+01    1.286102e+00
  1.992800e+01    1.271142e+00
  1.994388e+01    1.277508e+00
  1.995975e+01    1.276125e+00
  1.997563e+01    1.277996e+00
  1.999150e+01    1.309508e+00
  2.000738e+01    1.287979e+00
  2.002325e+01    1.285699e+00
  2.003913e+01    1.282536e+00
  2.005501e+01    1.242194e+00
  2.007088e+01    1.264207e+00
  2.008676e+01    1.259200e+00
  2.010263e+01    1.253352e+00
  2.011851e+01    1.257743e+00
  2.013438e+01    1.277273e+00
  2.015026e+01    1.275400e+00
  2.016614e+01    1.281290e+00
  2.018201e+01    1.277093e+00
  2.019789e+01    1.273536e+00
  2.021376e+01    1.259619e+00
  2.022964e+01    1.254892e+00
  2.024551e+01    1.244927e+00
  2.026139e+01    1.254751e+00
  2.027726e+01    1.251691e+00
  2.029314e+01    1.270098e+00
  2.030902e+01    1.260365e+00
  2.032489e+01    1.253667e+00
  2.034077e+01    1.237167e+00
  2.035664e+01    1.224062e+00
  2.037252e+01    1.239534e+00
  2.038839e+01    1.245191e+00
  2.040427e+01    1.248862e+00
  2.042014e+01    1.278356e+00
  2.043602e+01    1.234971e+00
  2.045190e+01    1.237786e+00
  2.046777e+01    1.254313e+00
  2.048365e+01    1.255725e+00
  2.049952e+01    1.250866e+00
  2.051540e+01    1.262638e+00
  2.053127e+01    1.236917e+00
  2.054715e+01    1.241716e+00
  2.056302e+01    1.227540e+00
  2.057890e+01    1.231120e+00
  2.059478e+01    1.227969e+00
  2.061065e+01    1.221434e+00
  2.062653e+01    1.221857e+00
  2.064240e+01    1.220506e+00
  2.065828e+01    1.230706e+00
  2.067415e+01    1.230168e+00
  2.069003e+01    1.234562e+00
  2.070590e+01    1.217718e+00
  2.072178e+01    1.230255e+00
  2.073766e+01    1.226007e+00
  2.075353e+01    1.208362e+00
  2.076941e+01    1.207636e+00
  2.078528e+01    1.250901e+00
  2.080116e+01    1.248924e+00
  2.081703e+01    1.205370e+00
  2.083291e+01    1.214793e+00
  2.084878e+01    1.208958e+00
  2.086466e+01    1.213109e+00
  2.088054e+01    1.228685e+00
  2.089641e+01    1.211594e+00
  2.091229e+01    1.196876e+00
  2.092816e+01    1.228750e+00
  2.094404e+01    1.218916e+00
  2.095991e+01    1.208371e+00
  2.097579e+01    1.199768e+00
  2.099166e+01    1.234519e+00
  2.100754e+01    1.239177e+00
  2.102342e+01    1.233320e+00
  2.103929e+01    1.239740e+00
  2.105517e+01    1.210757e+00
  2.107104e+01    1.211465e+00
  2.108692e+01    1.212368e+00
  2.110279e+01    1.218560e+00
  2.111867e+01    1.240934e+00
  2.113455e+01    1.223439e+00
  2.115042e+01    1.240523e+00
  2.116630e+01    1.229519e+00
  2.118217e+01    1.209830e+00
  2.119805e+01    1.241011e+00
  2.121392e+01    1.232571e+00
  2.122980e+01    1.244048e+00
  2.124567e+01    1.230300e+00
  2.126155e+01    1.249546e+00
  2.127743e+01    1.272332e+00
  2.129330e+01    1.262600e+00
  2.130918e+01    1.292465e+00
  2.132505e+01    1.292934e+00
  2.134093e+01    1.280785e+00
  2.135680e+01    1.284251e+00
  2.137268e+01    1.291087e+00
  2.138855e+01    1.313668e+00
  2.140443e+01    1.319718e+00
  2.142031e+01    1.343009e+00
  2.143618e+01    1.351739e+00
  2.145206e+01    1.345466e+00
  2.146793e+01    1.354027e+00
  2.148381e+01    1.404771e+00
  2.149968e+01    1.434329e+00
  2.151556e+01    1.485535e+00
  2.153143e+01    1.475349e+00
  2.154731e+01    1.528311e+00
  2.156319e+01    1.559521e+00
  2.157906e+01    1.572762e+00
  2.159494e+01    1.657061e+00
  2.161081e+01    1.744551e+00
  2.162669e+01    1.847640e+00
  2.164256e+01    1.975205e+00
  2.165844e+01    2.078904e+00
  2.167431e+01    2.259545e+00
  2.169019e+01    2.495904e+00
  2.170607e+01    2.750680e+00
  2.172194e+01    3.094760e+00
  2.173782e+01    3.477241e+00
  2.175369e+01    3.939856e+00
  2.176957e+01    4.497092e+00
  2.178544e+01    5.147490e+00
  2.180132e+01    5.819276e+00
  2.181719e+01    6.477343e+00
  2.183307e+01    7.123647e+00
  2.184895e+01    7.745588e+00
  2.186482e+01    8.326588e+00
  2.188070e+01    8.757347e+00
  2.189657e+01    8.937291e+00
  2.191245e+01    8.788842e+00
  2.192832e+01    8.342841e+00
  2.194420e+01    7.501083e+00
  2.196007e+01    6.668377e+00
  2.197595e+01    5.744389e+00
  2.199183e+01    4.898435e+00
  2.200770e+01    4.271106e+00
  2.202358e+01    3.666169e+00
  2.203945e+01    3.195108e+00
  2.205533e+01    2.839967e+00
  2.207120e+01    2.587306e+00
  2.208708e+01    2.347667e+00
  2.210296e+01    2.181328e+00
  2.211883e+01    1.997764e+00
  2.213471e+01    1.881843e+00
  2.215058e+01    1.752760e+00
  2.216646e+01    1.696545e+00
  2.218233e+01    1.608028e+00
  2.219821e+01    1.547348e+00
  2.221408e+01    1.505534e+00
  2.222996e+01    1.455859e+00
  2.224584e+01    1.422516e+00
  2.226171e+01    1.370627e+00
  2.227759e+01    1.318216e+00
  2.229346e+01    1.320454e+00
  2.230934e+01    1.290743e+00
  2.232521e+01    1.268031e+00
  2.234109e+01    1.271865e+00
  2.235696e+01    1.248064e+00
  2.237284e+01    1.238160e+00
  2.238872e+01    1.232229e+00
  2.240459e+01    1.204115e+00
  2.242047e+01    1.172354e+00
  2.243634e+01    1.178695e+00
  2.245222e+01    1.171211e+00
  2.246809e+01    1.145692e+00
  2.248397e+01    1.159438e+00
  2.249984e+01    1.135375e+00
  2.251572e+01    1.133375e+00
  2.253160e+01    1.149232e+00
  2.254747e+01    1.163179e+00
  2.256335e+01    1.127586e+00
  2.257922e+01    1.111559e+00
  2.259510e+01    1.104768e+00
  2.261097e+01    1.086185e+00
  2.262685e+01    1.099643e+00
  2.264272e+01    1.093640e+00
  2.265860e+01    1.100048e+00
  2.267448e+01    1.081030e+00
  2.269035e+01    1.090615e+00
  2.270623e+01    1.096141e+00
  2.272210e+01    1.092153e+00
  2.273798e+01    1.069550e+00
  2.275385e+01    1.055324e+00
  2.276973e+01    1.072549e+00
  2.278560e+01    1.070426e+00
  2.280148e+01    1.062163e+00
  2.281736e+01    1.052121e+00
  2.283323e+01    1.058470e+00
  2.284911e+01    1.058211e+00
  2.286498e+01    1.037104e+00
  2.288086e+01    1.046307e+00
  2.289673e+01    1.045028e+00
  2.291261e+01    1.046888e+00
  2.292848e+01    1.040733e+00
  2.294436e+01    1.046377e+00
  2.296024e+01    1.030894e+00
  2.297611e+01    1.014569e+00
  2.299199e+01    1.026208e+00
  2.300786e+01    1.025447e+00
  2.302374e+01    1.034532e+00
  2.303961e+01    1.019156e+00
  2.305549e+01    1.016738e+00
  2.307137e+01    1.019803e+00
  2.308724e+01    1.018884e+00
  2.310312e+01    1.029891e+00
  2.311899e+01    1.025185e+00
  2.313487e+01    9.953446e-01
  2.315074e+01    1.007367e+00
  2.316662e+01    1.013478e+00
  2.318249e+01    9.931805e-01
  2.319837e+01    1.002346e+00
  2.321425e+01    9.863732e-01
  2.323012e+01    9.826724e-01
  2.324600e+01    9.937941e-01
  2.326187e+01    1.004128e+00
  2.327775e+01    9.866652e-01
  2.329362e+01    9.838127e-01
  2.330950e+01    1.005237e+00
  2.332537e+01    9.986619e-01
  2.334125e+01    9.829379e-01
  2.335713e+01    9.770045e-01
  2.337300e+01    9.785424e-01
  2.338888e+01    9.850019e-01
  2.340475e+01    9.596632e-01
  2.342063e+01    9.339497e-01
  2.343650e+01    9.579851e-01
  2.345238e+01    9.970149e-01
  2.346825e+01    9.816087e-01
  2.348413e+01    9.601385e-01
  2.350001e+01    9.617171e-01
  2.351588e+01    9.608917e-01
  2.353176e+01    9.757152e-01
  2.354763e+01    9.541083e-01
  2.356351e+01    9.603962e-01
  2.357938e+01    9.577125e-01
  2.359526e+01    9.628633e-01
  2.361113e+01    9.829118e-01
  2.362701e+01    9.780999e-01
  2.364289e+01    9.579005e-01
  2.365876e+01    9.438076e-01
  2.367464e+01    9.486174e-01
  2.369051e+01    9.531532e-01
  2.370639e+01    9.395838e-01
  2.372226e+01    9.474177e-01
  2.373814e+01    9.382297e-01
  2.375401e+01    9.234090e-01
  2.376989e+01    9.387557e-01
  2.378577e+01    9.194830e-01
  2.380164e+01    9.345325e-01
  2.381752e+01    9.062463e-01
  2.383339e+01    8.989258e-01
  2.384927e+01    8.988180e-01
  2.386514e+01    9.141628e-01
  2.388102e+01    8.973039e-01
  2.389689e+01    8.982359e-01
  2.391277e+01    9.223897e-01
  2.392865e+01    9.068666e-01
  2.394452e+01    9.171574e-01
  2.396040e+01    9.094164e-01
  2.397627e+01    9.090487e-01
  2.399215e+01    8.990797e-01
  2.400802e+01    9.078990e-01
  2.402390e+01    9.211155e-01
  2.403978e+01    8.899739e-01
  2.405565e+01    8.936402e-01
  2.407153e+01    8.808537e-01
  2.408740e+01    8.815358e-01
  2.410328e+01    8.918321e-01
  2.411915e+01    8.796930e-01
  2.413503e+01    8.762088e-01
  2.415090e+01    8.792453e-01
  2.416678e+01    8.767818e-01
  2.418266e+01    8.790339e-01
  2.419853e+01    8.724083e-01
  2.421441e+01    8.938638e-01
  2.423028e+01    8.866817e-01
  2.424616e+01    8.889271e-01
  2.426203e+01    9.143060e-01
  2.427791e+01    8.998708e-01
  2.429378e+01    8.798568e-01
  2.430966e+01    8.974289e-01
  2.432554e+01    8.982559e-01
  2.434141e+01    8.933534e-01
  2.435729e+01    8.956459e-01
  2.437316e+01    9.052867e-01
  2.438904e+01    9.144458e-01
  2.440491e+01    8.971314e-01
  2.442079e+01    8.766174e-01
  2.443666e+01    8.898100e-01
  2.445254e+01    9.020497e-01
  2.446842e+01    8.926130e-01
  2.448429e+01    8.948691e-01
  2.450017e+01    9.130781e-01
  2.451604e+01    9.004784e-01
  2.453192e+01    8.966585e-01
  2.454779e+01    8.981090e-01
  2.456367e+01    8.858756e-01
  2.457954e+01    8.885657e-01
  2.459542e+01    8.855422e-01
  2.461130e+01    8.966626e-01
  2.462717e+01    9.015995e-01
  2.464305e+01    8.955126e-01
  2.465892e+01    9.055486e-01
  2.467480e+01    9.108843e-01
  2.469067e+01    8.758068e-01
  2.470655e+01    8.839654e-01
  2.472242e+01    8.877616e-01
  2.473830e+01    8.968940e-01
  2.475418e+01    8.874297e-01
  2.477005e+01    8.908513e-01
  2.478593e+01    9.133443e-01
  2.480180e+01    9.016520e-01
  2.481768e+01    8.914161e-01
  2.483355e+01    8.830743e-01
  2.484943e+01    8.866593e-01
  2.486530e+01    8.939154e-01
  2.488118e+01    8.761731e-01
  2.489706e+01    8.879554e-01
  2.491293e+01    9.029616e-01
  2.492881e+01    8.919151e-01
  2.494468e+01    8.898489e-01
  2.496056e+01    9.142087e-01
  2.497643e+01    9.176357e-01
  2.499231e+01    9.131550e-01
  2.500819e+01    9.077691e-01
  2.502406e+01    9.035993e-01
  2.503994e+01    9.092372e-01
  2.505581e+01    9.097095e-01
  2.507169e+01    9.090905e-01
  2.508756e+01    9.143590e-01
  2.510344e+01    8.979158e-01
  2.511931e+01    8.879021e-01
  2.513519e+01    9.137467e-01
  2.515107e+01    9.206490e-01
  2.516694e+01    9.178339e-01
  2.518282e+01    9.188130e-01
  2.519869e+01    9.133817e-01
  2.521457e+01    9.355320e-01
  2.523044e+01    9.342400e-01
  2.524632e+01    9.282816e-01
  2.526219e+01    9.439328e-01
  2.527807e+01    9.600832e-01
  2.529395e+01    9.575369e-01
  2.530982e+01    9.504008e-01
  2.532570e+01    9.486053e-01
  2.534157e+01    9.764814e-01
  2.535745e+01    9.862618e-01
  2.537332e+01    9.808032e-01
  2.538920e+01    9.775646e-01
  2.540507e+01    9.843125e-01
  2.542095e+01    1.014452e+00
  2.543683e+01    1.029466e+00
  2.545270e+01    1.014480e+00
  2.546858e+01    1.019475e+00
  2.548445e+01    1.035617e+00
  2.550033e+01    1.036267e+00
  2.551620e+01    1.059603e+00
  2.553208e+01    1.090909e+00
  2.554795e+01    1.123672e+00
  2.556383e+01    1.144546e+00
  2.557971e+01    1.156433e+00
  2.559558e+01    1.152941e+00
  2.561146e+01    1.216969e+00
  2.562733e+01    1.267617e+00
  2.564321e+01    1.294216e+00
  2.565908e+01    1.347053e+00
  2.567496e+01    1.412178e+00
  2.569083e+01    1.479275e+00
  2.570671e+01    1.579609e+00
  2.572259e+01    1.690510e+00
  2.573846e+01    1.852152e+00
  2.575434e+01    2.005106e+00
  2.577021e+01    2.215545e+00
  2.578609e+01    2.473659e+00
  2.580196e+01    2.761059e+00
  2.581784e+01    3.166969e+00
  2.583371e+01    3.586173e+00
  2.584959e+01    4.067258e+00
  2.586547e+01    4.619705e+00
  2.588134e+01    5.187280e+00
  2.589722e+01    5.777214e+00
  2.591309e+01    6.290524e+00
  2.592897e+01    6.760260e+00
  2.594484e+01    7.035212e+00
  2.596072e+01    7.133604e+00
  2.597660e+01    6.946607e+00
  2.599247e+01    6.603979e+00
  2.600835e+01    6.048734e+00
  2.602422e+01    5.356607e+00
  2.604010e+01    4.663840e+00
  2.605597e+01    4.062199e+00
  2.607185e+01    3.483439e+00
  2.608772e+01    3.016849e+00
  2.610360e+01    2.684817e+00
  2.611948e+01    2.394146e+00
  2.613535e+01    2.163096e+00
  2.615123e+01    1.977874e+00
  2.616710e+01    1.824566e+00
  2.618298e+01    1.687142e+00
  2.619885e+01    1.572805e+00
  2.621473e+01    1.500201e+00
  2.623060e+01    1.418432e+00
  2.624648e+01    1.328557e+00
  2.626236e+01    1.299248e+00
  2.627823e+01    1.252870e+00
  2.629411e+01    1.221959e+00
  2.630998e+01    1.181277e+00
  2.632586e+01    1.158927e+00
  2.634173e+01    1.148247e+00
  2.635761e+01    1.125902e+00
  2.637348e+01    1.104947e+00
  2.638936e+01    1.080873e+00
  2.640524e+01    1.071183e+00
  2.642111e+01    1.040339e+00
  2.643699e+01    1.042742e+00
  2.645286e+01    1.048215e+00
  2.646874e+01    1.043959e+00
  2.648461e+01    1.012893e+00
  2.650049e+01    1.002267e+00
  2.651636e+01    9.990917e-01
  2.653224e+01    1.003618e+00
  2.654812e+01    9.952623e-01
  2.656399e+01    9.779230e-01
  2.657987e+01    9.976785e-01
  2.659574e+01    1.002438e+00
  2.661162e+01    9.833263e-01
  2.662749e+01    9.917662e-01
  2.664337e+01    1.000908e+00
  2.665924e+01    9.806241e-01
  2.667512e+01    9.816375e-01
  2.669100e+01    9.896071e-01
  2.670687e+01    9.695101e-01
  2.672275e+01    9.543251e-01
  2.673862e+01    9.767263e-01
  2.675450e+01    9.824260e-01
  2.677037e+01    9.553376e-01
  2.678625e+01    9.622808e-01
  2.680212e+01    9.769366e-01
  2.681800e+01    9.722364e-01
  2.683388e+01    9.742125e-01
  2.684975e+01    9.812208e-01
  2.686563e+01    1.002123e+00
  2.688150e+01    1.001209e+00
  2.689738e+01    1.000260e+00
  2.691325e+01    9.848605e-01
  2.692913e+01    1.023217e+00
  2.694501e+01    1.034924e+00
  2.696088e+01    1.033849e+00
  2.697676e+01    1.063470e+00
  2.699263e+01    1.107476e+00
  2.700851e+01    1.127013e+00
  2.702438e+01    1.155025e+00
  2.704026e+01    1.168218e+00
  2.705613e+01    1.245953e+00
  2.707201e+01    1.296498e+00
  2.708789e+01    1.371204e+00
  2.710376e+01    1.471168e+00
  2.711964e+01    1.584559e+00
  2.713551e+01    1.702300e+00
  2.715139e+01    1.820433e+00
  2.716726e+01    1.941335e+00
  2.718314e+01    2.051502e+00
  2.719901e+01    2.145710e+00
  2.721489e+01    2.169696e+00
  2.723077e+01    2.124469e+00
  2.724664e+01    2.088233e+00
  2.726252e+01    1.966872e+00
  2.727839e+01    1.841000e+00
  2.729427e+01    1.680033e+00
  2.731014e+01    1.566137e+00
  2.732602e+01    1.455387e+00
  2.734189e+01    1.369725e+00
  2.735777e+01    1.284194e+00
  2.737365e+01    1.218402e+00
  2.738952e+01    1.167832e+00
  2.740540e+01    1.125012e+00
  2.742127e+01    1.089082e+00
  2.743715e+01    1.067462e+00
  2.745302e+01    1.038474e+00
  2.746890e+01    1.004119e+00
  2.748477e+01    9.946663e-01
  2.750065e+01    9.884121e-01
  2.751653e+01    9.658508e-01
  2.753240e+01    9.586355e-01
  2.754828e+01    9.732143e-01
  2.756415e+01    9.597631e-01
  2.758003e+01    9.449587e-01
  2.759590e+01    9.320374e-01
  2.761178e+01    9.430023e-01
  2.762765e+01    9.294745e-01
  2.764353e+01    9.171141e-01
  2.765941e+01    9.384803e-01
  2.767528e+01    9.101683e-01
  2.769116e+01    9.151179e-01
  2.770703e+01    9.105318e-01
  2.772291e+01    9.059426e-01
  2.773878e+01    8.922831e-01
  2.775466e+01    8.859951e-01
  2.777054e+01    8.802214e-01
  2.778641e+01    8.966098e-01
  2.780229e+01    9.072344e-01
  2.781816e+01    8.951393e-01
  2.783404e+01    8.875377e-01
  2.784991e+01    8.991991e-01
  2.786579e+01    8.755292e-01
  2.788166e+01    8.743997e-01
  2.789754e+01    8.774706e-01
  2.791342e+01    8.796262e-01
  2.792929e+01    8.914378e-01
  2.794517e+01    8.612058e-01
  2.796104e+01    8.533854e-01
  2.797692e+01    8.680126e-01
  2.799279e+01    8.727142e-01
  2.800867e+01    8.581621e-01
  2.802454e+01    8.626204e-01
  2.804042e+01    8.638704e-01
  2.805630e+01    8.734815e-01
  2.807217e+01    8.674411e-01
  2.808805e+01    8.772108e-01
  2.810392e+01    8.697538e-01
  2.811980e+01    8.687938e-01
  2.813567e+01    8.672652e-01
  2.815155e+01    8.622653e-01
  2.816742e+01    8.560292e-01
  2.818330e+01    8.576878e-01
  2.819918e+01    8.446555e-01
  2.821505e+01    8.538603e-01
  2.823093e+01    8.504563e-01
  2.824680e+01    8.531060e-01
  2.826268e+01    8.496000e-01
  2.827855e+01    8.216571e-01
  2.829443e+01    8.387324e-01
  2.831030e+01    8.400728e-01
  2.832618e+01    8.410245e-01
  2.834206e+01    8.239460e-01
  2.835793e+01    8.624427e-01
  2.837381e+01    8.521780e-01
  2.838968e+01    8.301214e-01
  2.840556e+01    8.478307e-01
  2.842143e+01    8.577549e-01
  2.843731e+01    8.575621e-01
  2.845318e+01    8.194522e-01
  2.846906e+01    8.256175e-01
  2.848494e+01    8.482495e-01
  2.850081e+01    8.385032e-01
  2.851669e+01    8.527040e-01
  2.853256e+01    8.478067e-01
  2.854844e+01    8.431192e-01
  2.856431e+01    8.431953e-01
  2.858019e+01    8.477260e-01
  2.859606e+01    8.383384e-01
  2.861194e+01    8.281667e-01
  2.862782e+01    8.493484e-01
  2.864369e+01    8.301728e-01
  2.865957e+01    8.136506e-01
  2.867544e+01    8.117360e-01
  2.869132e+01    8.342114e-01
  2.870719e+01    8.199770e-01
  2.872307e+01    8.216076e-01
  2.873895e+01    8.225343e-01
  2.875482e+01    8.104887e-01
  2.877070e+01    8.077345e-01
  2.878657e+01    8.219339e-01
  2.880245e+01    8.382910e-01
  2.881832e+01    8.140740e-01
  2.883420e+01    8.146605e-01
  2.885007e+01    8.250373e-01
  2.886595e+01    8.139958e-01
  2.888183e+01    8.105183e-01
  2.889770e+01    8.224183e-01
  2.891358e+01    8.165001e-01
  2.892945e+01    8.278528e-01
  2.894533e+01    8.157439e-01
  2.896120e+01    8.229581e-01
  2.897708e+01    8.384185e-01
  2.899295e+01    8.438476e-01
  2.900883e+01    8.304780e-01
  2.902471e+01    8.418853e-01
  2.904058e+01    8.402341e-01
  2.905646e+01    8.352913e-01
  2.907233e+01    8.129213e-01
  2.908821e+01    8.262175e-01
  2.910408e+01    8.440534e-01
  2.911996e+01    8.257182e-01
  2.913583e+01    8.075740e-01
  2.915171e+01    8.225982e-01
  2.916759e+01    8.057714e-01
  2.918346e+01    8.152068e-01
  2.919934e+01    8.050801e-01
  2.921521e+01    8.134283e-01
  2.923109e+01    8.120391e-01
  2.924696e+01    8.202571e-01
  2.926284e+01    8.097227e-01
  2.927871e+01    8.028631e-01
  2.929459e+01    8.117791e-01
  2.931047e+01    8.245867e-01
  2.932634e+01    8.052050e-01
  2.934222e+01    8.002242e-01
  2.935809e+01    8.023498e-01
  2.937397e+01    8.125422e-01
  2.938984e+01    8.094969e-01
  2.940572e+01    8.000744e-01
  2.942159e+01    8.172427e-01
  2.943747e+01    8.059424e-01
  2.945335e+01    7.817618e-01
  2.946922e+01    7.966682e-01
  2.948510e+01    8.353447e-01
  2.950097e+01    8.235816e-01
  2.951685e+01    7.985745e-01
  2.953272e+01    7.855185e-01
  2.954860e+01    8.077233e-01
  2.956447e+01    7.938894e-01
  2.958035e+01    7.941544e-01
  2.959623e+01    8.104247e-01
  2.961210e+01    8.137135e-01
  2.962798e+01    8.039308e-01
  2.964385e+01    7.911311e-01
  2.965973e+01    8.032888e-01
  2.967560e+01    8.357124e-01
  2.969148e+01    8.181509e-01
  2.970736e+01    7.912533e-01
  2.972323e+01    7.996696e-01
  2.973911e+01    8.250950e-01
  2.975498e+01    8.190384e-01
  2.977086e+01    8.145709e-01
  2.978673e+01    8.233653e-01
  2.980261e+01    8.068588e-01
  2.981848e+01    8.037201e-01
  2.983436e+01    7.918375e-01
  2.985024e+01    7.833236e-01
  2.986611e+01    7.889102e-01
  2.988199e+01    7.880673e-01
  2.989786e+01    7.967217e-01
  2.991374e+01    7.906013e-01
  2.992961e+01    8.152758e-01
  2.994549e+01    8.173556e-01
  2.996136e+01    7.941110e-01
  2.997724e+01    7.975365e-01
  2.999312e+01    8.073599e-01
  3.000899e+01    8.050933e-01
  3.002487e+01    8.035464e-01
  3.004074e+01    8.197079e-01
  3.005662e+01    8.158323e-01
  3.007249e+01    8.167632e-01
  3.008837e+01    8.097594e-01
  3.010424e+01    7.895370e-01
  3.012012e+01    8.192454e-01
  3.013600e+01    8.030097e-01
  3.015187e+01    8.008222e-01
  3.016775e+01    7.844357e-01
  3.018362e+01    7.831339e-01
  3.019950e+01    8.073139e-01
  3.021537e+01    7.898158e-01
  3.023125e+01    7.887852e-01
  3.024712e+01    7.963989e-01
  3.026300e+01    7.887017e-01
  3.027888e+01    7.837375e-01
  3.029475e+01    8.044530e-01
  3.031063e+01    8.157832e-01
  3.032650e+01    8.025997e-01
  3.034238e+01    7.930676e-01
  3.035825e+01    7.809753e-01
  3.037413e+01    7.787881e-01
  3.039000e+01    7.901394e-01
  3.040588e+01    7.902371e-01
  3.042176e+01    7.895619e-01
  3.043763e+01    8.005733e-01
  3.045351e+01    7.787445e-01
  3.046938e+01    7.792562e-01
  3.048526e+01    7.909059e-01
  3.050113e+01    7.872120e-01
  3.051701e+01    7.645844e-01
  3.053288e+01    7.694757e-01
  3.054876e+01    7.734205e-01
  3.056464e+01    7.868072e-01
  3.058051e+01    7.754338e-01
  3.059639e+01    7.946928e-01
  3.061226e+01    7.639556e-01
  3.062814e+01    7.929959e-01
  3.064401e+01    7.941642e-01
  3.065989e+01    7.689800e-01
  3.067577e+01    7.715880e-01
  3.069164e+01    8.062853e-01
  3.070752e+01    7.801455e-01
  3.072339e+01    7.898789e-01
  3.073927e+01    7.843055e-01
  3.075514e+01    7.794057e-01
  3.077102e+01    7.792453e-01
  3.078689e+01    7.736700e-01
  3.080277e+01    7.930077e-01
  3.081865e+01    8.076534e-01
  3.083452e+01    7.845607e-01
  3.085040e+01    7.876171e-01
  3.086627e+01    7.886176e-01
  3.088215e+01    7.670476e-01
  3.089802e+01    7.792497e-01
  3.091390e+01    7.767914e-01
  3.092977e+01    7.750117e-01
  3.094565e+01    7.801340e-01
  3.096153e+01    7.916960e-01
  3.097740e+01    7.726388e-01
  3.099328e+01    7.900313e-01
  3.100915e+01    7.984166e-01
  3.102503e+01    7.782753e-01
  3.104090e+01    7.721974e-01
  3.105678e+01    7.879434e-01
  3.107265e+01    7.841858e-01
  3.108853e+01    7.741438e-01
  3.110441e+01    7.787163e-01
  3.112028e+01    7.850761e-01
  3.113616e+01    7.890934e-01
  3.115203e+01    7.931427e-01
  3.116791e+01    7.999891e-01
  3.118378e+01    7.925273e-01
  3.119966e+01    7.998961e-01
  3.121553e+01    8.103945e-01
  3.123141e+01    8.051432e-01
  3.124729e+01    8.014405e-01
  3.126316e+01    8.105115e-01
  3.127904e+01    7.779856e-01
  3.129491e+01    8.029576e-01
  3.131079e+01    7.968363e-01
  3.132666e+01    7.973343e-01
  3.134254e+01    8.185710e-01
  3.135841e+01    8.300149e-01
  3.137429e+01    8.259714e-01
  3.139017e+01    7.973796e-01
  3.140604e+01    8.202531e-01
  3.142192e+01    8.271454e-01
  3.143779e+01    7.910041e-01
  3.145367e+01    8.140283e-01
  3.146954e+01    8.242642e-01
  3.148542e+01    8.098316e-01
  3.150129e+01    8.442254e-01
  3.151717e+01    8.398060e-01
  3.153305e+01    8.393337e-01
  3.154892e+01    8.317302e-01
  3.156480e+01    8.560007e-01
  3.158067e+01    8.493613e-01
  3.159655e+01    8.752443e-01
  3.161242e+01    8.896165e-01
  3.162830e+01    8.917192e-01
  3.164418e+01    9.071286e-01
  3.166005e+01    9.278715e-01
  3.167593e+01    9.538103e-01
  3.169180e+01    9.757710e-01
  3.170768e+01    1.036510e+00
  3.172355e+01    1.059265e+00
  3.173943e+01    1.114029e+00
  3.175530e+01    1.175197e+00
  3.177118e+01    1.256565e+00
  3.178706e+01    1.345279e+00
  3.180293e+01    1.462282e+00
  3.181881e+01    1.576472e+00
  3.183468e+01    1.705125e+00
  3.185056e+01    1.832418e+00
  3.186643e+01    1.939730e+00
  3.188231e+01    2.045865e+00
  3.189818e+01    2.081558e+00
  3.191406e+01    2.053138e+00
  3.192994e+01    2.062132e+00
  3.194581e+01    1.951272e+00
  3.196169e+01    1.829125e+00
  3.197756e+01    1.723969e+00
  3.199344e+01    1.579842e+00
  3.200931e+01    1.438585e+00
  3.202519e+01    1.306071e+00
  3.204106e+01    1.242684e+00
  3.205694e+01    1.183504e+00
  3.207282e+01    1.106760e+00
  3.208869e+01    1.060005e+00
  3.210457e+01    9.780463e-01
  3.212044e+01    9.660617e-01
  3.213632e+01    9.493117e-01
  3.215219e+01    9.098426e-01
  3.216807e+01    8.952984e-01
  3.218394e+01    8.790804e-01
  3.219982e+01    8.483222e-01
  3.221570e+01    8.565134e-01
  3.223157e+01    8.611447e-01
  3.224745e+01    8.511752e-01
  3.226332e+01    8.230067e-01
  3.227920e+01    8.318161e-01
  3.229507e+01    8.411975e-01
  3.231095e+01    8.309013e-01
  3.232682e+01    8.332651e-01
  3.234270e+01    7.993472e-01
  3.235858e+01    7.821345e-01
  3.237445e+01    8.031276e-01
  3.239033e+01    7.979358e-01
  3.240620e+01    8.087845e-01
  3.242208e+01    8.009557e-01
  3.243795e+01    7.871417e-01
  3.245383e+01    7.787969e-01
  3.246970e+01    7.931851e-01
  3.248558e+01    7.884167e-01
  3.250146e+01    7.778968e-01
  3.251733e+01    7.751645e-01
  3.253321e+01    7.674844e-01
  3.254908e+01    7.737899e-01
