# == pyFAI calibration ==
# Distance Sample to Detector: 0.3999999939076516 m
# PONI: 9.750e-02, 1.135e-01 m
# Rotations: -0.000175 0.000000 -0.000000 rad
# 
# == Fit2d calibration ==
# Distance Sample-beamCenter: 400.000 mm
# Center: x=1514.000, y=1300.000 pix
# Tilt: 0.010 deg  TiltPlanRot: 0.010 deg
# 
# Detector Detector	 Spline= None	 PixelSize= 7.500e-05, 7.500e-05 m
#    Detector has a mask: False 
#    Detector has a dark current: False 
#    detector has a flat field: False 
# 
# Wavelength: 6.888e-11 m
# Mask applied: user provided
# Dark current applied: False
# Flat field applied: False
# Polarization factor: 0.99
# Normalization factor: 1.0
# --> /home/myspot/data/2024_07_Rosario/Ru-CGO-ex/2024-07-27_003_Ru-CGO-ex_Reaction_dwell_000023_data_000001.dat
#       q_nm^-1             I 
  2.003187e-02    0.000000e+00
  3.590745e-02    0.000000e+00
  5.178302e-02    1.744654e-01
  6.765859e-02    4.144311e-01
  8.353417e-02    1.602680e-01
  9.940974e-02    5.654533e-02
  1.152853e-01    9.858581e-02
  1.311609e-01    7.111269e-02
  1.470365e-01    3.115591e-02
  1.629120e-01    1.200864e-01
  1.787876e-01    5.012014e-02
  1.946632e-01    4.402596e-02
  2.105388e-01    5.852407e-02
  2.264143e-01    5.110498e-02
  2.422899e-01    4.455807e-02
  2.581655e-01    2.263193e-02
  2.740411e-01    2.911722e-02
  2.899166e-01    4.161355e-02
  3.057922e-01    5.686015e-02
  3.216678e-01    1.025865e-01
  3.375433e-01    1.247750e-01
  3.534189e-01    1.150054e-01
  3.692945e-01    5.678786e-02
  3.851701e-01    5.124296e-02
  4.010456e-01    6.956688e-02
  4.169212e-01    3.737381e-02
  4.327968e-01    2.377456e-02
  4.486724e-01    5.259207e-02
  4.645479e-01    3.201867e-02
  4.804235e-01    3.884634e-02
  4.962991e-01    4.200215e-02
  5.121747e-01    5.474309e-02
  5.280502e-01    2.833332e-02
  5.439258e-01    2.426677e-02
  5.598014e-01    4.876563e-02
  5.756770e-01    4.323086e-02
  5.915525e-01    8.283705e-02
  6.074281e-01    6.149006e-02
  6.233037e-01    3.001603e-02
  6.391793e-01    4.400656e-02
  6.550548e-01    4.100528e-02
  6.709304e-01    4.601512e-02
  6.868060e-01    7.758160e-02
  7.026815e-01    4.235798e-02
  7.185571e-01    5.107981e-02
  7.344327e-01    3.428751e-02
  7.503083e-01    6.125299e-02
  7.661838e-01    9.127735e-02
  7.820594e-01    1.058684e-01
  7.979350e-01    1.450345e-01
  8.138106e-01    2.127321e-01
  8.296861e-01    2.937464e-01
  8.455617e-01    3.583707e-01
  8.614373e-01    4.645875e-01
  8.773129e-01    4.992209e-01
  8.931884e-01    5.070384e-01
  9.090640e-01    5.820984e-01
  9.249396e-01    6.547890e-01
  9.408152e-01    7.729263e-01
  9.566907e-01    9.457658e-01
  9.725663e-01    1.049135e+00
  9.884419e-01    1.065053e+00
  1.004317e+00    1.089053e+00
  1.020193e+00    1.280302e+00
  1.036069e+00    1.427053e+00
  1.051944e+00    1.502800e+00
  1.067820e+00    1.546246e+00
  1.083695e+00    1.611625e+00
  1.099571e+00    1.520510e+00
  1.115446e+00    1.583568e+00
  1.131322e+00    1.646307e+00
  1.147198e+00    1.698170e+00
  1.163073e+00    1.656046e+00
  1.178949e+00    1.629962e+00
  1.194824e+00    1.743795e+00
  1.210700e+00    1.973682e+00
  1.226575e+00    2.267860e+00
  1.242451e+00    2.434180e+00
  1.258327e+00    2.455503e+00
  1.274202e+00    2.695321e+00
  1.290078e+00    2.614562e+00
  1.305953e+00    2.638995e+00
  1.321829e+00    2.733870e+00
  1.337705e+00    2.784148e+00
  1.353580e+00    2.715278e+00
  1.369456e+00    2.712637e+00
  1.385331e+00    2.790351e+00
  1.401207e+00    2.747032e+00
  1.417082e+00    2.667809e+00
  1.432958e+00    2.858548e+00
  1.448834e+00    3.008693e+00
  1.464709e+00    3.109368e+00
  1.480585e+00    3.206817e+00
  1.496460e+00    3.231392e+00
  1.512336e+00    3.107216e+00
  1.528211e+00    3.001507e+00
  1.544087e+00    3.211298e+00
  1.559963e+00    3.314751e+00
  1.575838e+00    3.285595e+00
  1.591714e+00    3.229245e+00
  1.607589e+00    3.175126e+00
  1.623465e+00    3.253282e+00
  1.639340e+00    3.234202e+00
  1.655216e+00    3.235801e+00
  1.671092e+00    3.181771e+00
  1.686967e+00    3.109365e+00
  1.702843e+00    3.002906e+00
  1.718718e+00    3.142358e+00
  1.734594e+00    3.064534e+00
  1.750469e+00    3.051198e+00
  1.766345e+00    2.984482e+00
  1.782221e+00    3.084429e+00
  1.798096e+00    3.089666e+00
  1.813972e+00    3.207330e+00
  1.829847e+00    3.168147e+00
  1.845723e+00    3.169672e+00
  1.861598e+00    3.175159e+00
  1.877474e+00    3.026094e+00
  1.893350e+00    2.906492e+00
  1.909225e+00    3.091596e+00
  1.925101e+00    3.183107e+00
  1.940976e+00    3.016489e+00
  1.956852e+00    3.018946e+00
  1.972727e+00    3.032139e+00
  1.988603e+00    3.064880e+00
  2.004479e+00    3.089828e+00
  2.020354e+00    3.125035e+00
  2.036230e+00    3.050630e+00
  2.052105e+00    3.058109e+00
  2.067981e+00    3.119694e+00
  2.083856e+00    3.112368e+00
  2.099732e+00    3.075862e+00
  2.115608e+00    3.176359e+00
  2.131483e+00    3.273177e+00
  2.147359e+00    3.168888e+00
  2.163234e+00    3.091809e+00
  2.179110e+00    3.115573e+00
  2.194985e+00    3.190439e+00
  2.210861e+00    3.198502e+00
  2.226737e+00    3.100256e+00
  2.242612e+00    3.166754e+00
  2.258488e+00    3.123158e+00
  2.274363e+00    3.210861e+00
  2.290239e+00    3.248346e+00
  2.306115e+00    3.181210e+00
  2.321990e+00    3.255740e+00
  2.337866e+00    3.204162e+00
  2.353741e+00    3.140927e+00
  2.369617e+00    3.148561e+00
  2.385492e+00    3.181344e+00
  2.401368e+00    3.205629e+00
  2.417244e+00    3.196526e+00
  2.433119e+00    3.235519e+00
  2.448995e+00    3.198315e+00
  2.464870e+00    3.324341e+00
  2.480746e+00    3.265681e+00
  2.496621e+00    3.177788e+00
  2.512497e+00    3.171019e+00
  2.528373e+00    3.141317e+00
  2.544248e+00    3.098991e+00
  2.560124e+00    3.179187e+00
  2.575999e+00    3.284543e+00
  2.591875e+00    3.282645e+00
  2.607750e+00    3.230669e+00
  2.623626e+00    3.247626e+00
  2.639502e+00    3.289534e+00
  2.655377e+00    3.283921e+00
  2.671253e+00    3.329076e+00
  2.687128e+00    3.354224e+00
  2.703004e+00    3.352684e+00
  2.718879e+00    3.274391e+00
  2.734755e+00    3.256963e+00
  2.750631e+00    3.293592e+00
  2.766506e+00    3.399594e+00
  2.782382e+00    3.399404e+00
  2.798257e+00    3.286469e+00
  2.814133e+00    3.287406e+00
  2.830008e+00    3.324864e+00
  2.845884e+00    3.329844e+00
  2.861760e+00    3.315574e+00
  2.877635e+00    3.356807e+00
  2.893511e+00    3.366028e+00
  2.909386e+00    3.282668e+00
  2.925262e+00    3.276971e+00
  2.941137e+00    3.340796e+00
  2.957013e+00    3.258728e+00
  2.972889e+00    3.281072e+00
  2.988764e+00    3.346655e+00
  3.004640e+00    3.391824e+00
  3.020515e+00    3.477107e+00
  3.036391e+00    3.479381e+00
  3.052266e+00    3.408846e+00
  3.068142e+00    3.395303e+00
  3.084018e+00    3.427112e+00
  3.099893e+00    3.376270e+00
  3.115769e+00    3.278182e+00
  3.131644e+00    3.215722e+00
  3.147520e+00    3.339986e+00
  3.163395e+00    3.441218e+00
  3.179271e+00    3.417424e+00
  3.195147e+00    3.407056e+00
  3.211022e+00    3.424758e+00
  3.226898e+00    3.305536e+00
  3.242773e+00    3.453914e+00
  3.258649e+00    3.432106e+00
  3.274525e+00    3.407417e+00
  3.290400e+00    3.476649e+00
  3.306276e+00    3.455788e+00
  3.322151e+00    3.358052e+00
  3.338027e+00    3.344193e+00
  3.353902e+00    3.396605e+00
  3.369778e+00    3.364781e+00
  3.385654e+00    3.475021e+00
  3.401529e+00    3.553385e+00
  3.417405e+00    3.444901e+00
  3.433280e+00    3.418945e+00
  3.449156e+00    3.483410e+00
  3.465031e+00    3.522763e+00
  3.480907e+00    3.450912e+00
  3.496783e+00    3.451060e+00
  3.512658e+00    3.483315e+00
  3.528534e+00    3.513829e+00
  3.544409e+00    3.501186e+00
  3.560285e+00    3.539867e+00
  3.576160e+00    3.607446e+00
  3.592036e+00    3.533593e+00
  3.607912e+00    3.503944e+00
  3.623787e+00    3.496231e+00
  3.639663e+00    3.524610e+00
  3.655538e+00    3.581044e+00
  3.671414e+00    3.584722e+00
  3.687289e+00    3.635191e+00
  3.703165e+00    3.577827e+00
  3.719041e+00    3.478404e+00
  3.734916e+00    3.555967e+00
  3.750792e+00    3.536241e+00
  3.766667e+00    3.481527e+00
  3.782543e+00    3.519774e+00
  3.798418e+00    3.552375e+00
  3.814294e+00    3.526899e+00
  3.830170e+00    3.520761e+00
  3.846045e+00    3.512868e+00
  3.861921e+00    3.526768e+00
  3.877796e+00    3.589679e+00
  3.893672e+00    3.515040e+00
  3.909547e+00    3.431767e+00
  3.925423e+00    3.521214e+00
  3.941299e+00    3.580749e+00
  3.957174e+00    3.555888e+00
  3.973050e+00    3.551439e+00
  3.988925e+00    3.598019e+00
  4.004801e+00    3.598117e+00
  4.020676e+00    3.610492e+00
  4.036552e+00    3.552359e+00
  4.052428e+00    3.508934e+00
  4.068303e+00    3.519561e+00
  4.084179e+00    3.607205e+00
  4.100054e+00    3.588398e+00
  4.115930e+00    3.550305e+00
  4.131806e+00    3.557005e+00
  4.147681e+00    3.538293e+00
  4.163557e+00    3.564627e+00
  4.179432e+00    3.564244e+00
  4.195308e+00    3.604457e+00
  4.211183e+00    3.481309e+00
  4.227059e+00    3.521390e+00
  4.242935e+00    3.573972e+00
  4.258810e+00    3.585361e+00
  4.274686e+00    3.635138e+00
  4.290561e+00    3.621686e+00
  4.306437e+00    3.627276e+00
  4.322312e+00    3.618831e+00
  4.338188e+00    3.601940e+00
  4.354064e+00    3.603001e+00
  4.369939e+00    3.576600e+00
  4.385815e+00    3.624947e+00
  4.401690e+00    3.668057e+00
  4.417566e+00    3.645317e+00
  4.433441e+00    3.719356e+00
  4.449317e+00    3.738129e+00
  4.465193e+00    3.630741e+00
  4.481068e+00    3.618335e+00
  4.496944e+00    3.675656e+00
  4.512819e+00    3.645474e+00
  4.528695e+00    3.627553e+00
  4.544570e+00    3.614290e+00
  4.560446e+00    3.564160e+00
  4.576322e+00    3.657369e+00
  4.592197e+00    3.601280e+00
  4.608073e+00    3.695992e+00
  4.623948e+00    3.682950e+00
  4.639824e+00    3.655061e+00
  4.655699e+00    3.612658e+00
  4.671575e+00    3.579226e+00
  4.687451e+00    3.598319e+00
  4.703326e+00    3.653784e+00
  4.719202e+00    3.657560e+00
  4.735077e+00    3.645480e+00
  4.750953e+00    3.699379e+00
  4.766828e+00    3.691051e+00
  4.782704e+00    3.636120e+00
  4.798580e+00    3.569643e+00
  4.814455e+00    3.498121e+00
  4.830331e+00    3.603399e+00
  4.846206e+00    3.595019e+00
  4.862082e+00    3.637405e+00
  4.877957e+00    3.647825e+00
  4.893833e+00    3.682671e+00
  4.909709e+00    3.697089e+00
  4.925584e+00    3.669408e+00
  4.941460e+00    3.609233e+00
  4.957335e+00    3.586696e+00
  4.973211e+00    3.581224e+00
  4.989086e+00    3.681485e+00
  5.004962e+00    3.706045e+00
  5.020838e+00    3.629359e+00
  5.036713e+00    3.676271e+00
  5.052589e+00    3.726675e+00
  5.068464e+00    3.675905e+00
  5.084340e+00    3.616754e+00
  5.100216e+00    3.645838e+00
  5.116091e+00    3.613941e+00
  5.131967e+00    3.603288e+00
  5.147842e+00    3.628901e+00
  5.163718e+00    3.634989e+00
  5.179593e+00    3.678146e+00
  5.195469e+00    3.675887e+00
  5.211345e+00    3.658730e+00
  5.227220e+00    3.663721e+00
  5.243096e+00    3.689333e+00
  5.258971e+00    3.640332e+00
  5.274847e+00    3.563303e+00
  5.290722e+00    3.659267e+00
  5.306598e+00    3.692723e+00
  5.322474e+00    3.685006e+00
  5.338349e+00    3.687322e+00
  5.354225e+00    3.630965e+00
  5.370100e+00    3.644543e+00
  5.385976e+00    3.653176e+00
  5.401851e+00    3.639442e+00
  5.417727e+00    3.581382e+00
  5.433603e+00    3.662197e+00
  5.449478e+00    3.635410e+00
  5.465354e+00    3.637037e+00
  5.481229e+00    3.616033e+00
  5.497105e+00    3.618082e+00
  5.512980e+00    3.561716e+00
  5.528856e+00    3.530596e+00
  5.544732e+00    3.586483e+00
  5.560607e+00    3.618046e+00
  5.576483e+00    3.616686e+00
  5.592358e+00    3.634913e+00
  5.608234e+00    3.595916e+00
  5.624109e+00    3.576870e+00
  5.639985e+00    3.591192e+00
  5.655861e+00    3.599252e+00
  5.671736e+00    3.618655e+00
  5.687612e+00    3.654485e+00
  5.703487e+00    3.696193e+00
  5.719363e+00    3.688710e+00
  5.735238e+00    3.736180e+00
  5.751114e+00    3.666368e+00
  5.766990e+00    3.603929e+00
  5.782865e+00    3.624223e+00
  5.798741e+00    3.572712e+00
  5.814616e+00    3.488955e+00
  5.830492e+00    3.475127e+00
  5.846367e+00    3.507241e+00
  5.862243e+00    3.557219e+00
  5.878119e+00    3.486608e+00
  5.893994e+00    3.631686e+00
  5.909870e+00    3.610248e+00
  5.925745e+00    3.495175e+00
  5.941621e+00    3.565833e+00
  5.957497e+00    3.642986e+00
  5.973372e+00    3.634115e+00
  5.989248e+00    3.530524e+00
  6.005123e+00    3.568079e+00
  6.020999e+00    3.610966e+00
  6.036874e+00    3.658090e+00
  6.052750e+00    3.628802e+00
  6.068626e+00    3.533744e+00
  6.084501e+00    3.627672e+00
  6.100377e+00    3.706608e+00
  6.116252e+00    3.667506e+00
  6.132128e+00    3.581899e+00
  6.148003e+00    3.675751e+00
  6.163879e+00    3.568131e+00
  6.179755e+00    3.638216e+00
  6.195630e+00    3.637764e+00
  6.211506e+00    3.469449e+00
  6.227381e+00    3.547808e+00
  6.243257e+00    3.551563e+00
  6.259132e+00    3.556067e+00
  6.275008e+00    3.490139e+00
  6.290884e+00    3.635173e+00
  6.306759e+00    3.521395e+00
  6.322635e+00    3.549960e+00
  6.338510e+00    3.583620e+00
  6.354386e+00    3.553851e+00
  6.370261e+00    3.585258e+00
  6.386137e+00    3.584966e+00
  6.402013e+00    3.550193e+00
  6.417888e+00    3.486822e+00
  6.433764e+00    3.583916e+00
  6.449639e+00    3.649256e+00
  6.465515e+00    3.568525e+00
  6.481390e+00    3.532738e+00
  6.497266e+00    3.630154e+00
  6.513142e+00    3.600690e+00
  6.529017e+00    3.613424e+00
  6.544893e+00    3.495411e+00
  6.560768e+00    3.510204e+00
  6.576644e+00    3.601315e+00
  6.592519e+00    3.567803e+00
  6.608395e+00    3.499254e+00
  6.624271e+00    3.580906e+00
  6.640146e+00    3.564703e+00
  6.656022e+00    3.499987e+00
  6.671897e+00    3.572095e+00
  6.687773e+00    3.574839e+00
  6.703648e+00    3.553818e+00
  6.719524e+00    3.613737e+00
  6.735400e+00    3.572153e+00
  6.751275e+00    3.614542e+00
  6.767151e+00    3.542973e+00
  6.783026e+00    3.522272e+00
  6.798902e+00    3.559717e+00
  6.814777e+00    3.563670e+00
  6.830653e+00    3.549635e+00
  6.846529e+00    3.531363e+00
  6.862404e+00    3.593369e+00
  6.878280e+00    3.606427e+00
  6.894155e+00    3.553185e+00
  6.910031e+00    3.569372e+00
  6.925907e+00    3.548874e+00
  6.941782e+00    3.507737e+00
  6.957658e+00    3.584799e+00
  6.973533e+00    3.586356e+00
  6.989409e+00    3.562917e+00
  7.005284e+00    3.535950e+00
  7.021160e+00    3.562876e+00
  7.037036e+00    3.670377e+00
  7.052911e+00    3.628576e+00
  7.068787e+00    3.590151e+00
  7.084662e+00    3.579346e+00
  7.100538e+00    3.464024e+00
  7.116413e+00    3.491512e+00
  7.132289e+00    3.481151e+00
  7.148165e+00    3.535055e+00
  7.164040e+00    3.552680e+00
  7.179916e+00    3.582039e+00
  7.195791e+00    3.603381e+00
  7.211667e+00    3.526767e+00
  7.227542e+00    3.534094e+00
  7.243418e+00    3.565702e+00
  7.259294e+00    3.531516e+00
  7.275169e+00    3.564627e+00
  7.291045e+00    3.544693e+00
  7.306920e+00    3.522763e+00
  7.322796e+00    3.612162e+00
  7.338671e+00    3.562081e+00
  7.354547e+00    3.529731e+00
  7.370423e+00    3.487710e+00
  7.386298e+00    3.529482e+00
  7.402174e+00    3.512135e+00
  7.418049e+00    3.553743e+00
  7.433925e+00    3.447259e+00
  7.449800e+00    3.471264e+00
  7.465676e+00    3.477361e+00
  7.481552e+00    3.464159e+00
  7.497427e+00    3.415629e+00
  7.513303e+00    3.429167e+00
  7.529178e+00    3.472080e+00
  7.545054e+00    3.551452e+00
  7.560929e+00    3.498856e+00
  7.576805e+00    3.513503e+00
  7.592681e+00    3.481707e+00
  7.608556e+00    3.537049e+00
  7.624432e+00    3.490846e+00
  7.640307e+00    3.496477e+00
  7.656183e+00    3.482014e+00
  7.672058e+00    3.457141e+00
  7.687934e+00    3.476413e+00
  7.703810e+00    3.479443e+00
  7.719685e+00    3.471988e+00
  7.735561e+00    3.492220e+00
  7.751436e+00    3.399803e+00
  7.767312e+00    3.341456e+00
  7.783187e+00    3.414790e+00
  7.799063e+00    3.441459e+00
  7.814939e+00    3.528040e+00
  7.830814e+00    3.506699e+00
  7.846690e+00    3.477945e+00
  7.862565e+00    3.489303e+00
  7.878441e+00    3.467021e+00
  7.894317e+00    3.466673e+00
  7.910192e+00    3.452536e+00
  7.926068e+00    3.488601e+00
  7.941943e+00    3.418509e+00
  7.957819e+00    3.443024e+00
  7.973694e+00    3.413413e+00
  7.989570e+00    3.406053e+00
  8.005446e+00    3.405149e+00
  8.021321e+00    3.454478e+00
  8.037197e+00    3.437432e+00
  8.053072e+00    3.490501e+00
  8.068948e+00    3.431261e+00
  8.084823e+00    3.378354e+00
  8.100699e+00    3.517673e+00
  8.116575e+00    3.499166e+00
  8.132450e+00    3.477138e+00
  8.148326e+00    3.435699e+00
  8.164201e+00    3.469218e+00
  8.180077e+00    3.512990e+00
  8.195952e+00    3.516884e+00
  8.211828e+00    3.525154e+00
  8.227704e+00    3.531225e+00
  8.243579e+00    3.491646e+00
  8.259455e+00    3.405579e+00
  8.275330e+00    3.428006e+00
  8.291206e+00    3.398463e+00
  8.307081e+00    3.430810e+00
  8.322957e+00    3.432450e+00
  8.338833e+00    3.355474e+00
  8.354708e+00    3.362986e+00
  8.370584e+00    3.462157e+00
  8.386459e+00    3.391405e+00
  8.402335e+00    3.351304e+00
  8.418210e+00    3.429153e+00
  8.434086e+00    3.438091e+00
  8.449962e+00    3.398544e+00
  8.465837e+00    3.418571e+00
  8.481713e+00    3.424723e+00
  8.497588e+00    3.432986e+00
  8.513464e+00    3.446954e+00
  8.529339e+00    3.436615e+00
  8.545215e+00    3.369740e+00
  8.561091e+00    3.357790e+00
  8.576966e+00    3.429130e+00
  8.592842e+00    3.376784e+00
  8.608717e+00    3.380231e+00
  8.624593e+00    3.409250e+00
  8.640468e+00    3.379374e+00
  8.656344e+00    3.341329e+00
  8.672220e+00    3.343376e+00
  8.688095e+00    3.379581e+00
  8.703971e+00    3.348471e+00
  8.719846e+00    3.326338e+00
  8.735722e+00    3.316040e+00
  8.751598e+00    3.274990e+00
  8.767473e+00    3.256669e+00
  8.783349e+00    3.247716e+00
  8.799224e+00    3.368845e+00
  8.815100e+00    3.332497e+00
  8.830975e+00    3.315683e+00
  8.846851e+00    3.341604e+00
  8.862727e+00    3.408545e+00
  8.878602e+00    3.352696e+00
  8.894478e+00    3.323070e+00
  8.910353e+00    3.263808e+00
  8.926229e+00    3.251530e+00
  8.942104e+00    3.267568e+00
  8.957980e+00    3.347461e+00
  8.973856e+00    3.302397e+00
  8.989731e+00    3.300786e+00
  9.005607e+00    3.311319e+00
  9.021482e+00    3.281521e+00
  9.037358e+00    3.254009e+00
  9.053233e+00    3.365359e+00
  9.069109e+00    3.343190e+00
  9.084985e+00    3.286083e+00
  9.100860e+00    3.291179e+00
  9.116736e+00    3.339820e+00
  9.132611e+00    3.369722e+00
  9.148487e+00    3.297090e+00
  9.164362e+00    3.272645e+00
  9.180238e+00    3.276470e+00
  9.196114e+00    3.300594e+00
  9.211989e+00    3.326224e+00
  9.227865e+00    3.266865e+00
  9.243740e+00    3.217193e+00
  9.259616e+00    3.291149e+00
  9.275491e+00    3.309460e+00
  9.291367e+00    3.323351e+00
  9.307243e+00    3.225239e+00
  9.323118e+00    3.179390e+00
  9.338994e+00    3.238548e+00
  9.354869e+00    3.278719e+00
  9.370745e+00    3.278319e+00
  9.386620e+00    3.232706e+00
  9.402496e+00    3.255414e+00
  9.418372e+00    3.231192e+00
  9.434247e+00    3.240766e+00
  9.450123e+00    3.244738e+00
  9.465998e+00    3.247616e+00
  9.481874e+00    3.211020e+00
  9.497749e+00    3.215595e+00
  9.513625e+00    3.258543e+00
  9.529501e+00    3.281628e+00
  9.545376e+00    3.239839e+00
  9.561252e+00    3.243881e+00
  9.577127e+00    3.273926e+00
  9.593003e+00    3.251744e+00
  9.608878e+00    3.268220e+00
  9.624754e+00    3.242517e+00
  9.640630e+00    3.202040e+00
  9.656505e+00    3.187142e+00
  9.672381e+00    3.187860e+00
  9.688256e+00    3.196414e+00
  9.704132e+00    3.209725e+00
  9.720008e+00    3.249553e+00
  9.735883e+00    3.192015e+00
  9.751759e+00    3.251913e+00
  9.767634e+00    3.230939e+00
  9.783510e+00    3.218131e+00
  9.799385e+00    3.153185e+00
  9.815261e+00    3.147323e+00
  9.831137e+00    3.123375e+00
  9.847012e+00    3.136106e+00
  9.862888e+00    3.151832e+00
  9.878763e+00    3.125085e+00
  9.894639e+00    3.152103e+00
  9.910514e+00    3.133699e+00
  9.926390e+00    3.108643e+00
  9.942266e+00    3.115966e+00
  9.958141e+00    3.164824e+00
  9.974017e+00    3.118316e+00
  9.989892e+00    3.125036e+00
  1.000577e+01    3.144703e+00
  1.002164e+01    3.148350e+00
  1.003752e+01    3.095887e+00
  1.005339e+01    3.110595e+00
  1.006927e+01    3.129509e+00
  1.008515e+01    3.094762e+00
  1.010102e+01    3.092740e+00
  1.011690e+01    3.126659e+00
  1.013277e+01    3.104466e+00
  1.014865e+01    3.064085e+00
  1.016452e+01    3.065154e+00
  1.018040e+01    3.080087e+00
  1.019627e+01    3.088274e+00
  1.021215e+01    3.114980e+00
  1.022803e+01    3.112402e+00
  1.024390e+01    3.058282e+00
  1.025978e+01    3.068730e+00
  1.027565e+01    3.065630e+00
  1.029153e+01    3.095967e+00
  1.030740e+01    3.099587e+00
  1.032328e+01    3.102756e+00
  1.033915e+01    3.045929e+00
  1.035503e+01    3.068898e+00
  1.037091e+01    3.119607e+00
  1.038678e+01    3.088677e+00
  1.040266e+01    3.080261e+00
  1.041853e+01    3.024508e+00
  1.043441e+01    3.026072e+00
  1.045028e+01    2.995010e+00
  1.046616e+01    3.018254e+00
  1.048204e+01    3.009456e+00
  1.049791e+01    2.973778e+00
  1.051379e+01    3.020941e+00
  1.052966e+01    3.072170e+00
  1.054554e+01    3.027293e+00
  1.056141e+01    3.010090e+00
  1.057729e+01    3.040704e+00
  1.059316e+01    3.010342e+00
  1.060904e+01    2.976562e+00
  1.062492e+01    3.017519e+00
  1.064079e+01    3.049292e+00
  1.065667e+01    3.026165e+00
  1.067254e+01    3.007897e+00
  1.068842e+01    2.969385e+00
  1.070429e+01    3.018047e+00
  1.072017e+01    3.034910e+00
  1.073604e+01    2.921189e+00
  1.075192e+01    2.942661e+00
  1.076780e+01    2.968642e+00
  1.078367e+01    2.953225e+00
  1.079955e+01    2.984359e+00
  1.081542e+01    2.963411e+00
  1.083130e+01    2.971314e+00
  1.084717e+01    2.950020e+00
  1.086305e+01    2.933486e+00
  1.087892e+01    2.891793e+00
  1.089480e+01    2.952569e+00
  1.091068e+01    2.951017e+00
  1.092655e+01    2.886341e+00
  1.094243e+01    2.903180e+00
  1.095830e+01    2.926451e+00
  1.097418e+01    2.903002e+00
  1.099005e+01    2.945200e+00
  1.100593e+01    2.898281e+00
  1.102180e+01    2.896861e+00
  1.103768e+01    2.895268e+00
  1.105356e+01    2.942347e+00
  1.106943e+01    2.943627e+00
  1.108531e+01    2.981009e+00
  1.110118e+01    2.940609e+00
  1.111706e+01    2.881541e+00
  1.113293e+01    2.862480e+00
  1.114881e+01    2.906069e+00
  1.116468e+01    2.862078e+00
  1.118056e+01    2.848405e+00
  1.119644e+01    2.858992e+00
  1.121231e+01    2.859951e+00
  1.122819e+01    2.878364e+00
  1.124406e+01    2.890214e+00
  1.125994e+01    2.890346e+00
  1.127581e+01    2.851094e+00
  1.129169e+01    2.865456e+00
  1.130756e+01    2.867064e+00
  1.132344e+01    2.867148e+00
  1.133932e+01    2.827993e+00
  1.135519e+01    2.860673e+00
  1.137107e+01    2.885140e+00
  1.138694e+01    2.830891e+00
  1.140282e+01    2.856602e+00
  1.141869e+01    2.865376e+00
  1.143457e+01    2.875952e+00
  1.145045e+01    2.830320e+00
  1.146632e+01    2.822725e+00
  1.148220e+01    2.798253e+00
  1.149807e+01    2.761162e+00
  1.151395e+01    2.816909e+00
  1.152982e+01    2.858137e+00
  1.154570e+01    2.835966e+00
  1.156157e+01    2.843734e+00
  1.157745e+01    2.836029e+00
  1.159333e+01    2.814568e+00
  1.160920e+01    2.774180e+00
  1.162508e+01    2.810212e+00
  1.164095e+01    2.748086e+00
  1.165683e+01    2.768859e+00
  1.167270e+01    2.795235e+00
  1.168858e+01    2.800647e+00
  1.170445e+01    2.824388e+00
  1.172033e+01    2.799238e+00
  1.173621e+01    2.769593e+00
  1.175208e+01    2.760493e+00
  1.176796e+01    2.755795e+00
  1.178383e+01    2.757690e+00
  1.179971e+01    2.783291e+00
  1.181558e+01    2.803515e+00
  1.183146e+01    2.785964e+00
  1.184733e+01    2.784507e+00
  1.186321e+01    2.734956e+00
  1.187909e+01    2.744493e+00
  1.189496e+01    2.731002e+00
  1.191084e+01    2.717437e+00
  1.192671e+01    2.732927e+00
  1.194259e+01    2.721105e+00
  1.195846e+01    2.746246e+00
  1.197434e+01    2.724200e+00
  1.199021e+01    2.693519e+00
  1.200609e+01    2.673756e+00
  1.202197e+01    2.687931e+00
  1.203784e+01    2.723215e+00
  1.205372e+01    2.699643e+00
  1.206959e+01    2.687600e+00
  1.208547e+01    2.703014e+00
  1.210134e+01    2.694219e+00
  1.211722e+01    2.711808e+00
  1.213309e+01    2.732510e+00
  1.214897e+01    2.710642e+00
  1.216485e+01    2.695062e+00
  1.218072e+01    2.694151e+00
  1.219660e+01    2.711191e+00
  1.221247e+01    2.702150e+00
  1.222835e+01    2.681369e+00
  1.224422e+01    2.731083e+00
  1.226010e+01    2.665612e+00
  1.227597e+01    2.698166e+00
  1.229185e+01    2.701790e+00
  1.230773e+01    2.680290e+00
  1.232360e+01    2.657058e+00
  1.233948e+01    2.632805e+00
  1.235535e+01    2.660928e+00
  1.237123e+01    2.683263e+00
  1.238710e+01    2.667816e+00
  1.240298e+01    2.685158e+00
  1.241886e+01    2.732006e+00
  1.243473e+01    2.792596e+00
  1.245061e+01    2.720917e+00
  1.246648e+01    2.706501e+00
  1.248236e+01    2.697603e+00
  1.249823e+01    2.726048e+00
  1.251411e+01    2.715287e+00
  1.252998e+01    2.710905e+00
  1.254586e+01    2.742090e+00
  1.256174e+01    2.776360e+00
  1.257761e+01    2.753534e+00
  1.259349e+01    2.775380e+00
  1.260936e+01    2.730138e+00
  1.262524e+01    2.715621e+00
  1.264111e+01    2.792310e+00
  1.265699e+01    2.786729e+00
  1.267286e+01    2.824890e+00
  1.268874e+01    2.833084e+00
  1.270462e+01    2.791725e+00
  1.272049e+01    2.838701e+00
  1.273637e+01    2.875446e+00
  1.275224e+01    2.886685e+00
  1.276812e+01    2.924035e+00
  1.278399e+01    3.004538e+00
  1.279987e+01    2.980934e+00
  1.281574e+01    3.020669e+00
  1.283162e+01    3.108232e+00
  1.284750e+01    3.203782e+00
  1.286337e+01    3.323205e+00
  1.287925e+01    3.414278e+00
  1.289512e+01    3.543924e+00
  1.291100e+01    3.679808e+00
  1.292687e+01    3.850350e+00
  1.294275e+01    4.097684e+00
  1.295862e+01    4.311793e+00
  1.297450e+01    4.733819e+00
  1.299038e+01    5.279479e+00
  1.300625e+01    5.936614e+00
  1.302213e+01    6.762552e+00
  1.303800e+01    7.739360e+00
  1.305388e+01    8.884439e+00
  1.306975e+01    1.019093e+01
  1.308563e+01    1.136089e+01
  1.310150e+01    1.264362e+01
  1.311738e+01    1.384187e+01
  1.313326e+01    1.470664e+01
  1.314913e+01    1.564090e+01
  1.316501e+01    1.621935e+01
  1.318088e+01    1.638085e+01
  1.319676e+01    1.569364e+01
  1.321263e+01    1.433248e+01
  1.322851e+01    1.249303e+01
  1.324438e+01    1.070717e+01
  1.326026e+01    9.125920e+00
  1.327614e+01    7.819279e+00
  1.329201e+01    6.791460e+00
  1.330789e+01    5.978290e+00
  1.332376e+01    5.332705e+00
  1.333964e+01    4.830988e+00
  1.335551e+01    4.485745e+00
  1.337139e+01    4.074080e+00
  1.338727e+01    3.852175e+00
  1.340314e+01    3.699776e+00
  1.341902e+01    3.485978e+00
  1.343489e+01    3.357334e+00
  1.345077e+01    3.211067e+00
  1.346664e+01    3.120832e+00
  1.348252e+01    3.009866e+00
  1.349839e+01    2.989513e+00
  1.351427e+01    2.943006e+00
  1.353015e+01    2.880981e+00
  1.354602e+01    2.812094e+00
  1.356190e+01    2.808587e+00
  1.357777e+01    2.757635e+00
  1.359365e+01    2.681607e+00
  1.360952e+01    2.645055e+00
  1.362540e+01    2.694615e+00
  1.364127e+01    2.646387e+00
  1.365715e+01    2.645702e+00
  1.367303e+01    2.658108e+00
  1.368890e+01    2.646873e+00
  1.370478e+01    2.578979e+00
  1.372065e+01    2.559577e+00
  1.373653e+01    2.549928e+00
  1.375240e+01    2.515017e+00
  1.376828e+01    2.498039e+00
  1.378415e+01    2.485259e+00
  1.380003e+01    2.489204e+00
  1.381591e+01    2.488110e+00
  1.383178e+01    2.469208e+00
  1.384766e+01    2.457804e+00
  1.386353e+01    2.453651e+00
  1.387941e+01    2.431000e+00
  1.389528e+01    2.428153e+00
  1.391116e+01    2.407369e+00
  1.392703e+01    2.391484e+00
  1.394291e+01    2.375287e+00
  1.395879e+01    2.421663e+00
  1.397466e+01    2.399296e+00
  1.399054e+01    2.392691e+00
  1.400641e+01    2.373509e+00
  1.402229e+01    2.359855e+00
  1.403816e+01    2.341039e+00
  1.405404e+01    2.352985e+00
  1.406991e+01    2.366460e+00
  1.408579e+01    2.357883e+00
  1.410167e+01    2.349939e+00
  1.411754e+01    2.352345e+00
  1.413342e+01    2.336406e+00
  1.414929e+01    2.328188e+00
  1.416517e+01    2.363379e+00
  1.418104e+01    2.332664e+00
  1.419692e+01    2.332056e+00
  1.421279e+01    2.334401e+00
  1.422867e+01    2.334267e+00
  1.424455e+01    2.280030e+00
  1.426042e+01    2.269669e+00
  1.427630e+01    2.282603e+00
  1.429217e+01    2.258768e+00
  1.430805e+01    2.261593e+00
  1.432392e+01    2.259402e+00
  1.433980e+01    2.276745e+00
  1.435568e+01    2.262639e+00
  1.437155e+01    2.268842e+00
  1.438743e+01    2.284542e+00
  1.440330e+01    2.285239e+00
  1.441918e+01    2.284719e+00
  1.443505e+01    2.228009e+00
  1.445093e+01    2.228260e+00
  1.446680e+01    2.269300e+00
  1.448268e+01    2.271407e+00
  1.449856e+01    2.255935e+00
  1.451443e+01    2.219183e+00
  1.453031e+01    2.221054e+00
  1.454618e+01    2.202889e+00
  1.456206e+01    2.211858e+00
  1.457793e+01    2.224897e+00
  1.459381e+01    2.203788e+00
  1.460968e+01    2.214233e+00
  1.462556e+01    2.249693e+00
  1.464144e+01    2.262823e+00
  1.465731e+01    2.217872e+00
  1.467319e+01    2.193128e+00
  1.468906e+01    2.198226e+00
  1.470494e+01    2.203681e+00
  1.472081e+01    2.190526e+00
  1.473669e+01    2.193984e+00
  1.475256e+01    2.222866e+00
  1.476844e+01    2.216499e+00
  1.478432e+01    2.190088e+00
  1.480019e+01    2.227632e+00
  1.481607e+01    2.222489e+00
  1.483194e+01    2.250584e+00
  1.484782e+01    2.253565e+00
  1.486369e+01    2.230112e+00
  1.487957e+01    2.250354e+00
  1.489544e+01    2.249755e+00
  1.491132e+01    2.257756e+00
  1.492720e+01    2.300191e+00
  1.494307e+01    2.306153e+00
  1.495895e+01    2.308166e+00
  1.497482e+01    2.337857e+00
  1.499070e+01    2.397827e+00
  1.500657e+01    2.424270e+00
  1.502245e+01    2.527750e+00
  1.503832e+01    2.607411e+00
  1.505420e+01    2.751335e+00
  1.507008e+01    2.927836e+00
  1.508595e+01    3.050937e+00
  1.510183e+01    3.222743e+00
  1.511770e+01    3.479591e+00
  1.513358e+01    3.830964e+00
  1.514945e+01    4.247406e+00
  1.516533e+01    4.513573e+00
  1.518120e+01    4.884932e+00
  1.519708e+01    5.196319e+00
  1.521296e+01    5.438844e+00
  1.522883e+01    5.617507e+00
  1.524471e+01    5.694910e+00
  1.526058e+01    5.753370e+00
  1.527646e+01    5.604290e+00
  1.529233e+01    5.427214e+00
  1.530821e+01    5.117139e+00
  1.532409e+01    4.653800e+00
  1.533996e+01    4.263891e+00
  1.535584e+01    3.763756e+00
  1.537171e+01    3.450986e+00
  1.538759e+01    3.130280e+00
  1.540346e+01    2.910914e+00
  1.541934e+01    2.783147e+00
  1.543521e+01    2.641874e+00
  1.545109e+01    2.553312e+00
  1.546697e+01    2.442721e+00
  1.548284e+01    2.391590e+00
  1.549872e+01    2.368614e+00
  1.551459e+01    2.274388e+00
  1.553047e+01    2.186969e+00
  1.554634e+01    2.206189e+00
  1.556222e+01    2.152947e+00
  1.557809e+01    2.143098e+00
  1.559397e+01    2.160544e+00
  1.560985e+01    2.103697e+00
  1.562572e+01    2.042091e+00
  1.564160e+01    2.027586e+00
  1.565747e+01    2.037742e+00
  1.567335e+01    2.013088e+00
  1.568922e+01    2.018351e+00
  1.570510e+01    2.015953e+00
  1.572097e+01    1.992368e+00
  1.573685e+01    1.982377e+00
  1.575273e+01    1.971216e+00
  1.576860e+01    1.925392e+00
  1.578448e+01    1.957528e+00
  1.580035e+01    1.930526e+00
  1.581623e+01    1.947434e+00
  1.583210e+01    1.953860e+00
  1.584798e+01    1.961898e+00
  1.586385e+01    1.927982e+00
  1.587973e+01    1.893738e+00
  1.589561e+01    1.938308e+00
  1.591148e+01    1.917029e+00
  1.592736e+01    1.894581e+00
  1.594323e+01    1.878071e+00
  1.595911e+01    1.868594e+00
  1.597498e+01    1.896500e+00
  1.599086e+01    1.904703e+00
  1.600673e+01    1.899092e+00
  1.602261e+01    1.886326e+00
  1.603849e+01    1.878788e+00
  1.605436e+01    1.866347e+00
  1.607024e+01    1.864277e+00
  1.608611e+01    1.845444e+00
  1.610199e+01    1.833031e+00
  1.611786e+01    1.852616e+00
  1.613374e+01    1.830190e+00
  1.614961e+01    1.835594e+00
  1.616549e+01    1.861101e+00
  1.618137e+01    1.861127e+00
  1.619724e+01    1.808718e+00
  1.621312e+01    1.801590e+00
  1.622899e+01    1.814671e+00
  1.624487e+01    1.820589e+00
  1.626074e+01    1.846128e+00
  1.627662e+01    1.848284e+00
  1.629250e+01    1.808740e+00
  1.630837e+01    1.812496e+00
  1.632425e+01    1.816922e+00
  1.634012e+01    1.786752e+00
  1.635600e+01    1.768423e+00
  1.637187e+01    1.782062e+00
  1.638775e+01    1.807136e+00
  1.640362e+01    1.805989e+00
  1.641950e+01    1.798759e+00
  1.643538e+01    1.796426e+00
  1.645125e+01    1.794214e+00
  1.646713e+01    1.784923e+00
  1.648300e+01    1.770342e+00
  1.649888e+01    1.760653e+00
  1.651475e+01    1.759122e+00
  1.653063e+01    1.756522e+00
  1.654650e+01    1.748940e+00
  1.656238e+01    1.742699e+00
  1.657826e+01    1.759673e+00
  1.659413e+01    1.736172e+00
  1.661001e+01    1.755211e+00
  1.662588e+01    1.762634e+00
  1.664176e+01    1.741926e+00
  1.665763e+01    1.760553e+00
  1.667351e+01    1.753688e+00
  1.668938e+01    1.726171e+00
  1.670526e+01    1.750369e+00
  1.672114e+01    1.715038e+00
  1.673701e+01    1.726012e+00
  1.675289e+01    1.726322e+00
  1.676876e+01    1.717712e+00
  1.678464e+01    1.703933e+00
  1.680051e+01    1.695735e+00
  1.681639e+01    1.728865e+00
  1.683226e+01    1.693801e+00
  1.684814e+01    1.694168e+00
  1.686402e+01    1.704685e+00
  1.687989e+01    1.676558e+00
  1.689577e+01    1.684135e+00
  1.691164e+01    1.698125e+00
  1.692752e+01    1.679689e+00
  1.694339e+01    1.690401e+00
  1.695927e+01    1.695398e+00
  1.697514e+01    1.675997e+00
  1.699102e+01    1.647463e+00
  1.700690e+01    1.654911e+00
  1.702277e+01    1.668296e+00
  1.703865e+01    1.637256e+00
  1.705452e+01    1.667313e+00
  1.707040e+01    1.680176e+00
  1.708627e+01    1.639265e+00
  1.710215e+01    1.624788e+00
  1.711802e+01    1.626831e+00
  1.713390e+01    1.621845e+00
  1.714978e+01    1.644506e+00
  1.716565e+01    1.658498e+00
  1.718153e+01    1.651382e+00
  1.719740e+01    1.637911e+00
  1.721328e+01    1.636164e+00
  1.722915e+01    1.640228e+00
  1.724503e+01    1.673262e+00
  1.726091e+01    1.660177e+00
  1.727678e+01    1.645522e+00
  1.729266e+01    1.640115e+00
  1.730853e+01    1.621151e+00
  1.732441e+01    1.615144e+00
  1.734028e+01    1.619047e+00
  1.735616e+01    1.627703e+00
  1.737203e+01    1.625416e+00
  1.738791e+01    1.628225e+00
  1.740379e+01    1.608678e+00
  1.741966e+01    1.599323e+00
  1.743554e+01    1.583132e+00
  1.745141e+01    1.595906e+00
  1.746729e+01    1.600043e+00
  1.748316e+01    1.595352e+00
  1.749904e+01    1.580858e+00
  1.751491e+01    1.558525e+00
  1.753079e+01    1.579879e+00
  1.754667e+01    1.600985e+00
  1.756254e+01    1.590004e+00
  1.757842e+01    1.577592e+00
  1.759429e+01    1.593553e+00
  1.761017e+01    1.581019e+00
  1.762604e+01    1.563445e+00
  1.764192e+01    1.547504e+00
  1.765779e+01    1.555142e+00
  1.767367e+01    1.543327e+00
  1.768955e+01    1.570166e+00
  1.770542e+01    1.573101e+00
  1.772130e+01    1.588303e+00
  1.773717e+01    1.562539e+00
  1.775305e+01    1.557089e+00
  1.776892e+01    1.544525e+00
  1.778480e+01    1.536066e+00
  1.780067e+01    1.576314e+00
  1.781655e+01    1.587168e+00
  1.783243e+01    1.569300e+00
  1.784830e+01    1.566940e+00
  1.786418e+01    1.564797e+00
  1.788005e+01    1.536185e+00
  1.789593e+01    1.533435e+00
  1.791180e+01    1.538394e+00
  1.792768e+01    1.564486e+00
  1.794355e+01    1.537872e+00
  1.795943e+01    1.519583e+00
  1.797531e+01    1.553935e+00
  1.799118e+01    1.521250e+00
  1.800706e+01    1.520503e+00
  1.802293e+01    1.517156e+00
  1.803881e+01    1.500639e+00
  1.805468e+01    1.522502e+00
  1.807056e+01    1.541023e+00
  1.808643e+01    1.498093e+00
  1.810231e+01    1.493650e+00
  1.811819e+01    1.479272e+00
  1.813406e+01    1.485923e+00
  1.814994e+01    1.490815e+00
  1.816581e+01    1.497658e+00
  1.818169e+01    1.502560e+00
  1.819756e+01    1.511502e+00
  1.821344e+01    1.512309e+00
  1.822932e+01    1.485355e+00
  1.824519e+01    1.481471e+00
  1.826107e+01    1.498670e+00
  1.827694e+01    1.473893e+00
  1.829282e+01    1.448903e+00
  1.830869e+01    1.502682e+00
  1.832457e+01    1.518219e+00
  1.834044e+01    1.457339e+00
  1.835632e+01    1.426224e+00
  1.837220e+01    1.454665e+00
  1.838807e+01    1.456523e+00
  1.840395e+01    1.458724e+00
  1.841982e+01    1.454222e+00
  1.843570e+01    1.458706e+00
  1.845157e+01    1.478949e+00
  1.846745e+01    1.476314e+00
  1.848332e+01    1.455180e+00
  1.849920e+01    1.416143e+00
  1.851508e+01    1.424906e+00
  1.853095e+01    1.427825e+00
  1.854683e+01    1.461209e+00
  1.856270e+01    1.469550e+00
  1.857858e+01    1.418330e+00
  1.859445e+01    1.435355e+00
  1.861033e+01    1.438241e+00
  1.862620e+01    1.406247e+00
  1.864208e+01    1.422373e+00
  1.865796e+01    1.464830e+00
  1.867383e+01    1.463376e+00
  1.868971e+01    1.468381e+00
  1.870558e+01    1.428650e+00
  1.872146e+01    1.411688e+00
  1.873733e+01    1.413585e+00
  1.875321e+01    1.422716e+00
  1.876908e+01    1.407494e+00
  1.878496e+01    1.438351e+00
  1.880084e+01    1.414130e+00
  1.881671e+01    1.412066e+00
  1.883259e+01    1.399436e+00
  1.884846e+01    1.395170e+00
  1.886434e+01    1.416463e+00
  1.888021e+01    1.429331e+00
  1.889609e+01    1.405046e+00
  1.891196e+01    1.405939e+00
  1.892784e+01    1.405121e+00
  1.894372e+01    1.392259e+00
  1.895959e+01    1.384807e+00
  1.897547e+01    1.392063e+00
  1.899134e+01    1.417612e+00
  1.900722e+01    1.421966e+00
  1.902309e+01    1.370177e+00
  1.903897e+01    1.381491e+00
  1.905484e+01    1.378302e+00
  1.907072e+01    1.389756e+00
  1.908660e+01    1.385910e+00
  1.910247e+01    1.391217e+00
  1.911835e+01    1.408913e+00
  1.913422e+01    1.399729e+00
  1.915010e+01    1.378401e+00
  1.916597e+01    1.370074e+00
  1.918185e+01    1.385533e+00
  1.919773e+01    1.371526e+00
  1.921360e+01    1.363765e+00
  1.922948e+01    1.362721e+00
  1.924535e+01    1.340823e+00
  1.926123e+01    1.356617e+00
  1.927710e+01    1.346550e+00
  1.929298e+01    1.352275e+00
  1.930885e+01    1.343133e+00
  1.932473e+01    1.334571e+00
  1.934061e+01    1.361191e+00
  1.935648e+01    1.356773e+00
  1.937236e+01    1.342561e+00
  1.938823e+01    1.348414e+00
  1.940411e+01    1.361941e+00
  1.941998e+01    1.348957e+00
  1.943586e+01    1.355610e+00
  1.945173e+01    1.351610e+00
  1.946761e+01    1.355278e+00
  1.948349e+01    1.326566e+00
  1.949936e+01    1.314561e+00
  1.951524e+01    1.329321e+00
  1.953111e+01    1.341339e+00
  1.954699e+01    1.340796e+00
  1.956286e+01    1.360968e+00
  1.957874e+01    1.341763e+00
  1.959461e+01    1.318389e+00
  1.961049e+01    1.317597e+00
  1.962637e+01    1.310361e+00
  1.964224e+01    1.321596e+00
  1.965812e+01    1.321584e+00
  1.967399e+01    1.296892e+00
  1.968987e+01    1.313764e+00
  1.970574e+01    1.336550e+00
  1.972162e+01    1.346481e+00
  1.973749e+01    1.315469e+00
  1.975337e+01    1.313700e+00
  1.976925e+01    1.291610e+00
  1.978512e+01    1.312181e+00
  1.980100e+01    1.324254e+00
  1.981687e+01    1.327311e+00
  1.983275e+01    1.322303e+00
  1.984862e+01    1.280518e+00
  1.986450e+01    1.299313e+00
  1.988037e+01    1.277452e+00
  1.989625e+01    1.278820e+00
  1.991213e+01    1.306957e+00
  1.992800e+01    1.295748e+00
  1.994388e+01    1.272925e+00
  1.995975e+01    1.290795e+00
  1.997563e+01    1.307207e+00
  1.999150e+01    1.305275e+00
  2.000738e+01    1.271247e+00
  2.002325e+01    1.259251e+00
  2.003913e+01    1.292377e+00
  2.005501e+01    1.292379e+00
  2.007088e+01    1.270590e+00
  2.008676e+01    1.272733e+00
  2.010263e+01    1.286529e+00
  2.011851e+01    1.270986e+00
  2.013438e+01    1.276904e+00
  2.015026e+01    1.273620e+00
  2.016614e+01    1.278292e+00
  2.018201e+01    1.291314e+00
  2.019789e+01    1.271538e+00
  2.021376e+01    1.281906e+00
  2.022964e+01    1.289897e+00
  2.024551e+01    1.293493e+00
  2.026139e+01    1.300749e+00
  2.027726e+01    1.271154e+00
  2.029314e+01    1.248630e+00
  2.030902e+01    1.241311e+00
  2.032489e+01    1.259734e+00
  2.034077e+01    1.291903e+00
  2.035664e+01    1.282630e+00
  2.037252e+01    1.248439e+00
  2.038839e+01    1.251989e+00
  2.040427e+01    1.237310e+00
  2.042014e+01    1.246432e+00
  2.043602e+01    1.254192e+00
  2.045190e+01    1.254202e+00
  2.046777e+01    1.239387e+00
  2.048365e+01    1.244593e+00
  2.049952e+01    1.224769e+00
  2.051540e+01    1.257735e+00
  2.053127e+01    1.244048e+00
  2.054715e+01    1.235907e+00
  2.056302e+01    1.249006e+00
  2.057890e+01    1.243451e+00
  2.059478e+01    1.260316e+00
  2.061065e+01    1.270216e+00
  2.062653e+01    1.220222e+00
  2.064240e+01    1.249161e+00
  2.065828e+01    1.246790e+00
  2.067415e+01    1.239441e+00
  2.069003e+01    1.232598e+00
  2.070590e+01    1.221493e+00
  2.072178e+01    1.224169e+00
  2.073766e+01    1.217301e+00
  2.075353e+01    1.224520e+00
  2.076941e+01    1.223116e+00
  2.078528e+01    1.209361e+00
  2.080116e+01    1.217372e+00
  2.081703e+01    1.221177e+00
  2.083291e+01    1.259321e+00
  2.084878e+01    1.252586e+00
  2.086466e+01    1.217174e+00
  2.088054e+01    1.229176e+00
  2.089641e+01    1.256447e+00
  2.091229e+01    1.263005e+00
  2.092816e+01    1.264110e+00
  2.094404e+01    1.246685e+00
  2.095991e+01    1.230730e+00
  2.097579e+01    1.248152e+00
  2.099166e+01    1.227492e+00
  2.100754e+01    1.212051e+00
  2.102342e+01    1.195315e+00
  2.103929e+01    1.224911e+00
  2.105517e+01    1.221916e+00
  2.107104e+01    1.228766e+00
  2.108692e+01    1.247938e+00
  2.110279e+01    1.234503e+00
  2.111867e+01    1.222167e+00
  2.113455e+01    1.226141e+00
  2.115042e+01    1.239975e+00
  2.116630e+01    1.235140e+00
  2.118217e+01    1.229868e+00
  2.119805e+01    1.243352e+00
  2.121392e+01    1.272908e+00
  2.122980e+01    1.253039e+00
  2.124567e+01    1.257215e+00
  2.126155e+01    1.247971e+00
  2.127743e+01    1.251254e+00
  2.129330e+01    1.256812e+00
  2.130918e+01    1.247495e+00
  2.132505e+01    1.262072e+00
  2.134093e+01    1.306547e+00
  2.135680e+01    1.307469e+00
  2.137268e+01    1.279568e+00
  2.138855e+01    1.306466e+00
  2.140443e+01    1.324502e+00
  2.142031e+01    1.316844e+00
  2.143618e+01    1.356577e+00
  2.145206e+01    1.366639e+00
  2.146793e+01    1.377436e+00
  2.148381e+01    1.416292e+00
  2.149968e+01    1.435390e+00
  2.151556e+01    1.457722e+00
  2.153143e+01    1.499305e+00
  2.154731e+01    1.521812e+00
  2.156319e+01    1.564851e+00
  2.157906e+01    1.615722e+00
  2.159494e+01    1.657846e+00
  2.161081e+01    1.737074e+00
  2.162669e+01    1.828509e+00
  2.164256e+01    1.967560e+00
  2.165844e+01    2.109787e+00
  2.167431e+01    2.268448e+00
  2.169019e+01    2.504411e+00
  2.170607e+01    2.775822e+00
  2.172194e+01    3.102482e+00
  2.173782e+01    3.538849e+00
  2.175369e+01    4.032126e+00
  2.176957e+01    4.547670e+00
  2.178544e+01    5.223310e+00
  2.180132e+01    5.857448e+00
  2.181719e+01    6.487044e+00
  2.183307e+01    7.124436e+00
  2.184895e+01    7.810725e+00
  2.186482e+01    8.412517e+00
  2.188070e+01    8.826727e+00
  2.189657e+01    8.946939e+00
  2.191245e+01    8.769691e+00
  2.192832e+01    8.253822e+00
  2.194420e+01    7.511792e+00
  2.196007e+01    6.577334e+00
  2.197595e+01    5.723009e+00
  2.199183e+01    4.873193e+00
  2.200770e+01    4.191532e+00
  2.202358e+01    3.628268e+00
  2.203945e+01    3.200432e+00
  2.205533e+01    2.866045e+00
  2.207120e+01    2.585608e+00
  2.208708e+01    2.347463e+00
  2.210296e+01    2.138030e+00
  2.211883e+01    1.985195e+00
  2.213471e+01    1.880468e+00
  2.215058e+01    1.788492e+00
  2.216646e+01    1.687810e+00
  2.218233e+01    1.610613e+00
  2.219821e+01    1.559402e+00
  2.221408e+01    1.507538e+00
  2.222996e+01    1.466514e+00
  2.224584e+01    1.415339e+00
  2.226171e+01    1.361809e+00
  2.227759e+01    1.328624e+00
  2.229346e+01    1.322124e+00
  2.230934e+01    1.300853e+00
  2.232521e+01    1.283987e+00
  2.234109e+01    1.289721e+00
  2.235696e+01    1.274874e+00
  2.237284e+01    1.233492e+00
  2.238872e+01    1.203380e+00
  2.240459e+01    1.187069e+00
  2.242047e+01    1.174265e+00
  2.243634e+01    1.156546e+00
  2.245222e+01    1.164574e+00
  2.246809e+01    1.169808e+00
  2.248397e+01    1.182305e+00
  2.249984e+01    1.148865e+00
  2.251572e+01    1.124105e+00
  2.253160e+01    1.167455e+00
  2.254747e+01    1.151556e+00
  2.256335e+01    1.130266e+00
  2.257922e+01    1.122093e+00
  2.259510e+01    1.121150e+00
  2.261097e+01    1.118654e+00
  2.262685e+01    1.110638e+00
  2.264272e+01    1.101094e+00
  2.265860e+01    1.095275e+00
  2.267448e+01    1.093461e+00
  2.269035e+01    1.092387e+00
  2.270623e+01    1.093360e+00
  2.272210e+01    1.083288e+00
  2.273798e+01    1.079973e+00
  2.275385e+01    1.072831e+00
  2.276973e+01    1.047837e+00
  2.278560e+01    1.052526e+00
  2.280148e+01    1.079577e+00
  2.281736e+01    1.061179e+00
  2.283323e+01    1.042874e+00
  2.284911e+01    1.051896e+00
  2.286498e+01    1.027388e+00
  2.288086e+01    1.031343e+00
  2.289673e+01    1.035073e+00
  2.291261e+01    1.043277e+00
  2.292848e+01    1.049746e+00
  2.294436e+01    1.046094e+00
  2.296024e+01    1.045481e+00
  2.297611e+01    1.029682e+00
  2.299199e+01    1.020673e+00
  2.300786e+01    1.004657e+00
  2.302374e+01    1.029648e+00
  2.303961e+01    1.028310e+00
  2.305549e+01    1.029670e+00
  2.307137e+01    1.014144e+00
  2.308724e+01    1.020522e+00
  2.310312e+01    1.033830e+00
  2.311899e+01    1.017671e+00
  2.313487e+01    1.022453e+00
  2.315074e+01    9.989380e-01
  2.316662e+01    1.002699e+00
  2.318249e+01    1.008313e+00
  2.319837e+01    1.000470e+00
  2.321425e+01    1.003097e+00
  2.323012e+01    9.936802e-01
  2.324600e+01    9.953629e-01
  2.326187e+01    1.010020e+00
  2.327775e+01    9.946366e-01
  2.329362e+01    9.956080e-01
  2.330950e+01    1.001449e+00
  2.332537e+01    1.001780e+00
  2.334125e+01    9.816006e-01
  2.335713e+01    9.730600e-01
  2.337300e+01    9.929780e-01
  2.338888e+01    9.933200e-01
  2.340475e+01    9.876348e-01
  2.342063e+01    9.919459e-01
  2.343650e+01    9.893331e-01
  2.345238e+01    9.706187e-01
  2.346825e+01    9.827036e-01
  2.348413e+01    9.674104e-01
  2.350001e+01    9.778360e-01
  2.351588e+01    9.633805e-01
  2.353176e+01    9.640742e-01
  2.354763e+01    9.503290e-01
  2.356351e+01    9.716985e-01
  2.357938e+01    9.860309e-01
  2.359526e+01    9.775192e-01
  2.361113e+01    9.804379e-01
  2.362701e+01    9.590001e-01
  2.364289e+01    9.523730e-01
  2.365876e+01    9.763429e-01
  2.367464e+01    9.604697e-01
  2.369051e+01    9.357368e-01
  2.370639e+01    9.392764e-01
  2.372226e+01    9.517304e-01
  2.373814e+01    9.469653e-01
  2.375401e+01    9.386129e-01
  2.376989e+01    9.201783e-01
  2.378577e+01    9.140987e-01
  2.380164e+01    9.143128e-01
  2.381752e+01    9.292357e-01
  2.383339e+01    9.016479e-01
  2.384927e+01    9.352577e-01
  2.386514e+01    9.348881e-01
  2.388102e+01    9.198508e-01
  2.389689e+01    9.256296e-01
  2.391277e+01    9.165098e-01
  2.392865e+01    9.256959e-01
  2.394452e+01    8.920857e-01
  2.396040e+01    9.068124e-01
  2.397627e+01    9.131622e-01
  2.399215e+01    9.120198e-01
  2.400802e+01    8.988023e-01
  2.402390e+01    8.858686e-01
  2.403978e+01    8.892430e-01
  2.405565e+01    8.797586e-01
  2.407153e+01    8.800138e-01
  2.408740e+01    8.874468e-01
  2.410328e+01    8.890615e-01
  2.411915e+01    8.989098e-01
  2.413503e+01    8.717454e-01
  2.415090e+01    8.651861e-01
  2.416678e+01    8.860083e-01
  2.418266e+01    9.021788e-01
  2.419853e+01    8.940417e-01
  2.421441e+01    8.829092e-01
  2.423028e+01    8.874933e-01
  2.424616e+01    8.827577e-01
  2.426203e+01    8.871566e-01
  2.427791e+01    9.003409e-01
  2.429378e+01    8.967416e-01
  2.430966e+01    9.032472e-01
  2.432554e+01    8.815233e-01
  2.434141e+01    8.772387e-01
  2.435729e+01    8.985099e-01
  2.437316e+01    9.150652e-01
  2.438904e+01    9.053292e-01
  2.440491e+01    8.928740e-01
  2.442079e+01    9.106375e-01
  2.443666e+01    9.187402e-01
  2.445254e+01    9.294111e-01
  2.446842e+01    8.988881e-01
  2.448429e+01    8.720315e-01
  2.450017e+01    8.786789e-01
  2.451604e+01    8.857819e-01
  2.453192e+01    8.991913e-01
  2.454779e+01    9.180757e-01
  2.456367e+01    9.137339e-01
  2.457954e+01    8.791636e-01
  2.459542e+01    8.884303e-01
  2.461130e+01    8.935945e-01
  2.462717e+01    8.872132e-01
  2.464305e+01    8.740754e-01
  2.465892e+01    8.829421e-01
  2.467480e+01    9.101781e-01
  2.469067e+01    9.082237e-01
  2.470655e+01    9.052304e-01
  2.472242e+01    8.893127e-01
  2.473830e+01    9.079810e-01
  2.475418e+01    8.863707e-01
  2.477005e+01    8.815656e-01
  2.478593e+01    9.013462e-01
  2.480180e+01    9.133775e-01
  2.481768e+01    9.090882e-01
  2.483355e+01    8.923489e-01
  2.484943e+01    8.975020e-01
  2.486530e+01    8.844966e-01
  2.488118e+01    8.891772e-01
  2.489706e+01    8.836240e-01
  2.491293e+01    8.834159e-01
  2.492881e+01    8.951995e-01
  2.494468e+01    9.118807e-01
  2.496056e+01    9.046496e-01
  2.497643e+01    9.025163e-01
  2.499231e+01    8.894671e-01
  2.500819e+01    9.046502e-01
  2.502406e+01    9.106091e-01
  2.503994e+01    9.196979e-01
  2.505581e+01    9.228242e-01
  2.507169e+01    9.092566e-01
  2.508756e+01    8.986325e-01
  2.510344e+01    9.195043e-01
  2.511931e+01    9.243839e-01
  2.513519e+01    9.033744e-01
  2.515107e+01    9.036084e-01
  2.516694e+01    9.080982e-01
  2.518282e+01    9.158728e-01
  2.519869e+01    9.215798e-01
  2.521457e+01    9.317823e-01
  2.523044e+01    9.561767e-01
  2.524632e+01    9.473215e-01
  2.526219e+01    9.371595e-01
  2.527807e+01    9.304489e-01
  2.529395e+01    9.559885e-01
  2.530982e+01    9.669065e-01
  2.532570e+01    9.628841e-01
  2.534157e+01    9.886063e-01
  2.535745e+01    9.956740e-01
  2.537332e+01    9.877926e-01
  2.538920e+01    1.007546e+00
  2.540507e+01    9.962612e-01
  2.542095e+01    9.834495e-01
  2.543683e+01    1.000476e+00
  2.545270e+01    1.016138e+00
  2.546858e+01    1.035816e+00
  2.548445e+01    1.073862e+00
  2.550033e+01    1.046436e+00
  2.551620e+01    1.072276e+00
  2.553208e+01    1.084202e+00
  2.554795e+01    1.094373e+00
  2.556383e+01    1.127111e+00
  2.557971e+01    1.166219e+00
  2.559558e+01    1.177423e+00
  2.561146e+01    1.218677e+00
  2.562733e+01    1.253739e+00
  2.564321e+01    1.307047e+00
  2.565908e+01    1.363928e+00
  2.567496e+01    1.427406e+00
  2.569083e+01    1.505923e+00
  2.570671e+01    1.615718e+00
  2.572259e+01    1.708724e+00
  2.573846e+01    1.854872e+00
  2.575434e+01    2.023220e+00
  2.577021e+01    2.242270e+00
  2.578609e+01    2.472994e+00
  2.580196e+01    2.817122e+00
  2.581784e+01    3.172899e+00
  2.583371e+01    3.594622e+00
  2.584959e+01    4.126665e+00
  2.586547e+01    4.664845e+00
  2.588134e+01    5.254402e+00
  2.589722e+01    5.835856e+00
  2.591309e+01    6.347732e+00
  2.592897e+01    6.752287e+00
  2.594484e+01    7.049065e+00
  2.596072e+01    7.185455e+00
  2.597660e+01    7.020212e+00
  2.599247e+01    6.548462e+00
  2.600835e+01    5.984668e+00
  2.602422e+01    5.350675e+00
  2.604010e+01    4.662929e+00
  2.605597e+01    3.939298e+00
  2.607185e+01    3.455328e+00
  2.608772e+01    3.040313e+00
  2.610360e+01    2.670773e+00
  2.611948e+01    2.390282e+00
  2.613535e+01    2.141950e+00
  2.615123e+01    1.952478e+00
  2.616710e+01    1.799186e+00
  2.618298e+01    1.656332e+00
  2.619885e+01    1.586261e+00
  2.621473e+01    1.511854e+00
  2.623060e+01    1.440773e+00
  2.624648e+01    1.359223e+00
  2.626236e+01    1.303173e+00
  2.627823e+01    1.256951e+00
  2.629411e+01    1.230955e+00
  2.630998e+01    1.191629e+00
  2.632586e+01    1.144652e+00
  2.634173e+01    1.127476e+00
  2.635761e+01    1.100559e+00
  2.637348e+01    1.109783e+00
  2.638936e+01    1.073923e+00
  2.640524e+01    1.048514e+00
  2.642111e+01    1.041322e+00
  2.643699e+01    1.025648e+00
  2.645286e+01    1.036942e+00
  2.646874e+01    1.035624e+00
  2.648461e+01    1.026469e+00
  2.650049e+01    1.009322e+00
  2.651636e+01    1.012411e+00
  2.653224e+01    1.007234e+00
  2.654812e+01    1.012648e+00
  2.656399e+01    1.020443e+00
  2.657987e+01    1.011425e+00
  2.659574e+01    9.944427e-01
  2.661162e+01    9.733267e-01
  2.662749e+01    9.756520e-01
  2.664337e+01    9.682440e-01
  2.665924e+01    9.732429e-01
  2.667512e+01    9.868425e-01
  2.669100e+01    9.894087e-01
  2.670687e+01    9.788533e-01
  2.672275e+01    9.678065e-01
  2.673862e+01    9.731655e-01
  2.675450e+01    9.820703e-01
  2.677037e+01    9.929169e-01
  2.678625e+01    1.000758e+00
  2.680212e+01    1.000560e+00
  2.681800e+01    9.919229e-01
  2.683388e+01    9.827089e-01
  2.684975e+01    9.910420e-01
  2.686563e+01    1.004746e+00
  2.688150e+01    1.005876e+00
  2.689738e+01    1.006801e+00
  2.691325e+01    1.011303e+00
  2.692913e+01    1.029820e+00
  2.694501e+01    1.034567e+00
  2.696088e+01    1.035085e+00
  2.697676e+01    1.039142e+00
  2.699263e+01    1.053799e+00
  2.700851e+01    1.104670e+00
  2.702438e+01    1.152041e+00
  2.704026e+01    1.220182e+00
  2.705613e+01    1.247884e+00
  2.707201e+01    1.299504e+00
  2.708789e+01    1.387827e+00
  2.710376e+01    1.478799e+00
  2.711964e+01    1.587182e+00
  2.713551e+01    1.719148e+00
  2.715139e+01    1.842577e+00
  2.716726e+01    1.996927e+00
  2.718314e+01    2.086482e+00
  2.719901e+01    2.163158e+00
  2.721489e+01    2.161142e+00
  2.723077e+01    2.168905e+00
  2.724664e+01    2.070605e+00
  2.726252e+01    1.958662e+00
  2.727839e+01    1.845428e+00
  2.729427e+01    1.699851e+00
  2.731014e+01    1.554200e+00
  2.732602e+01    1.464678e+00
  2.734189e+01    1.398800e+00
  2.735777e+01    1.308101e+00
  2.737365e+01    1.221298e+00
  2.738952e+01    1.178742e+00
  2.740540e+01    1.136739e+00
  2.742127e+01    1.093151e+00
  2.743715e+01    1.070299e+00
  2.745302e+01    1.041809e+00
  2.746890e+01    1.009117e+00
  2.748477e+01    9.914008e-01
  2.750065e+01    1.002018e+00
  2.751653e+01    9.705637e-01
  2.753240e+01    9.667654e-01
  2.754828e+01    9.622309e-01
  2.756415e+01    9.428902e-01
  2.758003e+01    9.432690e-01
  2.759590e+01    9.204164e-01
  2.761178e+01    9.639269e-01
  2.762765e+01    9.438586e-01
  2.764353e+01    9.032781e-01
  2.765941e+01    9.056833e-01
  2.767528e+01    9.061795e-01
  2.769116e+01    9.306303e-01
  2.770703e+01    9.078108e-01
  2.772291e+01    9.078265e-01
  2.773878e+01    8.895507e-01
  2.775466e+01    8.787739e-01
  2.777054e+01    9.044350e-01
  2.778641e+01    8.898586e-01
  2.780229e+01    9.113896e-01
  2.781816e+01    8.926719e-01
  2.783404e+01    8.979375e-01
  2.784991e+01    8.891699e-01
  2.786579e+01    8.898233e-01
  2.788166e+01    8.929892e-01
  2.789754e+01    8.893387e-01
  2.791342e+01    8.754902e-01
  2.792929e+01    8.946930e-01
  2.794517e+01    9.059350e-01
  2.796104e+01    8.950449e-01
  2.797692e+01    8.817177e-01
  2.799279e+01    8.695312e-01
  2.800867e+01    8.727058e-01
  2.802454e+01    8.602917e-01
  2.804042e+01    8.711593e-01
  2.805630e+01    8.727954e-01
  2.807217e+01    8.792059e-01
  2.808805e+01    8.671398e-01
  2.810392e+01    8.591784e-01
  2.811980e+01    8.593281e-01
  2.813567e+01    8.609393e-01
  2.815155e+01    8.554587e-01
  2.816742e+01    8.411130e-01
  2.818330e+01    8.760950e-01
  2.819918e+01    8.711785e-01
  2.821505e+01    8.504513e-01
  2.823093e+01    8.568823e-01
  2.824680e+01    8.748967e-01
  2.826268e+01    8.409706e-01
  2.827855e+01    8.610302e-01
  2.829443e+01    8.563519e-01
  2.831030e+01    8.620480e-01
  2.832618e+01    8.619517e-01
  2.834206e+01    8.411064e-01
  2.835793e+01    8.600770e-01
  2.837381e+01    8.561227e-01
  2.838968e+01    8.424150e-01
  2.840556e+01    8.573524e-01
  2.842143e+01    8.187720e-01
  2.843731e+01    8.101323e-01
  2.845318e+01    8.391506e-01
  2.846906e+01    8.515897e-01
  2.848494e+01    8.481378e-01
  2.850081e+01    8.220233e-01
  2.851669e+01    8.160046e-01
  2.853256e+01    8.372344e-01
  2.854844e+01    8.484560e-01
  2.856431e+01    8.630818e-01
  2.858019e+01    8.511549e-01
  2.859606e+01    8.542957e-01
  2.861194e+01    8.488628e-01
  2.862782e+01    8.447739e-01
  2.864369e+01    8.352852e-01
  2.865957e+01    8.343486e-01
  2.867544e+01    8.175331e-01
  2.869132e+01    8.188210e-01
  2.870719e+01    8.202040e-01
  2.872307e+01    8.146028e-01
  2.873895e+01    8.220078e-01
  2.875482e+01    8.298132e-01
  2.877070e+01    8.256783e-01
  2.878657e+01    8.157680e-01
  2.880245e+01    8.415408e-01
  2.881832e+01    8.347734e-01
  2.883420e+01    8.573592e-01
  2.885007e+01    8.279085e-01
  2.886595e+01    8.190635e-01
  2.888183e+01    8.086469e-01
  2.889770e+01    8.189098e-01
  2.891358e+01    8.405610e-01
  2.892945e+01    8.397862e-01
  2.894533e+01    8.295089e-01
  2.896120e+01    8.302849e-01
  2.897708e+01    8.418170e-01
  2.899295e+01    8.371065e-01
  2.900883e+01    8.387936e-01
  2.902471e+01    8.638602e-01
  2.904058e+01    8.286352e-01
  2.905646e+01    8.227988e-01
  2.907233e+01    8.448898e-01
  2.908821e+01    8.330368e-01
  2.910408e+01    8.175242e-01
  2.911996e+01    8.126278e-01
  2.913583e+01    8.009194e-01
  2.915171e+01    8.156661e-01
  2.916759e+01    8.259808e-01
  2.918346e+01    8.108302e-01
  2.919934e+01    8.242568e-01
  2.921521e+01    8.152385e-01
  2.923109e+01    8.239415e-01
  2.924696e+01    8.125456e-01
  2.926284e+01    7.989622e-01
  2.927871e+01    8.109250e-01
  2.929459e+01    8.311819e-01
  2.931047e+01    8.338565e-01
  2.932634e+01    8.097427e-01
  2.934222e+01    8.159367e-01
  2.935809e+01    8.072441e-01
  2.937397e+01    8.151321e-01
  2.938984e+01    8.104862e-01
  2.940572e+01    8.048660e-01
  2.942159e+01    8.191290e-01
  2.943747e+01    8.103806e-01
  2.945335e+01    8.143833e-01
  2.946922e+01    8.047312e-01
  2.948510e+01    7.998260e-01
  2.950097e+01    8.041654e-01
  2.951685e+01    8.080605e-01
  2.953272e+01    8.044624e-01
  2.954860e+01    7.932033e-01
  2.956447e+01    8.133910e-01
  2.958035e+01    8.134976e-01
  2.959623e+01    8.277262e-01
  2.961210e+01    8.095886e-01
  2.962798e+01    8.222725e-01
  2.964385e+01    8.259756e-01
  2.965973e+01    8.074056e-01
  2.967560e+01    8.095949e-01
  2.969148e+01    7.928149e-01
  2.970736e+01    8.096389e-01
  2.972323e+01    8.057408e-01
  2.973911e+01    8.071554e-01
  2.975498e+01    7.965683e-01
  2.977086e+01    7.987013e-01
  2.978673e+01    7.816061e-01
  2.980261e+01    7.897446e-01
  2.981848e+01    8.048704e-01
  2.983436e+01    7.878793e-01
  2.985024e+01    8.106576e-01
  2.986611e+01    8.106385e-01
  2.988199e+01    7.994159e-01
  2.989786e+01    8.111385e-01
  2.991374e+01    7.971917e-01
  2.992961e+01    7.734691e-01
  2.994549e+01    8.187509e-01
  2.996136e+01    7.990129e-01
  2.997724e+01    7.959522e-01
  2.999312e+01    8.412958e-01
  3.000899e+01    8.195592e-01
  3.002487e+01    8.144544e-01
  3.004074e+01    8.324348e-01
  3.005662e+01    7.932413e-01
  3.007249e+01    8.251673e-01
  3.008837e+01    8.471151e-01
  3.010424e+01    8.132080e-01
  3.012012e+01    8.083433e-01
  3.013600e+01    8.137181e-01
  3.015187e+01    7.977000e-01
  3.016775e+01    7.863777e-01
  3.018362e+01    7.781522e-01
  3.019950e+01    7.916490e-01
  3.021537e+01    7.953808e-01
  3.023125e+01    7.837110e-01
  3.024712e+01    7.759144e-01
  3.026300e+01    7.978256e-01
  3.027888e+01    7.895834e-01
  3.029475e+01    7.708418e-01
  3.031063e+01    7.750103e-01
  3.032650e+01    7.741604e-01
  3.034238e+01    7.881024e-01
  3.035825e+01    8.062406e-01
  3.037413e+01    7.877747e-01
  3.039000e+01    7.920698e-01
  3.040588e+01    7.841051e-01
  3.042176e+01    7.777796e-01
  3.043763e+01    7.609432e-01
  3.045351e+01    7.653930e-01
  3.046938e+01    8.000922e-01
  3.048526e+01    7.878057e-01
  3.050113e+01    7.683145e-01
  3.051701e+01    7.878749e-01
  3.053288e+01    8.058642e-01
  3.054876e+01    8.027719e-01
  3.056464e+01    7.953510e-01
  3.058051e+01    7.858276e-01
  3.059639e+01    7.827168e-01
  3.061226e+01    8.007374e-01
  3.062814e+01    8.046293e-01
  3.064401e+01    7.972727e-01
  3.065989e+01    7.704486e-01
  3.067577e+01    7.792355e-01
  3.069164e+01    7.788613e-01
  3.070752e+01    7.901689e-01
  3.072339e+01    7.889392e-01
  3.073927e+01    7.925186e-01
  3.075514e+01    8.105243e-01
  3.077102e+01    7.961996e-01
  3.078689e+01    7.988195e-01
  3.080277e+01    7.859215e-01
  3.081865e+01    7.867204e-01
  3.083452e+01    7.597204e-01
  3.085040e+01    7.767653e-01
  3.086627e+01    7.889791e-01
  3.088215e+01    7.878278e-01
  3.089802e+01    7.736025e-01
  3.091390e+01    7.758241e-01
  3.092977e+01    7.660129e-01
  3.094565e+01    7.705983e-01
  3.096153e+01    7.919608e-01
  3.097740e+01    7.936140e-01
  3.099328e+01    7.873849e-01
  3.100915e+01    7.813873e-01
  3.102503e+01    7.928006e-01
  3.104090e+01    7.910742e-01
  3.105678e+01    7.780904e-01
  3.107265e+01    7.660981e-01
  3.108853e+01    8.025114e-01
  3.110441e+01    7.794363e-01
  3.112028e+01    7.816753e-01
  3.113616e+01    7.840007e-01
  3.115203e+01    7.882572e-01
  3.116791e+01    8.166608e-01
  3.118378e+01    7.897040e-01
  3.119966e+01    7.903278e-01
  3.121553e+01    7.925807e-01
  3.123141e+01    8.142847e-01
  3.124729e+01    7.965033e-01
  3.126316e+01    8.105353e-01
  3.127904e+01    8.066493e-01
  3.129491e+01    7.951791e-01
  3.131079e+01    7.897886e-01
  3.132666e+01    7.939395e-01
  3.134254e+01    7.999758e-01
  3.135841e+01    7.996894e-01
  3.137429e+01    8.027556e-01
  3.139017e+01    8.173127e-01
  3.140604e+01    8.147013e-01
  3.142192e+01    8.021206e-01
  3.143779e+01    8.041555e-01
  3.145367e+01    8.272614e-01
  3.146954e+01    8.247654e-01
  3.148542e+01    8.108229e-01
  3.150129e+01    8.129239e-01
  3.151717e+01    8.343727e-01
  3.153305e+01    8.328284e-01
  3.154892e+01    8.671124e-01
  3.156480e+01    8.725934e-01
  3.158067e+01    8.746750e-01
  3.159655e+01    8.538949e-01
  3.161242e+01    8.832555e-01
  3.162830e+01    9.028020e-01
  3.164418e+01    9.278168e-01
  3.166005e+01    9.412634e-01
  3.167593e+01    9.584180e-01
  3.169180e+01    9.826305e-01
  3.170768e+01    1.000957e+00
  3.172355e+01    1.070066e+00
  3.173943e+01    1.103532e+00
  3.175530e+01    1.183302e+00
  3.177118e+01    1.271284e+00
  3.178706e+01    1.367954e+00
  3.180293e+01    1.473845e+00
  3.181881e+01    1.569694e+00
  3.183468e+01    1.702163e+00
  3.185056e+01    1.838690e+00
  3.186643e+01    1.962690e+00
  3.188231e+01    2.006598e+00
  3.189818e+01    2.046901e+00
  3.191406e+01    2.092988e+00
  3.192994e+01    2.044511e+00
  3.194581e+01    1.927552e+00
  3.196169e+01    1.829120e+00
  3.197756e+01    1.685405e+00
  3.199344e+01    1.555055e+00
  3.200931e+01    1.454162e+00
  3.202519e+01    1.355893e+00
  3.204106e+01    1.247867e+00
  3.205694e+01    1.184676e+00
  3.207282e+01    1.088379e+00
  3.208869e+01    1.038404e+00
  3.210457e+01    9.838535e-01
  3.212044e+01    9.729555e-01
  3.213632e+01    9.440207e-01
  3.215219e+01    9.095521e-01
  3.216807e+01    9.116183e-01
  3.218394e+01    8.814814e-01
  3.219982e+01    8.526832e-01
  3.221570e+01    8.708361e-01
  3.223157e+01    8.682973e-01
  3.224745e+01    8.621848e-01
  3.226332e+01    8.542821e-01
  3.227920e+01    8.460909e-01
  3.229507e+01    7.953267e-01
  3.231095e+01    8.055033e-01
  3.232682e+01    8.025650e-01
  3.234270e+01    8.101723e-01
  3.235858e+01    8.073153e-01
  3.237445e+01    8.068431e-01
  3.239033e+01    8.048873e-01
  3.240620e+01    7.772769e-01
  3.242208e+01    7.484737e-01
  3.243795e+01    7.936832e-01
  3.245383e+01    8.108774e-01
  3.246970e+01    7.912996e-01
  3.248558e+01    7.876921e-01
  3.250146e+01    7.843037e-01
  3.251733e+01    8.081699e-01
  3.253321e+01    7.922382e-01
  3.254908e+01    7.664398e-01
