# == pyFAI calibration ==
# Distance Sample to Detector: 0.3999999939076516 m
# PONI: 9.750e-02, 1.135e-01 m
# Rotations: -0.000175 0.000000 -0.000000 rad
# 
# == Fit2d calibration ==
# Distance Sample-beamCenter: 400.000 mm
# Center: x=1514.000, y=1300.000 pix
# Tilt: 0.010 deg  TiltPlanRot: 0.010 deg
# 
# Detector Detector	 Spline= None	 PixelSize= 7.500e-05, 7.500e-05 m
#    Detector has a mask: False 
#    Detector has a dark current: False 
#    detector has a flat field: False 
# 
# Wavelength: 6.888e-11 m
# Mask applied: user provided
# Dark current applied: False
# Flat field applied: False
# Polarization factor: 0.99
# Normalization factor: 1.0
# --> /home/myspot/data/2024_07_Rosario/Ru-CGO-ex/2024-07-27_003_Ru-CGO-ex_Reaction_dwell_000023_data_000039.dat
#       q_nm^-1             I 
  2.003187e-02    7.711996e-02
  3.590745e-02    6.421730e-02
  5.178302e-02    4.718721e-02
  6.765859e-02    2.388418e-01
  8.353417e-02    3.229201e-01
  9.940974e-02    1.126445e-01
  1.152853e-01    1.145670e-01
  1.311609e-01    1.787686e-01
  1.470365e-01    7.229463e-02
  1.629120e-01    2.367208e-02
  1.787876e-01    5.423878e-02
  1.946632e-01    4.978873e-02
  2.105388e-01    5.118100e-02
  2.264143e-01    3.269045e-02
  2.422899e-01    0.000000e+00
  2.581655e-01    3.695069e-02
  2.740411e-01    4.800213e-02
  2.899166e-01    2.810892e-02
  3.057922e-01    6.090574e-02
  3.216678e-01    2.482948e-02
  3.375433e-01    5.827406e-02
  3.534189e-01    5.742275e-02
  3.692945e-01    5.976122e-02
  3.851701e-01    5.211496e-02
  4.010456e-01    4.102520e-02
  4.169212e-01    7.111239e-02
  4.327968e-01    8.997873e-02
  4.486724e-01    3.905009e-02
  4.645479e-01    2.777903e-02
  4.804235e-01    2.288590e-02
  4.962991e-01    2.408504e-02
  5.121747e-01    8.766066e-03
  5.280502e-01    6.057994e-03
  5.439258e-01    4.763810e-02
  5.598014e-01    4.048478e-02
  5.756770e-01    1.965607e-02
  5.915525e-01    1.498216e-02
  6.074281e-01    7.375804e-02
  6.233037e-01    5.776215e-02
  6.391793e-01    4.565731e-02
  6.550548e-01    3.096520e-02
  6.709304e-01    4.646896e-02
  6.868060e-01    4.570257e-02
  7.026815e-01    6.746379e-02
  7.185571e-01    5.695191e-02
  7.344327e-01    5.616740e-02
  7.503083e-01    4.519812e-02
  7.661838e-01    6.880735e-02
  7.820594e-01    1.385340e-01
  7.979350e-01    1.487609e-01
  8.138106e-01    2.209450e-01
  8.296861e-01    3.167349e-01
  8.455617e-01    3.377336e-01
  8.614373e-01    3.934683e-01
  8.773129e-01    5.508216e-01
  8.931884e-01    6.010150e-01
  9.090640e-01    6.916260e-01
  9.249396e-01    7.935157e-01
  9.408152e-01    8.596990e-01
  9.566907e-01    9.427549e-01
  9.725663e-01    1.066374e+00
  9.884419e-01    1.159847e+00
  1.004317e+00    1.203800e+00
  1.020193e+00    1.341385e+00
  1.036069e+00    1.409505e+00
  1.051944e+00    1.368425e+00
  1.067820e+00    1.400470e+00
  1.083695e+00    1.484815e+00
  1.099571e+00    1.588497e+00
  1.115446e+00    1.598823e+00
  1.131322e+00    1.621443e+00
  1.147198e+00    1.741180e+00
  1.163073e+00    1.645238e+00
  1.178949e+00    1.692498e+00
  1.194824e+00    1.787905e+00
  1.210700e+00    2.024063e+00
  1.226575e+00    2.286248e+00
  1.242451e+00    2.351963e+00
  1.258327e+00    2.343709e+00
  1.274202e+00    2.429959e+00
  1.290078e+00    2.517304e+00
  1.305953e+00    2.758679e+00
  1.321829e+00    2.792896e+00
  1.337705e+00    2.774006e+00
  1.353580e+00    2.793838e+00
  1.369456e+00    2.898650e+00
  1.385331e+00    2.890680e+00
  1.401207e+00    2.802170e+00
  1.417082e+00    2.769673e+00
  1.432958e+00    2.922441e+00
  1.448834e+00    2.936314e+00
  1.464709e+00    3.142754e+00
  1.480585e+00    3.165796e+00
  1.496460e+00    3.149676e+00
  1.512336e+00    3.208672e+00
  1.528211e+00    3.327253e+00
  1.544087e+00    3.260085e+00
  1.559963e+00    3.200179e+00
  1.575838e+00    3.246800e+00
  1.591714e+00    3.166865e+00
  1.607589e+00    3.094299e+00
  1.623465e+00    3.050268e+00
  1.639340e+00    3.165495e+00
  1.655216e+00    3.217796e+00
  1.671092e+00    3.112261e+00
  1.686967e+00    3.168767e+00
  1.702843e+00    3.081241e+00
  1.718718e+00    3.155767e+00
  1.734594e+00    3.131518e+00
  1.750469e+00    3.027972e+00
  1.766345e+00    3.119391e+00
  1.782221e+00    3.145646e+00
  1.798096e+00    3.091245e+00
  1.813972e+00    3.038098e+00
  1.829847e+00    3.205866e+00
  1.845723e+00    3.214186e+00
  1.861598e+00    3.121801e+00
  1.877474e+00    3.162686e+00
  1.893350e+00    3.108706e+00
  1.909225e+00    2.978550e+00
  1.925101e+00    3.175015e+00
  1.940976e+00    3.157130e+00
  1.956852e+00    3.181679e+00
  1.972727e+00    3.152659e+00
  1.988603e+00    3.199756e+00
  2.004479e+00    3.031370e+00
  2.020354e+00    2.942986e+00
  2.036230e+00    3.073467e+00
  2.052105e+00    3.058743e+00
  2.067981e+00    3.034879e+00
  2.083856e+00    3.092780e+00
  2.099732e+00    3.031602e+00
  2.115608e+00    3.116925e+00
  2.131483e+00    3.142737e+00
  2.147359e+00    3.216166e+00
  2.163234e+00    3.118942e+00
  2.179110e+00    3.074889e+00
  2.194985e+00    3.100698e+00
  2.210861e+00    3.016372e+00
  2.226737e+00    3.081268e+00
  2.242612e+00    3.140647e+00
  2.258488e+00    3.263917e+00
  2.274363e+00    3.189877e+00
  2.290239e+00    3.136363e+00
  2.306115e+00    3.023734e+00
  2.321990e+00    3.166450e+00
  2.337866e+00    3.155275e+00
  2.353741e+00    3.200355e+00
  2.369617e+00    3.240553e+00
  2.385492e+00    3.215824e+00
  2.401368e+00    3.272092e+00
  2.417244e+00    3.157125e+00
  2.433119e+00    3.097990e+00
  2.448995e+00    3.208801e+00
  2.464870e+00    3.350961e+00
  2.480746e+00    3.250771e+00
  2.496621e+00    3.207554e+00
  2.512497e+00    3.194061e+00
  2.528373e+00    3.222810e+00
  2.544248e+00    3.188257e+00
  2.560124e+00    3.251031e+00
  2.575999e+00    3.254601e+00
  2.591875e+00    3.176501e+00
  2.607750e+00    3.107442e+00
  2.623626e+00    3.312463e+00
  2.639502e+00    3.339216e+00
  2.655377e+00    3.203750e+00
  2.671253e+00    3.154939e+00
  2.687128e+00    3.195777e+00
  2.703004e+00    3.291099e+00
  2.718879e+00    3.264706e+00
  2.734755e+00    3.267971e+00
  2.750631e+00    3.274004e+00
  2.766506e+00    3.397824e+00
  2.782382e+00    3.367547e+00
  2.798257e+00    3.271096e+00
  2.814133e+00    3.388294e+00
  2.830008e+00    3.286674e+00
  2.845884e+00    3.376546e+00
  2.861760e+00    3.366844e+00
  2.877635e+00    3.291640e+00
  2.893511e+00    3.190083e+00
  2.909386e+00    3.292199e+00
  2.925262e+00    3.350585e+00
  2.941137e+00    3.400135e+00
  2.957013e+00    3.349430e+00
  2.972889e+00    3.319698e+00
  2.988764e+00    3.336745e+00
  3.004640e+00    3.383800e+00
  3.020515e+00    3.322937e+00
  3.036391e+00    3.407107e+00
  3.052266e+00    3.418888e+00
  3.068142e+00    3.409496e+00
  3.084018e+00    3.392223e+00
  3.099893e+00    3.360340e+00
  3.115769e+00    3.404081e+00
  3.131644e+00    3.291185e+00
  3.147520e+00    3.323099e+00
  3.163395e+00    3.364129e+00
  3.179271e+00    3.371388e+00
  3.195147e+00    3.325928e+00
  3.211022e+00    3.361646e+00
  3.226898e+00    3.433278e+00
  3.242773e+00    3.416559e+00
  3.258649e+00    3.395321e+00
  3.274525e+00    3.419226e+00
  3.290400e+00    3.488395e+00
  3.306276e+00    3.528930e+00
  3.322151e+00    3.463539e+00
  3.338027e+00    3.500301e+00
  3.353902e+00    3.362478e+00
  3.369778e+00    3.398151e+00
  3.385654e+00    3.460911e+00
  3.401529e+00    3.403233e+00
  3.417405e+00    3.360679e+00
  3.433280e+00    3.419148e+00
  3.449156e+00    3.500910e+00
  3.465031e+00    3.531039e+00
  3.480907e+00    3.468553e+00
  3.496783e+00    3.471528e+00
  3.512658e+00    3.555168e+00
  3.528534e+00    3.445287e+00
  3.544409e+00    3.516911e+00
  3.560285e+00    3.430791e+00
  3.576160e+00    3.427281e+00
  3.592036e+00    3.557937e+00
  3.607912e+00    3.524039e+00
  3.623787e+00    3.454242e+00
  3.639663e+00    3.367857e+00
  3.655538e+00    3.370893e+00
  3.671414e+00    3.463749e+00
  3.687289e+00    3.588066e+00
  3.703165e+00    3.488026e+00
  3.719041e+00    3.539204e+00
  3.734916e+00    3.478109e+00
  3.750792e+00    3.462168e+00
  3.766667e+00    3.564012e+00
  3.782543e+00    3.541194e+00
  3.798418e+00    3.562916e+00
  3.814294e+00    3.555052e+00
  3.830170e+00    3.482214e+00
  3.846045e+00    3.494847e+00
  3.861921e+00    3.545727e+00
  3.877796e+00    3.558909e+00
  3.893672e+00    3.513219e+00
  3.909547e+00    3.574698e+00
  3.925423e+00    3.633416e+00
  3.941299e+00    3.527138e+00
  3.957174e+00    3.605561e+00
  3.973050e+00    3.600565e+00
  3.988925e+00    3.518931e+00
  4.004801e+00    3.455197e+00
  4.020676e+00    3.535666e+00
  4.036552e+00    3.592731e+00
  4.052428e+00    3.532854e+00
  4.068303e+00    3.527442e+00
  4.084179e+00    3.628800e+00
  4.100054e+00    3.610402e+00
  4.115930e+00    3.582952e+00
  4.131806e+00    3.505556e+00
  4.147681e+00    3.522534e+00
  4.163557e+00    3.537353e+00
  4.179432e+00    3.531034e+00
  4.195308e+00    3.506608e+00
  4.211183e+00    3.502019e+00
  4.227059e+00    3.464512e+00
  4.242935e+00    3.543373e+00
  4.258810e+00    3.548438e+00
  4.274686e+00    3.577877e+00
  4.290561e+00    3.552762e+00
  4.306437e+00    3.534801e+00
  4.322312e+00    3.572440e+00
  4.338188e+00    3.641841e+00
  4.354064e+00    3.574656e+00
  4.369939e+00    3.602968e+00
  4.385815e+00    3.590762e+00
  4.401690e+00    3.632258e+00
  4.417566e+00    3.563736e+00
  4.433441e+00    3.535916e+00
  4.449317e+00    3.570381e+00
  4.465193e+00    3.591649e+00
  4.481068e+00    3.642372e+00
  4.496944e+00    3.646765e+00
  4.512819e+00    3.653799e+00
  4.528695e+00    3.606869e+00
  4.544570e+00    3.583449e+00
  4.560446e+00    3.622140e+00
  4.576322e+00    3.671316e+00
  4.592197e+00    3.667422e+00
  4.608073e+00    3.679497e+00
  4.623948e+00    3.638379e+00
  4.639824e+00    3.574349e+00
  4.655699e+00    3.626521e+00
  4.671575e+00    3.689808e+00
  4.687451e+00    3.654713e+00
  4.703326e+00    3.567967e+00
  4.719202e+00    3.576252e+00
  4.735077e+00    3.658998e+00
  4.750953e+00    3.637520e+00
  4.766828e+00    3.622300e+00
  4.782704e+00    3.693773e+00
  4.798580e+00    3.641410e+00
  4.814455e+00    3.647373e+00
  4.830331e+00    3.677374e+00
  4.846206e+00    3.644766e+00
  4.862082e+00    3.543637e+00
  4.877957e+00    3.655922e+00
  4.893833e+00    3.660827e+00
  4.909709e+00    3.696168e+00
  4.925584e+00    3.683070e+00
  4.941460e+00    3.735161e+00
  4.957335e+00    3.698914e+00
  4.973211e+00    3.735093e+00
  4.989086e+00    3.701342e+00
  5.004962e+00    3.605471e+00
  5.020838e+00    3.670014e+00
  5.036713e+00    3.658601e+00
  5.052589e+00    3.628750e+00
  5.068464e+00    3.714827e+00
  5.084340e+00    3.715430e+00
  5.100216e+00    3.622612e+00
  5.116091e+00    3.615548e+00
  5.131967e+00    3.724700e+00
  5.147842e+00    3.692683e+00
  5.163718e+00    3.657418e+00
  5.179593e+00    3.728301e+00
  5.195469e+00    3.681436e+00
  5.211345e+00    3.692584e+00
  5.227220e+00    3.721062e+00
  5.243096e+00    3.689998e+00
  5.258971e+00    3.673275e+00
  5.274847e+00    3.633784e+00
  5.290722e+00    3.618495e+00
  5.306598e+00    3.638812e+00
  5.322474e+00    3.752588e+00
  5.338349e+00    3.823278e+00
  5.354225e+00    3.769102e+00
  5.370100e+00    3.701786e+00
  5.385976e+00    3.685028e+00
  5.401851e+00    3.601673e+00
  5.417727e+00    3.665684e+00
  5.433603e+00    3.687768e+00
  5.449478e+00    3.622878e+00
  5.465354e+00    3.685518e+00
  5.481229e+00    3.631639e+00
  5.497105e+00    3.588480e+00
  5.512980e+00    3.615720e+00
  5.528856e+00    3.583643e+00
  5.544732e+00    3.656582e+00
  5.560607e+00    3.710038e+00
  5.576483e+00    3.647569e+00
  5.592358e+00    3.611624e+00
  5.608234e+00    3.630125e+00
  5.624109e+00    3.598924e+00
  5.639985e+00    3.652709e+00
  5.655861e+00    3.648250e+00
  5.671736e+00    3.516312e+00
  5.687612e+00    3.517647e+00
  5.703487e+00    3.519124e+00
  5.719363e+00    3.504971e+00
  5.735238e+00    3.537565e+00
  5.751114e+00    3.613789e+00
  5.766990e+00    3.697953e+00
  5.782865e+00    3.648455e+00
  5.798741e+00    3.622837e+00
  5.814616e+00    3.577071e+00
  5.830492e+00    3.502371e+00
  5.846367e+00    3.461417e+00
  5.862243e+00    3.535747e+00
  5.878119e+00    3.617596e+00
  5.893994e+00    3.601917e+00
  5.909870e+00    3.526254e+00
  5.925745e+00    3.524168e+00
  5.941621e+00    3.571285e+00
  5.957497e+00    3.571816e+00
  5.973372e+00    3.550613e+00
  5.989248e+00    3.534929e+00
  6.005123e+00    3.568622e+00
  6.020999e+00    3.551149e+00
  6.036874e+00    3.577599e+00
  6.052750e+00    3.563672e+00
  6.068626e+00    3.623615e+00
  6.084501e+00    3.583730e+00
  6.100377e+00    3.506591e+00
  6.116252e+00    3.668690e+00
  6.132128e+00    3.678273e+00
  6.148003e+00    3.531780e+00
  6.163879e+00    3.592461e+00
  6.179755e+00    3.644607e+00
  6.195630e+00    3.698642e+00
  6.211506e+00    3.630500e+00
  6.227381e+00    3.642598e+00
  6.243257e+00    3.643213e+00
  6.259132e+00    3.602519e+00
  6.275008e+00    3.632972e+00
  6.290884e+00    3.596303e+00
  6.306759e+00    3.621558e+00
  6.322635e+00    3.573005e+00
  6.338510e+00    3.539582e+00
  6.354386e+00    3.471421e+00
  6.370261e+00    3.526629e+00
  6.386137e+00    3.543856e+00
  6.402013e+00    3.570103e+00
  6.417888e+00    3.598673e+00
  6.433764e+00    3.552389e+00
  6.449639e+00    3.529388e+00
  6.465515e+00    3.607598e+00
  6.481390e+00    3.614259e+00
  6.497266e+00    3.600866e+00
  6.513142e+00    3.518295e+00
  6.529017e+00    3.449074e+00
  6.544893e+00    3.579027e+00
  6.560768e+00    3.628563e+00
  6.576644e+00    3.506072e+00
  6.592519e+00    3.528117e+00
  6.608395e+00    3.590635e+00
  6.624271e+00    3.596155e+00
  6.640146e+00    3.532916e+00
  6.656022e+00    3.547296e+00
  6.671897e+00    3.622958e+00
  6.687773e+00    3.630956e+00
  6.703648e+00    3.533529e+00
  6.719524e+00    3.543352e+00
  6.735400e+00    3.469731e+00
  6.751275e+00    3.583957e+00
  6.767151e+00    3.570382e+00
  6.783026e+00    3.609421e+00
  6.798902e+00    3.566967e+00
  6.814777e+00    3.549464e+00
  6.830653e+00    3.533220e+00
  6.846529e+00    3.570563e+00
  6.862404e+00    3.552054e+00
  6.878280e+00    3.565164e+00
  6.894155e+00    3.554191e+00
  6.910031e+00    3.540273e+00
  6.925907e+00    3.495355e+00
  6.941782e+00    3.564608e+00
  6.957658e+00    3.608632e+00
  6.973533e+00    3.582350e+00
  6.989409e+00    3.600003e+00
  7.005284e+00    3.568707e+00
  7.021160e+00    3.575896e+00
  7.037036e+00    3.598741e+00
  7.052911e+00    3.593199e+00
  7.068787e+00    3.579845e+00
  7.084662e+00    3.544937e+00
  7.100538e+00    3.561641e+00
  7.116413e+00    3.520329e+00
  7.132289e+00    3.523508e+00
  7.148165e+00    3.500384e+00
  7.164040e+00    3.518392e+00
  7.179916e+00    3.509453e+00
  7.195791e+00    3.563106e+00
  7.211667e+00    3.560384e+00
  7.227542e+00    3.527977e+00
  7.243418e+00    3.534956e+00
  7.259294e+00    3.548497e+00
  7.275169e+00    3.554298e+00
  7.291045e+00    3.559686e+00
  7.306920e+00    3.561617e+00
  7.322796e+00    3.538527e+00
  7.338671e+00    3.624876e+00
  7.354547e+00    3.535323e+00
  7.370423e+00    3.531803e+00
  7.386298e+00    3.471946e+00
  7.402174e+00    3.483824e+00
  7.418049e+00    3.553591e+00
  7.433925e+00    3.532933e+00
  7.449800e+00    3.536373e+00
  7.465676e+00    3.552487e+00
  7.481552e+00    3.443794e+00
  7.497427e+00    3.477786e+00
  7.513303e+00    3.553335e+00
  7.529178e+00    3.512322e+00
  7.545054e+00    3.458471e+00
  7.560929e+00    3.472820e+00
  7.576805e+00    3.500456e+00
  7.592681e+00    3.478836e+00
  7.608556e+00    3.446193e+00
  7.624432e+00    3.488053e+00
  7.640307e+00    3.493819e+00
  7.656183e+00    3.467739e+00
  7.672058e+00    3.421924e+00
  7.687934e+00    3.473404e+00
  7.703810e+00    3.481812e+00
  7.719685e+00    3.485327e+00
  7.735561e+00    3.471205e+00
  7.751436e+00    3.434497e+00
  7.767312e+00    3.450579e+00
  7.783187e+00    3.462932e+00
  7.799063e+00    3.490659e+00
  7.814939e+00    3.527851e+00
  7.830814e+00    3.508707e+00
  7.846690e+00    3.469946e+00
  7.862565e+00    3.403871e+00
  7.878441e+00    3.429648e+00
  7.894317e+00    3.521794e+00
  7.910192e+00    3.478059e+00
  7.926068e+00    3.441500e+00
  7.941943e+00    3.512693e+00
  7.957819e+00    3.521718e+00
  7.973694e+00    3.493124e+00
  7.989570e+00    3.478136e+00
  8.005446e+00    3.411505e+00
  8.021321e+00    3.399644e+00
  8.037197e+00    3.437126e+00
  8.053072e+00    3.395736e+00
  8.068948e+00    3.411377e+00
  8.084823e+00    3.471481e+00
  8.100699e+00    3.519257e+00
  8.116575e+00    3.526072e+00
  8.132450e+00    3.480116e+00
  8.148326e+00    3.396939e+00
  8.164201e+00    3.472955e+00
  8.180077e+00    3.482826e+00
  8.195952e+00    3.447856e+00
  8.211828e+00    3.533364e+00
  8.227704e+00    3.465664e+00
  8.243579e+00    3.411550e+00
  8.259455e+00    3.463041e+00
  8.275330e+00    3.444804e+00
  8.291206e+00    3.459437e+00
  8.307081e+00    3.405585e+00
  8.322957e+00    3.394468e+00
  8.338833e+00    3.434301e+00
  8.354708e+00    3.387815e+00
  8.370584e+00    3.322139e+00
  8.386459e+00    3.344915e+00
  8.402335e+00    3.354344e+00
  8.418210e+00    3.422205e+00
  8.434086e+00    3.444707e+00
  8.449962e+00    3.417109e+00
  8.465837e+00    3.356236e+00
  8.481713e+00    3.343677e+00
  8.497588e+00    3.339444e+00
  8.513464e+00    3.443013e+00
  8.529339e+00    3.414701e+00
  8.545215e+00    3.337125e+00
  8.561091e+00    3.336843e+00
  8.576966e+00    3.378640e+00
  8.592842e+00    3.300106e+00
  8.608717e+00    3.329295e+00
  8.624593e+00    3.369115e+00
  8.640468e+00    3.366965e+00
  8.656344e+00    3.346591e+00
  8.672220e+00    3.343023e+00
  8.688095e+00    3.291016e+00
  8.703971e+00    3.327535e+00
  8.719846e+00    3.351973e+00
  8.735722e+00    3.403649e+00
  8.751598e+00    3.336143e+00
  8.767473e+00    3.313246e+00
  8.783349e+00    3.381936e+00
  8.799224e+00    3.367455e+00
  8.815100e+00    3.280325e+00
  8.830975e+00    3.260929e+00
  8.846851e+00    3.276417e+00
  8.862727e+00    3.356938e+00
  8.878602e+00    3.413444e+00
  8.894478e+00    3.376542e+00
  8.910353e+00    3.319521e+00
  8.926229e+00    3.282273e+00
  8.942104e+00    3.399548e+00
  8.957980e+00    3.397749e+00
  8.973856e+00    3.354753e+00
  8.989731e+00    3.341372e+00
  9.005607e+00    3.343806e+00
  9.021482e+00    3.326841e+00
  9.037358e+00    3.328810e+00
  9.053233e+00    3.314947e+00
  9.069109e+00    3.310795e+00
  9.084985e+00    3.258403e+00
  9.100860e+00    3.217915e+00
  9.116736e+00    3.265849e+00
  9.132611e+00    3.325845e+00
  9.148487e+00    3.300395e+00
  9.164362e+00    3.325608e+00
  9.180238e+00    3.254675e+00
  9.196114e+00    3.277458e+00
  9.211989e+00    3.269007e+00
  9.227865e+00    3.329647e+00
  9.243740e+00    3.312690e+00
  9.259616e+00    3.247710e+00
  9.275491e+00    3.224003e+00
  9.291367e+00    3.286243e+00
  9.307243e+00    3.247673e+00
  9.323118e+00    3.251925e+00
  9.338994e+00    3.292761e+00
  9.354869e+00    3.272308e+00
  9.370745e+00    3.266647e+00
  9.386620e+00    3.193557e+00
  9.402496e+00    3.190299e+00
  9.418372e+00    3.197916e+00
  9.434247e+00    3.258411e+00
  9.450123e+00    3.276411e+00
  9.465998e+00    3.257415e+00
  9.481874e+00    3.286367e+00
  9.497749e+00    3.238152e+00
  9.513625e+00    3.229923e+00
  9.529501e+00    3.279378e+00
  9.545376e+00    3.283680e+00
  9.561252e+00    3.240584e+00
  9.577127e+00    3.203716e+00
  9.593003e+00    3.257391e+00
  9.608878e+00    3.287017e+00
  9.624754e+00    3.228966e+00
  9.640630e+00    3.230568e+00
  9.656505e+00    3.253471e+00
  9.672381e+00    3.214748e+00
  9.688256e+00    3.244714e+00
  9.704132e+00    3.263304e+00
  9.720008e+00    3.244181e+00
  9.735883e+00    3.238917e+00
  9.751759e+00    3.234250e+00
  9.767634e+00    3.184040e+00
  9.783510e+00    3.235365e+00
  9.799385e+00    3.154429e+00
  9.815261e+00    3.137957e+00
  9.831137e+00    3.098782e+00
  9.847012e+00    3.154418e+00
  9.862888e+00    3.131440e+00
  9.878763e+00    3.148575e+00
  9.894639e+00    3.206462e+00
  9.910514e+00    3.127439e+00
  9.926390e+00    3.145849e+00
  9.942266e+00    3.181052e+00
  9.958141e+00    3.130849e+00
  9.974017e+00    3.119081e+00
  9.989892e+00    3.154468e+00
  1.000577e+01    3.162296e+00
  1.002164e+01    3.178998e+00
  1.003752e+01    3.120359e+00
  1.005339e+01    3.099476e+00
  1.006927e+01    3.122468e+00
  1.008515e+01    3.067402e+00
  1.010102e+01    3.134326e+00
  1.011690e+01    3.111322e+00
  1.013277e+01    3.107971e+00
  1.014865e+01    3.090075e+00
  1.016452e+01    3.101661e+00
  1.018040e+01    3.121814e+00
  1.019627e+01    3.074710e+00
  1.021215e+01    3.086820e+00
  1.022803e+01    3.061648e+00
  1.024390e+01    3.040867e+00
  1.025978e+01    3.075138e+00
  1.027565e+01    3.140856e+00
  1.029153e+01    3.087999e+00
  1.030740e+01    3.109362e+00
  1.032328e+01    3.098322e+00
  1.033915e+01    3.045033e+00
  1.035503e+01    3.023056e+00
  1.037091e+01    3.046879e+00
  1.038678e+01    3.026893e+00
  1.040266e+01    3.058054e+00
  1.041853e+01    3.080388e+00
  1.043441e+01    3.001096e+00
  1.045028e+01    3.017960e+00
  1.046616e+01    3.070896e+00
  1.048204e+01    3.029761e+00
  1.049791e+01    3.013875e+00
  1.051379e+01    3.024373e+00
  1.052966e+01    3.073991e+00
  1.054554e+01    3.054112e+00
  1.056141e+01    2.998806e+00
  1.057729e+01    3.053800e+00
  1.059316e+01    2.994223e+00
  1.060904e+01    2.970841e+00
  1.062492e+01    2.967542e+00
  1.064079e+01    3.027464e+00
  1.065667e+01    3.067542e+00
  1.067254e+01    3.028383e+00
  1.068842e+01    2.942936e+00
  1.070429e+01    2.970089e+00
  1.072017e+01    3.081132e+00
  1.073604e+01    3.033643e+00
  1.075192e+01    2.991133e+00
  1.076780e+01    2.994731e+00
  1.078367e+01    2.995713e+00
  1.079955e+01    2.951726e+00
  1.081542e+01    2.975964e+00
  1.083130e+01    2.956244e+00
  1.084717e+01    2.953959e+00
  1.086305e+01    2.963639e+00
  1.087892e+01    3.013776e+00
  1.089480e+01    2.976224e+00
  1.091068e+01    2.941752e+00
  1.092655e+01    2.938878e+00
  1.094243e+01    2.913104e+00
  1.095830e+01    2.913664e+00
  1.097418e+01    2.926851e+00
  1.099005e+01    2.923830e+00
  1.100593e+01    2.952021e+00
  1.102180e+01    2.885632e+00
  1.103768e+01    2.884117e+00
  1.105356e+01    2.873338e+00
  1.106943e+01    2.917033e+00
  1.108531e+01    2.929871e+00
  1.110118e+01    2.899838e+00
  1.111706e+01    2.882373e+00
  1.113293e+01    2.918685e+00
  1.114881e+01    2.928133e+00
  1.116468e+01    2.922898e+00
  1.118056e+01    2.889547e+00
  1.119644e+01    2.876863e+00
  1.121231e+01    2.895120e+00
  1.122819e+01    2.951236e+00
  1.124406e+01    2.838745e+00
  1.125994e+01    2.852538e+00
  1.127581e+01    2.906173e+00
  1.129169e+01    2.881959e+00
  1.130756e+01    2.828343e+00
  1.132344e+01    2.820598e+00
  1.133932e+01    2.824036e+00
  1.135519e+01    2.811511e+00
  1.137107e+01    2.882010e+00
  1.138694e+01    2.853112e+00
  1.140282e+01    2.818749e+00
  1.141869e+01    2.834722e+00
  1.143457e+01    2.824458e+00
  1.145045e+01    2.831115e+00
  1.146632e+01    2.876915e+00
  1.148220e+01    2.800701e+00
  1.149807e+01    2.806306e+00
  1.151395e+01    2.801462e+00
  1.152982e+01    2.787065e+00
  1.154570e+01    2.780544e+00
  1.156157e+01    2.761191e+00
  1.157745e+01    2.783527e+00
  1.159333e+01    2.833467e+00
  1.160920e+01    2.814211e+00
  1.162508e+01    2.776914e+00
  1.164095e+01    2.753909e+00
  1.165683e+01    2.743770e+00
  1.167270e+01    2.815533e+00
  1.168858e+01    2.809560e+00
  1.170445e+01    2.817782e+00
  1.172033e+01    2.795939e+00
  1.173621e+01    2.765726e+00
  1.175208e+01    2.787434e+00
  1.176796e+01    2.827220e+00
  1.178383e+01    2.788540e+00
  1.179971e+01    2.789236e+00
  1.181558e+01    2.795602e+00
  1.183146e+01    2.755416e+00
  1.184733e+01    2.755019e+00
  1.186321e+01    2.777457e+00
  1.187909e+01    2.731419e+00
  1.189496e+01    2.746485e+00
  1.191084e+01    2.727318e+00
  1.192671e+01    2.746333e+00
  1.194259e+01    2.747326e+00
  1.195846e+01    2.778706e+00
  1.197434e+01    2.760537e+00
  1.199021e+01    2.709244e+00
  1.200609e+01    2.753841e+00
  1.202197e+01    2.742376e+00
  1.203784e+01    2.705675e+00
  1.205372e+01    2.690726e+00
  1.206959e+01    2.708375e+00
  1.208547e+01    2.687407e+00
  1.210134e+01    2.677763e+00
  1.211722e+01    2.674376e+00
  1.213309e+01    2.705441e+00
  1.214897e+01    2.707580e+00
  1.216485e+01    2.685831e+00
  1.218072e+01    2.726646e+00
  1.219660e+01    2.708851e+00
  1.221247e+01    2.685674e+00
  1.222835e+01    2.687383e+00
  1.224422e+01    2.697693e+00
  1.226010e+01    2.679994e+00
  1.227597e+01    2.687390e+00
  1.229185e+01    2.700084e+00
  1.230773e+01    2.713799e+00
  1.232360e+01    2.771427e+00
  1.233948e+01    2.773018e+00
  1.235535e+01    2.711757e+00
  1.237123e+01    2.705317e+00
  1.238710e+01    2.718362e+00
  1.240298e+01    2.666567e+00
  1.241886e+01    2.725880e+00
  1.243473e+01    2.724870e+00
  1.245061e+01    2.715232e+00
  1.246648e+01    2.721051e+00
  1.248236e+01    2.699223e+00
  1.249823e+01    2.728047e+00
  1.251411e+01    2.758047e+00
  1.252998e+01    2.744512e+00
  1.254586e+01    2.743775e+00
  1.256174e+01    2.761405e+00
  1.257761e+01    2.743215e+00
  1.259349e+01    2.779020e+00
  1.260936e+01    2.782538e+00
  1.262524e+01    2.782392e+00
  1.264111e+01    2.765661e+00
  1.265699e+01    2.793263e+00
  1.267286e+01    2.780808e+00
  1.268874e+01    2.835929e+00
  1.270462e+01    2.820181e+00
  1.272049e+01    2.835457e+00
  1.273637e+01    2.904724e+00
  1.275224e+01    2.929338e+00
  1.276812e+01    2.896238e+00
  1.278399e+01    2.927553e+00
  1.279987e+01    3.058170e+00
  1.281574e+01    3.087701e+00
  1.283162e+01    3.089025e+00
  1.284750e+01    3.233429e+00
  1.286337e+01    3.309044e+00
  1.287925e+01    3.365784e+00
  1.289512e+01    3.508851e+00
  1.291100e+01    3.678208e+00
  1.292687e+01    3.920915e+00
  1.294275e+01    4.156929e+00
  1.295862e+01    4.432144e+00
  1.297450e+01    4.834289e+00
  1.299038e+01    5.360601e+00
  1.300625e+01    5.990184e+00
  1.302213e+01    6.866274e+00
  1.303800e+01    7.790707e+00
  1.305388e+01    8.975595e+00
  1.306975e+01    1.042147e+01
  1.308563e+01    1.163839e+01
  1.310150e+01    1.277647e+01
  1.311738e+01    1.389731e+01
  1.313326e+01    1.498369e+01
  1.314913e+01    1.586794e+01
  1.316501e+01    1.645716e+01
  1.318088e+01    1.650760e+01
  1.319676e+01    1.579611e+01
  1.321263e+01    1.436742e+01
  1.322851e+01    1.254354e+01
  1.324438e+01    1.077119e+01
  1.326026e+01    9.210191e+00
  1.327614e+01    7.899429e+00
  1.329201e+01    6.872214e+00
  1.330789e+01    6.050238e+00
  1.332376e+01    5.318467e+00
  1.333964e+01    4.849106e+00
  1.335551e+01    4.492405e+00
  1.337139e+01    4.156708e+00
  1.338727e+01    3.879731e+00
  1.340314e+01    3.736090e+00
  1.341902e+01    3.585703e+00
  1.343489e+01    3.376622e+00
  1.345077e+01    3.204807e+00
  1.346664e+01    3.166499e+00
  1.348252e+01    3.107642e+00
  1.349839e+01    2.997704e+00
  1.351427e+01    2.936020e+00
  1.353015e+01    2.828539e+00
  1.354602e+01    2.818847e+00
  1.356190e+01    2.767849e+00
  1.357777e+01    2.767009e+00
  1.359365e+01    2.718451e+00
  1.360952e+01    2.671662e+00
  1.362540e+01    2.673800e+00
  1.364127e+01    2.679075e+00
  1.365715e+01    2.625521e+00
  1.367303e+01    2.625473e+00
  1.368890e+01    2.629969e+00
  1.370478e+01    2.620502e+00
  1.372065e+01    2.599260e+00
  1.373653e+01    2.565159e+00
  1.375240e+01    2.558553e+00
  1.376828e+01    2.543012e+00
  1.378415e+01    2.495449e+00
  1.380003e+01    2.508842e+00
  1.381591e+01    2.530726e+00
  1.383178e+01    2.491838e+00
  1.384766e+01    2.455482e+00
  1.386353e+01    2.442403e+00
  1.387941e+01    2.443808e+00
  1.389528e+01    2.442848e+00
  1.391116e+01    2.408451e+00
  1.392703e+01    2.373395e+00
  1.394291e+01    2.366379e+00
  1.395879e+01    2.368186e+00
  1.397466e+01    2.368322e+00
  1.399054e+01    2.408628e+00
  1.400641e+01    2.362867e+00
  1.402229e+01    2.337078e+00
  1.403816e+01    2.369097e+00
  1.405404e+01    2.373742e+00
  1.406991e+01    2.378984e+00
  1.408579e+01    2.322596e+00
  1.410167e+01    2.304739e+00
  1.411754e+01    2.312740e+00
  1.413342e+01    2.357821e+00
  1.414929e+01    2.360778e+00
  1.416517e+01    2.355450e+00
  1.418104e+01    2.367529e+00
  1.419692e+01    2.357147e+00
  1.421279e+01    2.308547e+00
  1.422867e+01    2.376614e+00
  1.424455e+01    2.343347e+00
  1.426042e+01    2.336812e+00
  1.427630e+01    2.330381e+00
  1.429217e+01    2.319988e+00
  1.430805e+01    2.292191e+00
  1.432392e+01    2.268204e+00
  1.433980e+01    2.235807e+00
  1.435568e+01    2.238549e+00
  1.437155e+01    2.267756e+00
  1.438743e+01    2.253478e+00
  1.440330e+01    2.250939e+00
  1.441918e+01    2.309400e+00
  1.443505e+01    2.217620e+00
  1.445093e+01    2.230906e+00
  1.446680e+01    2.250291e+00
  1.448268e+01    2.250844e+00
  1.449856e+01    2.231845e+00
  1.451443e+01    2.249860e+00
  1.453031e+01    2.248613e+00
  1.454618e+01    2.239963e+00
  1.456206e+01    2.210836e+00
  1.457793e+01    2.214409e+00
  1.459381e+01    2.230892e+00
  1.460968e+01    2.234702e+00
  1.462556e+01    2.234843e+00
  1.464144e+01    2.229042e+00
  1.465731e+01    2.257456e+00
  1.467319e+01    2.260141e+00
  1.468906e+01    2.261396e+00
  1.470494e+01    2.250706e+00
  1.472081e+01    2.260011e+00
  1.473669e+01    2.199596e+00
  1.475256e+01    2.215174e+00
  1.476844e+01    2.187768e+00
  1.478432e+01    2.205347e+00
  1.480019e+01    2.226494e+00
  1.481607e+01    2.213096e+00
  1.483194e+01    2.188195e+00
  1.484782e+01    2.223068e+00
  1.486369e+01    2.246126e+00
  1.487957e+01    2.258763e+00
  1.489544e+01    2.254856e+00
  1.491132e+01    2.296099e+00
  1.492720e+01    2.303587e+00
  1.494307e+01    2.294358e+00
  1.495895e+01    2.334503e+00
  1.497482e+01    2.359249e+00
  1.499070e+01    2.387914e+00
  1.500657e+01    2.418267e+00
  1.502245e+01    2.524736e+00
  1.503832e+01    2.641460e+00
  1.505420e+01    2.712917e+00
  1.507008e+01    2.862587e+00
  1.508595e+01    3.016093e+00
  1.510183e+01    3.234674e+00
  1.511770e+01    3.527093e+00
  1.513358e+01    3.862425e+00
  1.514945e+01    4.227339e+00
  1.516533e+01    4.517084e+00
  1.518120e+01    4.894516e+00
  1.519708e+01    5.284741e+00
  1.521296e+01    5.525729e+00
  1.522883e+01    5.720350e+00
  1.524471e+01    5.833667e+00
  1.526058e+01    5.854438e+00
  1.527646e+01    5.764803e+00
  1.529233e+01    5.509732e+00
  1.530821e+01    5.177056e+00
  1.532409e+01    4.649324e+00
  1.533996e+01    4.201786e+00
  1.535584e+01    3.819558e+00
  1.537171e+01    3.512367e+00
  1.538759e+01    3.178871e+00
  1.540346e+01    2.905638e+00
  1.541934e+01    2.769726e+00
  1.543521e+01    2.636687e+00
  1.545109e+01    2.556473e+00
  1.546697e+01    2.465965e+00
  1.548284e+01    2.380561e+00
  1.549872e+01    2.312235e+00
  1.551459e+01    2.276885e+00
  1.553047e+01    2.280575e+00
  1.554634e+01    2.237754e+00
  1.556222e+01    2.134051e+00
  1.557809e+01    2.146186e+00
  1.559397e+01    2.145287e+00
  1.560985e+01    2.117299e+00
  1.562572e+01    2.088304e+00
  1.564160e+01    2.039849e+00
  1.565747e+01    2.043033e+00
  1.567335e+01    2.070603e+00
  1.568922e+01    2.047264e+00
  1.570510e+01    1.998682e+00
  1.572097e+01    1.984357e+00
  1.573685e+01    1.998896e+00
  1.575273e+01    2.026589e+00
  1.576860e+01    1.963369e+00
  1.578448e+01    1.973417e+00
  1.580035e+01    1.952453e+00
  1.581623e+01    1.954993e+00
  1.583210e+01    1.939059e+00
  1.584798e+01    1.914491e+00
  1.586385e+01    1.921731e+00
  1.587973e+01    1.888037e+00
  1.589561e+01    1.913877e+00
  1.591148e+01    1.906359e+00
  1.592736e+01    1.895006e+00
  1.594323e+01    1.930472e+00
  1.595911e+01    1.906363e+00
  1.597498e+01    1.919941e+00
  1.599086e+01    1.921277e+00
  1.600673e+01    1.887881e+00
  1.602261e+01    1.862639e+00
  1.603849e+01    1.852792e+00
  1.605436e+01    1.881592e+00
  1.607024e+01    1.860605e+00
  1.608611e+01    1.861537e+00
  1.610199e+01    1.883383e+00
  1.611786e+01    1.856273e+00
  1.613374e+01    1.862807e+00
  1.614961e+01    1.878105e+00
  1.616549e+01    1.834778e+00
  1.618137e+01    1.815885e+00
  1.619724e+01    1.772202e+00
  1.621312e+01    1.809034e+00
  1.622899e+01    1.827016e+00
  1.624487e+01    1.824541e+00
  1.626074e+01    1.830329e+00
  1.627662e+01    1.802964e+00
  1.629250e+01    1.800001e+00
  1.630837e+01    1.829739e+00
  1.632425e+01    1.825886e+00
  1.634012e+01    1.794170e+00
  1.635600e+01    1.754095e+00
  1.637187e+01    1.787225e+00
  1.638775e+01    1.801849e+00
  1.640362e+01    1.796368e+00
  1.641950e+01    1.833451e+00
  1.643538e+01    1.845151e+00
  1.645125e+01    1.776312e+00
  1.646713e+01    1.746605e+00
  1.648300e+01    1.781791e+00
  1.649888e+01    1.771518e+00
  1.651475e+01    1.747883e+00
  1.653063e+01    1.730301e+00
  1.654650e+01    1.750152e+00
  1.656238e+01    1.793852e+00
  1.657826e+01    1.769635e+00
  1.659413e+01    1.734120e+00
  1.661001e+01    1.773079e+00
  1.662588e+01    1.753027e+00
  1.664176e+01    1.767046e+00
  1.665763e+01    1.761296e+00
  1.667351e+01    1.748298e+00
  1.668938e+01    1.704812e+00
  1.670526e+01    1.714410e+00
  1.672114e+01    1.713644e+00
  1.673701e+01    1.747620e+00
  1.675289e+01    1.733230e+00
  1.676876e+01    1.742229e+00
  1.678464e+01    1.731076e+00
  1.680051e+01    1.730106e+00
  1.681639e+01    1.744677e+00
  1.683226e+01    1.772937e+00
  1.684814e+01    1.722494e+00
  1.686402e+01    1.680136e+00
  1.687989e+01    1.669821e+00
  1.689577e+01    1.708631e+00
  1.691164e+01    1.699442e+00
  1.692752e+01    1.691945e+00
  1.694339e+01    1.666602e+00
  1.695927e+01    1.674205e+00
  1.697514e+01    1.678219e+00
  1.699102e+01    1.680036e+00
  1.700690e+01    1.675424e+00
  1.702277e+01    1.650121e+00
  1.703865e+01    1.679685e+00
  1.705452e+01    1.655359e+00
  1.707040e+01    1.656770e+00
  1.708627e+01    1.664985e+00
  1.710215e+01    1.673329e+00
  1.711802e+01    1.689973e+00
  1.713390e+01    1.662741e+00
  1.714978e+01    1.644933e+00
  1.716565e+01    1.661345e+00
  1.718153e+01    1.656394e+00
  1.719740e+01    1.672439e+00
  1.721328e+01    1.665224e+00
  1.722915e+01    1.642082e+00
  1.724503e+01    1.665523e+00
  1.726091e+01    1.648527e+00
  1.727678e+01    1.617453e+00
  1.729266e+01    1.626219e+00
  1.730853e+01    1.621068e+00
  1.732441e+01    1.589360e+00
  1.734028e+01    1.609101e+00
  1.735616e+01    1.632729e+00
  1.737203e+01    1.624523e+00
  1.738791e+01    1.607517e+00
  1.740379e+01    1.617248e+00
  1.741966e+01    1.607600e+00
  1.743554e+01    1.588432e+00
  1.745141e+01    1.594177e+00
  1.746729e+01    1.590596e+00
  1.748316e+01    1.587748e+00
  1.749904e+01    1.582413e+00
  1.751491e+01    1.596935e+00
  1.753079e+01    1.587525e+00
  1.754667e+01    1.594111e+00
  1.756254e+01    1.588682e+00
  1.757842e+01    1.582585e+00
  1.759429e+01    1.590433e+00
  1.761017e+01    1.595624e+00
  1.762604e+01    1.582805e+00
  1.764192e+01    1.582718e+00
  1.765779e+01    1.548921e+00
  1.767367e+01    1.553470e+00
  1.768955e+01    1.586012e+00
  1.770542e+01    1.575701e+00
  1.772130e+01    1.558192e+00
  1.773717e+01    1.545625e+00
  1.775305e+01    1.545741e+00
  1.776892e+01    1.541741e+00
  1.778480e+01    1.532667e+00
  1.780067e+01    1.541944e+00
  1.781655e+01    1.542165e+00
  1.783243e+01    1.559729e+00
  1.784830e+01    1.542537e+00
  1.786418e+01    1.526460e+00
  1.788005e+01    1.548771e+00
  1.789593e+01    1.555488e+00
  1.791180e+01    1.525142e+00
  1.792768e+01    1.501421e+00
  1.794355e+01    1.541406e+00
  1.795943e+01    1.552357e+00
  1.797531e+01    1.518268e+00
  1.799118e+01    1.530782e+00
  1.800706e+01    1.546226e+00
  1.802293e+01    1.556166e+00
  1.803881e+01    1.513109e+00
  1.805468e+01    1.502028e+00
  1.807056e+01    1.474803e+00
  1.808643e+01    1.478861e+00
  1.810231e+01    1.498925e+00
  1.811819e+01    1.511814e+00
  1.813406e+01    1.498350e+00
  1.814994e+01    1.475502e+00
  1.816581e+01    1.460648e+00
  1.818169e+01    1.499695e+00
  1.819756e+01    1.520927e+00
  1.821344e+01    1.447897e+00
  1.822932e+01    1.454619e+00
  1.824519e+01    1.475096e+00
  1.826107e+01    1.488423e+00
  1.827694e+01    1.474403e+00
  1.829282e+01    1.468922e+00
  1.830869e+01    1.443864e+00
  1.832457e+01    1.480688e+00
  1.834044e+01    1.468936e+00
  1.835632e+01    1.462799e+00
  1.837220e+01    1.503724e+00
  1.838807e+01    1.479942e+00
  1.840395e+01    1.466875e+00
  1.841982e+01    1.450735e+00
  1.843570e+01    1.464566e+00
  1.845157e+01    1.482278e+00
  1.846745e+01    1.472916e+00
  1.848332e+01    1.459349e+00
  1.849920e+01    1.446535e+00
  1.851508e+01    1.445264e+00
  1.853095e+01    1.438170e+00
  1.854683e+01    1.444603e+00
  1.856270e+01    1.419603e+00
  1.857858e+01    1.437490e+00
  1.859445e+01    1.426800e+00
  1.861033e+01    1.453058e+00
  1.862620e+01    1.465516e+00
  1.864208e+01    1.449432e+00
  1.865796e+01    1.429940e+00
  1.867383e+01    1.409611e+00
  1.868971e+01    1.410043e+00
  1.870558e+01    1.414175e+00
  1.872146e+01    1.410545e+00
  1.873733e+01    1.453937e+00
  1.875321e+01    1.454370e+00
  1.876908e+01    1.433812e+00
  1.878496e+01    1.433140e+00
  1.880084e+01    1.377879e+00
  1.881671e+01    1.387228e+00
  1.883259e+01    1.421908e+00
  1.884846e+01    1.416957e+00
  1.886434e+01    1.404060e+00
  1.888021e+01    1.423493e+00
  1.889609e+01    1.409917e+00
  1.891196e+01    1.402916e+00
  1.892784e+01    1.426579e+00
  1.894372e+01    1.436091e+00
  1.895959e+01    1.389917e+00
  1.897547e+01    1.393536e+00
  1.899134e+01    1.407141e+00
  1.900722e+01    1.387999e+00
  1.902309e+01    1.406746e+00
  1.903897e+01    1.398970e+00
  1.905484e+01    1.380171e+00
  1.907072e+01    1.385717e+00
  1.908660e+01    1.374457e+00
  1.910247e+01    1.363517e+00
  1.911835e+01    1.374583e+00
  1.913422e+01    1.355462e+00
  1.915010e+01    1.366796e+00
  1.916597e+01    1.361182e+00
  1.918185e+01    1.360559e+00
  1.919773e+01    1.350492e+00
  1.921360e+01    1.356392e+00
  1.922948e+01    1.348548e+00
  1.924535e+01    1.353317e+00
  1.926123e+01    1.371356e+00
  1.927710e+01    1.374740e+00
  1.929298e+01    1.333502e+00
  1.930885e+01    1.361103e+00
  1.932473e+01    1.384277e+00
  1.934061e+01    1.351129e+00
  1.935648e+01    1.348006e+00
  1.937236e+01    1.366490e+00
  1.938823e+01    1.352346e+00
  1.940411e+01    1.345028e+00
  1.941998e+01    1.361046e+00
  1.943586e+01    1.363905e+00
  1.945173e+01    1.343052e+00
  1.946761e+01    1.344573e+00
  1.948349e+01    1.333723e+00
  1.949936e+01    1.330616e+00
  1.951524e+01    1.321365e+00
  1.953111e+01    1.321191e+00
  1.954699e+01    1.336084e+00
  1.956286e+01    1.351084e+00
  1.957874e+01    1.367864e+00
  1.959461e+01    1.355530e+00
  1.961049e+01    1.327309e+00
  1.962637e+01    1.303768e+00
  1.964224e+01    1.309974e+00
  1.965812e+01    1.326173e+00
  1.967399e+01    1.309480e+00
  1.968987e+01    1.319506e+00
  1.970574e+01    1.331888e+00
  1.972162e+01    1.336852e+00
  1.973749e+01    1.329746e+00
  1.975337e+01    1.318731e+00
  1.976925e+01    1.303981e+00
  1.978512e+01    1.328589e+00
  1.980100e+01    1.316586e+00
  1.981687e+01    1.303327e+00
  1.983275e+01    1.291929e+00
  1.984862e+01    1.272444e+00
  1.986450e+01    1.311693e+00
  1.988037e+01    1.317368e+00
  1.989625e+01    1.320622e+00
  1.991213e+01    1.284195e+00
  1.992800e+01    1.290350e+00
  1.994388e+01    1.310668e+00
  1.995975e+01    1.277840e+00
  1.997563e+01    1.264966e+00
  1.999150e+01    1.262771e+00
  2.000738e+01    1.268870e+00
  2.002325e+01    1.298804e+00
  2.003913e+01    1.272383e+00
  2.005501e+01    1.267199e+00
  2.007088e+01    1.276326e+00
  2.008676e+01    1.278216e+00
  2.010263e+01    1.287120e+00
  2.011851e+01    1.269790e+00
  2.013438e+01    1.268633e+00
  2.015026e+01    1.284236e+00
  2.016614e+01    1.281625e+00
  2.018201e+01    1.267480e+00
  2.019789e+01    1.266209e+00
  2.021376e+01    1.244757e+00
  2.022964e+01    1.244715e+00
  2.024551e+01    1.267283e+00
  2.026139e+01    1.282141e+00
  2.027726e+01    1.281951e+00
  2.029314e+01    1.279120e+00
  2.030902e+01    1.277523e+00
  2.032489e+01    1.259487e+00
  2.034077e+01    1.248800e+00
  2.035664e+01    1.228177e+00
  2.037252e+01    1.232956e+00
  2.038839e+01    1.259271e+00
  2.040427e+01    1.244881e+00
  2.042014e+01    1.258787e+00
  2.043602e+01    1.280202e+00
  2.045190e+01    1.245811e+00
  2.046777e+01    1.233643e+00
  2.048365e+01    1.258740e+00
  2.049952e+01    1.238834e+00
  2.051540e+01    1.226165e+00
  2.053127e+01    1.239784e+00
  2.054715e+01    1.236538e+00
  2.056302e+01    1.246201e+00
  2.057890e+01    1.237883e+00
  2.059478e+01    1.230546e+00
  2.061065e+01    1.230002e+00
  2.062653e+01    1.226733e+00
  2.064240e+01    1.270751e+00
  2.065828e+01    1.269420e+00
  2.067415e+01    1.265549e+00
  2.069003e+01    1.231189e+00
  2.070590e+01    1.259001e+00
  2.072178e+01    1.237501e+00
  2.073766e+01    1.258831e+00
  2.075353e+01    1.247148e+00
  2.076941e+01    1.213205e+00
  2.078528e+01    1.210600e+00
  2.080116e+01    1.240315e+00
  2.081703e+01    1.224945e+00
  2.083291e+01    1.217629e+00
  2.084878e+01    1.209779e+00
  2.086466e+01    1.195344e+00
  2.088054e+01    1.211518e+00
  2.089641e+01    1.236746e+00
  2.091229e+01    1.220121e+00
  2.092816e+01    1.250528e+00
  2.094404e+01    1.248175e+00
  2.095991e+01    1.215657e+00
  2.097579e+01    1.227747e+00
  2.099166e+01    1.239237e+00
  2.100754e+01    1.243422e+00
  2.102342e+01    1.235033e+00
  2.103929e+01    1.220248e+00
  2.105517e+01    1.242943e+00
  2.107104e+01    1.250174e+00
  2.108692e+01    1.243597e+00
  2.110279e+01    1.220819e+00
  2.111867e+01    1.230320e+00
  2.113455e+01    1.229226e+00
  2.115042e+01    1.244187e+00
  2.116630e+01    1.242764e+00
  2.118217e+01    1.267537e+00
  2.119805e+01    1.245011e+00
  2.121392e+01    1.236461e+00
  2.122980e+01    1.238429e+00
  2.124567e+01    1.242820e+00
  2.126155e+01    1.254196e+00
  2.127743e+01    1.259819e+00
  2.129330e+01    1.253240e+00
  2.130918e+01    1.275274e+00
  2.132505e+01    1.277499e+00
  2.134093e+01    1.301221e+00
  2.135680e+01    1.296673e+00
  2.137268e+01    1.301252e+00
  2.138855e+01    1.308759e+00
  2.140443e+01    1.316065e+00
  2.142031e+01    1.335557e+00
  2.143618e+01    1.356136e+00
  2.145206e+01    1.388903e+00
  2.146793e+01    1.399431e+00
  2.148381e+01    1.405902e+00
  2.149968e+01    1.450902e+00
  2.151556e+01    1.458007e+00
  2.153143e+01    1.471106e+00
  2.154731e+01    1.548551e+00
  2.156319e+01    1.593993e+00
  2.157906e+01    1.626387e+00
  2.159494e+01    1.711842e+00
  2.161081e+01    1.773780e+00
  2.162669e+01    1.864835e+00
  2.164256e+01    1.992015e+00
  2.165844e+01    2.161027e+00
  2.167431e+01    2.363132e+00
  2.169019e+01    2.533870e+00
  2.170607e+01    2.759950e+00
  2.172194e+01    3.198810e+00
  2.173782e+01    3.642960e+00
  2.175369e+01    4.126313e+00
  2.176957e+01    4.668761e+00
  2.178544e+01    5.316233e+00
  2.180132e+01    5.914872e+00
  2.181719e+01    6.561406e+00
  2.183307e+01    7.331640e+00
  2.184895e+01    7.953679e+00
  2.186482e+01    8.534399e+00
  2.188070e+01    8.946832e+00
  2.189657e+01    9.064302e+00
  2.191245e+01    8.776907e+00
  2.192832e+01    8.310588e+00
  2.194420e+01    7.515481e+00
  2.196007e+01    6.551475e+00
  2.197595e+01    5.642296e+00
  2.199183e+01    4.836438e+00
  2.200770e+01    4.156631e+00
  2.202358e+01    3.646765e+00
  2.203945e+01    3.210535e+00
  2.205533e+01    2.827250e+00
  2.207120e+01    2.545805e+00
  2.208708e+01    2.344450e+00
  2.210296e+01    2.153167e+00
  2.211883e+01    1.990929e+00
  2.213471e+01    1.860808e+00
  2.215058e+01    1.767462e+00
  2.216646e+01    1.682454e+00
  2.218233e+01    1.607739e+00
  2.219821e+01    1.571997e+00
  2.221408e+01    1.524336e+00
  2.222996e+01    1.468398e+00
  2.224584e+01    1.402471e+00
  2.226171e+01    1.366312e+00
  2.227759e+01    1.345650e+00
  2.229346e+01    1.315576e+00
  2.230934e+01    1.321012e+00
  2.232521e+01    1.311780e+00
  2.234109e+01    1.273075e+00
  2.235696e+01    1.256388e+00
  2.237284e+01    1.247952e+00
  2.238872e+01    1.212055e+00
  2.240459e+01    1.212110e+00
  2.242047e+01    1.211864e+00
  2.243634e+01    1.186414e+00
  2.245222e+01    1.168327e+00
  2.246809e+01    1.175333e+00
  2.248397e+01    1.183498e+00
  2.249984e+01    1.176239e+00
  2.251572e+01    1.145700e+00
  2.253160e+01    1.145220e+00
  2.254747e+01    1.133348e+00
  2.256335e+01    1.137721e+00
  2.257922e+01    1.103591e+00
  2.259510e+01    1.103722e+00
  2.261097e+01    1.120642e+00
  2.262685e+01    1.103346e+00
  2.264272e+01    1.113946e+00
  2.265860e+01    1.100661e+00
  2.267448e+01    1.084611e+00
  2.269035e+01    1.097217e+00
  2.270623e+01    1.098352e+00
  2.272210e+01    1.075224e+00
  2.273798e+01    1.075029e+00
  2.275385e+01    1.083338e+00
  2.276973e+01    1.052042e+00
  2.278560e+01    1.067568e+00
  2.280148e+01    1.088064e+00
  2.281736e+01    1.083017e+00
  2.283323e+01    1.055801e+00
  2.284911e+01    1.062135e+00
  2.286498e+01    1.053347e+00
  2.288086e+01    1.043245e+00
  2.289673e+01    1.056315e+00
  2.291261e+01    1.044943e+00
  2.292848e+01    1.044939e+00
  2.294436e+01    1.030322e+00
  2.296024e+01    1.035959e+00
  2.297611e+01    1.002080e+00
  2.299199e+01    1.015906e+00
  2.300786e+01    1.009160e+00
  2.302374e+01    1.016993e+00
  2.303961e+01    1.028810e+00
  2.305549e+01    1.046707e+00
  2.307137e+01    1.044052e+00
  2.308724e+01    1.040943e+00
  2.310312e+01    1.017447e+00
  2.311899e+01    1.017848e+00
  2.313487e+01    1.029423e+00
  2.315074e+01    1.002417e+00
  2.316662e+01    9.863746e-01
  2.318249e+01    1.017062e+00
  2.319837e+01    9.995828e-01
  2.321425e+01    9.952335e-01
  2.323012e+01    1.013609e+00
  2.324600e+01    9.869747e-01
  2.326187e+01    9.881502e-01
  2.327775e+01    9.773918e-01
  2.329362e+01    9.885371e-01
  2.330950e+01    9.878217e-01
  2.332537e+01    9.765252e-01
  2.334125e+01    9.726968e-01
  2.335713e+01    9.829981e-01
  2.337300e+01    9.778337e-01
  2.338888e+01    1.013422e+00
  2.340475e+01    9.985799e-01
  2.342063e+01    9.741548e-01
  2.343650e+01    9.585239e-01
  2.345238e+01    9.926223e-01
  2.346825e+01    9.746687e-01
  2.348413e+01    9.545436e-01
  2.350001e+01    9.641551e-01
  2.351588e+01    9.557111e-01
  2.353176e+01    9.594482e-01
  2.354763e+01    9.518088e-01
  2.356351e+01    9.663646e-01
  2.357938e+01    9.776636e-01
  2.359526e+01    9.760460e-01
  2.361113e+01    9.686632e-01
  2.362701e+01    9.548445e-01
  2.364289e+01    9.498310e-01
  2.365876e+01    9.625508e-01
  2.367464e+01    9.492973e-01
  2.369051e+01    9.281729e-01
  2.370639e+01    9.281250e-01
  2.372226e+01    9.391761e-01
  2.373814e+01    9.384565e-01
  2.375401e+01    9.377248e-01
  2.376989e+01    9.449374e-01
  2.378577e+01    9.617700e-01
  2.380164e+01    9.265544e-01
  2.381752e+01    9.235602e-01
  2.383339e+01    9.328775e-01
  2.384927e+01    9.234985e-01
  2.386514e+01    9.339148e-01
  2.388102e+01    9.257985e-01
  2.389689e+01    9.278528e-01
  2.391277e+01    9.031529e-01
  2.392865e+01    9.109782e-01
  2.394452e+01    8.953429e-01
  2.396040e+01    9.148764e-01
  2.397627e+01    9.093035e-01
  2.399215e+01    8.789478e-01
  2.400802e+01    8.829017e-01
  2.402390e+01    9.130352e-01
  2.403978e+01    8.963971e-01
  2.405565e+01    8.998807e-01
  2.407153e+01    8.948089e-01
  2.408740e+01    8.701377e-01
  2.410328e+01    8.661422e-01
  2.411915e+01    9.123647e-01
  2.413503e+01    9.040849e-01
  2.415090e+01    8.934717e-01
  2.416678e+01    8.929103e-01
  2.418266e+01    8.968272e-01
  2.419853e+01    8.919556e-01
  2.421441e+01    8.911085e-01
  2.423028e+01    8.911090e-01
  2.424616e+01    8.801893e-01
  2.426203e+01    8.943754e-01
  2.427791e+01    8.931978e-01
  2.429378e+01    8.942341e-01
  2.430966e+01    9.203096e-01
  2.432554e+01    8.954182e-01
  2.434141e+01    9.055786e-01
  2.435729e+01    9.187942e-01
  2.437316e+01    8.997031e-01
  2.438904e+01    8.865902e-01
  2.440491e+01    9.011208e-01
  2.442079e+01    9.158611e-01
  2.443666e+01    8.986387e-01
  2.445254e+01    9.081456e-01
  2.446842e+01    8.993934e-01
  2.448429e+01    8.938994e-01
  2.450017e+01    9.074168e-01
  2.451604e+01    8.891859e-01
  2.453192e+01    8.846064e-01
  2.454779e+01    8.923177e-01
  2.456367e+01    8.963726e-01
  2.457954e+01    8.847697e-01
  2.459542e+01    9.004920e-01
  2.461130e+01    9.010579e-01
  2.462717e+01    9.089047e-01
  2.464305e+01    9.168731e-01
  2.465892e+01    9.053109e-01
  2.467480e+01    8.952219e-01
  2.469067e+01    9.208567e-01
  2.470655e+01    8.958583e-01
  2.472242e+01    9.111134e-01
  2.473830e+01    9.029165e-01
  2.475418e+01    9.072005e-01
  2.477005e+01    8.879119e-01
  2.478593e+01    8.831131e-01
  2.480180e+01    8.839255e-01
  2.481768e+01    9.071969e-01
  2.483355e+01    8.942171e-01
  2.484943e+01    8.973405e-01
  2.486530e+01    9.039040e-01
  2.488118e+01    9.044545e-01
  2.489706e+01    9.023939e-01
  2.491293e+01    8.753096e-01
  2.492881e+01    8.833850e-01
  2.494468e+01    8.987289e-01
  2.496056e+01    9.012601e-01
  2.497643e+01    8.982945e-01
  2.499231e+01    9.029356e-01
  2.500819e+01    9.105228e-01
  2.502406e+01    9.000661e-01
  2.503994e+01    9.224510e-01
  2.505581e+01    9.132017e-01
  2.507169e+01    9.036331e-01
  2.508756e+01    9.106541e-01
  2.510344e+01    9.129688e-01
  2.511931e+01    9.088341e-01
  2.513519e+01    9.194467e-01
  2.515107e+01    9.070783e-01
  2.516694e+01    9.168631e-01
  2.518282e+01    9.346083e-01
  2.519869e+01    9.275037e-01
  2.521457e+01    9.252018e-01
  2.523044e+01    9.290987e-01
  2.524632e+01    9.264958e-01
  2.526219e+01    9.363267e-01
  2.527807e+01    9.472758e-01
  2.529395e+01    9.571540e-01
  2.530982e+01    9.644902e-01
  2.532570e+01    9.777364e-01
  2.534157e+01    9.871658e-01
  2.535745e+01    9.841777e-01
  2.537332e+01    9.859822e-01
  2.538920e+01    1.000433e+00
  2.540507e+01    1.022468e+00
  2.542095e+01    9.837140e-01
  2.543683e+01    1.000791e+00
  2.545270e+01    1.018001e+00
  2.546858e+01    1.020464e+00
  2.548445e+01    1.050724e+00
  2.550033e+01    1.057227e+00
  2.551620e+01    1.081919e+00
  2.553208e+01    1.108370e+00
  2.554795e+01    1.115428e+00
  2.556383e+01    1.120206e+00
  2.557971e+01    1.144028e+00
  2.559558e+01    1.184106e+00
  2.561146e+01    1.209042e+00
  2.562733e+01    1.280543e+00
  2.564321e+01    1.333042e+00
  2.565908e+01    1.364283e+00
  2.567496e+01    1.426117e+00
  2.569083e+01    1.508259e+00
  2.570671e+01    1.626547e+00
  2.572259e+01    1.726414e+00
  2.573846e+01    1.849488e+00
  2.575434e+01    2.054602e+00
  2.577021e+01    2.282437e+00
  2.578609e+01    2.547925e+00
  2.580196e+01    2.856150e+00
  2.581784e+01    3.227415e+00
  2.583371e+01    3.703293e+00
  2.584959e+01    4.221720e+00
  2.586547e+01    4.783374e+00
  2.588134e+01    5.368902e+00
  2.589722e+01    5.898500e+00
  2.591309e+01    6.446355e+00
  2.592897e+01    6.885948e+00
  2.594484e+01    7.124150e+00
  2.596072e+01    7.251558e+00
  2.597660e+01    7.027537e+00
  2.599247e+01    6.546939e+00
  2.600835e+01    5.956483e+00
  2.602422e+01    5.244686e+00
  2.604010e+01    4.581172e+00
  2.605597e+01    3.976460e+00
  2.607185e+01    3.435979e+00
  2.608772e+01    2.997605e+00
  2.610360e+01    2.641305e+00
  2.611948e+01    2.340808e+00
  2.613535e+01    2.123892e+00
  2.615123e+01    1.984966e+00
  2.616710e+01    1.812271e+00
  2.618298e+01    1.668300e+00
  2.619885e+01    1.585508e+00
  2.621473e+01    1.486384e+00
  2.623060e+01    1.409969e+00
  2.624648e+01    1.369207e+00
  2.626236e+01    1.307183e+00
  2.627823e+01    1.245772e+00
  2.629411e+01    1.221649e+00
  2.630998e+01    1.194731e+00
  2.632586e+01    1.169099e+00
  2.634173e+01    1.127361e+00
  2.635761e+01    1.100372e+00
  2.637348e+01    1.097492e+00
  2.638936e+01    1.071536e+00
  2.640524e+01    1.049410e+00
  2.642111e+01    1.061028e+00
  2.643699e+01    1.064804e+00
  2.645286e+01    1.042175e+00
  2.646874e+01    1.034000e+00
  2.648461e+01    1.020167e+00
  2.650049e+01    1.016260e+00
  2.651636e+01    1.018045e+00
  2.653224e+01    1.032657e+00
  2.654812e+01    9.894836e-01
  2.656399e+01    1.004911e+00
  2.657987e+01    9.893810e-01
  2.659574e+01    9.816539e-01
  2.661162e+01    9.813105e-01
  2.662749e+01    9.758787e-01
  2.664337e+01    9.753423e-01
  2.665924e+01    9.713246e-01
  2.667512e+01    9.799603e-01
  2.669100e+01    9.845186e-01
  2.670687e+01    9.665701e-01
  2.672275e+01    9.951015e-01
  2.673862e+01    9.769991e-01
  2.675450e+01    9.940523e-01
  2.677037e+01    9.817564e-01
  2.678625e+01    9.642212e-01
  2.680212e+01    9.735870e-01
  2.681800e+01    9.951981e-01
  2.683388e+01    9.736313e-01
  2.684975e+01    9.772478e-01
  2.686563e+01    9.984653e-01
  2.688150e+01    9.954696e-01
  2.689738e+01    1.030142e+00
  2.691325e+01    1.029761e+00
  2.692913e+01    1.029273e+00
  2.694501e+01    1.025085e+00
  2.696088e+01    1.024353e+00
  2.697676e+01    1.052863e+00
  2.699263e+01    1.092164e+00
  2.700851e+01    1.108798e+00
  2.702438e+01    1.162619e+00
  2.704026e+01    1.230997e+00
  2.705613e+01    1.265533e+00
  2.707201e+01    1.342515e+00
  2.708789e+01    1.423814e+00
  2.710376e+01    1.518101e+00
  2.711964e+01    1.611416e+00
  2.713551e+01    1.731710e+00
  2.715139e+01    1.863242e+00
  2.716726e+01    1.962684e+00
  2.718314e+01    2.069822e+00
  2.719901e+01    2.185442e+00
  2.721489e+01    2.208308e+00
  2.723077e+01    2.211901e+00
  2.724664e+01    2.106563e+00
  2.726252e+01    1.972345e+00
  2.727839e+01    1.821063e+00
  2.729427e+01    1.707498e+00
  2.731014e+01    1.544467e+00
  2.732602e+01    1.444494e+00
  2.734189e+01    1.374011e+00
  2.735777e+01    1.306118e+00
  2.737365e+01    1.232577e+00
  2.738952e+01    1.186756e+00
  2.740540e+01    1.156027e+00
  2.742127e+01    1.118559e+00
  2.743715e+01    1.069571e+00
  2.745302e+01    1.039338e+00
  2.746890e+01    1.015679e+00
  2.748477e+01    9.950498e-01
  2.750065e+01    9.839709e-01
  2.751653e+01    9.855835e-01
  2.753240e+01    9.681218e-01
  2.754828e+01    9.558304e-01
  2.756415e+01    9.430780e-01
  2.758003e+01    9.562634e-01
  2.759590e+01    9.469055e-01
  2.761178e+01    9.175013e-01
  2.762765e+01    9.413172e-01
  2.764353e+01    9.305507e-01
  2.765941e+01    9.184538e-01
  2.767528e+01    9.144680e-01
  2.769116e+01    8.904519e-01
  2.770703e+01    9.019222e-01
  2.772291e+01    9.189619e-01
  2.773878e+01    9.045664e-01
  2.775466e+01    9.081628e-01
  2.777054e+01    9.030512e-01
  2.778641e+01    8.974370e-01
  2.780229e+01    8.850479e-01
  2.781816e+01    8.995891e-01
  2.783404e+01    9.024022e-01
  2.784991e+01    8.929729e-01
  2.786579e+01    8.813912e-01
  2.788166e+01    8.710948e-01
  2.789754e+01    8.825550e-01
  2.791342e+01    8.633243e-01
  2.792929e+01    8.664047e-01
  2.794517e+01    8.653479e-01
  2.796104e+01    8.612207e-01
  2.797692e+01    8.676730e-01
  2.799279e+01    8.802944e-01
  2.800867e+01    8.576998e-01
  2.802454e+01    8.939019e-01
  2.804042e+01    8.874447e-01
  2.805630e+01    8.971356e-01
  2.807217e+01    8.854008e-01
  2.808805e+01    8.748422e-01
  2.810392e+01    8.537835e-01
  2.811980e+01    8.412177e-01
  2.813567e+01    8.424668e-01
  2.815155e+01    8.710967e-01
  2.816742e+01    8.667439e-01
  2.818330e+01    8.752533e-01
  2.819918e+01    8.652817e-01
  2.821505e+01    8.494493e-01
  2.823093e+01    8.476221e-01
  2.824680e+01    8.451885e-01
  2.826268e+01    8.555848e-01
  2.827855e+01    8.493554e-01
  2.829443e+01    8.556539e-01
  2.831030e+01    8.571671e-01
  2.832618e+01    8.580302e-01
  2.834206e+01    8.661284e-01
  2.835793e+01    8.462706e-01
  2.837381e+01    8.427988e-01
  2.838968e+01    8.535768e-01
  2.840556e+01    8.512002e-01
  2.842143e+01    8.420016e-01
  2.843731e+01    8.272059e-01
  2.845318e+01    8.472613e-01
  2.846906e+01    8.582113e-01
  2.848494e+01    8.276156e-01
  2.850081e+01    8.373016e-01
  2.851669e+01    8.406891e-01
  2.853256e+01    8.174667e-01
  2.854844e+01    8.401947e-01
  2.856431e+01    8.642711e-01
  2.858019e+01    8.388981e-01
  2.859606e+01    8.455492e-01
  2.861194e+01    8.331994e-01
  2.862782e+01    8.220111e-01
  2.864369e+01    8.270259e-01
  2.865957e+01    8.330880e-01
  2.867544e+01    8.612835e-01
  2.869132e+01    8.603761e-01
  2.870719e+01    8.141363e-01
  2.872307e+01    8.267688e-01
  2.873895e+01    8.526731e-01
  2.875482e+01    8.475606e-01
  2.877070e+01    8.468721e-01
  2.878657e+01    8.737525e-01
  2.880245e+01    8.348568e-01
  2.881832e+01    8.268736e-01
  2.883420e+01    8.263050e-01
  2.885007e+01    8.283877e-01
  2.886595e+01    8.412608e-01
  2.888183e+01    8.445309e-01
  2.889770e+01    8.431961e-01
  2.891358e+01    8.382974e-01
  2.892945e+01    8.251048e-01
  2.894533e+01    8.455468e-01
  2.896120e+01    8.423603e-01
  2.897708e+01    8.409554e-01
  2.899295e+01    8.323632e-01
  2.900883e+01    8.213263e-01
  2.902471e+01    8.296826e-01
  2.904058e+01    8.273677e-01
  2.905646e+01    8.201918e-01
  2.907233e+01    8.127692e-01
  2.908821e+01    8.179852e-01
  2.910408e+01    8.063172e-01
  2.911996e+01    8.205882e-01
  2.913583e+01    8.311520e-01
  2.915171e+01    8.545517e-01
  2.916759e+01    8.348441e-01
  2.918346e+01    8.194687e-01
  2.919934e+01    7.978269e-01
  2.921521e+01    8.201078e-01
  2.923109e+01    8.102933e-01
  2.924696e+01    8.040690e-01
  2.926284e+01    8.139663e-01
  2.927871e+01    8.397163e-01
  2.929459e+01    8.362945e-01
  2.931047e+01    8.198245e-01
  2.932634e+01    8.016098e-01
  2.934222e+01    7.964593e-01
  2.935809e+01    8.241938e-01
  2.937397e+01    8.122159e-01
  2.938984e+01    8.030002e-01
  2.940572e+01    8.182467e-01
  2.942159e+01    8.155276e-01
  2.943747e+01    8.307194e-01
  2.945335e+01    8.004044e-01
  2.946922e+01    7.948534e-01
  2.948510e+01    7.982556e-01
  2.950097e+01    8.079978e-01
  2.951685e+01    7.980930e-01
  2.953272e+01    8.102175e-01
  2.954860e+01    8.123038e-01
  2.956447e+01    8.163166e-01
  2.958035e+01    8.113046e-01
  2.959623e+01    8.014893e-01
  2.961210e+01    8.008664e-01
  2.962798e+01    7.985141e-01
  2.964385e+01    7.923651e-01
  2.965973e+01    8.062640e-01
  2.967560e+01    8.065736e-01
  2.969148e+01    8.037887e-01
  2.970736e+01    7.947781e-01
  2.972323e+01    7.935835e-01
  2.973911e+01    7.857329e-01
  2.975498e+01    7.991597e-01
  2.977086e+01    8.144342e-01
  2.978673e+01    7.969631e-01
  2.980261e+01    8.073850e-01
  2.981848e+01    7.837300e-01
  2.983436e+01    7.716661e-01
  2.985024e+01    7.880908e-01
  2.986611e+01    7.846427e-01
  2.988199e+01    7.933592e-01
  2.989786e+01    7.894415e-01
  2.991374e+01    7.946821e-01
  2.992961e+01    7.828411e-01
  2.994549e+01    7.935442e-01
  2.996136e+01    8.096426e-01
  2.997724e+01    8.050349e-01
  2.999312e+01    7.990313e-01
  3.000899e+01    8.085125e-01
  3.002487e+01    8.122310e-01
  3.004074e+01    8.181718e-01
  3.005662e+01    8.306137e-01
  3.007249e+01    8.327449e-01
  3.008837e+01    8.144671e-01
  3.010424e+01    7.805532e-01
  3.012012e+01    7.731756e-01
  3.013600e+01    7.964368e-01
  3.015187e+01    8.097097e-01
  3.016775e+01    8.116375e-01
  3.018362e+01    7.691231e-01
  3.019950e+01    7.678870e-01
  3.021537e+01    8.069500e-01
  3.023125e+01    7.861806e-01
  3.024712e+01    7.670206e-01
  3.026300e+01    7.783076e-01
  3.027888e+01    8.058550e-01
  3.029475e+01    7.967326e-01
  3.031063e+01    8.011168e-01
  3.032650e+01    8.007429e-01
  3.034238e+01    7.928246e-01
  3.035825e+01    7.761881e-01
  3.037413e+01    8.042002e-01
  3.039000e+01    7.944189e-01
  3.040588e+01    8.076873e-01
  3.042176e+01    7.843882e-01
  3.043763e+01    7.904071e-01
  3.045351e+01    7.884116e-01
  3.046938e+01    7.703224e-01
  3.048526e+01    7.835355e-01
  3.050113e+01    7.910385e-01
  3.051701e+01    7.815202e-01
  3.053288e+01    7.818696e-01
  3.054876e+01    7.814227e-01
  3.056464e+01    7.844036e-01
  3.058051e+01    7.939542e-01
  3.059639e+01    8.014425e-01
  3.061226e+01    8.145519e-01
  3.062814e+01    8.066697e-01
  3.064401e+01    8.009552e-01
  3.065989e+01    7.798745e-01
  3.067577e+01    7.924584e-01
  3.069164e+01    7.970294e-01
  3.070752e+01    8.093743e-01
  3.072339e+01    8.226457e-01
  3.073927e+01    8.171012e-01
  3.075514e+01    7.979601e-01
  3.077102e+01    8.034249e-01
  3.078689e+01    7.781608e-01
  3.080277e+01    7.880204e-01
  3.081865e+01    8.012844e-01
  3.083452e+01    7.860239e-01
  3.085040e+01    7.783063e-01
  3.086627e+01    7.959911e-01
  3.088215e+01    7.981065e-01
  3.089802e+01    8.079568e-01
  3.091390e+01    7.959936e-01
  3.092977e+01    7.700060e-01
  3.094565e+01    7.791912e-01
  3.096153e+01    8.097985e-01
  3.097740e+01    7.989639e-01
  3.099328e+01    7.645815e-01
  3.100915e+01    8.050057e-01
  3.102503e+01    8.092977e-01
  3.104090e+01    7.967206e-01
  3.105678e+01    7.835066e-01
  3.107265e+01    7.916077e-01
  3.108853e+01    8.003256e-01
  3.110441e+01    8.075399e-01
  3.112028e+01    7.864828e-01
  3.113616e+01    7.928533e-01
  3.115203e+01    7.847326e-01
  3.116791e+01    7.871865e-01
  3.118378e+01    8.152369e-01
  3.119966e+01    8.074849e-01
  3.121553e+01    7.898038e-01
  3.123141e+01    7.847087e-01
  3.124729e+01    7.803239e-01
  3.126316e+01    7.879062e-01
  3.127904e+01    8.150536e-01
  3.129491e+01    7.912718e-01
  3.131079e+01    8.001853e-01
  3.132666e+01    7.890962e-01
  3.134254e+01    7.965970e-01
  3.135841e+01    8.042658e-01
  3.137429e+01    8.194745e-01
  3.139017e+01    8.100696e-01
  3.140604e+01    8.131774e-01
  3.142192e+01    8.168671e-01
  3.143779e+01    8.294811e-01
  3.145367e+01    8.237009e-01
  3.146954e+01    8.274565e-01
  3.148542e+01    8.141021e-01
  3.150129e+01    8.241686e-01
  3.151717e+01    8.443059e-01
  3.153305e+01    8.529043e-01
  3.154892e+01    8.558495e-01
  3.156480e+01    8.445373e-01
  3.158067e+01    8.578599e-01
  3.159655e+01    8.880008e-01
  3.161242e+01    8.934684e-01
  3.162830e+01    9.153247e-01
  3.164418e+01    9.126893e-01
  3.166005e+01    9.560493e-01
  3.167593e+01    9.821341e-01
  3.169180e+01    1.011620e+00
  3.170768e+01    1.029546e+00
  3.172355e+01    1.074735e+00
  3.173943e+01    1.148461e+00
  3.175530e+01    1.187319e+00
  3.177118e+01    1.265908e+00
  3.178706e+01    1.407801e+00
  3.180293e+01    1.482857e+00
  3.181881e+01    1.627635e+00
  3.183468e+01    1.744357e+00
  3.185056e+01    1.862949e+00
  3.186643e+01    1.969991e+00
  3.188231e+01    2.040939e+00
  3.189818e+01    2.108750e+00
  3.191406e+01    2.097362e+00
  3.192994e+01    2.037984e+00
  3.194581e+01    1.952636e+00
  3.196169e+01    1.828205e+00
  3.197756e+01    1.670533e+00
  3.199344e+01    1.546278e+00
  3.200931e+01    1.443768e+00
  3.202519e+01    1.337916e+00
  3.204106e+01    1.236620e+00
  3.205694e+01    1.182105e+00
  3.207282e+01    1.107692e+00
  3.208869e+01    1.023390e+00
  3.210457e+01    9.865867e-01
  3.212044e+01    9.982029e-01
  3.213632e+01    9.568053e-01
  3.215219e+01    9.181802e-01
  3.216807e+01    9.151168e-01
  3.218394e+01    8.855907e-01
  3.219982e+01    8.770276e-01
  3.221570e+01    8.691709e-01
  3.223157e+01    8.613819e-01
  3.224745e+01    8.477629e-01
  3.226332e+01    8.420210e-01
  3.227920e+01    8.143288e-01
  3.229507e+01    8.073709e-01
  3.231095e+01    7.950003e-01
  3.232682e+01    8.074078e-01
  3.234270e+01    8.077776e-01
  3.235858e+01    8.091909e-01
  3.237445e+01    8.127816e-01
  3.239033e+01    7.858914e-01
  3.240620e+01    7.818955e-01
  3.242208e+01    8.083121e-01
  3.243795e+01    7.963167e-01
  3.245383e+01    8.107672e-01
  3.246970e+01    8.005507e-01
  3.248558e+01    7.843791e-01
  3.250146e+01    7.799445e-01
  3.251733e+01    7.701168e-01
  3.253321e+01    8.010035e-01
  3.254908e+01    8.025742e-01
