# == pyFAI calibration ==
# Distance Sample to Detector: 0.3999999939076516 m
# PONI: 9.750e-02, 1.135e-01 m
# Rotations: -0.000175 0.000000 -0.000000 rad
# 
# == Fit2d calibration ==
# Distance Sample-beamCenter: 400.000 mm
# Center: x=1514.000, y=1300.000 pix
# Tilt: 0.010 deg  TiltPlanRot: 0.010 deg
# 
# Detector Detector	 Spline= None	 PixelSize= 7.500e-05, 7.500e-05 m
#    Detector has a mask: False 
#    Detector has a dark current: False 
#    detector has a flat field: False 
# 
# Wavelength: 6.888e-11 m
# Mask applied: user provided
# Dark current applied: False
# Flat field applied: False
# Polarization factor: 0.99
# Normalization factor: 1.0
# --> /home/myspot/data/2024_07_Rosario/Ru-CGO-ex/2024-07-27_003_Ru-CGO-ex_Reaction_dwell_000023_data_000034.dat
#       q_nm^-1             I 
  2.003187e-02    3.738268e-01
  3.590745e-02    1.926496e-01
  5.178302e-02    2.670345e-02
  6.765859e-02    8.587268e-02
  8.353417e-02    1.361938e-01
  9.940974e-02    1.078892e-01
  1.152853e-01    9.909888e-02
  1.311609e-01    6.925630e-02
  1.470365e-01    8.433086e-02
  1.629120e-01    6.655942e-02
  1.787876e-01    7.730617e-02
  1.946632e-01    2.437423e-02
  2.105388e-01    3.794065e-02
  2.264143e-01    3.777968e-02
  2.422899e-01    1.623676e-02
  2.581655e-01    6.972650e-03
  2.740411e-01    5.873539e-02
  2.899166e-01    5.542277e-02
  3.057922e-01    1.608736e-02
  3.216678e-01    6.636378e-02
  3.375433e-01    6.528747e-02
  3.534189e-01    3.160387e-02
  3.692945e-01    5.072136e-02
  3.851701e-01    2.786532e-02
  4.010456e-01    4.201955e-02
  4.169212e-01    3.715152e-02
  4.327968e-01    1.539123e-02
  4.486724e-01    2.432773e-02
  4.645479e-01    2.822948e-02
  4.804235e-01    3.280951e-02
  4.962991e-01    3.830597e-02
  5.121747e-01    2.772758e-02
  5.280502e-01    1.697679e-02
  5.439258e-01    3.173969e-02
  5.598014e-01    6.706263e-02
  5.756770e-01    4.646244e-02
  5.915525e-01    4.736206e-02
  6.074281e-01    6.499568e-02
  6.233037e-01    9.743117e-02
  6.391793e-01    5.984505e-02
  6.550548e-01    2.513757e-02
  6.709304e-01    2.030312e-02
  6.868060e-01    1.795938e-02
  7.026815e-01    7.387355e-02
  7.185571e-01    7.311378e-02
  7.344327e-01    7.222246e-02
  7.503083e-01    7.128236e-02
  7.661838e-01    5.719080e-02
  7.820594e-01    1.232737e-01
  7.979350e-01    1.514981e-01
  8.138106e-01    1.886926e-01
  8.296861e-01    2.442085e-01
  8.455617e-01    3.239949e-01
  8.614373e-01    3.747498e-01
  8.773129e-01    4.390052e-01
  8.931884e-01    5.460525e-01
  9.090640e-01    6.755572e-01
  9.249396e-01    7.062793e-01
  9.408152e-01    7.428691e-01
  9.566907e-01    8.407896e-01
  9.725663e-01    1.002860e+00
  9.884419e-01    1.068155e+00
  1.004317e+00    1.125755e+00
  1.020193e+00    1.231606e+00
  1.036069e+00    1.390098e+00
  1.051944e+00    1.447172e+00
  1.067820e+00    1.498785e+00
  1.083695e+00    1.540053e+00
  1.099571e+00    1.562916e+00
  1.115446e+00    1.567948e+00
  1.131322e+00    1.627754e+00
  1.147198e+00    1.769667e+00
  1.163073e+00    1.750873e+00
  1.178949e+00    1.708214e+00
  1.194824e+00    1.806336e+00
  1.210700e+00    1.991923e+00
  1.226575e+00    2.229393e+00
  1.242451e+00    2.379863e+00
  1.258327e+00    2.346781e+00
  1.274202e+00    2.489658e+00
  1.290078e+00    2.561587e+00
  1.305953e+00    2.606633e+00
  1.321829e+00    2.729010e+00
  1.337705e+00    2.770157e+00
  1.353580e+00    2.868247e+00
  1.369456e+00    2.710191e+00
  1.385331e+00    2.803344e+00
  1.401207e+00    2.882045e+00
  1.417082e+00    2.795072e+00
  1.432958e+00    2.786246e+00
  1.448834e+00    2.974818e+00
  1.464709e+00    3.150406e+00
  1.480585e+00    3.142634e+00
  1.496460e+00    3.120514e+00
  1.512336e+00    3.137216e+00
  1.528211e+00    3.170096e+00
  1.544087e+00    3.203354e+00
  1.559963e+00    3.196178e+00
  1.575838e+00    3.164948e+00
  1.591714e+00    3.123712e+00
  1.607589e+00    3.039630e+00
  1.623465e+00    3.009621e+00
  1.639340e+00    3.231105e+00
  1.655216e+00    3.271009e+00
  1.671092e+00    3.172046e+00
  1.686967e+00    3.051520e+00
  1.702843e+00    3.010946e+00
  1.718718e+00    3.012226e+00
  1.734594e+00    3.075905e+00
  1.750469e+00    3.100765e+00
  1.766345e+00    3.203250e+00
  1.782221e+00    3.231482e+00
  1.798096e+00    3.178923e+00
  1.813972e+00    3.174664e+00
  1.829847e+00    3.113910e+00
  1.845723e+00    3.127141e+00
  1.861598e+00    3.176455e+00
  1.877474e+00    3.083398e+00
  1.893350e+00    3.107472e+00
  1.909225e+00    3.089544e+00
  1.925101e+00    3.104136e+00
  1.940976e+00    3.032376e+00
  1.956852e+00    2.979630e+00
  1.972727e+00    3.211223e+00
  1.988603e+00    3.079006e+00
  2.004479e+00    3.007096e+00
  2.020354e+00    3.032494e+00
  2.036230e+00    3.066395e+00
  2.052105e+00    3.046224e+00
  2.067981e+00    3.141920e+00
  2.083856e+00    3.063240e+00
  2.099732e+00    3.058324e+00
  2.115608e+00    3.152375e+00
  2.131483e+00    3.249512e+00
  2.147359e+00    3.362470e+00
  2.163234e+00    3.164777e+00
  2.179110e+00    3.116688e+00
  2.194985e+00    3.149915e+00
  2.210861e+00    3.132125e+00
  2.226737e+00    3.047641e+00
  2.242612e+00    3.134618e+00
  2.258488e+00    3.090560e+00
  2.274363e+00    3.103292e+00
  2.290239e+00    3.126378e+00
  2.306115e+00    3.093514e+00
  2.321990e+00    3.231186e+00
  2.337866e+00    3.251593e+00
  2.353741e+00    3.201884e+00
  2.369617e+00    3.151947e+00
  2.385492e+00    3.142244e+00
  2.401368e+00    3.088073e+00
  2.417244e+00    3.179578e+00
  2.433119e+00    3.298869e+00
  2.448995e+00    3.221984e+00
  2.464870e+00    3.135578e+00
  2.480746e+00    3.219165e+00
  2.496621e+00    3.162867e+00
  2.512497e+00    3.074389e+00
  2.528373e+00    3.112476e+00
  2.544248e+00    3.155768e+00
  2.560124e+00    3.169664e+00
  2.575999e+00    3.201472e+00
  2.591875e+00    3.301029e+00
  2.607750e+00    3.262884e+00
  2.623626e+00    3.232291e+00
  2.639502e+00    3.237965e+00
  2.655377e+00    3.226933e+00
  2.671253e+00    3.206723e+00
  2.687128e+00    3.278377e+00
  2.703004e+00    3.349023e+00
  2.718879e+00    3.379821e+00
  2.734755e+00    3.334922e+00
  2.750631e+00    3.298033e+00
  2.766506e+00    3.242116e+00
  2.782382e+00    3.255965e+00
  2.798257e+00    3.238844e+00
  2.814133e+00    3.351707e+00
  2.830008e+00    3.252362e+00
  2.845884e+00    3.242974e+00
  2.861760e+00    3.332972e+00
  2.877635e+00    3.299358e+00
  2.893511e+00    3.244512e+00
  2.909386e+00    3.216250e+00
  2.925262e+00    3.235742e+00
  2.941137e+00    3.274527e+00
  2.957013e+00    3.344381e+00
  2.972889e+00    3.424203e+00
  2.988764e+00    3.383897e+00
  3.004640e+00    3.373328e+00
  3.020515e+00    3.381090e+00
  3.036391e+00    3.351789e+00
  3.052266e+00    3.326942e+00
  3.068142e+00    3.361689e+00
  3.084018e+00    3.317298e+00
  3.099893e+00    3.350078e+00
  3.115769e+00    3.444667e+00
  3.131644e+00    3.393814e+00
  3.147520e+00    3.397274e+00
  3.163395e+00    3.439092e+00
  3.179271e+00    3.355597e+00
  3.195147e+00    3.371499e+00
  3.211022e+00    3.379530e+00
  3.226898e+00    3.409214e+00
  3.242773e+00    3.450882e+00
  3.258649e+00    3.471822e+00
  3.274525e+00    3.394999e+00
  3.290400e+00    3.423873e+00
  3.306276e+00    3.383751e+00
  3.322151e+00    3.362037e+00
  3.338027e+00    3.316607e+00
  3.353902e+00    3.240561e+00
  3.369778e+00    3.379883e+00
  3.385654e+00    3.478686e+00
  3.401529e+00    3.430835e+00
  3.417405e+00    3.312243e+00
  3.433280e+00    3.335776e+00
  3.449156e+00    3.358165e+00
  3.465031e+00    3.397627e+00
  3.480907e+00    3.483124e+00
  3.496783e+00    3.423001e+00
  3.512658e+00    3.424869e+00
  3.528534e+00    3.470973e+00
  3.544409e+00    3.421158e+00
  3.560285e+00    3.443353e+00
  3.576160e+00    3.461989e+00
  3.592036e+00    3.481311e+00
  3.607912e+00    3.446336e+00
  3.623787e+00    3.478757e+00
  3.639663e+00    3.522910e+00
  3.655538e+00    3.377952e+00
  3.671414e+00    3.447535e+00
  3.687289e+00    3.430232e+00
  3.703165e+00    3.434200e+00
  3.719041e+00    3.479071e+00
  3.734916e+00    3.473374e+00
  3.750792e+00    3.548811e+00
  3.766667e+00    3.567726e+00
  3.782543e+00    3.636655e+00
  3.798418e+00    3.537078e+00
  3.814294e+00    3.378239e+00
  3.830170e+00    3.484505e+00
  3.846045e+00    3.586955e+00
  3.861921e+00    3.554289e+00
  3.877796e+00    3.522164e+00
  3.893672e+00    3.468354e+00
  3.909547e+00    3.518367e+00
  3.925423e+00    3.500990e+00
  3.941299e+00    3.502079e+00
  3.957174e+00    3.479963e+00
  3.973050e+00    3.557985e+00
  3.988925e+00    3.522648e+00
  4.004801e+00    3.479538e+00
  4.020676e+00    3.596469e+00
  4.036552e+00    3.670862e+00
  4.052428e+00    3.581979e+00
  4.068303e+00    3.614955e+00
  4.084179e+00    3.611011e+00
  4.100054e+00    3.578420e+00
  4.115930e+00    3.549744e+00
  4.131806e+00    3.535167e+00
  4.147681e+00    3.566534e+00
  4.163557e+00    3.566449e+00
  4.179432e+00    3.555441e+00
  4.195308e+00    3.612252e+00
  4.211183e+00    3.678518e+00
  4.227059e+00    3.562203e+00
  4.242935e+00    3.544783e+00
  4.258810e+00    3.548528e+00
  4.274686e+00    3.506955e+00
  4.290561e+00    3.520217e+00
  4.306437e+00    3.525299e+00
  4.322312e+00    3.441375e+00
  4.338188e+00    3.524797e+00
  4.354064e+00    3.659811e+00
  4.369939e+00    3.676518e+00
  4.385815e+00    3.574462e+00
  4.401690e+00    3.547455e+00
  4.417566e+00    3.530597e+00
  4.433441e+00    3.535714e+00
  4.449317e+00    3.516460e+00
  4.465193e+00    3.601892e+00
  4.481068e+00    3.664730e+00
  4.496944e+00    3.593407e+00
  4.512819e+00    3.557960e+00
  4.528695e+00    3.540524e+00
  4.544570e+00    3.584390e+00
  4.560446e+00    3.622416e+00
  4.576322e+00    3.640583e+00
  4.592197e+00    3.603756e+00
  4.608073e+00    3.567525e+00
  4.623948e+00    3.641190e+00
  4.639824e+00    3.633879e+00
  4.655699e+00    3.637290e+00
  4.671575e+00    3.598636e+00
  4.687451e+00    3.631956e+00
  4.703326e+00    3.603736e+00
  4.719202e+00    3.563585e+00
  4.735077e+00    3.499931e+00
  4.750953e+00    3.622548e+00
  4.766828e+00    3.635306e+00
  4.782704e+00    3.631282e+00
  4.798580e+00    3.723618e+00
  4.814455e+00    3.743199e+00
  4.830331e+00    3.663471e+00
  4.846206e+00    3.630629e+00
  4.862082e+00    3.627493e+00
  4.877957e+00    3.636598e+00
  4.893833e+00    3.587508e+00
  4.909709e+00    3.593071e+00
  4.925584e+00    3.628268e+00
  4.941460e+00    3.612842e+00
  4.957335e+00    3.585426e+00
  4.973211e+00    3.644768e+00
  4.989086e+00    3.634300e+00
  5.004962e+00    3.656507e+00
  5.020838e+00    3.592350e+00
  5.036713e+00    3.632725e+00
  5.052589e+00    3.627013e+00
  5.068464e+00    3.685284e+00
  5.084340e+00    3.597255e+00
  5.100216e+00    3.692633e+00
  5.116091e+00    3.650345e+00
  5.131967e+00    3.581371e+00
  5.147842e+00    3.717643e+00
  5.163718e+00    3.680498e+00
  5.179593e+00    3.711363e+00
  5.195469e+00    3.686177e+00
  5.211345e+00    3.681483e+00
  5.227220e+00    3.668042e+00
  5.243096e+00    3.650374e+00
  5.258971e+00    3.704278e+00
  5.274847e+00    3.651895e+00
  5.290722e+00    3.647239e+00
  5.306598e+00    3.613037e+00
  5.322474e+00    3.683672e+00
  5.338349e+00    3.736646e+00
  5.354225e+00    3.700674e+00
  5.370100e+00    3.683275e+00
  5.385976e+00    3.661011e+00
  5.401851e+00    3.673556e+00
  5.417727e+00    3.661783e+00
  5.433603e+00    3.662253e+00
  5.449478e+00    3.608894e+00
  5.465354e+00    3.643140e+00
  5.481229e+00    3.552161e+00
  5.497105e+00    3.586901e+00
  5.512980e+00    3.662225e+00
  5.528856e+00    3.618243e+00
  5.544732e+00    3.582625e+00
  5.560607e+00    3.533394e+00
  5.576483e+00    3.611018e+00
  5.592358e+00    3.644958e+00
  5.608234e+00    3.621443e+00
  5.624109e+00    3.624262e+00
  5.639985e+00    3.635547e+00
  5.655861e+00    3.616059e+00
  5.671736e+00    3.582455e+00
  5.687612e+00    3.656783e+00
  5.703487e+00    3.599400e+00
  5.719363e+00    3.555817e+00
  5.735238e+00    3.566627e+00
  5.751114e+00    3.567678e+00
  5.766990e+00    3.556111e+00
  5.782865e+00    3.620679e+00
  5.798741e+00    3.571038e+00
  5.814616e+00    3.451562e+00
  5.830492e+00    3.574587e+00
  5.846367e+00    3.602449e+00
  5.862243e+00    3.577704e+00
  5.878119e+00    3.575823e+00
  5.893994e+00    3.573749e+00
  5.909870e+00    3.577748e+00
  5.925745e+00    3.559841e+00
  5.941621e+00    3.475223e+00
  5.957497e+00    3.477014e+00
  5.973372e+00    3.459421e+00
  5.989248e+00    3.533243e+00
  6.005123e+00    3.551876e+00
  6.020999e+00    3.447368e+00
  6.036874e+00    3.489474e+00
  6.052750e+00    3.530524e+00
  6.068626e+00    3.555679e+00
  6.084501e+00    3.555933e+00
  6.100377e+00    3.569646e+00
  6.116252e+00    3.643884e+00
  6.132128e+00    3.636286e+00
  6.148003e+00    3.616846e+00
  6.163879e+00    3.586002e+00
  6.179755e+00    3.524678e+00
  6.195630e+00    3.516281e+00
  6.211506e+00    3.594361e+00
  6.227381e+00    3.512753e+00
  6.243257e+00    3.557986e+00
  6.259132e+00    3.638244e+00
  6.275008e+00    3.531687e+00
  6.290884e+00    3.499936e+00
  6.306759e+00    3.622454e+00
  6.322635e+00    3.587415e+00
  6.338510e+00    3.486797e+00
  6.354386e+00    3.534530e+00
  6.370261e+00    3.549324e+00
  6.386137e+00    3.609840e+00
  6.402013e+00    3.572173e+00
  6.417888e+00    3.556866e+00
  6.433764e+00    3.492948e+00
  6.449639e+00    3.536693e+00
  6.465515e+00    3.580210e+00
  6.481390e+00    3.481890e+00
  6.497266e+00    3.490123e+00
  6.513142e+00    3.576948e+00
  6.529017e+00    3.559014e+00
  6.544893e+00    3.600326e+00
  6.560768e+00    3.565086e+00
  6.576644e+00    3.509502e+00
  6.592519e+00    3.506126e+00
  6.608395e+00    3.511099e+00
  6.624271e+00    3.555169e+00
  6.640146e+00    3.622195e+00
  6.656022e+00    3.576284e+00
  6.671897e+00    3.630302e+00
  6.687773e+00    3.532991e+00
  6.703648e+00    3.571164e+00
  6.719524e+00    3.610862e+00
  6.735400e+00    3.591937e+00
  6.751275e+00    3.578473e+00
  6.767151e+00    3.542286e+00
  6.783026e+00    3.529313e+00
  6.798902e+00    3.557836e+00
  6.814777e+00    3.659662e+00
  6.830653e+00    3.623173e+00
  6.846529e+00    3.568003e+00
  6.862404e+00    3.583555e+00
  6.878280e+00    3.634184e+00
  6.894155e+00    3.591033e+00
  6.910031e+00    3.531159e+00
  6.925907e+00    3.488825e+00
  6.941782e+00    3.579979e+00
  6.957658e+00    3.617405e+00
  6.973533e+00    3.556055e+00
  6.989409e+00    3.542489e+00
  7.005284e+00    3.487820e+00
  7.021160e+00    3.535240e+00
  7.037036e+00    3.596669e+00
  7.052911e+00    3.581487e+00
  7.068787e+00    3.574726e+00
  7.084662e+00    3.553525e+00
  7.100538e+00    3.487190e+00
  7.116413e+00    3.483369e+00
  7.132289e+00    3.499611e+00
  7.148165e+00    3.514768e+00
  7.164040e+00    3.454258e+00
  7.179916e+00    3.570063e+00
  7.195791e+00    3.527593e+00
  7.211667e+00    3.448760e+00
  7.227542e+00    3.438785e+00
  7.243418e+00    3.479437e+00
  7.259294e+00    3.524445e+00
  7.275169e+00    3.525718e+00
  7.291045e+00    3.547040e+00
  7.306920e+00    3.514523e+00
  7.322796e+00    3.517815e+00
  7.338671e+00    3.532130e+00
  7.354547e+00    3.539927e+00
  7.370423e+00    3.484489e+00
  7.386298e+00    3.586976e+00
  7.402174e+00    3.587574e+00
  7.418049e+00    3.576181e+00
  7.433925e+00    3.539147e+00
  7.449800e+00    3.455343e+00
  7.465676e+00    3.449248e+00
  7.481552e+00    3.434602e+00
  7.497427e+00    3.456881e+00
  7.513303e+00    3.459695e+00
  7.529178e+00    3.434863e+00
  7.545054e+00    3.404400e+00
  7.560929e+00    3.489513e+00
  7.576805e+00    3.504771e+00
  7.592681e+00    3.528414e+00
  7.608556e+00    3.540243e+00
  7.624432e+00    3.530581e+00
  7.640307e+00    3.477084e+00
  7.656183e+00    3.405503e+00
  7.672058e+00    3.481916e+00
  7.687934e+00    3.474509e+00
  7.703810e+00    3.427210e+00
  7.719685e+00    3.368417e+00
  7.735561e+00    3.336910e+00
  7.751436e+00    3.438478e+00
  7.767312e+00    3.403806e+00
  7.783187e+00    3.423521e+00
  7.799063e+00    3.372725e+00
  7.814939e+00    3.406036e+00
  7.830814e+00    3.406549e+00
  7.846690e+00    3.475312e+00
  7.862565e+00    3.501945e+00
  7.878441e+00    3.434581e+00
  7.894317e+00    3.383026e+00
  7.910192e+00    3.434489e+00
  7.926068e+00    3.460101e+00
  7.941943e+00    3.497650e+00
  7.957819e+00    3.425564e+00
  7.973694e+00    3.414476e+00
  7.989570e+00    3.444772e+00
  8.005446e+00    3.460577e+00
  8.021321e+00    3.409220e+00
  8.037197e+00    3.424093e+00
  8.053072e+00    3.384780e+00
  8.068948e+00    3.361171e+00
  8.084823e+00    3.376146e+00
  8.100699e+00    3.458786e+00
  8.116575e+00    3.487861e+00
  8.132450e+00    3.438815e+00
  8.148326e+00    3.440837e+00
  8.164201e+00    3.476768e+00
  8.180077e+00    3.441161e+00
  8.195952e+00    3.472748e+00
  8.211828e+00    3.445993e+00
  8.227704e+00    3.439973e+00
  8.243579e+00    3.416799e+00
  8.259455e+00    3.319545e+00
  8.275330e+00    3.318025e+00
  8.291206e+00    3.380570e+00
  8.307081e+00    3.416716e+00
  8.322957e+00    3.362395e+00
  8.338833e+00    3.345630e+00
  8.354708e+00    3.370555e+00
  8.370584e+00    3.417829e+00
  8.386459e+00    3.404619e+00
  8.402335e+00    3.360137e+00
  8.418210e+00    3.435682e+00
  8.434086e+00    3.351290e+00
  8.449962e+00    3.318793e+00
  8.465837e+00    3.395035e+00
  8.481713e+00    3.365859e+00
  8.497588e+00    3.362386e+00
  8.513464e+00    3.359201e+00
  8.529339e+00    3.292967e+00
  8.545215e+00    3.363386e+00
  8.561091e+00    3.377757e+00
  8.576966e+00    3.381739e+00
  8.592842e+00    3.374771e+00
  8.608717e+00    3.345326e+00
  8.624593e+00    3.402216e+00
  8.640468e+00    3.372997e+00
  8.656344e+00    3.364120e+00
  8.672220e+00    3.334755e+00
  8.688095e+00    3.368436e+00
  8.703971e+00    3.335092e+00
  8.719846e+00    3.352915e+00
  8.735722e+00    3.302546e+00
  8.751598e+00    3.371728e+00
  8.767473e+00    3.368976e+00
  8.783349e+00    3.344928e+00
  8.799224e+00    3.332101e+00
  8.815100e+00    3.360155e+00
  8.830975e+00    3.341712e+00
  8.846851e+00    3.353595e+00
  8.862727e+00    3.357089e+00
  8.878602e+00    3.297084e+00
  8.894478e+00    3.245848e+00
  8.910353e+00    3.249849e+00
  8.926229e+00    3.268726e+00
  8.942104e+00    3.199080e+00
  8.957980e+00    3.208172e+00
  8.973856e+00    3.254438e+00
  8.989731e+00    3.277745e+00
  9.005607e+00    3.282143e+00
  9.021482e+00    3.284133e+00
  9.037358e+00    3.345686e+00
  9.053233e+00    3.271226e+00
  9.069109e+00    3.275519e+00
  9.084985e+00    3.337849e+00
  9.100860e+00    3.303986e+00
  9.116736e+00    3.248722e+00
  9.132611e+00    3.219896e+00
  9.148487e+00    3.240201e+00
  9.164362e+00    3.286730e+00
  9.180238e+00    3.246104e+00
  9.196114e+00    3.274354e+00
  9.211989e+00    3.301867e+00
  9.227865e+00    3.288565e+00
  9.243740e+00    3.295192e+00
  9.259616e+00    3.208241e+00
  9.275491e+00    3.319651e+00
  9.291367e+00    3.242152e+00
  9.307243e+00    3.193417e+00
  9.323118e+00    3.199495e+00
  9.338994e+00    3.211294e+00
  9.354869e+00    3.205291e+00
  9.370745e+00    3.218218e+00
  9.386620e+00    3.251470e+00
  9.402496e+00    3.279979e+00
  9.418372e+00    3.244930e+00
  9.434247e+00    3.152769e+00
  9.450123e+00    3.229425e+00
  9.465998e+00    3.226659e+00
  9.481874e+00    3.248036e+00
  9.497749e+00    3.274581e+00
  9.513625e+00    3.246821e+00
  9.529501e+00    3.215951e+00
  9.545376e+00    3.200670e+00
  9.561252e+00    3.196262e+00
  9.577127e+00    3.191124e+00
  9.593003e+00    3.167017e+00
  9.608878e+00    3.246917e+00
  9.624754e+00    3.256255e+00
  9.640630e+00    3.233248e+00
  9.656505e+00    3.248682e+00
  9.672381e+00    3.209983e+00
  9.688256e+00    3.186442e+00
  9.704132e+00    3.223711e+00
  9.720008e+00    3.205573e+00
  9.735883e+00    3.197500e+00
  9.751759e+00    3.180964e+00
  9.767634e+00    3.184037e+00
  9.783510e+00    3.145067e+00
  9.799385e+00    3.155418e+00
  9.815261e+00    3.096446e+00
  9.831137e+00    3.122921e+00
  9.847012e+00    3.177278e+00
  9.862888e+00    3.167021e+00
  9.878763e+00    3.164649e+00
  9.894639e+00    3.135640e+00
  9.910514e+00    3.110283e+00
  9.926390e+00    3.128444e+00
  9.942266e+00    3.127215e+00
  9.958141e+00    3.155108e+00
  9.974017e+00    3.120488e+00
  9.989892e+00    3.129398e+00
  1.000577e+01    3.145778e+00
  1.002164e+01    3.090001e+00
  1.003752e+01    3.116067e+00
  1.005339e+01    3.116224e+00
  1.006927e+01    3.110283e+00
  1.008515e+01    3.054002e+00
  1.010102e+01    3.065208e+00
  1.011690e+01    3.048003e+00
  1.013277e+01    3.146858e+00
  1.014865e+01    3.113159e+00
  1.016452e+01    3.053990e+00
  1.018040e+01    3.066203e+00
  1.019627e+01    3.108158e+00
  1.021215e+01    3.080173e+00
  1.022803e+01    3.064053e+00
  1.024390e+01    3.078142e+00
  1.025978e+01    3.094386e+00
  1.027565e+01    3.047252e+00
  1.029153e+01    3.006128e+00
  1.030740e+01    3.047706e+00
  1.032328e+01    3.009010e+00
  1.033915e+01    3.016863e+00
  1.035503e+01    2.991492e+00
  1.037091e+01    3.023635e+00
  1.038678e+01    3.034072e+00
  1.040266e+01    3.066321e+00
  1.041853e+01    3.053666e+00
  1.043441e+01    3.054169e+00
  1.045028e+01    3.006009e+00
  1.046616e+01    3.017641e+00
  1.048204e+01    3.053833e+00
  1.049791e+01    3.028371e+00
  1.051379e+01    3.006084e+00
  1.052966e+01    2.925677e+00
  1.054554e+01    2.978374e+00
  1.056141e+01    3.060359e+00
  1.057729e+01    3.004981e+00
  1.059316e+01    2.978376e+00
  1.060904e+01    3.032504e+00
  1.062492e+01    2.993464e+00
  1.064079e+01    2.959646e+00
  1.065667e+01    2.962238e+00
  1.067254e+01    2.953778e+00
  1.068842e+01    2.965800e+00
  1.070429e+01    2.991972e+00
  1.072017e+01    2.978204e+00
  1.073604e+01    2.995392e+00
  1.075192e+01    2.964457e+00
  1.076780e+01    2.973385e+00
  1.078367e+01    2.963842e+00
  1.079955e+01    2.957846e+00
  1.081542e+01    2.930643e+00
  1.083130e+01    2.933326e+00
  1.084717e+01    2.978606e+00
  1.086305e+01    2.971642e+00
  1.087892e+01    2.967241e+00
  1.089480e+01    2.958988e+00
  1.091068e+01    2.951847e+00
  1.092655e+01    2.904062e+00
  1.094243e+01    2.929582e+00
  1.095830e+01    2.949678e+00
  1.097418e+01    2.927389e+00
  1.099005e+01    2.930892e+00
  1.100593e+01    2.917097e+00
  1.102180e+01    2.937462e+00
  1.103768e+01    2.885160e+00
  1.105356e+01    2.875076e+00
  1.106943e+01    2.898451e+00
  1.108531e+01    2.893648e+00
  1.110118e+01    2.892910e+00
  1.111706e+01    2.866451e+00
  1.113293e+01    2.825451e+00
  1.114881e+01    2.863669e+00
  1.116468e+01    2.864203e+00
  1.118056e+01    2.828881e+00
  1.119644e+01    2.882077e+00
  1.121231e+01    2.916793e+00
  1.122819e+01    2.908262e+00
  1.124406e+01    2.852324e+00
  1.125994e+01    2.838123e+00
  1.127581e+01    2.839790e+00
  1.129169e+01    2.849957e+00
  1.130756e+01    2.869679e+00
  1.132344e+01    2.833112e+00
  1.133932e+01    2.878813e+00
  1.135519e+01    2.828360e+00
  1.137107e+01    2.788821e+00
  1.138694e+01    2.820514e+00
  1.140282e+01    2.781450e+00
  1.141869e+01    2.785384e+00
  1.143457e+01    2.808666e+00
  1.145045e+01    2.822568e+00
  1.146632e+01    2.818331e+00
  1.148220e+01    2.806030e+00
  1.149807e+01    2.804509e+00
  1.151395e+01    2.819319e+00
  1.152982e+01    2.796831e+00
  1.154570e+01    2.781431e+00
  1.156157e+01    2.830578e+00
  1.157745e+01    2.809604e+00
  1.159333e+01    2.806676e+00
  1.160920e+01    2.802228e+00
  1.162508e+01    2.771726e+00
  1.164095e+01    2.795269e+00
  1.165683e+01    2.742592e+00
  1.167270e+01    2.793664e+00
  1.168858e+01    2.809862e+00
  1.170445e+01    2.751914e+00
  1.172033e+01    2.730213e+00
  1.173621e+01    2.726519e+00
  1.175208e+01    2.781384e+00
  1.176796e+01    2.805439e+00
  1.178383e+01    2.747561e+00
  1.179971e+01    2.694875e+00
  1.181558e+01    2.701853e+00
  1.183146e+01    2.735438e+00
  1.184733e+01    2.723549e+00
  1.186321e+01    2.754114e+00
  1.187909e+01    2.728420e+00
  1.189496e+01    2.746297e+00
  1.191084e+01    2.715578e+00
  1.192671e+01    2.725293e+00
  1.194259e+01    2.759381e+00
  1.195846e+01    2.754672e+00
  1.197434e+01    2.706745e+00
  1.199021e+01    2.703202e+00
  1.200609e+01    2.710246e+00
  1.202197e+01    2.682516e+00
  1.203784e+01    2.639398e+00
  1.205372e+01    2.697290e+00
  1.206959e+01    2.767585e+00
  1.208547e+01    2.694285e+00
  1.210134e+01    2.721998e+00
  1.211722e+01    2.668109e+00
  1.213309e+01    2.662974e+00
  1.214897e+01    2.644588e+00
  1.216485e+01    2.695972e+00
  1.218072e+01    2.697037e+00
  1.219660e+01    2.745486e+00
  1.221247e+01    2.708694e+00
  1.222835e+01    2.679324e+00
  1.224422e+01    2.660274e+00
  1.226010e+01    2.675448e+00
  1.227597e+01    2.679961e+00
  1.229185e+01    2.659079e+00
  1.230773e+01    2.653835e+00
  1.232360e+01    2.682149e+00
  1.233948e+01    2.700484e+00
  1.235535e+01    2.720761e+00
  1.237123e+01    2.679863e+00
  1.238710e+01    2.652699e+00
  1.240298e+01    2.686575e+00
  1.241886e+01    2.678256e+00
  1.243473e+01    2.699972e+00
  1.245061e+01    2.677366e+00
  1.246648e+01    2.683966e+00
  1.248236e+01    2.712730e+00
  1.249823e+01    2.749711e+00
  1.251411e+01    2.726112e+00
  1.252998e+01    2.698080e+00
  1.254586e+01    2.729442e+00
  1.256174e+01    2.737496e+00
  1.257761e+01    2.718692e+00
  1.259349e+01    2.722357e+00
  1.260936e+01    2.728644e+00
  1.262524e+01    2.790337e+00
  1.264111e+01    2.798643e+00
  1.265699e+01    2.805246e+00
  1.267286e+01    2.830719e+00
  1.268874e+01    2.820397e+00
  1.270462e+01    2.832561e+00
  1.272049e+01    2.846824e+00
  1.273637e+01    2.883337e+00
  1.275224e+01    2.932138e+00
  1.276812e+01    2.924631e+00
  1.278399e+01    2.902946e+00
  1.279987e+01    2.991100e+00
  1.281574e+01    3.061735e+00
  1.283162e+01    3.113608e+00
  1.284750e+01    3.170467e+00
  1.286337e+01    3.269561e+00
  1.287925e+01    3.363530e+00
  1.289512e+01    3.478307e+00
  1.291100e+01    3.686261e+00
  1.292687e+01    3.864805e+00
  1.294275e+01    4.060244e+00
  1.295862e+01    4.417788e+00
  1.297450e+01    4.805120e+00
  1.299038e+01    5.339448e+00
  1.300625e+01    5.870752e+00
  1.302213e+01    6.777230e+00
  1.303800e+01    7.756246e+00
  1.305388e+01    8.968898e+00
  1.306975e+01    1.030140e+01
  1.308563e+01    1.158190e+01
  1.310150e+01    1.270473e+01
  1.311738e+01    1.379908e+01
  1.313326e+01    1.484727e+01
  1.314913e+01    1.572971e+01
  1.316501e+01    1.642245e+01
  1.318088e+01    1.635112e+01
  1.319676e+01    1.572070e+01
  1.321263e+01    1.441114e+01
  1.322851e+01    1.259186e+01
  1.324438e+01    1.074729e+01
  1.326026e+01    9.159282e+00
  1.327614e+01    7.784259e+00
  1.329201e+01    6.708704e+00
  1.330789e+01    5.953382e+00
  1.332376e+01    5.342854e+00
  1.333964e+01    4.787104e+00
  1.335551e+01    4.425433e+00
  1.337139e+01    4.084631e+00
  1.338727e+01    3.852054e+00
  1.340314e+01    3.624014e+00
  1.341902e+01    3.434500e+00
  1.343489e+01    3.318314e+00
  1.345077e+01    3.175467e+00
  1.346664e+01    3.083734e+00
  1.348252e+01    3.037434e+00
  1.349839e+01    2.974284e+00
  1.351427e+01    2.935548e+00
  1.353015e+01    2.885589e+00
  1.354602e+01    2.806619e+00
  1.356190e+01    2.754344e+00
  1.357777e+01    2.707920e+00
  1.359365e+01    2.691339e+00
  1.360952e+01    2.719535e+00
  1.362540e+01    2.656779e+00
  1.364127e+01    2.608559e+00
  1.365715e+01    2.597496e+00
  1.367303e+01    2.574405e+00
  1.368890e+01    2.583220e+00
  1.370478e+01    2.559645e+00
  1.372065e+01    2.526552e+00
  1.373653e+01    2.527025e+00
  1.375240e+01    2.472790e+00
  1.376828e+01    2.511422e+00
  1.378415e+01    2.524341e+00
  1.380003e+01    2.496563e+00
  1.381591e+01    2.453169e+00
  1.383178e+01    2.492898e+00
  1.384766e+01    2.469625e+00
  1.386353e+01    2.468693e+00
  1.387941e+01    2.395725e+00
  1.389528e+01    2.399262e+00
  1.391116e+01    2.438727e+00
  1.392703e+01    2.444328e+00
  1.394291e+01    2.413983e+00
  1.395879e+01    2.371593e+00
  1.397466e+01    2.384222e+00
  1.399054e+01    2.359471e+00
  1.400641e+01    2.387526e+00
  1.402229e+01    2.346333e+00
  1.403816e+01    2.398277e+00
  1.405404e+01    2.348636e+00
  1.406991e+01    2.305859e+00
  1.408579e+01    2.336565e+00
  1.410167e+01    2.362962e+00
  1.411754e+01    2.334510e+00
  1.413342e+01    2.340544e+00
  1.414929e+01    2.330566e+00
  1.416517e+01    2.272120e+00
  1.418104e+01    2.277882e+00
  1.419692e+01    2.277636e+00
  1.421279e+01    2.300341e+00
  1.422867e+01    2.287622e+00
  1.424455e+01    2.282637e+00
  1.426042e+01    2.326935e+00
  1.427630e+01    2.317047e+00
  1.429217e+01    2.254262e+00
  1.430805e+01    2.280700e+00
  1.432392e+01    2.267534e+00
  1.433980e+01    2.220891e+00
  1.435568e+01    2.224134e+00
  1.437155e+01    2.249610e+00
  1.438743e+01    2.263973e+00
  1.440330e+01    2.229937e+00
  1.441918e+01    2.228481e+00
  1.443505e+01    2.238104e+00
  1.445093e+01    2.257550e+00
  1.446680e+01    2.234864e+00
  1.448268e+01    2.242160e+00
  1.449856e+01    2.297797e+00
  1.451443e+01    2.235293e+00
  1.453031e+01    2.218576e+00
  1.454618e+01    2.219273e+00
  1.456206e+01    2.222909e+00
  1.457793e+01    2.218162e+00
  1.459381e+01    2.237139e+00
  1.460968e+01    2.233391e+00
  1.462556e+01    2.230199e+00
  1.464144e+01    2.230577e+00
  1.465731e+01    2.211330e+00
  1.467319e+01    2.229337e+00
  1.468906e+01    2.218736e+00
  1.470494e+01    2.179433e+00
  1.472081e+01    2.201159e+00
  1.473669e+01    2.210240e+00
  1.475256e+01    2.209350e+00
  1.476844e+01    2.236333e+00
  1.478432e+01    2.185689e+00
  1.480019e+01    2.188936e+00
  1.481607e+01    2.184426e+00
  1.483194e+01    2.184016e+00
  1.484782e+01    2.182173e+00
  1.486369e+01    2.211707e+00
  1.487957e+01    2.251746e+00
  1.489544e+01    2.261025e+00
  1.491132e+01    2.254119e+00
  1.492720e+01    2.270504e+00
  1.494307e+01    2.271610e+00
  1.495895e+01    2.310641e+00
  1.497482e+01    2.372104e+00
  1.499070e+01    2.393402e+00
  1.500657e+01    2.450058e+00
  1.502245e+01    2.536050e+00
  1.503832e+01    2.607517e+00
  1.505420e+01    2.706724e+00
  1.507008e+01    2.826410e+00
  1.508595e+01    2.975816e+00
  1.510183e+01    3.190004e+00
  1.511770e+01    3.509073e+00
  1.513358e+01    3.828064e+00
  1.514945e+01    4.165867e+00
  1.516533e+01    4.511547e+00
  1.518120e+01    4.812207e+00
  1.519708e+01    5.171340e+00
  1.521296e+01    5.475419e+00
  1.522883e+01    5.663393e+00
  1.524471e+01    5.739410e+00
  1.526058e+01    5.843289e+00
  1.527646e+01    5.735256e+00
  1.529233e+01    5.442554e+00
  1.530821e+01    5.145800e+00
  1.532409e+01    4.673661e+00
  1.533996e+01    4.171024e+00
  1.535584e+01    3.768808e+00
  1.537171e+01    3.423217e+00
  1.538759e+01    3.105045e+00
  1.540346e+01    2.882126e+00
  1.541934e+01    2.725421e+00
  1.543521e+01    2.633045e+00
  1.545109e+01    2.499408e+00
  1.546697e+01    2.425518e+00
  1.548284e+01    2.351524e+00
  1.549872e+01    2.325118e+00
  1.551459e+01    2.260353e+00
  1.553047e+01    2.222679e+00
  1.554634e+01    2.200742e+00
  1.556222e+01    2.144096e+00
  1.557809e+01    2.153235e+00
  1.559397e+01    2.086344e+00
  1.560985e+01    2.073036e+00
  1.562572e+01    2.071624e+00
  1.564160e+01    2.019867e+00
  1.565747e+01    2.047903e+00
  1.567335e+01    2.051573e+00
  1.568922e+01    2.018393e+00
  1.570510e+01    2.021096e+00
  1.572097e+01    2.010509e+00
  1.573685e+01    2.003059e+00
  1.575273e+01    1.986661e+00
  1.576860e+01    1.958934e+00
  1.578448e+01    1.913145e+00
  1.580035e+01    1.887900e+00
  1.581623e+01    1.914397e+00
  1.583210e+01    1.927846e+00
  1.584798e+01    1.931279e+00
  1.586385e+01    1.904282e+00
  1.587973e+01    1.908402e+00
  1.589561e+01    1.912117e+00
  1.591148e+01    1.930623e+00
  1.592736e+01    1.880673e+00
  1.594323e+01    1.866940e+00
  1.595911e+01    1.880304e+00
  1.597498e+01    1.884148e+00
  1.599086e+01    1.879879e+00
  1.600673e+01    1.877890e+00
  1.602261e+01    1.862548e+00
  1.603849e+01    1.870015e+00
  1.605436e+01    1.861947e+00
  1.607024e+01    1.838552e+00
  1.608611e+01    1.837778e+00
  1.610199e+01    1.820614e+00
  1.611786e+01    1.846352e+00
  1.613374e+01    1.837890e+00
  1.614961e+01    1.851101e+00
  1.616549e+01    1.865496e+00
  1.618137e+01    1.825080e+00
  1.619724e+01    1.819942e+00
  1.621312e+01    1.808802e+00
  1.622899e+01    1.846951e+00
  1.624487e+01    1.845808e+00
  1.626074e+01    1.779118e+00
  1.627662e+01    1.792759e+00
  1.629250e+01    1.782511e+00
  1.630837e+01    1.788980e+00
  1.632425e+01    1.759128e+00
  1.634012e+01    1.805548e+00
  1.635600e+01    1.820380e+00
  1.637187e+01    1.817280e+00
  1.638775e+01    1.789476e+00
  1.640362e+01    1.799535e+00
  1.641950e+01    1.742034e+00
  1.643538e+01    1.732330e+00
  1.645125e+01    1.760659e+00
  1.646713e+01    1.775549e+00
  1.648300e+01    1.786394e+00
  1.649888e+01    1.733081e+00
  1.651475e+01    1.736654e+00
  1.653063e+01    1.762129e+00
  1.654650e+01    1.756826e+00
  1.656238e+01    1.729025e+00
  1.657826e+01    1.719712e+00
  1.659413e+01    1.740606e+00
  1.661001e+01    1.742094e+00
  1.662588e+01    1.764833e+00
  1.664176e+01    1.739423e+00
  1.665763e+01    1.717645e+00
  1.667351e+01    1.704085e+00
  1.668938e+01    1.719287e+00
  1.670526e+01    1.738790e+00
  1.672114e+01    1.693648e+00
  1.673701e+01    1.674553e+00
  1.675289e+01    1.703512e+00
  1.676876e+01    1.727838e+00
  1.678464e+01    1.721057e+00
  1.680051e+01    1.702830e+00
  1.681639e+01    1.682814e+00
  1.683226e+01    1.696525e+00
  1.684814e+01    1.687119e+00
  1.686402e+01    1.694120e+00
  1.687989e+01    1.717170e+00
  1.689577e+01    1.698748e+00
  1.691164e+01    1.663946e+00
  1.692752e+01    1.669762e+00
  1.694339e+01    1.663550e+00
  1.695927e+01    1.663626e+00
  1.697514e+01    1.667022e+00
  1.699102e+01    1.655436e+00
  1.700690e+01    1.681121e+00
  1.702277e+01    1.665125e+00
  1.703865e+01    1.680718e+00
  1.705452e+01    1.669400e+00
  1.707040e+01    1.652564e+00
  1.708627e+01    1.667263e+00
  1.710215e+01    1.662774e+00
  1.711802e+01    1.661525e+00
  1.713390e+01    1.659972e+00
  1.714978e+01    1.639090e+00
  1.716565e+01    1.669806e+00
  1.718153e+01    1.681142e+00
  1.719740e+01    1.655211e+00
  1.721328e+01    1.645293e+00
  1.722915e+01    1.666612e+00
  1.724503e+01    1.647424e+00
  1.726091e+01    1.627573e+00
  1.727678e+01    1.623069e+00
  1.729266e+01    1.620052e+00
  1.730853e+01    1.619671e+00
  1.732441e+01    1.622416e+00
  1.734028e+01    1.633367e+00
  1.735616e+01    1.641245e+00
  1.737203e+01    1.659305e+00
  1.738791e+01    1.626550e+00
  1.740379e+01    1.615742e+00
  1.741966e+01    1.580862e+00
  1.743554e+01    1.584348e+00
  1.745141e+01    1.608404e+00
  1.746729e+01    1.576378e+00
  1.748316e+01    1.581182e+00
  1.749904e+01    1.559754e+00
  1.751491e+01    1.571510e+00
  1.753079e+01    1.570982e+00
  1.754667e+01    1.579466e+00
  1.756254e+01    1.575546e+00
  1.757842e+01    1.602880e+00
  1.759429e+01    1.628223e+00
  1.761017e+01    1.591916e+00
  1.762604e+01    1.552241e+00
  1.764192e+01    1.550788e+00
  1.765779e+01    1.564219e+00
  1.767367e+01    1.562964e+00
  1.768955e+01    1.571417e+00
  1.770542e+01    1.542061e+00
  1.772130e+01    1.555542e+00
  1.773717e+01    1.521255e+00
  1.775305e+01    1.542072e+00
  1.776892e+01    1.554505e+00
  1.778480e+01    1.538950e+00
  1.780067e+01    1.542605e+00
  1.781655e+01    1.514473e+00
  1.783243e+01    1.550362e+00
  1.784830e+01    1.545718e+00
  1.786418e+01    1.545161e+00
  1.788005e+01    1.557351e+00
  1.789593e+01    1.553936e+00
  1.791180e+01    1.514572e+00
  1.792768e+01    1.513813e+00
  1.794355e+01    1.522957e+00
  1.795943e+01    1.495559e+00
  1.797531e+01    1.516617e+00
  1.799118e+01    1.495349e+00
  1.800706e+01    1.510518e+00
  1.802293e+01    1.534296e+00
  1.803881e+01    1.486006e+00
  1.805468e+01    1.493835e+00
  1.807056e+01    1.501720e+00
  1.808643e+01    1.486313e+00
  1.810231e+01    1.487536e+00
  1.811819e+01    1.451820e+00
  1.813406e+01    1.475395e+00
  1.814994e+01    1.474356e+00
  1.816581e+01    1.455446e+00
  1.818169e+01    1.487396e+00
  1.819756e+01    1.501090e+00
  1.821344e+01    1.463570e+00
  1.822932e+01    1.477003e+00
  1.824519e+01    1.478599e+00
  1.826107e+01    1.492907e+00
  1.827694e+01    1.515593e+00
  1.829282e+01    1.483524e+00
  1.830869e+01    1.478097e+00
  1.832457e+01    1.509458e+00
  1.834044e+01    1.500948e+00
  1.835632e+01    1.472347e+00
  1.837220e+01    1.479879e+00
  1.838807e+01    1.496755e+00
  1.840395e+01    1.472133e+00
  1.841982e+01    1.433116e+00
  1.843570e+01    1.448990e+00
  1.845157e+01    1.487409e+00
  1.846745e+01    1.475164e+00
  1.848332e+01    1.461105e+00
  1.849920e+01    1.464436e+00
  1.851508e+01    1.434959e+00
  1.853095e+01    1.438262e+00
  1.854683e+01    1.442325e+00
  1.856270e+01    1.432094e+00
  1.857858e+01    1.402879e+00
  1.859445e+01    1.425764e+00
  1.861033e+01    1.423011e+00
  1.862620e+01    1.439473e+00
  1.864208e+01    1.450366e+00
  1.865796e+01    1.448922e+00
  1.867383e+01    1.443637e+00
  1.868971e+01    1.428815e+00
  1.870558e+01    1.421099e+00
  1.872146e+01    1.424441e+00
  1.873733e+01    1.395831e+00
  1.875321e+01    1.374407e+00
  1.876908e+01    1.379960e+00
  1.878496e+01    1.413590e+00
  1.880084e+01    1.409168e+00
  1.881671e+01    1.418471e+00
  1.883259e+01    1.414899e+00
  1.884846e+01    1.408722e+00
  1.886434e+01    1.385460e+00
  1.888021e+01    1.408287e+00
  1.889609e+01    1.402345e+00
  1.891196e+01    1.400568e+00
  1.892784e+01    1.381485e+00
  1.894372e+01    1.400155e+00
  1.895959e+01    1.386656e+00
  1.897547e+01    1.391500e+00
  1.899134e+01    1.400258e+00
  1.900722e+01    1.392384e+00
  1.902309e+01    1.377594e+00
  1.903897e+01    1.386142e+00
  1.905484e+01    1.354096e+00
  1.907072e+01    1.367219e+00
  1.908660e+01    1.362685e+00
  1.910247e+01    1.349081e+00
  1.911835e+01    1.380448e+00
  1.913422e+01    1.378816e+00
  1.915010e+01    1.376546e+00
  1.916597e+01    1.365296e+00
  1.918185e+01    1.366620e+00
  1.919773e+01    1.375114e+00
  1.921360e+01    1.380483e+00
  1.922948e+01    1.358439e+00
  1.924535e+01    1.346966e+00
  1.926123e+01    1.350101e+00
  1.927710e+01    1.361382e+00
  1.929298e+01    1.352715e+00
  1.930885e+01    1.355106e+00
  1.932473e+01    1.344067e+00
  1.934061e+01    1.339773e+00
  1.935648e+01    1.363186e+00
  1.937236e+01    1.381050e+00
  1.938823e+01    1.346684e+00
  1.940411e+01    1.303358e+00
  1.941998e+01    1.362571e+00
  1.943586e+01    1.368300e+00
  1.945173e+01    1.365340e+00
  1.946761e+01    1.327271e+00
  1.948349e+01    1.316718e+00
  1.949936e+01    1.335553e+00
  1.951524e+01    1.333658e+00
  1.953111e+01    1.324985e+00
  1.954699e+01    1.334498e+00
  1.956286e+01    1.326184e+00
  1.957874e+01    1.328480e+00
  1.959461e+01    1.336894e+00
  1.961049e+01    1.303888e+00
  1.962637e+01    1.296960e+00
  1.964224e+01    1.335458e+00
  1.965812e+01    1.310458e+00
  1.967399e+01    1.295795e+00
  1.968987e+01    1.288017e+00
  1.970574e+01    1.294478e+00
  1.972162e+01    1.329803e+00
  1.973749e+01    1.335126e+00
  1.975337e+01    1.312360e+00
  1.976925e+01    1.305062e+00
  1.978512e+01    1.289555e+00
  1.980100e+01    1.297037e+00
  1.981687e+01    1.293056e+00
  1.983275e+01    1.316680e+00
  1.984862e+01    1.315100e+00
  1.986450e+01    1.271160e+00
  1.988037e+01    1.295945e+00
  1.989625e+01    1.284632e+00
  1.991213e+01    1.322041e+00
  1.992800e+01    1.276860e+00
  1.994388e+01    1.285307e+00
  1.995975e+01    1.283686e+00
  1.997563e+01    1.291123e+00
  1.999150e+01    1.290998e+00
  2.000738e+01    1.289852e+00
  2.002325e+01    1.295687e+00
  2.003913e+01    1.272132e+00
  2.005501e+01    1.270232e+00
  2.007088e+01    1.292969e+00
  2.008676e+01    1.279830e+00
  2.010263e+01    1.313607e+00
  2.011851e+01    1.292141e+00
  2.013438e+01    1.269453e+00
  2.015026e+01    1.270121e+00
  2.016614e+01    1.249912e+00
  2.018201e+01    1.267884e+00
  2.019789e+01    1.250578e+00
  2.021376e+01    1.237381e+00
  2.022964e+01    1.250995e+00
  2.024551e+01    1.276575e+00
  2.026139e+01    1.262871e+00
  2.027726e+01    1.224487e+00
  2.029314e+01    1.217886e+00
  2.030902e+01    1.242257e+00
  2.032489e+01    1.253929e+00
  2.034077e+01    1.236009e+00
  2.035664e+01    1.233255e+00
  2.037252e+01    1.246913e+00
  2.038839e+01    1.238057e+00
  2.040427e+01    1.240703e+00
  2.042014e+01    1.255271e+00
  2.043602e+01    1.233586e+00
  2.045190e+01    1.253558e+00
  2.046777e+01    1.271535e+00
  2.048365e+01    1.261910e+00
  2.049952e+01    1.241536e+00
  2.051540e+01    1.224868e+00
  2.053127e+01    1.226996e+00
  2.054715e+01    1.243146e+00
  2.056302e+01    1.237458e+00
  2.057890e+01    1.238930e+00
  2.059478e+01    1.233888e+00
  2.061065e+01    1.243011e+00
  2.062653e+01    1.238683e+00
  2.064240e+01    1.227014e+00
  2.065828e+01    1.242024e+00
  2.067415e+01    1.246954e+00
  2.069003e+01    1.238006e+00
  2.070590e+01    1.228019e+00
  2.072178e+01    1.226278e+00
  2.073766e+01    1.228552e+00
  2.075353e+01    1.249391e+00
  2.076941e+01    1.227409e+00
  2.078528e+01    1.233065e+00
  2.080116e+01    1.229614e+00
  2.081703e+01    1.225342e+00
  2.083291e+01    1.200630e+00
  2.084878e+01    1.222299e+00
  2.086466e+01    1.221740e+00
  2.088054e+01    1.237218e+00
  2.089641e+01    1.223451e+00
  2.091229e+01    1.227240e+00
  2.092816e+01    1.252932e+00
  2.094404e+01    1.247084e+00
  2.095991e+01    1.218611e+00
  2.097579e+01    1.250231e+00
  2.099166e+01    1.264141e+00
  2.100754e+01    1.228301e+00
  2.102342e+01    1.220472e+00
  2.103929e+01    1.206235e+00
  2.105517e+01    1.226544e+00
  2.107104e+01    1.241657e+00
  2.108692e+01    1.227405e+00
  2.110279e+01    1.222808e+00
  2.111867e+01    1.225980e+00
  2.113455e+01    1.202692e+00
  2.115042e+01    1.254568e+00
  2.116630e+01    1.238119e+00
  2.118217e+01    1.233057e+00
  2.119805e+01    1.228244e+00
  2.121392e+01    1.230141e+00
  2.122980e+01    1.258614e+00
  2.124567e+01    1.243045e+00
  2.126155e+01    1.253301e+00
  2.127743e+01    1.260408e+00
  2.129330e+01    1.263956e+00
  2.130918e+01    1.249455e+00
  2.132505e+01    1.247341e+00
  2.134093e+01    1.258874e+00
  2.135680e+01    1.308770e+00
  2.137268e+01    1.278763e+00
  2.138855e+01    1.304909e+00
  2.140443e+01    1.311341e+00
  2.142031e+01    1.316059e+00
  2.143618e+01    1.336223e+00
  2.145206e+01    1.363834e+00
  2.146793e+01    1.389315e+00
  2.148381e+01    1.397173e+00
  2.149968e+01    1.414878e+00
  2.151556e+01    1.452984e+00
  2.153143e+01    1.486387e+00
  2.154731e+01    1.486755e+00
  2.156319e+01    1.562901e+00
  2.157906e+01    1.628799e+00
  2.159494e+01    1.659333e+00
  2.161081e+01    1.757676e+00
  2.162669e+01    1.873006e+00
  2.164256e+01    1.991057e+00
  2.165844e+01    2.111612e+00
  2.167431e+01    2.295025e+00
  2.169019e+01    2.517911e+00
  2.170607e+01    2.787959e+00
  2.172194e+01    3.140887e+00
  2.173782e+01    3.539928e+00
  2.175369e+01    4.019561e+00
  2.176957e+01    4.619442e+00
  2.178544e+01    5.252959e+00
  2.180132e+01    5.880781e+00
  2.181719e+01    6.529231e+00
  2.183307e+01    7.156387e+00
  2.184895e+01    7.864871e+00
  2.186482e+01    8.415003e+00
  2.188070e+01    8.792382e+00
  2.189657e+01    8.998865e+00
  2.191245e+01    8.803390e+00
  2.192832e+01    8.268090e+00
  2.194420e+01    7.430985e+00
  2.196007e+01    6.540155e+00
  2.197595e+01    5.673669e+00
  2.199183e+01    4.866585e+00
  2.200770e+01    4.122748e+00
  2.202358e+01    3.602166e+00
  2.203945e+01    3.163650e+00
  2.205533e+01    2.845662e+00
  2.207120e+01    2.579148e+00
  2.208708e+01    2.309276e+00
  2.210296e+01    2.150304e+00
  2.211883e+01    2.015142e+00
  2.213471e+01    1.875475e+00
  2.215058e+01    1.767285e+00
  2.216646e+01    1.683400e+00
  2.218233e+01    1.602977e+00
  2.219821e+01    1.555676e+00
  2.221408e+01    1.488572e+00
  2.222996e+01    1.456060e+00
  2.224584e+01    1.435770e+00
  2.226171e+01    1.380129e+00
  2.227759e+01    1.321775e+00
  2.229346e+01    1.305733e+00
  2.230934e+01    1.283744e+00
  2.232521e+01    1.289839e+00
  2.234109e+01    1.252241e+00
  2.235696e+01    1.225147e+00
  2.237284e+01    1.221738e+00
  2.238872e+01    1.213091e+00
  2.240459e+01    1.211682e+00
  2.242047e+01    1.206469e+00
  2.243634e+01    1.201282e+00
  2.245222e+01    1.171157e+00
  2.246809e+01    1.149632e+00
  2.248397e+01    1.161240e+00
  2.249984e+01    1.153982e+00
  2.251572e+01    1.142523e+00
  2.253160e+01    1.121908e+00
  2.254747e+01    1.110750e+00
  2.256335e+01    1.105787e+00
  2.257922e+01    1.093921e+00
  2.259510e+01    1.116642e+00
  2.261097e+01    1.125544e+00
  2.262685e+01    1.110097e+00
  2.264272e+01    1.088662e+00
  2.265860e+01    1.089199e+00
  2.267448e+01    1.085152e+00
  2.269035e+01    1.085750e+00
  2.270623e+01    1.072540e+00
  2.272210e+01    1.082238e+00
  2.273798e+01    1.073003e+00
  2.275385e+01    1.076885e+00
  2.276973e+01    1.063451e+00
  2.278560e+01    1.046234e+00
  2.280148e+01    1.040939e+00
  2.281736e+01    1.054124e+00
  2.283323e+01    1.039510e+00
  2.284911e+01    1.027737e+00
  2.286498e+01    1.029128e+00
  2.288086e+01    1.018685e+00
  2.289673e+01    1.023129e+00
  2.291261e+01    1.039777e+00
  2.292848e+01    1.028981e+00
  2.294436e+01    1.026169e+00
  2.296024e+01    1.022906e+00
  2.297611e+01    1.011569e+00
  2.299199e+01    1.038523e+00
  2.300786e+01    1.030941e+00
  2.302374e+01    1.042652e+00
  2.303961e+01    1.003974e+00
  2.305549e+01    9.900591e-01
  2.307137e+01    9.958631e-01
  2.308724e+01    1.023154e+00
  2.310312e+01    1.024665e+00
  2.311899e+01    1.019621e+00
  2.313487e+01    1.015613e+00
  2.315074e+01    9.774982e-01
  2.316662e+01    9.962028e-01
  2.318249e+01    9.979201e-01
  2.319837e+01    9.943488e-01
  2.321425e+01    9.894139e-01
  2.323012e+01    9.967616e-01
  2.324600e+01    9.911994e-01
  2.326187e+01    1.007389e+00
  2.327775e+01    9.848901e-01
  2.329362e+01    9.803416e-01
  2.330950e+01    9.649431e-01
  2.332537e+01    9.593075e-01
  2.334125e+01    9.780473e-01
  2.335713e+01    9.753922e-01
  2.337300e+01    9.694095e-01
  2.338888e+01    9.757124e-01
  2.340475e+01    9.834461e-01
  2.342063e+01    9.665191e-01
  2.343650e+01    9.420031e-01
  2.345238e+01    9.600295e-01
  2.346825e+01    9.472499e-01
  2.348413e+01    9.322522e-01
  2.350001e+01    9.523647e-01
  2.351588e+01    9.729855e-01
  2.353176e+01    9.656205e-01
  2.354763e+01    9.564234e-01
  2.356351e+01    9.628223e-01
  2.357938e+01    9.505825e-01
  2.359526e+01    9.594312e-01
  2.361113e+01    9.802694e-01
  2.362701e+01    9.769228e-01
  2.364289e+01    9.537907e-01
  2.365876e+01    9.335858e-01
  2.367464e+01    9.622934e-01
  2.369051e+01    9.508288e-01
  2.370639e+01    9.288024e-01
  2.372226e+01    9.434221e-01
  2.373814e+01    9.392974e-01
  2.375401e+01    9.289060e-01
  2.376989e+01    9.291084e-01
  2.378577e+01    9.218104e-01
  2.380164e+01    9.422327e-01
  2.381752e+01    9.190523e-01
  2.383339e+01    9.106675e-01
  2.384927e+01    9.229044e-01
  2.386514e+01    9.161670e-01
  2.388102e+01    9.002976e-01
  2.389689e+01    9.056782e-01
  2.391277e+01    9.043450e-01
  2.392865e+01    9.019700e-01
  2.394452e+01    8.908404e-01
  2.396040e+01    8.934028e-01
  2.397627e+01    9.028563e-01
  2.399215e+01    9.113773e-01
  2.400802e+01    8.903190e-01
  2.402390e+01    8.712461e-01
  2.403978e+01    8.818110e-01
  2.405565e+01    8.978629e-01
  2.407153e+01    9.085029e-01
  2.408740e+01    9.022626e-01
  2.410328e+01    8.982642e-01
  2.411915e+01    8.730180e-01
  2.413503e+01    8.641061e-01
  2.415090e+01    8.740630e-01
  2.416678e+01    8.731121e-01
  2.418266e+01    8.721566e-01
  2.419853e+01    8.773820e-01
  2.421441e+01    8.752203e-01
  2.423028e+01    8.912395e-01
  2.424616e+01    9.015417e-01
  2.426203e+01    8.960924e-01
  2.427791e+01    8.872254e-01
  2.429378e+01    8.855543e-01
  2.430966e+01    8.753235e-01
  2.432554e+01    8.994956e-01
  2.434141e+01    9.085305e-01
  2.435729e+01    8.948311e-01
  2.437316e+01    9.006422e-01
  2.438904e+01    8.855302e-01
  2.440491e+01    8.846306e-01
  2.442079e+01    8.780710e-01
  2.443666e+01    8.766062e-01
  2.445254e+01    8.865073e-01
  2.446842e+01    8.866227e-01
  2.448429e+01    8.869853e-01
  2.450017e+01    8.989719e-01
  2.451604e+01    8.909902e-01
  2.453192e+01    9.000457e-01
  2.454779e+01    9.024093e-01
  2.456367e+01    8.839570e-01
  2.457954e+01    8.852752e-01
  2.459542e+01    8.985390e-01
  2.461130e+01    8.849375e-01
  2.462717e+01    8.859556e-01
  2.464305e+01    8.871970e-01
  2.465892e+01    8.898268e-01
  2.467480e+01    8.860320e-01
  2.469067e+01    8.687410e-01
  2.470655e+01    8.801036e-01
  2.472242e+01    9.102657e-01
  2.473830e+01    9.066634e-01
  2.475418e+01    8.931985e-01
  2.477005e+01    8.893165e-01
  2.478593e+01    8.843158e-01
  2.480180e+01    8.880333e-01
  2.481768e+01    9.017501e-01
  2.483355e+01    8.984814e-01
  2.484943e+01    9.096428e-01
  2.486530e+01    9.135479e-01
  2.488118e+01    8.912271e-01
  2.489706e+01    8.762693e-01
  2.491293e+01    8.747675e-01
  2.492881e+01    9.085298e-01
  2.494468e+01    9.006611e-01
  2.496056e+01    8.979678e-01
  2.497643e+01    8.971848e-01
  2.499231e+01    8.853672e-01
  2.500819e+01    8.940948e-01
  2.502406e+01    8.952014e-01
  2.503994e+01    9.080862e-01
  2.505581e+01    8.997808e-01
  2.507169e+01    9.210606e-01
  2.508756e+01    9.134536e-01
  2.510344e+01    8.955978e-01
  2.511931e+01    9.139652e-01
  2.513519e+01    9.029549e-01
  2.515107e+01    8.943083e-01
  2.516694e+01    9.189446e-01
  2.518282e+01    9.323308e-01
  2.519869e+01    9.297889e-01
  2.521457e+01    9.356761e-01
  2.523044e+01    9.435332e-01
  2.524632e+01    9.331588e-01
  2.526219e+01    9.451826e-01
  2.527807e+01    9.525684e-01
  2.529395e+01    9.596704e-01
  2.530982e+01    9.712216e-01
  2.532570e+01    9.609345e-01
  2.534157e+01    9.710568e-01
  2.535745e+01    9.891416e-01
  2.537332e+01    9.813488e-01
  2.538920e+01    9.732127e-01
  2.540507e+01    9.903812e-01
  2.542095e+01    9.994040e-01
  2.543683e+01    1.006486e+00
  2.545270e+01    1.038895e+00
  2.546858e+01    1.035029e+00
  2.548445e+01    1.037132e+00
  2.550033e+01    1.062693e+00
  2.551620e+01    1.071192e+00
  2.553208e+01    1.085997e+00
  2.554795e+01    1.104655e+00
  2.556383e+01    1.146417e+00
  2.557971e+01    1.159927e+00
  2.559558e+01    1.199018e+00
  2.561146e+01    1.242372e+00
  2.562733e+01    1.265576e+00
  2.564321e+01    1.325910e+00
  2.565908e+01    1.341056e+00
  2.567496e+01    1.404213e+00
  2.569083e+01    1.515300e+00
  2.570671e+01    1.651178e+00
  2.572259e+01    1.724724e+00
  2.573846e+01    1.890228e+00
  2.575434e+01    2.050699e+00
  2.577021e+01    2.249585e+00
  2.578609e+01    2.514405e+00
  2.580196e+01    2.818191e+00
  2.581784e+01    3.187712e+00
  2.583371e+01    3.669264e+00
  2.584959e+01    4.211696e+00
  2.586547e+01    4.757038e+00
  2.588134e+01    5.313782e+00
  2.589722e+01    5.917346e+00
  2.591309e+01    6.406605e+00
  2.592897e+01    6.833296e+00
  2.594484e+01    7.080875e+00
  2.596072e+01    7.151396e+00
  2.597660e+01    7.040038e+00
  2.599247e+01    6.566695e+00
  2.600835e+01    5.984785e+00
  2.602422e+01    5.278756e+00
  2.604010e+01    4.569364e+00
  2.605597e+01    3.958907e+00
  2.607185e+01    3.415931e+00
  2.608772e+01    3.003718e+00
  2.610360e+01    2.649492e+00
  2.611948e+01    2.351322e+00
  2.613535e+01    2.122712e+00
  2.615123e+01    1.938941e+00
  2.616710e+01    1.794808e+00
  2.618298e+01    1.675207e+00
  2.619885e+01    1.559105e+00
  2.621473e+01    1.485690e+00
  2.623060e+01    1.376985e+00
  2.624648e+01    1.335316e+00
  2.626236e+01    1.294237e+00
  2.627823e+01    1.265984e+00
  2.629411e+01    1.236249e+00
  2.630998e+01    1.190083e+00
  2.632586e+01    1.146755e+00
  2.634173e+01    1.122311e+00
  2.635761e+01    1.120019e+00
  2.637348e+01    1.101216e+00
  2.638936e+01    1.050594e+00
  2.640524e+01    1.028812e+00
  2.642111e+01    1.039337e+00
  2.643699e+01    1.040208e+00
  2.645286e+01    1.020443e+00
  2.646874e+01    1.004955e+00
  2.648461e+01    9.927474e-01
  2.650049e+01    1.018687e+00
  2.651636e+01    1.011523e+00
  2.653224e+01    1.008609e+00
  2.654812e+01    9.896574e-01
  2.656399e+01    9.967671e-01
  2.657987e+01    9.839408e-01
  2.659574e+01    9.772090e-01
  2.661162e+01    9.856431e-01
  2.662749e+01    9.628474e-01
  2.664337e+01    9.669490e-01
  2.665924e+01    9.957533e-01
  2.667512e+01    9.908643e-01
  2.669100e+01    1.005591e+00
  2.670687e+01    9.913741e-01
  2.672275e+01    9.673384e-01
  2.673862e+01    9.647745e-01
  2.675450e+01    9.553833e-01
  2.677037e+01    9.713916e-01
  2.678625e+01    9.867297e-01
  2.680212e+01    9.700193e-01
  2.681800e+01    9.713611e-01
  2.683388e+01    9.900889e-01
  2.684975e+01    1.012096e+00
  2.686563e+01    9.840777e-01
  2.688150e+01    9.833326e-01
  2.689738e+01    9.838538e-01
  2.691325e+01    9.805242e-01
  2.692913e+01    1.001984e+00
  2.694501e+01    9.983370e-01
  2.696088e+01    1.025646e+00
  2.697676e+01    1.061762e+00
  2.699263e+01    1.066893e+00
  2.700851e+01    1.113393e+00
  2.702438e+01    1.176872e+00
  2.704026e+01    1.194953e+00
  2.705613e+01    1.238662e+00
  2.707201e+01    1.290962e+00
  2.708789e+01    1.393733e+00
  2.710376e+01    1.495338e+00
  2.711964e+01    1.590868e+00
  2.713551e+01    1.743887e+00
  2.715139e+01    1.864755e+00
  2.716726e+01    2.014433e+00
  2.718314e+01    2.120599e+00
  2.719901e+01    2.190940e+00
  2.721489e+01    2.211748e+00
  2.723077e+01    2.153060e+00
  2.724664e+01    2.082559e+00
  2.726252e+01    1.951565e+00
  2.727839e+01    1.846578e+00
  2.729427e+01    1.690838e+00
  2.731014e+01    1.546288e+00
  2.732602e+01    1.431661e+00
  2.734189e+01    1.353816e+00
  2.735777e+01    1.296836e+00
  2.737365e+01    1.242317e+00
  2.738952e+01    1.189099e+00
  2.740540e+01    1.148113e+00
  2.742127e+01    1.100006e+00
  2.743715e+01    1.072229e+00
  2.745302e+01    1.050197e+00
  2.746890e+01    1.038265e+00
  2.748477e+01    1.022520e+00
  2.750065e+01    9.871817e-01
  2.751653e+01    9.629887e-01
  2.753240e+01    9.572271e-01
  2.754828e+01    9.343253e-01
  2.756415e+01    9.374902e-01
  2.758003e+01    9.585232e-01
  2.759590e+01    9.376205e-01
  2.761178e+01    9.209398e-01
  2.762765e+01    9.088497e-01
  2.764353e+01    9.053586e-01
  2.765941e+01    9.133136e-01
  2.767528e+01    9.076463e-01
  2.769116e+01    9.020127e-01
  2.770703e+01    9.273729e-01
  2.772291e+01    9.280825e-01
  2.773878e+01    8.931605e-01
  2.775466e+01    8.901880e-01
  2.777054e+01    9.079444e-01
  2.778641e+01    9.048468e-01
  2.780229e+01    8.865066e-01
  2.781816e+01    8.997844e-01
  2.783404e+01    9.025484e-01
  2.784991e+01    8.966913e-01
  2.786579e+01    8.786958e-01
  2.788166e+01    8.875029e-01
  2.789754e+01    8.961521e-01
  2.791342e+01    8.879900e-01
  2.792929e+01    8.866889e-01
  2.794517e+01    8.745725e-01
  2.796104e+01    8.588024e-01
  2.797692e+01    8.656359e-01
  2.799279e+01    8.713698e-01
  2.800867e+01    8.645995e-01
  2.802454e+01    8.479250e-01
  2.804042e+01    8.678541e-01
  2.805630e+01    8.628364e-01
  2.807217e+01    8.516464e-01
  2.808805e+01    8.654841e-01
  2.810392e+01    8.581175e-01
  2.811980e+01    8.542398e-01
  2.813567e+01    8.612326e-01
  2.815155e+01    8.458941e-01
  2.816742e+01    8.455729e-01
  2.818330e+01    8.634610e-01
  2.819918e+01    8.582904e-01
  2.821505e+01    8.586037e-01
  2.823093e+01    8.658014e-01
  2.824680e+01    8.483324e-01
  2.826268e+01    8.652219e-01
  2.827855e+01    8.696093e-01
  2.829443e+01    8.580918e-01
  2.831030e+01    8.601514e-01
  2.832618e+01    8.445622e-01
  2.834206e+01    8.455682e-01
  2.835793e+01    8.633024e-01
  2.837381e+01    8.548003e-01
  2.838968e+01    8.400310e-01
  2.840556e+01    8.294593e-01
  2.842143e+01    8.288356e-01
  2.843731e+01    8.449211e-01
  2.845318e+01    8.442756e-01
  2.846906e+01    8.707161e-01
  2.848494e+01    8.586715e-01
  2.850081e+01    8.339731e-01
  2.851669e+01    8.266731e-01
  2.853256e+01    8.404674e-01
  2.854844e+01    8.378053e-01
  2.856431e+01    8.643407e-01
  2.858019e+01    8.469846e-01
  2.859606e+01    8.488027e-01
  2.861194e+01    8.386930e-01
  2.862782e+01    8.455883e-01
  2.864369e+01    8.392994e-01
  2.865957e+01    8.507866e-01
  2.867544e+01    8.326469e-01
  2.869132e+01    8.430632e-01
  2.870719e+01    8.414958e-01
  2.872307e+01    8.214156e-01
  2.873895e+01    8.333372e-01
  2.875482e+01    8.350156e-01
  2.877070e+01    8.349388e-01
  2.878657e+01    8.210649e-01
  2.880245e+01    8.372626e-01
  2.881832e+01    8.197507e-01
  2.883420e+01    8.093709e-01
  2.885007e+01    8.097181e-01
  2.886595e+01    8.234078e-01
  2.888183e+01    8.164163e-01
  2.889770e+01    8.151567e-01
  2.891358e+01    8.065372e-01
  2.892945e+01    8.279791e-01
  2.894533e+01    8.109241e-01
  2.896120e+01    8.197821e-01
  2.897708e+01    8.047384e-01
  2.899295e+01    8.131062e-01
  2.900883e+01    8.173317e-01
  2.902471e+01    8.101237e-01
  2.904058e+01    8.037006e-01
  2.905646e+01    8.020794e-01
  2.907233e+01    8.070647e-01
  2.908821e+01    8.112108e-01
  2.910408e+01    7.974815e-01
  2.911996e+01    8.198348e-01
  2.913583e+01    8.025165e-01
  2.915171e+01    8.011752e-01
  2.916759e+01    8.030258e-01
  2.918346e+01    8.052790e-01
  2.919934e+01    8.171631e-01
  2.921521e+01    8.045994e-01
  2.923109e+01    8.147001e-01
  2.924696e+01    7.964846e-01
  2.926284e+01    8.029214e-01
  2.927871e+01    8.306382e-01
  2.929459e+01    8.121042e-01
  2.931047e+01    7.971233e-01
  2.932634e+01    8.065432e-01
  2.934222e+01    8.113250e-01
  2.935809e+01    7.908965e-01
  2.937397e+01    7.832106e-01
  2.938984e+01    7.940596e-01
  2.940572e+01    8.047738e-01
  2.942159e+01    7.943763e-01
  2.943747e+01    8.164647e-01
  2.945335e+01    8.337525e-01
  2.946922e+01    8.096558e-01
  2.948510e+01    8.075945e-01
  2.950097e+01    8.251060e-01
  2.951685e+01    8.107483e-01
  2.953272e+01    7.909463e-01
  2.954860e+01    8.023136e-01
  2.956447e+01    7.983835e-01
  2.958035e+01    8.035091e-01
  2.959623e+01    8.227450e-01
  2.961210e+01    7.907425e-01
  2.962798e+01    7.829519e-01
  2.964385e+01    8.035386e-01
  2.965973e+01    8.004379e-01
  2.967560e+01    7.895775e-01
  2.969148e+01    8.029649e-01
  2.970736e+01    8.040814e-01
  2.972323e+01    7.965031e-01
  2.973911e+01    8.193796e-01
  2.975498e+01    8.178579e-01
  2.977086e+01    8.074595e-01
  2.978673e+01    7.999854e-01
  2.980261e+01    7.929091e-01
  2.981848e+01    7.898372e-01
  2.983436e+01    8.080970e-01
  2.985024e+01    8.083265e-01
  2.986611e+01    7.982579e-01
  2.988199e+01    8.032030e-01
  2.989786e+01    7.905585e-01
  2.991374e+01    8.000391e-01
  2.992961e+01    8.109045e-01
  2.994549e+01    8.036463e-01
  2.996136e+01    8.181280e-01
  2.997724e+01    8.261606e-01
  2.999312e+01    7.996013e-01
  3.000899e+01    8.107060e-01
  3.002487e+01    8.314388e-01
  3.004074e+01    8.132988e-01
  3.005662e+01    8.160608e-01
  3.007249e+01    8.369753e-01
  3.008837e+01    8.289737e-01
  3.010424e+01    8.326283e-01
  3.012012e+01    8.033324e-01
  3.013600e+01    8.050598e-01
  3.015187e+01    7.913755e-01
  3.016775e+01    7.953948e-01
  3.018362e+01    8.049611e-01
  3.019950e+01    7.957655e-01
  3.021537e+01    8.004218e-01
  3.023125e+01    7.910119e-01
  3.024712e+01    7.833321e-01
  3.026300e+01    8.018679e-01
  3.027888e+01    7.961698e-01
  3.029475e+01    7.617866e-01
  3.031063e+01    7.814484e-01
  3.032650e+01    8.032451e-01
  3.034238e+01    7.932895e-01
  3.035825e+01    7.953417e-01
  3.037413e+01    7.817158e-01
  3.039000e+01    7.614112e-01
  3.040588e+01    7.692574e-01
  3.042176e+01    7.806280e-01
  3.043763e+01    7.747621e-01
  3.045351e+01    8.054989e-01
  3.046938e+01    8.175072e-01
  3.048526e+01    7.844562e-01
  3.050113e+01    7.838951e-01
  3.051701e+01    8.117836e-01
  3.053288e+01    8.039467e-01
  3.054876e+01    7.827801e-01
  3.056464e+01    7.683000e-01
  3.058051e+01    7.774999e-01
  3.059639e+01    7.942568e-01
  3.061226e+01    7.968322e-01
  3.062814e+01    7.964247e-01
  3.064401e+01    8.010893e-01
  3.065989e+01    7.832296e-01
  3.067577e+01    7.904615e-01
  3.069164e+01    8.034064e-01
  3.070752e+01    7.864754e-01
  3.072339e+01    8.013970e-01
  3.073927e+01    7.932792e-01
  3.075514e+01    7.835891e-01
  3.077102e+01    7.620267e-01
  3.078689e+01    7.653000e-01
  3.080277e+01    7.641470e-01
  3.081865e+01    7.709333e-01
  3.083452e+01    7.745033e-01
  3.085040e+01    7.973744e-01
  3.086627e+01    7.957786e-01
  3.088215e+01    7.964694e-01
  3.089802e+01    7.758403e-01
  3.091390e+01    7.858777e-01
  3.092977e+01    7.907509e-01
  3.094565e+01    7.854247e-01
  3.096153e+01    7.782077e-01
  3.097740e+01    7.793919e-01
  3.099328e+01    7.802041e-01
  3.100915e+01    7.749499e-01
  3.102503e+01    7.853655e-01
  3.104090e+01    7.890095e-01
  3.105678e+01    8.052835e-01
  3.107265e+01    7.926308e-01
  3.108853e+01    7.948194e-01
  3.110441e+01    7.930123e-01
  3.112028e+01    7.983273e-01
  3.113616e+01    7.919083e-01
  3.115203e+01    8.202342e-01
  3.116791e+01    8.198171e-01
  3.118378e+01    8.025633e-01
  3.119966e+01    7.847209e-01
  3.121553e+01    7.677882e-01
  3.123141e+01    8.015068e-01
  3.124729e+01    8.020614e-01
  3.126316e+01    7.924471e-01
  3.127904e+01    7.970275e-01
  3.129491e+01    7.984654e-01
  3.131079e+01    7.817267e-01
  3.132666e+01    8.006967e-01
  3.134254e+01    8.207785e-01
  3.135841e+01    8.035024e-01
  3.137429e+01    8.308327e-01
  3.139017e+01    8.139219e-01
  3.140604e+01    8.135533e-01
  3.142192e+01    7.771581e-01
  3.143779e+01    8.117837e-01
  3.145367e+01    8.121393e-01
  3.146954e+01    8.199285e-01
  3.148542e+01    8.057284e-01
  3.150129e+01    8.232065e-01
  3.151717e+01    8.448523e-01
  3.153305e+01    8.525033e-01
  3.154892e+01    8.228423e-01
  3.156480e+01    8.610854e-01
  3.158067e+01    8.640712e-01
  3.159655e+01    8.666587e-01
  3.161242e+01    8.801130e-01
  3.162830e+01    9.254905e-01
  3.164418e+01    9.233994e-01
  3.166005e+01    9.464753e-01
  3.167593e+01    9.766563e-01
  3.169180e+01    1.006277e+00
  3.170768e+01    1.034425e+00
  3.172355e+01    1.051798e+00
  3.173943e+01    1.127626e+00
  3.175530e+01    1.179114e+00
  3.177118e+01    1.247937e+00
  3.178706e+01    1.343348e+00
  3.180293e+01    1.472907e+00
  3.181881e+01    1.602266e+00
  3.183468e+01    1.735191e+00
  3.185056e+01    1.854341e+00
  3.186643e+01    1.937469e+00
  3.188231e+01    2.023239e+00
  3.189818e+01    2.101832e+00
  3.191406e+01    2.089858e+00
  3.192994e+01    2.095343e+00
  3.194581e+01    1.918493e+00
  3.196169e+01    1.817636e+00
  3.197756e+01    1.688386e+00
  3.199344e+01    1.567367e+00
  3.200931e+01    1.428385e+00
  3.202519e+01    1.326955e+00
  3.204106e+01    1.232121e+00
  3.205694e+01    1.169753e+00
  3.207282e+01    1.119109e+00
  3.208869e+01    1.046162e+00
  3.210457e+01    1.009239e+00
  3.212044e+01    9.461550e-01
  3.213632e+01    9.398587e-01
  3.215219e+01    9.169596e-01
  3.216807e+01    9.064702e-01
  3.218394e+01    8.737066e-01
  3.219982e+01    8.420967e-01
  3.221570e+01    8.351724e-01
  3.223157e+01    8.584249e-01
  3.224745e+01    8.587633e-01
  3.226332e+01    8.177645e-01
  3.227920e+01    7.773600e-01
  3.229507e+01    7.900988e-01
  3.231095e+01    8.084439e-01
  3.232682e+01    8.207201e-01
  3.234270e+01    7.956093e-01
  3.235858e+01    7.908863e-01
  3.237445e+01    7.779725e-01
  3.239033e+01    7.819155e-01
  3.240620e+01    7.945479e-01
  3.242208e+01    8.105423e-01
  3.243795e+01    7.995042e-01
  3.245383e+01    8.034641e-01
  3.246970e+01    8.074381e-01
  3.248558e+01    7.987075e-01
  3.250146e+01    8.054679e-01
  3.251733e+01    7.872412e-01
  3.253321e+01    7.895391e-01
  3.254908e+01    7.895463e-01
