# == pyFAI calibration ==
# Distance Sample to Detector: 0.3999999939076516 m
# PONI: 9.750e-02, 1.135e-01 m
# Rotations: -0.000175 0.000000 -0.000000 rad
# 
# == Fit2d calibration ==
# Distance Sample-beamCenter: 400.000 mm
# Center: x=1514.000, y=1300.000 pix
# Tilt: 0.010 deg  TiltPlanRot: 0.010 deg
# 
# Detector Detector	 Spline= None	 PixelSize= 7.500e-05, 7.500e-05 m
#    Detector has a mask: False 
#    Detector has a dark current: False 
#    detector has a flat field: False 
# 
# Wavelength: 6.888e-11 m
# Mask applied: user provided
# Dark current applied: False
# Flat field applied: False
# Polarization factor: 0.99
# Normalization factor: 1.0
# --> /home/myspot/data/2024_07_Rosario/Ru-CGO-ex/2024-07-27_003_Ru-CGO-ex_Reaction_dwell_000023_data_000154.dat
#       q_nm^-1             I 
  2.003187e-02    0.000000e+00
  3.590745e-02    3.429401e-02
  5.178302e-02    1.424574e-01
  6.765859e-02    1.723407e-01
  8.353417e-02    1.629182e-01
  9.940974e-02    9.478266e-02
  1.152853e-01    9.044319e-02
  1.311609e-01    4.702913e-02
  1.470365e-01    4.454855e-03
  1.629120e-01    2.809639e-02
  1.787876e-01    3.599435e-02
  1.946632e-01    8.992816e-02
  2.105388e-01    2.620421e-02
  2.264143e-01    3.165545e-02
  2.422899e-01    5.760974e-02
  2.581655e-01    3.344274e-02
  2.740411e-01    4.225254e-02
  2.899166e-01    3.436780e-02
  3.057922e-01    5.975254e-02
  3.216678e-01    5.488713e-02
  3.375433e-01    1.589667e-02
  3.534189e-01    4.026948e-02
  3.692945e-01    5.215575e-02
  3.851701e-01    2.709606e-02
  4.010456e-01    3.719586e-02
  4.169212e-01    5.656215e-02
  4.327968e-01    2.992863e-02
  4.486724e-01    3.185998e-02
  4.645479e-01    5.793870e-02
  4.804235e-01    2.736735e-02
  4.962991e-01    1.385900e-02
  5.121747e-01    2.772960e-02
  5.280502e-01    3.977802e-02
  5.439258e-01    6.400617e-02
  5.598014e-01    4.375296e-02
  5.756770e-01    3.397173e-02
  5.915525e-01    3.361357e-02
  6.074281e-01    3.294773e-02
  6.233037e-01    3.838139e-02
  6.391793e-01    3.284688e-02
  6.550548e-01    3.347423e-02
  6.709304e-01    3.149520e-02
  6.868060e-01    4.185543e-02
  7.026815e-01    5.335370e-02
  7.185571e-01    5.667457e-02
  7.344327e-01    4.821501e-02
  7.503083e-01    7.406948e-02
  7.661838e-01    7.203552e-02
  7.820594e-01    9.847987e-02
  7.979350e-01    1.131176e-01
  8.138106e-01    1.774087e-01
  8.296861e-01    2.513108e-01
  8.455617e-01    3.795610e-01
  8.614373e-01    4.098161e-01
  8.773129e-01    4.479648e-01
  8.931884e-01    5.903683e-01
  9.090640e-01    6.429245e-01
  9.249396e-01    6.969212e-01
  9.408152e-01    7.560342e-01
  9.566907e-01    8.660318e-01
  9.725663e-01    9.622386e-01
  9.884419e-01    1.031541e+00
  1.004317e+00    1.148978e+00
  1.020193e+00    1.316512e+00
  1.036069e+00    1.370056e+00
  1.051944e+00    1.435057e+00
  1.067820e+00    1.375844e+00
  1.083695e+00    1.481945e+00
  1.099571e+00    1.575372e+00
  1.115446e+00    1.556139e+00
  1.131322e+00    1.614853e+00
  1.147198e+00    1.594205e+00
  1.163073e+00    1.663623e+00
  1.178949e+00    1.788358e+00
  1.194824e+00    1.847955e+00
  1.210700e+00    2.000714e+00
  1.226575e+00    2.274447e+00
  1.242451e+00    2.319530e+00
  1.258327e+00    2.379908e+00
  1.274202e+00    2.568065e+00
  1.290078e+00    2.623816e+00
  1.305953e+00    2.696113e+00
  1.321829e+00    2.650624e+00
  1.337705e+00    2.785746e+00
  1.353580e+00    2.748044e+00
  1.369456e+00    2.633192e+00
  1.385331e+00    2.662783e+00
  1.401207e+00    2.781499e+00
  1.417082e+00    2.958418e+00
  1.432958e+00    2.725725e+00
  1.448834e+00    2.901551e+00
  1.464709e+00    3.015054e+00
  1.480585e+00    3.027678e+00
  1.496460e+00    3.203309e+00
  1.512336e+00    3.083689e+00
  1.528211e+00    3.095431e+00
  1.544087e+00    3.175627e+00
  1.559963e+00    3.130721e+00
  1.575838e+00    3.077176e+00
  1.591714e+00    3.022250e+00
  1.607589e+00    3.086313e+00
  1.623465e+00    3.133213e+00
  1.639340e+00    3.077422e+00
  1.655216e+00    3.037232e+00
  1.671092e+00    3.206100e+00
  1.686967e+00    3.278762e+00
  1.702843e+00    3.184429e+00
  1.718718e+00    3.129472e+00
  1.734594e+00    3.119525e+00
  1.750469e+00    3.171512e+00
  1.766345e+00    3.050962e+00
  1.782221e+00    3.089299e+00
  1.798096e+00    3.028428e+00
  1.813972e+00    3.072010e+00
  1.829847e+00    3.147513e+00
  1.845723e+00    3.149951e+00
  1.861598e+00    3.067196e+00
  1.877474e+00    3.081233e+00
  1.893350e+00    3.162729e+00
  1.909225e+00    3.099151e+00
  1.925101e+00    3.089152e+00
  1.940976e+00    3.084281e+00
  1.956852e+00    3.066057e+00
  1.972727e+00    3.093016e+00
  1.988603e+00    3.039907e+00
  2.004479e+00    3.148363e+00
  2.020354e+00    3.102531e+00
  2.036230e+00    3.069532e+00
  2.052105e+00    3.023833e+00
  2.067981e+00    2.985035e+00
  2.083856e+00    3.070127e+00
  2.099732e+00    3.095151e+00
  2.115608e+00    3.137750e+00
  2.131483e+00    3.158215e+00
  2.147359e+00    3.053339e+00
  2.163234e+00    3.130311e+00
  2.179110e+00    3.162614e+00
  2.194985e+00    3.111275e+00
  2.210861e+00    3.118532e+00
  2.226737e+00    3.102970e+00
  2.242612e+00    3.116282e+00
  2.258488e+00    3.160451e+00
  2.274363e+00    3.195855e+00
  2.290239e+00    3.147636e+00
  2.306115e+00    3.104987e+00
  2.321990e+00    3.132441e+00
  2.337866e+00    3.198391e+00
  2.353741e+00    3.181809e+00
  2.369617e+00    3.118248e+00
  2.385492e+00    3.151004e+00
  2.401368e+00    3.225329e+00
  2.417244e+00    3.184375e+00
  2.433119e+00    3.111658e+00
  2.448995e+00    3.095788e+00
  2.464870e+00    3.258705e+00
  2.480746e+00    3.163763e+00
  2.496621e+00    3.208986e+00
  2.512497e+00    3.192170e+00
  2.528373e+00    3.248655e+00
  2.544248e+00    3.318419e+00
  2.560124e+00    3.208152e+00
  2.575999e+00    3.184816e+00
  2.591875e+00    3.188326e+00
  2.607750e+00    3.113474e+00
  2.623626e+00    3.192470e+00
  2.639502e+00    3.139896e+00
  2.655377e+00    3.186944e+00
  2.671253e+00    3.286162e+00
  2.687128e+00    3.306922e+00
  2.703004e+00    3.316245e+00
  2.718879e+00    3.234415e+00
  2.734755e+00    3.217449e+00
  2.750631e+00    3.293649e+00
  2.766506e+00    3.200639e+00
  2.782382e+00    3.175225e+00
  2.798257e+00    3.369031e+00
  2.814133e+00    3.402644e+00
  2.830008e+00    3.331359e+00
  2.845884e+00    3.288505e+00
  2.861760e+00    3.242635e+00
  2.877635e+00    3.170127e+00
  2.893511e+00    3.224982e+00
  2.909386e+00    3.288924e+00
  2.925262e+00    3.315453e+00
  2.941137e+00    3.222032e+00
  2.957013e+00    3.206308e+00
  2.972889e+00    3.275956e+00
  2.988764e+00    3.282324e+00
  3.004640e+00    3.444152e+00
  3.020515e+00    3.419118e+00
  3.036391e+00    3.282986e+00
  3.052266e+00    3.267859e+00
  3.068142e+00    3.279129e+00
  3.084018e+00    3.324241e+00
  3.099893e+00    3.406713e+00
  3.115769e+00    3.389152e+00
  3.131644e+00    3.385381e+00
  3.147520e+00    3.417529e+00
  3.163395e+00    3.375909e+00
  3.179271e+00    3.424823e+00
  3.195147e+00    3.412198e+00
  3.211022e+00    3.374831e+00
  3.226898e+00    3.409063e+00
  3.242773e+00    3.414161e+00
  3.258649e+00    3.354833e+00
  3.274525e+00    3.391786e+00
  3.290400e+00    3.334066e+00
  3.306276e+00    3.314720e+00
  3.322151e+00    3.303089e+00
  3.338027e+00    3.294968e+00
  3.353902e+00    3.446297e+00
  3.369778e+00    3.471002e+00
  3.385654e+00    3.473544e+00
  3.401529e+00    3.455886e+00
  3.417405e+00    3.398259e+00
  3.433280e+00    3.394835e+00
  3.449156e+00    3.404649e+00
  3.465031e+00    3.466478e+00
  3.480907e+00    3.376868e+00
  3.496783e+00    3.426806e+00
  3.512658e+00    3.446421e+00
  3.528534e+00    3.422347e+00
  3.544409e+00    3.392040e+00
  3.560285e+00    3.394249e+00
  3.576160e+00    3.385389e+00
  3.592036e+00    3.474296e+00
  3.607912e+00    3.410680e+00
  3.623787e+00    3.344253e+00
  3.639663e+00    3.467114e+00
  3.655538e+00    3.480614e+00
  3.671414e+00    3.408728e+00
  3.687289e+00    3.429493e+00
  3.703165e+00    3.458708e+00
  3.719041e+00    3.390466e+00
  3.734916e+00    3.391708e+00
  3.750792e+00    3.482017e+00
  3.766667e+00    3.540358e+00
  3.782543e+00    3.480591e+00
  3.798418e+00    3.523591e+00
  3.814294e+00    3.493486e+00
  3.830170e+00    3.483747e+00
  3.846045e+00    3.464267e+00
  3.861921e+00    3.509171e+00
  3.877796e+00    3.443490e+00
  3.893672e+00    3.444763e+00
  3.909547e+00    3.553899e+00
  3.925423e+00    3.419084e+00
  3.941299e+00    3.533768e+00
  3.957174e+00    3.544907e+00
  3.973050e+00    3.507205e+00
  3.988925e+00    3.540291e+00
  4.004801e+00    3.499259e+00
  4.020676e+00    3.484288e+00
  4.036552e+00    3.579356e+00
  4.052428e+00    3.504531e+00
  4.068303e+00    3.538097e+00
  4.084179e+00    3.450261e+00
  4.100054e+00    3.517940e+00
  4.115930e+00    3.583160e+00
  4.131806e+00    3.556533e+00
  4.147681e+00    3.594863e+00
  4.163557e+00    3.558874e+00
  4.179432e+00    3.549544e+00
  4.195308e+00    3.504118e+00
  4.211183e+00    3.469783e+00
  4.227059e+00    3.495377e+00
  4.242935e+00    3.616641e+00
  4.258810e+00    3.652505e+00
  4.274686e+00    3.544462e+00
  4.290561e+00    3.594494e+00
  4.306437e+00    3.647338e+00
  4.322312e+00    3.566274e+00
  4.338188e+00    3.526963e+00
  4.354064e+00    3.515981e+00
  4.369939e+00    3.478484e+00
  4.385815e+00    3.502274e+00
  4.401690e+00    3.575999e+00
  4.417566e+00    3.548756e+00
  4.433441e+00    3.561363e+00
  4.449317e+00    3.641882e+00
  4.465193e+00    3.696289e+00
  4.481068e+00    3.629975e+00
  4.496944e+00    3.582409e+00
  4.512819e+00    3.658777e+00
  4.528695e+00    3.598414e+00
  4.544570e+00    3.563903e+00
  4.560446e+00    3.559256e+00
  4.576322e+00    3.528681e+00
  4.592197e+00    3.593516e+00
  4.608073e+00    3.559857e+00
  4.623948e+00    3.553616e+00
  4.639824e+00    3.586721e+00
  4.655699e+00    3.588252e+00
  4.671575e+00    3.567498e+00
  4.687451e+00    3.643813e+00
  4.703326e+00    3.673139e+00
  4.719202e+00    3.622249e+00
  4.735077e+00    3.626980e+00
  4.750953e+00    3.670012e+00
  4.766828e+00    3.578728e+00
  4.782704e+00    3.602287e+00
  4.798580e+00    3.662969e+00
  4.814455e+00    3.666776e+00
  4.830331e+00    3.564718e+00
  4.846206e+00    3.638686e+00
  4.862082e+00    3.620213e+00
  4.877957e+00    3.607720e+00
  4.893833e+00    3.624732e+00
  4.909709e+00    3.694533e+00
  4.925584e+00    3.721575e+00
  4.941460e+00    3.661516e+00
  4.957335e+00    3.636181e+00
  4.973211e+00    3.629424e+00
  4.989086e+00    3.559482e+00
  5.004962e+00    3.606159e+00
  5.020838e+00    3.529982e+00
  5.036713e+00    3.661504e+00
  5.052589e+00    3.572319e+00
  5.068464e+00    3.619246e+00
  5.084340e+00    3.632971e+00
  5.100216e+00    3.623461e+00
  5.116091e+00    3.641117e+00
  5.131967e+00    3.632028e+00
  5.147842e+00    3.712297e+00
  5.163718e+00    3.605887e+00
  5.179593e+00    3.681626e+00
  5.195469e+00    3.703207e+00
  5.211345e+00    3.639210e+00
  5.227220e+00    3.650223e+00
  5.243096e+00    3.580625e+00
  5.258971e+00    3.511702e+00
  5.274847e+00    3.661686e+00
  5.290722e+00    3.669274e+00
  5.306598e+00    3.677913e+00
  5.322474e+00    3.674924e+00
  5.338349e+00    3.652648e+00
  5.354225e+00    3.611134e+00
  5.370100e+00    3.643244e+00
  5.385976e+00    3.756219e+00
  5.401851e+00    3.619863e+00
  5.417727e+00    3.601380e+00
  5.433603e+00    3.615194e+00
  5.449478e+00    3.611074e+00
  5.465354e+00    3.616948e+00
  5.481229e+00    3.623958e+00
  5.497105e+00    3.632092e+00
  5.512980e+00    3.594070e+00
  5.528856e+00    3.572959e+00
  5.544732e+00    3.572733e+00
  5.560607e+00    3.565353e+00
  5.576483e+00    3.590571e+00
  5.592358e+00    3.659837e+00
  5.608234e+00    3.683327e+00
  5.624109e+00    3.587990e+00
  5.639985e+00    3.545298e+00
  5.655861e+00    3.602547e+00
  5.671736e+00    3.644018e+00
  5.687612e+00    3.539151e+00
  5.703487e+00    3.513661e+00
  5.719363e+00    3.545731e+00
  5.735238e+00    3.529477e+00
  5.751114e+00    3.560365e+00
  5.766990e+00    3.611763e+00
  5.782865e+00    3.494670e+00
  5.798741e+00    3.459626e+00
  5.814616e+00    3.560067e+00
  5.830492e+00    3.530935e+00
  5.846367e+00    3.458402e+00
  5.862243e+00    3.555190e+00
  5.878119e+00    3.583086e+00
  5.893994e+00    3.527325e+00
  5.909870e+00    3.524404e+00
  5.925745e+00    3.480370e+00
  5.941621e+00    3.586019e+00
  5.957497e+00    3.521687e+00
  5.973372e+00    3.516407e+00
  5.989248e+00    3.508852e+00
  6.005123e+00    3.540065e+00
  6.020999e+00    3.558963e+00
  6.036874e+00    3.578766e+00
  6.052750e+00    3.502517e+00
  6.068626e+00    3.590404e+00
  6.084501e+00    3.511746e+00
  6.100377e+00    3.537292e+00
  6.116252e+00    3.627533e+00
  6.132128e+00    3.574426e+00
  6.148003e+00    3.611336e+00
  6.163879e+00    3.616990e+00
  6.179755e+00    3.569191e+00
  6.195630e+00    3.537058e+00
  6.211506e+00    3.551646e+00
  6.227381e+00    3.604222e+00
  6.243257e+00    3.608081e+00
  6.259132e+00    3.534437e+00
  6.275008e+00    3.489105e+00
  6.290884e+00    3.576847e+00
  6.306759e+00    3.555978e+00
  6.322635e+00    3.585486e+00
  6.338510e+00    3.566178e+00
  6.354386e+00    3.532443e+00
  6.370261e+00    3.579451e+00
  6.386137e+00    3.522628e+00
  6.402013e+00    3.515192e+00
  6.417888e+00    3.475323e+00
  6.433764e+00    3.481631e+00
  6.449639e+00    3.511790e+00
  6.465515e+00    3.572134e+00
  6.481390e+00    3.589336e+00
  6.497266e+00    3.526324e+00
  6.513142e+00    3.536195e+00
  6.529017e+00    3.562922e+00
  6.544893e+00    3.552029e+00
  6.560768e+00    3.502613e+00
  6.576644e+00    3.536446e+00
  6.592519e+00    3.595508e+00
  6.608395e+00    3.545750e+00
  6.624271e+00    3.590156e+00
  6.640146e+00    3.537041e+00
  6.656022e+00    3.496601e+00
  6.671897e+00    3.554558e+00
  6.687773e+00    3.498607e+00
  6.703648e+00    3.489506e+00
  6.719524e+00    3.525896e+00
  6.735400e+00    3.481435e+00
  6.751275e+00    3.529205e+00
  6.767151e+00    3.568238e+00
  6.783026e+00    3.547252e+00
  6.798902e+00    3.538037e+00
  6.814777e+00    3.546040e+00
  6.830653e+00    3.563643e+00
  6.846529e+00    3.550714e+00
  6.862404e+00    3.564161e+00
  6.878280e+00    3.568910e+00
  6.894155e+00    3.499963e+00
  6.910031e+00    3.434376e+00
  6.925907e+00    3.508645e+00
  6.941782e+00    3.554470e+00
  6.957658e+00    3.551893e+00
  6.973533e+00    3.570111e+00
  6.989409e+00    3.525296e+00
  7.005284e+00    3.513403e+00
  7.021160e+00    3.500315e+00
  7.037036e+00    3.495691e+00
  7.052911e+00    3.459771e+00
  7.068787e+00    3.507799e+00
  7.084662e+00    3.531914e+00
  7.100538e+00    3.547620e+00
  7.116413e+00    3.561727e+00
  7.132289e+00    3.448737e+00
  7.148165e+00    3.512455e+00
  7.164040e+00    3.486779e+00
  7.179916e+00    3.532352e+00
  7.195791e+00    3.528123e+00
  7.211667e+00    3.527406e+00
  7.227542e+00    3.494194e+00
  7.243418e+00    3.530249e+00
  7.259294e+00    3.524434e+00
  7.275169e+00    3.500079e+00
  7.291045e+00    3.534364e+00
  7.306920e+00    3.545944e+00
  7.322796e+00    3.509307e+00
  7.338671e+00    3.548507e+00
  7.354547e+00    3.556645e+00
  7.370423e+00    3.499537e+00
  7.386298e+00    3.460842e+00
  7.402174e+00    3.507668e+00
  7.418049e+00    3.463641e+00
  7.433925e+00    3.451569e+00
  7.449800e+00    3.369162e+00
  7.465676e+00    3.419804e+00
  7.481552e+00    3.515151e+00
  7.497427e+00    3.457739e+00
  7.513303e+00    3.492955e+00
  7.529178e+00    3.505379e+00
  7.545054e+00    3.397890e+00
  7.560929e+00    3.412083e+00
  7.576805e+00    3.450184e+00
  7.592681e+00    3.435821e+00
  7.608556e+00    3.514594e+00
  7.624432e+00    3.463931e+00
  7.640307e+00    3.476441e+00
  7.656183e+00    3.459569e+00
  7.672058e+00    3.378575e+00
  7.687934e+00    3.421121e+00
  7.703810e+00    3.430577e+00
  7.719685e+00    3.445496e+00
  7.735561e+00    3.491235e+00
  7.751436e+00    3.442101e+00
  7.767312e+00    3.363213e+00
  7.783187e+00    3.388288e+00
  7.799063e+00    3.399678e+00
  7.814939e+00    3.445045e+00
  7.830814e+00    3.460211e+00
  7.846690e+00    3.374427e+00
  7.862565e+00    3.380133e+00
  7.878441e+00    3.454723e+00
  7.894317e+00    3.374795e+00
  7.910192e+00    3.419122e+00
  7.926068e+00    3.441140e+00
  7.941943e+00    3.388389e+00
  7.957819e+00    3.304550e+00
  7.973694e+00    3.403487e+00
  7.989570e+00    3.435095e+00
  8.005446e+00    3.431641e+00
  8.021321e+00    3.393790e+00
  8.037197e+00    3.390474e+00
  8.053072e+00    3.351411e+00
  8.068948e+00    3.385542e+00
  8.084823e+00    3.405840e+00
  8.100699e+00    3.401853e+00
  8.116575e+00    3.434104e+00
  8.132450e+00    3.478437e+00
  8.148326e+00    3.523066e+00
  8.164201e+00    3.411351e+00
  8.180077e+00    3.450675e+00
  8.195952e+00    3.433291e+00
  8.211828e+00    3.435194e+00
  8.227704e+00    3.384225e+00
  8.243579e+00    3.437887e+00
  8.259455e+00    3.444139e+00
  8.275330e+00    3.437648e+00
  8.291206e+00    3.387964e+00
  8.307081e+00    3.405542e+00
  8.322957e+00    3.383116e+00
  8.338833e+00    3.362815e+00
  8.354708e+00    3.313612e+00
  8.370584e+00    3.426791e+00
  8.386459e+00    3.405128e+00
  8.402335e+00    3.356461e+00
  8.418210e+00    3.362303e+00
  8.434086e+00    3.365697e+00
  8.449962e+00    3.404741e+00
  8.465837e+00    3.476426e+00
  8.481713e+00    3.457341e+00
  8.497588e+00    3.404342e+00
  8.513464e+00    3.363117e+00
  8.529339e+00    3.372340e+00
  8.545215e+00    3.340755e+00
  8.561091e+00    3.377470e+00
  8.576966e+00    3.445630e+00
  8.592842e+00    3.339374e+00
  8.608717e+00    3.350226e+00
  8.624593e+00    3.357045e+00
  8.640468e+00    3.324127e+00
  8.656344e+00    3.317106e+00
  8.672220e+00    3.322082e+00
  8.688095e+00    3.346612e+00
  8.703971e+00    3.409930e+00
  8.719846e+00    3.317266e+00
  8.735722e+00    3.261243e+00
  8.751598e+00    3.343987e+00
  8.767473e+00    3.323820e+00
  8.783349e+00    3.320877e+00
  8.799224e+00    3.256681e+00
  8.815100e+00    3.332065e+00
  8.830975e+00    3.345131e+00
  8.846851e+00    3.363178e+00
  8.862727e+00    3.303417e+00
  8.878602e+00    3.325922e+00
  8.894478e+00    3.309403e+00
  8.910353e+00    3.319886e+00
  8.926229e+00    3.272100e+00
  8.942104e+00    3.257916e+00
  8.957980e+00    3.298482e+00
  8.973856e+00    3.309870e+00
  8.989731e+00    3.297462e+00
  9.005607e+00    3.267302e+00
  9.021482e+00    3.293332e+00
  9.037358e+00    3.261275e+00
  9.053233e+00    3.248737e+00
  9.069109e+00    3.300328e+00
  9.084985e+00    3.283340e+00
  9.100860e+00    3.260183e+00
  9.116736e+00    3.250924e+00
  9.132611e+00    3.295718e+00
  9.148487e+00    3.271052e+00
  9.164362e+00    3.330808e+00
  9.180238e+00    3.293751e+00
  9.196114e+00    3.277368e+00
  9.211989e+00    3.271826e+00
  9.227865e+00    3.269869e+00
  9.243740e+00    3.182234e+00
  9.259616e+00    3.161820e+00
  9.275491e+00    3.167444e+00
  9.291367e+00    3.209536e+00
  9.307243e+00    3.226997e+00
  9.323118e+00    3.171577e+00
  9.338994e+00    3.245686e+00
  9.354869e+00    3.290840e+00
  9.370745e+00    3.240647e+00
  9.386620e+00    3.200499e+00
  9.402496e+00    3.223123e+00
  9.418372e+00    3.205510e+00
  9.434247e+00    3.153278e+00
  9.450123e+00    3.185143e+00
  9.465998e+00    3.219495e+00
  9.481874e+00    3.245199e+00
  9.497749e+00    3.250256e+00
  9.513625e+00    3.249030e+00
  9.529501e+00    3.242326e+00
  9.545376e+00    3.203708e+00
  9.561252e+00    3.192281e+00
  9.577127e+00    3.271842e+00
  9.593003e+00    3.219588e+00
  9.608878e+00    3.226638e+00
  9.624754e+00    3.181310e+00
  9.640630e+00    3.180002e+00
  9.656505e+00    3.155612e+00
  9.672381e+00    3.179125e+00
  9.688256e+00    3.166726e+00
  9.704132e+00    3.167768e+00
  9.720008e+00    3.231711e+00
  9.735883e+00    3.215145e+00
  9.751759e+00    3.171645e+00
  9.767634e+00    3.144459e+00
  9.783510e+00    3.158011e+00
  9.799385e+00    3.146784e+00
  9.815261e+00    3.130855e+00
  9.831137e+00    3.120259e+00
  9.847012e+00    3.125260e+00
  9.862888e+00    3.104730e+00
  9.878763e+00    3.102794e+00
  9.894639e+00    3.149651e+00
  9.910514e+00    3.152798e+00
  9.926390e+00    3.139988e+00
  9.942266e+00    3.086202e+00
  9.958141e+00    3.091151e+00
  9.974017e+00    3.142698e+00
  9.989892e+00    3.112408e+00
  1.000577e+01    3.087888e+00
  1.002164e+01    3.117076e+00
  1.003752e+01    3.108463e+00
  1.005339e+01    3.103032e+00
  1.006927e+01    3.063197e+00
  1.008515e+01    3.019691e+00
  1.010102e+01    3.044114e+00
  1.011690e+01    3.035874e+00
  1.013277e+01    3.050375e+00
  1.014865e+01    3.106617e+00
  1.016452e+01    3.099453e+00
  1.018040e+01    3.023354e+00
  1.019627e+01    2.980554e+00
  1.021215e+01    3.032411e+00
  1.022803e+01    3.000557e+00
  1.024390e+01    3.017237e+00
  1.025978e+01    3.090342e+00
  1.027565e+01    3.066987e+00
  1.029153e+01    3.078705e+00
  1.030740e+01    3.056540e+00
  1.032328e+01    3.034457e+00
  1.033915e+01    3.022991e+00
  1.035503e+01    3.003052e+00
  1.037091e+01    3.007269e+00
  1.038678e+01    3.019989e+00
  1.040266e+01    3.027497e+00
  1.041853e+01    3.022894e+00
  1.043441e+01    3.052341e+00
  1.045028e+01    3.001368e+00
  1.046616e+01    3.021231e+00
  1.048204e+01    3.046940e+00
  1.049791e+01    2.968686e+00
  1.051379e+01    2.966596e+00
  1.052966e+01    3.050852e+00
  1.054554e+01    3.021681e+00
  1.056141e+01    2.950305e+00
  1.057729e+01    2.952584e+00
  1.059316e+01    2.989256e+00
  1.060904e+01    2.974765e+00
  1.062492e+01    2.942163e+00
  1.064079e+01    2.986565e+00
  1.065667e+01    3.022473e+00
  1.067254e+01    3.019923e+00
  1.068842e+01    2.953185e+00
  1.070429e+01    2.966782e+00
  1.072017e+01    2.954561e+00
  1.073604e+01    2.941159e+00
  1.075192e+01    2.976617e+00
  1.076780e+01    2.936366e+00
  1.078367e+01    2.933627e+00
  1.079955e+01    2.970028e+00
  1.081542e+01    2.913670e+00
  1.083130e+01    2.910172e+00
  1.084717e+01    2.937247e+00
  1.086305e+01    2.951358e+00
  1.087892e+01    2.925980e+00
  1.089480e+01    2.891414e+00
  1.091068e+01    2.894416e+00
  1.092655e+01    2.911299e+00
  1.094243e+01    2.897030e+00
  1.095830e+01    2.868811e+00
  1.097418e+01    2.878933e+00
  1.099005e+01    2.947371e+00
  1.100593e+01    2.932741e+00
  1.102180e+01    2.853169e+00
  1.103768e+01    2.832675e+00
  1.105356e+01    2.921496e+00
  1.106943e+01    2.930379e+00
  1.108531e+01    2.886856e+00
  1.110118e+01    2.880761e+00
  1.111706e+01    2.902082e+00
  1.113293e+01    2.877713e+00
  1.114881e+01    2.874101e+00
  1.116468e+01    2.877448e+00
  1.118056e+01    2.885732e+00
  1.119644e+01    2.858514e+00
  1.121231e+01    2.801782e+00
  1.122819e+01    2.844647e+00
  1.124406e+01    2.823127e+00
  1.125994e+01    2.834747e+00
  1.127581e+01    2.882230e+00
  1.129169e+01    2.850978e+00
  1.130756e+01    2.803437e+00
  1.132344e+01    2.777346e+00
  1.133932e+01    2.804720e+00
  1.135519e+01    2.817061e+00
  1.137107e+01    2.814854e+00
  1.138694e+01    2.778256e+00
  1.140282e+01    2.839720e+00
  1.141869e+01    2.815876e+00
  1.143457e+01    2.737260e+00
  1.145045e+01    2.758939e+00
  1.146632e+01    2.805318e+00
  1.148220e+01    2.844753e+00
  1.149807e+01    2.803664e+00
  1.151395e+01    2.781271e+00
  1.152982e+01    2.767548e+00
  1.154570e+01    2.785331e+00
  1.156157e+01    2.788567e+00
  1.157745e+01    2.750484e+00
  1.159333e+01    2.746373e+00
  1.160920e+01    2.778943e+00
  1.162508e+01    2.722104e+00
  1.164095e+01    2.689102e+00
  1.165683e+01    2.709550e+00
  1.167270e+01    2.677260e+00
  1.168858e+01    2.707404e+00
  1.170445e+01    2.750881e+00
  1.172033e+01    2.747299e+00
  1.173621e+01    2.725441e+00
  1.175208e+01    2.729280e+00
  1.176796e+01    2.735502e+00
  1.178383e+01    2.741571e+00
  1.179971e+01    2.745315e+00
  1.181558e+01    2.685498e+00
  1.183146e+01    2.701670e+00
  1.184733e+01    2.702840e+00
  1.186321e+01    2.727417e+00
  1.187909e+01    2.735227e+00
  1.189496e+01    2.692961e+00
  1.191084e+01    2.687224e+00
  1.192671e+01    2.664144e+00
  1.194259e+01    2.655955e+00
  1.195846e+01    2.706685e+00
  1.197434e+01    2.704238e+00
  1.199021e+01    2.708863e+00
  1.200609e+01    2.666474e+00
  1.202197e+01    2.672345e+00
  1.203784e+01    2.649338e+00
  1.205372e+01    2.645598e+00
  1.206959e+01    2.641520e+00
  1.208547e+01    2.674811e+00
  1.210134e+01    2.687675e+00
  1.211722e+01    2.711631e+00
  1.213309e+01    2.681572e+00
  1.214897e+01    2.705039e+00
  1.216485e+01    2.697706e+00
  1.218072e+01    2.686367e+00
  1.219660e+01    2.704384e+00
  1.221247e+01    2.684163e+00
  1.222835e+01    2.696377e+00
  1.224422e+01    2.691127e+00
  1.226010e+01    2.713996e+00
  1.227597e+01    2.711612e+00
  1.229185e+01    2.691096e+00
  1.230773e+01    2.676970e+00
  1.232360e+01    2.709692e+00
  1.233948e+01    2.687217e+00
  1.235535e+01    2.741425e+00
  1.237123e+01    2.747588e+00
  1.238710e+01    2.714889e+00
  1.240298e+01    2.671399e+00
  1.241886e+01    2.696904e+00
  1.243473e+01    2.714734e+00
  1.245061e+01    2.679910e+00
  1.246648e+01    2.705912e+00
  1.248236e+01    2.729641e+00
  1.249823e+01    2.725154e+00
  1.251411e+01    2.701596e+00
  1.252998e+01    2.695659e+00
  1.254586e+01    2.676702e+00
  1.256174e+01    2.667728e+00
  1.257761e+01    2.677108e+00
  1.259349e+01    2.710347e+00
  1.260936e+01    2.766312e+00
  1.262524e+01    2.754078e+00
  1.264111e+01    2.745775e+00
  1.265699e+01    2.801632e+00
  1.267286e+01    2.819927e+00
  1.268874e+01    2.804414e+00
  1.270462e+01    2.863241e+00
  1.272049e+01    2.866471e+00
  1.273637e+01    2.834793e+00
  1.275224e+01    2.858046e+00
  1.276812e+01    2.942944e+00
  1.278399e+01    2.980574e+00
  1.279987e+01    2.993637e+00
  1.281574e+01    2.974411e+00
  1.283162e+01    3.085843e+00
  1.284750e+01    3.182079e+00
  1.286337e+01    3.255669e+00
  1.287925e+01    3.329231e+00
  1.289512e+01    3.506238e+00
  1.291100e+01    3.680138e+00
  1.292687e+01    3.863735e+00
  1.294275e+01    4.131514e+00
  1.295862e+01    4.428042e+00
  1.297450e+01    4.765811e+00
  1.299038e+01    5.293578e+00
  1.300625e+01    5.802016e+00
  1.302213e+01    6.669731e+00
  1.303800e+01    7.740914e+00
  1.305388e+01    8.817962e+00
  1.306975e+01    9.978256e+00
  1.308563e+01    1.130980e+01
  1.310150e+01    1.257801e+01
  1.311738e+01    1.370437e+01
  1.313326e+01    1.457796e+01
  1.314913e+01    1.542425e+01
  1.316501e+01    1.611134e+01
  1.318088e+01    1.630910e+01
  1.319676e+01    1.561784e+01
  1.321263e+01    1.428623e+01
  1.322851e+01    1.254802e+01
  1.324438e+01    1.067118e+01
  1.326026e+01    9.062434e+00
  1.327614e+01    7.715469e+00
  1.329201e+01    6.736277e+00
  1.330789e+01    5.958195e+00
  1.332376e+01    5.291673e+00
  1.333964e+01    4.798610e+00
  1.335551e+01    4.354840e+00
  1.337139e+01    4.075294e+00
  1.338727e+01    3.867841e+00
  1.340314e+01    3.657763e+00
  1.341902e+01    3.461863e+00
  1.343489e+01    3.318491e+00
  1.345077e+01    3.184894e+00
  1.346664e+01    3.146539e+00
  1.348252e+01    3.071220e+00
  1.349839e+01    2.901070e+00
  1.351427e+01    2.843739e+00
  1.353015e+01    2.822906e+00
  1.354602e+01    2.805779e+00
  1.356190e+01    2.759794e+00
  1.357777e+01    2.720053e+00
  1.359365e+01    2.663856e+00
  1.360952e+01    2.635403e+00
  1.362540e+01    2.608732e+00
  1.364127e+01    2.575592e+00
  1.365715e+01    2.603192e+00
  1.367303e+01    2.554085e+00
  1.368890e+01    2.537293e+00
  1.370478e+01    2.537267e+00
  1.372065e+01    2.506544e+00
  1.373653e+01    2.499430e+00
  1.375240e+01    2.503032e+00
  1.376828e+01    2.498181e+00
  1.378415e+01    2.542102e+00
  1.380003e+01    2.539720e+00
  1.381591e+01    2.480796e+00
  1.383178e+01    2.436366e+00
  1.384766e+01    2.407905e+00
  1.386353e+01    2.382885e+00
  1.387941e+01    2.423556e+00
  1.389528e+01    2.410008e+00
  1.391116e+01    2.429380e+00
  1.392703e+01    2.368405e+00
  1.394291e+01    2.348298e+00
  1.395879e+01    2.339488e+00
  1.397466e+01    2.337332e+00
  1.399054e+01    2.361661e+00
  1.400641e+01    2.331175e+00
  1.402229e+01    2.354456e+00
  1.403816e+01    2.367292e+00
  1.405404e+01    2.362118e+00
  1.406991e+01    2.365365e+00
  1.408579e+01    2.302650e+00
  1.410167e+01    2.295108e+00
  1.411754e+01    2.344133e+00
  1.413342e+01    2.364413e+00
  1.414929e+01    2.309703e+00
  1.416517e+01    2.261754e+00
  1.418104e+01    2.296753e+00
  1.419692e+01    2.314975e+00
  1.421279e+01    2.281600e+00
  1.422867e+01    2.283716e+00
  1.424455e+01    2.322251e+00
  1.426042e+01    2.279982e+00
  1.427630e+01    2.247273e+00
  1.429217e+01    2.258621e+00
  1.430805e+01    2.280278e+00
  1.432392e+01    2.259382e+00
  1.433980e+01    2.252585e+00
  1.435568e+01    2.212048e+00
  1.437155e+01    2.248651e+00
  1.438743e+01    2.216698e+00
  1.440330e+01    2.244941e+00
  1.441918e+01    2.239870e+00
  1.443505e+01    2.239259e+00
  1.445093e+01    2.202432e+00
  1.446680e+01    2.231253e+00
  1.448268e+01    2.239549e+00
  1.449856e+01    2.244503e+00
  1.451443e+01    2.244514e+00
  1.453031e+01    2.205979e+00
  1.454618e+01    2.235853e+00
  1.456206e+01    2.236602e+00
  1.457793e+01    2.232278e+00
  1.459381e+01    2.185785e+00
  1.460968e+01    2.191582e+00
  1.462556e+01    2.211552e+00
  1.464144e+01    2.189483e+00
  1.465731e+01    2.248059e+00
  1.467319e+01    2.214018e+00
  1.468906e+01    2.189388e+00
  1.470494e+01    2.179052e+00
  1.472081e+01    2.181986e+00
  1.473669e+01    2.148901e+00
  1.475256e+01    2.194760e+00
  1.476844e+01    2.189846e+00
  1.478432e+01    2.193929e+00
  1.480019e+01    2.212891e+00
  1.481607e+01    2.220157e+00
  1.483194e+01    2.206612e+00
  1.484782e+01    2.184283e+00
  1.486369e+01    2.207123e+00
  1.487957e+01    2.208251e+00
  1.489544e+01    2.199990e+00
  1.491132e+01    2.218807e+00
  1.492720e+01    2.244718e+00
  1.494307e+01    2.275432e+00
  1.495895e+01    2.283939e+00
  1.497482e+01    2.313155e+00
  1.499070e+01    2.369816e+00
  1.500657e+01    2.430406e+00
  1.502245e+01    2.515323e+00
  1.503832e+01    2.605288e+00
  1.505420e+01    2.704057e+00
  1.507008e+01    2.846716e+00
  1.508595e+01    3.030726e+00
  1.510183e+01    3.173537e+00
  1.511770e+01    3.452922e+00
  1.513358e+01    3.810758e+00
  1.514945e+01    4.149920e+00
  1.516533e+01    4.505124e+00
  1.518120e+01    4.883650e+00
  1.519708e+01    5.132270e+00
  1.521296e+01    5.401788e+00
  1.522883e+01    5.565214e+00
  1.524471e+01    5.609609e+00
  1.526058e+01    5.778964e+00
  1.527646e+01    5.751700e+00
  1.529233e+01    5.479122e+00
  1.530821e+01    5.096523e+00
  1.532409e+01    4.611466e+00
  1.533996e+01    4.153832e+00
  1.535584e+01    3.717779e+00
  1.537171e+01    3.424258e+00
  1.538759e+01    3.130599e+00
  1.540346e+01    2.891401e+00
  1.541934e+01    2.756290e+00
  1.543521e+01    2.622214e+00
  1.545109e+01    2.512514e+00
  1.546697e+01    2.417455e+00
  1.548284e+01    2.363316e+00
  1.549872e+01    2.266293e+00
  1.551459e+01    2.222747e+00
  1.553047e+01    2.198058e+00
  1.554634e+01    2.159342e+00
  1.556222e+01    2.135217e+00
  1.557809e+01    2.129750e+00
  1.559397e+01    2.084666e+00
  1.560985e+01    2.064607e+00
  1.562572e+01    2.090585e+00
  1.564160e+01    2.100495e+00
  1.565747e+01    2.043765e+00
  1.567335e+01    2.024173e+00
  1.568922e+01    2.029356e+00
  1.570510e+01    1.982838e+00
  1.572097e+01    2.000885e+00
  1.573685e+01    1.983013e+00
  1.575273e+01    1.981925e+00
  1.576860e+01    1.942544e+00
  1.578448e+01    1.956614e+00
  1.580035e+01    1.992916e+00
  1.581623e+01    1.939132e+00
  1.583210e+01    1.918446e+00
  1.584798e+01    1.903475e+00
  1.586385e+01    1.898432e+00
  1.587973e+01    1.885433e+00
  1.589561e+01    1.884328e+00
  1.591148e+01    1.897561e+00
  1.592736e+01    1.847138e+00
  1.594323e+01    1.873941e+00
  1.595911e+01    1.861123e+00
  1.597498e+01    1.881572e+00
  1.599086e+01    1.882400e+00
  1.600673e+01    1.861351e+00
  1.602261e+01    1.863895e+00
  1.603849e+01    1.845210e+00
  1.605436e+01    1.835176e+00
  1.607024e+01    1.831912e+00
  1.608611e+01    1.819595e+00
  1.610199e+01    1.826646e+00
  1.611786e+01    1.852606e+00
  1.613374e+01    1.868469e+00
  1.614961e+01    1.854292e+00
  1.616549e+01    1.806285e+00
  1.618137e+01    1.803228e+00
  1.619724e+01    1.810731e+00
  1.621312e+01    1.809152e+00
  1.622899e+01    1.823256e+00
  1.624487e+01    1.801482e+00
  1.626074e+01    1.766586e+00
  1.627662e+01    1.774570e+00
  1.629250e+01    1.783114e+00
  1.630837e+01    1.782919e+00
  1.632425e+01    1.818797e+00
  1.634012e+01    1.782937e+00
  1.635600e+01    1.770306e+00
  1.637187e+01    1.791373e+00
  1.638775e+01    1.807648e+00
  1.640362e+01    1.791689e+00
  1.641950e+01    1.759205e+00
  1.643538e+01    1.756617e+00
  1.645125e+01    1.767162e+00
  1.646713e+01    1.755428e+00
  1.648300e+01    1.749288e+00
  1.649888e+01    1.742198e+00
  1.651475e+01    1.753544e+00
  1.653063e+01    1.750681e+00
  1.654650e+01    1.776545e+00
  1.656238e+01    1.754760e+00
  1.657826e+01    1.768540e+00
  1.659413e+01    1.774677e+00
  1.661001e+01    1.741076e+00
  1.662588e+01    1.752532e+00
  1.664176e+01    1.716299e+00
  1.665763e+01    1.715956e+00
  1.667351e+01    1.740124e+00
  1.668938e+01    1.720659e+00
  1.670526e+01    1.709727e+00
  1.672114e+01    1.723389e+00
  1.673701e+01    1.723660e+00
  1.675289e+01    1.683671e+00
  1.676876e+01    1.680967e+00
  1.678464e+01    1.696263e+00
  1.680051e+01    1.667021e+00
  1.681639e+01    1.696820e+00
  1.683226e+01    1.675960e+00
  1.684814e+01    1.633022e+00
  1.686402e+01    1.671394e+00
  1.687989e+01    1.682122e+00
  1.689577e+01    1.698297e+00
  1.691164e+01    1.666103e+00
  1.692752e+01    1.681198e+00
  1.694339e+01    1.665467e+00
  1.695927e+01    1.653843e+00
  1.697514e+01    1.666841e+00
  1.699102e+01    1.648530e+00
  1.700690e+01    1.650176e+00
  1.702277e+01    1.666004e+00
  1.703865e+01    1.693275e+00
  1.705452e+01    1.651694e+00
  1.707040e+01    1.645740e+00
  1.708627e+01    1.638587e+00
  1.710215e+01    1.626892e+00
  1.711802e+01    1.676103e+00
  1.713390e+01    1.659548e+00
  1.714978e+01    1.637981e+00
  1.716565e+01    1.674427e+00
  1.718153e+01    1.646103e+00
  1.719740e+01    1.607703e+00
  1.721328e+01    1.589292e+00
  1.722915e+01    1.622649e+00
  1.724503e+01    1.643031e+00
  1.726091e+01    1.625076e+00
  1.727678e+01    1.607191e+00
  1.729266e+01    1.625390e+00
  1.730853e+01    1.605051e+00
  1.732441e+01    1.584084e+00
  1.734028e+01    1.580628e+00
  1.735616e+01    1.588216e+00
  1.737203e+01    1.595921e+00
  1.738791e+01    1.619757e+00
  1.740379e+01    1.585310e+00
  1.741966e+01    1.573166e+00
  1.743554e+01    1.597583e+00
  1.745141e+01    1.590807e+00
  1.746729e+01    1.601031e+00
  1.748316e+01    1.599406e+00
  1.749904e+01    1.598842e+00
  1.751491e+01    1.586038e+00
  1.753079e+01    1.555716e+00
  1.754667e+01    1.576563e+00
  1.756254e+01    1.595972e+00
  1.757842e+01    1.583697e+00
  1.759429e+01    1.563654e+00
  1.761017e+01    1.575082e+00
  1.762604e+01    1.562986e+00
  1.764192e+01    1.549073e+00
  1.765779e+01    1.537363e+00
  1.767367e+01    1.546799e+00
  1.768955e+01    1.548505e+00
  1.770542e+01    1.566554e+00
  1.772130e+01    1.564653e+00
  1.773717e+01    1.540265e+00
  1.775305e+01    1.538859e+00
  1.776892e+01    1.519775e+00
  1.778480e+01    1.527094e+00
  1.780067e+01    1.533144e+00
  1.781655e+01    1.544915e+00
  1.783243e+01    1.496355e+00
  1.784830e+01    1.499363e+00
  1.786418e+01    1.511021e+00
  1.788005e+01    1.525153e+00
  1.789593e+01    1.545668e+00
  1.791180e+01    1.555847e+00
  1.792768e+01    1.550213e+00
  1.794355e+01    1.534703e+00
  1.795943e+01    1.535487e+00
  1.797531e+01    1.496802e+00
  1.799118e+01    1.505684e+00
  1.800706e+01    1.515701e+00
  1.802293e+01    1.549439e+00
  1.803881e+01    1.502181e+00
  1.805468e+01    1.501746e+00
  1.807056e+01    1.498614e+00
  1.808643e+01    1.519709e+00
  1.810231e+01    1.461920e+00
  1.811819e+01    1.505479e+00
  1.813406e+01    1.511682e+00
  1.814994e+01    1.519920e+00
  1.816581e+01    1.506494e+00
  1.818169e+01    1.496973e+00
  1.819756e+01    1.460788e+00
  1.821344e+01    1.443241e+00
  1.822932e+01    1.476984e+00
  1.824519e+01    1.483809e+00
  1.826107e+01    1.449929e+00
  1.827694e+01    1.472386e+00
  1.829282e+01    1.461980e+00
  1.830869e+01    1.456007e+00
  1.832457e+01    1.471971e+00
  1.834044e+01    1.478781e+00
  1.835632e+01    1.481855e+00
  1.837220e+01    1.474251e+00
  1.838807e+01    1.447176e+00
  1.840395e+01    1.437575e+00
  1.841982e+01    1.472564e+00
  1.843570e+01    1.453141e+00
  1.845157e+01    1.436168e+00
  1.846745e+01    1.470932e+00
  1.848332e+01    1.442950e+00
  1.849920e+01    1.432703e+00
  1.851508e+01    1.442201e+00
  1.853095e+01    1.441567e+00
  1.854683e+01    1.452055e+00
  1.856270e+01    1.443239e+00
  1.857858e+01    1.435461e+00
  1.859445e+01    1.416629e+00
  1.861033e+01    1.421958e+00
  1.862620e+01    1.408991e+00
  1.864208e+01    1.411169e+00
  1.865796e+01    1.416803e+00
  1.867383e+01    1.397813e+00
  1.868971e+01    1.383397e+00
  1.870558e+01    1.402944e+00
  1.872146e+01    1.422289e+00
  1.873733e+01    1.426387e+00
  1.875321e+01    1.400732e+00
  1.876908e+01    1.402604e+00
  1.878496e+01    1.403125e+00
  1.880084e+01    1.407562e+00
  1.881671e+01    1.423231e+00
  1.883259e+01    1.413301e+00
  1.884846e+01    1.404658e+00
  1.886434e+01    1.401930e+00
  1.888021e+01    1.394649e+00
  1.889609e+01    1.371528e+00
  1.891196e+01    1.380736e+00
  1.892784e+01    1.397393e+00
  1.894372e+01    1.382191e+00
  1.895959e+01    1.388425e+00
  1.897547e+01    1.399895e+00
  1.899134e+01    1.407774e+00
  1.900722e+01    1.390500e+00
  1.902309e+01    1.384992e+00
  1.903897e+01    1.366932e+00
  1.905484e+01    1.352377e+00
  1.907072e+01    1.371402e+00
  1.908660e+01    1.371833e+00
  1.910247e+01    1.375177e+00
  1.911835e+01    1.375025e+00
  1.913422e+01    1.394507e+00
  1.915010e+01    1.385282e+00
  1.916597e+01    1.348265e+00
  1.918185e+01    1.360481e+00
  1.919773e+01    1.389014e+00
  1.921360e+01    1.370774e+00
  1.922948e+01    1.334105e+00
  1.924535e+01    1.364231e+00
  1.926123e+01    1.381577e+00
  1.927710e+01    1.363123e+00
  1.929298e+01    1.337104e+00
  1.930885e+01    1.346818e+00
  1.932473e+01    1.338901e+00
  1.934061e+01    1.352216e+00
  1.935648e+01    1.336030e+00
  1.937236e+01    1.348899e+00
  1.938823e+01    1.337761e+00
  1.940411e+01    1.324398e+00
  1.941998e+01    1.337499e+00
  1.943586e+01    1.333696e+00
  1.945173e+01    1.339723e+00
  1.946761e+01    1.335785e+00
  1.948349e+01    1.332370e+00
  1.949936e+01    1.326705e+00
  1.951524e+01    1.337422e+00
  1.953111e+01    1.352581e+00
  1.954699e+01    1.332519e+00
  1.956286e+01    1.316034e+00
  1.957874e+01    1.331168e+00
  1.959461e+01    1.336971e+00
  1.961049e+01    1.321236e+00
  1.962637e+01    1.327263e+00
  1.964224e+01    1.330568e+00
  1.965812e+01    1.334196e+00
  1.967399e+01    1.310976e+00
  1.968987e+01    1.305537e+00
  1.970574e+01    1.306574e+00
  1.972162e+01    1.302529e+00
  1.973749e+01    1.310554e+00
  1.975337e+01    1.302578e+00
  1.976925e+01    1.283460e+00
  1.978512e+01    1.304478e+00
  1.980100e+01    1.304088e+00
  1.981687e+01    1.294699e+00
  1.983275e+01    1.266796e+00
  1.984862e+01    1.286568e+00
  1.986450e+01    1.301060e+00
  1.988037e+01    1.285491e+00
  1.989625e+01    1.301601e+00
  1.991213e+01    1.290433e+00
  1.992800e+01    1.290987e+00
  1.994388e+01    1.267605e+00
  1.995975e+01    1.283405e+00
  1.997563e+01    1.277820e+00
  1.999150e+01    1.283373e+00
  2.000738e+01    1.278065e+00
  2.002325e+01    1.266059e+00
  2.003913e+01    1.281461e+00
  2.005501e+01    1.274848e+00
  2.007088e+01    1.263668e+00
  2.008676e+01    1.266736e+00
  2.010263e+01    1.265941e+00
  2.011851e+01    1.289688e+00
  2.013438e+01    1.306711e+00
  2.015026e+01    1.307788e+00
  2.016614e+01    1.272688e+00
  2.018201e+01    1.236467e+00
  2.019789e+01    1.258093e+00
  2.021376e+01    1.267010e+00
  2.022964e+01    1.261166e+00
  2.024551e+01    1.268489e+00
  2.026139e+01    1.266426e+00
  2.027726e+01    1.259128e+00
  2.029314e+01    1.240760e+00
  2.030902e+01    1.244768e+00
  2.032489e+01    1.259727e+00
  2.034077e+01    1.261692e+00
  2.035664e+01    1.257091e+00
  2.037252e+01    1.245031e+00
  2.038839e+01    1.244481e+00
  2.040427e+01    1.238832e+00
  2.042014e+01    1.256403e+00
  2.043602e+01    1.246249e+00
  2.045190e+01    1.240019e+00
  2.046777e+01    1.248912e+00
  2.048365e+01    1.235290e+00
  2.049952e+01    1.217609e+00
  2.051540e+01    1.231354e+00
  2.053127e+01    1.234094e+00
  2.054715e+01    1.221754e+00
  2.056302e+01    1.229799e+00
  2.057890e+01    1.224291e+00
  2.059478e+01    1.228836e+00
  2.061065e+01    1.248650e+00
  2.062653e+01    1.219661e+00
  2.064240e+01    1.209548e+00
  2.065828e+01    1.229661e+00
  2.067415e+01    1.252649e+00
  2.069003e+01    1.239610e+00
  2.070590e+01    1.212285e+00
  2.072178e+01    1.205985e+00
  2.073766e+01    1.206517e+00
  2.075353e+01    1.209584e+00
  2.076941e+01    1.197302e+00
  2.078528e+01    1.214341e+00
  2.080116e+01    1.214764e+00
  2.081703e+01    1.204368e+00
  2.083291e+01    1.215125e+00
  2.084878e+01    1.210428e+00
  2.086466e+01    1.197438e+00
  2.088054e+01    1.196388e+00
  2.089641e+01    1.213364e+00
  2.091229e+01    1.225048e+00
  2.092816e+01    1.228784e+00
  2.094404e+01    1.220809e+00
  2.095991e+01    1.191867e+00
  2.097579e+01    1.201640e+00
  2.099166e+01    1.237266e+00
  2.100754e+01    1.218219e+00
  2.102342e+01    1.221135e+00
  2.103929e+01    1.211320e+00
  2.105517e+01    1.220219e+00
  2.107104e+01    1.225932e+00
  2.108692e+01    1.217172e+00
  2.110279e+01    1.208941e+00
  2.111867e+01    1.209654e+00
  2.113455e+01    1.245964e+00
  2.115042e+01    1.244129e+00
  2.116630e+01    1.256205e+00
  2.118217e+01    1.258970e+00
  2.119805e+01    1.222453e+00
  2.121392e+01    1.231328e+00
  2.122980e+01    1.236172e+00
  2.124567e+01    1.240723e+00
  2.126155e+01    1.243488e+00
  2.127743e+01    1.250343e+00
  2.129330e+01    1.267671e+00
  2.130918e+01    1.265998e+00
  2.132505e+01    1.265056e+00
  2.134093e+01    1.272152e+00
  2.135680e+01    1.288878e+00
  2.137268e+01    1.309047e+00
  2.138855e+01    1.316819e+00
  2.140443e+01    1.304994e+00
  2.142031e+01    1.309854e+00
  2.143618e+01    1.353331e+00
  2.145206e+01    1.378295e+00
  2.146793e+01    1.364955e+00
  2.148381e+01    1.388969e+00
  2.149968e+01    1.417050e+00
  2.151556e+01    1.414573e+00
  2.153143e+01    1.445907e+00
  2.154731e+01    1.493669e+00
  2.156319e+01    1.557520e+00
  2.157906e+01    1.585208e+00
  2.159494e+01    1.648553e+00
  2.161081e+01    1.731005e+00
  2.162669e+01    1.847712e+00
  2.164256e+01    1.980359e+00
  2.165844e+01    2.074514e+00
  2.167431e+01    2.248930e+00
  2.169019e+01    2.490019e+00
  2.170607e+01    2.726508e+00
  2.172194e+01    3.075263e+00
  2.173782e+01    3.475982e+00
  2.175369e+01    3.972046e+00
  2.176957e+01    4.532514e+00
  2.178544e+01    5.119411e+00
  2.180132e+01    5.774943e+00
  2.181719e+01    6.425152e+00
  2.183307e+01    7.106001e+00
  2.184895e+01    7.708096e+00
  2.186482e+01    8.307091e+00
  2.188070e+01    8.638601e+00
  2.189657e+01    8.866974e+00
  2.191245e+01    8.721449e+00
  2.192832e+01    8.168379e+00
  2.194420e+01    7.482791e+00
  2.196007e+01    6.549348e+00
  2.197595e+01    5.638161e+00
  2.199183e+01    4.842677e+00
  2.200770e+01    4.163880e+00
  2.202358e+01    3.622303e+00
  2.203945e+01    3.204602e+00
  2.205533e+01    2.845136e+00
  2.207120e+01    2.572780e+00
  2.208708e+01    2.344752e+00
  2.210296e+01    2.159170e+00
  2.211883e+01    1.962779e+00
  2.213471e+01    1.842467e+00
  2.215058e+01    1.771391e+00
  2.216646e+01    1.674795e+00
  2.218233e+01    1.602339e+00
  2.219821e+01    1.523531e+00
  2.221408e+01    1.467713e+00
  2.222996e+01    1.453482e+00
  2.224584e+01    1.394369e+00
  2.226171e+01    1.386241e+00
  2.227759e+01    1.339798e+00
  2.229346e+01    1.326805e+00
  2.230934e+01    1.279982e+00
  2.232521e+01    1.261099e+00
  2.234109e+01    1.265183e+00
  2.235696e+01    1.235627e+00
  2.237284e+01    1.203497e+00
  2.238872e+01    1.177982e+00
  2.240459e+01    1.201166e+00
  2.242047e+01    1.191073e+00
  2.243634e+01    1.183237e+00
  2.245222e+01    1.178992e+00
  2.246809e+01    1.158844e+00
  2.248397e+01    1.150431e+00
  2.249984e+01    1.157483e+00
  2.251572e+01    1.141268e+00
  2.253160e+01    1.140023e+00
  2.254747e+01    1.132129e+00
  2.256335e+01    1.135700e+00
  2.257922e+01    1.110213e+00
  2.259510e+01    1.090729e+00
  2.261097e+01    1.074525e+00
  2.262685e+01    1.076630e+00
  2.264272e+01    1.097083e+00
  2.265860e+01    1.090776e+00
  2.267448e+01    1.082688e+00
  2.269035e+01    1.066775e+00
  2.270623e+01    1.090102e+00
  2.272210e+01    1.075033e+00
  2.273798e+01    1.064222e+00
  2.275385e+01    1.054714e+00
  2.276973e+01    1.044538e+00
  2.278560e+01    1.055074e+00
  2.280148e+01    1.050224e+00
  2.281736e+01    1.042347e+00
  2.283323e+01    1.046121e+00
  2.284911e+01    1.036121e+00
  2.286498e+01    1.059384e+00
  2.288086e+01    1.054830e+00
  2.289673e+01    1.049785e+00
  2.291261e+01    1.015681e+00
  2.292848e+01    1.026599e+00
  2.294436e+01    1.022842e+00
  2.296024e+01    1.033893e+00
  2.297611e+01    1.030620e+00
  2.299199e+01    1.027027e+00
  2.300786e+01    1.012509e+00
  2.302374e+01    1.012124e+00
  2.303961e+01    1.017151e+00
  2.305549e+01    9.869676e-01
  2.307137e+01    9.981819e-01
  2.308724e+01    9.859514e-01
  2.310312e+01    9.908336e-01
  2.311899e+01    1.009821e+00
  2.313487e+01    1.001740e+00
  2.315074e+01    1.001533e+00
  2.316662e+01    9.994872e-01
  2.318249e+01    1.023535e+00
  2.319837e+01    1.015924e+00
  2.321425e+01    9.982073e-01
  2.323012e+01    9.971035e-01
  2.324600e+01    9.837404e-01
  2.326187e+01    9.944255e-01
  2.327775e+01    1.001795e+00
  2.329362e+01    1.001167e+00
  2.330950e+01    9.823797e-01
  2.332537e+01    9.903417e-01
  2.334125e+01    9.769940e-01
  2.335713e+01    9.702731e-01
  2.337300e+01    9.733976e-01
  2.338888e+01    9.616550e-01
  2.340475e+01    9.634626e-01
  2.342063e+01    9.722067e-01
  2.343650e+01    9.569181e-01
  2.345238e+01    9.528183e-01
  2.346825e+01    9.585510e-01
  2.348413e+01    9.555400e-01
  2.350001e+01    9.623158e-01
  2.351588e+01    9.590025e-01
  2.353176e+01    9.606707e-01
  2.354763e+01    9.523570e-01
  2.356351e+01    9.544472e-01
  2.357938e+01    9.672061e-01
  2.359526e+01    9.549267e-01
  2.361113e+01    9.539371e-01
  2.362701e+01    9.644916e-01
  2.364289e+01    9.672613e-01
  2.365876e+01    9.315854e-01
  2.367464e+01    9.434378e-01
  2.369051e+01    9.343883e-01
  2.370639e+01    9.298625e-01
  2.372226e+01    9.437221e-01
  2.373814e+01    9.308401e-01
  2.375401e+01    9.294971e-01
  2.376989e+01    9.328558e-01
  2.378577e+01    9.320877e-01
  2.380164e+01    9.366114e-01
  2.381752e+01    9.215563e-01
  2.383339e+01    9.234592e-01
  2.384927e+01    9.178989e-01
  2.386514e+01    9.092491e-01
  2.388102e+01    9.256080e-01
  2.389689e+01    9.282075e-01
  2.391277e+01    9.280944e-01
  2.392865e+01    9.170140e-01
  2.394452e+01    9.138007e-01
  2.396040e+01    9.018828e-01
  2.397627e+01    8.904325e-01
  2.399215e+01    8.915129e-01
  2.400802e+01    8.879685e-01
  2.402390e+01    9.006619e-01
  2.403978e+01    8.997249e-01
  2.405565e+01    8.748850e-01
  2.407153e+01    8.451802e-01
  2.408740e+01    8.807125e-01
  2.410328e+01    9.222156e-01
  2.411915e+01    9.156468e-01
  2.413503e+01    8.857501e-01
  2.415090e+01    8.742497e-01
  2.416678e+01    8.840249e-01
  2.418266e+01    9.062530e-01
  2.419853e+01    8.804303e-01
  2.421441e+01    8.683956e-01
  2.423028e+01    8.582636e-01
  2.424616e+01    8.709326e-01
  2.426203e+01    8.821442e-01
  2.427791e+01    8.952052e-01
  2.429378e+01    8.814014e-01
  2.430966e+01    8.914210e-01
  2.432554e+01    8.924095e-01
  2.434141e+01    9.009396e-01
  2.435729e+01    8.912618e-01
  2.437316e+01    8.840920e-01
  2.438904e+01    9.058865e-01
  2.440491e+01    8.785900e-01
  2.442079e+01    8.791234e-01
  2.443666e+01    8.808465e-01
  2.445254e+01    8.773094e-01
  2.446842e+01    8.876330e-01
  2.448429e+01    8.781347e-01
  2.450017e+01    8.765984e-01
  2.451604e+01    8.788224e-01
  2.453192e+01    8.915544e-01
  2.454779e+01    8.798300e-01
  2.456367e+01    9.093893e-01
  2.457954e+01    9.006040e-01
  2.459542e+01    8.786857e-01
  2.461130e+01    8.846198e-01
  2.462717e+01    8.853663e-01
  2.464305e+01    8.810216e-01
  2.465892e+01    8.815804e-01
  2.467480e+01    8.820035e-01
  2.469067e+01    8.864507e-01
  2.470655e+01    8.901341e-01
  2.472242e+01    8.728522e-01
  2.473830e+01    9.063995e-01
  2.475418e+01    8.974401e-01
  2.477005e+01    8.854489e-01
  2.478593e+01    9.018943e-01
  2.480180e+01    8.919952e-01
  2.481768e+01    8.815391e-01
  2.483355e+01    8.726014e-01
  2.484943e+01    8.669058e-01
  2.486530e+01    8.988137e-01
  2.488118e+01    8.987925e-01
  2.489706e+01    8.919374e-01
  2.491293e+01    8.869261e-01
  2.492881e+01    8.987308e-01
  2.494468e+01    9.012311e-01
  2.496056e+01    8.639406e-01
  2.497643e+01    8.773296e-01
  2.499231e+01    8.876703e-01
  2.500819e+01    8.881610e-01
  2.502406e+01    9.149236e-01
  2.503994e+01    9.222087e-01
  2.505581e+01    8.955882e-01
  2.507169e+01    8.912532e-01
  2.508756e+01    8.969799e-01
  2.510344e+01    9.140071e-01
  2.511931e+01    9.200925e-01
  2.513519e+01    9.011371e-01
  2.515107e+01    9.050833e-01
  2.516694e+01    9.176921e-01
  2.518282e+01    9.160893e-01
  2.519869e+01    9.230676e-01
  2.521457e+01    9.403349e-01
  2.523044e+01    9.331154e-01
  2.524632e+01    9.498983e-01
  2.526219e+01    9.366558e-01
  2.527807e+01    9.398686e-01
  2.529395e+01    9.436700e-01
  2.530982e+01    9.504262e-01
  2.532570e+01    9.464255e-01
  2.534157e+01    9.683858e-01
  2.535745e+01    9.593540e-01
  2.537332e+01    9.850375e-01
  2.538920e+01    9.861885e-01
  2.540507e+01    9.817793e-01
  2.542095e+01    9.928943e-01
  2.543683e+01    1.001033e+00
  2.545270e+01    1.020214e+00
  2.546858e+01    1.014084e+00
  2.548445e+01    1.028540e+00
  2.550033e+01    1.051583e+00
  2.551620e+01    1.083436e+00
  2.553208e+01    1.097300e+00
  2.554795e+01    1.102671e+00
  2.556383e+01    1.138430e+00
  2.557971e+01    1.152837e+00
  2.559558e+01    1.182125e+00
  2.561146e+01    1.224393e+00
  2.562733e+01    1.257709e+00
  2.564321e+01    1.299804e+00
  2.565908e+01    1.355482e+00
  2.567496e+01    1.416291e+00
  2.569083e+01    1.508450e+00
  2.570671e+01    1.597692e+00
  2.572259e+01    1.694387e+00
  2.573846e+01    1.802523e+00
  2.575434e+01    1.952850e+00
  2.577021e+01    2.197550e+00
  2.578609e+01    2.460742e+00
  2.580196e+01    2.777087e+00
  2.581784e+01    3.122217e+00
  2.583371e+01    3.568802e+00
  2.584959e+01    4.104609e+00
  2.586547e+01    4.632887e+00
  2.588134e+01    5.217412e+00
  2.589722e+01    5.786452e+00
  2.591309e+01    6.284950e+00
  2.592897e+01    6.700800e+00
  2.594484e+01    6.998630e+00
  2.596072e+01    7.065848e+00
  2.597660e+01    6.934799e+00
  2.599247e+01    6.549506e+00
  2.600835e+01    5.966709e+00
  2.602422e+01    5.297792e+00
  2.604010e+01    4.532746e+00
  2.605597e+01    3.932617e+00
  2.607185e+01    3.411792e+00
  2.608772e+01    2.999353e+00
  2.610360e+01    2.634618e+00
  2.611948e+01    2.376014e+00
  2.613535e+01    2.128023e+00
  2.615123e+01    1.970876e+00
  2.616710e+01    1.803061e+00
  2.618298e+01    1.693964e+00
  2.619885e+01    1.589000e+00
  2.621473e+01    1.504632e+00
  2.623060e+01    1.394675e+00
  2.624648e+01    1.347998e+00
  2.626236e+01    1.276891e+00
  2.627823e+01    1.232544e+00
  2.629411e+01    1.205245e+00
  2.630998e+01    1.178156e+00
  2.632586e+01    1.139690e+00
  2.634173e+01    1.107355e+00
  2.635761e+01    1.088876e+00
  2.637348e+01    1.077784e+00
  2.638936e+01    1.070946e+00
  2.640524e+01    1.051376e+00
  2.642111e+01    1.030635e+00
  2.643699e+01    1.051097e+00
  2.645286e+01    1.021020e+00
  2.646874e+01    1.005416e+00
  2.648461e+01    1.006731e+00
  2.650049e+01    1.027172e+00
  2.651636e+01    1.016016e+00
  2.653224e+01    9.952180e-01
  2.654812e+01    9.763080e-01
  2.656399e+01    9.867646e-01
  2.657987e+01    9.751006e-01
  2.659574e+01    9.769225e-01
  2.661162e+01    9.921754e-01
  2.662749e+01    9.642692e-01
  2.664337e+01    9.785013e-01
  2.665924e+01    9.821989e-01
  2.667512e+01    9.805488e-01
  2.669100e+01    9.644180e-01
  2.670687e+01    9.664856e-01
  2.672275e+01    9.546010e-01
  2.673862e+01    9.635173e-01
  2.675450e+01    9.735611e-01
  2.677037e+01    9.732528e-01
  2.678625e+01    9.752379e-01
  2.680212e+01    9.476949e-01
  2.681800e+01    9.608258e-01
  2.683388e+01    9.834743e-01
  2.684975e+01    9.891157e-01
  2.686563e+01    9.801457e-01
  2.688150e+01    9.865297e-01
  2.689738e+01    1.012945e+00
  2.691325e+01    9.962530e-01
  2.692913e+01    9.961736e-01
  2.694501e+01    1.024706e+00
  2.696088e+01    1.047323e+00
  2.697676e+01    1.054187e+00
  2.699263e+01    1.075126e+00
  2.700851e+01    1.106894e+00
  2.702438e+01    1.136547e+00
  2.704026e+01    1.183470e+00
  2.705613e+01    1.237538e+00
  2.707201e+01    1.337304e+00
  2.708789e+01    1.410369e+00
  2.710376e+01    1.476031e+00
  2.711964e+01    1.590400e+00
  2.713551e+01    1.685937e+00
  2.715139e+01    1.814854e+00
  2.716726e+01    1.973871e+00
  2.718314e+01    2.092908e+00
  2.719901e+01    2.116094e+00
  2.721489e+01    2.151654e+00
  2.723077e+01    2.141440e+00
  2.724664e+01    2.068377e+00
  2.726252e+01    1.972595e+00
  2.727839e+01    1.830111e+00
  2.729427e+01    1.721475e+00
  2.731014e+01    1.591172e+00
  2.732602e+01    1.442875e+00
  2.734189e+01    1.336841e+00
  2.735777e+01    1.244496e+00
  2.737365e+01    1.213016e+00
  2.738952e+01    1.180763e+00
  2.740540e+01    1.132212e+00
  2.742127e+01    1.074286e+00
  2.743715e+01    1.034001e+00
  2.745302e+01    1.051226e+00
  2.746890e+01    1.011956e+00
  2.748477e+01    9.840087e-01
  2.750065e+01    9.815114e-01
  2.751653e+01    9.704261e-01
  2.753240e+01    9.469011e-01
  2.754828e+01    9.252572e-01
  2.756415e+01    9.277385e-01
  2.758003e+01    9.234552e-01
  2.759590e+01    9.091926e-01
  2.761178e+01    9.103197e-01
  2.762765e+01    9.364815e-01
  2.764353e+01    9.357198e-01
  2.765941e+01    9.187365e-01
  2.767528e+01    9.054145e-01
  2.769116e+01    8.767534e-01
  2.770703e+01    8.861073e-01
  2.772291e+01    8.834532e-01
  2.773878e+01    8.889982e-01
  2.775466e+01    8.986997e-01
  2.777054e+01    8.687330e-01
  2.778641e+01    8.831292e-01
  2.780229e+01    9.006616e-01
  2.781816e+01    8.877140e-01
  2.783404e+01    8.931742e-01
  2.784991e+01    8.693246e-01
  2.786579e+01    8.704385e-01
  2.788166e+01    8.761449e-01
  2.789754e+01    8.792478e-01
  2.791342e+01    8.710093e-01
  2.792929e+01    8.757326e-01
  2.794517e+01    8.785055e-01
  2.796104e+01    8.474368e-01
  2.797692e+01    8.466989e-01
  2.799279e+01    8.661562e-01
  2.800867e+01    8.650260e-01
  2.802454e+01    8.772807e-01
  2.804042e+01    8.624025e-01
  2.805630e+01    8.654411e-01
  2.807217e+01    8.461603e-01
  2.808805e+01    8.444406e-01
  2.810392e+01    8.610161e-01
  2.811980e+01    8.622246e-01
  2.813567e+01    8.537137e-01
  2.815155e+01    8.739806e-01
  2.816742e+01    8.478481e-01
  2.818330e+01    8.301628e-01
  2.819918e+01    8.501721e-01
  2.821505e+01    8.323858e-01
  2.823093e+01    8.453396e-01
  2.824680e+01    8.380615e-01
  2.826268e+01    8.381506e-01
  2.827855e+01    8.671504e-01
  2.829443e+01    8.490181e-01
  2.831030e+01    8.422979e-01
  2.832618e+01    8.533987e-01
  2.834206e+01    8.589945e-01
  2.835793e+01    8.517690e-01
  2.837381e+01    8.508720e-01
  2.838968e+01    8.324410e-01
  2.840556e+01    8.474534e-01
  2.842143e+01    8.473701e-01
  2.843731e+01    8.381494e-01
  2.845318e+01    8.179011e-01
  2.846906e+01    8.216465e-01
  2.848494e+01    8.406919e-01
  2.850081e+01    8.164975e-01
  2.851669e+01    8.368437e-01
  2.853256e+01    8.438749e-01
  2.854844e+01    8.383667e-01
  2.856431e+01    8.299019e-01
  2.858019e+01    8.312923e-01
  2.859606e+01    8.270710e-01
  2.861194e+01    8.309879e-01
  2.862782e+01    8.297395e-01
  2.864369e+01    8.100330e-01
  2.865957e+01    8.168135e-01
  2.867544e+01    8.407226e-01
  2.869132e+01    8.442255e-01
  2.870719e+01    8.271686e-01
  2.872307e+01    8.171933e-01
  2.873895e+01    8.087877e-01
  2.875482e+01    8.078215e-01
  2.877070e+01    8.206635e-01
  2.878657e+01    8.390290e-01
  2.880245e+01    8.197289e-01
  2.881832e+01    8.216077e-01
  2.883420e+01    8.296607e-01
  2.885007e+01    8.362087e-01
  2.886595e+01    8.161961e-01
  2.888183e+01    8.157371e-01
  2.889770e+01    8.251652e-01
  2.891358e+01    8.300447e-01
  2.892945e+01    8.113710e-01
  2.894533e+01    8.242966e-01
  2.896120e+01    8.258879e-01
  2.897708e+01    8.242155e-01
  2.899295e+01    8.102180e-01
  2.900883e+01    8.150126e-01
  2.902471e+01    8.423857e-01
  2.904058e+01    8.438581e-01
  2.905646e+01    8.175151e-01
  2.907233e+01    8.180407e-01
  2.908821e+01    8.427413e-01
  2.910408e+01    8.336744e-01
  2.911996e+01    8.405223e-01
  2.913583e+01    8.129773e-01
  2.915171e+01    8.062648e-01
  2.916759e+01    8.048180e-01
  2.918346e+01    8.045238e-01
  2.919934e+01    8.213763e-01
  2.921521e+01    8.125167e-01
  2.923109e+01    8.013493e-01
  2.924696e+01    8.006280e-01
  2.926284e+01    7.845189e-01
  2.927871e+01    7.899671e-01
  2.929459e+01    7.813989e-01
  2.931047e+01    7.836121e-01
  2.932634e+01    7.872570e-01
  2.934222e+01    7.995068e-01
  2.935809e+01    8.091683e-01
  2.937397e+01    8.312610e-01
  2.938984e+01    8.238432e-01
  2.940572e+01    8.112552e-01
  2.942159e+01    8.028143e-01
  2.943747e+01    8.117522e-01
  2.945335e+01    7.872977e-01
  2.946922e+01    8.076211e-01
  2.948510e+01    8.028426e-01
  2.950097e+01    8.106007e-01
  2.951685e+01    7.913035e-01
  2.953272e+01    7.892054e-01
  2.954860e+01    8.067124e-01
  2.956447e+01    8.234901e-01
  2.958035e+01    8.192649e-01
  2.959623e+01    7.864380e-01
  2.961210e+01    7.881097e-01
  2.962798e+01    8.087459e-01
  2.964385e+01    8.004198e-01
  2.965973e+01    7.844993e-01
  2.967560e+01    7.826018e-01
  2.969148e+01    8.302544e-01
  2.970736e+01    8.133953e-01
  2.972323e+01    7.979412e-01
  2.973911e+01    8.034146e-01
  2.975498e+01    7.930195e-01
  2.977086e+01    7.780402e-01
  2.978673e+01    7.795706e-01
  2.980261e+01    7.849790e-01
  2.981848e+01    7.887313e-01
  2.983436e+01    7.766042e-01
  2.985024e+01    7.977263e-01
  2.986611e+01    8.041896e-01
  2.988199e+01    7.836748e-01
  2.989786e+01    7.880853e-01
  2.991374e+01    7.849950e-01
  2.992961e+01    7.970340e-01
  2.994549e+01    8.025067e-01
  2.996136e+01    7.915346e-01
  2.997724e+01    7.820956e-01
  2.999312e+01    7.885674e-01
  3.000899e+01    8.098363e-01
  3.002487e+01    8.095939e-01
  3.004074e+01    8.290001e-01
  3.005662e+01    8.386660e-01
  3.007249e+01    8.039821e-01
  3.008837e+01    7.874923e-01
  3.010424e+01    8.102421e-01
  3.012012e+01    7.955364e-01
  3.013600e+01    7.857134e-01
  3.015187e+01    7.895266e-01
  3.016775e+01    7.942309e-01
  3.018362e+01    7.991816e-01
  3.019950e+01    7.723585e-01
  3.021537e+01    7.916592e-01
  3.023125e+01    7.875805e-01
  3.024712e+01    7.870520e-01
  3.026300e+01    8.060107e-01
  3.027888e+01    7.895558e-01
  3.029475e+01    7.873208e-01
  3.031063e+01    7.850077e-01
  3.032650e+01    7.954414e-01
  3.034238e+01    8.009185e-01
  3.035825e+01    7.705622e-01
  3.037413e+01    7.855033e-01
  3.039000e+01    7.900896e-01
  3.040588e+01    7.833995e-01
  3.042176e+01    8.006163e-01
  3.043763e+01    7.800304e-01
  3.045351e+01    7.942291e-01
  3.046938e+01    7.890166e-01
  3.048526e+01    7.942153e-01
  3.050113e+01    7.819659e-01
  3.051701e+01    7.923574e-01
  3.053288e+01    7.907153e-01
  3.054876e+01    7.761191e-01
  3.056464e+01    7.771875e-01
  3.058051e+01    7.973409e-01
  3.059639e+01    7.826604e-01
  3.061226e+01    7.787674e-01
  3.062814e+01    7.661679e-01
  3.064401e+01    7.716708e-01
  3.065989e+01    7.711580e-01
  3.067577e+01    7.628120e-01
  3.069164e+01    7.639090e-01
  3.070752e+01    7.644494e-01
  3.072339e+01    7.771753e-01
  3.073927e+01    7.677172e-01
  3.075514e+01    7.757419e-01
  3.077102e+01    7.841920e-01
  3.078689e+01    7.925539e-01
  3.080277e+01    7.947272e-01
  3.081865e+01    7.780601e-01
  3.083452e+01    7.809321e-01
  3.085040e+01    8.022048e-01
  3.086627e+01    7.817778e-01
  3.088215e+01    7.820376e-01
  3.089802e+01    7.830409e-01
  3.091390e+01    7.850983e-01
  3.092977e+01    7.707307e-01
  3.094565e+01    7.684966e-01
  3.096153e+01    7.938253e-01
  3.097740e+01    8.080216e-01
  3.099328e+01    7.945294e-01
  3.100915e+01    8.031243e-01
  3.102503e+01    7.606046e-01
  3.104090e+01    7.769250e-01
  3.105678e+01    7.679933e-01
  3.107265e+01    7.631298e-01
  3.108853e+01    7.938479e-01
  3.110441e+01    7.945731e-01
  3.112028e+01    8.029852e-01
  3.113616e+01    7.746321e-01
  3.115203e+01    7.763341e-01
  3.116791e+01    7.879335e-01
  3.118378e+01    7.804618e-01
  3.119966e+01    8.068942e-01
  3.121553e+01    7.958161e-01
  3.123141e+01    7.891245e-01
  3.124729e+01    8.033906e-01
  3.126316e+01    8.017676e-01
  3.127904e+01    8.082451e-01
  3.129491e+01    8.121707e-01
  3.131079e+01    7.971783e-01
  3.132666e+01    7.956617e-01
  3.134254e+01    7.740628e-01
  3.135841e+01    8.068045e-01
  3.137429e+01    8.312768e-01
  3.139017e+01    8.145257e-01
  3.140604e+01    7.881802e-01
  3.142192e+01    7.849996e-01
  3.143779e+01    8.045860e-01
  3.145367e+01    8.073195e-01
  3.146954e+01    7.962838e-01
  3.148542e+01    7.939577e-01
  3.150129e+01    8.181434e-01
  3.151717e+01    8.298874e-01
  3.153305e+01    8.359168e-01
  3.154892e+01    8.510553e-01
  3.156480e+01    8.204453e-01
  3.158067e+01    8.331571e-01
  3.159655e+01    8.658347e-01
  3.161242e+01    8.608962e-01
  3.162830e+01    9.066254e-01
  3.164418e+01    9.255794e-01
  3.166005e+01    9.402153e-01
  3.167593e+01    9.666436e-01
  3.169180e+01    9.718243e-01
  3.170768e+01    1.019968e+00
  3.172355e+01    1.045201e+00
  3.173943e+01    1.091356e+00
  3.175530e+01    1.182853e+00
  3.177118e+01    1.253616e+00
  3.178706e+01    1.326717e+00
  3.180293e+01    1.421449e+00
  3.181881e+01    1.570106e+00
  3.183468e+01    1.688900e+00
  3.185056e+01    1.830504e+00
  3.186643e+01    1.938323e+00
  3.188231e+01    2.004012e+00
  3.189818e+01    2.041178e+00
  3.191406e+01    2.085592e+00
  3.192994e+01    2.071384e+00
  3.194581e+01    1.924030e+00
  3.196169e+01    1.793144e+00
  3.197756e+01    1.655999e+00
  3.199344e+01    1.528576e+00
  3.200931e+01    1.415617e+00
  3.202519e+01    1.273450e+00
  3.204106e+01    1.213791e+00
  3.205694e+01    1.167659e+00
  3.207282e+01    1.120629e+00
  3.208869e+01    1.073370e+00
  3.210457e+01    9.979736e-01
  3.212044e+01    9.725441e-01
  3.213632e+01    9.545780e-01
  3.215219e+01    9.176824e-01
  3.216807e+01    9.082275e-01
  3.218394e+01    8.676518e-01
  3.219982e+01    8.713247e-01
  3.221570e+01    8.734759e-01
  3.223157e+01    8.572082e-01
  3.224745e+01    8.365367e-01
  3.226332e+01    8.502189e-01
  3.227920e+01    8.436438e-01
  3.229507e+01    7.971330e-01
  3.231095e+01    7.808287e-01
  3.232682e+01    7.919905e-01
  3.234270e+01    7.960218e-01
  3.235858e+01    7.961782e-01
  3.237445e+01    8.067929e-01
  3.239033e+01    7.957788e-01
  3.240620e+01    7.774560e-01
  3.242208e+01    7.732763e-01
  3.243795e+01    7.726339e-01
  3.245383e+01    7.874408e-01
  3.246970e+01    7.560003e-01
  3.248558e+01    7.648286e-01
  3.250146e+01    7.682800e-01
  3.251733e+01    7.776089e-01
  3.253321e+01    7.977257e-01
  3.254908e+01    7.829193e-01
