# == pyFAI calibration ==
# Distance Sample to Detector: 0.3999999939076516 m
# PONI: 9.750e-02, 1.135e-01 m
# Rotations: -0.000175 0.000000 -0.000000 rad
# 
# == Fit2d calibration ==
# Distance Sample-beamCenter: 400.000 mm
# Center: x=1514.000, y=1300.000 pix
# Tilt: 0.010 deg  TiltPlanRot: 0.010 deg
# 
# Detector Detector	 Spline= None	 PixelSize= 7.500e-05, 7.500e-05 m
#    Detector has a mask: False 
#    Detector has a dark current: False 
#    detector has a flat field: False 
# 
# Wavelength: 6.888e-11 m
# Mask applied: user provided
# Dark current applied: False
# Flat field applied: False
# Polarization factor: 0.99
# Normalization factor: 1.0
# --> /home/myspot/data/2024_07_Rosario/Ru-CGO-ex/2024-07-27_003_Ru-CGO-ex_Reaction_dwell_000023_data_000058.dat
#       q_nm^-1             I 
  2.003187e-02    3.843212e-01
  3.590745e-02    2.246525e-01
  5.178302e-02    2.308002e-01
  6.765859e-02    1.416303e-01
  8.353417e-02    9.355985e-02
  9.940974e-02    7.148316e-02
  1.152853e-01    1.177244e-01
  1.311609e-01    5.800159e-02
  1.470365e-01    6.953402e-02
  1.629120e-01    5.956003e-02
  1.787876e-01    4.807883e-02
  1.946632e-01    2.422179e-02
  2.105388e-01    4.768453e-02
  2.264143e-01    3.270752e-02
  2.422899e-01    7.358242e-03
  2.581655e-01    2.760300e-02
  2.740411e-01    4.378078e-02
  2.899166e-01    2.848217e-02
  3.057922e-01    2.588499e-02
  3.216678e-01    5.548808e-02
  3.375433e-01    5.307245e-02
  3.534189e-01    3.974402e-02
  3.692945e-01    1.707218e-02
  3.851701e-01    4.298986e-02
  4.010456e-01    3.810789e-02
  4.169212e-01    3.835520e-02
  4.327968e-01    5.001341e-02
  4.486724e-01    4.740031e-02
  4.645479e-01    3.582577e-02
  4.804235e-01    3.021715e-02
  4.962991e-01    2.847332e-02
  5.121747e-01    6.383745e-02
  5.280502e-01    7.766687e-02
  5.439258e-01    7.201958e-02
  5.598014e-01    5.200309e-02
  5.756770e-01    5.076485e-02
  5.915525e-01    4.879919e-02
  6.074281e-01    5.548276e-02
  6.233037e-01    2.735221e-02
  6.391793e-01    3.198907e-02
  6.550548e-01    2.594737e-02
  6.709304e-01    3.751669e-02
  6.868060e-01    5.474755e-02
  7.026815e-01    6.463028e-02
  7.185571e-01    6.915230e-02
  7.344327e-01    7.433673e-02
  7.503083e-01    5.930165e-02
  7.661838e-01    1.047352e-01
  7.820594e-01    9.652086e-02
  7.979350e-01    1.389293e-01
  8.138106e-01    2.386846e-01
  8.296861e-01    2.445702e-01
  8.455617e-01    2.986166e-01
  8.614373e-01    4.217517e-01
  8.773129e-01    5.162700e-01
  8.931884e-01    5.804912e-01
  9.090640e-01    6.966930e-01
  9.249396e-01    7.509868e-01
  9.408152e-01    8.170874e-01
  9.566907e-01    9.181650e-01
  9.725663e-01    9.101546e-01
  9.884419e-01    1.049443e+00
  1.004317e+00    1.202214e+00
  1.020193e+00    1.342335e+00
  1.036069e+00    1.360532e+00
  1.051944e+00    1.456123e+00
  1.067820e+00    1.595045e+00
  1.083695e+00    1.544508e+00
  1.099571e+00    1.560898e+00
  1.115446e+00    1.587341e+00
  1.131322e+00    1.564218e+00
  1.147198e+00    1.579983e+00
  1.163073e+00    1.705395e+00
  1.178949e+00    1.675624e+00
  1.194824e+00    1.728173e+00
  1.210700e+00    1.987129e+00
  1.226575e+00    2.184842e+00
  1.242451e+00    2.281999e+00
  1.258327e+00    2.379822e+00
  1.274202e+00    2.539978e+00
  1.290078e+00    2.567033e+00
  1.305953e+00    2.657318e+00
  1.321829e+00    2.730719e+00
  1.337705e+00    2.875048e+00
  1.353580e+00    2.810667e+00
  1.369456e+00    2.924820e+00
  1.385331e+00    2.807897e+00
  1.401207e+00    2.741452e+00
  1.417082e+00    2.919706e+00
  1.432958e+00    2.927415e+00
  1.448834e+00    2.943544e+00
  1.464709e+00    3.086447e+00
  1.480585e+00    2.877319e+00
  1.496460e+00    2.915971e+00
  1.512336e+00    3.085625e+00
  1.528211e+00    3.115748e+00
  1.544087e+00    3.122167e+00
  1.559963e+00    3.181262e+00
  1.575838e+00    3.160304e+00
  1.591714e+00    3.231777e+00
  1.607589e+00    3.198628e+00
  1.623465e+00    3.241583e+00
  1.639340e+00    3.239543e+00
  1.655216e+00    3.182694e+00
  1.671092e+00    3.080629e+00
  1.686967e+00    3.055459e+00
  1.702843e+00    3.112028e+00
  1.718718e+00    3.117103e+00
  1.734594e+00    3.198807e+00
  1.750469e+00    3.155215e+00
  1.766345e+00    3.118094e+00
  1.782221e+00    3.004416e+00
  1.798096e+00    3.169387e+00
  1.813972e+00    3.136698e+00
  1.829847e+00    3.070851e+00
  1.845723e+00    3.068349e+00
  1.861598e+00    3.125279e+00
  1.877474e+00    3.140562e+00
  1.893350e+00    3.080121e+00
  1.909225e+00    3.065120e+00
  1.925101e+00    3.085141e+00
  1.940976e+00    3.000676e+00
  1.956852e+00    3.097056e+00
  1.972727e+00    3.091192e+00
  1.988603e+00    3.024343e+00
  2.004479e+00    3.047758e+00
  2.020354e+00    3.110756e+00
  2.036230e+00    3.129922e+00
  2.052105e+00    3.191018e+00
  2.067981e+00    3.130512e+00
  2.083856e+00    3.086824e+00
  2.099732e+00    3.083835e+00
  2.115608e+00    3.196296e+00
  2.131483e+00    3.175777e+00
  2.147359e+00    3.121744e+00
  2.163234e+00    3.009328e+00
  2.179110e+00    3.135981e+00
  2.194985e+00    3.208797e+00
  2.210861e+00    3.125780e+00
  2.226737e+00    3.172097e+00
  2.242612e+00    3.110492e+00
  2.258488e+00    3.051906e+00
  2.274363e+00    3.088665e+00
  2.290239e+00    3.187329e+00
  2.306115e+00    3.143311e+00
  2.321990e+00    3.111363e+00
  2.337866e+00    3.155219e+00
  2.353741e+00    3.079356e+00
  2.369617e+00    3.040483e+00
  2.385492e+00    3.065559e+00
  2.401368e+00    3.137032e+00
  2.417244e+00    3.225698e+00
  2.433119e+00    3.196205e+00
  2.448995e+00    3.155303e+00
  2.464870e+00    3.252529e+00
  2.480746e+00    3.217615e+00
  2.496621e+00    3.201100e+00
  2.512497e+00    3.198436e+00
  2.528373e+00    3.191414e+00
  2.544248e+00    3.187456e+00
  2.560124e+00    3.141081e+00
  2.575999e+00    3.201972e+00
  2.591875e+00    3.192066e+00
  2.607750e+00    3.239140e+00
  2.623626e+00    3.362507e+00
  2.639502e+00    3.264038e+00
  2.655377e+00    3.158097e+00
  2.671253e+00    3.200590e+00
  2.687128e+00    3.323905e+00
  2.703004e+00    3.221734e+00
  2.718879e+00    3.167355e+00
  2.734755e+00    3.277237e+00
  2.750631e+00    3.354187e+00
  2.766506e+00    3.257019e+00
  2.782382e+00    3.266330e+00
  2.798257e+00    3.342162e+00
  2.814133e+00    3.342181e+00
  2.830008e+00    3.332161e+00
  2.845884e+00    3.422255e+00
  2.861760e+00    3.255832e+00
  2.877635e+00    3.120628e+00
  2.893511e+00    3.203596e+00
  2.909386e+00    3.370017e+00
  2.925262e+00    3.403137e+00
  2.941137e+00    3.359615e+00
  2.957013e+00    3.269712e+00
  2.972889e+00    3.258749e+00
  2.988764e+00    3.291103e+00
  3.004640e+00    3.264563e+00
  3.020515e+00    3.289548e+00
  3.036391e+00    3.291274e+00
  3.052266e+00    3.348293e+00
  3.068142e+00    3.425457e+00
  3.084018e+00    3.492347e+00
  3.099893e+00    3.418492e+00
  3.115769e+00    3.378285e+00
  3.131644e+00    3.380991e+00
  3.147520e+00    3.290064e+00
  3.163395e+00    3.382849e+00
  3.179271e+00    3.384401e+00
  3.195147e+00    3.323331e+00
  3.211022e+00    3.478051e+00
  3.226898e+00    3.492412e+00
  3.242773e+00    3.363599e+00
  3.258649e+00    3.365982e+00
  3.274525e+00    3.337260e+00
  3.290400e+00    3.350373e+00
  3.306276e+00    3.268155e+00
  3.322151e+00    3.359282e+00
  3.338027e+00    3.413241e+00
  3.353902e+00    3.415075e+00
  3.369778e+00    3.441660e+00
  3.385654e+00    3.463938e+00
  3.401529e+00    3.435947e+00
  3.417405e+00    3.429284e+00
  3.433280e+00    3.497463e+00
  3.449156e+00    3.544018e+00
  3.465031e+00    3.480228e+00
  3.480907e+00    3.473942e+00
  3.496783e+00    3.454515e+00
  3.512658e+00    3.479689e+00
  3.528534e+00    3.469582e+00
  3.544409e+00    3.510967e+00
  3.560285e+00    3.586698e+00
  3.576160e+00    3.508427e+00
  3.592036e+00    3.487917e+00
  3.607912e+00    3.480586e+00
  3.623787e+00    3.466900e+00
  3.639663e+00    3.458174e+00
  3.655538e+00    3.505713e+00
  3.671414e+00    3.487264e+00
  3.687289e+00    3.544126e+00
  3.703165e+00    3.566877e+00
  3.719041e+00    3.558915e+00
  3.734916e+00    3.543494e+00
  3.750792e+00    3.464018e+00
  3.766667e+00    3.390891e+00
  3.782543e+00    3.400483e+00
  3.798418e+00    3.426421e+00
  3.814294e+00    3.504765e+00
  3.830170e+00    3.541984e+00
  3.846045e+00    3.508936e+00
  3.861921e+00    3.555622e+00
  3.877796e+00    3.641701e+00
  3.893672e+00    3.585658e+00
  3.909547e+00    3.541638e+00
  3.925423e+00    3.494299e+00
  3.941299e+00    3.537661e+00
  3.957174e+00    3.528088e+00
  3.973050e+00    3.562530e+00
  3.988925e+00    3.520203e+00
  4.004801e+00    3.430718e+00
  4.020676e+00    3.512119e+00
  4.036552e+00    3.580177e+00
  4.052428e+00    3.560283e+00
  4.068303e+00    3.490081e+00
  4.084179e+00    3.482931e+00
  4.100054e+00    3.545915e+00
  4.115930e+00    3.610464e+00
  4.131806e+00    3.588939e+00
  4.147681e+00    3.599765e+00
  4.163557e+00    3.520217e+00
  4.179432e+00    3.534312e+00
  4.195308e+00    3.488433e+00
  4.211183e+00    3.564877e+00
  4.227059e+00    3.579805e+00
  4.242935e+00    3.600092e+00
  4.258810e+00    3.609996e+00
  4.274686e+00    3.508396e+00
  4.290561e+00    3.504624e+00
  4.306437e+00    3.465333e+00
  4.322312e+00    3.512664e+00
  4.338188e+00    3.560030e+00
  4.354064e+00    3.554074e+00
  4.369939e+00    3.627833e+00
  4.385815e+00    3.629250e+00
  4.401690e+00    3.563802e+00
  4.417566e+00    3.644816e+00
  4.433441e+00    3.608741e+00
  4.449317e+00    3.615619e+00
  4.465193e+00    3.591648e+00
  4.481068e+00    3.533407e+00
  4.496944e+00    3.522005e+00
  4.512819e+00    3.570637e+00
  4.528695e+00    3.571609e+00
  4.544570e+00    3.572792e+00
  4.560446e+00    3.548599e+00
  4.576322e+00    3.547210e+00
  4.592197e+00    3.582765e+00
  4.608073e+00    3.703049e+00
  4.623948e+00    3.669455e+00
  4.639824e+00    3.719874e+00
  4.655699e+00    3.684573e+00
  4.671575e+00    3.693423e+00
  4.687451e+00    3.708784e+00
  4.703326e+00    3.600758e+00
  4.719202e+00    3.596545e+00
  4.735077e+00    3.686320e+00
  4.750953e+00    3.642524e+00
  4.766828e+00    3.481452e+00
  4.782704e+00    3.529980e+00
  4.798580e+00    3.605395e+00
  4.814455e+00    3.613786e+00
  4.830331e+00    3.618034e+00
  4.846206e+00    3.668936e+00
  4.862082e+00    3.638923e+00
  4.877957e+00    3.634354e+00
  4.893833e+00    3.710990e+00
  4.909709e+00    3.754449e+00
  4.925584e+00    3.648184e+00
  4.941460e+00    3.608292e+00
  4.957335e+00    3.674695e+00
  4.973211e+00    3.660562e+00
  4.989086e+00    3.604126e+00
  5.004962e+00    3.657708e+00
  5.020838e+00    3.676720e+00
  5.036713e+00    3.616835e+00
  5.052589e+00    3.667605e+00
  5.068464e+00    3.640635e+00
  5.084340e+00    3.671000e+00
  5.100216e+00    3.665116e+00
  5.116091e+00    3.617450e+00
  5.131967e+00    3.609731e+00
  5.147842e+00    3.620129e+00
  5.163718e+00    3.625753e+00
  5.179593e+00    3.652885e+00
  5.195469e+00    3.613226e+00
  5.211345e+00    3.616997e+00
  5.227220e+00    3.593160e+00
  5.243096e+00    3.653995e+00
  5.258971e+00    3.709297e+00
  5.274847e+00    3.644649e+00
  5.290722e+00    3.670876e+00
  5.306598e+00    3.706271e+00
  5.322474e+00    3.706858e+00
  5.338349e+00    3.668395e+00
  5.354225e+00    3.651612e+00
  5.370100e+00    3.579345e+00
  5.385976e+00    3.688700e+00
  5.401851e+00    3.714003e+00
  5.417727e+00    3.643204e+00
  5.433603e+00    3.563533e+00
  5.449478e+00    3.549298e+00
  5.465354e+00    3.608198e+00
  5.481229e+00    3.604564e+00
  5.497105e+00    3.647949e+00
  5.512980e+00    3.573411e+00
  5.528856e+00    3.621760e+00
  5.544732e+00    3.682558e+00
  5.560607e+00    3.617652e+00
  5.576483e+00    3.702570e+00
  5.592358e+00    3.668541e+00
  5.608234e+00    3.611073e+00
  5.624109e+00    3.591763e+00
  5.639985e+00    3.637053e+00
  5.655861e+00    3.588089e+00
  5.671736e+00    3.672567e+00
  5.687612e+00    3.605835e+00
  5.703487e+00    3.517715e+00
  5.719363e+00    3.504935e+00
  5.735238e+00    3.516805e+00
  5.751114e+00    3.586135e+00
  5.766990e+00    3.590545e+00
  5.782865e+00    3.546890e+00
  5.798741e+00    3.571451e+00
  5.814616e+00    3.548513e+00
  5.830492e+00    3.565240e+00
  5.846367e+00    3.564366e+00
  5.862243e+00    3.564044e+00
  5.878119e+00    3.580480e+00
  5.893994e+00    3.600434e+00
  5.909870e+00    3.573209e+00
  5.925745e+00    3.594520e+00
  5.941621e+00    3.610510e+00
  5.957497e+00    3.567718e+00
  5.973372e+00    3.576942e+00
  5.989248e+00    3.513820e+00
  6.005123e+00    3.461876e+00
  6.020999e+00    3.524679e+00
  6.036874e+00    3.573684e+00
  6.052750e+00    3.530887e+00
  6.068626e+00    3.510593e+00
  6.084501e+00    3.572204e+00
  6.100377e+00    3.657832e+00
  6.116252e+00    3.678109e+00
  6.132128e+00    3.649360e+00
  6.148003e+00    3.638159e+00
  6.163879e+00    3.661154e+00
  6.179755e+00    3.593447e+00
  6.195630e+00    3.585084e+00
  6.211506e+00    3.637455e+00
  6.227381e+00    3.633670e+00
  6.243257e+00    3.607041e+00
  6.259132e+00    3.602807e+00
  6.275008e+00    3.609221e+00
  6.290884e+00    3.695510e+00
  6.306759e+00    3.629216e+00
  6.322635e+00    3.631580e+00
  6.338510e+00    3.646903e+00
  6.354386e+00    3.595336e+00
  6.370261e+00    3.578331e+00
  6.386137e+00    3.668669e+00
  6.402013e+00    3.623307e+00
  6.417888e+00    3.600284e+00
  6.433764e+00    3.557660e+00
  6.449639e+00    3.493193e+00
  6.465515e+00    3.518059e+00
  6.481390e+00    3.575210e+00
  6.497266e+00    3.676415e+00
  6.513142e+00    3.606185e+00
  6.529017e+00    3.602520e+00
  6.544893e+00    3.587687e+00
  6.560768e+00    3.597568e+00
  6.576644e+00    3.516295e+00
  6.592519e+00    3.521527e+00
  6.608395e+00    3.547105e+00
  6.624271e+00    3.543672e+00
  6.640146e+00    3.643075e+00
  6.656022e+00    3.577222e+00
  6.671897e+00    3.477245e+00
  6.687773e+00    3.556630e+00
  6.703648e+00    3.564833e+00
  6.719524e+00    3.616053e+00
  6.735400e+00    3.585237e+00
  6.751275e+00    3.570646e+00
  6.767151e+00    3.539020e+00
  6.783026e+00    3.564281e+00
  6.798902e+00    3.584491e+00
  6.814777e+00    3.563415e+00
  6.830653e+00    3.511765e+00
  6.846529e+00    3.478384e+00
  6.862404e+00    3.529264e+00
  6.878280e+00    3.527402e+00
  6.894155e+00    3.545249e+00
  6.910031e+00    3.554633e+00
  6.925907e+00    3.567289e+00
  6.941782e+00    3.623146e+00
  6.957658e+00    3.518112e+00
  6.973533e+00    3.466603e+00
  6.989409e+00    3.545079e+00
  7.005284e+00    3.508909e+00
  7.021160e+00    3.474640e+00
  7.037036e+00    3.576756e+00
  7.052911e+00    3.604655e+00
  7.068787e+00    3.600757e+00
  7.084662e+00    3.552830e+00
  7.100538e+00    3.462484e+00
  7.116413e+00    3.502029e+00
  7.132289e+00    3.490370e+00
  7.148165e+00    3.463307e+00
  7.164040e+00    3.538603e+00
  7.179916e+00    3.579374e+00
  7.195791e+00    3.505197e+00
  7.211667e+00    3.536101e+00
  7.227542e+00    3.455627e+00
  7.243418e+00    3.497020e+00
  7.259294e+00    3.438865e+00
  7.275169e+00    3.461383e+00
  7.291045e+00    3.484723e+00
  7.306920e+00    3.458348e+00
  7.322796e+00    3.471398e+00
  7.338671e+00    3.518494e+00
  7.354547e+00    3.508346e+00
  7.370423e+00    3.501324e+00
  7.386298e+00    3.581340e+00
  7.402174e+00    3.550195e+00
  7.418049e+00    3.491396e+00
  7.433925e+00    3.539254e+00
  7.449800e+00    3.566688e+00
  7.465676e+00    3.490726e+00
  7.481552e+00    3.517554e+00
  7.497427e+00    3.525747e+00
  7.513303e+00    3.537071e+00
  7.529178e+00    3.525714e+00
  7.545054e+00    3.499870e+00
  7.560929e+00    3.554927e+00
  7.576805e+00    3.579800e+00
  7.592681e+00    3.430974e+00
  7.608556e+00    3.504324e+00
  7.624432e+00    3.422540e+00
  7.640307e+00    3.398591e+00
  7.656183e+00    3.472511e+00
  7.672058e+00    3.437404e+00
  7.687934e+00    3.520995e+00
  7.703810e+00    3.440399e+00
  7.719685e+00    3.454694e+00
  7.735561e+00    3.460915e+00
  7.751436e+00    3.465900e+00
  7.767312e+00    3.513272e+00
  7.783187e+00    3.479453e+00
  7.799063e+00    3.440165e+00
  7.814939e+00    3.392584e+00
  7.830814e+00    3.380785e+00
  7.846690e+00    3.450283e+00
  7.862565e+00    3.501293e+00
  7.878441e+00    3.449083e+00
  7.894317e+00    3.418887e+00
  7.910192e+00    3.491846e+00
  7.926068e+00    3.460902e+00
  7.941943e+00    3.443330e+00
  7.957819e+00    3.442556e+00
  7.973694e+00    3.483308e+00
  7.989570e+00    3.429230e+00
  8.005446e+00    3.437398e+00
  8.021321e+00    3.475565e+00
  8.037197e+00    3.436713e+00
  8.053072e+00    3.379829e+00
  8.068948e+00    3.475239e+00
  8.084823e+00    3.460563e+00
  8.100699e+00    3.414673e+00
  8.116575e+00    3.435101e+00
  8.132450e+00    3.448627e+00
  8.148326e+00    3.412522e+00
  8.164201e+00    3.482547e+00
  8.180077e+00    3.485518e+00
  8.195952e+00    3.490072e+00
  8.211828e+00    3.506619e+00
  8.227704e+00    3.526261e+00
  8.243579e+00    3.577015e+00
  8.259455e+00    3.462034e+00
  8.275330e+00    3.477665e+00
  8.291206e+00    3.461513e+00
  8.307081e+00    3.440547e+00
  8.322957e+00    3.404903e+00
  8.338833e+00    3.415189e+00
  8.354708e+00    3.400374e+00
  8.370584e+00    3.425602e+00
  8.386459e+00    3.425045e+00
  8.402335e+00    3.397538e+00
  8.418210e+00    3.409915e+00
  8.434086e+00    3.387786e+00
  8.449962e+00    3.387012e+00
  8.465837e+00    3.445571e+00
  8.481713e+00    3.397840e+00
  8.497588e+00    3.394443e+00
  8.513464e+00    3.403625e+00
  8.529339e+00    3.358564e+00
  8.545215e+00    3.409608e+00
  8.561091e+00    3.436453e+00
  8.576966e+00    3.402006e+00
  8.592842e+00    3.428094e+00
  8.608717e+00    3.425120e+00
  8.624593e+00    3.405936e+00
  8.640468e+00    3.386202e+00
  8.656344e+00    3.438802e+00
  8.672220e+00    3.366045e+00
  8.688095e+00    3.336874e+00
  8.703971e+00    3.365760e+00
  8.719846e+00    3.320242e+00
  8.735722e+00    3.282124e+00
  8.751598e+00    3.256338e+00
  8.767473e+00    3.295882e+00
  8.783349e+00    3.429150e+00
  8.799224e+00    3.346451e+00
  8.815100e+00    3.393412e+00
  8.830975e+00    3.340090e+00
  8.846851e+00    3.344373e+00
  8.862727e+00    3.361791e+00
  8.878602e+00    3.307500e+00
  8.894478e+00    3.274665e+00
  8.910353e+00    3.272728e+00
  8.926229e+00    3.324708e+00
  8.942104e+00    3.298248e+00
  8.957980e+00    3.307302e+00
  8.973856e+00    3.276285e+00
  8.989731e+00    3.315558e+00
  9.005607e+00    3.324911e+00
  9.021482e+00    3.316122e+00
  9.037358e+00    3.266672e+00
  9.053233e+00    3.309842e+00
  9.069109e+00    3.322265e+00
  9.084985e+00    3.282958e+00
  9.100860e+00    3.265058e+00
  9.116736e+00    3.273880e+00
  9.132611e+00    3.249398e+00
  9.148487e+00    3.278427e+00
  9.164362e+00    3.289308e+00
  9.180238e+00    3.300207e+00
  9.196114e+00    3.337067e+00
  9.211989e+00    3.286601e+00
  9.227865e+00    3.275435e+00
  9.243740e+00    3.231339e+00
  9.259616e+00    3.252039e+00
  9.275491e+00    3.237985e+00
  9.291367e+00    3.283700e+00
  9.307243e+00    3.284168e+00
  9.323118e+00    3.241481e+00
  9.338994e+00    3.241282e+00
  9.354869e+00    3.302850e+00
  9.370745e+00    3.292796e+00
  9.386620e+00    3.265335e+00
  9.402496e+00    3.194158e+00
  9.418372e+00    3.148527e+00
  9.434247e+00    3.212919e+00
  9.450123e+00    3.234337e+00
  9.465998e+00    3.210714e+00
  9.481874e+00    3.228237e+00
  9.497749e+00    3.262424e+00
  9.513625e+00    3.329185e+00
  9.529501e+00    3.262797e+00
  9.545376e+00    3.210722e+00
  9.561252e+00    3.202550e+00
  9.577127e+00    3.241601e+00
  9.593003e+00    3.245147e+00
  9.608878e+00    3.254022e+00
  9.624754e+00    3.221992e+00
  9.640630e+00    3.233326e+00
  9.656505e+00    3.262516e+00
  9.672381e+00    3.238804e+00
  9.688256e+00    3.181184e+00
  9.704132e+00    3.129686e+00
  9.720008e+00    3.136961e+00
  9.735883e+00    3.139505e+00
  9.751759e+00    3.122380e+00
  9.767634e+00    3.160681e+00
  9.783510e+00    3.115878e+00
  9.799385e+00    3.175236e+00
  9.815261e+00    3.201031e+00
  9.831137e+00    3.173621e+00
  9.847012e+00    3.218055e+00
  9.862888e+00    3.193830e+00
  9.878763e+00    3.160468e+00
  9.894639e+00    3.188040e+00
  9.910514e+00    3.125581e+00
  9.926390e+00    3.095480e+00
  9.942266e+00    3.195902e+00
  9.958141e+00    3.165520e+00
  9.974017e+00    3.115472e+00
  9.989892e+00    3.102549e+00
  1.000577e+01    3.090302e+00
  1.002164e+01    3.101694e+00
  1.003752e+01    3.092304e+00
  1.005339e+01    3.133054e+00
  1.006927e+01    3.186007e+00
  1.008515e+01    3.119595e+00
  1.010102e+01    3.092570e+00
  1.011690e+01    3.150373e+00
  1.013277e+01    3.175207e+00
  1.014865e+01    3.074900e+00
  1.016452e+01    3.056144e+00
  1.018040e+01    3.084998e+00
  1.019627e+01    3.064773e+00
  1.021215e+01    3.078648e+00
  1.022803e+01    3.093735e+00
  1.024390e+01    3.096143e+00
  1.025978e+01    3.061686e+00
  1.027565e+01    3.112824e+00
  1.029153e+01    3.104652e+00
  1.030740e+01    3.067692e+00
  1.032328e+01    2.963006e+00
  1.033915e+01    2.965657e+00
  1.035503e+01    3.013544e+00
  1.037091e+01    3.072456e+00
  1.038678e+01    3.043888e+00
  1.040266e+01    3.082749e+00
  1.041853e+01    3.094163e+00
  1.043441e+01    3.074847e+00
  1.045028e+01    3.074492e+00
  1.046616e+01    3.083278e+00
  1.048204e+01    3.038058e+00
  1.049791e+01    3.027037e+00
  1.051379e+01    3.066990e+00
  1.052966e+01    3.070476e+00
  1.054554e+01    3.017216e+00
  1.056141e+01    3.033259e+00
  1.057729e+01    3.061344e+00
  1.059316e+01    2.983186e+00
  1.060904e+01    2.981787e+00
  1.062492e+01    3.011176e+00
  1.064079e+01    3.010537e+00
  1.065667e+01    2.995120e+00
  1.067254e+01    2.972712e+00
  1.068842e+01    2.956227e+00
  1.070429e+01    2.975023e+00
  1.072017e+01    2.975044e+00
  1.073604e+01    2.970433e+00
  1.075192e+01    2.971377e+00
  1.076780e+01    2.999864e+00
  1.078367e+01    2.970253e+00
  1.079955e+01    2.912546e+00
  1.081542e+01    2.927204e+00
  1.083130e+01    2.966202e+00
  1.084717e+01    2.951094e+00
  1.086305e+01    2.974129e+00
  1.087892e+01    2.971212e+00
  1.089480e+01    2.917971e+00
  1.091068e+01    2.942062e+00
  1.092655e+01    2.951810e+00
  1.094243e+01    2.956120e+00
  1.095830e+01    2.937851e+00
  1.097418e+01    2.933699e+00
  1.099005e+01    2.880091e+00
  1.100593e+01    2.895732e+00
  1.102180e+01    2.913265e+00
  1.103768e+01    2.919614e+00
  1.105356e+01    2.877740e+00
  1.106943e+01    2.903394e+00
  1.108531e+01    2.907852e+00
  1.110118e+01    2.922067e+00
  1.111706e+01    2.920314e+00
  1.113293e+01    2.871805e+00
  1.114881e+01    2.866666e+00
  1.116468e+01    2.817001e+00
  1.118056e+01    2.853565e+00
  1.119644e+01    2.869843e+00
  1.121231e+01    2.851121e+00
  1.122819e+01    2.800293e+00
  1.124406e+01    2.830429e+00
  1.125994e+01    2.808657e+00
  1.127581e+01    2.806838e+00
  1.129169e+01    2.850249e+00
  1.130756e+01    2.838251e+00
  1.132344e+01    2.843256e+00
  1.133932e+01    2.870194e+00
  1.135519e+01    2.833391e+00
  1.137107e+01    2.857346e+00
  1.138694e+01    2.878653e+00
  1.140282e+01    2.870747e+00
  1.141869e+01    2.838848e+00
  1.143457e+01    2.795814e+00
  1.145045e+01    2.804985e+00
  1.146632e+01    2.813191e+00
  1.148220e+01    2.796932e+00
  1.149807e+01    2.806601e+00
  1.151395e+01    2.786050e+00
  1.152982e+01    2.813966e+00
  1.154570e+01    2.808783e+00
  1.156157e+01    2.783332e+00
  1.157745e+01    2.825874e+00
  1.159333e+01    2.838514e+00
  1.160920e+01    2.790040e+00
  1.162508e+01    2.732363e+00
  1.164095e+01    2.777139e+00
  1.165683e+01    2.770481e+00
  1.167270e+01    2.780167e+00
  1.168858e+01    2.786088e+00
  1.170445e+01    2.786107e+00
  1.172033e+01    2.773730e+00
  1.173621e+01    2.754841e+00
  1.175208e+01    2.739691e+00
  1.176796e+01    2.746975e+00
  1.178383e+01    2.739405e+00
  1.179971e+01    2.774973e+00
  1.181558e+01    2.784485e+00
  1.183146e+01    2.778306e+00
  1.184733e+01    2.763504e+00
  1.186321e+01    2.776396e+00
  1.187909e+01    2.767659e+00
  1.189496e+01    2.761796e+00
  1.191084e+01    2.796416e+00
  1.192671e+01    2.724288e+00
  1.194259e+01    2.716931e+00
  1.195846e+01    2.740265e+00
  1.197434e+01    2.732301e+00
  1.199021e+01    2.677982e+00
  1.200609e+01    2.706088e+00
  1.202197e+01    2.698316e+00
  1.203784e+01    2.742123e+00
  1.205372e+01    2.729368e+00
  1.206959e+01    2.721602e+00
  1.208547e+01    2.687509e+00
  1.210134e+01    2.674848e+00
  1.211722e+01    2.681523e+00
  1.213309e+01    2.711472e+00
  1.214897e+01    2.741146e+00
  1.216485e+01    2.674075e+00
  1.218072e+01    2.716114e+00
  1.219660e+01    2.659405e+00
  1.221247e+01    2.716056e+00
  1.222835e+01    2.736727e+00
  1.224422e+01    2.701530e+00
  1.226010e+01    2.686252e+00
  1.227597e+01    2.712523e+00
  1.229185e+01    2.722640e+00
  1.230773e+01    2.693761e+00
  1.232360e+01    2.681128e+00
  1.233948e+01    2.699350e+00
  1.235535e+01    2.672770e+00
  1.237123e+01    2.650508e+00
  1.238710e+01    2.663255e+00
  1.240298e+01    2.661899e+00
  1.241886e+01    2.729778e+00
  1.243473e+01    2.695001e+00
  1.245061e+01    2.707547e+00
  1.246648e+01    2.726309e+00
  1.248236e+01    2.724679e+00
  1.249823e+01    2.732351e+00
  1.251411e+01    2.800635e+00
  1.252998e+01    2.763661e+00
  1.254586e+01    2.720421e+00
  1.256174e+01    2.699186e+00
  1.257761e+01    2.741219e+00
  1.259349e+01    2.778297e+00
  1.260936e+01    2.747369e+00
  1.262524e+01    2.734950e+00
  1.264111e+01    2.789469e+00
  1.265699e+01    2.803510e+00
  1.267286e+01    2.773468e+00
  1.268874e+01    2.761237e+00
  1.270462e+01    2.788312e+00
  1.272049e+01    2.850484e+00
  1.273637e+01    2.873019e+00
  1.275224e+01    2.916410e+00
  1.276812e+01    2.955011e+00
  1.278399e+01    2.997513e+00
  1.279987e+01    3.053327e+00
  1.281574e+01    3.102325e+00
  1.283162e+01    3.148455e+00
  1.284750e+01    3.208076e+00
  1.286337e+01    3.285617e+00
  1.287925e+01    3.347209e+00
  1.289512e+01    3.515306e+00
  1.291100e+01    3.653790e+00
  1.292687e+01    3.806770e+00
  1.294275e+01    4.077603e+00
  1.295862e+01    4.429526e+00
  1.297450e+01    4.840673e+00
  1.299038e+01    5.270218e+00
  1.300625e+01    5.949661e+00
  1.302213e+01    6.722279e+00
  1.303800e+01    7.701106e+00
  1.305388e+01    8.805107e+00
  1.306975e+01    1.007633e+01
  1.308563e+01    1.138995e+01
  1.310150e+01    1.254537e+01
  1.311738e+01    1.374393e+01
  1.313326e+01    1.481069e+01
  1.314913e+01    1.564973e+01
  1.316501e+01    1.621603e+01
  1.318088e+01    1.639579e+01
  1.319676e+01    1.563329e+01
  1.321263e+01    1.424030e+01
  1.322851e+01    1.246395e+01
  1.324438e+01    1.070753e+01
  1.326026e+01    9.152149e+00
  1.327614e+01    7.784495e+00
  1.329201e+01    6.725311e+00
  1.330789e+01    5.909636e+00
  1.332376e+01    5.357467e+00
  1.333964e+01    4.856021e+00
  1.335551e+01    4.495850e+00
  1.337139e+01    4.166215e+00
  1.338727e+01    3.871011e+00
  1.340314e+01    3.695806e+00
  1.341902e+01    3.474114e+00
  1.343489e+01    3.351207e+00
  1.345077e+01    3.193487e+00
  1.346664e+01    3.083400e+00
  1.348252e+01    3.051948e+00
  1.349839e+01    2.962559e+00
  1.351427e+01    2.916320e+00
  1.353015e+01    2.878491e+00
  1.354602e+01    2.850199e+00
  1.356190e+01    2.780799e+00
  1.357777e+01    2.743574e+00
  1.359365e+01    2.723653e+00
  1.360952e+01    2.682067e+00
  1.362540e+01    2.678937e+00
  1.364127e+01    2.636737e+00
  1.365715e+01    2.602491e+00
  1.367303e+01    2.654999e+00
  1.368890e+01    2.565789e+00
  1.370478e+01    2.516494e+00
  1.372065e+01    2.544137e+00
  1.373653e+01    2.536886e+00
  1.375240e+01    2.537510e+00
  1.376828e+01    2.578289e+00
  1.378415e+01    2.530214e+00
  1.380003e+01    2.478509e+00
  1.381591e+01    2.482638e+00
  1.383178e+01    2.458269e+00
  1.384766e+01    2.467684e+00
  1.386353e+01    2.439661e+00
  1.387941e+01    2.442238e+00
  1.389528e+01    2.443562e+00
  1.391116e+01    2.435234e+00
  1.392703e+01    2.428693e+00
  1.394291e+01    2.398888e+00
  1.395879e+01    2.395020e+00
  1.397466e+01    2.413725e+00
  1.399054e+01    2.442246e+00
  1.400641e+01    2.395952e+00
  1.402229e+01    2.337704e+00
  1.403816e+01    2.367781e+00
  1.405404e+01    2.369321e+00
  1.406991e+01    2.352925e+00
  1.408579e+01    2.392909e+00
  1.410167e+01    2.390811e+00
  1.411754e+01    2.382450e+00
  1.413342e+01    2.360956e+00
  1.414929e+01    2.359797e+00
  1.416517e+01    2.330296e+00
  1.418104e+01    2.301929e+00
  1.419692e+01    2.332319e+00
  1.421279e+01    2.330323e+00
  1.422867e+01    2.282541e+00
  1.424455e+01    2.303486e+00
  1.426042e+01    2.308253e+00
  1.427630e+01    2.253080e+00
  1.429217e+01    2.286559e+00
  1.430805e+01    2.283973e+00
  1.432392e+01    2.271868e+00
  1.433980e+01    2.224826e+00
  1.435568e+01    2.253955e+00
  1.437155e+01    2.307676e+00
  1.438743e+01    2.265090e+00
  1.440330e+01    2.236582e+00
  1.441918e+01    2.241310e+00
  1.443505e+01    2.236695e+00
  1.445093e+01    2.217405e+00
  1.446680e+01    2.247086e+00
  1.448268e+01    2.249846e+00
  1.449856e+01    2.230255e+00
  1.451443e+01    2.209125e+00
  1.453031e+01    2.259034e+00
  1.454618e+01    2.248069e+00
  1.456206e+01    2.228233e+00
  1.457793e+01    2.232475e+00
  1.459381e+01    2.233930e+00
  1.460968e+01    2.199238e+00
  1.462556e+01    2.202659e+00
  1.464144e+01    2.209905e+00
  1.465731e+01    2.192943e+00
  1.467319e+01    2.213192e+00
  1.468906e+01    2.212378e+00
  1.470494e+01    2.212632e+00
  1.472081e+01    2.220123e+00
  1.473669e+01    2.217492e+00
  1.475256e+01    2.195534e+00
  1.476844e+01    2.247154e+00
  1.478432e+01    2.230740e+00
  1.480019e+01    2.208319e+00
  1.481607e+01    2.238281e+00
  1.483194e+01    2.225376e+00
  1.484782e+01    2.241623e+00
  1.486369e+01    2.205347e+00
  1.487957e+01    2.208215e+00
  1.489544e+01    2.241299e+00
  1.491132e+01    2.254589e+00
  1.492720e+01    2.296674e+00
  1.494307e+01    2.327482e+00
  1.495895e+01    2.347264e+00
  1.497482e+01    2.357260e+00
  1.499070e+01    2.387039e+00
  1.500657e+01    2.453334e+00
  1.502245e+01    2.539625e+00
  1.503832e+01    2.630253e+00
  1.505420e+01    2.705596e+00
  1.507008e+01    2.855932e+00
  1.508595e+01    3.012256e+00
  1.510183e+01    3.235331e+00
  1.511770e+01    3.460491e+00
  1.513358e+01    3.718105e+00
  1.514945e+01    4.078917e+00
  1.516533e+01    4.550860e+00
  1.518120e+01    4.897203e+00
  1.519708e+01    5.150977e+00
  1.521296e+01    5.436713e+00
  1.522883e+01    5.593730e+00
  1.524471e+01    5.801856e+00
  1.526058e+01    5.821812e+00
  1.527646e+01    5.731867e+00
  1.529233e+01    5.504678e+00
  1.530821e+01    5.110335e+00
  1.532409e+01    4.644746e+00
  1.533996e+01    4.177794e+00
  1.535584e+01    3.789556e+00
  1.537171e+01    3.492692e+00
  1.538759e+01    3.227408e+00
  1.540346e+01    2.974433e+00
  1.541934e+01    2.768233e+00
  1.543521e+01    2.644896e+00
  1.545109e+01    2.536810e+00
  1.546697e+01    2.448803e+00
  1.548284e+01    2.389967e+00
  1.549872e+01    2.318080e+00
  1.551459e+01    2.293837e+00
  1.553047e+01    2.237399e+00
  1.554634e+01    2.185602e+00
  1.556222e+01    2.136374e+00
  1.557809e+01    2.094914e+00
  1.559397e+01    2.087662e+00
  1.560985e+01    2.081532e+00
  1.562572e+01    2.055594e+00
  1.564160e+01    2.064573e+00
  1.565747e+01    2.026509e+00
  1.567335e+01    2.007017e+00
  1.568922e+01    2.024799e+00
  1.570510e+01    1.981670e+00
  1.572097e+01    1.982340e+00
  1.573685e+01    1.970624e+00
  1.575273e+01    1.946522e+00
  1.576860e+01    1.950720e+00
  1.578448e+01    1.969481e+00
  1.580035e+01    1.953543e+00
  1.581623e+01    1.930011e+00
  1.583210e+01    1.944763e+00
  1.584798e+01    1.942083e+00
  1.586385e+01    1.896376e+00
  1.587973e+01    1.893039e+00
  1.589561e+01    1.907804e+00
  1.591148e+01    1.935672e+00
  1.592736e+01    1.907181e+00
  1.594323e+01    1.872399e+00
  1.595911e+01    1.875943e+00
  1.597498e+01    1.881847e+00
  1.599086e+01    1.893636e+00
  1.600673e+01    1.881700e+00
  1.602261e+01    1.873867e+00
  1.603849e+01    1.886116e+00
  1.605436e+01    1.882957e+00
  1.607024e+01    1.842065e+00
  1.608611e+01    1.818605e+00
  1.610199e+01    1.842994e+00
  1.611786e+01    1.843965e+00
  1.613374e+01    1.852106e+00
  1.614961e+01    1.832761e+00
  1.616549e+01    1.814076e+00
  1.618137e+01    1.817163e+00
  1.619724e+01    1.829361e+00
  1.621312e+01    1.853067e+00
  1.622899e+01    1.840897e+00
  1.624487e+01    1.857206e+00
  1.626074e+01    1.818460e+00
  1.627662e+01    1.797056e+00
  1.629250e+01    1.805164e+00
  1.630837e+01    1.802587e+00
  1.632425e+01    1.802570e+00
  1.634012e+01    1.818941e+00
  1.635600e+01    1.796152e+00
  1.637187e+01    1.797675e+00
  1.638775e+01    1.806835e+00
  1.640362e+01    1.774375e+00
  1.641950e+01    1.752497e+00
  1.643538e+01    1.761708e+00
  1.645125e+01    1.766877e+00
  1.646713e+01    1.767224e+00
  1.648300e+01    1.777635e+00
  1.649888e+01    1.776637e+00
  1.651475e+01    1.748204e+00
  1.653063e+01    1.740721e+00
  1.654650e+01    1.766299e+00
  1.656238e+01    1.770866e+00
  1.657826e+01    1.776949e+00
  1.659413e+01    1.725824e+00
  1.661001e+01    1.728871e+00
  1.662588e+01    1.731558e+00
  1.664176e+01    1.749363e+00
  1.665763e+01    1.764075e+00
  1.667351e+01    1.707048e+00
  1.668938e+01    1.706254e+00
  1.670526e+01    1.722494e+00
  1.672114e+01    1.721817e+00
  1.673701e+01    1.732505e+00
  1.675289e+01    1.693613e+00
  1.676876e+01    1.715570e+00
  1.678464e+01    1.725291e+00
  1.680051e+01    1.705680e+00
  1.681639e+01    1.718398e+00
  1.683226e+01    1.698249e+00
  1.684814e+01    1.662199e+00
  1.686402e+01    1.686987e+00
  1.687989e+01    1.722854e+00
  1.689577e+01    1.723914e+00
  1.691164e+01    1.703685e+00
  1.692752e+01    1.680675e+00
  1.694339e+01    1.646113e+00
  1.695927e+01    1.691303e+00
  1.697514e+01    1.692586e+00
  1.699102e+01    1.659614e+00
  1.700690e+01    1.689809e+00
  1.702277e+01    1.686940e+00
  1.703865e+01    1.673697e+00
  1.705452e+01    1.647158e+00
  1.707040e+01    1.661620e+00
  1.708627e+01    1.672202e+00
  1.710215e+01    1.660709e+00
  1.711802e+01    1.639747e+00
  1.713390e+01    1.642593e+00
  1.714978e+01    1.626817e+00
  1.716565e+01    1.649653e+00
  1.718153e+01    1.650475e+00
  1.719740e+01    1.644407e+00
  1.721328e+01    1.656837e+00
  1.722915e+01    1.641601e+00
  1.724503e+01    1.631317e+00
  1.726091e+01    1.651012e+00
  1.727678e+01    1.649760e+00
  1.729266e+01    1.644544e+00
  1.730853e+01    1.636886e+00
  1.732441e+01    1.639718e+00
  1.734028e+01    1.602621e+00
  1.735616e+01    1.595701e+00
  1.737203e+01    1.591313e+00
  1.738791e+01    1.583652e+00
  1.740379e+01    1.571029e+00
  1.741966e+01    1.563992e+00
  1.743554e+01    1.595979e+00
  1.745141e+01    1.601934e+00
  1.746729e+01    1.615356e+00
  1.748316e+01    1.596655e+00
  1.749904e+01    1.600490e+00
  1.751491e+01    1.595359e+00
  1.753079e+01    1.595783e+00
  1.754667e+01    1.592758e+00
  1.756254e+01    1.622296e+00
  1.757842e+01    1.599914e+00
  1.759429e+01    1.591459e+00
  1.761017e+01    1.577199e+00
  1.762604e+01    1.576109e+00
  1.764192e+01    1.564866e+00
  1.765779e+01    1.543870e+00
  1.767367e+01    1.564107e+00
  1.768955e+01    1.585993e+00
  1.770542e+01    1.556485e+00
  1.772130e+01    1.562199e+00
  1.773717e+01    1.541153e+00
  1.775305e+01    1.552094e+00
  1.776892e+01    1.575095e+00
  1.778480e+01    1.541248e+00
  1.780067e+01    1.504597e+00
  1.781655e+01    1.526396e+00
  1.783243e+01    1.536613e+00
  1.784830e+01    1.549063e+00
  1.786418e+01    1.524711e+00
  1.788005e+01    1.528245e+00
  1.789593e+01    1.540501e+00
  1.791180e+01    1.560377e+00
  1.792768e+01    1.546171e+00
  1.794355e+01    1.522714e+00
  1.795943e+01    1.544430e+00
  1.797531e+01    1.535005e+00
  1.799118e+01    1.535035e+00
  1.800706e+01    1.495980e+00
  1.802293e+01    1.496919e+00
  1.803881e+01    1.511931e+00
  1.805468e+01    1.509199e+00
  1.807056e+01    1.494221e+00
  1.808643e+01    1.485288e+00
  1.810231e+01    1.491922e+00
  1.811819e+01    1.471831e+00
  1.813406e+01    1.475895e+00
  1.814994e+01    1.491423e+00
  1.816581e+01    1.491302e+00
  1.818169e+01    1.484277e+00
  1.819756e+01    1.486759e+00
  1.821344e+01    1.450144e+00
  1.822932e+01    1.490177e+00
  1.824519e+01    1.484283e+00
  1.826107e+01    1.467393e+00
  1.827694e+01    1.451124e+00
  1.829282e+01    1.480863e+00
  1.830869e+01    1.499434e+00
  1.832457e+01    1.479592e+00
  1.834044e+01    1.471094e+00
  1.835632e+01    1.471861e+00
  1.837220e+01    1.478204e+00
  1.838807e+01    1.459161e+00
  1.840395e+01    1.464916e+00
  1.841982e+01    1.447491e+00
  1.843570e+01    1.427289e+00
  1.845157e+01    1.441607e+00
  1.846745e+01    1.472879e+00
  1.848332e+01    1.457509e+00
  1.849920e+01    1.469564e+00
  1.851508e+01    1.462671e+00
  1.853095e+01    1.443747e+00
  1.854683e+01    1.437845e+00
  1.856270e+01    1.444889e+00
  1.857858e+01    1.438573e+00
  1.859445e+01    1.415308e+00
  1.861033e+01    1.433550e+00
  1.862620e+01    1.424189e+00
  1.864208e+01    1.418634e+00
  1.865796e+01    1.434337e+00
  1.867383e+01    1.421915e+00
  1.868971e+01    1.439428e+00
  1.870558e+01    1.473719e+00
  1.872146e+01    1.480393e+00
  1.873733e+01    1.408262e+00
  1.875321e+01    1.392335e+00
  1.876908e+01    1.393387e+00
  1.878496e+01    1.401277e+00
  1.880084e+01    1.413714e+00
  1.881671e+01    1.413392e+00
  1.883259e+01    1.438878e+00
  1.884846e+01    1.412308e+00
  1.886434e+01    1.426292e+00
  1.888021e+01    1.425415e+00
  1.889609e+01    1.409401e+00
  1.891196e+01    1.405643e+00
  1.892784e+01    1.400021e+00
  1.894372e+01    1.381975e+00
  1.895959e+01    1.405526e+00
  1.897547e+01    1.401480e+00
  1.899134e+01    1.377241e+00
  1.900722e+01    1.407044e+00
  1.902309e+01    1.404532e+00
  1.903897e+01    1.399348e+00
  1.905484e+01    1.367723e+00
  1.907072e+01    1.399659e+00
  1.908660e+01    1.411731e+00
  1.910247e+01    1.400830e+00
  1.911835e+01    1.378658e+00
  1.913422e+01    1.396844e+00
  1.915010e+01    1.383821e+00
  1.916597e+01    1.378498e+00
  1.918185e+01    1.385222e+00
  1.919773e+01    1.375101e+00
  1.921360e+01    1.402867e+00
  1.922948e+01    1.382387e+00
  1.924535e+01    1.395464e+00
  1.926123e+01    1.357099e+00
  1.927710e+01    1.338561e+00
  1.929298e+01    1.346117e+00
  1.930885e+01    1.348277e+00
  1.932473e+01    1.354346e+00
  1.934061e+01    1.379233e+00
  1.935648e+01    1.378689e+00
  1.937236e+01    1.338613e+00
  1.938823e+01    1.315072e+00
  1.940411e+01    1.347355e+00
  1.941998e+01    1.348296e+00
  1.943586e+01    1.336181e+00
  1.945173e+01    1.362433e+00
  1.946761e+01    1.341046e+00
  1.948349e+01    1.335560e+00
  1.949936e+01    1.339034e+00
  1.951524e+01    1.343451e+00
  1.953111e+01    1.366538e+00
  1.954699e+01    1.337409e+00
  1.956286e+01    1.321395e+00
  1.957874e+01    1.306314e+00
  1.959461e+01    1.327924e+00
  1.961049e+01    1.315541e+00
  1.962637e+01    1.302444e+00
  1.964224e+01    1.317079e+00
  1.965812e+01    1.336716e+00
  1.967399e+01    1.340364e+00
  1.968987e+01    1.334322e+00
  1.970574e+01    1.328303e+00
  1.972162e+01    1.320669e+00
  1.973749e+01    1.305481e+00
  1.975337e+01    1.283438e+00
  1.976925e+01    1.311844e+00
  1.978512e+01    1.322854e+00
  1.980100e+01    1.318756e+00
  1.981687e+01    1.295459e+00
  1.983275e+01    1.309771e+00
  1.984862e+01    1.298148e+00
  1.986450e+01    1.294235e+00
  1.988037e+01    1.319253e+00
  1.989625e+01    1.321466e+00
  1.991213e+01    1.307369e+00
  1.992800e+01    1.284752e+00
  1.994388e+01    1.297648e+00
  1.995975e+01    1.297079e+00
  1.997563e+01    1.285275e+00
  1.999150e+01    1.295794e+00
  2.000738e+01    1.290262e+00
  2.002325e+01    1.269634e+00
  2.003913e+01    1.255988e+00
  2.005501e+01    1.238506e+00
  2.007088e+01    1.265781e+00
  2.008676e+01    1.272652e+00
  2.010263e+01    1.276311e+00
  2.011851e+01    1.274459e+00
  2.013438e+01    1.271187e+00
  2.015026e+01    1.284902e+00
  2.016614e+01    1.273113e+00
  2.018201e+01    1.287932e+00
  2.019789e+01    1.274450e+00
  2.021376e+01    1.265367e+00
  2.022964e+01    1.261509e+00
  2.024551e+01    1.246023e+00
  2.026139e+01    1.234175e+00
  2.027726e+01    1.266245e+00
  2.029314e+01    1.255747e+00
  2.030902e+01    1.229031e+00
  2.032489e+01    1.253045e+00
  2.034077e+01    1.245244e+00
  2.035664e+01    1.265119e+00
  2.037252e+01    1.253624e+00
  2.038839e+01    1.259966e+00
  2.040427e+01    1.243826e+00
  2.042014e+01    1.246227e+00
  2.043602e+01    1.231541e+00
  2.045190e+01    1.251843e+00
  2.046777e+01    1.247068e+00
  2.048365e+01    1.256107e+00
  2.049952e+01    1.256518e+00
  2.051540e+01    1.253608e+00
  2.053127e+01    1.242894e+00
  2.054715e+01    1.269355e+00
  2.056302e+01    1.269774e+00
  2.057890e+01    1.265330e+00
  2.059478e+01    1.268404e+00
  2.061065e+01    1.250238e+00
  2.062653e+01    1.233568e+00
  2.064240e+01    1.207358e+00
  2.065828e+01    1.203990e+00
  2.067415e+01    1.235046e+00
  2.069003e+01    1.252848e+00
  2.070590e+01    1.254873e+00
  2.072178e+01    1.232966e+00
  2.073766e+01    1.225503e+00
  2.075353e+01    1.264546e+00
  2.076941e+01    1.264184e+00
  2.078528e+01    1.244027e+00
  2.080116e+01    1.211375e+00
  2.081703e+01    1.205528e+00
  2.083291e+01    1.233067e+00
  2.084878e+01    1.239260e+00
  2.086466e+01    1.236998e+00
  2.088054e+01    1.215814e+00
  2.089641e+01    1.219455e+00
  2.091229e+01    1.240158e+00
  2.092816e+01    1.231785e+00
  2.094404e+01    1.214058e+00
  2.095991e+01    1.211677e+00
  2.097579e+01    1.216462e+00
  2.099166e+01    1.240874e+00
  2.100754e+01    1.232534e+00
  2.102342e+01    1.234206e+00
  2.103929e+01    1.226596e+00
  2.105517e+01    1.218186e+00
  2.107104e+01    1.246989e+00
  2.108692e+01    1.262357e+00
  2.110279e+01    1.272316e+00
  2.111867e+01    1.233791e+00
  2.113455e+01    1.233680e+00
  2.115042e+01    1.242514e+00
  2.116630e+01    1.219700e+00
  2.118217e+01    1.227445e+00
  2.119805e+01    1.234589e+00
  2.121392e+01    1.253833e+00
  2.122980e+01    1.261228e+00
  2.124567e+01    1.264339e+00
  2.126155e+01    1.260666e+00
  2.127743e+01    1.248821e+00
  2.129330e+01    1.260387e+00
  2.130918e+01    1.271685e+00
  2.132505e+01    1.263332e+00
  2.134093e+01    1.262643e+00
  2.135680e+01    1.275529e+00
  2.137268e+01    1.301838e+00
  2.138855e+01    1.280015e+00
  2.140443e+01    1.312498e+00
  2.142031e+01    1.315698e+00
  2.143618e+01    1.352261e+00
  2.145206e+01    1.359642e+00
  2.146793e+01    1.357087e+00
  2.148381e+01    1.385339e+00
  2.149968e+01    1.400452e+00
  2.151556e+01    1.455237e+00
  2.153143e+01    1.467289e+00
  2.154731e+01    1.520062e+00
  2.156319e+01    1.564260e+00
  2.157906e+01    1.585457e+00
  2.159494e+01    1.663745e+00
  2.161081e+01    1.732042e+00
  2.162669e+01    1.849662e+00
  2.164256e+01    1.976045e+00
  2.165844e+01    2.128865e+00
  2.167431e+01    2.281896e+00
  2.169019e+01    2.511030e+00
  2.170607e+01    2.768582e+00
  2.172194e+01    3.088352e+00
  2.173782e+01    3.493428e+00
  2.175369e+01    3.967587e+00
  2.176957e+01    4.558587e+00
  2.178544e+01    5.190575e+00
  2.180132e+01    5.863792e+00
  2.181719e+01    6.541509e+00
  2.183307e+01    7.165295e+00
  2.184895e+01    7.780220e+00
  2.186482e+01    8.336307e+00
  2.188070e+01    8.767646e+00
  2.189657e+01    8.953252e+00
  2.191245e+01    8.753752e+00
  2.192832e+01    8.272807e+00
  2.194420e+01    7.488307e+00
  2.196007e+01    6.582847e+00
  2.197595e+01    5.649188e+00
  2.199183e+01    4.922400e+00
  2.200770e+01    4.231009e+00
  2.202358e+01    3.629488e+00
  2.203945e+01    3.167237e+00
  2.205533e+01    2.852207e+00
  2.207120e+01    2.579484e+00
  2.208708e+01    2.358954e+00
  2.210296e+01    2.162549e+00
  2.211883e+01    1.990293e+00
  2.213471e+01    1.857574e+00
  2.215058e+01    1.774413e+00
  2.216646e+01    1.687185e+00
  2.218233e+01    1.613763e+00
  2.219821e+01    1.536158e+00
  2.221408e+01    1.480368e+00
  2.222996e+01    1.418457e+00
  2.224584e+01    1.392482e+00
  2.226171e+01    1.378250e+00
  2.227759e+01    1.374114e+00
  2.229346e+01    1.346641e+00
  2.230934e+01    1.322683e+00
  2.232521e+01    1.279083e+00
  2.234109e+01    1.252520e+00
  2.235696e+01    1.256166e+00
  2.237284e+01    1.257811e+00
  2.238872e+01    1.217644e+00
  2.240459e+01    1.215275e+00
  2.242047e+01    1.192222e+00
  2.243634e+01    1.191448e+00
  2.245222e+01    1.190882e+00
  2.246809e+01    1.173982e+00
  2.248397e+01    1.148095e+00
  2.249984e+01    1.147945e+00
  2.251572e+01    1.130161e+00
  2.253160e+01    1.145337e+00
  2.254747e+01    1.124041e+00
  2.256335e+01    1.137627e+00
  2.257922e+01    1.135381e+00
  2.259510e+01    1.117427e+00
  2.261097e+01    1.134511e+00
  2.262685e+01    1.119365e+00
  2.264272e+01    1.084986e+00
  2.265860e+01    1.091236e+00
  2.267448e+01    1.070400e+00
  2.269035e+01    1.047788e+00
  2.270623e+01    1.069473e+00
  2.272210e+01    1.072694e+00
  2.273798e+01    1.063201e+00
  2.275385e+01    1.060918e+00
  2.276973e+01    1.061915e+00
  2.278560e+01    1.059402e+00
  2.280148e+01    1.061000e+00
  2.281736e+01    1.039324e+00
  2.283323e+01    1.039290e+00
  2.284911e+01    1.042887e+00
  2.286498e+01    1.042935e+00
  2.288086e+01    1.043163e+00
  2.289673e+01    1.031971e+00
  2.291261e+01    1.037459e+00
  2.292848e+01    1.020422e+00
  2.294436e+01    1.010503e+00
  2.296024e+01    1.029413e+00
  2.297611e+01    1.028243e+00
  2.299199e+01    1.017021e+00
  2.300786e+01    1.019944e+00
  2.302374e+01    1.023764e+00
  2.303961e+01    1.015508e+00
  2.305549e+01    9.991447e-01
  2.307137e+01    1.012932e+00
  2.308724e+01    1.011825e+00
  2.310312e+01    9.977165e-01
  2.311899e+01    1.009800e+00
  2.313487e+01    1.016500e+00
  2.315074e+01    1.010455e+00
  2.316662e+01    1.005567e+00
  2.318249e+01    9.950180e-01
  2.319837e+01    1.006114e+00
  2.321425e+01    1.010554e+00
  2.323012e+01    1.005329e+00
  2.324600e+01    1.002357e+00
  2.326187e+01    9.761907e-01
  2.327775e+01    1.010340e+00
  2.329362e+01    1.005616e+00
  2.330950e+01    9.944296e-01
  2.332537e+01    9.819997e-01
  2.334125e+01    9.592056e-01
  2.335713e+01    9.765838e-01
  2.337300e+01    9.751979e-01
  2.338888e+01    9.670008e-01
  2.340475e+01    9.827115e-01
  2.342063e+01    9.822068e-01
  2.343650e+01    9.833652e-01
  2.345238e+01    9.828482e-01
  2.346825e+01    9.783700e-01
  2.348413e+01    9.559721e-01
  2.350001e+01    9.459750e-01
  2.351588e+01    9.773394e-01
  2.353176e+01    1.003563e+00
  2.354763e+01    9.785534e-01
  2.356351e+01    9.621285e-01
  2.357938e+01    9.564110e-01
  2.359526e+01    9.577440e-01
  2.361113e+01    9.687921e-01
  2.362701e+01    9.824120e-01
  2.364289e+01    9.682129e-01
  2.365876e+01    9.769282e-01
  2.367464e+01    9.499788e-01
  2.369051e+01    9.121076e-01
  2.370639e+01    9.389820e-01
  2.372226e+01    9.462385e-01
  2.373814e+01    9.530441e-01
  2.375401e+01    9.362508e-01
  2.376989e+01    9.373587e-01
  2.378577e+01    9.418499e-01
  2.380164e+01    9.345694e-01
  2.381752e+01    9.466767e-01
  2.383339e+01    9.320198e-01
  2.384927e+01    9.302617e-01
  2.386514e+01    9.225548e-01
  2.388102e+01    9.281405e-01
  2.389689e+01    9.134699e-01
  2.391277e+01    9.057809e-01
  2.392865e+01    9.150906e-01
  2.394452e+01    8.969753e-01
  2.396040e+01    8.923591e-01
  2.397627e+01    9.086802e-01
  2.399215e+01    9.143412e-01
  2.400802e+01    9.013221e-01
  2.402390e+01    8.917635e-01
  2.403978e+01    9.051768e-01
  2.405565e+01    9.265543e-01
  2.407153e+01    9.027855e-01
  2.408740e+01    8.721329e-01
  2.410328e+01    8.786243e-01
  2.411915e+01    9.014738e-01
  2.413503e+01    8.739174e-01
  2.415090e+01    8.815635e-01
  2.416678e+01    8.900212e-01
  2.418266e+01    8.827367e-01
  2.419853e+01    8.917905e-01
  2.421441e+01    9.055195e-01
  2.423028e+01    8.899302e-01
  2.424616e+01    8.859422e-01
  2.426203e+01    9.053354e-01
  2.427791e+01    9.027945e-01
  2.429378e+01    8.907164e-01
  2.430966e+01    8.924251e-01
  2.432554e+01    8.850491e-01
  2.434141e+01    8.905360e-01
  2.435729e+01    9.031800e-01
  2.437316e+01    8.908020e-01
  2.438904e+01    8.951491e-01
  2.440491e+01    8.956478e-01
  2.442079e+01    8.927186e-01
  2.443666e+01    8.995293e-01
  2.445254e+01    8.718610e-01
  2.446842e+01    8.718163e-01
  2.448429e+01    9.025859e-01
  2.450017e+01    8.978643e-01
  2.451604e+01    9.102014e-01
  2.453192e+01    8.989784e-01
  2.454779e+01    8.876151e-01
  2.456367e+01    8.701724e-01
  2.457954e+01    8.825376e-01
  2.459542e+01    9.052320e-01
  2.461130e+01    8.961973e-01
  2.462717e+01    8.942715e-01
  2.464305e+01    8.950665e-01
  2.465892e+01    8.904495e-01
  2.467480e+01    9.107585e-01
  2.469067e+01    9.087104e-01
  2.470655e+01    8.883445e-01
  2.472242e+01    8.992850e-01
  2.473830e+01    8.848133e-01
  2.475418e+01    8.800133e-01
  2.477005e+01    8.913922e-01
  2.478593e+01    9.020941e-01
  2.480180e+01    8.999154e-01
  2.481768e+01    9.005938e-01
  2.483355e+01    9.095488e-01
  2.484943e+01    8.959051e-01
  2.486530e+01    9.045238e-01
  2.488118e+01    8.897538e-01
  2.489706e+01    8.875781e-01
  2.491293e+01    8.968694e-01
  2.492881e+01    9.024588e-01
  2.494468e+01    9.047991e-01
  2.496056e+01    9.008073e-01
  2.497643e+01    8.965263e-01
  2.499231e+01    8.942451e-01
  2.500819e+01    8.983056e-01
  2.502406e+01    9.087924e-01
  2.503994e+01    9.122285e-01
  2.505581e+01    9.116418e-01
  2.507169e+01    9.060642e-01
  2.508756e+01    9.208483e-01
  2.510344e+01    9.223999e-01
  2.511931e+01    9.210255e-01
  2.513519e+01    9.332121e-01
  2.515107e+01    9.335580e-01
  2.516694e+01    9.199647e-01
  2.518282e+01    9.176202e-01
  2.519869e+01    9.084224e-01
  2.521457e+01    9.040905e-01
  2.523044e+01    9.165221e-01
  2.524632e+01    9.269754e-01
  2.526219e+01    9.405679e-01
  2.527807e+01    9.279476e-01
  2.529395e+01    9.333521e-01
  2.530982e+01    9.624883e-01
  2.532570e+01    9.551996e-01
  2.534157e+01    9.605235e-01
  2.535745e+01    9.644953e-01
  2.537332e+01    9.869894e-01
  2.538920e+01    9.878317e-01
  2.540507e+01    9.853662e-01
  2.542095e+01    1.006931e+00
  2.543683e+01    1.028230e+00
  2.545270e+01    1.036907e+00
  2.546858e+01    1.032461e+00
  2.548445e+01    1.040486e+00
  2.550033e+01    1.051532e+00
  2.551620e+01    1.065283e+00
  2.553208e+01    1.086920e+00
  2.554795e+01    1.120343e+00
  2.556383e+01    1.147707e+00
  2.557971e+01    1.164687e+00
  2.559558e+01    1.205178e+00
  2.561146e+01    1.208448e+00
  2.562733e+01    1.256401e+00
  2.564321e+01    1.317432e+00
  2.565908e+01    1.358864e+00
  2.567496e+01    1.425078e+00
  2.569083e+01    1.499077e+00
  2.570671e+01    1.590387e+00
  2.572259e+01    1.722579e+00
  2.573846e+01    1.852253e+00
  2.575434e+01    2.029495e+00
  2.577021e+01    2.246268e+00
  2.578609e+01    2.488736e+00
  2.580196e+01    2.797880e+00
  2.581784e+01    3.179097e+00
  2.583371e+01    3.627108e+00
  2.584959e+01    4.117029e+00
  2.586547e+01    4.628494e+00
  2.588134e+01    5.213117e+00
  2.589722e+01    5.829891e+00
  2.591309e+01    6.366321e+00
  2.592897e+01    6.815647e+00
  2.594484e+01    7.078034e+00
  2.596072e+01    7.102422e+00
  2.597660e+01    6.981967e+00
  2.599247e+01    6.602285e+00
  2.600835e+01    5.963863e+00
  2.602422e+01    5.312386e+00
  2.604010e+01    4.649662e+00
  2.605597e+01    4.011762e+00
  2.607185e+01    3.485106e+00
  2.608772e+01    3.032185e+00
  2.610360e+01    2.663722e+00
  2.611948e+01    2.377255e+00
  2.613535e+01    2.131055e+00
  2.615123e+01    1.945046e+00
  2.616710e+01    1.803328e+00
  2.618298e+01    1.688098e+00
  2.619885e+01    1.591276e+00
  2.621473e+01    1.496749e+00
  2.623060e+01    1.414044e+00
  2.624648e+01    1.340973e+00
  2.626236e+01    1.284480e+00
  2.627823e+01    1.277347e+00
  2.629411e+01    1.241253e+00
  2.630998e+01    1.185036e+00
  2.632586e+01    1.151878e+00
  2.634173e+01    1.129450e+00
  2.635761e+01    1.110293e+00
  2.637348e+01    1.092642e+00
  2.638936e+01    1.071863e+00
  2.640524e+01    1.073154e+00
  2.642111e+01    1.056633e+00
  2.643699e+01    1.022990e+00
  2.645286e+01    1.018384e+00
  2.646874e+01    1.003536e+00
  2.648461e+01    1.016572e+00
  2.650049e+01    9.988582e-01
  2.651636e+01    1.018248e+00
  2.653224e+01    1.011944e+00
  2.654812e+01    1.001381e+00
  2.656399e+01    9.946610e-01
  2.657987e+01    9.914183e-01
  2.659574e+01    9.844466e-01
  2.661162e+01    9.753879e-01
  2.662749e+01    9.747463e-01
  2.664337e+01    9.886798e-01
  2.665924e+01    9.701408e-01
  2.667512e+01    9.709787e-01
  2.669100e+01    9.657992e-01
  2.670687e+01    9.639642e-01
  2.672275e+01    9.413261e-01
  2.673862e+01    9.396032e-01
  2.675450e+01    9.597929e-01
  2.677037e+01    9.772255e-01
  2.678625e+01    9.936211e-01
  2.680212e+01    9.887460e-01
  2.681800e+01    9.655219e-01
  2.683388e+01    9.780031e-01
  2.684975e+01    9.875510e-01
  2.686563e+01    9.811209e-01
  2.688150e+01    9.907688e-01
  2.689738e+01    1.020666e+00
  2.691325e+01    9.987082e-01
  2.692913e+01    1.002589e+00
  2.694501e+01    1.025575e+00
  2.696088e+01    1.031752e+00
  2.697676e+01    1.041637e+00
  2.699263e+01    1.078802e+00
  2.700851e+01    1.111630e+00
  2.702438e+01    1.156436e+00
  2.704026e+01    1.207692e+00
  2.705613e+01    1.259977e+00
  2.707201e+01    1.307867e+00
  2.708789e+01    1.376329e+00
  2.710376e+01    1.469605e+00
  2.711964e+01    1.587099e+00
  2.713551e+01    1.715060e+00
  2.715139e+01    1.849997e+00
  2.716726e+01    1.959169e+00
  2.718314e+01    2.065711e+00
  2.719901e+01    2.143400e+00
  2.721489e+01    2.166134e+00
  2.723077e+01    2.158196e+00
  2.724664e+01    2.107865e+00
  2.726252e+01    2.003701e+00
  2.727839e+01    1.855153e+00
  2.729427e+01    1.699924e+00
  2.731014e+01    1.597851e+00
  2.732602e+01    1.465899e+00
  2.734189e+01    1.332813e+00
  2.735777e+01    1.282976e+00
  2.737365e+01    1.229582e+00
  2.738952e+01    1.183978e+00
  2.740540e+01    1.141827e+00
  2.742127e+01    1.092325e+00
  2.743715e+01    1.045618e+00
  2.745302e+01    1.034335e+00
  2.746890e+01    1.020993e+00
  2.748477e+01    1.012979e+00
  2.750065e+01    9.883207e-01
  2.751653e+01    9.793472e-01
  2.753240e+01    9.759003e-01
  2.754828e+01    9.683951e-01
  2.756415e+01    9.534327e-01
  2.758003e+01    9.369825e-01
  2.759590e+01    9.519451e-01
  2.761178e+01    9.313774e-01
  2.762765e+01    9.156568e-01
  2.764353e+01    9.169759e-01
  2.765941e+01    9.258613e-01
  2.767528e+01    9.131285e-01
  2.769116e+01    9.215631e-01
  2.770703e+01    9.130713e-01
  2.772291e+01    9.096351e-01
  2.773878e+01    9.098834e-01
  2.775466e+01    9.050009e-01
  2.777054e+01    9.041929e-01
  2.778641e+01    9.040233e-01
  2.780229e+01    8.942984e-01
  2.781816e+01    9.009548e-01
  2.783404e+01    8.926379e-01
  2.784991e+01    8.913504e-01
  2.786579e+01    8.903568e-01
  2.788166e+01    8.688397e-01
  2.789754e+01    8.793885e-01
  2.791342e+01    8.823807e-01
  2.792929e+01    8.762127e-01
  2.794517e+01    8.610722e-01
  2.796104e+01    8.620607e-01
  2.797692e+01    8.515064e-01
  2.799279e+01    8.767508e-01
  2.800867e+01    8.805941e-01
  2.802454e+01    8.680625e-01
  2.804042e+01    8.507651e-01
  2.805630e+01    8.652071e-01
  2.807217e+01    8.707187e-01
  2.808805e+01    8.851840e-01
  2.810392e+01    8.764926e-01
  2.811980e+01    8.766128e-01
  2.813567e+01    8.577169e-01
  2.815155e+01    8.370771e-01
  2.816742e+01    8.393978e-01
  2.818330e+01    8.434869e-01
  2.819918e+01    8.579201e-01
  2.821505e+01    8.519440e-01
  2.823093e+01    8.430946e-01
  2.824680e+01    8.610331e-01
  2.826268e+01    8.640746e-01
  2.827855e+01    8.369631e-01
  2.829443e+01    8.563552e-01
  2.831030e+01    8.643574e-01
  2.832618e+01    8.461577e-01
  2.834206e+01    8.463283e-01
  2.835793e+01    8.702937e-01
  2.837381e+01    8.556405e-01
  2.838968e+01    8.444074e-01
  2.840556e+01    8.623102e-01
  2.842143e+01    8.511994e-01
  2.843731e+01    8.384014e-01
  2.845318e+01    8.398168e-01
  2.846906e+01    8.585586e-01
  2.848494e+01    8.555755e-01
  2.850081e+01    8.391532e-01
  2.851669e+01    8.274781e-01
  2.853256e+01    8.438188e-01
  2.854844e+01    8.338695e-01
  2.856431e+01    8.597406e-01
  2.858019e+01    8.531190e-01
  2.859606e+01    8.385741e-01
  2.861194e+01    8.370630e-01
  2.862782e+01    8.382004e-01
  2.864369e+01    8.346044e-01
  2.865957e+01    8.424480e-01
  2.867544e+01    8.133864e-01
  2.869132e+01    8.262885e-01
  2.870719e+01    8.412960e-01
  2.872307e+01    8.509005e-01
  2.873895e+01    8.480097e-01
  2.875482e+01    8.389300e-01
  2.877070e+01    8.331199e-01
  2.878657e+01    8.300749e-01
  2.880245e+01    8.416131e-01
  2.881832e+01    8.280166e-01
  2.883420e+01    8.109684e-01
  2.885007e+01    8.166202e-01
  2.886595e+01    8.172075e-01
  2.888183e+01    8.282844e-01
  2.889770e+01    8.266247e-01
  2.891358e+01    8.117474e-01
  2.892945e+01    8.286752e-01
  2.894533e+01    8.328048e-01
  2.896120e+01    8.131576e-01
  2.897708e+01    8.244893e-01
  2.899295e+01    8.196070e-01
  2.900883e+01    8.103542e-01
  2.902471e+01    8.384911e-01
  2.904058e+01    8.246760e-01
  2.905646e+01    8.128257e-01
  2.907233e+01    8.127932e-01
  2.908821e+01    8.099801e-01
  2.910408e+01    8.176818e-01
  2.911996e+01    8.137666e-01
  2.913583e+01    8.208945e-01
  2.915171e+01    7.951444e-01
  2.916759e+01    8.018563e-01
  2.918346e+01    8.105444e-01
  2.919934e+01    7.989264e-01
  2.921521e+01    7.992069e-01
  2.923109e+01    8.073193e-01
  2.924696e+01    8.193813e-01
  2.926284e+01    8.152534e-01
  2.927871e+01    8.351086e-01
  2.929459e+01    7.946053e-01
  2.931047e+01    8.030159e-01
  2.932634e+01    7.995509e-01
  2.934222e+01    8.095176e-01
  2.935809e+01    8.204678e-01
  2.937397e+01    8.059337e-01
  2.938984e+01    7.803838e-01
  2.940572e+01    7.776729e-01
  2.942159e+01    7.991882e-01
  2.943747e+01    8.060720e-01
  2.945335e+01    8.097660e-01
  2.946922e+01    7.933720e-01
  2.948510e+01    8.132560e-01
  2.950097e+01    8.094874e-01
  2.951685e+01    8.347549e-01
  2.953272e+01    8.131349e-01
  2.954860e+01    8.057930e-01
  2.956447e+01    8.287996e-01
  2.958035e+01    8.026152e-01
  2.959623e+01    7.947453e-01
  2.961210e+01    7.865490e-01
  2.962798e+01    7.977615e-01
  2.964385e+01    7.951322e-01
  2.965973e+01    8.018628e-01
  2.967560e+01    8.054588e-01
  2.969148e+01    7.855118e-01
  2.970736e+01    7.994773e-01
  2.972323e+01    8.002532e-01
  2.973911e+01    8.023586e-01
  2.975498e+01    7.998298e-01
  2.977086e+01    8.059710e-01
  2.978673e+01    7.928729e-01
  2.980261e+01    7.947007e-01
  2.981848e+01    7.944328e-01
  2.983436e+01    7.998868e-01
  2.985024e+01    7.940558e-01
  2.986611e+01    7.986989e-01
  2.988199e+01    7.865809e-01
  2.989786e+01    7.903972e-01
  2.991374e+01    7.899001e-01
  2.992961e+01    8.119876e-01
  2.994549e+01    8.106213e-01
  2.996136e+01    7.916246e-01
  2.997724e+01    8.046686e-01
  2.999312e+01    8.065696e-01
  3.000899e+01    8.158488e-01
  3.002487e+01    8.167909e-01
  3.004074e+01    8.034849e-01
  3.005662e+01    8.094976e-01
  3.007249e+01    8.025122e-01
  3.008837e+01    7.878619e-01
  3.010424e+01    7.941881e-01
  3.012012e+01    8.063518e-01
  3.013600e+01    7.879903e-01
  3.015187e+01    8.004149e-01
  3.016775e+01    7.858738e-01
  3.018362e+01    7.771953e-01
  3.019950e+01    7.814222e-01
  3.021537e+01    7.876953e-01
  3.023125e+01    7.810994e-01
  3.024712e+01    7.746487e-01
  3.026300e+01    7.923626e-01
  3.027888e+01    7.865582e-01
  3.029475e+01    7.929346e-01
  3.031063e+01    8.035741e-01
  3.032650e+01    7.928376e-01
  3.034238e+01    7.783155e-01
  3.035825e+01    7.986005e-01
  3.037413e+01    8.046142e-01
  3.039000e+01    7.886314e-01
  3.040588e+01    7.893768e-01
  3.042176e+01    7.979134e-01
  3.043763e+01    7.774428e-01
  3.045351e+01    7.766510e-01
  3.046938e+01    7.662303e-01
  3.048526e+01    7.712913e-01
  3.050113e+01    7.689140e-01
  3.051701e+01    7.743706e-01
  3.053288e+01    7.905331e-01
  3.054876e+01    7.782829e-01
  3.056464e+01    7.818566e-01
  3.058051e+01    7.857409e-01
  3.059639e+01    7.834804e-01
  3.061226e+01    7.971141e-01
  3.062814e+01    7.739358e-01
  3.064401e+01    7.645128e-01
  3.065989e+01    7.597676e-01
  3.067577e+01    7.750311e-01
  3.069164e+01    7.934631e-01
  3.070752e+01    8.002337e-01
  3.072339e+01    7.718942e-01
  3.073927e+01    7.795516e-01
  3.075514e+01    7.870544e-01
  3.077102e+01    7.782029e-01
  3.078689e+01    7.899607e-01
  3.080277e+01    7.851210e-01
  3.081865e+01    7.693119e-01
  3.083452e+01    7.656289e-01
  3.085040e+01    7.791625e-01
  3.086627e+01    7.802547e-01
  3.088215e+01    7.813600e-01
  3.089802e+01    7.881292e-01
  3.091390e+01    7.875755e-01
  3.092977e+01    7.657166e-01
  3.094565e+01    7.835254e-01
  3.096153e+01    8.008183e-01
  3.097740e+01    8.042532e-01
  3.099328e+01    7.676954e-01
  3.100915e+01    7.853710e-01
  3.102503e+01    7.747560e-01
  3.104090e+01    7.847055e-01
  3.105678e+01    7.946912e-01
  3.107265e+01    7.835322e-01
  3.108853e+01    7.880096e-01
  3.110441e+01    7.954971e-01
  3.112028e+01    8.035920e-01
  3.113616e+01    7.937925e-01
  3.115203e+01    7.796312e-01
  3.116791e+01    7.901042e-01
  3.118378e+01    7.771148e-01
  3.119966e+01    7.809742e-01
  3.121553e+01    8.038192e-01
  3.123141e+01    8.152673e-01
  3.124729e+01    8.153613e-01
  3.126316e+01    8.194053e-01
  3.127904e+01    8.040553e-01
  3.129491e+01    7.998157e-01
  3.131079e+01    7.903025e-01
  3.132666e+01    8.072780e-01
  3.134254e+01    8.129531e-01
  3.135841e+01    7.906402e-01
  3.137429e+01    7.795799e-01
  3.139017e+01    8.051121e-01
  3.140604e+01    8.185390e-01
  3.142192e+01    8.095069e-01
  3.143779e+01    8.052388e-01
  3.145367e+01    7.996201e-01
  3.146954e+01    7.870759e-01
  3.148542e+01    8.042361e-01
  3.150129e+01    8.369299e-01
  3.151717e+01    8.468953e-01
  3.153305e+01    8.346714e-01
  3.154892e+01    8.428650e-01
  3.156480e+01    8.637953e-01
  3.158067e+01    8.858948e-01
  3.159655e+01    9.021459e-01
  3.161242e+01    9.009545e-01
  3.162830e+01    8.929145e-01
  3.164418e+01    9.084508e-01
  3.166005e+01    9.456998e-01
  3.167593e+01    9.687600e-01
  3.169180e+01    9.785921e-01
  3.170768e+01    1.039465e+00
  3.172355e+01    1.066244e+00
  3.173943e+01    1.101269e+00
  3.175530e+01    1.176921e+00
  3.177118e+01    1.248852e+00
  3.178706e+01    1.346685e+00
  3.180293e+01    1.458319e+00
  3.181881e+01    1.568876e+00
  3.183468e+01    1.679195e+00
  3.185056e+01    1.796697e+00
  3.186643e+01    1.938000e+00
  3.188231e+01    2.032687e+00
  3.189818e+01    2.070911e+00
  3.191406e+01    2.081803e+00
  3.192994e+01    2.053547e+00
  3.194581e+01    1.934597e+00
  3.196169e+01    1.841897e+00
  3.197756e+01    1.699741e+00
  3.199344e+01    1.542612e+00
  3.200931e+01    1.444271e+00
  3.202519e+01    1.332118e+00
  3.204106e+01    1.243669e+00
  3.205694e+01    1.169863e+00
  3.207282e+01    1.124350e+00
  3.208869e+01    1.063387e+00
  3.210457e+01    1.035587e+00
  3.212044e+01    9.804872e-01
  3.213632e+01    9.464678e-01
  3.215219e+01    9.194306e-01
  3.216807e+01    9.130691e-01
  3.218394e+01    8.984258e-01
  3.219982e+01    8.689315e-01
  3.221570e+01    8.540829e-01
  3.223157e+01    8.269517e-01
  3.224745e+01    8.119877e-01
  3.226332e+01    8.248150e-01
  3.227920e+01    8.338370e-01
  3.229507e+01    8.162972e-01
  3.231095e+01    8.270425e-01
  3.232682e+01    8.138425e-01
  3.234270e+01    7.991794e-01
  3.235858e+01    7.795759e-01
  3.237445e+01    7.913833e-01
  3.239033e+01    7.935609e-01
  3.240620e+01    7.721084e-01
  3.242208e+01    7.649115e-01
  3.243795e+01    7.705237e-01
  3.245383e+01    7.736679e-01
  3.246970e+01    7.965747e-01
  3.248558e+01    7.876462e-01
  3.250146e+01    8.066478e-01
  3.251733e+01    7.851986e-01
  3.253321e+01    7.782195e-01
  3.254908e+01    7.761285e-01
