# == pyFAI calibration ==
# Distance Sample to Detector: 0.3999999939076516 m
# PONI: 9.750e-02, 1.135e-01 m
# Rotations: -0.000175 0.000000 -0.000000 rad
# 
# == Fit2d calibration ==
# Distance Sample-beamCenter: 400.000 mm
# Center: x=1514.000, y=1300.000 pix
# Tilt: 0.010 deg  TiltPlanRot: 0.010 deg
# 
# Detector Detector	 Spline= None	 PixelSize= 7.500e-05, 7.500e-05 m
#    Detector has a mask: False 
#    Detector has a dark current: False 
#    detector has a flat field: False 
# 
# Wavelength: 6.888e-11 m
# Mask applied: user provided
# Dark current applied: False
# Flat field applied: False
# Polarization factor: 0.99
# Normalization factor: 1.0
# --> /home/myspot/data/2024_07_Rosario/Ru-CGO-ex/2024-07-27_003_Ru-CGO-ex_Reaction_dwell_000023_data_000187.dat
#       q_nm^-1             I 
  2.003187e-02    7.712225e-02
  3.590745e-02    2.417039e-01
  5.178302e-02    1.949198e-01
  6.765859e-02    1.094389e-01
  8.353417e-02    8.128595e-02
  9.940974e-02    1.456890e-01
  1.152853e-01    7.594995e-02
  1.311609e-01    2.671745e-03
  1.470365e-01    3.447823e-03
  1.629120e-01    2.405646e-02
  1.787876e-01    2.996064e-02
  1.946632e-01    9.831721e-02
  2.105388e-01    7.316191e-02
  2.264143e-01    5.502729e-02
  2.422899e-01    4.728591e-02
  2.581655e-01    1.899721e-02
  2.740411e-01    3.496042e-02
  2.899166e-01    4.676393e-02
  3.057922e-01    2.998959e-02
  3.216678e-01    2.247594e-02
  3.375433e-01    3.868604e-02
  3.534189e-01    1.809995e-02
  3.692945e-01    6.079312e-02
  3.851701e-01    7.412156e-02
  4.010456e-01    3.750492e-02
  4.169212e-01    3.648552e-02
  4.327968e-01    1.536855e-02
  4.486724e-01    1.497073e-02
  4.645479e-01    3.263868e-02
  4.804235e-01    2.652422e-02
  4.962991e-01    3.186197e-02
  5.121747e-01    3.148504e-02
  5.280502e-01    2.460289e-02
  5.439258e-01    5.374266e-02
  5.598014e-01    4.588677e-02
  5.756770e-01    3.675123e-02
  5.915525e-01    3.420626e-02
  6.074281e-01    4.185259e-02
  6.233037e-01    1.801048e-02
  6.391793e-01    2.139453e-02
  6.550548e-01    3.214257e-02
  6.709304e-01    4.353213e-02
  6.868060e-01    5.670682e-02
  7.026815e-01    7.478371e-02
  7.185571e-01    3.348217e-02
  7.344327e-01    3.026775e-02
  7.503083e-01    4.062660e-02
  7.661838e-01    5.496039e-02
  7.820594e-01    8.593891e-02
  7.979350e-01    1.500968e-01
  8.138106e-01    2.024904e-01
  8.296861e-01    2.928279e-01
  8.455617e-01    3.376415e-01
  8.614373e-01    4.780183e-01
  8.773129e-01    5.649611e-01
  8.931884e-01    6.137434e-01
  9.090640e-01    6.498894e-01
  9.249396e-01    7.488119e-01
  9.408152e-01    8.069931e-01
  9.566907e-01    9.217886e-01
  9.725663e-01    9.940407e-01
  9.884419e-01    1.071213e+00
  1.004317e+00    1.157242e+00
  1.020193e+00    1.251331e+00
  1.036069e+00    1.340796e+00
  1.051944e+00    1.356783e+00
  1.067820e+00    1.495643e+00
  1.083695e+00    1.470241e+00
  1.099571e+00    1.536946e+00
  1.115446e+00    1.569512e+00
  1.131322e+00    1.567751e+00
  1.147198e+00    1.726789e+00
  1.163073e+00    1.815280e+00
  1.178949e+00    1.801450e+00
  1.194824e+00    1.770971e+00
  1.210700e+00    1.882233e+00
  1.226575e+00    2.136326e+00
  1.242451e+00    2.372754e+00
  1.258327e+00    2.466349e+00
  1.274202e+00    2.565097e+00
  1.290078e+00    2.754747e+00
  1.305953e+00    2.857628e+00
  1.321829e+00    2.765617e+00
  1.337705e+00    2.764948e+00
  1.353580e+00    2.698557e+00
  1.369456e+00    2.702363e+00
  1.385331e+00    2.716891e+00
  1.401207e+00    2.910938e+00
  1.417082e+00    3.031485e+00
  1.432958e+00    2.892751e+00
  1.448834e+00    2.899276e+00
  1.464709e+00    2.905292e+00
  1.480585e+00    2.968750e+00
  1.496460e+00    3.047966e+00
  1.512336e+00    3.186252e+00
  1.528211e+00    3.190792e+00
  1.544087e+00    3.308025e+00
  1.559963e+00    3.216058e+00
  1.575838e+00    3.239388e+00
  1.591714e+00    3.117323e+00
  1.607589e+00    3.086991e+00
  1.623465e+00    3.064120e+00
  1.639340e+00    3.002913e+00
  1.655216e+00    3.120316e+00
  1.671092e+00    3.083791e+00
  1.686967e+00    3.012254e+00
  1.702843e+00    3.044760e+00
  1.718718e+00    3.123968e+00
  1.734594e+00    2.978150e+00
  1.750469e+00    2.908253e+00
  1.766345e+00    2.965742e+00
  1.782221e+00    3.032223e+00
  1.798096e+00    3.052394e+00
  1.813972e+00    3.079465e+00
  1.829847e+00    3.042683e+00
  1.845723e+00    3.082638e+00
  1.861598e+00    3.093786e+00
  1.877474e+00    3.060891e+00
  1.893350e+00    2.943366e+00
  1.909225e+00    2.865060e+00
  1.925101e+00    2.930839e+00
  1.940976e+00    3.004107e+00
  1.956852e+00    3.117854e+00
  1.972727e+00    3.082358e+00
  1.988603e+00    3.063641e+00
  2.004479e+00    3.081897e+00
  2.020354e+00    3.141062e+00
  2.036230e+00    3.093028e+00
  2.052105e+00    3.150352e+00
  2.067981e+00    3.123671e+00
  2.083856e+00    3.104692e+00
  2.099732e+00    3.151565e+00
  2.115608e+00    2.958664e+00
  2.131483e+00    2.947191e+00
  2.147359e+00    2.903183e+00
  2.163234e+00    3.048963e+00
  2.179110e+00    3.059195e+00
  2.194985e+00    3.120532e+00
  2.210861e+00    3.072695e+00
  2.226737e+00    3.017115e+00
  2.242612e+00    2.946779e+00
  2.258488e+00    3.078679e+00
  2.274363e+00    3.059780e+00
  2.290239e+00    3.037166e+00
  2.306115e+00    3.227478e+00
  2.321990e+00    3.063009e+00
  2.337866e+00    3.067110e+00
  2.353741e+00    3.119172e+00
  2.369617e+00    3.084040e+00
  2.385492e+00    3.135883e+00
  2.401368e+00    3.106099e+00
  2.417244e+00    3.108563e+00
  2.433119e+00    3.009054e+00
  2.448995e+00    3.118236e+00
  2.464870e+00    3.213166e+00
  2.480746e+00    3.299586e+00
  2.496621e+00    3.225544e+00
  2.512497e+00    3.117931e+00
  2.528373e+00    3.192487e+00
  2.544248e+00    3.218365e+00
  2.560124e+00    3.124588e+00
  2.575999e+00    3.189514e+00
  2.591875e+00    3.179523e+00
  2.607750e+00    3.164622e+00
  2.623626e+00    3.106996e+00
  2.639502e+00    3.202925e+00
  2.655377e+00    3.201806e+00
  2.671253e+00    3.130132e+00
  2.687128e+00    3.140006e+00
  2.703004e+00    3.145249e+00
  2.718879e+00    3.187216e+00
  2.734755e+00    3.319353e+00
  2.750631e+00    3.243273e+00
  2.766506e+00    3.220220e+00
  2.782382e+00    3.172815e+00
  2.798257e+00    3.237844e+00
  2.814133e+00    3.204260e+00
  2.830008e+00    3.171175e+00
  2.845884e+00    3.166186e+00
  2.861760e+00    3.155471e+00
  2.877635e+00    3.178506e+00
  2.893511e+00    3.223503e+00
  2.909386e+00    3.227368e+00
  2.925262e+00    3.159837e+00
  2.941137e+00    3.253677e+00
  2.957013e+00    3.373668e+00
  2.972889e+00    3.252919e+00
  2.988764e+00    3.198203e+00
  3.004640e+00    3.202031e+00
  3.020515e+00    3.267373e+00
  3.036391e+00    3.319960e+00
  3.052266e+00    3.348462e+00
  3.068142e+00    3.334379e+00
  3.084018e+00    3.229970e+00
  3.099893e+00    3.335650e+00
  3.115769e+00    3.456972e+00
  3.131644e+00    3.301565e+00
  3.147520e+00    3.231402e+00
  3.163395e+00    3.358665e+00
  3.179271e+00    3.339073e+00
  3.195147e+00    3.270591e+00
  3.211022e+00    3.336827e+00
  3.226898e+00    3.337622e+00
  3.242773e+00    3.374239e+00
  3.258649e+00    3.303359e+00
  3.274525e+00    3.314569e+00
  3.290400e+00    3.342309e+00
  3.306276e+00    3.449476e+00
  3.322151e+00    3.351621e+00
  3.338027e+00    3.319934e+00
  3.353902e+00    3.345926e+00
  3.369778e+00    3.377110e+00
  3.385654e+00    3.311948e+00
  3.401529e+00    3.295297e+00
  3.417405e+00    3.347495e+00
  3.433280e+00    3.348750e+00
  3.449156e+00    3.422801e+00
  3.465031e+00    3.475039e+00
  3.480907e+00    3.435777e+00
  3.496783e+00    3.428844e+00
  3.512658e+00    3.414241e+00
  3.528534e+00    3.346444e+00
  3.544409e+00    3.308879e+00
  3.560285e+00    3.428174e+00
  3.576160e+00    3.444839e+00
  3.592036e+00    3.341740e+00
  3.607912e+00    3.377226e+00
  3.623787e+00    3.387431e+00
  3.639663e+00    3.433994e+00
  3.655538e+00    3.478776e+00
  3.671414e+00    3.431415e+00
  3.687289e+00    3.415080e+00
  3.703165e+00    3.349866e+00
  3.719041e+00    3.294991e+00
  3.734916e+00    3.356194e+00
  3.750792e+00    3.437551e+00
  3.766667e+00    3.440808e+00
  3.782543e+00    3.472104e+00
  3.798418e+00    3.479287e+00
  3.814294e+00    3.394880e+00
  3.830170e+00    3.480255e+00
  3.846045e+00    3.514393e+00
  3.861921e+00    3.413735e+00
  3.877796e+00    3.446939e+00
  3.893672e+00    3.400844e+00
  3.909547e+00    3.314960e+00
  3.925423e+00    3.419062e+00
  3.941299e+00    3.541086e+00
  3.957174e+00    3.456373e+00
  3.973050e+00    3.399020e+00
  3.988925e+00    3.428686e+00
  4.004801e+00    3.524926e+00
  4.020676e+00    3.521540e+00
  4.036552e+00    3.496782e+00
  4.052428e+00    3.463124e+00
  4.068303e+00    3.533932e+00
  4.084179e+00    3.473221e+00
  4.100054e+00    3.443396e+00
  4.115930e+00    3.491415e+00
  4.131806e+00    3.444199e+00
  4.147681e+00    3.446896e+00
  4.163557e+00    3.485938e+00
  4.179432e+00    3.570322e+00
  4.195308e+00    3.476813e+00
  4.211183e+00    3.451221e+00
  4.227059e+00    3.566465e+00
  4.242935e+00    3.542615e+00
  4.258810e+00    3.454344e+00
  4.274686e+00    3.544699e+00
  4.290561e+00    3.523059e+00
  4.306437e+00    3.519466e+00
  4.322312e+00    3.572396e+00
  4.338188e+00    3.565394e+00
  4.354064e+00    3.447194e+00
  4.369939e+00    3.489438e+00
  4.385815e+00    3.633403e+00
  4.401690e+00    3.516078e+00
  4.417566e+00    3.520106e+00
  4.433441e+00    3.567072e+00
  4.449317e+00    3.510759e+00
  4.465193e+00    3.571767e+00
  4.481068e+00    3.475422e+00
  4.496944e+00    3.533967e+00
  4.512819e+00    3.593283e+00
  4.528695e+00    3.513458e+00
  4.544570e+00    3.472256e+00
  4.560446e+00    3.562931e+00
  4.576322e+00    3.559493e+00
  4.592197e+00    3.530482e+00
  4.608073e+00    3.482560e+00
  4.623948e+00    3.513256e+00
  4.639824e+00    3.602485e+00
  4.655699e+00    3.582032e+00
  4.671575e+00    3.567410e+00
  4.687451e+00    3.555568e+00
  4.703326e+00    3.610424e+00
  4.719202e+00    3.519479e+00
  4.735077e+00    3.610374e+00
  4.750953e+00    3.618121e+00
  4.766828e+00    3.516668e+00
  4.782704e+00    3.576665e+00
  4.798580e+00    3.671660e+00
  4.814455e+00    3.594201e+00
  4.830331e+00    3.602319e+00
  4.846206e+00    3.571022e+00
  4.862082e+00    3.568554e+00
  4.877957e+00    3.576688e+00
  4.893833e+00    3.594498e+00
  4.909709e+00    3.608977e+00
  4.925584e+00    3.597114e+00
  4.941460e+00    3.542530e+00
  4.957335e+00    3.566368e+00
  4.973211e+00    3.617583e+00
  4.989086e+00    3.614263e+00
  5.004962e+00    3.552552e+00
  5.020838e+00    3.545904e+00
  5.036713e+00    3.538179e+00
  5.052589e+00    3.521231e+00
  5.068464e+00    3.601595e+00
  5.084340e+00    3.571040e+00
  5.100216e+00    3.624786e+00
  5.116091e+00    3.618037e+00
  5.131967e+00    3.576052e+00
  5.147842e+00    3.608744e+00
  5.163718e+00    3.583586e+00
  5.179593e+00    3.601541e+00
  5.195469e+00    3.624047e+00
  5.211345e+00    3.584726e+00
  5.227220e+00    3.614117e+00
  5.243096e+00    3.648628e+00
  5.258971e+00    3.544050e+00
  5.274847e+00    3.558861e+00
  5.290722e+00    3.625172e+00
  5.306598e+00    3.620666e+00
  5.322474e+00    3.551942e+00
  5.338349e+00    3.646476e+00
  5.354225e+00    3.642738e+00
  5.370100e+00    3.644544e+00
  5.385976e+00    3.637517e+00
  5.401851e+00    3.609677e+00
  5.417727e+00    3.692445e+00
  5.433603e+00    3.632002e+00
  5.449478e+00    3.501920e+00
  5.465354e+00    3.568091e+00
  5.481229e+00    3.540584e+00
  5.497105e+00    3.591737e+00
  5.512980e+00    3.620485e+00
  5.528856e+00    3.503426e+00
  5.544732e+00    3.523228e+00
  5.560607e+00    3.465897e+00
  5.576483e+00    3.509711e+00
  5.592358e+00    3.479307e+00
  5.608234e+00    3.457008e+00
  5.624109e+00    3.458056e+00
  5.639985e+00    3.518920e+00
  5.655861e+00    3.480325e+00
  5.671736e+00    3.493091e+00
  5.687612e+00    3.526437e+00
  5.703487e+00    3.571295e+00
  5.719363e+00    3.552837e+00
  5.735238e+00    3.550212e+00
  5.751114e+00    3.506346e+00
  5.766990e+00    3.444386e+00
  5.782865e+00    3.516806e+00
  5.798741e+00    3.513450e+00
  5.814616e+00    3.458332e+00
  5.830492e+00    3.487602e+00
  5.846367e+00    3.478080e+00
  5.862243e+00    3.493028e+00
  5.878119e+00    3.505758e+00
  5.893994e+00    3.457873e+00
  5.909870e+00    3.430613e+00
  5.925745e+00    3.485851e+00
  5.941621e+00    3.546233e+00
  5.957497e+00    3.509470e+00
  5.973372e+00    3.467296e+00
  5.989248e+00    3.437570e+00
  6.005123e+00    3.473319e+00
  6.020999e+00    3.525356e+00
  6.036874e+00    3.473207e+00
  6.052750e+00    3.464438e+00
  6.068626e+00    3.469784e+00
  6.084501e+00    3.451860e+00
  6.100377e+00    3.506751e+00
  6.116252e+00    3.527474e+00
  6.132128e+00    3.557065e+00
  6.148003e+00    3.564608e+00
  6.163879e+00    3.609699e+00
  6.179755e+00    3.571906e+00
  6.195630e+00    3.503800e+00
  6.211506e+00    3.524855e+00
  6.227381e+00    3.474354e+00
  6.243257e+00    3.519267e+00
  6.259132e+00    3.621805e+00
  6.275008e+00    3.569117e+00
  6.290884e+00    3.495733e+00
  6.306759e+00    3.414389e+00
  6.322635e+00    3.505992e+00
  6.338510e+00    3.537308e+00
  6.354386e+00    3.487145e+00
  6.370261e+00    3.477386e+00
  6.386137e+00    3.459247e+00
  6.402013e+00    3.385597e+00
  6.417888e+00    3.497870e+00
  6.433764e+00    3.504708e+00
  6.449639e+00    3.520295e+00
  6.465515e+00    3.478944e+00
  6.481390e+00    3.469174e+00
  6.497266e+00    3.493639e+00
  6.513142e+00    3.493065e+00
  6.529017e+00    3.573260e+00
  6.544893e+00    3.513497e+00
  6.560768e+00    3.514311e+00
  6.576644e+00    3.476961e+00
  6.592519e+00    3.420736e+00
  6.608395e+00    3.459489e+00
  6.624271e+00    3.478524e+00
  6.640146e+00    3.544258e+00
  6.656022e+00    3.476954e+00
  6.671897e+00    3.545814e+00
  6.687773e+00    3.459166e+00
  6.703648e+00    3.458580e+00
  6.719524e+00    3.515569e+00
  6.735400e+00    3.538697e+00
  6.751275e+00    3.544139e+00
  6.767151e+00    3.499931e+00
  6.783026e+00    3.477950e+00
  6.798902e+00    3.522789e+00
  6.814777e+00    3.581189e+00
  6.830653e+00    3.465582e+00
  6.846529e+00    3.498886e+00
  6.862404e+00    3.504071e+00
  6.878280e+00    3.535603e+00
  6.894155e+00    3.514509e+00
  6.910031e+00    3.406844e+00
  6.925907e+00    3.416981e+00
  6.941782e+00    3.487485e+00
  6.957658e+00    3.401048e+00
  6.973533e+00    3.467287e+00
  6.989409e+00    3.544578e+00
  7.005284e+00    3.545264e+00
  7.021160e+00    3.467980e+00
  7.037036e+00    3.435217e+00
  7.052911e+00    3.505422e+00
  7.068787e+00    3.506358e+00
  7.084662e+00    3.498815e+00
  7.100538e+00    3.420398e+00
  7.116413e+00    3.379315e+00
  7.132289e+00    3.460253e+00
  7.148165e+00    3.418860e+00
  7.164040e+00    3.388767e+00
  7.179916e+00    3.463359e+00
  7.195791e+00    3.400105e+00
  7.211667e+00    3.446559e+00
  7.227542e+00    3.434210e+00
  7.243418e+00    3.464237e+00
  7.259294e+00    3.497279e+00
  7.275169e+00    3.426438e+00
  7.291045e+00    3.415005e+00
  7.306920e+00    3.391063e+00
  7.322796e+00    3.418394e+00
  7.338671e+00    3.455902e+00
  7.354547e+00    3.467881e+00
  7.370423e+00    3.419510e+00
  7.386298e+00    3.464267e+00
  7.402174e+00    3.519289e+00
  7.418049e+00    3.428532e+00
  7.433925e+00    3.469258e+00
  7.449800e+00    3.474957e+00
  7.465676e+00    3.412258e+00
  7.481552e+00    3.475143e+00
  7.497427e+00    3.401759e+00
  7.513303e+00    3.320446e+00
  7.529178e+00    3.364402e+00
  7.545054e+00    3.424644e+00
  7.560929e+00    3.370749e+00
  7.576805e+00    3.410488e+00
  7.592681e+00    3.404737e+00
  7.608556e+00    3.461442e+00
  7.624432e+00    3.445631e+00
  7.640307e+00    3.421479e+00
  7.656183e+00    3.408663e+00
  7.672058e+00    3.370898e+00
  7.687934e+00    3.367048e+00
  7.703810e+00    3.371095e+00
  7.719685e+00    3.357168e+00
  7.735561e+00    3.390610e+00
  7.751436e+00    3.388282e+00
  7.767312e+00    3.388359e+00
  7.783187e+00    3.392054e+00
  7.799063e+00    3.404602e+00
  7.814939e+00    3.371419e+00
  7.830814e+00    3.413568e+00
  7.846690e+00    3.449576e+00
  7.862565e+00    3.427849e+00
  7.878441e+00    3.390475e+00
  7.894317e+00    3.369620e+00
  7.910192e+00    3.388867e+00
  7.926068e+00    3.405450e+00
  7.941943e+00    3.343362e+00
  7.957819e+00    3.372264e+00
  7.973694e+00    3.389274e+00
  7.989570e+00    3.378038e+00
  8.005446e+00    3.270564e+00
  8.021321e+00    3.364778e+00
  8.037197e+00    3.412003e+00
  8.053072e+00    3.492754e+00
  8.068948e+00    3.392136e+00
  8.084823e+00    3.360302e+00
  8.100699e+00    3.454165e+00
  8.116575e+00    3.392939e+00
  8.132450e+00    3.368958e+00
  8.148326e+00    3.397626e+00
  8.164201e+00    3.328741e+00
  8.180077e+00    3.322139e+00
  8.195952e+00    3.414312e+00
  8.211828e+00    3.399354e+00
  8.227704e+00    3.415617e+00
  8.243579e+00    3.399943e+00
  8.259455e+00    3.349902e+00
  8.275330e+00    3.381737e+00
  8.291206e+00    3.374814e+00
  8.307081e+00    3.281291e+00
  8.322957e+00    3.334211e+00
  8.338833e+00    3.331902e+00
  8.354708e+00    3.325186e+00
  8.370584e+00    3.314121e+00
  8.386459e+00    3.385804e+00
  8.402335e+00    3.294215e+00
  8.418210e+00    3.341589e+00
  8.434086e+00    3.297785e+00
  8.449962e+00    3.323047e+00
  8.465837e+00    3.372724e+00
  8.481713e+00    3.388477e+00
  8.497588e+00    3.368137e+00
  8.513464e+00    3.410890e+00
  8.529339e+00    3.306016e+00
  8.545215e+00    3.265100e+00
  8.561091e+00    3.341438e+00
  8.576966e+00    3.287230e+00
  8.592842e+00    3.320921e+00
  8.608717e+00    3.366585e+00
  8.624593e+00    3.287776e+00
  8.640468e+00    3.321314e+00
  8.656344e+00    3.265370e+00
  8.672220e+00    3.299933e+00
  8.688095e+00    3.300855e+00
  8.703971e+00    3.270855e+00
  8.719846e+00    3.284821e+00
  8.735722e+00    3.296259e+00
  8.751598e+00    3.321881e+00
  8.767473e+00    3.257072e+00
  8.783349e+00    3.290912e+00
  8.799224e+00    3.315865e+00
  8.815100e+00    3.302922e+00
  8.830975e+00    3.328587e+00
  8.846851e+00    3.248955e+00
  8.862727e+00    3.208012e+00
  8.878602e+00    3.221458e+00
  8.894478e+00    3.236098e+00
  8.910353e+00    3.270574e+00
  8.926229e+00    3.323363e+00
  8.942104e+00    3.223845e+00
  8.957980e+00    3.233986e+00
  8.973856e+00    3.261720e+00
  8.989731e+00    3.228250e+00
  9.005607e+00    3.204649e+00
  9.021482e+00    3.257370e+00
  9.037358e+00    3.272715e+00
  9.053233e+00    3.238034e+00
  9.069109e+00    3.191053e+00
  9.084985e+00    3.228999e+00
  9.100860e+00    3.180077e+00
  9.116736e+00    3.178082e+00
  9.132611e+00    3.159242e+00
  9.148487e+00    3.171705e+00
  9.164362e+00    3.219043e+00
  9.180238e+00    3.229599e+00
  9.196114e+00    3.159683e+00
  9.211989e+00    3.231997e+00
  9.227865e+00    3.254755e+00
  9.243740e+00    3.208057e+00
  9.259616e+00    3.184238e+00
  9.275491e+00    3.211774e+00
  9.291367e+00    3.213396e+00
  9.307243e+00    3.217036e+00
  9.323118e+00    3.164485e+00
  9.338994e+00    3.176565e+00
  9.354869e+00    3.204582e+00
  9.370745e+00    3.141601e+00
  9.386620e+00    3.153419e+00
  9.402496e+00    3.120578e+00
  9.418372e+00    3.188169e+00
  9.434247e+00    3.122203e+00
  9.450123e+00    3.143443e+00
  9.465998e+00    3.099841e+00
  9.481874e+00    3.152372e+00
  9.497749e+00    3.123665e+00
  9.513625e+00    3.120704e+00
  9.529501e+00    3.196279e+00
  9.545376e+00    3.238232e+00
  9.561252e+00    3.166641e+00
  9.577127e+00    3.107944e+00
  9.593003e+00    3.116504e+00
  9.608878e+00    3.155588e+00
  9.624754e+00    3.184656e+00
  9.640630e+00    3.148274e+00
  9.656505e+00    3.132021e+00
  9.672381e+00    3.138869e+00
  9.688256e+00    3.177478e+00
  9.704132e+00    3.112449e+00
  9.720008e+00    3.122572e+00
  9.735883e+00    3.120389e+00
  9.751759e+00    3.093745e+00
  9.767634e+00    3.033764e+00
  9.783510e+00    3.065838e+00
  9.799385e+00    3.068618e+00
  9.815261e+00    3.057181e+00
  9.831137e+00    3.102117e+00
  9.847012e+00    3.106456e+00
  9.862888e+00    3.123421e+00
  9.878763e+00    3.159593e+00
  9.894639e+00    3.063616e+00
  9.910514e+00    3.096876e+00
  9.926390e+00    3.030774e+00
  9.942266e+00    3.075358e+00
  9.958141e+00    3.089015e+00
  9.974017e+00    3.069925e+00
  9.989892e+00    3.005104e+00
  1.000577e+01    3.076115e+00
  1.002164e+01    3.016287e+00
  1.003752e+01    3.072810e+00
  1.005339e+01    3.055268e+00
  1.006927e+01    3.013062e+00
  1.008515e+01    3.024576e+00
  1.010102e+01    3.015901e+00
  1.011690e+01    3.097987e+00
  1.013277e+01    3.069797e+00
  1.014865e+01    3.024909e+00
  1.016452e+01    2.998105e+00
  1.018040e+01    3.015247e+00
  1.019627e+01    2.989843e+00
  1.021215e+01    3.007578e+00
  1.022803e+01    3.018959e+00
  1.024390e+01    3.026568e+00
  1.025978e+01    3.042345e+00
  1.027565e+01    2.977382e+00
  1.029153e+01    3.019658e+00
  1.030740e+01    3.008689e+00
  1.032328e+01    3.004904e+00
  1.033915e+01    3.006701e+00
  1.035503e+01    3.005062e+00
  1.037091e+01    2.988548e+00
  1.038678e+01    3.032428e+00
  1.040266e+01    2.993285e+00
  1.041853e+01    2.932698e+00
  1.043441e+01    2.993149e+00
  1.045028e+01    3.034477e+00
  1.046616e+01    3.021307e+00
  1.048204e+01    3.013664e+00
  1.049791e+01    2.975109e+00
  1.051379e+01    2.949366e+00
  1.052966e+01    2.980201e+00
  1.054554e+01    3.012427e+00
  1.056141e+01    2.978217e+00
  1.057729e+01    2.950060e+00
  1.059316e+01    2.968483e+00
  1.060904e+01    3.011484e+00
  1.062492e+01    2.995960e+00
  1.064079e+01    2.932471e+00
  1.065667e+01    2.879182e+00
  1.067254e+01    2.894515e+00
  1.068842e+01    2.893569e+00
  1.070429e+01    2.923910e+00
  1.072017e+01    2.943052e+00
  1.073604e+01    2.957897e+00
  1.075192e+01    2.974431e+00
  1.076780e+01    2.953221e+00
  1.078367e+01    2.908904e+00
  1.079955e+01    2.899423e+00
  1.081542e+01    2.900722e+00
  1.083130e+01    2.958553e+00
  1.084717e+01    2.886391e+00
  1.086305e+01    2.884924e+00
  1.087892e+01    2.892067e+00
  1.089480e+01    2.937244e+00
  1.091068e+01    2.917214e+00
  1.092655e+01    2.857023e+00
  1.094243e+01    2.836905e+00
  1.095830e+01    2.842957e+00
  1.097418e+01    2.873921e+00
  1.099005e+01    2.902503e+00
  1.100593e+01    2.899127e+00
  1.102180e+01    2.845750e+00
  1.103768e+01    2.836965e+00
  1.105356e+01    2.870823e+00
  1.106943e+01    2.888000e+00
  1.108531e+01    2.861126e+00
  1.110118e+01    2.839471e+00
  1.111706e+01    2.858783e+00
  1.113293e+01    2.855530e+00
  1.114881e+01    2.820856e+00
  1.116468e+01    2.863296e+00
  1.118056e+01    2.874674e+00
  1.119644e+01    2.805470e+00
  1.121231e+01    2.824152e+00
  1.122819e+01    2.816231e+00
  1.124406e+01    2.819165e+00
  1.125994e+01    2.804042e+00
  1.127581e+01    2.779886e+00
  1.129169e+01    2.787425e+00
  1.130756e+01    2.806945e+00
  1.132344e+01    2.794165e+00
  1.133932e+01    2.770883e+00
  1.135519e+01    2.791296e+00
  1.137107e+01    2.785841e+00
  1.138694e+01    2.784531e+00
  1.140282e+01    2.793788e+00
  1.141869e+01    2.769951e+00
  1.143457e+01    2.765037e+00
  1.145045e+01    2.767389e+00
  1.146632e+01    2.768630e+00
  1.148220e+01    2.756488e+00
  1.149807e+01    2.729069e+00
  1.151395e+01    2.766771e+00
  1.152982e+01    2.790689e+00
  1.154570e+01    2.754265e+00
  1.156157e+01    2.741496e+00
  1.157745e+01    2.767379e+00
  1.159333e+01    2.782168e+00
  1.160920e+01    2.764944e+00
  1.162508e+01    2.775068e+00
  1.164095e+01    2.740609e+00
  1.165683e+01    2.734891e+00
  1.167270e+01    2.771927e+00
  1.168858e+01    2.745812e+00
  1.170445e+01    2.688992e+00
  1.172033e+01    2.676521e+00
  1.173621e+01    2.662341e+00
  1.175208e+01    2.702945e+00
  1.176796e+01    2.737222e+00
  1.178383e+01    2.736024e+00
  1.179971e+01    2.713993e+00
  1.181558e+01    2.692253e+00
  1.183146e+01    2.698105e+00
  1.184733e+01    2.691381e+00
  1.186321e+01    2.669202e+00
  1.187909e+01    2.688564e+00
  1.189496e+01    2.696433e+00
  1.191084e+01    2.677654e+00
  1.192671e+01    2.721703e+00
  1.194259e+01    2.706792e+00
  1.195846e+01    2.667538e+00
  1.197434e+01    2.701405e+00
  1.199021e+01    2.705963e+00
  1.200609e+01    2.675480e+00
  1.202197e+01    2.626624e+00
  1.203784e+01    2.620686e+00
  1.205372e+01    2.642573e+00
  1.206959e+01    2.680789e+00
  1.208547e+01    2.689344e+00
  1.210134e+01    2.689072e+00
  1.211722e+01    2.693322e+00
  1.213309e+01    2.614310e+00
  1.214897e+01    2.648542e+00
  1.216485e+01    2.704156e+00
  1.218072e+01    2.689360e+00
  1.219660e+01    2.679281e+00
  1.221247e+01    2.673228e+00
  1.222835e+01    2.659824e+00
  1.224422e+01    2.627937e+00
  1.226010e+01    2.682892e+00
  1.227597e+01    2.705176e+00
  1.229185e+01    2.679794e+00
  1.230773e+01    2.639544e+00
  1.232360e+01    2.600621e+00
  1.233948e+01    2.648875e+00
  1.235535e+01    2.686001e+00
  1.237123e+01    2.655931e+00
  1.238710e+01    2.639549e+00
  1.240298e+01    2.639534e+00
  1.241886e+01    2.598946e+00
  1.243473e+01    2.584028e+00
  1.245061e+01    2.601299e+00
  1.246648e+01    2.666209e+00
  1.248236e+01    2.655637e+00
  1.249823e+01    2.639449e+00
  1.251411e+01    2.695568e+00
  1.252998e+01    2.696398e+00
  1.254586e+01    2.683760e+00
  1.256174e+01    2.694678e+00
  1.257761e+01    2.672289e+00
  1.259349e+01    2.697745e+00
  1.260936e+01    2.708638e+00
  1.262524e+01    2.681633e+00
  1.264111e+01    2.686740e+00
  1.265699e+01    2.646173e+00
  1.267286e+01    2.713362e+00
  1.268874e+01    2.732762e+00
  1.270462e+01    2.766317e+00
  1.272049e+01    2.765035e+00
  1.273637e+01    2.854332e+00
  1.275224e+01    2.884853e+00
  1.276812e+01    2.891566e+00
  1.278399e+01    2.925438e+00
  1.279987e+01    2.935131e+00
  1.281574e+01    3.035748e+00
  1.283162e+01    3.086478e+00
  1.284750e+01    3.187912e+00
  1.286337e+01    3.297714e+00
  1.287925e+01    3.392065e+00
  1.289512e+01    3.493336e+00
  1.291100e+01    3.639776e+00
  1.292687e+01    3.800201e+00
  1.294275e+01    4.024746e+00
  1.295862e+01    4.407688e+00
  1.297450e+01    4.770034e+00
  1.299038e+01    5.238876e+00
  1.300625e+01    5.812699e+00
  1.302213e+01    6.624516e+00
  1.303800e+01    7.656120e+00
  1.305388e+01    8.685703e+00
  1.306975e+01    9.999321e+00
  1.308563e+01    1.135818e+01
  1.310150e+01    1.253934e+01
  1.311738e+01    1.356361e+01
  1.313326e+01    1.454854e+01
  1.314913e+01    1.539163e+01
  1.316501e+01    1.598000e+01
  1.318088e+01    1.604356e+01
  1.319676e+01    1.542311e+01
  1.321263e+01    1.400937e+01
  1.322851e+01    1.224142e+01
  1.324438e+01    1.049835e+01
  1.326026e+01    8.907679e+00
  1.327614e+01    7.620772e+00
  1.329201e+01    6.673361e+00
  1.330789e+01    5.872427e+00
  1.332376e+01    5.247534e+00
  1.333964e+01    4.763116e+00
  1.335551e+01    4.348470e+00
  1.337139e+01    4.044513e+00
  1.338727e+01    3.821780e+00
  1.340314e+01    3.578447e+00
  1.341902e+01    3.405009e+00
  1.343489e+01    3.333376e+00
  1.345077e+01    3.182943e+00
  1.346664e+01    3.047579e+00
  1.348252e+01    3.004786e+00
  1.349839e+01    2.953226e+00
  1.351427e+01    2.914118e+00
  1.353015e+01    2.830603e+00
  1.354602e+01    2.746825e+00
  1.356190e+01    2.707670e+00
  1.357777e+01    2.701564e+00
  1.359365e+01    2.675235e+00
  1.360952e+01    2.625623e+00
  1.362540e+01    2.615599e+00
  1.364127e+01    2.569409e+00
  1.365715e+01    2.557968e+00
  1.367303e+01    2.573900e+00
  1.368890e+01    2.557862e+00
  1.370478e+01    2.539193e+00
  1.372065e+01    2.468195e+00
  1.373653e+01    2.448534e+00
  1.375240e+01    2.454290e+00
  1.376828e+01    2.465524e+00
  1.378415e+01    2.443566e+00
  1.380003e+01    2.439471e+00
  1.381591e+01    2.410266e+00
  1.383178e+01    2.387161e+00
  1.384766e+01    2.376036e+00
  1.386353e+01    2.381524e+00
  1.387941e+01    2.339027e+00
  1.389528e+01    2.355283e+00
  1.391116e+01    2.388780e+00
  1.392703e+01    2.368204e+00
  1.394291e+01    2.338645e+00
  1.395879e+01    2.360385e+00
  1.397466e+01    2.340682e+00
  1.399054e+01    2.309363e+00
  1.400641e+01    2.289777e+00
  1.402229e+01    2.324051e+00
  1.403816e+01    2.322544e+00
  1.405404e+01    2.325614e+00
  1.406991e+01    2.311839e+00
  1.408579e+01    2.280943e+00
  1.410167e+01    2.313668e+00
  1.411754e+01    2.336863e+00
  1.413342e+01    2.287921e+00
  1.414929e+01    2.259610e+00
  1.416517e+01    2.273340e+00
  1.418104e+01    2.280311e+00
  1.419692e+01    2.280553e+00
  1.421279e+01    2.274252e+00
  1.422867e+01    2.287014e+00
  1.424455e+01    2.283357e+00
  1.426042e+01    2.259103e+00
  1.427630e+01    2.213448e+00
  1.429217e+01    2.208015e+00
  1.430805e+01    2.234920e+00
  1.432392e+01    2.239384e+00
  1.433980e+01    2.165419e+00
  1.435568e+01    2.201895e+00
  1.437155e+01    2.246639e+00
  1.438743e+01    2.248783e+00
  1.440330e+01    2.219520e+00
  1.441918e+01    2.174207e+00
  1.443505e+01    2.196802e+00
  1.445093e+01    2.219062e+00
  1.446680e+01    2.192873e+00
  1.448268e+01    2.180289e+00
  1.449856e+01    2.177208e+00
  1.451443e+01    2.179462e+00
  1.453031e+01    2.149994e+00
  1.454618e+01    2.162608e+00
  1.456206e+01    2.161501e+00
  1.457793e+01    2.177025e+00
  1.459381e+01    2.216156e+00
  1.460968e+01    2.214401e+00
  1.462556e+01    2.199386e+00
  1.464144e+01    2.194827e+00
  1.465731e+01    2.176223e+00
  1.467319e+01    2.176528e+00
  1.468906e+01    2.144994e+00
  1.470494e+01    2.143418e+00
  1.472081e+01    2.142623e+00
  1.473669e+01    2.141693e+00
  1.475256e+01    2.177561e+00
  1.476844e+01    2.192346e+00
  1.478432e+01    2.157739e+00
  1.480019e+01    2.163794e+00
  1.481607e+01    2.169402e+00
  1.483194e+01    2.144680e+00
  1.484782e+01    2.166888e+00
  1.486369e+01    2.189243e+00
  1.487957e+01    2.162054e+00
  1.489544e+01    2.161523e+00
  1.491132e+01    2.204433e+00
  1.492720e+01    2.237073e+00
  1.494307e+01    2.242526e+00
  1.495895e+01    2.267613e+00
  1.497482e+01    2.289232e+00
  1.499070e+01    2.357897e+00
  1.500657e+01    2.400025e+00
  1.502245e+01    2.463416e+00
  1.503832e+01    2.520500e+00
  1.505420e+01    2.659824e+00
  1.507008e+01    2.788530e+00
  1.508595e+01    2.903609e+00
  1.510183e+01    3.090242e+00
  1.511770e+01    3.370250e+00
  1.513358e+01    3.769989e+00
  1.514945e+01    4.104584e+00
  1.516533e+01    4.470057e+00
  1.518120e+01    4.814309e+00
  1.519708e+01    5.104941e+00
  1.521296e+01    5.366947e+00
  1.522883e+01    5.545432e+00
  1.524471e+01    5.739387e+00
  1.526058e+01    5.676812e+00
  1.527646e+01    5.600007e+00
  1.529233e+01    5.310563e+00
  1.530821e+01    5.018405e+00
  1.532409e+01    4.584137e+00
  1.533996e+01    4.095721e+00
  1.535584e+01    3.711201e+00
  1.537171e+01    3.404584e+00
  1.538759e+01    3.132473e+00
  1.540346e+01    2.922736e+00
  1.541934e+01    2.730633e+00
  1.543521e+01    2.529467e+00
  1.545109e+01    2.447079e+00
  1.546697e+01    2.412516e+00
  1.548284e+01    2.306079e+00
  1.549872e+01    2.219487e+00
  1.551459e+01    2.184141e+00
  1.553047e+01    2.208885e+00
  1.554634e+01    2.140411e+00
  1.556222e+01    2.156519e+00
  1.557809e+01    2.122660e+00
  1.559397e+01    2.066118e+00
  1.560985e+01    2.046308e+00
  1.562572e+01    2.029933e+00
  1.564160e+01    2.012613e+00
  1.565747e+01    2.040307e+00
  1.567335e+01    2.015794e+00
  1.568922e+01    2.014543e+00
  1.570510e+01    1.963515e+00
  1.572097e+01    1.921684e+00
  1.573685e+01    1.957696e+00
  1.575273e+01    1.965324e+00
  1.576860e+01    1.946466e+00
  1.578448e+01    1.944166e+00
  1.580035e+01    1.912085e+00
  1.581623e+01    1.911259e+00
  1.583210e+01    1.915633e+00
  1.584798e+01    1.926154e+00
  1.586385e+01    1.883633e+00
  1.587973e+01    1.880040e+00
  1.589561e+01    1.896156e+00
  1.591148e+01    1.885511e+00
  1.592736e+01    1.844086e+00
  1.594323e+01    1.827866e+00
  1.595911e+01    1.857278e+00
  1.597498e+01    1.852928e+00
  1.599086e+01    1.872399e+00
  1.600673e+01    1.854177e+00
  1.602261e+01    1.840568e+00
  1.603849e+01    1.861827e+00
  1.605436e+01    1.873130e+00
  1.607024e+01    1.846702e+00
  1.608611e+01    1.784354e+00
  1.610199e+01    1.764461e+00
  1.611786e+01    1.804193e+00
  1.613374e+01    1.831130e+00
  1.614961e+01    1.804720e+00
  1.616549e+01    1.806257e+00
  1.618137e+01    1.794192e+00
  1.619724e+01    1.785263e+00
  1.621312e+01    1.841084e+00
  1.622899e+01    1.813990e+00
  1.624487e+01    1.769190e+00
  1.626074e+01    1.780701e+00
  1.627662e+01    1.764839e+00
  1.629250e+01    1.789321e+00
  1.630837e+01    1.767658e+00
  1.632425e+01    1.746764e+00
  1.634012e+01    1.781572e+00
  1.635600e+01    1.774853e+00
  1.637187e+01    1.782619e+00
  1.638775e+01    1.753236e+00
  1.640362e+01    1.729131e+00
  1.641950e+01    1.728832e+00
  1.643538e+01    1.725000e+00
  1.645125e+01    1.742681e+00
  1.646713e+01    1.763622e+00
  1.648300e+01    1.761751e+00
  1.649888e+01    1.751820e+00
  1.651475e+01    1.753459e+00
  1.653063e+01    1.721530e+00
  1.654650e+01    1.743813e+00
  1.656238e+01    1.736729e+00
  1.657826e+01    1.687961e+00
  1.659413e+01    1.672850e+00
  1.661001e+01    1.684199e+00
  1.662588e+01    1.694714e+00
  1.664176e+01    1.707923e+00
  1.665763e+01    1.700756e+00
  1.667351e+01    1.692674e+00
  1.668938e+01    1.668307e+00
  1.670526e+01    1.681668e+00
  1.672114e+01    1.687539e+00
  1.673701e+01    1.707296e+00
  1.675289e+01    1.707724e+00
  1.676876e+01    1.675755e+00
  1.678464e+01    1.673700e+00
  1.680051e+01    1.651431e+00
  1.681639e+01    1.701093e+00
  1.683226e+01    1.710638e+00
  1.684814e+01    1.689521e+00
  1.686402e+01    1.672147e+00
  1.687989e+01    1.645269e+00
  1.689577e+01    1.640077e+00
  1.691164e+01    1.649181e+00
  1.692752e+01    1.654505e+00
  1.694339e+01    1.686390e+00
  1.695927e+01    1.654278e+00
  1.697514e+01    1.619782e+00
  1.699102e+01    1.633343e+00
  1.700690e+01    1.622611e+00
  1.702277e+01    1.653204e+00
  1.703865e+01    1.685081e+00
  1.705452e+01    1.627895e+00
  1.707040e+01    1.633938e+00
  1.708627e+01    1.634033e+00
  1.710215e+01    1.610782e+00
  1.711802e+01    1.628778e+00
  1.713390e+01    1.620239e+00
  1.714978e+01    1.615261e+00
  1.716565e+01    1.625985e+00
  1.718153e+01    1.643457e+00
  1.719740e+01    1.640606e+00
  1.721328e+01    1.613196e+00
  1.722915e+01    1.633713e+00
  1.724503e+01    1.598929e+00
  1.726091e+01    1.570196e+00
  1.727678e+01    1.582035e+00
  1.729266e+01    1.574779e+00
  1.730853e+01    1.574833e+00
  1.732441e+01    1.596997e+00
  1.734028e+01    1.575463e+00
  1.735616e+01    1.548811e+00
  1.737203e+01    1.538222e+00
  1.738791e+01    1.592273e+00
  1.740379e+01    1.569726e+00
  1.741966e+01    1.574232e+00
  1.743554e+01    1.564556e+00
  1.745141e+01    1.566907e+00
  1.746729e+01    1.593482e+00
  1.748316e+01    1.557348e+00
  1.749904e+01    1.524845e+00
  1.751491e+01    1.553944e+00
  1.753079e+01    1.569452e+00
  1.754667e+01    1.557071e+00
  1.756254e+01    1.575310e+00
  1.757842e+01    1.550474e+00
  1.759429e+01    1.560494e+00
  1.761017e+01    1.550649e+00
  1.762604e+01    1.533229e+00
  1.764192e+01    1.531228e+00
  1.765779e+01    1.541425e+00
  1.767367e+01    1.539160e+00
  1.768955e+01    1.514580e+00
  1.770542e+01    1.488120e+00
  1.772130e+01    1.499305e+00
  1.773717e+01    1.532850e+00
  1.775305e+01    1.519196e+00
  1.776892e+01    1.517628e+00
  1.778480e+01    1.507169e+00
  1.780067e+01    1.531374e+00
  1.781655e+01    1.515009e+00
  1.783243e+01    1.507946e+00
  1.784830e+01    1.514415e+00
  1.786418e+01    1.505857e+00
  1.788005e+01    1.508178e+00
  1.789593e+01    1.489581e+00
  1.791180e+01    1.509715e+00
  1.792768e+01    1.503077e+00
  1.794355e+01    1.508445e+00
  1.795943e+01    1.499037e+00
  1.797531e+01    1.505000e+00
  1.799118e+01    1.481297e+00
  1.800706e+01    1.475769e+00
  1.802293e+01    1.469692e+00
  1.803881e+01    1.457222e+00
  1.805468e+01    1.456256e+00
  1.807056e+01    1.472245e+00
  1.808643e+01    1.468130e+00
  1.810231e+01    1.471413e+00
  1.811819e+01    1.444992e+00
  1.813406e+01    1.453176e+00
  1.814994e+01    1.461586e+00
  1.816581e+01    1.460808e+00
  1.818169e+01    1.445983e+00
  1.819756e+01    1.460208e+00
  1.821344e+01    1.460907e+00
  1.822932e+01    1.462364e+00
  1.824519e+01    1.478895e+00
  1.826107e+01    1.507904e+00
  1.827694e+01    1.460018e+00
  1.829282e+01    1.468430e+00
  1.830869e+01    1.455244e+00
  1.832457e+01    1.433447e+00
  1.834044e+01    1.450886e+00
  1.835632e+01    1.467975e+00
  1.837220e+01    1.445255e+00
  1.838807e+01    1.462247e+00
  1.840395e+01    1.418988e+00
  1.841982e+01    1.410393e+00
  1.843570e+01    1.426435e+00
  1.845157e+01    1.411147e+00
  1.846745e+01    1.432221e+00
  1.848332e+01    1.451362e+00
  1.849920e+01    1.404989e+00
  1.851508e+01    1.417136e+00
  1.853095e+01    1.436660e+00
  1.854683e+01    1.406902e+00
  1.856270e+01    1.384730e+00
  1.857858e+01    1.427513e+00
  1.859445e+01    1.444968e+00
  1.861033e+01    1.420671e+00
  1.862620e+01    1.420589e+00
  1.864208e+01    1.407932e+00
  1.865796e+01    1.424948e+00
  1.867383e+01    1.417277e+00
  1.868971e+01    1.396453e+00
  1.870558e+01    1.396200e+00
  1.872146e+01    1.376451e+00
  1.873733e+01    1.399442e+00
  1.875321e+01    1.398817e+00
  1.876908e+01    1.384581e+00
  1.878496e+01    1.379059e+00
  1.880084e+01    1.371991e+00
  1.881671e+01    1.375450e+00
  1.883259e+01    1.392745e+00
  1.884846e+01    1.351132e+00
  1.886434e+01    1.358087e+00
  1.888021e+01    1.368953e+00
  1.889609e+01    1.365646e+00
  1.891196e+01    1.393555e+00
  1.892784e+01    1.388472e+00
  1.894372e+01    1.400259e+00
  1.895959e+01    1.384082e+00
  1.897547e+01    1.343530e+00
  1.899134e+01    1.330201e+00
  1.900722e+01    1.339969e+00
  1.902309e+01    1.352960e+00
  1.903897e+01    1.406501e+00
  1.905484e+01    1.343729e+00
  1.907072e+01    1.303533e+00
  1.908660e+01    1.322885e+00
  1.910247e+01    1.334560e+00
  1.911835e+01    1.323393e+00
  1.913422e+01    1.335973e+00
  1.915010e+01    1.338225e+00
  1.916597e+01    1.364027e+00
  1.918185e+01    1.369121e+00
  1.919773e+01    1.348660e+00
  1.921360e+01    1.361511e+00
  1.922948e+01    1.362298e+00
  1.924535e+01    1.327844e+00
  1.926123e+01    1.335348e+00
  1.927710e+01    1.328597e+00
  1.929298e+01    1.341600e+00
  1.930885e+01    1.331940e+00
  1.932473e+01    1.315831e+00
  1.934061e+01    1.330850e+00
  1.935648e+01    1.329953e+00
  1.937236e+01    1.320391e+00
  1.938823e+01    1.317643e+00
  1.940411e+01    1.323382e+00
  1.941998e+01    1.338780e+00
  1.943586e+01    1.301322e+00
  1.945173e+01    1.306287e+00
  1.946761e+01    1.308987e+00
  1.948349e+01    1.305935e+00
  1.949936e+01    1.320373e+00
  1.951524e+01    1.301262e+00
  1.953111e+01    1.302826e+00
  1.954699e+01    1.306197e+00
  1.956286e+01    1.317686e+00
  1.957874e+01    1.325366e+00
  1.959461e+01    1.296393e+00
  1.961049e+01    1.318896e+00
  1.962637e+01    1.328766e+00
  1.964224e+01    1.279834e+00
  1.965812e+01    1.299071e+00
  1.967399e+01    1.309781e+00
  1.968987e+01    1.303973e+00
  1.970574e+01    1.281103e+00
  1.972162e+01    1.285781e+00
  1.973749e+01    1.321794e+00
  1.975337e+01    1.304775e+00
  1.976925e+01    1.289210e+00
  1.978512e+01    1.309969e+00
  1.980100e+01    1.284104e+00
  1.981687e+01    1.271405e+00
  1.983275e+01    1.287886e+00
  1.984862e+01    1.277607e+00
  1.986450e+01    1.269078e+00
  1.988037e+01    1.277373e+00
  1.989625e+01    1.272779e+00
  1.991213e+01    1.254589e+00
  1.992800e+01    1.276515e+00
  1.994388e+01    1.277960e+00
  1.995975e+01    1.294464e+00
  1.997563e+01    1.265978e+00
  1.999150e+01    1.238585e+00
  2.000738e+01    1.263834e+00
  2.002325e+01    1.291011e+00
  2.003913e+01    1.285493e+00
  2.005501e+01    1.264283e+00
  2.007088e+01    1.241618e+00
  2.008676e+01    1.225577e+00
  2.010263e+01    1.244180e+00
  2.011851e+01    1.227916e+00
  2.013438e+01    1.259549e+00
  2.015026e+01    1.254585e+00
  2.016614e+01    1.244742e+00
  2.018201e+01    1.231206e+00
  2.019789e+01    1.247936e+00
  2.021376e+01    1.257004e+00
  2.022964e+01    1.248329e+00
  2.024551e+01    1.223679e+00
  2.026139e+01    1.248403e+00
  2.027726e+01    1.249286e+00
  2.029314e+01    1.248293e+00
  2.030902e+01    1.239134e+00
  2.032489e+01    1.249332e+00
  2.034077e+01    1.237833e+00
  2.035664e+01    1.222021e+00
  2.037252e+01    1.210550e+00
  2.038839e+01    1.201900e+00
  2.040427e+01    1.229312e+00
  2.042014e+01    1.229668e+00
  2.043602e+01    1.226503e+00
  2.045190e+01    1.233837e+00
  2.046777e+01    1.213768e+00
  2.048365e+01    1.225022e+00
  2.049952e+01    1.235336e+00
  2.051540e+01    1.216445e+00
  2.053127e+01    1.201934e+00
  2.054715e+01    1.224748e+00
  2.056302e+01    1.225720e+00
  2.057890e+01    1.242468e+00
  2.059478e+01    1.236924e+00
  2.061065e+01    1.205726e+00
  2.062653e+01    1.174951e+00
  2.064240e+01    1.191472e+00
  2.065828e+01    1.208714e+00
  2.067415e+01    1.214062e+00
  2.069003e+01    1.211288e+00
  2.070590e+01    1.190498e+00
  2.072178e+01    1.184478e+00
  2.073766e+01    1.177485e+00
  2.075353e+01    1.197341e+00
  2.076941e+01    1.226374e+00
  2.078528e+01    1.218723e+00
  2.080116e+01    1.196271e+00
  2.081703e+01    1.188802e+00
  2.083291e+01    1.212222e+00
  2.084878e+01    1.226460e+00
  2.086466e+01    1.196249e+00
  2.088054e+01    1.205344e+00
  2.089641e+01    1.195240e+00
  2.091229e+01    1.217311e+00
  2.092816e+01    1.235910e+00
  2.094404e+01    1.213382e+00
  2.095991e+01    1.226748e+00
  2.097579e+01    1.231481e+00
  2.099166e+01    1.222045e+00
  2.100754e+01    1.198111e+00
  2.102342e+01    1.194747e+00
  2.103929e+01    1.195020e+00
  2.105517e+01    1.202009e+00
  2.107104e+01    1.237255e+00
  2.108692e+01    1.204613e+00
  2.110279e+01    1.202248e+00
  2.111867e+01    1.207555e+00
  2.113455e+01    1.226050e+00
  2.115042e+01    1.229544e+00
  2.116630e+01    1.223378e+00
  2.118217e+01    1.235617e+00
  2.119805e+01    1.238887e+00
  2.121392e+01    1.220226e+00
  2.122980e+01    1.220166e+00
  2.124567e+01    1.223532e+00
  2.126155e+01    1.217104e+00
  2.127743e+01    1.223161e+00
  2.129330e+01    1.227681e+00
  2.130918e+01    1.250130e+00
  2.132505e+01    1.246796e+00
  2.134093e+01    1.275353e+00
  2.135680e+01    1.285534e+00
  2.137268e+01    1.248849e+00
  2.138855e+01    1.250876e+00
  2.140443e+01    1.286979e+00
  2.142031e+01    1.296296e+00
  2.143618e+01    1.298661e+00
  2.145206e+01    1.297506e+00
  2.146793e+01    1.335609e+00
  2.148381e+01    1.379686e+00
  2.149968e+01    1.409250e+00
  2.151556e+01    1.431483e+00
  2.153143e+01    1.415045e+00
  2.154731e+01    1.482907e+00
  2.156319e+01    1.514481e+00
  2.157906e+01    1.583608e+00
  2.159494e+01    1.639350e+00
  2.161081e+01    1.727693e+00
  2.162669e+01    1.817953e+00
  2.164256e+01    1.956474e+00
  2.165844e+01    2.103521e+00
  2.167431e+01    2.269031e+00
  2.169019e+01    2.484244e+00
  2.170607e+01    2.757637e+00
  2.172194e+01    3.069675e+00
  2.173782e+01    3.502888e+00
  2.175369e+01    3.982155e+00
  2.176957e+01    4.521238e+00
  2.178544e+01    5.117556e+00
  2.180132e+01    5.739804e+00
  2.181719e+01    6.363952e+00
  2.183307e+01    7.044225e+00
  2.184895e+01    7.695467e+00
  2.186482e+01    8.267245e+00
  2.188070e+01    8.697712e+00
  2.189657e+01    8.731141e+00
  2.191245e+01    8.610443e+00
  2.192832e+01    8.157801e+00
  2.194420e+01    7.376058e+00
  2.196007e+01    6.459644e+00
  2.197595e+01    5.618078e+00
  2.199183e+01    4.775555e+00
  2.200770e+01    4.094337e+00
  2.202358e+01    3.579093e+00
  2.203945e+01    3.134149e+00
  2.205533e+01    2.791287e+00
  2.207120e+01    2.508800e+00
  2.208708e+01    2.315195e+00
  2.210296e+01    2.113370e+00
  2.211883e+01    1.956120e+00
  2.213471e+01    1.821804e+00
  2.215058e+01    1.730656e+00
  2.216646e+01    1.675043e+00
  2.218233e+01    1.580437e+00
  2.219821e+01    1.511313e+00
  2.221408e+01    1.480374e+00
  2.222996e+01    1.431764e+00
  2.224584e+01    1.374457e+00
  2.226171e+01    1.343989e+00
  2.227759e+01    1.310707e+00
  2.229346e+01    1.282455e+00
  2.230934e+01    1.268596e+00
  2.232521e+01    1.269325e+00
  2.234109e+01    1.249301e+00
  2.235696e+01    1.213984e+00
  2.237284e+01    1.179572e+00
  2.238872e+01    1.167014e+00
  2.240459e+01    1.187384e+00
  2.242047e+01    1.171757e+00
  2.243634e+01    1.165140e+00
  2.245222e+01    1.149266e+00
  2.246809e+01    1.121307e+00
  2.248397e+01    1.101038e+00
  2.249984e+01    1.085631e+00
  2.251572e+01    1.116144e+00
  2.253160e+01    1.101812e+00
  2.254747e+01    1.130994e+00
  2.256335e+01    1.127546e+00
  2.257922e+01    1.116519e+00
  2.259510e+01    1.112184e+00
  2.261097e+01    1.081617e+00
  2.262685e+01    1.084875e+00
  2.264272e+01    1.069512e+00
  2.265860e+01    1.059824e+00
  2.267448e+01    1.063848e+00
  2.269035e+01    1.068423e+00
  2.270623e+01    1.073312e+00
  2.272210e+01    1.072438e+00
  2.273798e+01    1.067244e+00
  2.275385e+01    1.055613e+00
  2.276973e+01    1.068508e+00
  2.278560e+01    1.049564e+00
  2.280148e+01    1.044056e+00
  2.281736e+01    1.038548e+00
  2.283323e+01    1.043064e+00
  2.284911e+01    1.046197e+00
  2.286498e+01    1.022019e+00
  2.288086e+01    1.034094e+00
  2.289673e+01    1.022522e+00
  2.291261e+01    1.022366e+00
  2.292848e+01    1.033424e+00
  2.294436e+01    9.922488e-01
  2.296024e+01    1.010735e+00
  2.297611e+01    1.023890e+00
  2.299199e+01    9.984450e-01
  2.300786e+01    1.025069e+00
  2.302374e+01    1.022465e+00
  2.303961e+01    1.000212e+00
  2.305549e+01    9.946926e-01
  2.307137e+01    9.869283e-01
  2.308724e+01    9.877315e-01
  2.310312e+01    9.810970e-01
  2.311899e+01    9.845404e-01
  2.313487e+01    1.000647e+00
  2.315074e+01    9.808172e-01
  2.316662e+01    9.885499e-01
  2.318249e+01    9.870283e-01
  2.319837e+01    9.723808e-01
  2.321425e+01    9.666475e-01
  2.323012e+01    9.710200e-01
  2.324600e+01    9.607736e-01
  2.326187e+01    9.523249e-01
  2.327775e+01    9.502905e-01
  2.329362e+01    9.307962e-01
  2.330950e+01    9.325954e-01
  2.332537e+01    9.571551e-01
  2.334125e+01    9.551185e-01
  2.335713e+01    9.498207e-01
  2.337300e+01    9.459659e-01
  2.338888e+01    9.728266e-01
  2.340475e+01    9.794908e-01
  2.342063e+01    9.830710e-01
  2.343650e+01    9.719487e-01
  2.345238e+01    9.591490e-01
  2.346825e+01    9.650547e-01
  2.348413e+01    9.375116e-01
  2.350001e+01    9.442034e-01
  2.351588e+01    9.616388e-01
  2.353176e+01    9.440813e-01
  2.354763e+01    9.469001e-01
  2.356351e+01    9.403104e-01
  2.357938e+01    9.328737e-01
  2.359526e+01    9.490045e-01
  2.361113e+01    9.709839e-01
  2.362701e+01    9.429361e-01
  2.364289e+01    9.392548e-01
  2.365876e+01    9.294001e-01
  2.367464e+01    9.360337e-01
  2.369051e+01    9.266834e-01
  2.370639e+01    9.264418e-01
  2.372226e+01    9.176403e-01
  2.373814e+01    9.124419e-01
  2.375401e+01    9.183547e-01
  2.376989e+01    9.159129e-01
  2.378577e+01    9.066078e-01
  2.380164e+01    8.897089e-01
  2.381752e+01    8.900975e-01
  2.383339e+01    8.776967e-01
  2.384927e+01    8.910722e-01
  2.386514e+01    9.030431e-01
  2.388102e+01    8.904032e-01
  2.389689e+01    8.886184e-01
  2.391277e+01    8.860724e-01
  2.392865e+01    8.767433e-01
  2.394452e+01    8.842904e-01
  2.396040e+01    8.872368e-01
  2.397627e+01    9.029573e-01
  2.399215e+01    8.969656e-01
  2.400802e+01    8.652498e-01
  2.402390e+01    8.732196e-01
  2.403978e+01    8.949049e-01
  2.405565e+01    8.866186e-01
  2.407153e+01    8.606085e-01
  2.408740e+01    8.718866e-01
  2.410328e+01    8.868296e-01
  2.411915e+01    8.856474e-01
  2.413503e+01    8.811635e-01
  2.415090e+01    8.812101e-01
  2.416678e+01    8.735117e-01
  2.418266e+01    8.520885e-01
  2.419853e+01    8.590497e-01
  2.421441e+01    8.647872e-01
  2.423028e+01    8.591715e-01
  2.424616e+01    8.733923e-01
  2.426203e+01    8.874134e-01
  2.427791e+01    8.963578e-01
  2.429378e+01    8.823395e-01
  2.430966e+01    8.903014e-01
  2.432554e+01    8.822166e-01
  2.434141e+01    8.718645e-01
  2.435729e+01    8.612506e-01
  2.437316e+01    8.748471e-01
  2.438904e+01    8.856393e-01
  2.440491e+01    8.658572e-01
  2.442079e+01    8.741148e-01
  2.443666e+01    8.935107e-01
  2.445254e+01    8.884859e-01
  2.446842e+01    8.784692e-01
  2.448429e+01    8.716927e-01
  2.450017e+01    8.786470e-01
  2.451604e+01    8.690553e-01
  2.453192e+01    8.624701e-01
  2.454779e+01    8.837945e-01
  2.456367e+01    8.697398e-01
  2.457954e+01    8.757950e-01
  2.459542e+01    8.741845e-01
  2.461130e+01    8.672449e-01
  2.462717e+01    8.447064e-01
  2.464305e+01    8.526552e-01
  2.465892e+01    8.739399e-01
  2.467480e+01    8.892866e-01
  2.469067e+01    8.788794e-01
  2.470655e+01    8.679329e-01
  2.472242e+01    8.737858e-01
  2.473830e+01    8.720257e-01
  2.475418e+01    8.651801e-01
  2.477005e+01    8.763274e-01
  2.478593e+01    8.648448e-01
  2.480180e+01    8.654472e-01
  2.481768e+01    8.695811e-01
  2.483355e+01    8.679832e-01
  2.484943e+01    8.708398e-01
  2.486530e+01    8.899548e-01
  2.488118e+01    8.752822e-01
  2.489706e+01    8.818684e-01
  2.491293e+01    8.510857e-01
  2.492881e+01    8.653101e-01
  2.494468e+01    8.808283e-01
  2.496056e+01    8.740768e-01
  2.497643e+01    8.837209e-01
  2.499231e+01    9.010938e-01
  2.500819e+01    8.800970e-01
  2.502406e+01    8.765960e-01
  2.503994e+01    8.844783e-01
  2.505581e+01    8.766883e-01
  2.507169e+01    8.691140e-01
  2.508756e+01    8.753325e-01
  2.510344e+01    8.916606e-01
  2.511931e+01    8.984060e-01
  2.513519e+01    8.953075e-01
  2.515107e+01    8.815970e-01
  2.516694e+01    8.921585e-01
  2.518282e+01    8.996879e-01
  2.519869e+01    9.098414e-01
  2.521457e+01    9.385995e-01
  2.523044e+01    9.350905e-01
  2.524632e+01    9.171532e-01
  2.526219e+01    9.179316e-01
  2.527807e+01    9.576930e-01
  2.529395e+01    9.588900e-01
  2.530982e+01    9.403930e-01
  2.532570e+01    9.494210e-01
  2.534157e+01    9.542205e-01
  2.535745e+01    9.557650e-01
  2.537332e+01    9.651771e-01
  2.538920e+01    9.671611e-01
  2.540507e+01    9.704578e-01
  2.542095e+01    9.826681e-01
  2.543683e+01    9.798701e-01
  2.545270e+01    9.944824e-01
  2.546858e+01    1.030326e+00
  2.548445e+01    1.022469e+00
  2.550033e+01    1.036297e+00
  2.551620e+01    1.062323e+00
  2.553208e+01    1.065332e+00
  2.554795e+01    1.105606e+00
  2.556383e+01    1.110874e+00
  2.557971e+01    1.141128e+00
  2.559558e+01    1.179443e+00
  2.561146e+01    1.212653e+00
  2.562733e+01    1.215399e+00
  2.564321e+01    1.274498e+00
  2.565908e+01    1.333761e+00
  2.567496e+01    1.376975e+00
  2.569083e+01    1.466743e+00
  2.570671e+01    1.542177e+00
  2.572259e+01    1.683532e+00
  2.573846e+01    1.836277e+00
  2.575434e+01    2.004975e+00
  2.577021e+01    2.209729e+00
  2.578609e+01    2.444059e+00
  2.580196e+01    2.760492e+00
  2.581784e+01    3.144119e+00
  2.583371e+01    3.587128e+00
  2.584959e+01    4.087052e+00
  2.586547e+01    4.605382e+00
  2.588134e+01    5.169486e+00
  2.589722e+01    5.721835e+00
  2.591309e+01    6.212959e+00
  2.592897e+01    6.657889e+00
  2.594484e+01    6.963925e+00
  2.596072e+01    7.045362e+00
  2.597660e+01    6.842469e+00
  2.599247e+01    6.435482e+00
  2.600835e+01    5.831323e+00
  2.602422e+01    5.167011e+00
  2.604010e+01    4.508972e+00
  2.605597e+01    3.840091e+00
  2.607185e+01    3.312148e+00
  2.608772e+01    2.918225e+00
  2.610360e+01    2.613592e+00
  2.611948e+01    2.337766e+00
  2.613535e+01    2.111681e+00
  2.615123e+01    1.906705e+00
  2.616710e+01    1.754108e+00
  2.618298e+01    1.614624e+00
  2.619885e+01    1.553913e+00
  2.621473e+01    1.459450e+00
  2.623060e+01    1.353323e+00
  2.624648e+01    1.316310e+00
  2.626236e+01    1.267437e+00
  2.627823e+01    1.211199e+00
  2.629411e+01    1.203769e+00
  2.630998e+01    1.168177e+00
  2.632586e+01    1.130287e+00
  2.634173e+01    1.108599e+00
  2.635761e+01    1.087105e+00
  2.637348e+01    1.091664e+00
  2.638936e+01    1.079733e+00
  2.640524e+01    1.034518e+00
  2.642111e+01    1.027817e+00
  2.643699e+01    1.045997e+00
  2.645286e+01    1.024968e+00
  2.646874e+01    1.002744e+00
  2.648461e+01    9.838125e-01
  2.650049e+01    9.727002e-01
  2.651636e+01    9.837737e-01
  2.653224e+01    9.922780e-01
  2.654812e+01    9.798482e-01
  2.656399e+01    9.722364e-01
  2.657987e+01    9.889675e-01
  2.659574e+01    9.801227e-01
  2.661162e+01    9.760354e-01
  2.662749e+01    9.614739e-01
  2.664337e+01    9.633193e-01
  2.665924e+01    9.731436e-01
  2.667512e+01    9.833540e-01
  2.669100e+01    9.481639e-01
  2.670687e+01    9.607253e-01
  2.672275e+01    9.635945e-01
  2.673862e+01    9.595512e-01
  2.675450e+01    9.501432e-01
  2.677037e+01    9.642049e-01
  2.678625e+01    9.642342e-01
  2.680212e+01    9.576805e-01
  2.681800e+01    9.461137e-01
  2.683388e+01    9.436583e-01
  2.684975e+01    9.339738e-01
  2.686563e+01    9.539041e-01
  2.688150e+01    9.792929e-01
  2.689738e+01    1.002123e+00
  2.691325e+01    9.949989e-01
  2.692913e+01    9.950782e-01
  2.694501e+01    1.024918e+00
  2.696088e+01    1.022593e+00
  2.697676e+01    1.034184e+00
  2.699263e+01    1.082371e+00
  2.700851e+01    1.105309e+00
  2.702438e+01    1.141701e+00
  2.704026e+01    1.161910e+00
  2.705613e+01    1.243175e+00
  2.707201e+01    1.319770e+00
  2.708789e+01    1.381419e+00
  2.710376e+01    1.455933e+00
  2.711964e+01    1.568391e+00
  2.713551e+01    1.696195e+00
  2.715139e+01    1.831996e+00
  2.716726e+01    1.958652e+00
  2.718314e+01    2.073243e+00
  2.719901e+01    2.100350e+00
  2.721489e+01    2.125871e+00
  2.723077e+01    2.112776e+00
  2.724664e+01    2.048872e+00
  2.726252e+01    1.941036e+00
  2.727839e+01    1.821617e+00
  2.729427e+01    1.661919e+00
  2.731014e+01    1.517449e+00
  2.732602e+01    1.418450e+00
  2.734189e+01    1.326085e+00
  2.735777e+01    1.251320e+00
  2.737365e+01    1.190204e+00
  2.738952e+01    1.160248e+00
  2.740540e+01    1.109667e+00
  2.742127e+01    1.096124e+00
  2.743715e+01    1.061018e+00
  2.745302e+01    1.020315e+00
  2.746890e+01    9.897776e-01
  2.748477e+01    9.977049e-01
  2.750065e+01    9.807816e-01
  2.751653e+01    9.905116e-01
  2.753240e+01    9.570377e-01
  2.754828e+01    9.439119e-01
  2.756415e+01    9.175969e-01
  2.758003e+01    9.120990e-01
  2.759590e+01    9.292399e-01
  2.761178e+01    8.892778e-01
  2.762765e+01    9.073400e-01
  2.764353e+01    9.090989e-01
  2.765941e+01    8.807856e-01
  2.767528e+01    8.782394e-01
  2.769116e+01    8.991953e-01
  2.770703e+01    9.019216e-01
  2.772291e+01    8.985233e-01
  2.773878e+01    8.995801e-01
  2.775466e+01    8.751522e-01
  2.777054e+01    8.734852e-01
  2.778641e+01    8.974471e-01
  2.780229e+01    9.007177e-01
  2.781816e+01    8.766819e-01
  2.783404e+01    8.599238e-01
  2.784991e+01    8.827170e-01
  2.786579e+01    8.932857e-01
  2.788166e+01    8.788029e-01
  2.789754e+01    8.797444e-01
  2.791342e+01    8.731406e-01
  2.792929e+01    8.788109e-01
  2.794517e+01    8.737488e-01
  2.796104e+01    8.571724e-01
  2.797692e+01    8.661985e-01
  2.799279e+01    8.720227e-01
  2.800867e+01    8.709206e-01
  2.802454e+01    8.576642e-01
  2.804042e+01    8.633341e-01
  2.805630e+01    8.470895e-01
  2.807217e+01    8.434090e-01
  2.808805e+01    8.430887e-01
  2.810392e+01    8.684900e-01
  2.811980e+01    8.741462e-01
  2.813567e+01    8.402420e-01
  2.815155e+01    8.250911e-01
  2.816742e+01    8.300866e-01
  2.818330e+01    8.239054e-01
  2.819918e+01    8.338442e-01
  2.821505e+01    8.257366e-01
  2.823093e+01    8.300241e-01
  2.824680e+01    8.299973e-01
  2.826268e+01    8.259727e-01
  2.827855e+01    8.428966e-01
  2.829443e+01    8.399808e-01
  2.831030e+01    8.391010e-01
  2.832618e+01    8.414646e-01
  2.834206e+01    8.236762e-01
  2.835793e+01    8.368711e-01
  2.837381e+01    8.229614e-01
  2.838968e+01    8.312004e-01
  2.840556e+01    8.258023e-01
  2.842143e+01    8.145962e-01
  2.843731e+01    8.130431e-01
  2.845318e+01    8.253790e-01
  2.846906e+01    8.086388e-01
  2.848494e+01    8.071296e-01
  2.850081e+01    8.366085e-01
  2.851669e+01    8.262925e-01
  2.853256e+01    8.395913e-01
  2.854844e+01    8.130993e-01
  2.856431e+01    8.170314e-01
  2.858019e+01    8.080878e-01
  2.859606e+01    8.149983e-01
  2.861194e+01    8.067116e-01
  2.862782e+01    8.104022e-01
  2.864369e+01    8.129960e-01
  2.865957e+01    8.202871e-01
  2.867544e+01    8.281664e-01
  2.869132e+01    8.248213e-01
  2.870719e+01    8.135214e-01
  2.872307e+01    8.088713e-01
  2.873895e+01    8.094491e-01
  2.875482e+01    8.131695e-01
  2.877070e+01    8.102754e-01
  2.878657e+01    8.052320e-01
  2.880245e+01    8.144421e-01
  2.881832e+01    8.340626e-01
  2.883420e+01    8.385879e-01
  2.885007e+01    8.096902e-01
  2.886595e+01    8.009009e-01
  2.888183e+01    8.257827e-01
  2.889770e+01    8.237342e-01
  2.891358e+01    7.938498e-01
  2.892945e+01    8.132024e-01
  2.894533e+01    7.971321e-01
  2.896120e+01    8.036413e-01
  2.897708e+01    8.123070e-01
  2.899295e+01    8.050432e-01
  2.900883e+01    8.147979e-01
  2.902471e+01    8.239128e-01
  2.904058e+01    8.113945e-01
  2.905646e+01    8.209684e-01
  2.907233e+01    8.147271e-01
  2.908821e+01    8.091574e-01
  2.910408e+01    8.155141e-01
  2.911996e+01    8.013845e-01
  2.913583e+01    8.015370e-01
  2.915171e+01    7.892246e-01
  2.916759e+01    7.846268e-01
  2.918346e+01    8.044888e-01
  2.919934e+01    8.114816e-01
  2.921521e+01    7.919109e-01
  2.923109e+01    8.103767e-01
  2.924696e+01    7.920019e-01
  2.926284e+01    7.902743e-01
  2.927871e+01    8.018348e-01
  2.929459e+01    8.101323e-01
  2.931047e+01    7.886032e-01
  2.932634e+01    8.031178e-01
  2.934222e+01    8.110260e-01
  2.935809e+01    7.875298e-01
  2.937397e+01    7.935047e-01
  2.938984e+01    7.928972e-01
  2.940572e+01    7.898692e-01
  2.942159e+01    7.941385e-01
  2.943747e+01    7.872787e-01
  2.945335e+01    7.851947e-01
  2.946922e+01    7.922962e-01
  2.948510e+01    8.094956e-01
  2.950097e+01    7.962549e-01
  2.951685e+01    8.021179e-01
  2.953272e+01    8.008096e-01
  2.954860e+01    7.886497e-01
  2.956447e+01    7.723712e-01
  2.958035e+01    7.736688e-01
  2.959623e+01    8.049687e-01
  2.961210e+01    8.213589e-01
  2.962798e+01    8.114998e-01
  2.964385e+01    8.163249e-01
  2.965973e+01    7.754874e-01
  2.967560e+01    7.735024e-01
  2.969148e+01    7.732040e-01
  2.970736e+01    7.759662e-01
  2.972323e+01    7.844987e-01
  2.973911e+01    7.575187e-01
  2.975498e+01    7.813122e-01
  2.977086e+01    7.804780e-01
  2.978673e+01    7.741315e-01
  2.980261e+01    7.582244e-01
  2.981848e+01    7.709126e-01
  2.983436e+01    7.924914e-01
  2.985024e+01    7.866150e-01
  2.986611e+01    8.132084e-01
  2.988199e+01    7.842699e-01
  2.989786e+01    7.731961e-01
  2.991374e+01    7.926188e-01
  2.992961e+01    7.960067e-01
  2.994549e+01    7.791289e-01
  2.996136e+01    7.734005e-01
  2.997724e+01    7.840675e-01
  2.999312e+01    7.704633e-01
  3.000899e+01    7.831887e-01
  3.002487e+01    8.064665e-01
  3.004074e+01    8.163708e-01
  3.005662e+01    7.937891e-01
  3.007249e+01    7.920894e-01
  3.008837e+01    8.108092e-01
  3.010424e+01    8.100551e-01
  3.012012e+01    7.867225e-01
  3.013600e+01    7.941853e-01
  3.015187e+01    7.755401e-01
  3.016775e+01    7.841471e-01
  3.018362e+01    7.842258e-01
  3.019950e+01    7.873058e-01
  3.021537e+01    7.823040e-01
  3.023125e+01    7.842488e-01
  3.024712e+01    7.683762e-01
  3.026300e+01    7.545299e-01
  3.027888e+01    7.521275e-01
  3.029475e+01    7.640425e-01
  3.031063e+01    7.874641e-01
  3.032650e+01    7.891029e-01
  3.034238e+01    7.719753e-01
  3.035825e+01    7.796615e-01
  3.037413e+01    7.693352e-01
  3.039000e+01    8.015172e-01
  3.040588e+01    7.761250e-01
  3.042176e+01    7.595953e-01
  3.043763e+01    7.658584e-01
  3.045351e+01    7.652711e-01
  3.046938e+01    7.798910e-01
  3.048526e+01    7.781677e-01
  3.050113e+01    7.806756e-01
  3.051701e+01    7.955619e-01
  3.053288e+01    7.679851e-01
  3.054876e+01    7.731478e-01
  3.056464e+01    7.917116e-01
  3.058051e+01    7.868199e-01
  3.059639e+01    7.772713e-01
  3.061226e+01    7.894322e-01
  3.062814e+01    7.928464e-01
  3.064401e+01    7.515232e-01
  3.065989e+01    7.725559e-01
  3.067577e+01    7.647249e-01
  3.069164e+01    7.717559e-01
  3.070752e+01    7.661716e-01
  3.072339e+01    7.851001e-01
  3.073927e+01    7.842501e-01
  3.075514e+01    7.717293e-01
  3.077102e+01    7.781406e-01
  3.078689e+01    7.777435e-01
  3.080277e+01    7.796894e-01
  3.081865e+01    7.595391e-01
  3.083452e+01    7.707697e-01
  3.085040e+01    7.577564e-01
  3.086627e+01    7.680970e-01
  3.088215e+01    7.817560e-01
  3.089802e+01    7.874362e-01
  3.091390e+01    7.835742e-01
  3.092977e+01    7.935472e-01
  3.094565e+01    7.972065e-01
  3.096153e+01    7.840537e-01
  3.097740e+01    7.612677e-01
  3.099328e+01    7.727585e-01
  3.100915e+01    7.671234e-01
  3.102503e+01    7.783091e-01
  3.104090e+01    7.824444e-01
  3.105678e+01    7.922021e-01
  3.107265e+01    7.596107e-01
  3.108853e+01    7.585994e-01
  3.110441e+01    7.634870e-01
  3.112028e+01    7.959765e-01
  3.113616e+01    7.979395e-01
  3.115203e+01    7.678488e-01
  3.116791e+01    7.729554e-01
  3.118378e+01    7.591810e-01
  3.119966e+01    7.789627e-01
  3.121553e+01    7.577232e-01
  3.123141e+01    7.770975e-01
  3.124729e+01    7.821506e-01
  3.126316e+01    7.748658e-01
  3.127904e+01    7.846020e-01
  3.129491e+01    7.899623e-01
  3.131079e+01    7.583212e-01
  3.132666e+01    7.749110e-01
  3.134254e+01    7.868598e-01
  3.135841e+01    7.965242e-01
  3.137429e+01    7.895570e-01
  3.139017e+01    7.920724e-01
  3.140604e+01    8.137115e-01
  3.142192e+01    7.975417e-01
  3.143779e+01    7.975415e-01
  3.145367e+01    7.949370e-01
  3.146954e+01    8.061025e-01
  3.148542e+01    8.205686e-01
  3.150129e+01    8.191093e-01
  3.151717e+01    8.120289e-01
  3.153305e+01    8.206225e-01
  3.154892e+01    8.103123e-01
  3.156480e+01    8.431762e-01
  3.158067e+01    8.591318e-01
  3.159655e+01    8.447360e-01
  3.161242e+01    8.628424e-01
  3.162830e+01    8.865421e-01
  3.164418e+01    8.857535e-01
  3.166005e+01    9.161795e-01
  3.167593e+01    9.499493e-01
  3.169180e+01    9.821379e-01
  3.170768e+01    1.008629e+00
  3.172355e+01    1.042101e+00
  3.173943e+01    1.099435e+00
  3.175530e+01    1.187764e+00
  3.177118e+01    1.243642e+00
  3.178706e+01    1.312487e+00
  3.180293e+01    1.411814e+00
  3.181881e+01    1.571257e+00
  3.183468e+01    1.708794e+00
  3.185056e+01    1.839617e+00
  3.186643e+01    1.936850e+00
  3.188231e+01    1.975566e+00
  3.189818e+01    2.036625e+00
  3.191406e+01    2.076571e+00
  3.192994e+01    1.987302e+00
  3.194581e+01    1.876088e+00
  3.196169e+01    1.806660e+00
  3.197756e+01    1.656353e+00
  3.199344e+01    1.523254e+00
  3.200931e+01    1.409722e+00
  3.202519e+01    1.305957e+00
  3.204106e+01    1.206588e+00
  3.205694e+01    1.132505e+00
  3.207282e+01    1.093345e+00
  3.208869e+01    1.036547e+00
  3.210457e+01    9.740971e-01
  3.212044e+01    9.556510e-01
  3.213632e+01    9.412511e-01
  3.215219e+01    9.160454e-01
  3.216807e+01    8.889787e-01
  3.218394e+01    8.657556e-01
  3.219982e+01    8.568094e-01
  3.221570e+01    8.368962e-01
  3.223157e+01    8.239825e-01
  3.224745e+01    8.068140e-01
  3.226332e+01    8.227478e-01
  3.227920e+01    7.790340e-01
  3.229507e+01    8.086001e-01
  3.231095e+01    8.068049e-01
  3.232682e+01    7.640167e-01
  3.234270e+01    7.597333e-01
  3.235858e+01    7.787102e-01
  3.237445e+01    7.907479e-01
  3.239033e+01    7.824458e-01
  3.240620e+01    7.627230e-01
  3.242208e+01    7.623373e-01
  3.243795e+01    7.795280e-01
  3.245383e+01    7.790303e-01
  3.246970e+01    7.758452e-01
  3.248558e+01    7.386802e-01
  3.250146e+01    7.395629e-01
  3.251733e+01    7.579625e-01
  3.253321e+01    7.708759e-01
  3.254908e+01    7.631558e-01
