# == pyFAI calibration ==
# Distance Sample to Detector: 0.3999999939076516 m
# PONI: 9.750e-02, 1.135e-01 m
# Rotations: -0.000175 0.000000 -0.000000 rad
# 
# == Fit2d calibration ==
# Distance Sample-beamCenter: 400.000 mm
# Center: x=1514.000, y=1300.000 pix
# Tilt: 0.010 deg  TiltPlanRot: 0.010 deg
# 
# Detector Detector	 Spline= None	 PixelSize= 7.500e-05, 7.500e-05 m
#    Detector has a mask: False 
#    Detector has a dark current: False 
#    detector has a flat field: False 
# 
# Wavelength: 6.888e-11 m
# Mask applied: user provided
# Dark current applied: False
# Flat field applied: False
# Polarization factor: 0.99
# Normalization factor: 1.0
# --> /home/myspot/data/2024_07_Rosario/Ru-CGO-ex/2024-07-27_003_Ru-CGO-ex_Reaction_dwell_000023_data_000096.dat
#       q_nm^-1             I 
  2.003187e-02    7.712225e-02
  3.590745e-02    9.849355e-02
  5.178302e-02    1.424769e-01
  6.765859e-02    2.347246e-01
  8.353417e-02    2.242142e-01
  9.940974e-02    7.067542e-02
  1.152853e-01    9.321897e-02
  1.311609e-01    9.191508e-02
  1.470365e-01    5.148045e-02
  1.629120e-01    3.577512e-02
  1.787876e-01    1.161120e-02
  1.946632e-01    4.074692e-02
  2.105388e-01    5.386571e-02
  2.264143e-01    5.588477e-02
  2.422899e-01    9.265777e-02
  2.581655e-01    4.358735e-02
  2.740411e-01    2.461519e-02
  2.899166e-01    4.000549e-02
  3.057922e-01    1.499506e-02
  3.216678e-01    1.519656e-02
  3.375433e-01    5.547900e-02
  3.534189e-01    3.126456e-02
  3.692945e-01    2.349073e-02
  3.851701e-01    1.783931e-02
  4.010456e-01    4.126601e-02
  4.169212e-01    2.486923e-02
  4.327968e-01    4.592630e-02
  4.486724e-01    4.285151e-02
  4.645479e-01    4.670649e-02
  4.804235e-01    4.285564e-02
  4.962991e-01    4.024417e-02
  5.121747e-01    4.122393e-02
  5.280502e-01    3.810587e-02
  5.439258e-01    5.399719e-02
  5.598014e-01    3.061665e-02
  5.756770e-01    2.702342e-02
  5.915525e-01    4.504985e-02
  6.074281e-01    1.235278e-02
  6.233037e-01    2.494452e-02
  6.391793e-01    2.887152e-02
  6.550548e-01    3.598719e-02
  6.709304e-01    5.173467e-02
  6.868060e-01    3.128745e-02
  7.026815e-01    3.047072e-02
  7.185571e-01    3.623899e-02
  7.344327e-01    3.831865e-02
  7.503083e-01    6.410076e-02
  7.661838e-01    9.091391e-02
  7.820594e-01    1.192959e-01
  7.979350e-01    1.460112e-01
  8.138106e-01    1.881131e-01
  8.296861e-01    2.661496e-01
  8.455617e-01    3.762101e-01
  8.614373e-01    4.376712e-01
  8.773129e-01    4.836127e-01
  8.931884e-01    5.360409e-01
  9.090640e-01    6.091191e-01
  9.249396e-01    6.113447e-01
  9.408152e-01    8.437560e-01
  9.566907e-01    9.363713e-01
  9.725663e-01    1.080079e+00
  9.884419e-01    1.173459e+00
  1.004317e+00    1.153383e+00
  1.020193e+00    1.237056e+00
  1.036069e+00    1.377243e+00
  1.051944e+00    1.468557e+00
  1.067820e+00    1.446543e+00
  1.083695e+00    1.349234e+00
  1.099571e+00    1.413861e+00
  1.115446e+00    1.553411e+00
  1.131322e+00    1.693855e+00
  1.147198e+00    1.661922e+00
  1.163073e+00    1.722693e+00
  1.178949e+00    1.686546e+00
  1.194824e+00    1.731709e+00
  1.210700e+00    2.005413e+00
  1.226575e+00    2.224601e+00
  1.242451e+00    2.408335e+00
  1.258327e+00    2.417130e+00
  1.274202e+00    2.561402e+00
  1.290078e+00    2.598659e+00
  1.305953e+00    2.865464e+00
  1.321829e+00    2.936903e+00
  1.337705e+00    2.843642e+00
  1.353580e+00    2.766869e+00
  1.369456e+00    2.715351e+00
  1.385331e+00    2.728187e+00
  1.401207e+00    2.780831e+00
  1.417082e+00    2.807284e+00
  1.432958e+00    2.818355e+00
  1.448834e+00    2.920036e+00
  1.464709e+00    2.946474e+00
  1.480585e+00    3.078171e+00
  1.496460e+00    3.183120e+00
  1.512336e+00    3.065143e+00
  1.528211e+00    3.044986e+00
  1.544087e+00    2.996810e+00
  1.559963e+00    3.149724e+00
  1.575838e+00    3.198966e+00
  1.591714e+00    3.309163e+00
  1.607589e+00    3.062369e+00
  1.623465e+00    2.980359e+00
  1.639340e+00    3.063648e+00
  1.655216e+00    3.088356e+00
  1.671092e+00    3.075617e+00
  1.686967e+00    3.031886e+00
  1.702843e+00    3.078722e+00
  1.718718e+00    3.121219e+00
  1.734594e+00    3.035697e+00
  1.750469e+00    3.097299e+00
  1.766345e+00    3.102104e+00
  1.782221e+00    3.157839e+00
  1.798096e+00    3.155325e+00
  1.813972e+00    3.060786e+00
  1.829847e+00    3.045705e+00
  1.845723e+00    2.949794e+00
  1.861598e+00    3.001549e+00
  1.877474e+00    3.083444e+00
  1.893350e+00    3.088312e+00
  1.909225e+00    3.024913e+00
  1.925101e+00    2.976124e+00
  1.940976e+00    2.947997e+00
  1.956852e+00    3.071301e+00
  1.972727e+00    2.990695e+00
  1.988603e+00    3.050628e+00
  2.004479e+00    3.072560e+00
  2.020354e+00    3.031683e+00
  2.036230e+00    3.159027e+00
  2.052105e+00    3.091873e+00
  2.067981e+00    3.185433e+00
  2.083856e+00    3.188158e+00
  2.099732e+00    3.049834e+00
  2.115608e+00    3.118331e+00
  2.131483e+00    3.067513e+00
  2.147359e+00    3.148918e+00
  2.163234e+00    3.204139e+00
  2.179110e+00    3.120100e+00
  2.194985e+00    3.157254e+00
  2.210861e+00    3.146006e+00
  2.226737e+00    3.103829e+00
  2.242612e+00    3.151975e+00
  2.258488e+00    3.164638e+00
  2.274363e+00    3.055537e+00
  2.290239e+00    3.065158e+00
  2.306115e+00    2.993576e+00
  2.321990e+00    3.011920e+00
  2.337866e+00    3.068464e+00
  2.353741e+00    3.216269e+00
  2.369617e+00    3.159425e+00
  2.385492e+00    3.127470e+00
  2.401368e+00    3.218813e+00
  2.417244e+00    3.145874e+00
  2.433119e+00    3.100982e+00
  2.448995e+00    3.134198e+00
  2.464870e+00    3.158091e+00
  2.480746e+00    3.124676e+00
  2.496621e+00    3.156002e+00
  2.512497e+00    3.239345e+00
  2.528373e+00    3.190525e+00
  2.544248e+00    3.230112e+00
  2.560124e+00    3.252251e+00
  2.575999e+00    3.232024e+00
  2.591875e+00    3.137195e+00
  2.607750e+00    3.203410e+00
  2.623626e+00    3.152350e+00
  2.639502e+00    3.178803e+00
  2.655377e+00    3.203457e+00
  2.671253e+00    3.188422e+00
  2.687128e+00    3.265351e+00
  2.703004e+00    3.279171e+00
  2.718879e+00    3.329884e+00
  2.734755e+00    3.244221e+00
  2.750631e+00    3.201344e+00
  2.766506e+00    3.331010e+00
  2.782382e+00    3.217185e+00
  2.798257e+00    3.205622e+00
  2.814133e+00    3.211284e+00
  2.830008e+00    3.333010e+00
  2.845884e+00    3.321496e+00
  2.861760e+00    3.354363e+00
  2.877635e+00    3.314962e+00
  2.893511e+00    3.179555e+00
  2.909386e+00    3.207231e+00
  2.925262e+00    3.339568e+00
  2.941137e+00    3.228015e+00
  2.957013e+00    3.341245e+00
  2.972889e+00    3.365035e+00
  2.988764e+00    3.379030e+00
  3.004640e+00    3.403812e+00
  3.020515e+00    3.375558e+00
  3.036391e+00    3.409860e+00
  3.052266e+00    3.299578e+00
  3.068142e+00    3.349281e+00
  3.084018e+00    3.363011e+00
  3.099893e+00    3.256818e+00
  3.115769e+00    3.248597e+00
  3.131644e+00    3.230984e+00
  3.147520e+00    3.386692e+00
  3.163395e+00    3.329621e+00
  3.179271e+00    3.314151e+00
  3.195147e+00    3.416335e+00
  3.211022e+00    3.422411e+00
  3.226898e+00    3.388637e+00
  3.242773e+00    3.367678e+00
  3.258649e+00    3.475600e+00
  3.274525e+00    3.358602e+00
  3.290400e+00    3.395099e+00
  3.306276e+00    3.436390e+00
  3.322151e+00    3.416723e+00
  3.338027e+00    3.347446e+00
  3.353902e+00    3.328446e+00
  3.369778e+00    3.333385e+00
  3.385654e+00    3.351064e+00
  3.401529e+00    3.401124e+00
  3.417405e+00    3.403179e+00
  3.433280e+00    3.448490e+00
  3.449156e+00    3.472796e+00
  3.465031e+00    3.416431e+00
  3.480907e+00    3.500142e+00
  3.496783e+00    3.408836e+00
  3.512658e+00    3.400890e+00
  3.528534e+00    3.480978e+00
  3.544409e+00    3.436306e+00
  3.560285e+00    3.369619e+00
  3.576160e+00    3.386369e+00
  3.592036e+00    3.435640e+00
  3.607912e+00    3.514065e+00
  3.623787e+00    3.485757e+00
  3.639663e+00    3.493267e+00
  3.655538e+00    3.494649e+00
  3.671414e+00    3.482877e+00
  3.687289e+00    3.453213e+00
  3.703165e+00    3.400985e+00
  3.719041e+00    3.324983e+00
  3.734916e+00    3.365140e+00
  3.750792e+00    3.389638e+00
  3.766667e+00    3.409427e+00
  3.782543e+00    3.449977e+00
  3.798418e+00    3.422026e+00
  3.814294e+00    3.494227e+00
  3.830170e+00    3.527491e+00
  3.846045e+00    3.509781e+00
  3.861921e+00    3.557281e+00
  3.877796e+00    3.385123e+00
  3.893672e+00    3.508220e+00
  3.909547e+00    3.497979e+00
  3.925423e+00    3.451454e+00
  3.941299e+00    3.489083e+00
  3.957174e+00    3.488293e+00
  3.973050e+00    3.576701e+00
  3.988925e+00    3.552970e+00
  4.004801e+00    3.498625e+00
  4.020676e+00    3.482538e+00
  4.036552e+00    3.536805e+00
  4.052428e+00    3.497874e+00
  4.068303e+00    3.523587e+00
  4.084179e+00    3.554768e+00
  4.100054e+00    3.544293e+00
  4.115930e+00    3.467262e+00
  4.131806e+00    3.580987e+00
  4.147681e+00    3.572416e+00
  4.163557e+00    3.522572e+00
  4.179432e+00    3.550042e+00
  4.195308e+00    3.541899e+00
  4.211183e+00    3.520547e+00
  4.227059e+00    3.569433e+00
  4.242935e+00    3.587034e+00
  4.258810e+00    3.603570e+00
  4.274686e+00    3.595406e+00
  4.290561e+00    3.573145e+00
  4.306437e+00    3.603233e+00
  4.322312e+00    3.540004e+00
  4.338188e+00    3.498838e+00
  4.354064e+00    3.537652e+00
  4.369939e+00    3.556471e+00
  4.385815e+00    3.612517e+00
  4.401690e+00    3.566278e+00
  4.417566e+00    3.515691e+00
  4.433441e+00    3.561252e+00
  4.449317e+00    3.547661e+00
  4.465193e+00    3.553601e+00
  4.481068e+00    3.592298e+00
  4.496944e+00    3.628485e+00
  4.512819e+00    3.701081e+00
  4.528695e+00    3.639449e+00
  4.544570e+00    3.532991e+00
  4.560446e+00    3.548785e+00
  4.576322e+00    3.563548e+00
  4.592197e+00    3.601329e+00
  4.608073e+00    3.575168e+00
  4.623948e+00    3.573340e+00
  4.639824e+00    3.559973e+00
  4.655699e+00    3.630351e+00
  4.671575e+00    3.668280e+00
  4.687451e+00    3.639804e+00
  4.703326e+00    3.624736e+00
  4.719202e+00    3.589859e+00
  4.735077e+00    3.650152e+00
  4.750953e+00    3.735815e+00
  4.766828e+00    3.696444e+00
  4.782704e+00    3.646641e+00
  4.798580e+00    3.719472e+00
  4.814455e+00    3.657732e+00
  4.830331e+00    3.556329e+00
  4.846206e+00    3.445632e+00
  4.862082e+00    3.567509e+00
  4.877957e+00    3.696618e+00
  4.893833e+00    3.735528e+00
  4.909709e+00    3.662770e+00
  4.925584e+00    3.521703e+00
  4.941460e+00    3.574520e+00
  4.957335e+00    3.578569e+00
  4.973211e+00    3.611663e+00
  4.989086e+00    3.694940e+00
  5.004962e+00    3.651180e+00
  5.020838e+00    3.648849e+00
  5.036713e+00    3.602322e+00
  5.052589e+00    3.612189e+00
  5.068464e+00    3.672977e+00
  5.084340e+00    3.695068e+00
  5.100216e+00    3.705024e+00
  5.116091e+00    3.665786e+00
  5.131967e+00    3.644523e+00
  5.147842e+00    3.672348e+00
  5.163718e+00    3.681401e+00
  5.179593e+00    3.691297e+00
  5.195469e+00    3.588772e+00
  5.211345e+00    3.614336e+00
  5.227220e+00    3.678198e+00
  5.243096e+00    3.614534e+00
  5.258971e+00    3.638020e+00
  5.274847e+00    3.642094e+00
  5.290722e+00    3.697747e+00
  5.306598e+00    3.715437e+00
  5.322474e+00    3.655149e+00
  5.338349e+00    3.674247e+00
  5.354225e+00    3.656771e+00
  5.370100e+00    3.654495e+00
  5.385976e+00    3.641011e+00
  5.401851e+00    3.610474e+00
  5.417727e+00    3.635600e+00
  5.433603e+00    3.597291e+00
  5.449478e+00    3.560730e+00
  5.465354e+00    3.629777e+00
  5.481229e+00    3.609000e+00
  5.497105e+00    3.565344e+00
  5.512980e+00    3.616349e+00
  5.528856e+00    3.630266e+00
  5.544732e+00    3.601125e+00
  5.560607e+00    3.604949e+00
  5.576483e+00    3.593887e+00
  5.592358e+00    3.510621e+00
  5.608234e+00    3.613209e+00
  5.624109e+00    3.683702e+00
  5.639985e+00    3.690480e+00
  5.655861e+00    3.625795e+00
  5.671736e+00    3.592413e+00
  5.687612e+00    3.565552e+00
  5.703487e+00    3.636567e+00
  5.719363e+00    3.619540e+00
  5.735238e+00    3.614477e+00
  5.751114e+00    3.559522e+00
  5.766990e+00    3.454194e+00
  5.782865e+00    3.456676e+00
  5.798741e+00    3.527148e+00
  5.814616e+00    3.507832e+00
  5.830492e+00    3.497104e+00
  5.846367e+00    3.490861e+00
  5.862243e+00    3.497066e+00
  5.878119e+00    3.554344e+00
  5.893994e+00    3.499060e+00
  5.909870e+00    3.579402e+00
  5.925745e+00    3.539626e+00
  5.941621e+00    3.485598e+00
  5.957497e+00    3.421569e+00
  5.973372e+00    3.535187e+00
  5.989248e+00    3.596282e+00
  6.005123e+00    3.537489e+00
  6.020999e+00    3.559611e+00
  6.036874e+00    3.564971e+00
  6.052750e+00    3.543535e+00
  6.068626e+00    3.548417e+00
  6.084501e+00    3.510505e+00
  6.100377e+00    3.558256e+00
  6.116252e+00    3.705196e+00
  6.132128e+00    3.708797e+00
  6.148003e+00    3.586229e+00
  6.163879e+00    3.549997e+00
  6.179755e+00    3.529158e+00
  6.195630e+00    3.599236e+00
  6.211506e+00    3.571694e+00
  6.227381e+00    3.641734e+00
  6.243257e+00    3.639783e+00
  6.259132e+00    3.669152e+00
  6.275008e+00    3.534552e+00
  6.290884e+00    3.564318e+00
  6.306759e+00    3.553915e+00
  6.322635e+00    3.561848e+00
  6.338510e+00    3.555188e+00
  6.354386e+00    3.497041e+00
  6.370261e+00    3.574508e+00
  6.386137e+00    3.522398e+00
  6.402013e+00    3.537437e+00
  6.417888e+00    3.603664e+00
  6.433764e+00    3.478592e+00
  6.449639e+00    3.499624e+00
  6.465515e+00    3.531433e+00
  6.481390e+00    3.565665e+00
  6.497266e+00    3.519629e+00
  6.513142e+00    3.598762e+00
  6.529017e+00    3.581812e+00
  6.544893e+00    3.517965e+00
  6.560768e+00    3.521596e+00
  6.576644e+00    3.600895e+00
  6.592519e+00    3.535956e+00
  6.608395e+00    3.524973e+00
  6.624271e+00    3.529627e+00
  6.640146e+00    3.558378e+00
  6.656022e+00    3.556872e+00
  6.671897e+00    3.590653e+00
  6.687773e+00    3.549701e+00
  6.703648e+00    3.557368e+00
  6.719524e+00    3.562812e+00
  6.735400e+00    3.616430e+00
  6.751275e+00    3.576029e+00
  6.767151e+00    3.516627e+00
  6.783026e+00    3.544768e+00
  6.798902e+00    3.516668e+00
  6.814777e+00    3.473780e+00
  6.830653e+00    3.537517e+00
  6.846529e+00    3.456980e+00
  6.862404e+00    3.433784e+00
  6.878280e+00    3.443985e+00
  6.894155e+00    3.427771e+00
  6.910031e+00    3.440676e+00
  6.925907e+00    3.466113e+00
  6.941782e+00    3.534876e+00
  6.957658e+00    3.564032e+00
  6.973533e+00    3.590157e+00
  6.989409e+00    3.567183e+00
  7.005284e+00    3.522720e+00
  7.021160e+00    3.580587e+00
  7.037036e+00    3.490714e+00
  7.052911e+00    3.471674e+00
  7.068787e+00    3.572946e+00
  7.084662e+00    3.579322e+00
  7.100538e+00    3.513411e+00
  7.116413e+00    3.532935e+00
  7.132289e+00    3.605402e+00
  7.148165e+00    3.566819e+00
  7.164040e+00    3.551757e+00
  7.179916e+00    3.468918e+00
  7.195791e+00    3.491384e+00
  7.211667e+00    3.512113e+00
  7.227542e+00    3.499992e+00
  7.243418e+00    3.559509e+00
  7.259294e+00    3.560864e+00
  7.275169e+00    3.531585e+00
  7.291045e+00    3.517567e+00
  7.306920e+00    3.509666e+00
  7.322796e+00    3.513091e+00
  7.338671e+00    3.477326e+00
  7.354547e+00    3.524328e+00
  7.370423e+00    3.487330e+00
  7.386298e+00    3.453052e+00
  7.402174e+00    3.584273e+00
  7.418049e+00    3.580507e+00
  7.433925e+00    3.454204e+00
  7.449800e+00    3.433148e+00
  7.465676e+00    3.500064e+00
  7.481552e+00    3.510372e+00
  7.497427e+00    3.517946e+00
  7.513303e+00    3.424234e+00
  7.529178e+00    3.463115e+00
  7.545054e+00    3.489565e+00
  7.560929e+00    3.402923e+00
  7.576805e+00    3.387015e+00
  7.592681e+00    3.354758e+00
  7.608556e+00    3.434707e+00
  7.624432e+00    3.513695e+00
  7.640307e+00    3.463111e+00
  7.656183e+00    3.571275e+00
  7.672058e+00    3.492379e+00
  7.687934e+00    3.423021e+00
  7.703810e+00    3.471490e+00
  7.719685e+00    3.438430e+00
  7.735561e+00    3.431551e+00
  7.751436e+00    3.325384e+00
  7.767312e+00    3.370020e+00
  7.783187e+00    3.463299e+00
  7.799063e+00    3.437588e+00
  7.814939e+00    3.414774e+00
  7.830814e+00    3.398814e+00
  7.846690e+00    3.442185e+00
  7.862565e+00    3.415124e+00
  7.878441e+00    3.375111e+00
  7.894317e+00    3.361307e+00
  7.910192e+00    3.384695e+00
  7.926068e+00    3.351286e+00
  7.941943e+00    3.368144e+00
  7.957819e+00    3.427474e+00
  7.973694e+00    3.423147e+00
  7.989570e+00    3.461920e+00
  8.005446e+00    3.439830e+00
  8.021321e+00    3.383483e+00
  8.037197e+00    3.383889e+00
  8.053072e+00    3.401498e+00
  8.068948e+00    3.443336e+00
  8.084823e+00    3.378828e+00
  8.100699e+00    3.513328e+00
  8.116575e+00    3.476417e+00
  8.132450e+00    3.498553e+00
  8.148326e+00    3.435196e+00
  8.164201e+00    3.442722e+00
  8.180077e+00    3.513040e+00
  8.195952e+00    3.456525e+00
  8.211828e+00    3.448846e+00
  8.227704e+00    3.459543e+00
  8.243579e+00    3.485649e+00
  8.259455e+00    3.411781e+00
  8.275330e+00    3.399170e+00
  8.291206e+00    3.410654e+00
  8.307081e+00    3.406760e+00
  8.322957e+00    3.375710e+00
  8.338833e+00    3.365077e+00
  8.354708e+00    3.430961e+00
  8.370584e+00    3.355654e+00
  8.386459e+00    3.354628e+00
  8.402335e+00    3.402174e+00
  8.418210e+00    3.406390e+00
  8.434086e+00    3.362407e+00
  8.449962e+00    3.368280e+00
  8.465837e+00    3.338761e+00
  8.481713e+00    3.425242e+00
  8.497588e+00    3.443159e+00
  8.513464e+00    3.393050e+00
  8.529339e+00    3.333527e+00
  8.545215e+00    3.372666e+00
  8.561091e+00    3.379079e+00
  8.576966e+00    3.371290e+00
  8.592842e+00    3.319393e+00
  8.608717e+00    3.397560e+00
  8.624593e+00    3.357313e+00
  8.640468e+00    3.332698e+00
  8.656344e+00    3.334367e+00
  8.672220e+00    3.421744e+00
  8.688095e+00    3.332999e+00
  8.703971e+00    3.312223e+00
  8.719846e+00    3.381677e+00
  8.735722e+00    3.349284e+00
  8.751598e+00    3.349346e+00
  8.767473e+00    3.344682e+00
  8.783349e+00    3.339765e+00
  8.799224e+00    3.281365e+00
  8.815100e+00    3.270200e+00
  8.830975e+00    3.294065e+00
  8.846851e+00    3.297423e+00
  8.862727e+00    3.354687e+00
  8.878602e+00    3.312183e+00
  8.894478e+00    3.306755e+00
  8.910353e+00    3.286945e+00
  8.926229e+00    3.337889e+00
  8.942104e+00    3.283897e+00
  8.957980e+00    3.299979e+00
  8.973856e+00    3.268968e+00
  8.989731e+00    3.296341e+00
  9.005607e+00    3.222023e+00
  9.021482e+00    3.231992e+00
  9.037358e+00    3.311725e+00
  9.053233e+00    3.303551e+00
  9.069109e+00    3.260467e+00
  9.084985e+00    3.269898e+00
  9.100860e+00    3.205261e+00
  9.116736e+00    3.209152e+00
  9.132611e+00    3.203581e+00
  9.148487e+00    3.252769e+00
  9.164362e+00    3.292112e+00
  9.180238e+00    3.247820e+00
  9.196114e+00    3.259581e+00
  9.211989e+00    3.243435e+00
  9.227865e+00    3.201271e+00
  9.243740e+00    3.219552e+00
  9.259616e+00    3.209523e+00
  9.275491e+00    3.287309e+00
  9.291367e+00    3.274906e+00
  9.307243e+00    3.305950e+00
  9.323118e+00    3.291726e+00
  9.338994e+00    3.259104e+00
  9.354869e+00    3.284278e+00
  9.370745e+00    3.258872e+00
  9.386620e+00    3.247830e+00
  9.402496e+00    3.245679e+00
  9.418372e+00    3.178331e+00
  9.434247e+00    3.183327e+00
  9.450123e+00    3.228395e+00
  9.465998e+00    3.214895e+00
  9.481874e+00    3.235762e+00
  9.497749e+00    3.253816e+00
  9.513625e+00    3.240009e+00
  9.529501e+00    3.198005e+00
  9.545376e+00    3.224296e+00
  9.561252e+00    3.192514e+00
  9.577127e+00    3.198780e+00
  9.593003e+00    3.260808e+00
  9.608878e+00    3.258521e+00
  9.624754e+00    3.206643e+00
  9.640630e+00    3.265264e+00
  9.656505e+00    3.195544e+00
  9.672381e+00    3.167525e+00
  9.688256e+00    3.130491e+00
  9.704132e+00    3.168905e+00
  9.720008e+00    3.257363e+00
  9.735883e+00    3.204139e+00
  9.751759e+00    3.182387e+00
  9.767634e+00    3.197338e+00
  9.783510e+00    3.135798e+00
  9.799385e+00    3.146962e+00
  9.815261e+00    3.160469e+00
  9.831137e+00    3.139050e+00
  9.847012e+00    3.140331e+00
  9.862888e+00    3.171954e+00
  9.878763e+00    3.170016e+00
  9.894639e+00    3.077896e+00
  9.910514e+00    3.087239e+00
  9.926390e+00    3.117797e+00
  9.942266e+00    3.102822e+00
  9.958141e+00    3.068010e+00
  9.974017e+00    3.033340e+00
  9.989892e+00    3.056482e+00
  1.000577e+01    3.155822e+00
  1.002164e+01    3.109187e+00
  1.003752e+01    3.103430e+00
  1.005339e+01    3.110780e+00
  1.006927e+01    3.105880e+00
  1.008515e+01    3.084591e+00
  1.010102e+01    3.118869e+00
  1.011690e+01    3.114135e+00
  1.013277e+01    3.069416e+00
  1.014865e+01    3.081087e+00
  1.016452e+01    3.116009e+00
  1.018040e+01    3.053113e+00
  1.019627e+01    3.013131e+00
  1.021215e+01    3.026145e+00
  1.022803e+01    3.126365e+00
  1.024390e+01    3.068762e+00
  1.025978e+01    3.076629e+00
  1.027565e+01    3.068383e+00
  1.029153e+01    3.016351e+00
  1.030740e+01    3.051234e+00
  1.032328e+01    3.025579e+00
  1.033915e+01    3.020998e+00
  1.035503e+01    3.060170e+00
  1.037091e+01    3.044114e+00
  1.038678e+01    3.050728e+00
  1.040266e+01    3.037264e+00
  1.041853e+01    3.035463e+00
  1.043441e+01    3.053272e+00
  1.045028e+01    3.000382e+00
  1.046616e+01    2.962273e+00
  1.048204e+01    3.031075e+00
  1.049791e+01    3.026668e+00
  1.051379e+01    3.016551e+00
  1.052966e+01    3.001447e+00
  1.054554e+01    3.000423e+00
  1.056141e+01    2.987598e+00
  1.057729e+01    3.007922e+00
  1.059316e+01    2.981110e+00
  1.060904e+01    2.984342e+00
  1.062492e+01    3.007277e+00
  1.064079e+01    2.962102e+00
  1.065667e+01    3.011954e+00
  1.067254e+01    2.939118e+00
  1.068842e+01    2.909354e+00
  1.070429e+01    2.949426e+00
  1.072017e+01    3.001516e+00
  1.073604e+01    2.974517e+00
  1.075192e+01    2.947761e+00
  1.076780e+01    2.926772e+00
  1.078367e+01    2.954327e+00
  1.079955e+01    2.925749e+00
  1.081542e+01    2.893025e+00
  1.083130e+01    2.899943e+00
  1.084717e+01    2.887741e+00
  1.086305e+01    2.945916e+00
  1.087892e+01    2.944330e+00
  1.089480e+01    2.891311e+00
  1.091068e+01    2.918527e+00
  1.092655e+01    2.902978e+00
  1.094243e+01    2.894412e+00
  1.095830e+01    2.903756e+00
  1.097418e+01    2.948932e+00
  1.099005e+01    2.906275e+00
  1.100593e+01    2.932689e+00
  1.102180e+01    2.916049e+00
  1.103768e+01    2.886083e+00
  1.105356e+01    2.945274e+00
  1.106943e+01    2.912239e+00
  1.108531e+01    2.902658e+00
  1.110118e+01    2.931032e+00
  1.111706e+01    2.818052e+00
  1.113293e+01    2.844378e+00
  1.114881e+01    2.851501e+00
  1.116468e+01    2.836087e+00
  1.118056e+01    2.907281e+00
  1.119644e+01    2.838504e+00
  1.121231e+01    2.835320e+00
  1.122819e+01    2.868707e+00
  1.124406e+01    2.856602e+00
  1.125994e+01    2.854252e+00
  1.127581e+01    2.850889e+00
  1.129169e+01    2.859474e+00
  1.130756e+01    2.808704e+00
  1.132344e+01    2.815687e+00
  1.133932e+01    2.857931e+00
  1.135519e+01    2.853678e+00
  1.137107e+01    2.814354e+00
  1.138694e+01    2.841442e+00
  1.140282e+01    2.813767e+00
  1.141869e+01    2.824261e+00
  1.143457e+01    2.827081e+00
  1.145045e+01    2.774064e+00
  1.146632e+01    2.797823e+00
  1.148220e+01    2.791289e+00
  1.149807e+01    2.779595e+00
  1.151395e+01    2.811025e+00
  1.152982e+01    2.781399e+00
  1.154570e+01    2.747228e+00
  1.156157e+01    2.743773e+00
  1.157745e+01    2.798947e+00
  1.159333e+01    2.820206e+00
  1.160920e+01    2.825381e+00
  1.162508e+01    2.779401e+00
  1.164095e+01    2.790980e+00
  1.165683e+01    2.839128e+00
  1.167270e+01    2.809146e+00
  1.168858e+01    2.777428e+00
  1.170445e+01    2.763634e+00
  1.172033e+01    2.759841e+00
  1.173621e+01    2.767067e+00
  1.175208e+01    2.746936e+00
  1.176796e+01    2.739929e+00
  1.178383e+01    2.716369e+00
  1.179971e+01    2.748242e+00
  1.181558e+01    2.736399e+00
  1.183146e+01    2.785925e+00
  1.184733e+01    2.713743e+00
  1.186321e+01    2.651458e+00
  1.187909e+01    2.773701e+00
  1.189496e+01    2.790448e+00
  1.191084e+01    2.791681e+00
  1.192671e+01    2.788940e+00
  1.194259e+01    2.698696e+00
  1.195846e+01    2.716434e+00
  1.197434e+01    2.699785e+00
  1.199021e+01    2.690135e+00
  1.200609e+01    2.688959e+00
  1.202197e+01    2.680078e+00
  1.203784e+01    2.691949e+00
  1.205372e+01    2.710326e+00
  1.206959e+01    2.705288e+00
  1.208547e+01    2.707394e+00
  1.210134e+01    2.741426e+00
  1.211722e+01    2.695418e+00
  1.213309e+01    2.726820e+00
  1.214897e+01    2.729720e+00
  1.216485e+01    2.630170e+00
  1.218072e+01    2.657054e+00
  1.219660e+01    2.742222e+00
  1.221247e+01    2.699974e+00
  1.222835e+01    2.727129e+00
  1.224422e+01    2.676902e+00
  1.226010e+01    2.677616e+00
  1.227597e+01    2.704013e+00
  1.229185e+01    2.710100e+00
  1.230773e+01    2.685877e+00
  1.232360e+01    2.698283e+00
  1.233948e+01    2.700274e+00
  1.235535e+01    2.712897e+00
  1.237123e+01    2.716129e+00
  1.238710e+01    2.690107e+00
  1.240298e+01    2.691080e+00
  1.241886e+01    2.746880e+00
  1.243473e+01    2.712298e+00
  1.245061e+01    2.692510e+00
  1.246648e+01    2.735898e+00
  1.248236e+01    2.717963e+00
  1.249823e+01    2.666178e+00
  1.251411e+01    2.661577e+00
  1.252998e+01    2.677107e+00
  1.254586e+01    2.710411e+00
  1.256174e+01    2.757035e+00
  1.257761e+01    2.762214e+00
  1.259349e+01    2.756709e+00
  1.260936e+01    2.772227e+00
  1.262524e+01    2.770164e+00
  1.264111e+01    2.808789e+00
  1.265699e+01    2.825588e+00
  1.267286e+01    2.789916e+00
  1.268874e+01    2.801807e+00
  1.270462e+01    2.813860e+00
  1.272049e+01    2.803306e+00
  1.273637e+01    2.853962e+00
  1.275224e+01    2.869941e+00
  1.276812e+01    2.859383e+00
  1.278399e+01    2.907730e+00
  1.279987e+01    2.970949e+00
  1.281574e+01    2.993108e+00
  1.283162e+01    3.107969e+00
  1.284750e+01    3.157329e+00
  1.286337e+01    3.249147e+00
  1.287925e+01    3.356058e+00
  1.289512e+01    3.476186e+00
  1.291100e+01    3.635668e+00
  1.292687e+01    3.866166e+00
  1.294275e+01    4.028872e+00
  1.295862e+01    4.411490e+00
  1.297450e+01    4.789555e+00
  1.299038e+01    5.239044e+00
  1.300625e+01    5.813035e+00
  1.302213e+01    6.615063e+00
  1.303800e+01    7.651882e+00
  1.305388e+01    8.815053e+00
  1.306975e+01    1.011465e+01
  1.308563e+01    1.144358e+01
  1.310150e+01    1.261234e+01
  1.311738e+01    1.374462e+01
  1.313326e+01    1.479617e+01
  1.314913e+01    1.565384e+01
  1.316501e+01    1.621388e+01
  1.318088e+01    1.632358e+01
  1.319676e+01    1.554394e+01
  1.321263e+01    1.419612e+01
  1.322851e+01    1.259716e+01
  1.324438e+01    1.071392e+01
  1.326026e+01    9.088506e+00
  1.327614e+01    7.824622e+00
  1.329201e+01    6.759984e+00
  1.330789e+01    5.987463e+00
  1.332376e+01    5.295175e+00
  1.333964e+01    4.815994e+00
  1.335551e+01    4.430042e+00
  1.337139e+01    4.141500e+00
  1.338727e+01    3.853965e+00
  1.340314e+01    3.667385e+00
  1.341902e+01    3.473880e+00
  1.343489e+01    3.312387e+00
  1.345077e+01    3.197040e+00
  1.346664e+01    3.098220e+00
  1.348252e+01    2.988982e+00
  1.349839e+01    2.956365e+00
  1.351427e+01    2.923833e+00
  1.353015e+01    2.838195e+00
  1.354602e+01    2.805635e+00
  1.356190e+01    2.782967e+00
  1.357777e+01    2.730868e+00
  1.359365e+01    2.656945e+00
  1.360952e+01    2.599791e+00
  1.362540e+01    2.594449e+00
  1.364127e+01    2.609102e+00
  1.365715e+01    2.605643e+00
  1.367303e+01    2.585232e+00
  1.368890e+01    2.606043e+00
  1.370478e+01    2.561357e+00
  1.372065e+01    2.544005e+00
  1.373653e+01    2.513697e+00
  1.375240e+01    2.499627e+00
  1.376828e+01    2.505748e+00
  1.378415e+01    2.480203e+00
  1.380003e+01    2.457289e+00
  1.381591e+01    2.468303e+00
  1.383178e+01    2.425410e+00
  1.384766e+01    2.413449e+00
  1.386353e+01    2.442410e+00
  1.387941e+01    2.413037e+00
  1.389528e+01    2.407783e+00
  1.391116e+01    2.400445e+00
  1.392703e+01    2.406703e+00
  1.394291e+01    2.388099e+00
  1.395879e+01    2.411642e+00
  1.397466e+01    2.397215e+00
  1.399054e+01    2.379147e+00
  1.400641e+01    2.404828e+00
  1.402229e+01    2.358735e+00
  1.403816e+01    2.324825e+00
  1.405404e+01    2.362596e+00
  1.406991e+01    2.339577e+00
  1.408579e+01    2.346647e+00
  1.410167e+01    2.333297e+00
  1.411754e+01    2.316654e+00
  1.413342e+01    2.341991e+00
  1.414929e+01    2.348037e+00
  1.416517e+01    2.313716e+00
  1.418104e+01    2.315380e+00
  1.419692e+01    2.283343e+00
  1.421279e+01    2.268700e+00
  1.422867e+01    2.259194e+00
  1.424455e+01    2.272763e+00
  1.426042e+01    2.277569e+00
  1.427630e+01    2.281061e+00
  1.429217e+01    2.296029e+00
  1.430805e+01    2.246171e+00
  1.432392e+01    2.235861e+00
  1.433980e+01    2.289511e+00
  1.435568e+01    2.265817e+00
  1.437155e+01    2.219042e+00
  1.438743e+01    2.205650e+00
  1.440330e+01    2.227082e+00
  1.441918e+01    2.210091e+00
  1.443505e+01    2.201467e+00
  1.445093e+01    2.271354e+00
  1.446680e+01    2.297272e+00
  1.448268e+01    2.232824e+00
  1.449856e+01    2.235273e+00
  1.451443e+01    2.210909e+00
  1.453031e+01    2.192916e+00
  1.454618e+01    2.195926e+00
  1.456206e+01    2.211292e+00
  1.457793e+01    2.219660e+00
  1.459381e+01    2.186243e+00
  1.460968e+01    2.177647e+00
  1.462556e+01    2.167268e+00
  1.464144e+01    2.199180e+00
  1.465731e+01    2.163779e+00
  1.467319e+01    2.214365e+00
  1.468906e+01    2.220652e+00
  1.470494e+01    2.162289e+00
  1.472081e+01    2.161390e+00
  1.473669e+01    2.190862e+00
  1.475256e+01    2.164708e+00
  1.476844e+01    2.170941e+00
  1.478432e+01    2.199596e+00
  1.480019e+01    2.173976e+00
  1.481607e+01    2.192224e+00
  1.483194e+01    2.209091e+00
  1.484782e+01    2.221138e+00
  1.486369e+01    2.192252e+00
  1.487957e+01    2.181724e+00
  1.489544e+01    2.217791e+00
  1.491132e+01    2.244315e+00
  1.492720e+01    2.294874e+00
  1.494307e+01    2.287540e+00
  1.495895e+01    2.281988e+00
  1.497482e+01    2.380973e+00
  1.499070e+01    2.415864e+00
  1.500657e+01    2.478313e+00
  1.502245e+01    2.531260e+00
  1.503832e+01    2.591140e+00
  1.505420e+01    2.673599e+00
  1.507008e+01    2.841433e+00
  1.508595e+01    3.004438e+00
  1.510183e+01    3.178941e+00
  1.511770e+01    3.420590e+00
  1.513358e+01    3.767190e+00
  1.514945e+01    4.169247e+00
  1.516533e+01    4.522184e+00
  1.518120e+01    4.892663e+00
  1.519708e+01    5.177433e+00
  1.521296e+01    5.429348e+00
  1.522883e+01    5.659725e+00
  1.524471e+01    5.724130e+00
  1.526058e+01    5.766321e+00
  1.527646e+01    5.681843e+00
  1.529233e+01    5.456418e+00
  1.530821e+01    5.094637e+00
  1.532409e+01    4.652801e+00
  1.533996e+01    4.206482e+00
  1.535584e+01    3.825006e+00
  1.537171e+01    3.389868e+00
  1.538759e+01    3.127958e+00
  1.540346e+01    2.966198e+00
  1.541934e+01    2.798779e+00
  1.543521e+01    2.602497e+00
  1.545109e+01    2.525166e+00
  1.546697e+01    2.458844e+00
  1.548284e+01    2.331443e+00
  1.549872e+01    2.292922e+00
  1.551459e+01    2.234760e+00
  1.553047e+01    2.193590e+00
  1.554634e+01    2.183474e+00
  1.556222e+01    2.131131e+00
  1.557809e+01    2.119640e+00
  1.559397e+01    2.105704e+00
  1.560985e+01    2.078485e+00
  1.562572e+01    2.028933e+00
  1.564160e+01    2.019360e+00
  1.565747e+01    1.994542e+00
  1.567335e+01    1.986071e+00
  1.568922e+01    2.026450e+00
  1.570510e+01    2.007372e+00
  1.572097e+01    1.967543e+00
  1.573685e+01    1.965181e+00
  1.575273e+01    2.021180e+00
  1.576860e+01    1.938264e+00
  1.578448e+01    1.900412e+00
  1.580035e+01    1.930823e+00
  1.581623e+01    1.938578e+00
  1.583210e+01    1.922029e+00
  1.584798e+01    1.915248e+00
  1.586385e+01    1.894557e+00
  1.587973e+01    1.895259e+00
  1.589561e+01    1.898680e+00
  1.591148e+01    1.893940e+00
  1.592736e+01    1.885402e+00
  1.594323e+01    1.886486e+00
  1.595911e+01    1.894622e+00
  1.597498e+01    1.899755e+00
  1.599086e+01    1.903524e+00
  1.600673e+01    1.904645e+00
  1.602261e+01    1.865662e+00
  1.603849e+01    1.847133e+00
  1.605436e+01    1.834930e+00
  1.607024e+01    1.847965e+00
  1.608611e+01    1.848593e+00
  1.610199e+01    1.846548e+00
  1.611786e+01    1.844848e+00
  1.613374e+01    1.848851e+00
  1.614961e+01    1.862317e+00
  1.616549e+01    1.825230e+00
  1.618137e+01    1.792529e+00
  1.619724e+01    1.838800e+00
  1.621312e+01    1.816018e+00
  1.622899e+01    1.813321e+00
  1.624487e+01    1.817347e+00
  1.626074e+01    1.823145e+00
  1.627662e+01    1.828498e+00
  1.629250e+01    1.808212e+00
  1.630837e+01    1.806241e+00
  1.632425e+01    1.831169e+00
  1.634012e+01    1.792089e+00
  1.635600e+01    1.783670e+00
  1.637187e+01    1.770669e+00
  1.638775e+01    1.761374e+00
  1.640362e+01    1.762401e+00
  1.641950e+01    1.777075e+00
  1.643538e+01    1.749282e+00
  1.645125e+01    1.689502e+00
  1.646713e+01    1.721782e+00
  1.648300e+01    1.778858e+00
  1.649888e+01    1.782086e+00
  1.651475e+01    1.772420e+00
  1.653063e+01    1.777171e+00
  1.654650e+01    1.735917e+00
  1.656238e+01    1.729352e+00
  1.657826e+01    1.724041e+00
  1.659413e+01    1.742314e+00
  1.661001e+01    1.764997e+00
  1.662588e+01    1.742453e+00
  1.664176e+01    1.725816e+00
  1.665763e+01    1.751126e+00
  1.667351e+01    1.750262e+00
  1.668938e+01    1.745564e+00
  1.670526e+01    1.734624e+00
  1.672114e+01    1.690463e+00
  1.673701e+01    1.722973e+00
  1.675289e+01    1.726894e+00
  1.676876e+01    1.739656e+00
  1.678464e+01    1.717157e+00
  1.680051e+01    1.699952e+00
  1.681639e+01    1.688285e+00
  1.683226e+01    1.683502e+00
  1.684814e+01    1.684741e+00
  1.686402e+01    1.666834e+00
  1.687989e+01    1.689809e+00
  1.689577e+01    1.689441e+00
  1.691164e+01    1.706978e+00
  1.692752e+01    1.677458e+00
  1.694339e+01    1.695176e+00
  1.695927e+01    1.703382e+00
  1.697514e+01    1.661645e+00
  1.699102e+01    1.648347e+00
  1.700690e+01    1.665359e+00
  1.702277e+01    1.651013e+00
  1.703865e+01    1.656825e+00
  1.705452e+01    1.657471e+00
  1.707040e+01    1.609550e+00
  1.708627e+01    1.621798e+00
  1.710215e+01    1.646604e+00
  1.711802e+01    1.609241e+00
  1.713390e+01    1.621183e+00
  1.714978e+01    1.639305e+00
  1.716565e+01    1.660582e+00
  1.718153e+01    1.647189e+00
  1.719740e+01    1.649810e+00
  1.721328e+01    1.632588e+00
  1.722915e+01    1.628459e+00
  1.724503e+01    1.621333e+00
  1.726091e+01    1.629204e+00
  1.727678e+01    1.656678e+00
  1.729266e+01    1.617636e+00
  1.730853e+01    1.611228e+00
  1.732441e+01    1.600794e+00
  1.734028e+01    1.598046e+00
  1.735616e+01    1.624285e+00
  1.737203e+01    1.613819e+00
  1.738791e+01    1.593417e+00
  1.740379e+01    1.592074e+00
  1.741966e+01    1.589937e+00
  1.743554e+01    1.590483e+00
  1.745141e+01    1.555926e+00
  1.746729e+01    1.587524e+00
  1.748316e+01    1.569761e+00
  1.749904e+01    1.586437e+00
  1.751491e+01    1.593858e+00
  1.753079e+01    1.548721e+00
  1.754667e+01    1.555995e+00
  1.756254e+01    1.534791e+00
  1.757842e+01    1.542086e+00
  1.759429e+01    1.547737e+00
  1.761017e+01    1.543956e+00
  1.762604e+01    1.572755e+00
  1.764192e+01    1.549246e+00
  1.765779e+01    1.587611e+00
  1.767367e+01    1.569275e+00
  1.768955e+01    1.524396e+00
  1.770542e+01    1.562396e+00
  1.772130e+01    1.559673e+00
  1.773717e+01    1.553836e+00
  1.775305e+01    1.571355e+00
  1.776892e+01    1.534144e+00
  1.778480e+01    1.515853e+00
  1.780067e+01    1.521245e+00
  1.781655e+01    1.515172e+00
  1.783243e+01    1.534120e+00
  1.784830e+01    1.541487e+00
  1.786418e+01    1.544546e+00
  1.788005e+01    1.551656e+00
  1.789593e+01    1.540466e+00
  1.791180e+01    1.509484e+00
  1.792768e+01    1.512656e+00
  1.794355e+01    1.512595e+00
  1.795943e+01    1.508467e+00
  1.797531e+01    1.507645e+00
  1.799118e+01    1.520504e+00
  1.800706e+01    1.507059e+00
  1.802293e+01    1.504661e+00
  1.803881e+01    1.501691e+00
  1.805468e+01    1.473598e+00
  1.807056e+01    1.464853e+00
  1.808643e+01    1.479033e+00
  1.810231e+01    1.480473e+00
  1.811819e+01    1.528905e+00
  1.813406e+01    1.514953e+00
  1.814994e+01    1.475823e+00
  1.816581e+01    1.448839e+00
  1.818169e+01    1.476313e+00
  1.819756e+01    1.492566e+00
  1.821344e+01    1.486048e+00
  1.822932e+01    1.483844e+00
  1.824519e+01    1.487697e+00
  1.826107e+01    1.518063e+00
  1.827694e+01    1.511857e+00
  1.829282e+01    1.500073e+00
  1.830869e+01    1.500811e+00
  1.832457e+01    1.448273e+00
  1.834044e+01    1.469690e+00
  1.835632e+01    1.470510e+00
  1.837220e+01    1.468538e+00
  1.838807e+01    1.442905e+00
  1.840395e+01    1.454298e+00
  1.841982e+01    1.440612e+00
  1.843570e+01    1.422330e+00
  1.845157e+01    1.428500e+00
  1.846745e+01    1.444276e+00
  1.848332e+01    1.475375e+00
  1.849920e+01    1.451431e+00
  1.851508e+01    1.446702e+00
  1.853095e+01    1.454291e+00
  1.854683e+01    1.447834e+00
  1.856270e+01    1.448668e+00
  1.857858e+01    1.409899e+00
  1.859445e+01    1.421773e+00
  1.861033e+01    1.414194e+00
  1.862620e+01    1.416932e+00
  1.864208e+01    1.435877e+00
  1.865796e+01    1.411051e+00
  1.867383e+01    1.426723e+00
  1.868971e+01    1.400886e+00
  1.870558e+01    1.412654e+00
  1.872146e+01    1.408288e+00
  1.873733e+01    1.439272e+00
  1.875321e+01    1.448739e+00
  1.876908e+01    1.441588e+00
  1.878496e+01    1.428022e+00
  1.880084e+01    1.400602e+00
  1.881671e+01    1.378017e+00
  1.883259e+01    1.384875e+00
  1.884846e+01    1.375396e+00
  1.886434e+01    1.380007e+00
  1.888021e+01    1.372425e+00
  1.889609e+01    1.393955e+00
  1.891196e+01    1.402670e+00
  1.892784e+01    1.366021e+00
  1.894372e+01    1.373941e+00
  1.895959e+01    1.381090e+00
  1.897547e+01    1.363279e+00
  1.899134e+01    1.360061e+00
  1.900722e+01    1.395625e+00
  1.902309e+01    1.394214e+00
  1.903897e+01    1.406113e+00
  1.905484e+01    1.401756e+00
  1.907072e+01    1.379110e+00
  1.908660e+01    1.376366e+00
  1.910247e+01    1.374850e+00
  1.911835e+01    1.347428e+00
  1.913422e+01    1.342744e+00
  1.915010e+01    1.340679e+00
  1.916597e+01    1.343501e+00
  1.918185e+01    1.354164e+00
  1.919773e+01    1.361540e+00
  1.921360e+01    1.381595e+00
  1.922948e+01    1.392176e+00
  1.924535e+01    1.383377e+00
  1.926123e+01    1.369411e+00
  1.927710e+01    1.357370e+00
  1.929298e+01    1.375150e+00
  1.930885e+01    1.380568e+00
  1.932473e+01    1.390286e+00
  1.934061e+01    1.350817e+00
  1.935648e+01    1.328232e+00
  1.937236e+01    1.351653e+00
  1.938823e+01    1.338018e+00
  1.940411e+01    1.331084e+00
  1.941998e+01    1.335307e+00
  1.943586e+01    1.354116e+00
  1.945173e+01    1.336113e+00
  1.946761e+01    1.346378e+00
  1.948349e+01    1.348200e+00
  1.949936e+01    1.324062e+00
  1.951524e+01    1.311738e+00
  1.953111e+01    1.311242e+00
  1.954699e+01    1.346096e+00
  1.956286e+01    1.313618e+00
  1.957874e+01    1.317190e+00
  1.959461e+01    1.327467e+00
  1.961049e+01    1.321171e+00
  1.962637e+01    1.302889e+00
  1.964224e+01    1.307955e+00
  1.965812e+01    1.301684e+00
  1.967399e+01    1.301107e+00
  1.968987e+01    1.297849e+00
  1.970574e+01    1.311959e+00
  1.972162e+01    1.288691e+00
  1.973749e+01    1.304080e+00
  1.975337e+01    1.314566e+00
  1.976925e+01    1.303550e+00
  1.978512e+01    1.316708e+00
  1.980100e+01    1.326061e+00
  1.981687e+01    1.285138e+00
  1.983275e+01    1.271541e+00
  1.984862e+01    1.294021e+00
  1.986450e+01    1.283158e+00
  1.988037e+01    1.306095e+00
  1.989625e+01    1.285773e+00
  1.991213e+01    1.281351e+00
  1.992800e+01    1.269158e+00
  1.994388e+01    1.273653e+00
  1.995975e+01    1.288417e+00
  1.997563e+01    1.290862e+00
  1.999150e+01    1.299905e+00
  2.000738e+01    1.297743e+00
  2.002325e+01    1.286356e+00
  2.003913e+01    1.266114e+00
  2.005501e+01    1.271941e+00
  2.007088e+01    1.270493e+00
  2.008676e+01    1.270677e+00
  2.010263e+01    1.265265e+00
  2.011851e+01    1.269770e+00
  2.013438e+01    1.276095e+00
  2.015026e+01    1.286007e+00
  2.016614e+01    1.287107e+00
  2.018201e+01    1.247285e+00
  2.019789e+01    1.250390e+00
  2.021376e+01    1.269387e+00
  2.022964e+01    1.272864e+00
  2.024551e+01    1.246390e+00
  2.026139e+01    1.246051e+00
  2.027726e+01    1.272418e+00
  2.029314e+01    1.278022e+00
  2.030902e+01    1.265329e+00
  2.032489e+01    1.234134e+00
  2.034077e+01    1.236711e+00
  2.035664e+01    1.237073e+00
  2.037252e+01    1.228256e+00
  2.038839e+01    1.238045e+00
  2.040427e+01    1.261302e+00
  2.042014e+01    1.270510e+00
  2.043602e+01    1.257771e+00
  2.045190e+01    1.247588e+00
  2.046777e+01    1.264522e+00
  2.048365e+01    1.255280e+00
  2.049952e+01    1.244334e+00
  2.051540e+01    1.265882e+00
  2.053127e+01    1.232448e+00
  2.054715e+01    1.247234e+00
  2.056302e+01    1.254746e+00
  2.057890e+01    1.209016e+00
  2.059478e+01    1.208175e+00
  2.061065e+01    1.244105e+00
  2.062653e+01    1.219882e+00
  2.064240e+01    1.231827e+00
  2.065828e+01    1.250881e+00
  2.067415e+01    1.238546e+00
  2.069003e+01    1.212852e+00
  2.070590e+01    1.230131e+00
  2.072178e+01    1.245888e+00
  2.073766e+01    1.273050e+00
  2.075353e+01    1.222104e+00
  2.076941e+01    1.226697e+00
  2.078528e+01    1.211647e+00
  2.080116e+01    1.221483e+00
  2.081703e+01    1.218099e+00
  2.083291e+01    1.220104e+00
  2.084878e+01    1.226600e+00
  2.086466e+01    1.213525e+00
  2.088054e+01    1.224541e+00
  2.089641e+01    1.209654e+00
  2.091229e+01    1.195038e+00
  2.092816e+01    1.230300e+00
  2.094404e+01    1.243823e+00
  2.095991e+01    1.224206e+00
  2.097579e+01    1.227805e+00
  2.099166e+01    1.245717e+00
  2.100754e+01    1.223806e+00
  2.102342e+01    1.197412e+00
  2.103929e+01    1.208007e+00
  2.105517e+01    1.227458e+00
  2.107104e+01    1.235181e+00
  2.108692e+01    1.208786e+00
  2.110279e+01    1.213184e+00
  2.111867e+01    1.217542e+00
  2.113455e+01    1.211016e+00
  2.115042e+01    1.222439e+00
  2.116630e+01    1.240442e+00
  2.118217e+01    1.243401e+00
  2.119805e+01    1.236227e+00
  2.121392e+01    1.236883e+00
  2.122980e+01    1.238086e+00
  2.124567e+01    1.229828e+00
  2.126155e+01    1.233392e+00
  2.127743e+01    1.257545e+00
  2.129330e+01    1.271981e+00
  2.130918e+01    1.256106e+00
  2.132505e+01    1.265487e+00
  2.134093e+01    1.282281e+00
  2.135680e+01    1.306166e+00
  2.137268e+01    1.298516e+00
  2.138855e+01    1.299609e+00
  2.140443e+01    1.311363e+00
  2.142031e+01    1.331989e+00
  2.143618e+01    1.334554e+00
  2.145206e+01    1.330083e+00
  2.146793e+01    1.338288e+00
  2.148381e+01    1.350741e+00
  2.149968e+01    1.379638e+00
  2.151556e+01    1.421228e+00
  2.153143e+01    1.473461e+00
  2.154731e+01    1.511231e+00
  2.156319e+01    1.537408e+00
  2.157906e+01    1.615249e+00
  2.159494e+01    1.684113e+00
  2.161081e+01    1.758570e+00
  2.162669e+01    1.847085e+00
  2.164256e+01    1.966358e+00
  2.165844e+01    2.103096e+00
  2.167431e+01    2.255682e+00
  2.169019e+01    2.482529e+00
  2.170607e+01    2.760306e+00
  2.172194e+01    3.090311e+00
  2.173782e+01    3.515540e+00
  2.175369e+01    4.015475e+00
  2.176957e+01    4.526330e+00
  2.178544e+01    5.151230e+00
  2.180132e+01    5.814409e+00
  2.181719e+01    6.482052e+00
  2.183307e+01    7.127237e+00
  2.184895e+01    7.748319e+00
  2.186482e+01    8.343939e+00
  2.188070e+01    8.779008e+00
  2.189657e+01    8.917343e+00
  2.191245e+01    8.796964e+00
  2.192832e+01    8.321763e+00
  2.194420e+01    7.555954e+00
  2.196007e+01    6.559124e+00
  2.197595e+01    5.629764e+00
  2.199183e+01    4.856421e+00
  2.200770e+01    4.230458e+00
  2.202358e+01    3.665596e+00
  2.203945e+01    3.198560e+00
  2.205533e+01    2.857618e+00
  2.207120e+01    2.558074e+00
  2.208708e+01    2.358316e+00
  2.210296e+01    2.138263e+00
  2.211883e+01    2.017306e+00
  2.213471e+01    1.902929e+00
  2.215058e+01    1.801846e+00
  2.216646e+01    1.677631e+00
  2.218233e+01    1.592785e+00
  2.219821e+01    1.565051e+00
  2.221408e+01    1.523765e+00
  2.222996e+01    1.448799e+00
  2.224584e+01    1.431045e+00
  2.226171e+01    1.392765e+00
  2.227759e+01    1.358384e+00
  2.229346e+01    1.302356e+00
  2.230934e+01    1.288131e+00
  2.232521e+01    1.287494e+00
  2.234109e+01    1.262971e+00
  2.235696e+01    1.242733e+00
  2.237284e+01    1.220792e+00
  2.238872e+01    1.222105e+00
  2.240459e+01    1.228564e+00
  2.242047e+01    1.212145e+00
  2.243634e+01    1.195221e+00
  2.245222e+01    1.179239e+00
  2.246809e+01    1.156699e+00
  2.248397e+01    1.148938e+00
  2.249984e+01    1.157846e+00
  2.251572e+01    1.144150e+00
  2.253160e+01    1.137911e+00
  2.254747e+01    1.110514e+00
  2.256335e+01    1.124979e+00
  2.257922e+01    1.102015e+00
  2.259510e+01    1.105105e+00
  2.261097e+01    1.113134e+00
  2.262685e+01    1.092704e+00
  2.264272e+01    1.114046e+00
  2.265860e+01    1.087342e+00
  2.267448e+01    1.074401e+00
  2.269035e+01    1.076040e+00
  2.270623e+01    1.063386e+00
  2.272210e+01    1.073133e+00
  2.273798e+01    1.069367e+00
  2.275385e+01    1.050934e+00
  2.276973e+01    1.045900e+00
  2.278560e+01    1.064299e+00
  2.280148e+01    1.062385e+00
  2.281736e+01    1.047017e+00
  2.283323e+01    1.031916e+00
  2.284911e+01    1.061738e+00
  2.286498e+01    1.056510e+00
  2.288086e+01    1.043007e+00
  2.289673e+01    1.015984e+00
  2.291261e+01    1.037027e+00
  2.292848e+01    1.022954e+00
  2.294436e+01    1.026786e+00
  2.296024e+01    1.015781e+00
  2.297611e+01    1.015274e+00
  2.299199e+01    1.023264e+00
  2.300786e+01    1.016838e+00
  2.302374e+01    1.014100e+00
  2.303961e+01    1.012994e+00
  2.305549e+01    1.023161e+00
  2.307137e+01    1.004507e+00
  2.308724e+01    1.018798e+00
  2.310312e+01    1.015625e+00
  2.311899e+01    1.012213e+00
  2.313487e+01    1.001606e+00
  2.315074e+01    9.947866e-01
  2.316662e+01    9.969158e-01
  2.318249e+01    1.001671e+00
  2.319837e+01    1.017427e+00
  2.321425e+01    1.009104e+00
  2.323012e+01    9.965506e-01
  2.324600e+01    9.841323e-01
  2.326187e+01    9.775646e-01
  2.327775e+01    9.796019e-01
  2.329362e+01    9.796808e-01
  2.330950e+01    9.910533e-01
  2.332537e+01    9.831890e-01
  2.334125e+01    9.604380e-01
  2.335713e+01    9.613071e-01
  2.337300e+01    9.732170e-01
  2.338888e+01    9.540052e-01
  2.340475e+01    9.693546e-01
  2.342063e+01    9.662438e-01
  2.343650e+01    9.863749e-01
  2.345238e+01    9.598707e-01
  2.346825e+01    9.589339e-01
  2.348413e+01    9.698518e-01
  2.350001e+01    9.736708e-01
  2.351588e+01    9.723738e-01
  2.353176e+01    9.784361e-01
  2.354763e+01    9.623222e-01
  2.356351e+01    9.531626e-01
  2.357938e+01    9.520020e-01
  2.359526e+01    9.551468e-01
  2.361113e+01    9.414446e-01
  2.362701e+01    9.597459e-01
  2.364289e+01    9.580767e-01
  2.365876e+01    9.594265e-01
  2.367464e+01    9.604602e-01
  2.369051e+01    9.603610e-01
  2.370639e+01    9.430428e-01
  2.372226e+01    9.463303e-01
  2.373814e+01    9.511322e-01
  2.375401e+01    9.257677e-01
  2.376989e+01    9.338768e-01
  2.378577e+01    9.325044e-01
  2.380164e+01    9.330835e-01
  2.381752e+01    9.378875e-01
  2.383339e+01    9.245151e-01
  2.384927e+01    9.010817e-01
  2.386514e+01    9.105400e-01
  2.388102e+01    9.209735e-01
  2.389689e+01    9.185026e-01
  2.391277e+01    8.982190e-01
  2.392865e+01    8.959248e-01
  2.394452e+01    8.805085e-01
  2.396040e+01    9.084172e-01
  2.397627e+01    9.016059e-01
  2.399215e+01    9.049358e-01
  2.400802e+01    9.040987e-01
  2.402390e+01    9.031128e-01
  2.403978e+01    9.119099e-01
  2.405565e+01    8.937417e-01
  2.407153e+01    9.018742e-01
  2.408740e+01    8.650638e-01
  2.410328e+01    8.771917e-01
  2.411915e+01    8.976128e-01
  2.413503e+01    9.042231e-01
  2.415090e+01    8.848941e-01
  2.416678e+01    8.699011e-01
  2.418266e+01    8.783749e-01
  2.419853e+01    8.771839e-01
  2.421441e+01    8.910316e-01
  2.423028e+01    8.940170e-01
  2.424616e+01    8.787600e-01
  2.426203e+01    8.901506e-01
  2.427791e+01    8.867620e-01
  2.429378e+01    8.802328e-01
  2.430966e+01    8.926007e-01
  2.432554e+01    8.936814e-01
  2.434141e+01    8.909042e-01
  2.435729e+01    8.963434e-01
  2.437316e+01    9.039312e-01
  2.438904e+01    8.659000e-01
  2.440491e+01    8.754962e-01
  2.442079e+01    8.862552e-01
  2.443666e+01    8.902582e-01
  2.445254e+01    8.927764e-01
  2.446842e+01    8.983915e-01
  2.448429e+01    9.052145e-01
  2.450017e+01    8.797862e-01
  2.451604e+01    8.731573e-01
  2.453192e+01    8.893567e-01
  2.454779e+01    9.070868e-01
  2.456367e+01    9.152119e-01
  2.457954e+01    8.963544e-01
  2.459542e+01    8.800845e-01
  2.461130e+01    8.840325e-01
  2.462717e+01    9.023619e-01
  2.464305e+01    8.908210e-01
  2.465892e+01    8.857939e-01
  2.467480e+01    8.971416e-01
  2.469067e+01    8.746253e-01
  2.470655e+01    8.904638e-01
  2.472242e+01    9.073383e-01
  2.473830e+01    8.898035e-01
  2.475418e+01    8.786112e-01
  2.477005e+01    8.930730e-01
  2.478593e+01    8.986441e-01
  2.480180e+01    9.081342e-01
  2.481768e+01    8.934928e-01
  2.483355e+01    8.853992e-01
  2.484943e+01    8.960640e-01
  2.486530e+01    8.992643e-01
  2.488118e+01    9.000738e-01
  2.489706e+01    8.907759e-01
  2.491293e+01    8.878284e-01
  2.492881e+01    9.007463e-01
  2.494468e+01    8.836876e-01
  2.496056e+01    8.774016e-01
  2.497643e+01    8.910520e-01
  2.499231e+01    8.829451e-01
  2.500819e+01    9.072884e-01
  2.502406e+01    8.964044e-01
  2.503994e+01    8.862305e-01
  2.505581e+01    8.976147e-01
  2.507169e+01    9.143503e-01
  2.508756e+01    9.000259e-01
  2.510344e+01    9.083552e-01
  2.511931e+01    9.218681e-01
  2.513519e+01    9.342169e-01
  2.515107e+01    9.131721e-01
  2.516694e+01    8.963804e-01
  2.518282e+01    9.014541e-01
  2.519869e+01    9.085362e-01
  2.521457e+01    9.247949e-01
  2.523044e+01    9.244803e-01
  2.524632e+01    9.065676e-01
  2.526219e+01    9.187878e-01
  2.527807e+01    9.437790e-01
  2.529395e+01    9.539691e-01
  2.530982e+01    9.447578e-01
  2.532570e+01    9.598083e-01
  2.534157e+01    9.718233e-01
  2.535745e+01    9.483693e-01
  2.537332e+01    9.734580e-01
  2.538920e+01    9.686332e-01
  2.540507e+01    9.812053e-01
  2.542095e+01    1.002623e+00
  2.543683e+01    1.015935e+00
  2.545270e+01    1.048348e+00
  2.546858e+01    1.013220e+00
  2.548445e+01    1.032893e+00
  2.550033e+01    1.061721e+00
  2.551620e+01    1.071499e+00
  2.553208e+01    1.109741e+00
  2.554795e+01    1.105956e+00
  2.556383e+01    1.127128e+00
  2.557971e+01    1.148336e+00
  2.559558e+01    1.177163e+00
  2.561146e+01    1.224725e+00
  2.562733e+01    1.252088e+00
  2.564321e+01    1.290234e+00
  2.565908e+01    1.352911e+00
  2.567496e+01    1.422874e+00
  2.569083e+01    1.509270e+00
  2.570671e+01    1.574863e+00
  2.572259e+01    1.679978e+00
  2.573846e+01    1.803043e+00
  2.575434e+01    2.006755e+00
  2.577021e+01    2.214173e+00
  2.578609e+01    2.477803e+00
  2.580196e+01    2.797256e+00
  2.581784e+01    3.170590e+00
  2.583371e+01    3.597583e+00
  2.584959e+01    4.078274e+00
  2.586547e+01    4.650407e+00
  2.588134e+01    5.222517e+00
  2.589722e+01    5.762094e+00
  2.591309e+01    6.278826e+00
  2.592897e+01    6.699312e+00
  2.594484e+01    6.994574e+00
  2.596072e+01    7.053375e+00
  2.597660e+01    6.905239e+00
  2.599247e+01    6.552277e+00
  2.600835e+01    6.004427e+00
  2.602422e+01    5.339471e+00
  2.604010e+01    4.655582e+00
  2.605597e+01    4.045366e+00
  2.607185e+01    3.472174e+00
  2.608772e+01    2.998199e+00
  2.610360e+01    2.633089e+00
  2.611948e+01    2.382493e+00
  2.613535e+01    2.140529e+00
  2.615123e+01    1.930631e+00
  2.616710e+01    1.782058e+00
  2.618298e+01    1.647784e+00
  2.619885e+01    1.557162e+00
  2.621473e+01    1.490246e+00
  2.623060e+01    1.428415e+00
  2.624648e+01    1.353364e+00
  2.626236e+01    1.263889e+00
  2.627823e+01    1.221291e+00
  2.629411e+01    1.202358e+00
  2.630998e+01    1.188295e+00
  2.632586e+01    1.160151e+00
  2.634173e+01    1.143662e+00
  2.635761e+01    1.134097e+00
  2.637348e+01    1.102086e+00
  2.638936e+01    1.095270e+00
  2.640524e+01    1.062625e+00
  2.642111e+01    1.043925e+00
  2.643699e+01    1.033762e+00
  2.645286e+01    1.037313e+00
  2.646874e+01    1.035052e+00
  2.648461e+01    1.016847e+00
  2.650049e+01    9.954098e-01
  2.651636e+01    9.977527e-01
  2.653224e+01    9.895664e-01
  2.654812e+01    9.906890e-01
  2.656399e+01    9.843990e-01
  2.657987e+01    9.831826e-01
  2.659574e+01    9.869995e-01
  2.661162e+01    9.915422e-01
  2.662749e+01    9.835442e-01
  2.664337e+01    9.882184e-01
  2.665924e+01    9.717001e-01
  2.667512e+01    9.627094e-01
  2.669100e+01    9.723421e-01
  2.670687e+01    9.591686e-01
  2.672275e+01    9.557590e-01
  2.673862e+01    9.565396e-01
  2.675450e+01    9.554337e-01
  2.677037e+01    9.495682e-01
  2.678625e+01    9.629976e-01
  2.680212e+01    9.612729e-01
  2.681800e+01    9.757304e-01
  2.683388e+01    9.817114e-01
  2.684975e+01    9.960054e-01
  2.686563e+01    9.747744e-01
  2.688150e+01    9.710447e-01
  2.689738e+01    9.789553e-01
  2.691325e+01    1.011081e+00
  2.692913e+01    1.021838e+00
  2.694501e+01    1.028271e+00
  2.696088e+01    1.013990e+00
  2.697676e+01    1.075036e+00
  2.699263e+01    1.123469e+00
  2.700851e+01    1.112995e+00
  2.702438e+01    1.134127e+00
  2.704026e+01    1.197901e+00
  2.705613e+01    1.231645e+00
  2.707201e+01    1.284158e+00
  2.708789e+01    1.397396e+00
  2.710376e+01    1.495720e+00
  2.711964e+01    1.612652e+00
  2.713551e+01    1.699445e+00
  2.715139e+01    1.824849e+00
  2.716726e+01    1.987380e+00
  2.718314e+01    2.084407e+00
  2.719901e+01    2.122075e+00
  2.721489e+01    2.146344e+00
  2.723077e+01    2.151575e+00
  2.724664e+01    2.076679e+00
  2.726252e+01    1.968836e+00
  2.727839e+01    1.841592e+00
  2.729427e+01    1.700595e+00
  2.731014e+01    1.549701e+00
  2.732602e+01    1.450156e+00
  2.734189e+01    1.369430e+00
  2.735777e+01    1.305831e+00
  2.737365e+01    1.213969e+00
  2.738952e+01    1.157290e+00
  2.740540e+01    1.124072e+00
  2.742127e+01    1.091130e+00
  2.743715e+01    1.080822e+00
  2.745302e+01    1.073945e+00
  2.746890e+01    1.044006e+00
  2.748477e+01    1.025471e+00
  2.750065e+01    9.943014e-01
  2.751653e+01    9.763867e-01
  2.753240e+01    9.648220e-01
  2.754828e+01    9.556392e-01
  2.756415e+01    9.325529e-01
  2.758003e+01    9.168141e-01
  2.759590e+01    9.277165e-01
  2.761178e+01    9.421420e-01
  2.762765e+01    9.236180e-01
  2.764353e+01    9.072324e-01
  2.765941e+01    9.098515e-01
  2.767528e+01    9.010798e-01
  2.769116e+01    9.083670e-01
  2.770703e+01    9.143782e-01
  2.772291e+01    8.815200e-01
  2.773878e+01    8.909337e-01
  2.775466e+01    9.082906e-01
  2.777054e+01    9.008670e-01
  2.778641e+01    9.212748e-01
  2.780229e+01    8.962650e-01
  2.781816e+01    9.030226e-01
  2.783404e+01    8.928512e-01
  2.784991e+01    8.904842e-01
  2.786579e+01    8.869417e-01
  2.788166e+01    8.860891e-01
  2.789754e+01    8.656412e-01
  2.791342e+01    8.651391e-01
  2.792929e+01    8.601996e-01
  2.794517e+01    8.632976e-01
  2.796104e+01    8.720719e-01
  2.797692e+01    8.753120e-01
  2.799279e+01    8.524528e-01
  2.800867e+01    8.534091e-01
  2.802454e+01    8.581223e-01
  2.804042e+01    8.583487e-01
  2.805630e+01    8.599767e-01
  2.807217e+01    8.811193e-01
  2.808805e+01    8.636143e-01
  2.810392e+01    8.558280e-01
  2.811980e+01    8.648667e-01
  2.813567e+01    8.646737e-01
  2.815155e+01    8.602592e-01
  2.816742e+01    8.479934e-01
  2.818330e+01    8.598750e-01
  2.819918e+01    8.593276e-01
  2.821505e+01    8.549985e-01
  2.823093e+01    8.622439e-01
  2.824680e+01    8.545594e-01
  2.826268e+01    8.317106e-01
  2.827855e+01    8.282933e-01
  2.829443e+01    8.369086e-01
  2.831030e+01    8.294420e-01
  2.832618e+01    8.421319e-01
  2.834206e+01    8.495296e-01
  2.835793e+01    8.399689e-01
  2.837381e+01    8.417317e-01
  2.838968e+01    8.516268e-01
  2.840556e+01    8.358363e-01
  2.842143e+01    8.225670e-01
  2.843731e+01    8.268803e-01
  2.845318e+01    8.419917e-01
  2.846906e+01    8.416951e-01
  2.848494e+01    8.393662e-01
  2.850081e+01    8.364922e-01
  2.851669e+01    8.411303e-01
  2.853256e+01    8.409158e-01
  2.854844e+01    8.357289e-01
  2.856431e+01    8.275272e-01
  2.858019e+01    8.215369e-01
  2.859606e+01    8.134164e-01
  2.861194e+01    8.337624e-01
  2.862782e+01    8.444150e-01
  2.864369e+01    8.220611e-01
  2.865957e+01    8.079202e-01
  2.867544e+01    8.247619e-01
  2.869132e+01    8.395772e-01
  2.870719e+01    8.086777e-01
  2.872307e+01    7.919224e-01
  2.873895e+01    8.098531e-01
  2.875482e+01    8.286830e-01
  2.877070e+01    8.241125e-01
  2.878657e+01    8.023825e-01
  2.880245e+01    8.176870e-01
  2.881832e+01    8.141270e-01
  2.883420e+01    8.262374e-01
  2.885007e+01    8.463414e-01
  2.886595e+01    8.331248e-01
  2.888183e+01    8.251830e-01
  2.889770e+01    8.244078e-01
  2.891358e+01    8.160307e-01
  2.892945e+01    8.199355e-01
  2.894533e+01    8.237460e-01
  2.896120e+01    8.088694e-01
  2.897708e+01    8.104349e-01
  2.899295e+01    8.135889e-01
  2.900883e+01    8.257338e-01
  2.902471e+01    8.339656e-01
  2.904058e+01    8.160137e-01
  2.905646e+01    8.169382e-01
  2.907233e+01    8.374409e-01
  2.908821e+01    8.114241e-01
  2.910408e+01    8.238584e-01
  2.911996e+01    8.218954e-01
  2.913583e+01    8.351191e-01
  2.915171e+01    8.321586e-01
  2.916759e+01    8.076633e-01
  2.918346e+01    8.037532e-01
  2.919934e+01    8.058204e-01
  2.921521e+01    8.091319e-01
  2.923109e+01    8.100266e-01
  2.924696e+01    8.238963e-01
  2.926284e+01    8.331234e-01
  2.927871e+01    7.994858e-01
  2.929459e+01    7.988198e-01
  2.931047e+01    7.989787e-01
  2.932634e+01    8.135254e-01
  2.934222e+01    7.971562e-01
  2.935809e+01    7.866482e-01
  2.937397e+01    8.159762e-01
  2.938984e+01    8.279619e-01
  2.940572e+01    7.992864e-01
  2.942159e+01    7.941593e-01
  2.943747e+01    8.099730e-01
  2.945335e+01    7.819439e-01
  2.946922e+01    7.812749e-01
  2.948510e+01    7.865894e-01
  2.950097e+01    7.958201e-01
  2.951685e+01    8.051140e-01
  2.953272e+01    8.057708e-01
  2.954860e+01    8.109490e-01
  2.956447e+01    8.075243e-01
  2.958035e+01    7.843186e-01
  2.959623e+01    7.898951e-01
  2.961210e+01    7.839921e-01
  2.962798e+01    7.834734e-01
  2.964385e+01    7.857946e-01
  2.965973e+01    7.966496e-01
  2.967560e+01    7.896364e-01
  2.969148e+01    7.984272e-01
  2.970736e+01    8.060387e-01
  2.972323e+01    7.878045e-01
  2.973911e+01    7.861249e-01
  2.975498e+01    7.704620e-01
  2.977086e+01    7.715318e-01
  2.978673e+01    7.907237e-01
  2.980261e+01    7.897413e-01
  2.981848e+01    7.949643e-01
  2.983436e+01    7.855266e-01
  2.985024e+01    7.786949e-01
  2.986611e+01    7.994666e-01
  2.988199e+01    8.094132e-01
  2.989786e+01    8.030254e-01
  2.991374e+01    7.850152e-01
  2.992961e+01    7.843618e-01
  2.994549e+01    7.828937e-01
  2.996136e+01    7.989783e-01
  2.997724e+01    8.065999e-01
  2.999312e+01    8.023531e-01
  3.000899e+01    8.186998e-01
  3.002487e+01    8.128507e-01
  3.004074e+01    8.163430e-01
  3.005662e+01    8.030837e-01
  3.007249e+01    7.898710e-01
  3.008837e+01    8.118609e-01
  3.010424e+01    8.092045e-01
  3.012012e+01    8.036122e-01
  3.013600e+01    8.088547e-01
  3.015187e+01    7.818808e-01
  3.016775e+01    8.004475e-01
  3.018362e+01    7.813928e-01
  3.019950e+01    8.012601e-01
  3.021537e+01    7.873143e-01
  3.023125e+01    7.880258e-01
  3.024712e+01    8.048720e-01
  3.026300e+01    7.912616e-01
  3.027888e+01    7.796166e-01
  3.029475e+01    7.720812e-01
  3.031063e+01    7.925786e-01
  3.032650e+01    7.802479e-01
  3.034238e+01    7.685654e-01
  3.035825e+01    7.794290e-01
  3.037413e+01    7.668243e-01
  3.039000e+01    7.811780e-01
  3.040588e+01    7.863367e-01
  3.042176e+01    7.641163e-01
  3.043763e+01    7.911410e-01
  3.045351e+01    7.851619e-01
  3.046938e+01    7.774054e-01
  3.048526e+01    7.760615e-01
  3.050113e+01    7.975345e-01
  3.051701e+01    7.926157e-01
  3.053288e+01    7.999064e-01
  3.054876e+01    7.869424e-01
  3.056464e+01    7.632379e-01
  3.058051e+01    7.766504e-01
  3.059639e+01    7.880268e-01
  3.061226e+01    7.718137e-01
  3.062814e+01    7.687238e-01
  3.064401e+01    7.633460e-01
  3.065989e+01    7.890622e-01
  3.067577e+01    7.771685e-01
  3.069164e+01    7.733948e-01
  3.070752e+01    7.952527e-01
  3.072339e+01    7.953747e-01
  3.073927e+01    7.775858e-01
  3.075514e+01    7.932472e-01
  3.077102e+01    7.972240e-01
  3.078689e+01    7.768066e-01
  3.080277e+01    7.723051e-01
  3.081865e+01    7.926219e-01
  3.083452e+01    7.909926e-01
  3.085040e+01    7.928458e-01
  3.086627e+01    7.662436e-01
  3.088215e+01    7.734370e-01
  3.089802e+01    7.788863e-01
  3.091390e+01    7.952525e-01
  3.092977e+01    7.986900e-01
  3.094565e+01    8.001512e-01
  3.096153e+01    7.886450e-01
  3.097740e+01    7.959188e-01
  3.099328e+01    7.888117e-01
  3.100915e+01    7.709172e-01
  3.102503e+01    7.906823e-01
  3.104090e+01    7.539998e-01
  3.105678e+01    7.767258e-01
  3.107265e+01    7.930290e-01
  3.108853e+01    7.898980e-01
  3.110441e+01    7.747838e-01
  3.112028e+01    7.748585e-01
  3.113616e+01    7.972387e-01
  3.115203e+01    7.784573e-01
  3.116791e+01    7.893022e-01
  3.118378e+01    7.952945e-01
  3.119966e+01    7.792907e-01
  3.121553e+01    7.688182e-01
  3.123141e+01    7.838694e-01
  3.124729e+01    7.902751e-01
  3.126316e+01    7.967359e-01
  3.127904e+01    8.020712e-01
  3.129491e+01    8.030486e-01
  3.131079e+01    8.006331e-01
  3.132666e+01    8.136152e-01
  3.134254e+01    7.962106e-01
  3.135841e+01    7.780938e-01
  3.137429e+01    8.118735e-01
  3.139017e+01    8.104870e-01
  3.140604e+01    8.017742e-01
  3.142192e+01    8.118060e-01
  3.143779e+01    7.977191e-01
  3.145367e+01    8.009625e-01
  3.146954e+01    8.182727e-01
  3.148542e+01    8.329220e-01
  3.150129e+01    8.273462e-01
  3.151717e+01    7.975974e-01
  3.153305e+01    8.042220e-01
  3.154892e+01    8.360670e-01
  3.156480e+01    8.637969e-01
  3.158067e+01    8.801083e-01
  3.159655e+01    8.718480e-01
  3.161242e+01    8.778445e-01
  3.162830e+01    8.851175e-01
  3.164418e+01    8.976842e-01
  3.166005e+01    9.299871e-01
  3.167593e+01    9.958202e-01
  3.169180e+01    9.998389e-01
  3.170768e+01    1.026558e+00
  3.172355e+01    1.062875e+00
  3.173943e+01    1.109015e+00
  3.175530e+01    1.163815e+00
  3.177118e+01    1.257495e+00
  3.178706e+01    1.329064e+00
  3.180293e+01    1.433413e+00
  3.181881e+01    1.607968e+00
  3.183468e+01    1.722274e+00
  3.185056e+01    1.849679e+00
  3.186643e+01    1.960107e+00
  3.188231e+01    2.045032e+00
  3.189818e+01    2.090295e+00
  3.191406e+01    2.049785e+00
  3.192994e+01    2.033597e+00
  3.194581e+01    1.943860e+00
  3.196169e+01    1.861654e+00
  3.197756e+01    1.689279e+00
  3.199344e+01    1.584000e+00
  3.200931e+01    1.457208e+00
  3.202519e+01    1.332488e+00
  3.204106e+01    1.220987e+00
  3.205694e+01    1.155362e+00
  3.207282e+01    1.085079e+00
  3.208869e+01    1.048620e+00
  3.210457e+01    9.969338e-01
  3.212044e+01    9.845723e-01
  3.213632e+01    9.245229e-01
  3.215219e+01    9.063938e-01
  3.216807e+01    9.001476e-01
  3.218394e+01    8.807752e-01
  3.219982e+01    8.810502e-01
  3.221570e+01    8.695700e-01
  3.223157e+01    8.534462e-01
  3.224745e+01    8.349835e-01
  3.226332e+01    8.248111e-01
  3.227920e+01    8.300196e-01
  3.229507e+01    8.065943e-01
  3.231095e+01    8.142327e-01
  3.232682e+01    8.102651e-01
  3.234270e+01    8.017609e-01
  3.235858e+01    7.978278e-01
  3.237445e+01    7.946458e-01
  3.239033e+01    7.844096e-01
  3.240620e+01    7.823761e-01
  3.242208e+01    7.704622e-01
  3.243795e+01    7.434516e-01
  3.245383e+01    7.522346e-01
  3.246970e+01    7.636176e-01
  3.248558e+01    7.753765e-01
  3.250146e+01    8.021628e-01
  3.251733e+01    7.882785e-01
  3.253321e+01    7.699763e-01
  3.254908e+01    7.602514e-01
