# == pyFAI calibration ==
# Distance Sample to Detector: 0.3999999939076516 m
# PONI: 9.750e-02, 1.135e-01 m
# Rotations: -0.000175 0.000000 -0.000000 rad
# 
# == Fit2d calibration ==
# Distance Sample-beamCenter: 400.000 mm
# Center: x=1514.000, y=1300.000 pix
# Tilt: 0.010 deg  TiltPlanRot: 0.010 deg
# 
# Detector Detector	 Spline= None	 PixelSize= 7.500e-05, 7.500e-05 m
#    Detector has a mask: False 
#    Detector has a dark current: False 
#    detector has a flat field: False 
# 
# Wavelength: 6.888e-11 m
# Mask applied: user provided
# Dark current applied: False
# Flat field applied: False
# Polarization factor: 0.99
# Normalization factor: 1.0
# --> /home/myspot/data/2024_07_Rosario/Ru-CGO-ex/2024-07-27_003_Ru-CGO-ex_Reaction_dwell_000023_data_000015.dat
#       q_nm^-1             I 
  2.003187e-02    0.000000e+00
  3.590745e-02    3.427850e-02
  5.178302e-02    1.691651e-01
  6.765859e-02    1.915034e-01
  8.353417e-02    1.104630e-01
  9.940974e-02    9.927816e-02
  1.152853e-01    1.678189e-01
  1.311609e-01    8.107503e-02
  1.470365e-01    4.858638e-02
  1.629120e-01    2.554183e-02
  1.787876e-01    2.108140e-02
  1.946632e-01    2.917274e-02
  2.105388e-01    2.176828e-02
  2.264143e-01    9.113038e-02
  2.422899e-01    7.644662e-02
  2.581655e-01    4.670426e-02
  2.740411e-01    3.968022e-02
  2.899166e-01    5.015311e-02
  3.057922e-01    2.828023e-02
  3.216678e-01    3.270773e-02
  3.375433e-01    4.277406e-02
  3.534189e-01    3.140793e-02
  3.692945e-01    6.315348e-02
  3.851701e-01    5.311788e-02
  4.010456e-01    3.646447e-02
  4.169212e-01    2.236576e-02
  4.327968e-01    4.737279e-02
  4.486724e-01    6.116112e-02
  4.645479e-01    3.215823e-02
  4.804235e-01    1.928804e-02
  4.962991e-01    2.498433e-02
  5.121747e-01    5.149206e-02
  5.280502e-01    5.250151e-02
  5.439258e-01    3.567849e-02
  5.598014e-01    3.125462e-02
  5.756770e-01    2.430553e-02
  5.915525e-01    5.257585e-02
  6.074281e-01    6.356289e-02
  6.233037e-01    5.364617e-02
  6.391793e-01    4.555319e-02
  6.550548e-01    4.329831e-02
  6.709304e-01    2.940033e-02
  6.868060e-01    4.223684e-02
  7.026815e-01    6.345057e-02
  7.185571e-01    4.947738e-02
  7.344327e-01    3.188241e-02
  7.503083e-01    5.409823e-02
  7.661838e-01    8.865627e-02
  7.820594e-01    1.500467e-01
  7.979350e-01    1.979726e-01
  8.138106e-01    2.446419e-01
  8.296861e-01    2.892408e-01
  8.455617e-01    3.328011e-01
  8.614373e-01    3.691788e-01
  8.773129e-01    4.637999e-01
  8.931884e-01    5.636566e-01
  9.090640e-01    6.351123e-01
  9.249396e-01    6.784086e-01
  9.408152e-01    7.789845e-01
  9.566907e-01    8.877947e-01
  9.725663e-01    9.835458e-01
  9.884419e-01    1.032695e+00
  1.004317e+00    1.130524e+00
  1.020193e+00    1.256416e+00
  1.036069e+00    1.465996e+00
  1.051944e+00    1.429520e+00
  1.067820e+00    1.399320e+00
  1.083695e+00    1.403795e+00
  1.099571e+00    1.471898e+00
  1.115446e+00    1.580037e+00
  1.131322e+00    1.645684e+00
  1.147198e+00    1.580014e+00
  1.163073e+00    1.539213e+00
  1.178949e+00    1.626052e+00
  1.194824e+00    1.828087e+00
  1.210700e+00    2.095273e+00
  1.226575e+00    2.245713e+00
  1.242451e+00    2.363058e+00
  1.258327e+00    2.444839e+00
  1.274202e+00    2.717552e+00
  1.290078e+00    2.731356e+00
  1.305953e+00    2.661919e+00
  1.321829e+00    2.626340e+00
  1.337705e+00    2.666103e+00
  1.353580e+00    2.808047e+00
  1.369456e+00    2.952638e+00
  1.385331e+00    2.922200e+00
  1.401207e+00    2.935897e+00
  1.417082e+00    2.842564e+00
  1.432958e+00    2.959923e+00
  1.448834e+00    2.867211e+00
  1.464709e+00    2.957741e+00
  1.480585e+00    3.068874e+00
  1.496460e+00    3.037283e+00
  1.512336e+00    3.088498e+00
  1.528211e+00    3.142072e+00
  1.544087e+00    3.241629e+00
  1.559963e+00    3.290432e+00
  1.575838e+00    3.142815e+00
  1.591714e+00    3.176995e+00
  1.607589e+00    3.108000e+00
  1.623465e+00    3.010221e+00
  1.639340e+00    3.006843e+00
  1.655216e+00    3.111074e+00
  1.671092e+00    3.136464e+00
  1.686967e+00    3.028644e+00
  1.702843e+00    3.048426e+00
  1.718718e+00    3.135788e+00
  1.734594e+00    3.210831e+00
  1.750469e+00    3.176997e+00
  1.766345e+00    3.135747e+00
  1.782221e+00    3.066173e+00
  1.798096e+00    3.130642e+00
  1.813972e+00    3.080057e+00
  1.829847e+00    2.997751e+00
  1.845723e+00    3.085087e+00
  1.861598e+00    3.276475e+00
  1.877474e+00    3.036237e+00
  1.893350e+00    3.118214e+00
  1.909225e+00    3.071877e+00
  1.925101e+00    3.120796e+00
  1.940976e+00    3.067868e+00
  1.956852e+00    3.103603e+00
  1.972727e+00    3.142570e+00
  1.988603e+00    3.080815e+00
  2.004479e+00    2.950143e+00
  2.020354e+00    3.103871e+00
  2.036230e+00    3.081252e+00
  2.052105e+00    3.054409e+00
  2.067981e+00    3.067867e+00
  2.083856e+00    3.119714e+00
  2.099732e+00    3.050959e+00
  2.115608e+00    3.056626e+00
  2.131483e+00    3.138921e+00
  2.147359e+00    3.207518e+00
  2.163234e+00    3.144235e+00
  2.179110e+00    3.121132e+00
  2.194985e+00    3.083138e+00
  2.210861e+00    3.044563e+00
  2.226737e+00    3.168309e+00
  2.242612e+00    3.217789e+00
  2.258488e+00    3.216861e+00
  2.274363e+00    3.150661e+00
  2.290239e+00    3.177274e+00
  2.306115e+00    3.239461e+00
  2.321990e+00    3.105542e+00
  2.337866e+00    3.065315e+00
  2.353741e+00    3.041258e+00
  2.369617e+00    3.136497e+00
  2.385492e+00    3.224822e+00
  2.401368e+00    3.156608e+00
  2.417244e+00    3.149636e+00
  2.433119e+00    3.292720e+00
  2.448995e+00    3.149152e+00
  2.464870e+00    3.068653e+00
  2.480746e+00    3.070621e+00
  2.496621e+00    3.171479e+00
  2.512497e+00    3.188168e+00
  2.528373e+00    3.156223e+00
  2.544248e+00    3.165896e+00
  2.560124e+00    3.221037e+00
  2.575999e+00    3.294875e+00
  2.591875e+00    3.319147e+00
  2.607750e+00    3.273146e+00
  2.623626e+00    3.189195e+00
  2.639502e+00    3.211506e+00
  2.655377e+00    3.322791e+00
  2.671253e+00    3.248326e+00
  2.687128e+00    3.251456e+00
  2.703004e+00    3.314051e+00
  2.718879e+00    3.329182e+00
  2.734755e+00    3.252858e+00
  2.750631e+00    3.239592e+00
  2.766506e+00    3.183254e+00
  2.782382e+00    3.233754e+00
  2.798257e+00    3.183421e+00
  2.814133e+00    3.218562e+00
  2.830008e+00    3.311352e+00
  2.845884e+00    3.455627e+00
  2.861760e+00    3.420079e+00
  2.877635e+00    3.375179e+00
  2.893511e+00    3.375544e+00
  2.909386e+00    3.355412e+00
  2.925262e+00    3.446767e+00
  2.941137e+00    3.372697e+00
  2.957013e+00    3.406765e+00
  2.972889e+00    3.280366e+00
  2.988764e+00    3.303228e+00
  3.004640e+00    3.323417e+00
  3.020515e+00    3.311071e+00
  3.036391e+00    3.260056e+00
  3.052266e+00    3.225820e+00
  3.068142e+00    3.321553e+00
  3.084018e+00    3.409539e+00
  3.099893e+00    3.378936e+00
  3.115769e+00    3.386436e+00
  3.131644e+00    3.408638e+00
  3.147520e+00    3.342897e+00
  3.163395e+00    3.360917e+00
  3.179271e+00    3.321899e+00
  3.195147e+00    3.327673e+00
  3.211022e+00    3.354664e+00
  3.226898e+00    3.434859e+00
  3.242773e+00    3.501781e+00
  3.258649e+00    3.519002e+00
  3.274525e+00    3.366876e+00
  3.290400e+00    3.304493e+00
  3.306276e+00    3.307884e+00
  3.322151e+00    3.321025e+00
  3.338027e+00    3.370639e+00
  3.353902e+00    3.427331e+00
  3.369778e+00    3.397721e+00
  3.385654e+00    3.389956e+00
  3.401529e+00    3.427733e+00
  3.417405e+00    3.387733e+00
  3.433280e+00    3.354349e+00
  3.449156e+00    3.281147e+00
  3.465031e+00    3.325876e+00
  3.480907e+00    3.429238e+00
  3.496783e+00    3.544383e+00
  3.512658e+00    3.501902e+00
  3.528534e+00    3.485006e+00
  3.544409e+00    3.408760e+00
  3.560285e+00    3.373160e+00
  3.576160e+00    3.554606e+00
  3.592036e+00    3.525780e+00
  3.607912e+00    3.421790e+00
  3.623787e+00    3.440341e+00
  3.639663e+00    3.456922e+00
  3.655538e+00    3.456655e+00
  3.671414e+00    3.444240e+00
  3.687289e+00    3.448514e+00
  3.703165e+00    3.471979e+00
  3.719041e+00    3.453288e+00
  3.734916e+00    3.567246e+00
  3.750792e+00    3.531096e+00
  3.766667e+00    3.517809e+00
  3.782543e+00    3.475947e+00
  3.798418e+00    3.452630e+00
  3.814294e+00    3.401000e+00
  3.830170e+00    3.484335e+00
  3.846045e+00    3.629619e+00
  3.861921e+00    3.647921e+00
  3.877796e+00    3.587375e+00
  3.893672e+00    3.549045e+00
  3.909547e+00    3.523478e+00
  3.925423e+00    3.498615e+00
  3.941299e+00    3.527787e+00
  3.957174e+00    3.483435e+00
  3.973050e+00    3.554430e+00
  3.988925e+00    3.573734e+00
  4.004801e+00    3.576483e+00
  4.020676e+00    3.494758e+00
  4.036552e+00    3.510942e+00
  4.052428e+00    3.489244e+00
  4.068303e+00    3.485240e+00
  4.084179e+00    3.584840e+00
  4.100054e+00    3.623203e+00
  4.115930e+00    3.587420e+00
  4.131806e+00    3.537823e+00
  4.147681e+00    3.516217e+00
  4.163557e+00    3.535597e+00
  4.179432e+00    3.522810e+00
  4.195308e+00    3.535285e+00
  4.211183e+00    3.594651e+00
  4.227059e+00    3.555974e+00
  4.242935e+00    3.616785e+00
  4.258810e+00    3.574979e+00
  4.274686e+00    3.537058e+00
  4.290561e+00    3.566296e+00
  4.306437e+00    3.490023e+00
  4.322312e+00    3.505085e+00
  4.338188e+00    3.575645e+00
  4.354064e+00    3.562560e+00
  4.369939e+00    3.573127e+00
  4.385815e+00    3.594315e+00
  4.401690e+00    3.670525e+00
  4.417566e+00    3.669731e+00
  4.433441e+00    3.710740e+00
  4.449317e+00    3.672084e+00
  4.465193e+00    3.515800e+00
  4.481068e+00    3.563951e+00
  4.496944e+00    3.632952e+00
  4.512819e+00    3.597540e+00
  4.528695e+00    3.645472e+00
  4.544570e+00    3.578850e+00
  4.560446e+00    3.654669e+00
  4.576322e+00    3.699067e+00
  4.592197e+00    3.664881e+00
  4.608073e+00    3.555528e+00
  4.623948e+00    3.597098e+00
  4.639824e+00    3.639978e+00
  4.655699e+00    3.571335e+00
  4.671575e+00    3.594642e+00
  4.687451e+00    3.529726e+00
  4.703326e+00    3.540872e+00
  4.719202e+00    3.601008e+00
  4.735077e+00    3.543412e+00
  4.750953e+00    3.509624e+00
  4.766828e+00    3.599996e+00
  4.782704e+00    3.684189e+00
  4.798580e+00    3.625867e+00
  4.814455e+00    3.628973e+00
  4.830331e+00    3.618705e+00
  4.846206e+00    3.775304e+00
  4.862082e+00    3.660378e+00
  4.877957e+00    3.612970e+00
  4.893833e+00    3.691504e+00
  4.909709e+00    3.691449e+00
  4.925584e+00    3.648695e+00
  4.941460e+00    3.635304e+00
  4.957335e+00    3.640891e+00
  4.973211e+00    3.679698e+00
  4.989086e+00    3.681461e+00
  5.004962e+00    3.729581e+00
  5.020838e+00    3.713281e+00
  5.036713e+00    3.644036e+00
  5.052589e+00    3.674909e+00
  5.068464e+00    3.646442e+00
  5.084340e+00    3.691200e+00
  5.100216e+00    3.670249e+00
  5.116091e+00    3.718903e+00
  5.131967e+00    3.755666e+00
  5.147842e+00    3.629953e+00
  5.163718e+00    3.556897e+00
  5.179593e+00    3.650811e+00
  5.195469e+00    3.684121e+00
  5.211345e+00    3.746118e+00
  5.227220e+00    3.713046e+00
  5.243096e+00    3.627867e+00
  5.258971e+00    3.606373e+00
  5.274847e+00    3.574836e+00
  5.290722e+00    3.682346e+00
  5.306598e+00    3.762231e+00
  5.322474e+00    3.681119e+00
  5.338349e+00    3.632214e+00
  5.354225e+00    3.710363e+00
  5.370100e+00    3.718768e+00
  5.385976e+00    3.717517e+00
  5.401851e+00    3.684920e+00
  5.417727e+00    3.632752e+00
  5.433603e+00    3.620913e+00
  5.449478e+00    3.627010e+00
  5.465354e+00    3.562285e+00
  5.481229e+00    3.552613e+00
  5.497105e+00    3.547961e+00
  5.512980e+00    3.581804e+00
  5.528856e+00    3.628241e+00
  5.544732e+00    3.599825e+00
  5.560607e+00    3.599260e+00
  5.576483e+00    3.582630e+00
  5.592358e+00    3.642425e+00
  5.608234e+00    3.679358e+00
  5.624109e+00    3.555613e+00
  5.639985e+00    3.541492e+00
  5.655861e+00    3.598544e+00
  5.671736e+00    3.669244e+00
  5.687612e+00    3.629893e+00
  5.703487e+00    3.667448e+00
  5.719363e+00    3.725230e+00
  5.735238e+00    3.657696e+00
  5.751114e+00    3.585163e+00
  5.766990e+00    3.617578e+00
  5.782865e+00    3.525246e+00
  5.798741e+00    3.528039e+00
  5.814616e+00    3.514496e+00
  5.830492e+00    3.532198e+00
  5.846367e+00    3.560387e+00
  5.862243e+00    3.618896e+00
  5.878119e+00    3.568085e+00
  5.893994e+00    3.525908e+00
  5.909870e+00    3.521726e+00
  5.925745e+00    3.527745e+00
  5.941621e+00    3.496689e+00
  5.957497e+00    3.497746e+00
  5.973372e+00    3.492942e+00
  5.989248e+00    3.548383e+00
  6.005123e+00    3.575740e+00
  6.020999e+00    3.541152e+00
  6.036874e+00    3.543214e+00
  6.052750e+00    3.591169e+00
  6.068626e+00    3.703097e+00
  6.084501e+00    3.658794e+00
  6.100377e+00    3.611581e+00
  6.116252e+00    3.604357e+00
  6.132128e+00    3.529361e+00
  6.148003e+00    3.542305e+00
  6.163879e+00    3.574054e+00
  6.179755e+00    3.611495e+00
  6.195630e+00    3.652320e+00
  6.211506e+00    3.637013e+00
  6.227381e+00    3.622418e+00
  6.243257e+00    3.609344e+00
  6.259132e+00    3.544081e+00
  6.275008e+00    3.565876e+00
  6.290884e+00    3.639158e+00
  6.306759e+00    3.525943e+00
  6.322635e+00    3.582839e+00
  6.338510e+00    3.610983e+00
  6.354386e+00    3.584764e+00
  6.370261e+00    3.595200e+00
  6.386137e+00    3.556750e+00
  6.402013e+00    3.555240e+00
  6.417888e+00    3.583156e+00
  6.433764e+00    3.647378e+00
  6.449639e+00    3.581287e+00
  6.465515e+00    3.506298e+00
  6.481390e+00    3.566458e+00
  6.497266e+00    3.589497e+00
  6.513142e+00    3.644689e+00
  6.529017e+00    3.592362e+00
  6.544893e+00    3.560801e+00
  6.560768e+00    3.516300e+00
  6.576644e+00    3.492685e+00
  6.592519e+00    3.543479e+00
  6.608395e+00    3.640820e+00
  6.624271e+00    3.591615e+00
  6.640146e+00    3.562117e+00
  6.656022e+00    3.552741e+00
  6.671897e+00    3.576936e+00
  6.687773e+00    3.562784e+00
  6.703648e+00    3.563745e+00
  6.719524e+00    3.506053e+00
  6.735400e+00    3.579582e+00
  6.751275e+00    3.575803e+00
  6.767151e+00    3.506442e+00
  6.783026e+00    3.499116e+00
  6.798902e+00    3.570595e+00
  6.814777e+00    3.544724e+00
  6.830653e+00    3.566018e+00
  6.846529e+00    3.522052e+00
  6.862404e+00    3.483840e+00
  6.878280e+00    3.546188e+00
  6.894155e+00    3.472585e+00
  6.910031e+00    3.480505e+00
  6.925907e+00    3.552698e+00
  6.941782e+00    3.546066e+00
  6.957658e+00    3.541578e+00
  6.973533e+00    3.595594e+00
  6.989409e+00    3.580024e+00
  7.005284e+00    3.526788e+00
  7.021160e+00    3.488500e+00
  7.037036e+00    3.463098e+00
  7.052911e+00    3.503775e+00
  7.068787e+00    3.526476e+00
  7.084662e+00    3.564080e+00
  7.100538e+00    3.579258e+00
  7.116413e+00    3.606559e+00
  7.132289e+00    3.489321e+00
  7.148165e+00    3.465242e+00
  7.164040e+00    3.463589e+00
  7.179916e+00    3.465330e+00
  7.195791e+00    3.609587e+00
  7.211667e+00    3.539052e+00
  7.227542e+00    3.452617e+00
  7.243418e+00    3.469737e+00
  7.259294e+00    3.561250e+00
  7.275169e+00    3.545262e+00
  7.291045e+00    3.565779e+00
  7.306920e+00    3.586162e+00
  7.322796e+00    3.570835e+00
  7.338671e+00    3.513986e+00
  7.354547e+00    3.472262e+00
  7.370423e+00    3.488147e+00
  7.386298e+00    3.499315e+00
  7.402174e+00    3.557530e+00
  7.418049e+00    3.482746e+00
  7.433925e+00    3.501666e+00
  7.449800e+00    3.532486e+00
  7.465676e+00    3.535163e+00
  7.481552e+00    3.533447e+00
  7.497427e+00    3.536697e+00
  7.513303e+00    3.529778e+00
  7.529178e+00    3.510631e+00
  7.545054e+00    3.547606e+00
  7.560929e+00    3.539844e+00
  7.576805e+00    3.485304e+00
  7.592681e+00    3.557449e+00
  7.608556e+00    3.457057e+00
  7.624432e+00    3.455800e+00
  7.640307e+00    3.483647e+00
  7.656183e+00    3.414382e+00
  7.672058e+00    3.490302e+00
  7.687934e+00    3.476090e+00
  7.703810e+00    3.486549e+00
  7.719685e+00    3.455182e+00
  7.735561e+00    3.483551e+00
  7.751436e+00    3.462542e+00
  7.767312e+00    3.471508e+00
  7.783187e+00    3.475950e+00
  7.799063e+00    3.465824e+00
  7.814939e+00    3.496467e+00
  7.830814e+00    3.514862e+00
  7.846690e+00    3.464558e+00
  7.862565e+00    3.451144e+00
  7.878441e+00    3.415062e+00
  7.894317e+00    3.388448e+00
  7.910192e+00    3.366825e+00
  7.926068e+00    3.380958e+00
  7.941943e+00    3.486068e+00
  7.957819e+00    3.474762e+00
  7.973694e+00    3.434475e+00
  7.989570e+00    3.370717e+00
  8.005446e+00    3.409968e+00
  8.021321e+00    3.406185e+00
  8.037197e+00    3.440195e+00
  8.053072e+00    3.424136e+00
  8.068948e+00    3.392539e+00
  8.084823e+00    3.377583e+00
  8.100699e+00    3.459101e+00
  8.116575e+00    3.482309e+00
  8.132450e+00    3.450912e+00
  8.148326e+00    3.490715e+00
  8.164201e+00    3.496484e+00
  8.180077e+00    3.453807e+00
  8.195952e+00    3.472235e+00
  8.211828e+00    3.545486e+00
  8.227704e+00    3.575432e+00
  8.243579e+00    3.536837e+00
  8.259455e+00    3.475146e+00
  8.275330e+00    3.450863e+00
  8.291206e+00    3.504126e+00
  8.307081e+00    3.492112e+00
  8.322957e+00    3.438615e+00
  8.338833e+00    3.434892e+00
  8.354708e+00    3.436627e+00
  8.370584e+00    3.454153e+00
  8.386459e+00    3.398830e+00
  8.402335e+00    3.487761e+00
  8.418210e+00    3.472146e+00
  8.434086e+00    3.428456e+00
  8.449962e+00    3.406792e+00
  8.465837e+00    3.469167e+00
  8.481713e+00    3.357832e+00
  8.497588e+00    3.291652e+00
  8.513464e+00    3.340598e+00
  8.529339e+00    3.394644e+00
  8.545215e+00    3.417297e+00
  8.561091e+00    3.311327e+00
  8.576966e+00    3.324825e+00
  8.592842e+00    3.302316e+00
  8.608717e+00    3.295061e+00
  8.624593e+00    3.344065e+00
  8.640468e+00    3.357379e+00
  8.656344e+00    3.362554e+00
  8.672220e+00    3.359988e+00
  8.688095e+00    3.309306e+00
  8.703971e+00    3.280016e+00
  8.719846e+00    3.281553e+00
  8.735722e+00    3.334426e+00
  8.751598e+00    3.348136e+00
  8.767473e+00    3.356991e+00
  8.783349e+00    3.436539e+00
  8.799224e+00    3.351157e+00
  8.815100e+00    3.329798e+00
  8.830975e+00    3.339743e+00
  8.846851e+00    3.405851e+00
  8.862727e+00    3.305803e+00
  8.878602e+00    3.305930e+00
  8.894478e+00    3.274394e+00
  8.910353e+00    3.331821e+00
  8.926229e+00    3.323993e+00
  8.942104e+00    3.244424e+00
  8.957980e+00    3.327434e+00
  8.973856e+00    3.289435e+00
  8.989731e+00    3.272542e+00
  9.005607e+00    3.303968e+00
  9.021482e+00    3.298687e+00
  9.037358e+00    3.321956e+00
  9.053233e+00    3.283652e+00
  9.069109e+00    3.267387e+00
  9.084985e+00    3.299220e+00
  9.100860e+00    3.322516e+00
  9.116736e+00    3.258940e+00
  9.132611e+00    3.204522e+00
  9.148487e+00    3.235810e+00
  9.164362e+00    3.189107e+00
  9.180238e+00    3.171498e+00
  9.196114e+00    3.187499e+00
  9.211989e+00    3.196622e+00
  9.227865e+00    3.282126e+00
  9.243740e+00    3.253165e+00
  9.259616e+00    3.243617e+00
  9.275491e+00    3.326078e+00
  9.291367e+00    3.312876e+00
  9.307243e+00    3.319969e+00
  9.323118e+00    3.295813e+00
  9.338994e+00    3.227376e+00
  9.354869e+00    3.198282e+00
  9.370745e+00    3.223419e+00
  9.386620e+00    3.262644e+00
  9.402496e+00    3.270880e+00
  9.418372e+00    3.257776e+00
  9.434247e+00    3.211488e+00
  9.450123e+00    3.186458e+00
  9.465998e+00    3.197156e+00
  9.481874e+00    3.225219e+00
  9.497749e+00    3.230531e+00
  9.513625e+00    3.197404e+00
  9.529501e+00    3.200190e+00
  9.545376e+00    3.207791e+00
  9.561252e+00    3.263174e+00
  9.577127e+00    3.215425e+00
  9.593003e+00    3.156561e+00
  9.608878e+00    3.238916e+00
  9.624754e+00    3.197799e+00
  9.640630e+00    3.178282e+00
  9.656505e+00    3.164596e+00
  9.672381e+00    3.158370e+00
  9.688256e+00    3.218296e+00
  9.704132e+00    3.173708e+00
  9.720008e+00    3.157911e+00
  9.735883e+00    3.130424e+00
  9.751759e+00    3.166904e+00
  9.767634e+00    3.167420e+00
  9.783510e+00    3.158916e+00
  9.799385e+00    3.185578e+00
  9.815261e+00    3.154047e+00
  9.831137e+00    3.138464e+00
  9.847012e+00    3.095203e+00
  9.862888e+00    3.130281e+00
  9.878763e+00    3.150742e+00
  9.894639e+00    3.151442e+00
  9.910514e+00    3.160461e+00
  9.926390e+00    3.151888e+00
  9.942266e+00    3.151789e+00
  9.958141e+00    3.115760e+00
  9.974017e+00    3.093147e+00
  9.989892e+00    3.097867e+00
  1.000577e+01    3.160271e+00
  1.002164e+01    3.113706e+00
  1.003752e+01    3.131508e+00
  1.005339e+01    3.130779e+00
  1.006927e+01    3.107714e+00
  1.008515e+01    3.103863e+00
  1.010102e+01    3.049690e+00
  1.011690e+01    3.036691e+00
  1.013277e+01    3.001697e+00
  1.014865e+01    3.075373e+00
  1.016452e+01    3.084668e+00
  1.018040e+01    3.091972e+00
  1.019627e+01    3.097499e+00
  1.021215e+01    3.075808e+00
  1.022803e+01    2.995041e+00
  1.024390e+01    3.050442e+00
  1.025978e+01    3.058612e+00
  1.027565e+01    3.101999e+00
  1.029153e+01    3.068378e+00
  1.030740e+01    3.073074e+00
  1.032328e+01    3.137858e+00
  1.033915e+01    3.097945e+00
  1.035503e+01    3.073765e+00
  1.037091e+01    3.079262e+00
  1.038678e+01    3.012877e+00
  1.040266e+01    3.071921e+00
  1.041853e+01    3.037087e+00
  1.043441e+01    3.045702e+00
  1.045028e+01    3.070971e+00
  1.046616e+01    3.016653e+00
  1.048204e+01    3.020796e+00
  1.049791e+01    3.076238e+00
  1.051379e+01    3.072645e+00
  1.052966e+01    3.064301e+00
  1.054554e+01    3.019915e+00
  1.056141e+01    3.031939e+00
  1.057729e+01    3.060696e+00
  1.059316e+01    3.018151e+00
  1.060904e+01    2.998570e+00
  1.062492e+01    2.957201e+00
  1.064079e+01    2.968338e+00
  1.065667e+01    2.982847e+00
  1.067254e+01    2.958822e+00
  1.068842e+01    2.969433e+00
  1.070429e+01    2.919043e+00
  1.072017e+01    2.943833e+00
  1.073604e+01    2.977286e+00
  1.075192e+01    2.954644e+00
  1.076780e+01    2.920027e+00
  1.078367e+01    2.960789e+00
  1.079955e+01    2.944176e+00
  1.081542e+01    2.933753e+00
  1.083130e+01    2.951846e+00
  1.084717e+01    2.972458e+00
  1.086305e+01    2.970402e+00
  1.087892e+01    2.957606e+00
  1.089480e+01    2.885739e+00
  1.091068e+01    2.856452e+00
  1.092655e+01    2.875122e+00
  1.094243e+01    2.914674e+00
  1.095830e+01    2.910288e+00
  1.097418e+01    2.915924e+00
  1.099005e+01    2.940922e+00
  1.100593e+01    2.936404e+00
  1.102180e+01    2.972050e+00
  1.103768e+01    2.938003e+00
  1.105356e+01    2.839839e+00
  1.106943e+01    2.837405e+00
  1.108531e+01    2.890124e+00
  1.110118e+01    2.850981e+00
  1.111706e+01    2.817072e+00
  1.113293e+01    2.860902e+00
  1.114881e+01    2.863512e+00
  1.116468e+01    2.891670e+00
  1.118056e+01    2.838990e+00
  1.119644e+01    2.816297e+00
  1.121231e+01    2.872019e+00
  1.122819e+01    2.864847e+00
  1.124406e+01    2.848639e+00
  1.125994e+01    2.868574e+00
  1.127581e+01    2.833328e+00
  1.129169e+01    2.793908e+00
  1.130756e+01    2.787220e+00
  1.132344e+01    2.814579e+00
  1.133932e+01    2.828709e+00
  1.135519e+01    2.833344e+00
  1.137107e+01    2.875038e+00
  1.138694e+01    2.846918e+00
  1.140282e+01    2.873830e+00
  1.141869e+01    2.854451e+00
  1.143457e+01    2.780056e+00
  1.145045e+01    2.780413e+00
  1.146632e+01    2.829235e+00
  1.148220e+01    2.802242e+00
  1.149807e+01    2.771949e+00
  1.151395e+01    2.771972e+00
  1.152982e+01    2.793845e+00
  1.154570e+01    2.813861e+00
  1.156157e+01    2.808956e+00
  1.157745e+01    2.779838e+00
  1.159333e+01    2.755159e+00
  1.160920e+01    2.737685e+00
  1.162508e+01    2.753310e+00
  1.164095e+01    2.769820e+00
  1.165683e+01    2.822135e+00
  1.167270e+01    2.851451e+00
  1.168858e+01    2.781871e+00
  1.170445e+01    2.777430e+00
  1.172033e+01    2.801481e+00
  1.173621e+01    2.794099e+00
  1.175208e+01    2.759624e+00
  1.176796e+01    2.777275e+00
  1.178383e+01    2.707969e+00
  1.179971e+01    2.724401e+00
  1.181558e+01    2.784063e+00
  1.183146e+01    2.764487e+00
  1.184733e+01    2.721378e+00
  1.186321e+01    2.708833e+00
  1.187909e+01    2.744830e+00
  1.189496e+01    2.700499e+00
  1.191084e+01    2.708319e+00
  1.192671e+01    2.749380e+00
  1.194259e+01    2.707555e+00
  1.195846e+01    2.702256e+00
  1.197434e+01    2.745197e+00
  1.199021e+01    2.766623e+00
  1.200609e+01    2.749972e+00
  1.202197e+01    2.735321e+00
  1.203784e+01    2.761965e+00
  1.205372e+01    2.751801e+00
  1.206959e+01    2.722750e+00
  1.208547e+01    2.761269e+00
  1.210134e+01    2.703616e+00
  1.211722e+01    2.728913e+00
  1.213309e+01    2.714460e+00
  1.214897e+01    2.735158e+00
  1.216485e+01    2.703108e+00
  1.218072e+01    2.691294e+00
  1.219660e+01    2.698180e+00
  1.221247e+01    2.690477e+00
  1.222835e+01    2.659131e+00
  1.224422e+01    2.652073e+00
  1.226010e+01    2.654005e+00
  1.227597e+01    2.650777e+00
  1.229185e+01    2.693660e+00
  1.230773e+01    2.661716e+00
  1.232360e+01    2.672934e+00
  1.233948e+01    2.708660e+00
  1.235535e+01    2.690540e+00
  1.237123e+01    2.712754e+00
  1.238710e+01    2.735202e+00
  1.240298e+01    2.735809e+00
  1.241886e+01    2.728071e+00
  1.243473e+01    2.698709e+00
  1.245061e+01    2.705183e+00
  1.246648e+01    2.707809e+00
  1.248236e+01    2.731082e+00
  1.249823e+01    2.689657e+00
  1.251411e+01    2.673809e+00
  1.252998e+01    2.710865e+00
  1.254586e+01    2.739942e+00
  1.256174e+01    2.724308e+00
  1.257761e+01    2.697962e+00
  1.259349e+01    2.764870e+00
  1.260936e+01    2.799494e+00
  1.262524e+01    2.779203e+00
  1.264111e+01    2.720826e+00
  1.265699e+01    2.743227e+00
  1.267286e+01    2.826325e+00
  1.268874e+01    2.849851e+00
  1.270462e+01    2.821138e+00
  1.272049e+01    2.902039e+00
  1.273637e+01    2.921556e+00
  1.275224e+01    2.927216e+00
  1.276812e+01    2.898018e+00
  1.278399e+01    2.949505e+00
  1.279987e+01    3.016188e+00
  1.281574e+01    3.045025e+00
  1.283162e+01    3.111994e+00
  1.284750e+01    3.179602e+00
  1.286337e+01    3.231002e+00
  1.287925e+01    3.299210e+00
  1.289512e+01    3.532729e+00
  1.291100e+01    3.703282e+00
  1.292687e+01    3.890303e+00
  1.294275e+01    4.106782e+00
  1.295862e+01    4.419628e+00
  1.297450e+01    4.829197e+00
  1.299038e+01    5.316072e+00
  1.300625e+01    5.947158e+00
  1.302213e+01    6.776153e+00
  1.303800e+01    7.775595e+00
  1.305388e+01    8.898292e+00
  1.306975e+01    1.019416e+01
  1.308563e+01    1.154419e+01
  1.310150e+01    1.272334e+01
  1.311738e+01    1.373201e+01
  1.313326e+01    1.491584e+01
  1.314913e+01    1.571626e+01
  1.316501e+01    1.633649e+01
  1.318088e+01    1.630060e+01
  1.319676e+01    1.571338e+01
  1.321263e+01    1.422290e+01
  1.322851e+01    1.240853e+01
  1.324438e+01    1.063182e+01
  1.326026e+01    9.088107e+00
  1.327614e+01    7.753790e+00
  1.329201e+01    6.743479e+00
  1.330789e+01    5.973001e+00
  1.332376e+01    5.344064e+00
  1.333964e+01    4.831329e+00
  1.335551e+01    4.455460e+00
  1.337139e+01    4.039085e+00
  1.338727e+01    3.784045e+00
  1.340314e+01    3.610045e+00
  1.341902e+01    3.460680e+00
  1.343489e+01    3.295345e+00
  1.345077e+01    3.230917e+00
  1.346664e+01    3.215143e+00
  1.348252e+01    3.129712e+00
  1.349839e+01    2.991036e+00
  1.351427e+01    2.865258e+00
  1.353015e+01    2.881445e+00
  1.354602e+01    2.852793e+00
  1.356190e+01    2.815277e+00
  1.357777e+01    2.769439e+00
  1.359365e+01    2.685647e+00
  1.360952e+01    2.674400e+00
  1.362540e+01    2.644487e+00
  1.364127e+01    2.618904e+00
  1.365715e+01    2.595237e+00
  1.367303e+01    2.589882e+00
  1.368890e+01    2.578172e+00
  1.370478e+01    2.555315e+00
  1.372065e+01    2.531731e+00
  1.373653e+01    2.546217e+00
  1.375240e+01    2.515733e+00
  1.376828e+01    2.467607e+00
  1.378415e+01    2.471986e+00
  1.380003e+01    2.497266e+00
  1.381591e+01    2.504337e+00
  1.383178e+01    2.488446e+00
  1.384766e+01    2.439592e+00
  1.386353e+01    2.413880e+00
  1.387941e+01    2.435538e+00
  1.389528e+01    2.440686e+00
  1.391116e+01    2.425008e+00
  1.392703e+01    2.416541e+00
  1.394291e+01    2.402875e+00
  1.395879e+01    2.437580e+00
  1.397466e+01    2.444813e+00
  1.399054e+01    2.361449e+00
  1.400641e+01    2.328299e+00
  1.402229e+01    2.317297e+00
  1.403816e+01    2.344140e+00
  1.405404e+01    2.369933e+00
  1.406991e+01    2.327025e+00
  1.408579e+01    2.367236e+00
  1.410167e+01    2.323808e+00
  1.411754e+01    2.289794e+00
  1.413342e+01    2.294610e+00
  1.414929e+01    2.301864e+00
  1.416517e+01    2.320408e+00
  1.418104e+01    2.329935e+00
  1.419692e+01    2.299818e+00
  1.421279e+01    2.308069e+00
  1.422867e+01    2.278518e+00
  1.424455e+01    2.299159e+00
  1.426042e+01    2.306106e+00
  1.427630e+01    2.308316e+00
  1.429217e+01    2.297969e+00
  1.430805e+01    2.258769e+00
  1.432392e+01    2.231026e+00
  1.433980e+01    2.237216e+00
  1.435568e+01    2.228358e+00
  1.437155e+01    2.219013e+00
  1.438743e+01    2.238267e+00
  1.440330e+01    2.262160e+00
  1.441918e+01    2.281259e+00
  1.443505e+01    2.253198e+00
  1.445093e+01    2.243751e+00
  1.446680e+01    2.250705e+00
  1.448268e+01    2.263367e+00
  1.449856e+01    2.239262e+00
  1.451443e+01    2.198182e+00
  1.453031e+01    2.199532e+00
  1.454618e+01    2.226439e+00
  1.456206e+01    2.177106e+00
  1.457793e+01    2.220807e+00
  1.459381e+01    2.205133e+00
  1.460968e+01    2.182191e+00
  1.462556e+01    2.210088e+00
  1.464144e+01    2.241306e+00
  1.465731e+01    2.217529e+00
  1.467319e+01    2.228952e+00
  1.468906e+01    2.233972e+00
  1.470494e+01    2.221433e+00
  1.472081e+01    2.144726e+00
  1.473669e+01    2.210253e+00
  1.475256e+01    2.235108e+00
  1.476844e+01    2.210219e+00
  1.478432e+01    2.244807e+00
  1.480019e+01    2.217412e+00
  1.481607e+01    2.239097e+00
  1.483194e+01    2.220457e+00
  1.484782e+01    2.185346e+00
  1.486369e+01    2.173416e+00
  1.487957e+01    2.237436e+00
  1.489544e+01    2.230470e+00
  1.491132e+01    2.191169e+00
  1.492720e+01    2.241897e+00
  1.494307e+01    2.273174e+00
  1.495895e+01    2.350683e+00
  1.497482e+01    2.372865e+00
  1.499070e+01    2.437117e+00
  1.500657e+01    2.464944e+00
  1.502245e+01    2.523983e+00
  1.503832e+01    2.642652e+00
  1.505420e+01    2.699552e+00
  1.507008e+01    2.843876e+00
  1.508595e+01    3.008309e+00
  1.510183e+01    3.227326e+00
  1.511770e+01    3.496899e+00
  1.513358e+01    3.798442e+00
  1.514945e+01    4.167175e+00
  1.516533e+01    4.506444e+00
  1.518120e+01    4.872154e+00
  1.519708e+01    5.225492e+00
  1.521296e+01    5.406936e+00
  1.522883e+01    5.646001e+00
  1.524471e+01    5.774665e+00
  1.526058e+01    5.740029e+00
  1.527646e+01    5.674156e+00
  1.529233e+01    5.413967e+00
  1.530821e+01    5.057024e+00
  1.532409e+01    4.610920e+00
  1.533996e+01    4.167077e+00
  1.535584e+01    3.746805e+00
  1.537171e+01    3.386517e+00
  1.538759e+01    3.124396e+00
  1.540346e+01    2.954052e+00
  1.541934e+01    2.801605e+00
  1.543521e+01    2.631102e+00
  1.545109e+01    2.495556e+00
  1.546697e+01    2.422150e+00
  1.548284e+01    2.366354e+00
  1.549872e+01    2.310676e+00
  1.551459e+01    2.268253e+00
  1.553047e+01    2.228085e+00
  1.554634e+01    2.150103e+00
  1.556222e+01    2.113558e+00
  1.557809e+01    2.136653e+00
  1.559397e+01    2.151702e+00
  1.560985e+01    2.108062e+00
  1.562572e+01    2.067556e+00
  1.564160e+01    2.043447e+00
  1.565747e+01    2.040741e+00
  1.567335e+01    1.983017e+00
  1.568922e+01    1.992551e+00
  1.570510e+01    2.014793e+00
  1.572097e+01    1.986155e+00
  1.573685e+01    1.971690e+00
  1.575273e+01    1.972813e+00
  1.576860e+01    1.966469e+00
  1.578448e+01    1.933779e+00
  1.580035e+01    1.936775e+00
  1.581623e+01    1.921275e+00
  1.583210e+01    1.961025e+00
  1.584798e+01    1.918251e+00
  1.586385e+01    1.923076e+00
  1.587973e+01    1.909004e+00
  1.589561e+01    1.905712e+00
  1.591148e+01    1.928269e+00
  1.592736e+01    1.925266e+00
  1.594323e+01    1.918964e+00
  1.595911e+01    1.897613e+00
  1.597498e+01    1.915969e+00
  1.599086e+01    1.929791e+00
  1.600673e+01    1.865696e+00
  1.602261e+01    1.871398e+00
  1.603849e+01    1.909101e+00
  1.605436e+01    1.843737e+00
  1.607024e+01    1.867137e+00
  1.608611e+01    1.835438e+00
  1.610199e+01    1.833178e+00
  1.611786e+01    1.821374e+00
  1.613374e+01    1.820197e+00
  1.614961e+01    1.845302e+00
  1.616549e+01    1.826764e+00
  1.618137e+01    1.829316e+00
  1.619724e+01    1.823575e+00
  1.621312e+01    1.851091e+00
  1.622899e+01    1.828763e+00
  1.624487e+01    1.824153e+00
  1.626074e+01    1.781478e+00
  1.627662e+01    1.799741e+00
  1.629250e+01    1.828456e+00
  1.630837e+01    1.795086e+00
  1.632425e+01    1.803563e+00
  1.634012e+01    1.791612e+00
  1.635600e+01    1.789002e+00
  1.637187e+01    1.816226e+00
  1.638775e+01    1.774236e+00
  1.640362e+01    1.792110e+00
  1.641950e+01    1.792750e+00
  1.643538e+01    1.771589e+00
  1.645125e+01    1.751523e+00
  1.646713e+01    1.769083e+00
  1.648300e+01    1.765500e+00
  1.649888e+01    1.750907e+00
  1.651475e+01    1.790384e+00
  1.653063e+01    1.739820e+00
  1.654650e+01    1.765178e+00
  1.656238e+01    1.751520e+00
  1.657826e+01    1.746424e+00
  1.659413e+01    1.736041e+00
  1.661001e+01    1.731995e+00
  1.662588e+01    1.757954e+00
  1.664176e+01    1.718069e+00
  1.665763e+01    1.730378e+00
  1.667351e+01    1.718139e+00
  1.668938e+01    1.713580e+00
  1.670526e+01    1.721704e+00
  1.672114e+01    1.732544e+00
  1.673701e+01    1.701051e+00
  1.675289e+01    1.693038e+00
  1.676876e+01    1.723420e+00
  1.678464e+01    1.714718e+00
  1.680051e+01    1.724972e+00
  1.681639e+01    1.749222e+00
  1.683226e+01    1.710785e+00
  1.684814e+01    1.690251e+00
  1.686402e+01    1.711533e+00
  1.687989e+01    1.700556e+00
  1.689577e+01    1.674840e+00
  1.691164e+01    1.693966e+00
  1.692752e+01    1.719276e+00
  1.694339e+01    1.683381e+00
  1.695927e+01    1.658682e+00
  1.697514e+01    1.626919e+00
  1.699102e+01    1.670643e+00
  1.700690e+01    1.672821e+00
  1.702277e+01    1.670388e+00
  1.703865e+01    1.655201e+00
  1.705452e+01    1.685264e+00
  1.707040e+01    1.670177e+00
  1.708627e+01    1.644139e+00
  1.710215e+01    1.646410e+00
  1.711802e+01    1.648336e+00
  1.713390e+01    1.659773e+00
  1.714978e+01    1.619669e+00
  1.716565e+01    1.643996e+00
  1.718153e+01    1.664099e+00
  1.719740e+01    1.624476e+00
  1.721328e+01    1.630188e+00
  1.722915e+01    1.618224e+00
  1.724503e+01    1.629628e+00
  1.726091e+01    1.599134e+00
  1.727678e+01    1.615615e+00
  1.729266e+01    1.641904e+00
  1.730853e+01    1.608961e+00
  1.732441e+01    1.640791e+00
  1.734028e+01    1.613771e+00
  1.735616e+01    1.626730e+00
  1.737203e+01    1.642571e+00
  1.738791e+01    1.662669e+00
  1.740379e+01    1.608841e+00
  1.741966e+01    1.594853e+00
  1.743554e+01    1.585988e+00
  1.745141e+01    1.600814e+00
  1.746729e+01    1.604102e+00
  1.748316e+01    1.561466e+00
  1.749904e+01    1.592186e+00
  1.751491e+01    1.600325e+00
  1.753079e+01    1.574530e+00
  1.754667e+01    1.578854e+00
  1.756254e+01    1.592922e+00
  1.757842e+01    1.581809e+00
  1.759429e+01    1.567983e+00
  1.761017e+01    1.581720e+00
  1.762604e+01    1.575814e+00
  1.764192e+01    1.576981e+00
  1.765779e+01    1.568573e+00
  1.767367e+01    1.592324e+00
  1.768955e+01    1.573842e+00
  1.770542e+01    1.571762e+00
  1.772130e+01    1.534578e+00
  1.773717e+01    1.537162e+00
  1.775305e+01    1.547855e+00
  1.776892e+01    1.523823e+00
  1.778480e+01    1.560594e+00
  1.780067e+01    1.542563e+00
  1.781655e+01    1.538443e+00
  1.783243e+01    1.528321e+00
  1.784830e+01    1.524006e+00
  1.786418e+01    1.517144e+00
  1.788005e+01    1.503484e+00
  1.789593e+01    1.526546e+00
  1.791180e+01    1.522606e+00
  1.792768e+01    1.520724e+00
  1.794355e+01    1.525698e+00
  1.795943e+01    1.508380e+00
  1.797531e+01    1.507018e+00
  1.799118e+01    1.495165e+00
  1.800706e+01    1.514874e+00
  1.802293e+01    1.528424e+00
  1.803881e+01    1.500165e+00
  1.805468e+01    1.476463e+00
  1.807056e+01    1.497695e+00
  1.808643e+01    1.488292e+00
  1.810231e+01    1.520112e+00
  1.811819e+01    1.494720e+00
  1.813406e+01    1.485812e+00
  1.814994e+01    1.486162e+00
  1.816581e+01    1.497481e+00
  1.818169e+01    1.487228e+00
  1.819756e+01    1.459188e+00
  1.821344e+01    1.464865e+00
  1.822932e+01    1.473124e+00
  1.824519e+01    1.478638e+00
  1.826107e+01    1.462590e+00
  1.827694e+01    1.487464e+00
  1.829282e+01    1.496693e+00
  1.830869e+01    1.480760e+00
  1.832457e+01    1.449565e+00
  1.834044e+01    1.464353e+00
  1.835632e+01    1.479972e+00
  1.837220e+01    1.465040e+00
  1.838807e+01    1.450285e+00
  1.840395e+01    1.448622e+00
  1.841982e+01    1.466694e+00
  1.843570e+01    1.469296e+00
  1.845157e+01    1.464567e+00
  1.846745e+01    1.427164e+00
  1.848332e+01    1.419056e+00
  1.849920e+01    1.467737e+00
  1.851508e+01    1.476272e+00
  1.853095e+01    1.460690e+00
  1.854683e+01    1.460628e+00
  1.856270e+01    1.442545e+00
  1.857858e+01    1.445831e+00
  1.859445e+01    1.436442e+00
  1.861033e+01    1.433086e+00
  1.862620e+01    1.395593e+00
  1.864208e+01    1.426729e+00
  1.865796e+01    1.432134e+00
  1.867383e+01    1.437555e+00
  1.868971e+01    1.418456e+00
  1.870558e+01    1.405628e+00
  1.872146e+01    1.419042e+00
  1.873733e+01    1.444961e+00
  1.875321e+01    1.418188e+00
  1.876908e+01    1.397144e+00
  1.878496e+01    1.404426e+00
  1.880084e+01    1.395772e+00
  1.881671e+01    1.393403e+00
  1.883259e+01    1.413877e+00
  1.884846e+01    1.384330e+00
  1.886434e+01    1.409699e+00
  1.888021e+01    1.399323e+00
  1.889609e+01    1.368092e+00
  1.891196e+01    1.377071e+00
  1.892784e+01    1.361628e+00
  1.894372e+01    1.363013e+00
  1.895959e+01    1.404251e+00
  1.897547e+01    1.396050e+00
  1.899134e+01    1.402072e+00
  1.900722e+01    1.392146e+00
  1.902309e+01    1.380815e+00
  1.903897e+01    1.380948e+00
  1.905484e+01    1.408413e+00
  1.907072e+01    1.406333e+00
  1.908660e+01    1.377542e+00
  1.910247e+01    1.388968e+00
  1.911835e+01    1.348073e+00
  1.913422e+01    1.349758e+00
  1.915010e+01    1.365905e+00
  1.916597e+01    1.367407e+00
  1.918185e+01    1.363805e+00
  1.919773e+01    1.349328e+00
  1.921360e+01    1.345878e+00
  1.922948e+01    1.380417e+00
  1.924535e+01    1.356539e+00
  1.926123e+01    1.360926e+00
  1.927710e+01    1.391992e+00
  1.929298e+01    1.373830e+00
  1.930885e+01    1.340281e+00
  1.932473e+01    1.325430e+00
  1.934061e+01    1.333268e+00
  1.935648e+01    1.369055e+00
  1.937236e+01    1.390970e+00
  1.938823e+01    1.363648e+00
  1.940411e+01    1.335062e+00
  1.941998e+01    1.342840e+00
  1.943586e+01    1.330489e+00
  1.945173e+01    1.323349e+00
  1.946761e+01    1.343616e+00
  1.948349e+01    1.319529e+00
  1.949936e+01    1.321858e+00
  1.951524e+01    1.334201e+00
  1.953111e+01    1.350441e+00
  1.954699e+01    1.365605e+00
  1.956286e+01    1.311625e+00
  1.957874e+01    1.309942e+00
  1.959461e+01    1.346736e+00
  1.961049e+01    1.344598e+00
  1.962637e+01    1.311158e+00
  1.964224e+01    1.337520e+00
  1.965812e+01    1.345049e+00
  1.967399e+01    1.330871e+00
  1.968987e+01    1.341014e+00
  1.970574e+01    1.337996e+00
  1.972162e+01    1.313353e+00
  1.973749e+01    1.317935e+00
  1.975337e+01    1.300058e+00
  1.976925e+01    1.295254e+00
  1.978512e+01    1.319102e+00
  1.980100e+01    1.311092e+00
  1.981687e+01    1.302354e+00
  1.983275e+01    1.306826e+00
  1.984862e+01    1.287168e+00
  1.986450e+01    1.306269e+00
  1.988037e+01    1.303510e+00
  1.989625e+01    1.312572e+00
  1.991213e+01    1.296481e+00
  1.992800e+01    1.272163e+00
  1.994388e+01    1.269752e+00
  1.995975e+01    1.263101e+00
  1.997563e+01    1.272935e+00
  1.999150e+01    1.265061e+00
  2.000738e+01    1.289761e+00
  2.002325e+01    1.279067e+00
  2.003913e+01    1.303951e+00
  2.005501e+01    1.279799e+00
  2.007088e+01    1.277366e+00
  2.008676e+01    1.279650e+00
  2.010263e+01    1.281283e+00
  2.011851e+01    1.270325e+00
  2.013438e+01    1.264231e+00
  2.015026e+01    1.263399e+00
  2.016614e+01    1.259645e+00
  2.018201e+01    1.258224e+00
  2.019789e+01    1.259942e+00
  2.021376e+01    1.266498e+00
  2.022964e+01    1.273550e+00
  2.024551e+01    1.258635e+00
  2.026139e+01    1.255599e+00
  2.027726e+01    1.246824e+00
  2.029314e+01    1.263796e+00
  2.030902e+01    1.266232e+00
  2.032489e+01    1.248769e+00
  2.034077e+01    1.259107e+00
  2.035664e+01    1.254907e+00
  2.037252e+01    1.250799e+00
  2.038839e+01    1.262120e+00
  2.040427e+01    1.242860e+00
  2.042014e+01    1.224752e+00
  2.043602e+01    1.229729e+00
  2.045190e+01    1.249792e+00
  2.046777e+01    1.221818e+00
  2.048365e+01    1.226722e+00
  2.049952e+01    1.232305e+00
  2.051540e+01    1.239531e+00
  2.053127e+01    1.241397e+00
  2.054715e+01    1.273862e+00
  2.056302e+01    1.252284e+00
  2.057890e+01    1.249189e+00
  2.059478e+01    1.214222e+00
  2.061065e+01    1.213001e+00
  2.062653e+01    1.224850e+00
  2.064240e+01    1.254818e+00
  2.065828e+01    1.243360e+00
  2.067415e+01    1.242471e+00
  2.069003e+01    1.233294e+00
  2.070590e+01    1.245480e+00
  2.072178e+01    1.242846e+00
  2.073766e+01    1.216613e+00
  2.075353e+01    1.215815e+00
  2.076941e+01    1.216564e+00
  2.078528e+01    1.214122e+00
  2.080116e+01    1.223701e+00
  2.081703e+01    1.223949e+00
  2.083291e+01    1.255153e+00
  2.084878e+01    1.262274e+00
  2.086466e+01    1.218916e+00
  2.088054e+01    1.230209e+00
  2.089641e+01    1.239169e+00
  2.091229e+01    1.258871e+00
  2.092816e+01    1.232056e+00
  2.094404e+01    1.214309e+00
  2.095991e+01    1.211921e+00
  2.097579e+01    1.207317e+00
  2.099166e+01    1.225960e+00
  2.100754e+01    1.212462e+00
  2.102342e+01    1.235705e+00
  2.103929e+01    1.228601e+00
  2.105517e+01    1.240805e+00
  2.107104e+01    1.230859e+00
  2.108692e+01    1.241928e+00
  2.110279e+01    1.238460e+00
  2.111867e+01    1.211541e+00
  2.113455e+01    1.241822e+00
  2.115042e+01    1.233642e+00
  2.116630e+01    1.222428e+00
  2.118217e+01    1.230381e+00
  2.119805e+01    1.238279e+00
  2.121392e+01    1.243012e+00
  2.122980e+01    1.232846e+00
  2.124567e+01    1.233738e+00
  2.126155e+01    1.260733e+00
  2.127743e+01    1.261413e+00
  2.129330e+01    1.255084e+00
  2.130918e+01    1.243559e+00
  2.132505e+01    1.269126e+00
  2.134093e+01    1.272880e+00
  2.135680e+01    1.279281e+00
  2.137268e+01    1.289667e+00
  2.138855e+01    1.309028e+00
  2.140443e+01    1.302009e+00
  2.142031e+01    1.328454e+00
  2.143618e+01    1.351861e+00
  2.145206e+01    1.364927e+00
  2.146793e+01    1.384649e+00
  2.148381e+01    1.423915e+00
  2.149968e+01    1.419244e+00
  2.151556e+01    1.451588e+00
  2.153143e+01    1.481200e+00
  2.154731e+01    1.533222e+00
  2.156319e+01    1.606949e+00
  2.157906e+01    1.637624e+00
  2.159494e+01    1.666671e+00
  2.161081e+01    1.773852e+00
  2.162669e+01    1.862976e+00
  2.164256e+01    1.996684e+00
  2.165844e+01    2.138471e+00
  2.167431e+01    2.333757e+00
  2.169019e+01    2.501762e+00
  2.170607e+01    2.807040e+00
  2.172194e+01    3.122552e+00
  2.173782e+01    3.544771e+00
  2.175369e+01    4.033037e+00
  2.176957e+01    4.605948e+00
  2.178544e+01    5.212471e+00
  2.180132e+01    5.897473e+00
  2.181719e+01    6.559222e+00
  2.183307e+01    7.169503e+00
  2.184895e+01    7.779156e+00
  2.186482e+01    8.284098e+00
  2.188070e+01    8.749536e+00
  2.189657e+01    8.975829e+00
  2.191245e+01    8.691846e+00
  2.192832e+01    8.205209e+00
  2.194420e+01    7.378159e+00
  2.196007e+01    6.527109e+00
  2.197595e+01    5.637440e+00
  2.199183e+01    4.843506e+00
  2.200770e+01    4.166572e+00
  2.202358e+01    3.616816e+00
  2.203945e+01    3.192551e+00
  2.205533e+01    2.847817e+00
  2.207120e+01    2.553265e+00
  2.208708e+01    2.353617e+00
  2.210296e+01    2.156053e+00
  2.211883e+01    2.043482e+00
  2.213471e+01    1.875797e+00
  2.215058e+01    1.805287e+00
  2.216646e+01    1.663629e+00
  2.218233e+01    1.592957e+00
  2.219821e+01    1.536486e+00
  2.221408e+01    1.477329e+00
  2.222996e+01    1.453078e+00
  2.224584e+01    1.393847e+00
  2.226171e+01    1.338476e+00
  2.227759e+01    1.344917e+00
  2.229346e+01    1.323361e+00
  2.230934e+01    1.286706e+00
  2.232521e+01    1.280421e+00
  2.234109e+01    1.267475e+00
  2.235696e+01    1.238064e+00
  2.237284e+01    1.257943e+00
  2.238872e+01    1.244778e+00
  2.240459e+01    1.202529e+00
  2.242047e+01    1.190624e+00
  2.243634e+01    1.179070e+00
  2.245222e+01    1.203017e+00
  2.246809e+01    1.191667e+00
  2.248397e+01    1.162905e+00
  2.249984e+01    1.156562e+00
  2.251572e+01    1.119926e+00
  2.253160e+01    1.128245e+00
  2.254747e+01    1.148942e+00
  2.256335e+01    1.131210e+00
  2.257922e+01    1.100730e+00
  2.259510e+01    1.108022e+00
  2.261097e+01    1.121772e+00
  2.262685e+01    1.120412e+00
  2.264272e+01    1.096950e+00
  2.265860e+01    1.110533e+00
  2.267448e+01    1.122275e+00
  2.269035e+01    1.114697e+00
  2.270623e+01    1.091790e+00
  2.272210e+01    1.088368e+00
  2.273798e+01    1.059809e+00
  2.275385e+01    1.034299e+00
  2.276973e+01    1.069395e+00
  2.278560e+01    1.070043e+00
  2.280148e+01    1.062208e+00
  2.281736e+01    1.072874e+00
  2.283323e+01    1.072674e+00
  2.284911e+01    1.049655e+00
  2.286498e+01    1.042326e+00
  2.288086e+01    1.045032e+00
  2.289673e+01    1.063938e+00
  2.291261e+01    1.057318e+00
  2.292848e+01    1.040001e+00
  2.294436e+01    1.030798e+00
  2.296024e+01    1.028582e+00
  2.297611e+01    1.014942e+00
  2.299199e+01    1.027435e+00
  2.300786e+01    1.024724e+00
  2.302374e+01    1.019315e+00
  2.303961e+01    1.002208e+00
  2.305549e+01    1.025099e+00
  2.307137e+01    1.008729e+00
  2.308724e+01    9.922901e-01
  2.310312e+01    1.024960e+00
  2.311899e+01    1.016359e+00
  2.313487e+01    9.993871e-01
  2.315074e+01    1.010901e+00
  2.316662e+01    9.936585e-01
  2.318249e+01    9.727613e-01
  2.319837e+01    9.618408e-01
  2.321425e+01    9.798605e-01
  2.323012e+01    9.800575e-01
  2.324600e+01    9.772863e-01
  2.326187e+01    9.489587e-01
  2.327775e+01    9.556925e-01
  2.329362e+01    9.943366e-01
  2.330950e+01    9.824004e-01
  2.332537e+01    9.747628e-01
  2.334125e+01    9.732632e-01
  2.335713e+01    9.744126e-01
  2.337300e+01    9.834880e-01
  2.338888e+01    9.735377e-01
  2.340475e+01    9.461970e-01
  2.342063e+01    9.656890e-01
  2.343650e+01    9.765834e-01
  2.345238e+01    9.588454e-01
  2.346825e+01    9.769627e-01
  2.348413e+01    9.475442e-01
  2.350001e+01    9.615546e-01
  2.351588e+01    9.690686e-01
  2.353176e+01    9.714322e-01
  2.354763e+01    9.647990e-01
  2.356351e+01    9.583688e-01
  2.357938e+01    9.549201e-01
  2.359526e+01    9.589331e-01
  2.361113e+01    9.485806e-01
  2.362701e+01    9.560301e-01
  2.364289e+01    9.578246e-01
  2.365876e+01    9.440148e-01
  2.367464e+01    9.643934e-01
  2.369051e+01    9.631534e-01
  2.370639e+01    9.490497e-01
  2.372226e+01    9.441121e-01
  2.373814e+01    9.305313e-01
  2.375401e+01    9.244893e-01
  2.376989e+01    9.369277e-01
  2.378577e+01    9.361129e-01
  2.380164e+01    9.307715e-01
  2.381752e+01    9.133800e-01
  2.383339e+01    9.151056e-01
  2.384927e+01    9.079712e-01
  2.386514e+01    9.040819e-01
  2.388102e+01    9.197225e-01
  2.389689e+01    9.191486e-01
  2.391277e+01    9.298832e-01
  2.392865e+01    9.254614e-01
  2.394452e+01    9.203891e-01
  2.396040e+01    9.042975e-01
  2.397627e+01    9.101791e-01
  2.399215e+01    9.102131e-01
  2.400802e+01    9.155564e-01
  2.402390e+01    9.200545e-01
  2.403978e+01    9.075624e-01
  2.405565e+01    9.108151e-01
  2.407153e+01    9.186272e-01
  2.408740e+01    9.008979e-01
  2.410328e+01    8.859562e-01
  2.411915e+01    8.959584e-01
  2.413503e+01    9.037932e-01
  2.415090e+01    9.098843e-01
  2.416678e+01    8.813962e-01
  2.418266e+01    8.909076e-01
  2.419853e+01    8.635358e-01
  2.421441e+01    8.612390e-01
  2.423028e+01    8.903139e-01
  2.424616e+01    8.943508e-01
  2.426203e+01    8.924699e-01
  2.427791e+01    8.916577e-01
  2.429378e+01    9.003127e-01
  2.430966e+01    8.932090e-01
  2.432554e+01    8.897938e-01
  2.434141e+01    8.794922e-01
  2.435729e+01    8.843272e-01
  2.437316e+01    9.114767e-01
  2.438904e+01    9.175285e-01
  2.440491e+01    8.983374e-01
  2.442079e+01    8.857336e-01
  2.443666e+01    8.951319e-01
  2.445254e+01    9.057465e-01
  2.446842e+01    8.817564e-01
  2.448429e+01    9.004880e-01
  2.450017e+01    9.064647e-01
  2.451604e+01    8.819106e-01
  2.453192e+01    8.819047e-01
  2.454779e+01    8.893781e-01
  2.456367e+01    8.807499e-01
  2.457954e+01    8.893296e-01
  2.459542e+01    8.934480e-01
  2.461130e+01    9.133059e-01
  2.462717e+01    8.984163e-01
  2.464305e+01    8.788172e-01
  2.465892e+01    8.864146e-01
  2.467480e+01    9.131547e-01
  2.469067e+01    9.126945e-01
  2.470655e+01    9.044903e-01
  2.472242e+01    9.003098e-01
  2.473830e+01    8.968365e-01
  2.475418e+01    8.779583e-01
  2.477005e+01    8.830432e-01
  2.478593e+01    8.748991e-01
  2.480180e+01    8.935380e-01
  2.481768e+01    8.902180e-01
  2.483355e+01    8.861994e-01
  2.484943e+01    8.933784e-01
  2.486530e+01    8.955626e-01
  2.488118e+01    8.889672e-01
  2.489706e+01    9.153759e-01
  2.491293e+01    8.896865e-01
  2.492881e+01    8.862916e-01
  2.494468e+01    8.948670e-01
  2.496056e+01    9.031153e-01
  2.497643e+01    9.256354e-01
  2.499231e+01    8.921582e-01
  2.500819e+01    8.831964e-01
  2.502406e+01    9.063475e-01
  2.503994e+01    9.027011e-01
  2.505581e+01    9.210639e-01
  2.507169e+01    9.187730e-01
  2.508756e+01    9.151099e-01
  2.510344e+01    9.024922e-01
  2.511931e+01    9.075772e-01
  2.513519e+01    8.927403e-01
  2.515107e+01    9.022377e-01
  2.516694e+01    9.155855e-01
  2.518282e+01    9.286888e-01
  2.519869e+01    9.209815e-01
  2.521457e+01    9.552089e-01
  2.523044e+01    9.350947e-01
  2.524632e+01    9.458768e-01
  2.526219e+01    9.417531e-01
  2.527807e+01    9.289162e-01
  2.529395e+01    9.362503e-01
  2.530982e+01    9.559630e-01
  2.532570e+01    9.754338e-01
  2.534157e+01    9.731681e-01
  2.535745e+01    9.716987e-01
  2.537332e+01    9.836032e-01
  2.538920e+01    9.787734e-01
  2.540507e+01    9.952025e-01
  2.542095e+01    1.001456e+00
  2.543683e+01    1.028811e+00
  2.545270e+01    1.023205e+00
  2.546858e+01    1.039001e+00
  2.548445e+01    1.051602e+00
  2.550033e+01    1.059952e+00
  2.551620e+01    1.065390e+00
  2.553208e+01    1.087056e+00
  2.554795e+01    1.111902e+00
  2.556383e+01    1.140223e+00
  2.557971e+01    1.149643e+00
  2.559558e+01    1.182594e+00
  2.561146e+01    1.210853e+00
  2.562733e+01    1.241030e+00
  2.564321e+01    1.300313e+00
  2.565908e+01    1.363141e+00
  2.567496e+01    1.433996e+00
  2.569083e+01    1.529526e+00
  2.570671e+01    1.618415e+00
  2.572259e+01    1.725520e+00
  2.573846e+01    1.879267e+00
  2.575434e+01    2.009572e+00
  2.577021e+01    2.239453e+00
  2.578609e+01    2.549992e+00
  2.580196e+01    2.843824e+00
  2.581784e+01    3.192003e+00
  2.583371e+01    3.633508e+00
  2.584959e+01    4.149922e+00
  2.586547e+01    4.709515e+00
  2.588134e+01    5.279865e+00
  2.589722e+01    5.870782e+00
  2.591309e+01    6.361099e+00
  2.592897e+01    6.784858e+00
  2.594484e+01    7.057798e+00
  2.596072e+01    7.076810e+00
  2.597660e+01    6.938697e+00
  2.599247e+01    6.517018e+00
  2.600835e+01    5.992091e+00
  2.602422e+01    5.262453e+00
  2.604010e+01    4.552226e+00
  2.605597e+01    3.873285e+00
  2.607185e+01    3.397768e+00
  2.608772e+01    2.978588e+00
  2.610360e+01    2.619675e+00
  2.611948e+01    2.333740e+00
  2.613535e+01    2.117166e+00
  2.615123e+01    1.960331e+00
  2.616710e+01    1.798930e+00
  2.618298e+01    1.668489e+00
  2.619885e+01    1.555861e+00
  2.621473e+01    1.479668e+00
  2.623060e+01    1.395467e+00
  2.624648e+01    1.325398e+00
  2.626236e+01    1.274490e+00
  2.627823e+01    1.249503e+00
  2.629411e+01    1.250681e+00
  2.630998e+01    1.188576e+00
  2.632586e+01    1.149444e+00
  2.634173e+01    1.115192e+00
  2.635761e+01    1.106862e+00
  2.637348e+01    1.107804e+00
  2.638936e+01    1.075368e+00
  2.640524e+01    1.045477e+00
  2.642111e+01    1.047155e+00
  2.643699e+01    1.049323e+00
  2.645286e+01    1.035061e+00
  2.646874e+01    1.023845e+00
  2.648461e+01    1.012429e+00
  2.650049e+01    1.013602e+00
  2.651636e+01    1.005721e+00
  2.653224e+01    9.969619e-01
  2.654812e+01    9.925953e-01
  2.656399e+01    9.908313e-01
  2.657987e+01    9.940272e-01
  2.659574e+01    9.670804e-01
  2.661162e+01    9.629998e-01
  2.662749e+01    9.469297e-01
  2.664337e+01    9.670426e-01
  2.665924e+01    9.823228e-01
  2.667512e+01    9.875491e-01
  2.669100e+01    9.708381e-01
  2.670687e+01    9.856849e-01
  2.672275e+01    9.648878e-01
  2.673862e+01    9.632251e-01
  2.675450e+01    9.774950e-01
  2.677037e+01    9.930162e-01
  2.678625e+01    9.608116e-01
  2.680212e+01    9.444833e-01
  2.681800e+01    9.817345e-01
  2.683388e+01    9.703720e-01
  2.684975e+01    9.671670e-01
  2.686563e+01    9.838126e-01
  2.688150e+01    1.012905e+00
  2.689738e+01    1.000355e+00
  2.691325e+01    1.004563e+00
  2.692913e+01    9.997675e-01
  2.694501e+01    1.015202e+00
  2.696088e+01    1.048217e+00
  2.697676e+01    1.044628e+00
  2.699263e+01    1.088628e+00
  2.700851e+01    1.121308e+00
  2.702438e+01    1.143180e+00
  2.704026e+01    1.185452e+00
  2.705613e+01    1.266067e+00
  2.707201e+01    1.335901e+00
  2.708789e+01    1.404136e+00
  2.710376e+01    1.487794e+00
  2.711964e+01    1.610087e+00
  2.713551e+01    1.730239e+00
  2.715139e+01    1.876467e+00
  2.716726e+01    1.958601e+00
  2.718314e+01    2.085819e+00
  2.719901e+01    2.128436e+00
  2.721489e+01    2.129817e+00
  2.723077e+01    2.144279e+00
  2.724664e+01    2.095657e+00
  2.726252e+01    1.959013e+00
  2.727839e+01    1.828991e+00
  2.729427e+01    1.680322e+00
  2.731014e+01    1.556507e+00
  2.732602e+01    1.421434e+00
  2.734189e+01    1.355348e+00
  2.735777e+01    1.260142e+00
  2.737365e+01    1.204179e+00
  2.738952e+01    1.150786e+00
  2.740540e+01    1.118847e+00
  2.742127e+01    1.111299e+00
  2.743715e+01    1.062533e+00
  2.745302e+01    1.051377e+00
  2.746890e+01    1.025545e+00
  2.748477e+01    1.006746e+00
  2.750065e+01    9.972130e-01
  2.751653e+01    9.758046e-01
  2.753240e+01    9.752319e-01
  2.754828e+01    9.670439e-01
  2.756415e+01    9.447892e-01
  2.758003e+01    9.445604e-01
  2.759590e+01    9.328910e-01
  2.761178e+01    9.205591e-01
  2.762765e+01    9.274815e-01
  2.764353e+01    9.214967e-01
  2.765941e+01    9.081134e-01
  2.767528e+01    8.976070e-01
  2.769116e+01    8.947403e-01
  2.770703e+01    8.959397e-01
  2.772291e+01    9.016365e-01
  2.773878e+01    8.764088e-01
  2.775466e+01    8.776885e-01
  2.777054e+01    8.904620e-01
  2.778641e+01    8.803548e-01
  2.780229e+01    8.594177e-01
  2.781816e+01    8.913565e-01
  2.783404e+01    8.805475e-01
  2.784991e+01    8.771691e-01
  2.786579e+01    8.753456e-01
  2.788166e+01    8.614545e-01
  2.789754e+01    8.743532e-01
  2.791342e+01    8.672408e-01
  2.792929e+01    8.796656e-01
  2.794517e+01    8.794739e-01
  2.796104e+01    8.776013e-01
  2.797692e+01    8.878841e-01
  2.799279e+01    8.752311e-01
  2.800867e+01    8.722281e-01
  2.802454e+01    8.544221e-01
  2.804042e+01    8.618926e-01
  2.805630e+01    8.498862e-01
  2.807217e+01    8.466126e-01
  2.808805e+01    8.529498e-01
  2.810392e+01    8.556374e-01
  2.811980e+01    8.554425e-01
  2.813567e+01    8.570462e-01
  2.815155e+01    8.670939e-01
  2.816742e+01    8.615115e-01
  2.818330e+01    8.650641e-01
  2.819918e+01    8.639939e-01
  2.821505e+01    8.733463e-01
  2.823093e+01    8.594257e-01
  2.824680e+01    8.484505e-01
  2.826268e+01    8.698095e-01
  2.827855e+01    8.523406e-01
  2.829443e+01    8.486627e-01
  2.831030e+01    8.548988e-01
  2.832618e+01    8.614383e-01
  2.834206e+01    8.435694e-01
  2.835793e+01    8.308838e-01
  2.837381e+01    8.533165e-01
  2.838968e+01    8.484194e-01
  2.840556e+01    8.363813e-01
  2.842143e+01    8.270267e-01
  2.843731e+01    8.405233e-01
  2.845318e+01    8.324787e-01
  2.846906e+01    8.494542e-01
  2.848494e+01    8.497577e-01
  2.850081e+01    8.389555e-01
  2.851669e+01    8.515691e-01
  2.853256e+01    8.226394e-01
  2.854844e+01    8.345939e-01
  2.856431e+01    8.476893e-01
  2.858019e+01    8.391227e-01
  2.859606e+01    8.454143e-01
  2.861194e+01    8.475065e-01
  2.862782e+01    8.393090e-01
  2.864369e+01    8.377737e-01
  2.865957e+01    8.395201e-01
  2.867544e+01    8.427628e-01
  2.869132e+01    8.109822e-01
  2.870719e+01    8.216991e-01
  2.872307e+01    8.474411e-01
  2.873895e+01    8.491459e-01
  2.875482e+01    8.492302e-01
  2.877070e+01    8.325410e-01
  2.878657e+01    8.354453e-01
  2.880245e+01    8.237253e-01
  2.881832e+01    8.203477e-01
  2.883420e+01    8.175870e-01
  2.885007e+01    8.211927e-01
  2.886595e+01    8.441767e-01
  2.888183e+01    8.353059e-01
  2.889770e+01    8.280948e-01
  2.891358e+01    8.160622e-01
  2.892945e+01    8.241579e-01
  2.894533e+01    8.459634e-01
  2.896120e+01    8.189784e-01
  2.897708e+01    8.246355e-01
  2.899295e+01    8.270490e-01
  2.900883e+01    8.353148e-01
  2.902471e+01    8.286182e-01
  2.904058e+01    8.278608e-01
  2.905646e+01    8.229372e-01
  2.907233e+01    8.179049e-01
  2.908821e+01    8.175285e-01
  2.910408e+01    8.239070e-01
  2.911996e+01    8.333816e-01
  2.913583e+01    8.011190e-01
  2.915171e+01    7.975911e-01
  2.916759e+01    7.986179e-01
  2.918346e+01    7.981842e-01
  2.919934e+01    8.199303e-01
  2.921521e+01    8.095144e-01
  2.923109e+01    8.157401e-01
  2.924696e+01    8.006247e-01
  2.926284e+01    8.163347e-01
  2.927871e+01    8.103548e-01
  2.929459e+01    8.336227e-01
  2.931047e+01    8.153151e-01
  2.932634e+01    8.090050e-01
  2.934222e+01    7.906017e-01
  2.935809e+01    8.038994e-01
  2.937397e+01    7.906345e-01
  2.938984e+01    7.941593e-01
  2.940572e+01    8.119780e-01
  2.942159e+01    8.203288e-01
  2.943747e+01    8.210944e-01
  2.945335e+01    8.090396e-01
  2.946922e+01    8.015542e-01
  2.948510e+01    7.903311e-01
  2.950097e+01    7.925687e-01
  2.951685e+01    7.986460e-01
  2.953272e+01    7.895686e-01
  2.954860e+01    8.074211e-01
  2.956447e+01    8.071839e-01
  2.958035e+01    8.198020e-01
  2.959623e+01    8.131077e-01
  2.961210e+01    7.962365e-01
  2.962798e+01    7.972246e-01
  2.964385e+01    8.104186e-01
  2.965973e+01    7.834273e-01
  2.967560e+01    7.919375e-01
  2.969148e+01    8.062388e-01
  2.970736e+01    7.863165e-01
  2.972323e+01    7.817945e-01
  2.973911e+01    7.991983e-01
  2.975498e+01    7.945927e-01
  2.977086e+01    8.144380e-01
  2.978673e+01    8.101414e-01
  2.980261e+01    7.972216e-01
  2.981848e+01    7.869874e-01
  2.983436e+01    7.882562e-01
  2.985024e+01    7.904119e-01
  2.986611e+01    8.127046e-01
  2.988199e+01    7.952341e-01
  2.989786e+01    8.063928e-01
  2.991374e+01    7.895125e-01
  2.992961e+01    7.926593e-01
  2.994549e+01    8.132085e-01
  2.996136e+01    8.145012e-01
  2.997724e+01    8.176206e-01
  2.999312e+01    8.171602e-01
  3.000899e+01    7.833663e-01
  3.002487e+01    8.050338e-01
  3.004074e+01    8.089041e-01
  3.005662e+01    8.217999e-01
  3.007249e+01    8.151127e-01
  3.008837e+01    8.142690e-01
  3.010424e+01    8.001575e-01
  3.012012e+01    7.952027e-01
  3.013600e+01    7.947115e-01
  3.015187e+01    7.797207e-01
  3.016775e+01    7.922381e-01
  3.018362e+01    7.797095e-01
  3.019950e+01    7.769360e-01
  3.021537e+01    7.985759e-01
  3.023125e+01    7.865313e-01
  3.024712e+01    7.744857e-01
  3.026300e+01    7.757830e-01
  3.027888e+01    7.793854e-01
  3.029475e+01    7.743126e-01
  3.031063e+01    7.892070e-01
  3.032650e+01    7.946285e-01
  3.034238e+01    7.781100e-01
  3.035825e+01    7.782661e-01
  3.037413e+01    7.958976e-01
  3.039000e+01    7.793170e-01
  3.040588e+01    7.642344e-01
  3.042176e+01    7.736093e-01
  3.043763e+01    7.691286e-01
  3.045351e+01    7.739103e-01
  3.046938e+01    7.789998e-01
  3.048526e+01    7.738593e-01
  3.050113e+01    7.855143e-01
  3.051701e+01    7.930673e-01
  3.053288e+01    7.890162e-01
  3.054876e+01    7.753847e-01
  3.056464e+01    8.032063e-01
  3.058051e+01    7.776051e-01
  3.059639e+01    7.801991e-01
  3.061226e+01    7.657323e-01
  3.062814e+01    7.595846e-01
  3.064401e+01    7.841153e-01
  3.065989e+01    7.890630e-01
  3.067577e+01    7.958235e-01
  3.069164e+01    7.872211e-01
  3.070752e+01    7.821264e-01
  3.072339e+01    7.808819e-01
  3.073927e+01    7.937229e-01
  3.075514e+01    8.042267e-01
  3.077102e+01    7.838808e-01
  3.078689e+01    7.638186e-01
  3.080277e+01    7.932353e-01
  3.081865e+01    7.803212e-01
  3.083452e+01    7.757659e-01
  3.085040e+01    7.705929e-01
  3.086627e+01    7.994027e-01
  3.088215e+01    7.853478e-01
  3.089802e+01    7.811865e-01
  3.091390e+01    7.780000e-01
  3.092977e+01    7.815174e-01
  3.094565e+01    7.913063e-01
  3.096153e+01    7.870256e-01
  3.097740e+01    7.664341e-01
  3.099328e+01    7.732453e-01
  3.100915e+01    8.118973e-01
  3.102503e+01    7.981256e-01
  3.104090e+01    7.675559e-01
  3.105678e+01    7.782511e-01
  3.107265e+01    7.737887e-01
  3.108853e+01    7.695292e-01
  3.110441e+01    7.708243e-01
  3.112028e+01    7.984609e-01
  3.113616e+01    8.023041e-01
  3.115203e+01    8.170747e-01
  3.116791e+01    8.067118e-01
  3.118378e+01    7.911758e-01
  3.119966e+01    8.175578e-01
  3.121553e+01    7.942141e-01
  3.123141e+01    7.698525e-01
  3.124729e+01    7.919655e-01
  3.126316e+01    7.998117e-01
  3.127904e+01    7.886272e-01
  3.129491e+01    7.932346e-01
  3.131079e+01    8.037894e-01
  3.132666e+01    8.087667e-01
  3.134254e+01    7.942848e-01
  3.135841e+01    8.018572e-01
  3.137429e+01    8.154510e-01
  3.139017e+01    8.219249e-01
  3.140604e+01    8.190959e-01
  3.142192e+01    8.220304e-01
  3.143779e+01    8.029037e-01
  3.145367e+01    8.245041e-01
  3.146954e+01    8.298134e-01
  3.148542e+01    8.300623e-01
  3.150129e+01    8.083586e-01
  3.151717e+01    8.318284e-01
  3.153305e+01    8.274230e-01
  3.154892e+01    8.522915e-01
  3.156480e+01    8.556206e-01
  3.158067e+01    8.444149e-01
  3.159655e+01    8.825231e-01
  3.161242e+01    8.684021e-01
  3.162830e+01    9.060649e-01
  3.164418e+01    9.298020e-01
  3.166005e+01    9.490252e-01
  3.167593e+01    9.615238e-01
  3.169180e+01    9.973512e-01
  3.170768e+01    1.045006e+00
  3.172355e+01    1.086587e+00
  3.173943e+01    1.106108e+00
  3.175530e+01    1.179132e+00
  3.177118e+01    1.274500e+00
  3.178706e+01    1.370236e+00
  3.180293e+01    1.464293e+00
  3.181881e+01    1.589293e+00
  3.183468e+01    1.678407e+00
  3.185056e+01    1.843806e+00
  3.186643e+01    1.976777e+00
  3.188231e+01    2.030776e+00
  3.189818e+01    2.048311e+00
  3.191406e+01    2.043732e+00
  3.192994e+01    2.039901e+00
  3.194581e+01    1.941917e+00
  3.196169e+01    1.788116e+00
  3.197756e+01    1.680507e+00
  3.199344e+01    1.570795e+00
  3.200931e+01    1.406639e+00
  3.202519e+01    1.306029e+00
  3.204106e+01    1.234601e+00
  3.205694e+01    1.146769e+00
  3.207282e+01    1.102152e+00
  3.208869e+01    1.040574e+00
  3.210457e+01    1.006113e+00
  3.212044e+01    9.789264e-01
  3.213632e+01    9.263876e-01
  3.215219e+01    9.035745e-01
  3.216807e+01    9.058387e-01
  3.218394e+01    8.680647e-01
  3.219982e+01    8.368869e-01
  3.221570e+01    8.625579e-01
  3.223157e+01    8.600197e-01
  3.224745e+01    8.270149e-01
  3.226332e+01    8.391504e-01
  3.227920e+01    8.175218e-01
  3.229507e+01    8.080962e-01
  3.231095e+01    8.082929e-01
  3.232682e+01    8.216662e-01
  3.234270e+01    7.921009e-01
  3.235858e+01    7.924780e-01
  3.237445e+01    7.864490e-01
  3.239033e+01    7.918110e-01
  3.240620e+01    7.990919e-01
  3.242208e+01    8.218094e-01
  3.243795e+01    8.046417e-01
  3.245383e+01    7.886555e-01
  3.246970e+01    8.071263e-01
  3.248558e+01    8.029698e-01
  3.250146e+01    7.816746e-01
  3.251733e+01    7.660197e-01
  3.253321e+01    7.876819e-01
  3.254908e+01    7.766802e-01
