# == pyFAI calibration ==
# Distance Sample to Detector: 0.3999999939076516 m
# PONI: 9.750e-02, 1.135e-01 m
# Rotations: -0.000175 0.000000 -0.000000 rad
# 
# == Fit2d calibration ==
# Distance Sample-beamCenter: 400.000 mm
# Center: x=1514.000, y=1300.000 pix
# Tilt: 0.010 deg  TiltPlanRot: 0.010 deg
# 
# Detector Detector	 Spline= None	 PixelSize= 7.500e-05, 7.500e-05 m
#    Detector has a mask: False 
#    Detector has a dark current: False 
#    detector has a flat field: False 
# 
# Wavelength: 6.888e-11 m
# Mask applied: user provided
# Dark current applied: False
# Flat field applied: False
# Polarization factor: 0.99
# Normalization factor: 1.0
# --> /home/myspot/data/2024_07_Rosario/Ru-CGO-ex/2024-07-27_003_Ru-CGO-ex_Reaction_dwell_000023_data_000125.dat
#       q_nm^-1             I 
  2.003187e-02    7.711996e-02
  3.590745e-02    2.789979e-01
  5.178302e-02    1.494693e-01
  6.765859e-02    0.000000e+00
  8.353417e-02    6.532367e-02
  9.940974e-02    1.504910e-01
  1.152853e-01    9.823014e-02
  1.311609e-01    1.122118e-01
  1.470365e-01    5.517565e-02
  1.629120e-01    9.533481e-03
  1.787876e-01    2.328301e-03
  1.946632e-01    6.167376e-02
  2.105388e-01    5.800613e-02
  2.264143e-01    2.508658e-02
  2.422899e-01    5.984955e-02
  2.581655e-01    8.283715e-02
  2.740411e-01    7.986993e-02
  2.899166e-01    1.221856e-02
  3.057922e-01    1.898000e-02
  3.216678e-01    3.205584e-02
  3.375433e-01    3.091156e-02
  3.534189e-01    6.166011e-02
  3.692945e-01    5.261501e-02
  3.851701e-01    4.651723e-02
  4.010456e-01    3.662194e-02
  4.169212e-01    5.519617e-02
  4.327968e-01    8.829089e-02
  4.486724e-01    3.948459e-02
  4.645479e-01    1.791353e-02
  4.804235e-01    3.755734e-02
  4.962991e-01    1.948469e-02
  5.121747e-01    1.989816e-02
  5.280502e-01    3.501891e-02
  5.439258e-01    2.618883e-02
  5.598014e-01    3.106756e-02
  5.756770e-01    4.315079e-02
  5.915525e-01    3.330048e-02
  6.074281e-01    2.853960e-02
  6.233037e-01    6.235648e-02
  6.391793e-01    3.472671e-02
  6.550548e-01    4.241904e-02
  6.709304e-01    4.395832e-02
  6.868060e-01    6.212528e-02
  7.026815e-01    4.303421e-02
  7.185571e-01    5.396304e-02
  7.344327e-01    5.717972e-02
  7.503083e-01    5.130329e-02
  7.661838e-01    7.090791e-02
  7.820594e-01    1.185256e-01
  7.979350e-01    1.543867e-01
  8.138106e-01    2.319373e-01
  8.296861e-01    3.162929e-01
  8.455617e-01    3.368578e-01
  8.614373e-01    3.737559e-01
  8.773129e-01    5.312282e-01
  8.931884e-01    5.305542e-01
  9.090640e-01    6.029245e-01
  9.249396e-01    7.211005e-01
  9.408152e-01    7.961854e-01
  9.566907e-01    8.584670e-01
  9.725663e-01    9.838223e-01
  9.884419e-01    1.020277e+00
  1.004317e+00    1.116043e+00
  1.020193e+00    1.335683e+00
  1.036069e+00    1.421507e+00
  1.051944e+00    1.379598e+00
  1.067820e+00    1.509955e+00
  1.083695e+00    1.527703e+00
  1.099571e+00    1.495374e+00
  1.115446e+00    1.578751e+00
  1.131322e+00    1.658967e+00
  1.147198e+00    1.725090e+00
  1.163073e+00    1.657286e+00
  1.178949e+00    1.691230e+00
  1.194824e+00    1.826612e+00
  1.210700e+00    1.951860e+00
  1.226575e+00    2.190440e+00
  1.242451e+00    2.410424e+00
  1.258327e+00    2.359728e+00
  1.274202e+00    2.478554e+00
  1.290078e+00    2.506507e+00
  1.305953e+00    2.581775e+00
  1.321829e+00    2.741136e+00
  1.337705e+00    2.886933e+00
  1.353580e+00    2.879340e+00
  1.369456e+00    2.719859e+00
  1.385331e+00    2.692518e+00
  1.401207e+00    2.840783e+00
  1.417082e+00    2.926179e+00
  1.432958e+00    2.940165e+00
  1.448834e+00    2.817134e+00
  1.464709e+00    2.914509e+00
  1.480585e+00    3.009531e+00
  1.496460e+00    3.147531e+00
  1.512336e+00    3.150184e+00
  1.528211e+00    3.198615e+00
  1.544087e+00    3.175462e+00
  1.559963e+00    3.150592e+00
  1.575838e+00    3.130825e+00
  1.591714e+00    3.098434e+00
  1.607589e+00    3.240350e+00
  1.623465e+00    3.224405e+00
  1.639340e+00    3.139433e+00
  1.655216e+00    3.158956e+00
  1.671092e+00    3.190190e+00
  1.686967e+00    3.167225e+00
  1.702843e+00    2.953194e+00
  1.718718e+00    3.047906e+00
  1.734594e+00    3.177907e+00
  1.750469e+00    3.160594e+00
  1.766345e+00    3.263206e+00
  1.782221e+00    3.175461e+00
  1.798096e+00    3.116579e+00
  1.813972e+00    3.081245e+00
  1.829847e+00    3.032688e+00
  1.845723e+00    3.058319e+00
  1.861598e+00    3.100609e+00
  1.877474e+00    2.940924e+00
  1.893350e+00    2.992419e+00
  1.909225e+00    2.936753e+00
  1.925101e+00    3.055639e+00
  1.940976e+00    3.035504e+00
  1.956852e+00    3.023330e+00
  1.972727e+00    3.190205e+00
  1.988603e+00    3.266274e+00
  2.004479e+00    3.286274e+00
  2.020354e+00    3.298305e+00
  2.036230e+00    3.199788e+00
  2.052105e+00    3.164944e+00
  2.067981e+00    3.127626e+00
  2.083856e+00    3.038105e+00
  2.099732e+00    3.017409e+00
  2.115608e+00    3.059371e+00
  2.131483e+00    3.110843e+00
  2.147359e+00    3.080280e+00
  2.163234e+00    3.001966e+00
  2.179110e+00    3.064503e+00
  2.194985e+00    3.067670e+00
  2.210861e+00    3.030396e+00
  2.226737e+00    3.142761e+00
  2.242612e+00    3.087139e+00
  2.258488e+00    3.084058e+00
  2.274363e+00    3.055752e+00
  2.290239e+00    3.115824e+00
  2.306115e+00    3.291028e+00
  2.321990e+00    3.190621e+00
  2.337866e+00    3.167973e+00
  2.353741e+00    3.166287e+00
  2.369617e+00    3.187527e+00
  2.385492e+00    3.157130e+00
  2.401368e+00    3.215262e+00
  2.417244e+00    3.242405e+00
  2.433119e+00    3.154820e+00
  2.448995e+00    3.154470e+00
  2.464870e+00    3.075732e+00
  2.480746e+00    3.160123e+00
  2.496621e+00    3.218202e+00
  2.512497e+00    3.182021e+00
  2.528373e+00    3.166090e+00
  2.544248e+00    3.181615e+00
  2.560124e+00    3.188282e+00
  2.575999e+00    3.255569e+00
  2.591875e+00    3.399808e+00
  2.607750e+00    3.243106e+00
  2.623626e+00    3.180924e+00
  2.639502e+00    3.269640e+00
  2.655377e+00    3.272353e+00
  2.671253e+00    3.228766e+00
  2.687128e+00    3.261265e+00
  2.703004e+00    3.192507e+00
  2.718879e+00    3.177744e+00
  2.734755e+00    3.293251e+00
  2.750631e+00    3.361542e+00
  2.766506e+00    3.346986e+00
  2.782382e+00    3.255385e+00
  2.798257e+00    3.230508e+00
  2.814133e+00    3.201992e+00
  2.830008e+00    3.302267e+00
  2.845884e+00    3.308424e+00
  2.861760e+00    3.382387e+00
  2.877635e+00    3.297163e+00
  2.893511e+00    3.287077e+00
  2.909386e+00    3.395453e+00
  2.925262e+00    3.388072e+00
  2.941137e+00    3.328108e+00
  2.957013e+00    3.254199e+00
  2.972889e+00    3.295286e+00
  2.988764e+00    3.371294e+00
  3.004640e+00    3.337516e+00
  3.020515e+00    3.242951e+00
  3.036391e+00    3.370416e+00
  3.052266e+00    3.427171e+00
  3.068142e+00    3.415231e+00
  3.084018e+00    3.364537e+00
  3.099893e+00    3.223739e+00
  3.115769e+00    3.288538e+00
  3.131644e+00    3.336018e+00
  3.147520e+00    3.361840e+00
  3.163395e+00    3.380477e+00
  3.179271e+00    3.368213e+00
  3.195147e+00    3.340161e+00
  3.211022e+00    3.402675e+00
  3.226898e+00    3.389257e+00
  3.242773e+00    3.380530e+00
  3.258649e+00    3.434660e+00
  3.274525e+00    3.425607e+00
  3.290400e+00    3.409812e+00
  3.306276e+00    3.415715e+00
  3.322151e+00    3.443573e+00
  3.338027e+00    3.425912e+00
  3.353902e+00    3.460310e+00
  3.369778e+00    3.398413e+00
  3.385654e+00    3.386331e+00
  3.401529e+00    3.408574e+00
  3.417405e+00    3.466818e+00
  3.433280e+00    3.371381e+00
  3.449156e+00    3.365082e+00
  3.465031e+00    3.344749e+00
  3.480907e+00    3.364821e+00
  3.496783e+00    3.412178e+00
  3.512658e+00    3.381595e+00
  3.528534e+00    3.385155e+00
  3.544409e+00    3.479224e+00
  3.560285e+00    3.563726e+00
  3.576160e+00    3.505877e+00
  3.592036e+00    3.491921e+00
  3.607912e+00    3.391728e+00
  3.623787e+00    3.479232e+00
  3.639663e+00    3.424073e+00
  3.655538e+00    3.452757e+00
  3.671414e+00    3.481024e+00
  3.687289e+00    3.555518e+00
  3.703165e+00    3.587905e+00
  3.719041e+00    3.496856e+00
  3.734916e+00    3.582393e+00
  3.750792e+00    3.558233e+00
  3.766667e+00    3.497732e+00
  3.782543e+00    3.452494e+00
  3.798418e+00    3.519924e+00
  3.814294e+00    3.515474e+00
  3.830170e+00    3.528082e+00
  3.846045e+00    3.563082e+00
  3.861921e+00    3.547988e+00
  3.877796e+00    3.520606e+00
  3.893672e+00    3.523541e+00
  3.909547e+00    3.551894e+00
  3.925423e+00    3.519256e+00
  3.941299e+00    3.469255e+00
  3.957174e+00    3.487639e+00
  3.973050e+00    3.484229e+00
  3.988925e+00    3.492948e+00
  4.004801e+00    3.515173e+00
  4.020676e+00    3.568897e+00
  4.036552e+00    3.540881e+00
  4.052428e+00    3.532194e+00
  4.068303e+00    3.573343e+00
  4.084179e+00    3.584401e+00
  4.100054e+00    3.475309e+00
  4.115930e+00    3.553566e+00
  4.131806e+00    3.619101e+00
  4.147681e+00    3.505358e+00
  4.163557e+00    3.471417e+00
  4.179432e+00    3.577809e+00
  4.195308e+00    3.550331e+00
  4.211183e+00    3.545416e+00
  4.227059e+00    3.557077e+00
  4.242935e+00    3.461238e+00
  4.258810e+00    3.497930e+00
  4.274686e+00    3.532236e+00
  4.290561e+00    3.619785e+00
  4.306437e+00    3.724087e+00
  4.322312e+00    3.748127e+00
  4.338188e+00    3.506677e+00
  4.354064e+00    3.552658e+00
  4.369939e+00    3.595696e+00
  4.385815e+00    3.545503e+00
  4.401690e+00    3.534326e+00
  4.417566e+00    3.522688e+00
  4.433441e+00    3.544260e+00
  4.449317e+00    3.639985e+00
  4.465193e+00    3.560838e+00
  4.481068e+00    3.602391e+00
  4.496944e+00    3.566083e+00
  4.512819e+00    3.632954e+00
  4.528695e+00    3.666074e+00
  4.544570e+00    3.604039e+00
  4.560446e+00    3.556684e+00
  4.576322e+00    3.548901e+00
  4.592197e+00    3.670798e+00
  4.608073e+00    3.578002e+00
  4.623948e+00    3.589674e+00
  4.639824e+00    3.629187e+00
  4.655699e+00    3.647929e+00
  4.671575e+00    3.613894e+00
  4.687451e+00    3.607944e+00
  4.703326e+00    3.671078e+00
  4.719202e+00    3.585922e+00
  4.735077e+00    3.558428e+00
  4.750953e+00    3.631652e+00
  4.766828e+00    3.680449e+00
  4.782704e+00    3.651253e+00
  4.798580e+00    3.616086e+00
  4.814455e+00    3.630446e+00
  4.830331e+00    3.696181e+00
  4.846206e+00    3.698755e+00
  4.862082e+00    3.659479e+00
  4.877957e+00    3.640181e+00
  4.893833e+00    3.567548e+00
  4.909709e+00    3.667327e+00
  4.925584e+00    3.752941e+00
  4.941460e+00    3.649394e+00
  4.957335e+00    3.624144e+00
  4.973211e+00    3.632102e+00
  4.989086e+00    3.642704e+00
  5.004962e+00    3.706169e+00
  5.020838e+00    3.674474e+00
  5.036713e+00    3.591570e+00
  5.052589e+00    3.622574e+00
  5.068464e+00    3.612003e+00
  5.084340e+00    3.704497e+00
  5.100216e+00    3.573161e+00
  5.116091e+00    3.564805e+00
  5.131967e+00    3.666044e+00
  5.147842e+00    3.608403e+00
  5.163718e+00    3.636721e+00
  5.179593e+00    3.631654e+00
  5.195469e+00    3.640608e+00
  5.211345e+00    3.606980e+00
  5.227220e+00    3.625629e+00
  5.243096e+00    3.619721e+00
  5.258971e+00    3.639383e+00
  5.274847e+00    3.683228e+00
  5.290722e+00    3.645802e+00
  5.306598e+00    3.631647e+00
  5.322474e+00    3.691782e+00
  5.338349e+00    3.659298e+00
  5.354225e+00    3.712506e+00
  5.370100e+00    3.657753e+00
  5.385976e+00    3.638541e+00
  5.401851e+00    3.610043e+00
  5.417727e+00    3.643522e+00
  5.433603e+00    3.637324e+00
  5.449478e+00    3.600866e+00
  5.465354e+00    3.586552e+00
  5.481229e+00    3.594635e+00
  5.497105e+00    3.618371e+00
  5.512980e+00    3.644044e+00
  5.528856e+00    3.555546e+00
  5.544732e+00    3.721259e+00
  5.560607e+00    3.681826e+00
  5.576483e+00    3.584235e+00
  5.592358e+00    3.623200e+00
  5.608234e+00    3.552817e+00
  5.624109e+00    3.560004e+00
  5.639985e+00    3.581364e+00
  5.655861e+00    3.489509e+00
  5.671736e+00    3.528563e+00
  5.687612e+00    3.592139e+00
  5.703487e+00    3.493266e+00
  5.719363e+00    3.484546e+00
  5.735238e+00    3.481834e+00
  5.751114e+00    3.477590e+00
  5.766990e+00    3.481040e+00
  5.782865e+00    3.582699e+00
  5.798741e+00    3.618460e+00
  5.814616e+00    3.632377e+00
  5.830492e+00    3.622124e+00
  5.846367e+00    3.547571e+00
  5.862243e+00    3.501397e+00
  5.878119e+00    3.497931e+00
  5.893994e+00    3.554698e+00
  5.909870e+00    3.553994e+00
  5.925745e+00    3.590688e+00
  5.941621e+00    3.607812e+00
  5.957497e+00    3.624317e+00
  5.973372e+00    3.634436e+00
  5.989248e+00    3.567007e+00
  6.005123e+00    3.532176e+00
  6.020999e+00    3.522566e+00
  6.036874e+00    3.557250e+00
  6.052750e+00    3.528177e+00
  6.068626e+00    3.541784e+00
  6.084501e+00    3.552098e+00
  6.100377e+00    3.626161e+00
  6.116252e+00    3.594128e+00
  6.132128e+00    3.566904e+00
  6.148003e+00    3.466887e+00
  6.163879e+00    3.598709e+00
  6.179755e+00    3.555390e+00
  6.195630e+00    3.556469e+00
  6.211506e+00    3.531699e+00
  6.227381e+00    3.598688e+00
  6.243257e+00    3.610490e+00
  6.259132e+00    3.535976e+00
  6.275008e+00    3.556991e+00
  6.290884e+00    3.507211e+00
  6.306759e+00    3.514198e+00
  6.322635e+00    3.547032e+00
  6.338510e+00    3.555117e+00
  6.354386e+00    3.626540e+00
  6.370261e+00    3.626036e+00
  6.386137e+00    3.520563e+00
  6.402013e+00    3.504968e+00
  6.417888e+00    3.562225e+00
  6.433764e+00    3.573108e+00
  6.449639e+00    3.498502e+00
  6.465515e+00    3.534036e+00
  6.481390e+00    3.537399e+00
  6.497266e+00    3.618572e+00
  6.513142e+00    3.637508e+00
  6.529017e+00    3.610594e+00
  6.544893e+00    3.549803e+00
  6.560768e+00    3.595384e+00
  6.576644e+00    3.654990e+00
  6.592519e+00    3.599208e+00
  6.608395e+00    3.567894e+00
  6.624271e+00    3.545583e+00
  6.640146e+00    3.595475e+00
  6.656022e+00    3.639273e+00
  6.671897e+00    3.473529e+00
  6.687773e+00    3.577546e+00
  6.703648e+00    3.566717e+00
  6.719524e+00    3.540252e+00
  6.735400e+00    3.546036e+00
  6.751275e+00    3.553977e+00
  6.767151e+00    3.582333e+00
  6.783026e+00    3.526440e+00
  6.798902e+00    3.482634e+00
  6.814777e+00    3.441972e+00
  6.830653e+00    3.512380e+00
  6.846529e+00    3.554258e+00
  6.862404e+00    3.561261e+00
  6.878280e+00    3.559333e+00
  6.894155e+00    3.508107e+00
  6.910031e+00    3.570892e+00
  6.925907e+00    3.536177e+00
  6.941782e+00    3.569904e+00
  6.957658e+00    3.522048e+00
  6.973533e+00    3.505183e+00
  6.989409e+00    3.518790e+00
  7.005284e+00    3.507348e+00
  7.021160e+00    3.509385e+00
  7.037036e+00    3.546748e+00
  7.052911e+00    3.540598e+00
  7.068787e+00    3.508970e+00
  7.084662e+00    3.463006e+00
  7.100538e+00    3.510642e+00
  7.116413e+00    3.550631e+00
  7.132289e+00    3.558417e+00
  7.148165e+00    3.534813e+00
  7.164040e+00    3.481208e+00
  7.179916e+00    3.500299e+00
  7.195791e+00    3.527331e+00
  7.211667e+00    3.429053e+00
  7.227542e+00    3.480151e+00
  7.243418e+00    3.494633e+00
  7.259294e+00    3.526942e+00
  7.275169e+00    3.586339e+00
  7.291045e+00    3.607747e+00
  7.306920e+00    3.564579e+00
  7.322796e+00    3.503791e+00
  7.338671e+00    3.453261e+00
  7.354547e+00    3.460043e+00
  7.370423e+00    3.487436e+00
  7.386298e+00    3.453179e+00
  7.402174e+00    3.436141e+00
  7.418049e+00    3.501599e+00
  7.433925e+00    3.444572e+00
  7.449800e+00    3.422270e+00
  7.465676e+00    3.454626e+00
  7.481552e+00    3.466485e+00
  7.497427e+00    3.526880e+00
  7.513303e+00    3.516365e+00
  7.529178e+00    3.431205e+00
  7.545054e+00    3.423509e+00
  7.560929e+00    3.506279e+00
  7.576805e+00    3.576067e+00
  7.592681e+00    3.610790e+00
  7.608556e+00    3.469739e+00
  7.624432e+00    3.343340e+00
  7.640307e+00    3.431380e+00
  7.656183e+00    3.453841e+00
  7.672058e+00    3.492295e+00
  7.687934e+00    3.455682e+00
  7.703810e+00    3.422290e+00
  7.719685e+00    3.474349e+00
  7.735561e+00    3.522130e+00
  7.751436e+00    3.428443e+00
  7.767312e+00    3.469549e+00
  7.783187e+00    3.505425e+00
  7.799063e+00    3.447711e+00
  7.814939e+00    3.416081e+00
  7.830814e+00    3.408882e+00
  7.846690e+00    3.371578e+00
  7.862565e+00    3.419342e+00
  7.878441e+00    3.418068e+00
  7.894317e+00    3.435191e+00
  7.910192e+00    3.419349e+00
  7.926068e+00    3.434874e+00
  7.941943e+00    3.437814e+00
  7.957819e+00    3.475613e+00
  7.973694e+00    3.428937e+00
  7.989570e+00    3.368379e+00
  8.005446e+00    3.432337e+00
  8.021321e+00    3.425115e+00
  8.037197e+00    3.412617e+00
  8.053072e+00    3.432285e+00
  8.068948e+00    3.438638e+00
  8.084823e+00    3.454987e+00
  8.100699e+00    3.481123e+00
  8.116575e+00    3.477481e+00
  8.132450e+00    3.424513e+00
  8.148326e+00    3.471055e+00
  8.164201e+00    3.503554e+00
  8.180077e+00    3.498777e+00
  8.195952e+00    3.516797e+00
  8.211828e+00    3.467729e+00
  8.227704e+00    3.467510e+00
  8.243579e+00    3.416283e+00
  8.259455e+00    3.452393e+00
  8.275330e+00    3.451524e+00
  8.291206e+00    3.434170e+00
  8.307081e+00    3.444100e+00
  8.322957e+00    3.423702e+00
  8.338833e+00    3.357864e+00
  8.354708e+00    3.368902e+00
  8.370584e+00    3.392864e+00
  8.386459e+00    3.398236e+00
  8.402335e+00    3.400627e+00
  8.418210e+00    3.393533e+00
  8.434086e+00    3.389202e+00
  8.449962e+00    3.415801e+00
  8.465837e+00    3.421223e+00
  8.481713e+00    3.446312e+00
  8.497588e+00    3.364585e+00
  8.513464e+00    3.338890e+00
  8.529339e+00    3.358106e+00
  8.545215e+00    3.391146e+00
  8.561091e+00    3.371458e+00
  8.576966e+00    3.357978e+00
  8.592842e+00    3.350322e+00
  8.608717e+00    3.331184e+00
  8.624593e+00    3.375164e+00
  8.640468e+00    3.381568e+00
  8.656344e+00    3.359229e+00
  8.672220e+00    3.380100e+00
  8.688095e+00    3.312117e+00
  8.703971e+00    3.314287e+00
  8.719846e+00    3.323455e+00
  8.735722e+00    3.269613e+00
  8.751598e+00    3.353595e+00
  8.767473e+00    3.349244e+00
  8.783349e+00    3.342933e+00
  8.799224e+00    3.341753e+00
  8.815100e+00    3.395196e+00
  8.830975e+00    3.380258e+00
  8.846851e+00    3.343016e+00
  8.862727e+00    3.284662e+00
  8.878602e+00    3.292387e+00
  8.894478e+00    3.288177e+00
  8.910353e+00    3.250964e+00
  8.926229e+00    3.312441e+00
  8.942104e+00    3.310028e+00
  8.957980e+00    3.289949e+00
  8.973856e+00    3.284430e+00
  8.989731e+00    3.254735e+00
  9.005607e+00    3.261241e+00
  9.021482e+00    3.274042e+00
  9.037358e+00    3.316265e+00
  9.053233e+00    3.327717e+00
  9.069109e+00    3.242218e+00
  9.084985e+00    3.238379e+00
  9.100860e+00    3.258765e+00
  9.116736e+00    3.233168e+00
  9.132611e+00    3.273395e+00
  9.148487e+00    3.302062e+00
  9.164362e+00    3.317173e+00
  9.180238e+00    3.299721e+00
  9.196114e+00    3.247286e+00
  9.211989e+00    3.271887e+00
  9.227865e+00    3.289098e+00
  9.243740e+00    3.256202e+00
  9.259616e+00    3.219723e+00
  9.275491e+00    3.183377e+00
  9.291367e+00    3.218752e+00
  9.307243e+00    3.210972e+00
  9.323118e+00    3.234222e+00
  9.338994e+00    3.189601e+00
  9.354869e+00    3.167300e+00
  9.370745e+00    3.200675e+00
  9.386620e+00    3.246123e+00
  9.402496e+00    3.216015e+00
  9.418372e+00    3.221076e+00
  9.434247e+00    3.243963e+00
  9.450123e+00    3.211033e+00
  9.465998e+00    3.220843e+00
  9.481874e+00    3.207057e+00
  9.497749e+00    3.159941e+00
  9.513625e+00    3.188385e+00
  9.529501e+00    3.246746e+00
  9.545376e+00    3.188445e+00
  9.561252e+00    3.152950e+00
  9.577127e+00    3.201984e+00
  9.593003e+00    3.246129e+00
  9.608878e+00    3.275595e+00
  9.624754e+00    3.211210e+00
  9.640630e+00    3.201877e+00
  9.656505e+00    3.236773e+00
  9.672381e+00    3.197039e+00
  9.688256e+00    3.198060e+00
  9.704132e+00    3.181832e+00
  9.720008e+00    3.127419e+00
  9.735883e+00    3.102208e+00
  9.751759e+00    3.133485e+00
  9.767634e+00    3.112859e+00
  9.783510e+00    3.148389e+00
  9.799385e+00    3.173962e+00
  9.815261e+00    3.162608e+00
  9.831137e+00    3.150304e+00
  9.847012e+00    3.195417e+00
  9.862888e+00    3.173736e+00
  9.878763e+00    3.180887e+00
  9.894639e+00    3.131328e+00
  9.910514e+00    3.104875e+00
  9.926390e+00    3.151436e+00
  9.942266e+00    3.195322e+00
  9.958141e+00    3.110053e+00
  9.974017e+00    3.073394e+00
  9.989892e+00    3.115774e+00
  1.000577e+01    3.098821e+00
  1.002164e+01    3.106905e+00
  1.003752e+01    3.068845e+00
  1.005339e+01    3.088557e+00
  1.006927e+01    3.072245e+00
  1.008515e+01    3.108039e+00
  1.010102e+01    3.135767e+00
  1.011690e+01    3.037775e+00
  1.013277e+01    3.050057e+00
  1.014865e+01    3.078700e+00
  1.016452e+01    3.085870e+00
  1.018040e+01    3.103100e+00
  1.019627e+01    3.096807e+00
  1.021215e+01    3.103020e+00
  1.022803e+01    3.074629e+00
  1.024390e+01    3.074504e+00
  1.025978e+01    3.124840e+00
  1.027565e+01    3.126878e+00
  1.029153e+01    3.073277e+00
  1.030740e+01    3.032378e+00
  1.032328e+01    3.044662e+00
  1.033915e+01    3.078129e+00
  1.035503e+01    3.101811e+00
  1.037091e+01    3.085244e+00
  1.038678e+01    3.043487e+00
  1.040266e+01    3.025224e+00
  1.041853e+01    3.078396e+00
  1.043441e+01    3.091669e+00
  1.045028e+01    3.045725e+00
  1.046616e+01    3.044761e+00
  1.048204e+01    3.049595e+00
  1.049791e+01    3.009735e+00
  1.051379e+01    2.998095e+00
  1.052966e+01    3.015838e+00
  1.054554e+01    3.018344e+00
  1.056141e+01    3.011536e+00
  1.057729e+01    3.033210e+00
  1.059316e+01    3.035934e+00
  1.060904e+01    3.015359e+00
  1.062492e+01    2.983421e+00
  1.064079e+01    3.027813e+00
  1.065667e+01    3.047500e+00
  1.067254e+01    2.981906e+00
  1.068842e+01    2.930788e+00
  1.070429e+01    2.941801e+00
  1.072017e+01    2.943394e+00
  1.073604e+01    2.961706e+00
  1.075192e+01    2.907876e+00
  1.076780e+01    2.963283e+00
  1.078367e+01    2.947973e+00
  1.079955e+01    2.902080e+00
  1.081542e+01    2.968805e+00
  1.083130e+01    3.016466e+00
  1.084717e+01    2.966750e+00
  1.086305e+01    2.955916e+00
  1.087892e+01    2.903635e+00
  1.089480e+01    2.881139e+00
  1.091068e+01    2.927761e+00
  1.092655e+01    2.909077e+00
  1.094243e+01    2.921932e+00
  1.095830e+01    2.928760e+00
  1.097418e+01    2.919144e+00
  1.099005e+01    2.913982e+00
  1.100593e+01    2.909375e+00
  1.102180e+01    2.895490e+00
  1.103768e+01    2.885590e+00
  1.105356e+01    2.894399e+00
  1.106943e+01    2.889168e+00
  1.108531e+01    2.899352e+00
  1.110118e+01    2.882544e+00
  1.111706e+01    2.885544e+00
  1.113293e+01    2.910193e+00
  1.114881e+01    2.880327e+00
  1.116468e+01    2.848886e+00
  1.118056e+01    2.837308e+00
  1.119644e+01    2.857662e+00
  1.121231e+01    2.864242e+00
  1.122819e+01    2.863374e+00
  1.124406e+01    2.852906e+00
  1.125994e+01    2.897148e+00
  1.127581e+01    2.873783e+00
  1.129169e+01    2.830667e+00
  1.130756e+01    2.830106e+00
  1.132344e+01    2.850468e+00
  1.133932e+01    2.873200e+00
  1.135519e+01    2.865322e+00
  1.137107e+01    2.823178e+00
  1.138694e+01    2.808133e+00
  1.140282e+01    2.819952e+00
  1.141869e+01    2.845767e+00
  1.143457e+01    2.855598e+00
  1.145045e+01    2.815151e+00
  1.146632e+01    2.828196e+00
  1.148220e+01    2.806307e+00
  1.149807e+01    2.818436e+00
  1.151395e+01    2.798148e+00
  1.152982e+01    2.790993e+00
  1.154570e+01    2.812433e+00
  1.156157e+01    2.828583e+00
  1.157745e+01    2.807835e+00
  1.159333e+01    2.838283e+00
  1.160920e+01    2.823998e+00
  1.162508e+01    2.777431e+00
  1.164095e+01    2.774143e+00
  1.165683e+01    2.753599e+00
  1.167270e+01    2.745991e+00
  1.168858e+01    2.754661e+00
  1.170445e+01    2.746814e+00
  1.172033e+01    2.743143e+00
  1.173621e+01    2.747093e+00
  1.175208e+01    2.754592e+00
  1.176796e+01    2.768070e+00
  1.178383e+01    2.687444e+00
  1.179971e+01    2.710712e+00
  1.181558e+01    2.729899e+00
  1.183146e+01    2.680868e+00
  1.184733e+01    2.696009e+00
  1.186321e+01    2.704625e+00
  1.187909e+01    2.695436e+00
  1.189496e+01    2.729494e+00
  1.191084e+01    2.765378e+00
  1.192671e+01    2.714088e+00
  1.194259e+01    2.655824e+00
  1.195846e+01    2.699463e+00
  1.197434e+01    2.739539e+00
  1.199021e+01    2.688513e+00
  1.200609e+01    2.750111e+00
  1.202197e+01    2.755970e+00
  1.203784e+01    2.707175e+00
  1.205372e+01    2.729237e+00
  1.206959e+01    2.686127e+00
  1.208547e+01    2.677759e+00
  1.210134e+01    2.677846e+00
  1.211722e+01    2.672457e+00
  1.213309e+01    2.697637e+00
  1.214897e+01    2.734697e+00
  1.216485e+01    2.707438e+00
  1.218072e+01    2.682833e+00
  1.219660e+01    2.695459e+00
  1.221247e+01    2.733714e+00
  1.222835e+01    2.716920e+00
  1.224422e+01    2.692897e+00
  1.226010e+01    2.689421e+00
  1.227597e+01    2.694154e+00
  1.229185e+01    2.679847e+00
  1.230773e+01    2.668069e+00
  1.232360e+01    2.701617e+00
  1.233948e+01    2.710114e+00
  1.235535e+01    2.769471e+00
  1.237123e+01    2.737186e+00
  1.238710e+01    2.711298e+00
  1.240298e+01    2.712184e+00
  1.241886e+01    2.686362e+00
  1.243473e+01    2.713535e+00
  1.245061e+01    2.662887e+00
  1.246648e+01    2.641962e+00
  1.248236e+01    2.625443e+00
  1.249823e+01    2.698837e+00
  1.251411e+01    2.711279e+00
  1.252998e+01    2.693696e+00
  1.254586e+01    2.716205e+00
  1.256174e+01    2.714182e+00
  1.257761e+01    2.674107e+00
  1.259349e+01    2.770296e+00
  1.260936e+01    2.742889e+00
  1.262524e+01    2.721272e+00
  1.264111e+01    2.763921e+00
  1.265699e+01    2.728776e+00
  1.267286e+01    2.794908e+00
  1.268874e+01    2.836951e+00
  1.270462e+01    2.859375e+00
  1.272049e+01    2.877814e+00
  1.273637e+01    2.896402e+00
  1.275224e+01    2.905067e+00
  1.276812e+01    2.905712e+00
  1.278399e+01    2.951200e+00
  1.279987e+01    3.026211e+00
  1.281574e+01    3.057230e+00
  1.283162e+01    3.110315e+00
  1.284750e+01    3.167606e+00
  1.286337e+01    3.314694e+00
  1.287925e+01    3.393179e+00
  1.289512e+01    3.461343e+00
  1.291100e+01    3.608056e+00
  1.292687e+01    3.837761e+00
  1.294275e+01    4.126685e+00
  1.295862e+01    4.425156e+00
  1.297450e+01    4.775241e+00
  1.299038e+01    5.330741e+00
  1.300625e+01    5.901186e+00
  1.302213e+01    6.698005e+00
  1.303800e+01    7.732277e+00
  1.305388e+01    8.896289e+00
  1.306975e+01    1.013394e+01
  1.308563e+01    1.145451e+01
  1.310150e+01    1.266243e+01
  1.311738e+01    1.382541e+01
  1.313326e+01    1.480152e+01
  1.314913e+01    1.548217e+01
  1.316501e+01    1.599684e+01
  1.318088e+01    1.621974e+01
  1.319676e+01    1.558867e+01
  1.321263e+01    1.414258e+01
  1.322851e+01    1.237197e+01
  1.324438e+01    1.060860e+01
  1.326026e+01    9.085850e+00
  1.327614e+01    7.773320e+00
  1.329201e+01    6.768366e+00
  1.330789e+01    5.859060e+00
  1.332376e+01    5.268797e+00
  1.333964e+01    4.779563e+00
  1.335551e+01    4.363747e+00
  1.337139e+01    4.053358e+00
  1.338727e+01    3.833647e+00
  1.340314e+01    3.683430e+00
  1.341902e+01    3.462345e+00
  1.343489e+01    3.335459e+00
  1.345077e+01    3.237344e+00
  1.346664e+01    3.104325e+00
  1.348252e+01    2.974002e+00
  1.349839e+01    2.979649e+00
  1.351427e+01    2.899094e+00
  1.353015e+01    2.868051e+00
  1.354602e+01    2.818624e+00
  1.356190e+01    2.779438e+00
  1.357777e+01    2.779420e+00
  1.359365e+01    2.709064e+00
  1.360952e+01    2.653995e+00
  1.362540e+01    2.639688e+00
  1.364127e+01    2.620782e+00
  1.365715e+01    2.607130e+00
  1.367303e+01    2.581952e+00
  1.368890e+01    2.563228e+00
  1.370478e+01    2.607870e+00
  1.372065e+01    2.534843e+00
  1.373653e+01    2.517355e+00
  1.375240e+01    2.533878e+00
  1.376828e+01    2.540716e+00
  1.378415e+01    2.490815e+00
  1.380003e+01    2.489316e+00
  1.381591e+01    2.477572e+00
  1.383178e+01    2.471664e+00
  1.384766e+01    2.428551e+00
  1.386353e+01    2.413404e+00
  1.387941e+01    2.382921e+00
  1.389528e+01    2.389228e+00
  1.391116e+01    2.414731e+00
  1.392703e+01    2.402216e+00
  1.394291e+01    2.391703e+00
  1.395879e+01    2.389458e+00
  1.397466e+01    2.365997e+00
  1.399054e+01    2.353371e+00
  1.400641e+01    2.382344e+00
  1.402229e+01    2.351499e+00
  1.403816e+01    2.384005e+00
  1.405404e+01    2.394861e+00
  1.406991e+01    2.352312e+00
  1.408579e+01    2.345641e+00
  1.410167e+01    2.328771e+00
  1.411754e+01    2.355124e+00
  1.413342e+01    2.342943e+00
  1.414929e+01    2.327319e+00
  1.416517e+01    2.317974e+00
  1.418104e+01    2.294396e+00
  1.419692e+01    2.265471e+00
  1.421279e+01    2.326729e+00
  1.422867e+01    2.307117e+00
  1.424455e+01    2.301808e+00
  1.426042e+01    2.293417e+00
  1.427630e+01    2.260124e+00
  1.429217e+01    2.277655e+00
  1.430805e+01    2.257057e+00
  1.432392e+01    2.271289e+00
  1.433980e+01    2.288147e+00
  1.435568e+01    2.299635e+00
  1.437155e+01    2.256262e+00
  1.438743e+01    2.238576e+00
  1.440330e+01    2.242990e+00
  1.441918e+01    2.247540e+00
  1.443505e+01    2.267622e+00
  1.445093e+01    2.261370e+00
  1.446680e+01    2.193599e+00
  1.448268e+01    2.201934e+00
  1.449856e+01    2.275331e+00
  1.451443e+01    2.258972e+00
  1.453031e+01    2.240491e+00
  1.454618e+01    2.223291e+00
  1.456206e+01    2.208342e+00
  1.457793e+01    2.208715e+00
  1.459381e+01    2.210559e+00
  1.460968e+01    2.236046e+00
  1.462556e+01    2.230077e+00
  1.464144e+01    2.237706e+00
  1.465731e+01    2.213292e+00
  1.467319e+01    2.206210e+00
  1.468906e+01    2.160547e+00
  1.470494e+01    2.190179e+00
  1.472081e+01    2.204314e+00
  1.473669e+01    2.195532e+00
  1.475256e+01    2.186630e+00
  1.476844e+01    2.165858e+00
  1.478432e+01    2.185640e+00
  1.480019e+01    2.209973e+00
  1.481607e+01    2.222908e+00
  1.483194e+01    2.190861e+00
  1.484782e+01    2.198717e+00
  1.486369e+01    2.223672e+00
  1.487957e+01    2.238282e+00
  1.489544e+01    2.233696e+00
  1.491132e+01    2.267743e+00
  1.492720e+01    2.282583e+00
  1.494307e+01    2.301334e+00
  1.495895e+01    2.310706e+00
  1.497482e+01    2.330792e+00
  1.499070e+01    2.397405e+00
  1.500657e+01    2.456500e+00
  1.502245e+01    2.527876e+00
  1.503832e+01    2.574576e+00
  1.505420e+01    2.692282e+00
  1.507008e+01    2.815020e+00
  1.508595e+01    3.001430e+00
  1.510183e+01    3.254127e+00
  1.511770e+01    3.477832e+00
  1.513358e+01    3.787736e+00
  1.514945e+01    4.173761e+00
  1.516533e+01    4.568024e+00
  1.518120e+01    4.909459e+00
  1.519708e+01    5.148971e+00
  1.521296e+01    5.323918e+00
  1.522883e+01    5.603942e+00
  1.524471e+01    5.761517e+00
  1.526058e+01    5.778455e+00
  1.527646e+01    5.684010e+00
  1.529233e+01    5.453055e+00
  1.530821e+01    5.145597e+00
  1.532409e+01    4.602831e+00
  1.533996e+01    4.111905e+00
  1.535584e+01    3.720569e+00
  1.537171e+01    3.351505e+00
  1.538759e+01    3.165182e+00
  1.540346e+01    2.943869e+00
  1.541934e+01    2.765521e+00
  1.543521e+01    2.607019e+00
  1.545109e+01    2.522017e+00
  1.546697e+01    2.425830e+00
  1.548284e+01    2.326890e+00
  1.549872e+01    2.280855e+00
  1.551459e+01    2.263313e+00
  1.553047e+01    2.216210e+00
  1.554634e+01    2.217418e+00
  1.556222e+01    2.157591e+00
  1.557809e+01    2.097018e+00
  1.559397e+01    2.079869e+00
  1.560985e+01    2.073901e+00
  1.562572e+01    2.073241e+00
  1.564160e+01    2.063462e+00
  1.565747e+01    2.069333e+00
  1.567335e+01    2.023276e+00
  1.568922e+01    2.013791e+00
  1.570510e+01    2.028446e+00
  1.572097e+01    2.006140e+00
  1.573685e+01    1.998192e+00
  1.575273e+01    1.992377e+00
  1.576860e+01    2.009846e+00
  1.578448e+01    1.990835e+00
  1.580035e+01    1.893048e+00
  1.581623e+01    1.910378e+00
  1.583210e+01    1.943629e+00
  1.584798e+01    1.908837e+00
  1.586385e+01    1.914849e+00
  1.587973e+01    1.938132e+00
  1.589561e+01    1.934071e+00
  1.591148e+01    1.937640e+00
  1.592736e+01    1.917150e+00
  1.594323e+01    1.893583e+00
  1.595911e+01    1.873592e+00
  1.597498e+01    1.884723e+00
  1.599086e+01    1.866173e+00
  1.600673e+01    1.846772e+00
  1.602261e+01    1.821236e+00
  1.603849e+01    1.908596e+00
  1.605436e+01    1.889599e+00
  1.607024e+01    1.875805e+00
  1.608611e+01    1.852702e+00
  1.610199e+01    1.852050e+00
  1.611786e+01    1.849291e+00
  1.613374e+01    1.863685e+00
  1.614961e+01    1.864313e+00
  1.616549e+01    1.831077e+00
  1.618137e+01    1.820028e+00
  1.619724e+01    1.828145e+00
  1.621312e+01    1.810471e+00
  1.622899e+01    1.804089e+00
  1.624487e+01    1.840116e+00
  1.626074e+01    1.820440e+00
  1.627662e+01    1.802683e+00
  1.629250e+01    1.797150e+00
  1.630837e+01    1.770871e+00
  1.632425e+01    1.769929e+00
  1.634012e+01    1.787623e+00
  1.635600e+01    1.790443e+00
  1.637187e+01    1.767554e+00
  1.638775e+01    1.748326e+00
  1.640362e+01    1.754342e+00
  1.641950e+01    1.765159e+00
  1.643538e+01    1.743442e+00
  1.645125e+01    1.726987e+00
  1.646713e+01    1.797096e+00
  1.648300e+01    1.798760e+00
  1.649888e+01    1.729340e+00
  1.651475e+01    1.711872e+00
  1.653063e+01    1.733828e+00
  1.654650e+01    1.731799e+00
  1.656238e+01    1.727505e+00
  1.657826e+01    1.737409e+00
  1.659413e+01    1.731958e+00
  1.661001e+01    1.773903e+00
  1.662588e+01    1.750890e+00
  1.664176e+01    1.747470e+00
  1.665763e+01    1.754156e+00
  1.667351e+01    1.763937e+00
  1.668938e+01    1.721785e+00
  1.670526e+01    1.726942e+00
  1.672114e+01    1.729261e+00
  1.673701e+01    1.697906e+00
  1.675289e+01    1.705693e+00
  1.676876e+01    1.733887e+00
  1.678464e+01    1.688623e+00
  1.680051e+01    1.703193e+00
  1.681639e+01    1.698232e+00
  1.683226e+01    1.702121e+00
  1.684814e+01    1.703876e+00
  1.686402e+01    1.707758e+00
  1.687989e+01    1.679832e+00
  1.689577e+01    1.674640e+00
  1.691164e+01    1.687191e+00
  1.692752e+01    1.681144e+00
  1.694339e+01    1.680391e+00
  1.695927e+01    1.698139e+00
  1.697514e+01    1.707119e+00
  1.699102e+01    1.693137e+00
  1.700690e+01    1.670683e+00
  1.702277e+01    1.678064e+00
  1.703865e+01    1.671996e+00
  1.705452e+01    1.662787e+00
  1.707040e+01    1.636609e+00
  1.708627e+01    1.657147e+00
  1.710215e+01    1.657509e+00
  1.711802e+01    1.645771e+00
  1.713390e+01    1.631154e+00
  1.714978e+01    1.588426e+00
  1.716565e+01    1.595026e+00
  1.718153e+01    1.628726e+00
  1.719740e+01    1.631816e+00
  1.721328e+01    1.636367e+00
  1.722915e+01    1.637808e+00
  1.724503e+01    1.648463e+00
  1.726091e+01    1.630082e+00
  1.727678e+01    1.622282e+00
  1.729266e+01    1.611213e+00
  1.730853e+01    1.643020e+00
  1.732441e+01    1.621905e+00
  1.734028e+01    1.629573e+00
  1.735616e+01    1.614908e+00
  1.737203e+01    1.611666e+00
  1.738791e+01    1.586120e+00
  1.740379e+01    1.634387e+00
  1.741966e+01    1.599263e+00
  1.743554e+01    1.587637e+00
  1.745141e+01    1.600383e+00
  1.746729e+01    1.594321e+00
  1.748316e+01    1.573879e+00
  1.749904e+01    1.599147e+00
  1.751491e+01    1.606967e+00
  1.753079e+01    1.587233e+00
  1.754667e+01    1.574451e+00
  1.756254e+01    1.568384e+00
  1.757842e+01    1.597397e+00
  1.759429e+01    1.604486e+00
  1.761017e+01    1.591060e+00
  1.762604e+01    1.568523e+00
  1.764192e+01    1.547676e+00
  1.765779e+01    1.509032e+00
  1.767367e+01    1.544054e+00
  1.768955e+01    1.524596e+00
  1.770542e+01    1.544301e+00
  1.772130e+01    1.564302e+00
  1.773717e+01    1.537681e+00
  1.775305e+01    1.549916e+00
  1.776892e+01    1.557001e+00
  1.778480e+01    1.558140e+00
  1.780067e+01    1.549774e+00
  1.781655e+01    1.539697e+00
  1.783243e+01    1.529541e+00
  1.784830e+01    1.556723e+00
  1.786418e+01    1.539926e+00
  1.788005e+01    1.515973e+00
  1.789593e+01    1.548173e+00
  1.791180e+01    1.553898e+00
  1.792768e+01    1.490445e+00
  1.794355e+01    1.483541e+00
  1.795943e+01    1.509144e+00
  1.797531e+01    1.508221e+00
  1.799118e+01    1.491291e+00
  1.800706e+01    1.489569e+00
  1.802293e+01    1.492001e+00
  1.803881e+01    1.490733e+00
  1.805468e+01    1.525024e+00
  1.807056e+01    1.524493e+00
  1.808643e+01    1.512322e+00
  1.810231e+01    1.491728e+00
  1.811819e+01    1.476694e+00
  1.813406e+01    1.505503e+00
  1.814994e+01    1.519735e+00
  1.816581e+01    1.478353e+00
  1.818169e+01    1.472184e+00
  1.819756e+01    1.486834e+00
  1.821344e+01    1.510607e+00
  1.822932e+01    1.462287e+00
  1.824519e+01    1.468066e+00
  1.826107e+01    1.471682e+00
  1.827694e+01    1.493201e+00
  1.829282e+01    1.490756e+00
  1.830869e+01    1.491275e+00
  1.832457e+01    1.496270e+00
  1.834044e+01    1.487220e+00
  1.835632e+01    1.456394e+00
  1.837220e+01    1.457321e+00
  1.838807e+01    1.486564e+00
  1.840395e+01    1.441141e+00
  1.841982e+01    1.440498e+00
  1.843570e+01    1.449195e+00
  1.845157e+01    1.474709e+00
  1.846745e+01    1.459088e+00
  1.848332e+01    1.460599e+00
  1.849920e+01    1.475589e+00
  1.851508e+01    1.464590e+00
  1.853095e+01    1.455934e+00
  1.854683e+01    1.440689e+00
  1.856270e+01    1.427876e+00
  1.857858e+01    1.440160e+00
  1.859445e+01    1.422444e+00
  1.861033e+01    1.430642e+00
  1.862620e+01    1.436174e+00
  1.864208e+01    1.435306e+00
  1.865796e+01    1.458751e+00
  1.867383e+01    1.428620e+00
  1.868971e+01    1.396931e+00
  1.870558e+01    1.383394e+00
  1.872146e+01    1.414045e+00
  1.873733e+01    1.407506e+00
  1.875321e+01    1.430136e+00
  1.876908e+01    1.422498e+00
  1.878496e+01    1.398106e+00
  1.880084e+01    1.410760e+00
  1.881671e+01    1.402032e+00
  1.883259e+01    1.420182e+00
  1.884846e+01    1.427203e+00
  1.886434e+01    1.430525e+00
  1.888021e+01    1.421151e+00
  1.889609e+01    1.417403e+00
  1.891196e+01    1.425449e+00
  1.892784e+01    1.397391e+00
  1.894372e+01    1.433948e+00
  1.895959e+01    1.400298e+00
  1.897547e+01    1.394570e+00
  1.899134e+01    1.403135e+00
  1.900722e+01    1.375620e+00
  1.902309e+01    1.373479e+00
  1.903897e+01    1.390550e+00
  1.905484e+01    1.374792e+00
  1.907072e+01    1.363679e+00
  1.908660e+01    1.377284e+00
  1.910247e+01    1.369626e+00
  1.911835e+01    1.362800e+00
  1.913422e+01    1.349764e+00
  1.915010e+01    1.379849e+00
  1.916597e+01    1.375339e+00
  1.918185e+01    1.374440e+00
  1.919773e+01    1.364990e+00
  1.921360e+01    1.342459e+00
  1.922948e+01    1.358210e+00
  1.924535e+01    1.355671e+00
  1.926123e+01    1.363743e+00
  1.927710e+01    1.372712e+00
  1.929298e+01    1.353551e+00
  1.930885e+01    1.340491e+00
  1.932473e+01    1.327317e+00
  1.934061e+01    1.350357e+00
  1.935648e+01    1.326084e+00
  1.937236e+01    1.346580e+00
  1.938823e+01    1.370961e+00
  1.940411e+01    1.361548e+00
  1.941998e+01    1.350213e+00
  1.943586e+01    1.341485e+00
  1.945173e+01    1.340174e+00
  1.946761e+01    1.325450e+00
  1.948349e+01    1.322372e+00
  1.949936e+01    1.293723e+00
  1.951524e+01    1.308794e+00
  1.953111e+01    1.323186e+00
  1.954699e+01    1.309939e+00
  1.956286e+01    1.306024e+00
  1.957874e+01    1.336345e+00
  1.959461e+01    1.315772e+00
  1.961049e+01    1.313210e+00
  1.962637e+01    1.327823e+00
  1.964224e+01    1.329283e+00
  1.965812e+01    1.305555e+00
  1.967399e+01    1.301932e+00
  1.968987e+01    1.330540e+00
  1.970574e+01    1.309981e+00
  1.972162e+01    1.295234e+00
  1.973749e+01    1.316551e+00
  1.975337e+01    1.337998e+00
  1.976925e+01    1.322920e+00
  1.978512e+01    1.318254e+00
  1.980100e+01    1.302071e+00
  1.981687e+01    1.309784e+00
  1.983275e+01    1.308840e+00
  1.984862e+01    1.325665e+00
  1.986450e+01    1.311866e+00
  1.988037e+01    1.279722e+00
  1.989625e+01    1.295127e+00
  1.991213e+01    1.312883e+00
  1.992800e+01    1.301020e+00
  1.994388e+01    1.291776e+00
  1.995975e+01    1.298501e+00
  1.997563e+01    1.304055e+00
  1.999150e+01    1.297270e+00
  2.000738e+01    1.289941e+00
  2.002325e+01    1.284672e+00
  2.003913e+01    1.295873e+00
  2.005501e+01    1.286215e+00
  2.007088e+01    1.311658e+00
  2.008676e+01    1.275521e+00
  2.010263e+01    1.246714e+00
  2.011851e+01    1.268174e+00
  2.013438e+01    1.280631e+00
  2.015026e+01    1.289941e+00
  2.016614e+01    1.246915e+00
  2.018201e+01    1.221690e+00
  2.019789e+01    1.242787e+00
  2.021376e+01    1.252730e+00
  2.022964e+01    1.259987e+00
  2.024551e+01    1.270081e+00
  2.026139e+01    1.274295e+00
  2.027726e+01    1.279711e+00
  2.029314e+01    1.259953e+00
  2.030902e+01    1.246037e+00
  2.032489e+01    1.265462e+00
  2.034077e+01    1.259628e+00
  2.035664e+01    1.230776e+00
  2.037252e+01    1.240826e+00
  2.038839e+01    1.249775e+00
  2.040427e+01    1.246999e+00
  2.042014e+01    1.216221e+00
  2.043602e+01    1.241420e+00
  2.045190e+01    1.247595e+00
  2.046777e+01    1.251207e+00
  2.048365e+01    1.234436e+00
  2.049952e+01    1.244087e+00
  2.051540e+01    1.235280e+00
  2.053127e+01    1.238630e+00
  2.054715e+01    1.223595e+00
  2.056302e+01    1.214373e+00
  2.057890e+01    1.223055e+00
  2.059478e+01    1.219458e+00
  2.061065e+01    1.242280e+00
  2.062653e+01    1.229004e+00
  2.064240e+01    1.219772e+00
  2.065828e+01    1.213813e+00
  2.067415e+01    1.219094e+00
  2.069003e+01    1.209974e+00
  2.070590e+01    1.244124e+00
  2.072178e+01    1.240665e+00
  2.073766e+01    1.218796e+00
  2.075353e+01    1.213868e+00
  2.076941e+01    1.230418e+00
  2.078528e+01    1.220504e+00
  2.080116e+01    1.221704e+00
  2.081703e+01    1.231085e+00
  2.083291e+01    1.234675e+00
  2.084878e+01    1.224301e+00
  2.086466e+01    1.215752e+00
  2.088054e+01    1.204840e+00
  2.089641e+01    1.211854e+00
  2.091229e+01    1.230301e+00
  2.092816e+01    1.247896e+00
  2.094404e+01    1.233168e+00
  2.095991e+01    1.216771e+00
  2.097579e+01    1.232517e+00
  2.099166e+01    1.235960e+00
  2.100754e+01    1.232720e+00
  2.102342e+01    1.236147e+00
  2.103929e+01    1.251210e+00
  2.105517e+01    1.251029e+00
  2.107104e+01    1.246623e+00
  2.108692e+01    1.229785e+00
  2.110279e+01    1.239136e+00
  2.111867e+01    1.221998e+00
  2.113455e+01    1.209427e+00
  2.115042e+01    1.242793e+00
  2.116630e+01    1.239275e+00
  2.118217e+01    1.234984e+00
  2.119805e+01    1.254208e+00
  2.121392e+01    1.245584e+00
  2.122980e+01    1.238124e+00
  2.124567e+01    1.235849e+00
  2.126155e+01    1.233513e+00
  2.127743e+01    1.262902e+00
  2.129330e+01    1.253877e+00
  2.130918e+01    1.255268e+00
  2.132505e+01    1.252302e+00
  2.134093e+01    1.254497e+00
  2.135680e+01    1.235466e+00
  2.137268e+01    1.282721e+00
  2.138855e+01    1.308616e+00
  2.140443e+01    1.299538e+00
  2.142031e+01    1.318469e+00
  2.143618e+01    1.344007e+00
  2.145206e+01    1.380015e+00
  2.146793e+01    1.397311e+00
  2.148381e+01    1.406342e+00
  2.149968e+01    1.419433e+00
  2.151556e+01    1.466469e+00
  2.153143e+01    1.488845e+00
  2.154731e+01    1.525104e+00
  2.156319e+01    1.561179e+00
  2.157906e+01    1.626276e+00
  2.159494e+01    1.675089e+00
  2.161081e+01    1.769685e+00
  2.162669e+01    1.886433e+00
  2.164256e+01    1.977281e+00
  2.165844e+01    2.102227e+00
  2.167431e+01    2.290854e+00
  2.169019e+01    2.504324e+00
  2.170607e+01    2.769645e+00
  2.172194e+01    3.099850e+00
  2.173782e+01    3.519919e+00
  2.175369e+01    4.027194e+00
  2.176957e+01    4.586770e+00
  2.178544e+01    5.206657e+00
  2.180132e+01    5.854219e+00
  2.181719e+01    6.505660e+00
  2.183307e+01    7.202382e+00
  2.184895e+01    7.790922e+00
  2.186482e+01    8.315420e+00
  2.188070e+01    8.689099e+00
  2.189657e+01    8.826889e+00
  2.191245e+01    8.636698e+00
  2.192832e+01    8.157843e+00
  2.194420e+01    7.439405e+00
  2.196007e+01    6.557833e+00
  2.197595e+01    5.675766e+00
  2.199183e+01    4.815023e+00
  2.200770e+01    4.116971e+00
  2.202358e+01    3.582604e+00
  2.203945e+01    3.163213e+00
  2.205533e+01    2.830849e+00
  2.207120e+01    2.533283e+00
  2.208708e+01    2.329874e+00
  2.210296e+01    2.124876e+00
  2.211883e+01    1.980818e+00
  2.213471e+01    1.865118e+00
  2.215058e+01    1.775675e+00
  2.216646e+01    1.666831e+00
  2.218233e+01    1.605383e+00
  2.219821e+01    1.554351e+00
  2.221408e+01    1.495531e+00
  2.222996e+01    1.440375e+00
  2.224584e+01    1.400450e+00
  2.226171e+01    1.352212e+00
  2.227759e+01    1.343433e+00
  2.229346e+01    1.333646e+00
  2.230934e+01    1.287737e+00
  2.232521e+01    1.266648e+00
  2.234109e+01    1.284218e+00
  2.235696e+01    1.243973e+00
  2.237284e+01    1.207429e+00
  2.238872e+01    1.213845e+00
  2.240459e+01    1.203168e+00
  2.242047e+01    1.181637e+00
  2.243634e+01    1.184172e+00
  2.245222e+01    1.186545e+00
  2.246809e+01    1.143753e+00
  2.248397e+01    1.132236e+00
  2.249984e+01    1.143963e+00
  2.251572e+01    1.138486e+00
  2.253160e+01    1.140537e+00
  2.254747e+01    1.134321e+00
  2.256335e+01    1.117033e+00
  2.257922e+01    1.127836e+00
  2.259510e+01    1.110948e+00
  2.261097e+01    1.098861e+00
  2.262685e+01    1.102036e+00
  2.264272e+01    1.092733e+00
  2.265860e+01    1.071209e+00
  2.267448e+01    1.083337e+00
  2.269035e+01    1.058517e+00
  2.270623e+01    1.052366e+00
  2.272210e+01    1.068785e+00
  2.273798e+01    1.084352e+00
  2.275385e+01    1.088239e+00
  2.276973e+01    1.076548e+00
  2.278560e+01    1.063505e+00
  2.280148e+01    1.058327e+00
  2.281736e+01    1.058450e+00
  2.283323e+01    1.064776e+00
  2.284911e+01    1.049171e+00
  2.286498e+01    1.059772e+00
  2.288086e+01    1.040760e+00
  2.289673e+01    1.026119e+00
  2.291261e+01    1.022560e+00
  2.292848e+01    1.030644e+00
  2.294436e+01    1.026359e+00
  2.296024e+01    1.040791e+00
  2.297611e+01    1.040358e+00
  2.299199e+01    1.035980e+00
  2.300786e+01    1.020932e+00
  2.302374e+01    1.024220e+00
  2.303961e+01    1.026040e+00
  2.305549e+01    1.028020e+00
  2.307137e+01    1.036825e+00
  2.308724e+01    1.031122e+00
  2.310312e+01    1.026871e+00
  2.311899e+01    1.017906e+00
  2.313487e+01    1.008164e+00
  2.315074e+01    1.010485e+00
  2.316662e+01    1.028084e+00
  2.318249e+01    1.010490e+00
  2.319837e+01    9.952199e-01
  2.321425e+01    9.963269e-01
  2.323012e+01    9.898025e-01
  2.324600e+01    9.818744e-01
  2.326187e+01    9.873307e-01
  2.327775e+01    1.009849e+00
  2.329362e+01    1.001085e+00
  2.330950e+01    9.933767e-01
  2.332537e+01    9.909831e-01
  2.334125e+01    9.887743e-01
  2.335713e+01    9.633426e-01
  2.337300e+01    9.731503e-01
  2.338888e+01    9.855407e-01
  2.340475e+01    9.697285e-01
  2.342063e+01    9.676215e-01
  2.343650e+01    9.877891e-01
  2.345238e+01    9.681558e-01
  2.346825e+01    9.502827e-01
  2.348413e+01    9.548180e-01
  2.350001e+01    9.649185e-01
  2.351588e+01    9.774940e-01
  2.353176e+01    9.763872e-01
  2.354763e+01    9.691154e-01
  2.356351e+01    9.497180e-01
  2.357938e+01    9.541519e-01
  2.359526e+01    9.561144e-01
  2.361113e+01    9.528387e-01
  2.362701e+01    9.598283e-01
  2.364289e+01    9.577918e-01
  2.365876e+01    9.491663e-01
  2.367464e+01    9.461853e-01
  2.369051e+01    9.305029e-01
  2.370639e+01    9.299848e-01
  2.372226e+01    9.370527e-01
  2.373814e+01    9.431936e-01
  2.375401e+01    9.155515e-01
  2.376989e+01    9.181751e-01
  2.378577e+01    9.230520e-01
  2.380164e+01    9.241175e-01
  2.381752e+01    9.037725e-01
  2.383339e+01    9.316163e-01
  2.384927e+01    8.960639e-01
  2.386514e+01    8.800256e-01
  2.388102e+01    8.867743e-01
  2.389689e+01    8.952280e-01
  2.391277e+01    9.023758e-01
  2.392865e+01    9.053069e-01
  2.394452e+01    9.147508e-01
  2.396040e+01    9.197723e-01
  2.397627e+01    9.100451e-01
  2.399215e+01    9.083189e-01
  2.400802e+01    8.900363e-01
  2.402390e+01    8.902382e-01
  2.403978e+01    9.015124e-01
  2.405565e+01    8.980079e-01
  2.407153e+01    9.007466e-01
  2.408740e+01    8.967612e-01
  2.410328e+01    8.760885e-01
  2.411915e+01    8.799973e-01
  2.413503e+01    8.673640e-01
  2.415090e+01    8.801775e-01
  2.416678e+01    8.961203e-01
  2.418266e+01    9.120818e-01
  2.419853e+01    8.958862e-01
  2.421441e+01    8.784317e-01
  2.423028e+01    8.830409e-01
  2.424616e+01    8.784112e-01
  2.426203e+01    8.720492e-01
  2.427791e+01    9.021531e-01
  2.429378e+01    8.906696e-01
  2.430966e+01    9.043141e-01
  2.432554e+01    9.070958e-01
  2.434141e+01    8.818582e-01
  2.435729e+01    8.905550e-01
  2.437316e+01    8.909588e-01
  2.438904e+01    8.655922e-01
  2.440491e+01    8.932142e-01
  2.442079e+01    9.101767e-01
  2.443666e+01    9.062045e-01
  2.445254e+01    8.798046e-01
  2.446842e+01    9.017990e-01
  2.448429e+01    8.860620e-01
  2.450017e+01    8.580728e-01
  2.451604e+01    8.805194e-01
  2.453192e+01    9.031676e-01
  2.454779e+01    8.952966e-01
  2.456367e+01    8.864785e-01
  2.457954e+01    8.959851e-01
  2.459542e+01    8.693601e-01
  2.461130e+01    8.606299e-01
  2.462717e+01    8.759782e-01
  2.464305e+01    8.945901e-01
  2.465892e+01    9.012921e-01
  2.467480e+01    8.920094e-01
  2.469067e+01    8.826970e-01
  2.470655e+01    8.917721e-01
  2.472242e+01    8.915656e-01
  2.473830e+01    8.823335e-01
  2.475418e+01    8.946941e-01
  2.477005e+01    9.060950e-01
  2.478593e+01    9.151631e-01
  2.480180e+01    8.930413e-01
  2.481768e+01    8.957357e-01
  2.483355e+01    8.914173e-01
  2.484943e+01    8.893977e-01
  2.486530e+01    8.745711e-01
  2.488118e+01    8.756458e-01
  2.489706e+01    9.146390e-01
  2.491293e+01    8.990388e-01
  2.492881e+01    9.019143e-01
  2.494468e+01    9.031762e-01
  2.496056e+01    8.923070e-01
  2.497643e+01    9.092579e-01
  2.499231e+01    9.132084e-01
  2.500819e+01    9.050969e-01
  2.502406e+01    8.967382e-01
  2.503994e+01    8.942277e-01
  2.505581e+01    8.952423e-01
  2.507169e+01    9.214230e-01
  2.508756e+01    9.056963e-01
  2.510344e+01    9.000668e-01
  2.511931e+01    9.000227e-01
  2.513519e+01    9.013152e-01
  2.515107e+01    8.885530e-01
  2.516694e+01    9.095097e-01
  2.518282e+01    9.094369e-01
  2.519869e+01    9.253418e-01
  2.521457e+01    9.213079e-01
  2.523044e+01    9.501716e-01
  2.524632e+01    9.492054e-01
  2.526219e+01    9.404486e-01
  2.527807e+01    9.438623e-01
  2.529395e+01    9.497577e-01
  2.530982e+01    9.637498e-01
  2.532570e+01    9.715977e-01
  2.534157e+01    9.748140e-01
  2.535745e+01    9.428172e-01
  2.537332e+01    9.508110e-01
  2.538920e+01    1.007550e+00
  2.540507e+01    1.008936e+00
  2.542095e+01    1.015491e+00
  2.543683e+01    1.011648e+00
  2.545270e+01    9.977901e-01
  2.546858e+01    1.008859e+00
  2.548445e+01    1.044916e+00
  2.550033e+01    1.049673e+00
  2.551620e+01    1.049182e+00
  2.553208e+01    1.077608e+00
  2.554795e+01    1.127062e+00
  2.556383e+01    1.125190e+00
  2.557971e+01    1.156699e+00
  2.559558e+01    1.187477e+00
  2.561146e+01    1.221619e+00
  2.562733e+01    1.245167e+00
  2.564321e+01    1.300075e+00
  2.565908e+01    1.329091e+00
  2.567496e+01    1.434735e+00
  2.569083e+01    1.521189e+00
  2.570671e+01    1.592256e+00
  2.572259e+01    1.713371e+00
  2.573846e+01    1.857872e+00
  2.575434e+01    2.004087e+00
  2.577021e+01    2.223458e+00
  2.578609e+01    2.464636e+00
  2.580196e+01    2.796318e+00
  2.581784e+01    3.187620e+00
  2.583371e+01    3.611351e+00
  2.584959e+01    4.092887e+00
  2.586547e+01    4.694084e+00
  2.588134e+01    5.236712e+00
  2.589722e+01    5.827946e+00
  2.591309e+01    6.269194e+00
  2.592897e+01    6.720252e+00
  2.594484e+01    7.030929e+00
  2.596072e+01    7.095689e+00
  2.597660e+01    6.895477e+00
  2.599247e+01    6.477689e+00
  2.600835e+01    5.914217e+00
  2.602422e+01    5.196843e+00
  2.604010e+01    4.541054e+00
  2.605597e+01    3.939537e+00
  2.607185e+01    3.384288e+00
  2.608772e+01    3.003068e+00
  2.610360e+01    2.654858e+00
  2.611948e+01    2.332407e+00
  2.613535e+01    2.072178e+00
  2.615123e+01    1.911356e+00
  2.616710e+01    1.760463e+00
  2.618298e+01    1.662033e+00
  2.619885e+01    1.561859e+00
  2.621473e+01    1.479461e+00
  2.623060e+01    1.408364e+00
  2.624648e+01    1.335261e+00
  2.626236e+01    1.271817e+00
  2.627823e+01    1.244608e+00
  2.629411e+01    1.221151e+00
  2.630998e+01    1.194947e+00
  2.632586e+01    1.152044e+00
  2.634173e+01    1.114609e+00
  2.635761e+01    1.092970e+00
  2.637348e+01    1.092938e+00
  2.638936e+01    1.079211e+00
  2.640524e+01    1.061732e+00
  2.642111e+01    1.047056e+00
  2.643699e+01    1.035149e+00
  2.645286e+01    1.029121e+00
  2.646874e+01    1.013626e+00
  2.648461e+01    1.023908e+00
  2.650049e+01    1.012853e+00
  2.651636e+01    9.974070e-01
  2.653224e+01    9.973007e-01
  2.654812e+01    9.882927e-01
  2.656399e+01    9.893600e-01
  2.657987e+01    9.998499e-01
  2.659574e+01    9.802303e-01
  2.661162e+01    9.650863e-01
  2.662749e+01    9.820120e-01
  2.664337e+01    9.801517e-01
  2.665924e+01    9.680148e-01
  2.667512e+01    9.617643e-01
  2.669100e+01    9.802875e-01
  2.670687e+01    9.739567e-01
  2.672275e+01    9.404370e-01
  2.673862e+01    9.460669e-01
  2.675450e+01    9.570658e-01
  2.677037e+01    9.660905e-01
  2.678625e+01    9.736013e-01
  2.680212e+01    9.641395e-01
  2.681800e+01    9.541707e-01
  2.683388e+01    9.649123e-01
  2.684975e+01    9.905381e-01
  2.686563e+01    9.739066e-01
  2.688150e+01    9.811361e-01
  2.689738e+01    1.005450e+00
  2.691325e+01    9.967610e-01
  2.692913e+01    1.015796e+00
  2.694501e+01    1.031478e+00
  2.696088e+01    1.057129e+00
  2.697676e+01    1.049755e+00
  2.699263e+01    1.080652e+00
  2.700851e+01    1.125002e+00
  2.702438e+01    1.161813e+00
  2.704026e+01    1.204381e+00
  2.705613e+01    1.273254e+00
  2.707201e+01    1.323221e+00
  2.708789e+01    1.375930e+00
  2.710376e+01    1.485349e+00
  2.711964e+01    1.595237e+00
  2.713551e+01    1.712062e+00
  2.715139e+01    1.871318e+00
  2.716726e+01    1.973540e+00
  2.718314e+01    2.087039e+00
  2.719901e+01    2.132149e+00
  2.721489e+01    2.189000e+00
  2.723077e+01    2.140374e+00
  2.724664e+01    2.045556e+00
  2.726252e+01    1.901254e+00
  2.727839e+01    1.806552e+00
  2.729427e+01    1.681311e+00
  2.731014e+01    1.556705e+00
  2.732602e+01    1.465786e+00
  2.734189e+01    1.348819e+00
  2.735777e+01    1.266613e+00
  2.737365e+01    1.219981e+00
  2.738952e+01    1.169055e+00
  2.740540e+01    1.127347e+00
  2.742127e+01    1.080303e+00
  2.743715e+01    1.050173e+00
  2.745302e+01    1.037021e+00
  2.746890e+01    1.016649e+00
  2.748477e+01    9.944919e-01
  2.750065e+01    9.513621e-01
  2.751653e+01    9.410622e-01
  2.753240e+01    9.585292e-01
  2.754828e+01    9.652015e-01
  2.756415e+01    9.412196e-01
  2.758003e+01    9.382668e-01
  2.759590e+01    9.365478e-01
  2.761178e+01    9.296027e-01
  2.762765e+01    9.299414e-01
  2.764353e+01    9.281424e-01
  2.765941e+01    9.090961e-01
  2.767528e+01    9.041309e-01
  2.769116e+01    9.085632e-01
  2.770703e+01    9.013593e-01
  2.772291e+01    9.061691e-01
  2.773878e+01    9.031999e-01
  2.775466e+01    8.940749e-01
  2.777054e+01    8.983929e-01
  2.778641e+01    8.894545e-01
  2.780229e+01    8.980724e-01
  2.781816e+01    8.949760e-01
  2.783404e+01    8.954422e-01
  2.784991e+01    8.953995e-01
  2.786579e+01    8.862025e-01
  2.788166e+01    8.700356e-01
  2.789754e+01    8.969706e-01
  2.791342e+01    8.882805e-01
  2.792929e+01    8.888137e-01
  2.794517e+01    8.700458e-01
  2.796104e+01    8.638846e-01
  2.797692e+01    8.681588e-01
  2.799279e+01    8.605061e-01
  2.800867e+01    8.618413e-01
  2.802454e+01    8.462197e-01
  2.804042e+01    8.209190e-01
  2.805630e+01    8.514185e-01
  2.807217e+01    8.630490e-01
  2.808805e+01    8.629116e-01
  2.810392e+01    8.690234e-01
  2.811980e+01    8.726297e-01
  2.813567e+01    8.609943e-01
  2.815155e+01    8.634811e-01
  2.816742e+01    8.653782e-01
  2.818330e+01    8.477229e-01
  2.819918e+01    8.513022e-01
  2.821505e+01    8.613417e-01
  2.823093e+01    8.575990e-01
  2.824680e+01    8.531495e-01
  2.826268e+01    8.424452e-01
  2.827855e+01    8.565255e-01
  2.829443e+01    8.543478e-01
  2.831030e+01    8.479041e-01
  2.832618e+01    8.379101e-01
  2.834206e+01    8.429927e-01
  2.835793e+01    8.375930e-01
  2.837381e+01    8.496097e-01
  2.838968e+01    8.558369e-01
  2.840556e+01    8.605669e-01
  2.842143e+01    8.465282e-01
  2.843731e+01    8.513526e-01
  2.845318e+01    8.493490e-01
  2.846906e+01    8.619097e-01
  2.848494e+01    8.523773e-01
  2.850081e+01    8.406814e-01
  2.851669e+01    8.333670e-01
  2.853256e+01    8.468804e-01
  2.854844e+01    8.466759e-01
  2.856431e+01    8.288199e-01
  2.858019e+01    8.331598e-01
  2.859606e+01    8.275625e-01
  2.861194e+01    8.230493e-01
  2.862782e+01    8.406479e-01
  2.864369e+01    8.310360e-01
  2.865957e+01    8.336049e-01
  2.867544e+01    8.269884e-01
  2.869132e+01    8.337003e-01
  2.870719e+01    8.220191e-01
  2.872307e+01    8.127728e-01
  2.873895e+01    8.194605e-01
  2.875482e+01    8.206151e-01
  2.877070e+01    8.432127e-01
  2.878657e+01    8.429753e-01
  2.880245e+01    8.381439e-01
  2.881832e+01    8.318260e-01
  2.883420e+01    8.297338e-01
  2.885007e+01    8.230180e-01
  2.886595e+01    8.195878e-01
  2.888183e+01    8.051152e-01
  2.889770e+01    8.033010e-01
  2.891358e+01    8.044496e-01
  2.892945e+01    8.262159e-01
  2.894533e+01    8.221405e-01
  2.896120e+01    8.151849e-01
  2.897708e+01    7.986937e-01
  2.899295e+01    7.870318e-01
  2.900883e+01    8.133862e-01
  2.902471e+01    8.235950e-01
  2.904058e+01    8.029873e-01
  2.905646e+01    8.207577e-01
  2.907233e+01    7.967478e-01
  2.908821e+01    8.247887e-01
  2.910408e+01    8.280439e-01
  2.911996e+01    8.475170e-01
  2.913583e+01    8.100582e-01
  2.915171e+01    8.204489e-01
  2.916759e+01    8.381173e-01
  2.918346e+01    8.191052e-01
  2.919934e+01    8.064486e-01
  2.921521e+01    8.104804e-01
  2.923109e+01    8.230488e-01
  2.924696e+01    8.173548e-01
  2.926284e+01    8.190954e-01
  2.927871e+01    8.285757e-01
  2.929459e+01    8.081952e-01
  2.931047e+01    7.980605e-01
  2.932634e+01    8.209434e-01
  2.934222e+01    8.009464e-01
  2.935809e+01    7.886623e-01
  2.937397e+01    7.910069e-01
  2.938984e+01    7.970554e-01
  2.940572e+01    7.861792e-01
  2.942159e+01    8.034659e-01
  2.943747e+01    7.946715e-01
  2.945335e+01    7.971817e-01
  2.946922e+01    8.140723e-01
  2.948510e+01    8.056008e-01
  2.950097e+01    7.998160e-01
  2.951685e+01    7.799261e-01
  2.953272e+01    7.753294e-01
  2.954860e+01    8.060106e-01
  2.956447e+01    7.950893e-01
  2.958035e+01    7.746699e-01
  2.959623e+01    7.989999e-01
  2.961210e+01    8.253845e-01
  2.962798e+01    8.113394e-01
  2.964385e+01    7.994071e-01
  2.965973e+01    7.904531e-01
  2.967560e+01    7.873903e-01
  2.969148e+01    7.906460e-01
  2.970736e+01    8.145680e-01
  2.972323e+01    7.819871e-01
  2.973911e+01    7.780579e-01
  2.975498e+01    7.812814e-01
  2.977086e+01    7.827054e-01
  2.978673e+01    7.967010e-01
  2.980261e+01    7.906329e-01
  2.981848e+01    8.066616e-01
  2.983436e+01    8.011398e-01
  2.985024e+01    7.965174e-01
  2.986611e+01    8.002615e-01
  2.988199e+01    7.856712e-01
  2.989786e+01    7.819998e-01
  2.991374e+01    7.806398e-01
  2.992961e+01    8.019881e-01
  2.994549e+01    7.874054e-01
  2.996136e+01    8.144163e-01
  2.997724e+01    8.043065e-01
  2.999312e+01    8.034634e-01
  3.000899e+01    8.055692e-01
  3.002487e+01    7.939059e-01
  3.004074e+01    8.218414e-01
  3.005662e+01    8.237363e-01
  3.007249e+01    7.889683e-01
  3.008837e+01    8.100211e-01
  3.010424e+01    8.091229e-01
  3.012012e+01    8.146678e-01
  3.013600e+01    7.798611e-01
  3.015187e+01    7.817203e-01
  3.016775e+01    7.889436e-01
  3.018362e+01    7.881656e-01
  3.019950e+01    7.710430e-01
  3.021537e+01    7.779757e-01
  3.023125e+01    7.815524e-01
  3.024712e+01    7.717391e-01
  3.026300e+01    8.032981e-01
  3.027888e+01    8.128322e-01
  3.029475e+01    7.966821e-01
  3.031063e+01    7.850136e-01
  3.032650e+01    8.055415e-01
  3.034238e+01    8.125152e-01
  3.035825e+01    8.028053e-01
  3.037413e+01    7.735659e-01
  3.039000e+01    7.815511e-01
  3.040588e+01    7.955134e-01
  3.042176e+01    7.956756e-01
  3.043763e+01    7.686851e-01
  3.045351e+01    7.781964e-01
  3.046938e+01    7.807726e-01
  3.048526e+01    7.710795e-01
  3.050113e+01    7.975090e-01
  3.051701e+01    7.895591e-01
  3.053288e+01    7.750632e-01
  3.054876e+01    7.911967e-01
  3.056464e+01    7.975115e-01
  3.058051e+01    8.009252e-01
  3.059639e+01    8.118861e-01
  3.061226e+01    7.886054e-01
  3.062814e+01    7.718953e-01
  3.064401e+01    7.570571e-01
  3.065989e+01    7.869233e-01
  3.067577e+01    7.755713e-01
  3.069164e+01    7.943537e-01
  3.070752e+01    7.798030e-01
  3.072339e+01    7.689461e-01
  3.073927e+01    7.769641e-01
  3.075514e+01    7.807447e-01
  3.077102e+01    7.839147e-01
  3.078689e+01    7.846493e-01
  3.080277e+01    7.856719e-01
  3.081865e+01    8.071048e-01
  3.083452e+01    8.065718e-01
  3.085040e+01    7.856995e-01
  3.086627e+01    7.684630e-01
  3.088215e+01    7.815133e-01
  3.089802e+01    8.028020e-01
  3.091390e+01    7.774248e-01
  3.092977e+01    7.755960e-01
  3.094565e+01    7.689340e-01
  3.096153e+01    7.979497e-01
  3.097740e+01    8.005559e-01
  3.099328e+01    7.837496e-01
  3.100915e+01    7.803871e-01
  3.102503e+01    7.783509e-01
  3.104090e+01    7.870187e-01
  3.105678e+01    7.930019e-01
  3.107265e+01    7.657603e-01
  3.108853e+01    7.816573e-01
  3.110441e+01    7.918665e-01
  3.112028e+01    7.921941e-01
  3.113616e+01    7.857239e-01
  3.115203e+01    7.803578e-01
  3.116791e+01    7.970247e-01
  3.118378e+01    8.024753e-01
  3.119966e+01    7.892647e-01
  3.121553e+01    8.075395e-01
  3.123141e+01    7.894783e-01
  3.124729e+01    7.848201e-01
  3.126316e+01    7.663819e-01
  3.127904e+01    7.832254e-01
  3.129491e+01    7.857007e-01
  3.131079e+01    7.949077e-01
  3.132666e+01    8.041272e-01
  3.134254e+01    8.114511e-01
  3.135841e+01    7.875082e-01
  3.137429e+01    8.001360e-01
  3.139017e+01    7.981491e-01
  3.140604e+01    7.932941e-01
  3.142192e+01    8.146474e-01
  3.143779e+01    8.295628e-01
  3.145367e+01    8.324421e-01
  3.146954e+01    8.401021e-01
  3.148542e+01    8.250154e-01
  3.150129e+01    8.000201e-01
  3.151717e+01    8.202166e-01
  3.153305e+01    8.378249e-01
  3.154892e+01    8.384825e-01
  3.156480e+01    8.478904e-01
  3.158067e+01    8.697110e-01
  3.159655e+01    8.752211e-01
  3.161242e+01    9.139474e-01
  3.162830e+01    9.007355e-01
  3.164418e+01    9.046776e-01
  3.166005e+01    9.374332e-01
  3.167593e+01    9.570339e-01
  3.169180e+01    9.627606e-01
  3.170768e+01    9.987603e-01
  3.172355e+01    1.063637e+00
  3.173943e+01    1.138774e+00
  3.175530e+01    1.197201e+00
  3.177118e+01    1.256531e+00
  3.178706e+01    1.358921e+00
  3.180293e+01    1.432432e+00
  3.181881e+01    1.545190e+00
  3.183468e+01    1.700480e+00
  3.185056e+01    1.810644e+00
  3.186643e+01    1.937362e+00
  3.188231e+01    2.010037e+00
  3.189818e+01    2.052508e+00
  3.191406e+01    2.035392e+00
  3.192994e+01    1.987432e+00
  3.194581e+01    1.923525e+00
  3.196169e+01    1.804563e+00
  3.197756e+01    1.674504e+00
  3.199344e+01    1.513383e+00
  3.200931e+01    1.404187e+00
  3.202519e+01    1.291172e+00
  3.204106e+01    1.229647e+00
  3.205694e+01    1.169390e+00
  3.207282e+01    1.084993e+00
  3.208869e+01    1.015421e+00
  3.210457e+01    9.694296e-01
  3.212044e+01    9.582951e-01
  3.213632e+01    9.365582e-01
  3.215219e+01    9.408518e-01
  3.216807e+01    8.863822e-01
  3.218394e+01    8.925706e-01
  3.219982e+01    8.473118e-01
  3.221570e+01    8.400325e-01
  3.223157e+01    8.517352e-01
  3.224745e+01    8.435691e-01
  3.226332e+01    8.199013e-01
  3.227920e+01    8.182874e-01
  3.229507e+01    8.009833e-01
  3.231095e+01    7.884210e-01
  3.232682e+01    7.938139e-01
  3.234270e+01    8.046318e-01
  3.235858e+01    7.838421e-01
  3.237445e+01    7.907811e-01
  3.239033e+01    7.914038e-01
  3.240620e+01    7.842959e-01
  3.242208e+01    7.948443e-01
  3.243795e+01    8.089691e-01
  3.245383e+01    7.801302e-01
  3.246970e+01    7.891026e-01
  3.248558e+01    7.826123e-01
  3.250146e+01    7.952271e-01
  3.251733e+01    7.951811e-01
  3.253321e+01    7.883443e-01
  3.254908e+01    7.977678e-01
