# == pyFAI calibration ==
# Distance Sample to Detector: 0.3999999939076516 m
# PONI: 9.750e-02, 1.135e-01 m
# Rotations: -0.000175 0.000000 -0.000000 rad
# 
# == Fit2d calibration ==
# Distance Sample-beamCenter: 400.000 mm
# Center: x=1514.000, y=1300.000 pix
# Tilt: 0.010 deg  TiltPlanRot: 0.010 deg
# 
# Detector Detector	 Spline= None	 PixelSize= 7.500e-05, 7.500e-05 m
#    Detector has a mask: False 
#    Detector has a dark current: False 
#    detector has a flat field: False 
# 
# Wavelength: 6.888e-11 m
# Mask applied: user provided
# Dark current applied: False
# Flat field applied: False
# Polarization factor: 0.99
# Normalization factor: 1.0
# --> /home/myspot/data/2024_07_Rosario/Ru-CGO-ex/2024-07-27_003_Ru-CGO-ex_Reaction_dwell_000023_data_000080.dat
#       q_nm^-1             I 
  2.003187e-02    7.712225e-02
  3.590745e-02    1.358076e-01
  5.178302e-02    2.391698e-01
  6.765859e-02    2.653791e-01
  8.353417e-02    7.114579e-02
  9.940974e-02    5.270658e-02
  1.152853e-01    8.365966e-02
  1.311609e-01    1.038308e-01
  1.470365e-01    2.630685e-02
  1.629120e-01    0.000000e+00
  1.787876e-01    5.604738e-02
  1.946632e-01    5.049910e-02
  2.105388e-01    1.369759e-02
  2.264143e-01    1.655780e-02
  2.422899e-01    2.782770e-02
  2.581655e-01    2.346699e-02
  2.740411e-01    5.334022e-02
  2.899166e-01    6.195806e-02
  3.057922e-01    7.697734e-02
  3.216678e-01    5.242730e-02
  3.375433e-01    3.727910e-02
  3.534189e-01    1.656584e-02
  3.692945e-01    5.165090e-03
  3.851701e-01    3.114902e-02
  4.010456e-01    7.619189e-02
  4.169212e-01    3.623673e-02
  4.327968e-01    3.653324e-02
  4.486724e-01    4.132047e-02
  4.645479e-01    5.746244e-02
  4.804235e-01    5.145659e-02
  4.962991e-01    6.225340e-02
  5.121747e-01    5.512046e-02
  5.280502e-01    1.522854e-02
  5.439258e-01    3.197243e-02
  5.598014e-01    4.926692e-02
  5.756770e-01    4.777022e-02
  5.915525e-01    5.620526e-02
  6.074281e-01    7.386450e-02
  6.233037e-01    3.666659e-02
  6.391793e-01    5.730205e-02
  6.550548e-01    6.447317e-02
  6.709304e-01    3.768070e-02
  6.868060e-01    2.851461e-02
  7.026815e-01    4.956722e-02
  7.185571e-01    3.454433e-02
  7.344327e-01    2.882794e-02
  7.503083e-01    5.565390e-02
  7.661838e-01    8.207594e-02
  7.820594e-01    8.386055e-02
  7.979350e-01    1.424786e-01
  8.138106e-01    2.780239e-01
  8.296861e-01    3.585428e-01
  8.455617e-01    4.471002e-01
  8.614373e-01    4.880826e-01
  8.773129e-01    4.646231e-01
  8.931884e-01    5.198097e-01
  9.090640e-01    5.961680e-01
  9.249396e-01    7.336284e-01
  9.408152e-01    8.973619e-01
  9.566907e-01    1.004620e+00
  9.725663e-01    1.073207e+00
  9.884419e-01    9.816602e-01
  1.004317e+00    1.089621e+00
  1.020193e+00    1.308503e+00
  1.036069e+00    1.418929e+00
  1.051944e+00    1.470647e+00
  1.067820e+00    1.436075e+00
  1.083695e+00    1.578493e+00
  1.099571e+00    1.560234e+00
  1.115446e+00    1.587404e+00
  1.131322e+00    1.586182e+00
  1.147198e+00    1.541948e+00
  1.163073e+00    1.631794e+00
  1.178949e+00    1.617204e+00
  1.194824e+00    1.791172e+00
  1.210700e+00    2.027635e+00
  1.226575e+00    2.222981e+00
  1.242451e+00    2.357568e+00
  1.258327e+00    2.468194e+00
  1.274202e+00    2.547112e+00
  1.290078e+00    2.703489e+00
  1.305953e+00    2.716775e+00
  1.321829e+00    2.770901e+00
  1.337705e+00    2.748071e+00
  1.353580e+00    2.855991e+00
  1.369456e+00    2.767509e+00
  1.385331e+00    2.835445e+00
  1.401207e+00    2.971251e+00
  1.417082e+00    2.901191e+00
  1.432958e+00    2.941716e+00
  1.448834e+00    2.979305e+00
  1.464709e+00    3.004194e+00
  1.480585e+00    2.998378e+00
  1.496460e+00    3.026481e+00
  1.512336e+00    3.184041e+00
  1.528211e+00    3.272810e+00
  1.544087e+00    3.277988e+00
  1.559963e+00    3.201812e+00
  1.575838e+00    3.110351e+00
  1.591714e+00    3.281789e+00
  1.607589e+00    3.172693e+00
  1.623465e+00    3.192185e+00
  1.639340e+00    3.241334e+00
  1.655216e+00    3.367745e+00
  1.671092e+00    3.239768e+00
  1.686967e+00    3.142162e+00
  1.702843e+00    3.249985e+00
  1.718718e+00    3.138651e+00
  1.734594e+00    3.028022e+00
  1.750469e+00    3.141016e+00
  1.766345e+00    3.244219e+00
  1.782221e+00    3.165413e+00
  1.798096e+00    3.154210e+00
  1.813972e+00    3.186154e+00
  1.829847e+00    3.240919e+00
  1.845723e+00    3.052091e+00
  1.861598e+00    3.135317e+00
  1.877474e+00    3.221754e+00
  1.893350e+00    3.052694e+00
  1.909225e+00    2.993072e+00
  1.925101e+00    3.072521e+00
  1.940976e+00    3.134542e+00
  1.956852e+00    3.123048e+00
  1.972727e+00    3.070655e+00
  1.988603e+00    3.134336e+00
  2.004479e+00    3.063083e+00
  2.020354e+00    3.148140e+00
  2.036230e+00    3.184115e+00
  2.052105e+00    3.161717e+00
  2.067981e+00    3.151800e+00
  2.083856e+00    3.131812e+00
  2.099732e+00    3.129813e+00
  2.115608e+00    3.101856e+00
  2.131483e+00    3.121210e+00
  2.147359e+00    3.228793e+00
  2.163234e+00    3.117131e+00
  2.179110e+00    3.178564e+00
  2.194985e+00    3.191628e+00
  2.210861e+00    3.125376e+00
  2.226737e+00    3.025754e+00
  2.242612e+00    3.004401e+00
  2.258488e+00    3.117826e+00
  2.274363e+00    3.075362e+00
  2.290239e+00    3.146819e+00
  2.306115e+00    3.177639e+00
  2.321990e+00    3.116091e+00
  2.337866e+00    3.081249e+00
  2.353741e+00    3.138414e+00
  2.369617e+00    3.214981e+00
  2.385492e+00    3.180106e+00
  2.401368e+00    3.160167e+00
  2.417244e+00    3.138128e+00
  2.433119e+00    3.167888e+00
  2.448995e+00    3.157595e+00
  2.464870e+00    3.199718e+00
  2.480746e+00    3.193579e+00
  2.496621e+00    3.312932e+00
  2.512497e+00    3.338374e+00
  2.528373e+00    3.275282e+00
  2.544248e+00    3.227148e+00
  2.560124e+00    3.168796e+00
  2.575999e+00    3.266565e+00
  2.591875e+00    3.255249e+00
  2.607750e+00    3.284173e+00
  2.623626e+00    3.327425e+00
  2.639502e+00    3.271807e+00
  2.655377e+00    3.217488e+00
  2.671253e+00    3.158913e+00
  2.687128e+00    3.153927e+00
  2.703004e+00    3.296485e+00
  2.718879e+00    3.376024e+00
  2.734755e+00    3.206159e+00
  2.750631e+00    3.256084e+00
  2.766506e+00    3.282116e+00
  2.782382e+00    3.244415e+00
  2.798257e+00    3.274636e+00
  2.814133e+00    3.275128e+00
  2.830008e+00    3.245162e+00
  2.845884e+00    3.334402e+00
  2.861760e+00    3.435873e+00
  2.877635e+00    3.285106e+00
  2.893511e+00    3.276803e+00
  2.909386e+00    3.381076e+00
  2.925262e+00    3.284018e+00
  2.941137e+00    3.263487e+00
  2.957013e+00    3.379466e+00
  2.972889e+00    3.355503e+00
  2.988764e+00    3.227891e+00
  3.004640e+00    3.345561e+00
  3.020515e+00    3.393765e+00
  3.036391e+00    3.381505e+00
  3.052266e+00    3.399500e+00
  3.068142e+00    3.390926e+00
  3.084018e+00    3.424145e+00
  3.099893e+00    3.359617e+00
  3.115769e+00    3.437041e+00
  3.131644e+00    3.485497e+00
  3.147520e+00    3.376956e+00
  3.163395e+00    3.448637e+00
  3.179271e+00    3.383233e+00
  3.195147e+00    3.267977e+00
  3.211022e+00    3.271873e+00
  3.226898e+00    3.414614e+00
  3.242773e+00    3.439465e+00
  3.258649e+00    3.471981e+00
  3.274525e+00    3.426593e+00
  3.290400e+00    3.456919e+00
  3.306276e+00    3.358036e+00
  3.322151e+00    3.403822e+00
  3.338027e+00    3.416049e+00
  3.353902e+00    3.399870e+00
  3.369778e+00    3.351147e+00
  3.385654e+00    3.345642e+00
  3.401529e+00    3.394894e+00
  3.417405e+00    3.476126e+00
  3.433280e+00    3.420989e+00
  3.449156e+00    3.461238e+00
  3.465031e+00    3.416781e+00
  3.480907e+00    3.482528e+00
  3.496783e+00    3.450972e+00
  3.512658e+00    3.553755e+00
  3.528534e+00    3.547585e+00
  3.544409e+00    3.481879e+00
  3.560285e+00    3.450618e+00
  3.576160e+00    3.441906e+00
  3.592036e+00    3.499292e+00
  3.607912e+00    3.439341e+00
  3.623787e+00    3.383883e+00
  3.639663e+00    3.364707e+00
  3.655538e+00    3.471602e+00
  3.671414e+00    3.411411e+00
  3.687289e+00    3.425651e+00
  3.703165e+00    3.517934e+00
  3.719041e+00    3.487965e+00
  3.734916e+00    3.580220e+00
  3.750792e+00    3.504943e+00
  3.766667e+00    3.523055e+00
  3.782543e+00    3.521092e+00
  3.798418e+00    3.470710e+00
  3.814294e+00    3.496181e+00
  3.830170e+00    3.477248e+00
  3.846045e+00    3.466063e+00
  3.861921e+00    3.451817e+00
  3.877796e+00    3.498385e+00
  3.893672e+00    3.473773e+00
  3.909547e+00    3.503108e+00
  3.925423e+00    3.547096e+00
  3.941299e+00    3.552799e+00
  3.957174e+00    3.644035e+00
  3.973050e+00    3.559090e+00
  3.988925e+00    3.561001e+00
  4.004801e+00    3.554413e+00
  4.020676e+00    3.605679e+00
  4.036552e+00    3.520280e+00
  4.052428e+00    3.547183e+00
  4.068303e+00    3.545181e+00
  4.084179e+00    3.526075e+00
  4.100054e+00    3.505577e+00
  4.115930e+00    3.577037e+00
  4.131806e+00    3.649919e+00
  4.147681e+00    3.642107e+00
  4.163557e+00    3.584222e+00
  4.179432e+00    3.602658e+00
  4.195308e+00    3.546739e+00
  4.211183e+00    3.534100e+00
  4.227059e+00    3.576331e+00
  4.242935e+00    3.573788e+00
  4.258810e+00    3.613011e+00
  4.274686e+00    3.628375e+00
  4.290561e+00    3.634956e+00
  4.306437e+00    3.542412e+00
  4.322312e+00    3.586587e+00
  4.338188e+00    3.560817e+00
  4.354064e+00    3.561987e+00
  4.369939e+00    3.578813e+00
  4.385815e+00    3.563136e+00
  4.401690e+00    3.556070e+00
  4.417566e+00    3.576539e+00
  4.433441e+00    3.611590e+00
  4.449317e+00    3.600368e+00
  4.465193e+00    3.608559e+00
  4.481068e+00    3.585227e+00
  4.496944e+00    3.623605e+00
  4.512819e+00    3.735100e+00
  4.528695e+00    3.666615e+00
  4.544570e+00    3.614651e+00
  4.560446e+00    3.576913e+00
  4.576322e+00    3.556185e+00
  4.592197e+00    3.608531e+00
  4.608073e+00    3.618073e+00
  4.623948e+00    3.624187e+00
  4.639824e+00    3.583685e+00
  4.655699e+00    3.695307e+00
  4.671575e+00    3.682975e+00
  4.687451e+00    3.708325e+00
  4.703326e+00    3.629265e+00
  4.719202e+00    3.686330e+00
  4.735077e+00    3.718657e+00
  4.750953e+00    3.615349e+00
  4.766828e+00    3.611274e+00
  4.782704e+00    3.550749e+00
  4.798580e+00    3.616523e+00
  4.814455e+00    3.646991e+00
  4.830331e+00    3.576540e+00
  4.846206e+00    3.685585e+00
  4.862082e+00    3.680846e+00
  4.877957e+00    3.600410e+00
  4.893833e+00    3.538231e+00
  4.909709e+00    3.610049e+00
  4.925584e+00    3.743817e+00
  4.941460e+00    3.625937e+00
  4.957335e+00    3.609928e+00
  4.973211e+00    3.635575e+00
  4.989086e+00    3.654070e+00
  5.004962e+00    3.673372e+00
  5.020838e+00    3.711064e+00
  5.036713e+00    3.703264e+00
  5.052589e+00    3.646288e+00
  5.068464e+00    3.648664e+00
  5.084340e+00    3.670821e+00
  5.100216e+00    3.630327e+00
  5.116091e+00    3.601638e+00
  5.131967e+00    3.713140e+00
  5.147842e+00    3.701860e+00
  5.163718e+00    3.549673e+00
  5.179593e+00    3.732791e+00
  5.195469e+00    3.717288e+00
  5.211345e+00    3.741268e+00
  5.227220e+00    3.700595e+00
  5.243096e+00    3.696634e+00
  5.258971e+00    3.613632e+00
  5.274847e+00    3.616450e+00
  5.290722e+00    3.658784e+00
  5.306598e+00    3.719517e+00
  5.322474e+00    3.732014e+00
  5.338349e+00    3.730946e+00
  5.354225e+00    3.697090e+00
  5.370100e+00    3.674864e+00
  5.385976e+00    3.742970e+00
  5.401851e+00    3.686574e+00
  5.417727e+00    3.621177e+00
  5.433603e+00    3.615075e+00
  5.449478e+00    3.575186e+00
  5.465354e+00    3.660101e+00
  5.481229e+00    3.618601e+00
  5.497105e+00    3.492025e+00
  5.512980e+00    3.508205e+00
  5.528856e+00    3.587401e+00
  5.544732e+00    3.636796e+00
  5.560607e+00    3.571704e+00
  5.576483e+00    3.613616e+00
  5.592358e+00    3.654202e+00
  5.608234e+00    3.690694e+00
  5.624109e+00    3.644372e+00
  5.639985e+00    3.585345e+00
  5.655861e+00    3.560434e+00
  5.671736e+00    3.562665e+00
  5.687612e+00    3.584718e+00
  5.703487e+00    3.633144e+00
  5.719363e+00    3.655396e+00
  5.735238e+00    3.545215e+00
  5.751114e+00    3.574750e+00
  5.766990e+00    3.567342e+00
  5.782865e+00    3.606072e+00
  5.798741e+00    3.561225e+00
  5.814616e+00    3.536998e+00
  5.830492e+00    3.558110e+00
  5.846367e+00    3.588253e+00
  5.862243e+00    3.686948e+00
  5.878119e+00    3.593138e+00
  5.893994e+00    3.593619e+00
  5.909870e+00    3.539048e+00
  5.925745e+00    3.518250e+00
  5.941621e+00    3.483482e+00
  5.957497e+00    3.445753e+00
  5.973372e+00    3.465167e+00
  5.989248e+00    3.551395e+00
  6.005123e+00    3.474494e+00
  6.020999e+00    3.473145e+00
  6.036874e+00    3.605686e+00
  6.052750e+00    3.645896e+00
  6.068626e+00    3.638084e+00
  6.084501e+00    3.676424e+00
  6.100377e+00    3.657449e+00
  6.116252e+00    3.692414e+00
  6.132128e+00    3.662412e+00
  6.148003e+00    3.624074e+00
  6.163879e+00    3.642004e+00
  6.179755e+00    3.543690e+00
  6.195630e+00    3.536083e+00
  6.211506e+00    3.639720e+00
  6.227381e+00    3.558157e+00
  6.243257e+00    3.526962e+00
  6.259132e+00    3.489712e+00
  6.275008e+00    3.470416e+00
  6.290884e+00    3.655614e+00
  6.306759e+00    3.599978e+00
  6.322635e+00    3.590264e+00
  6.338510e+00    3.641688e+00
  6.354386e+00    3.560994e+00
  6.370261e+00    3.507373e+00
  6.386137e+00    3.575658e+00
  6.402013e+00    3.569656e+00
  6.417888e+00    3.579531e+00
  6.433764e+00    3.592917e+00
  6.449639e+00    3.604781e+00
  6.465515e+00    3.656173e+00
  6.481390e+00    3.648865e+00
  6.497266e+00    3.597508e+00
  6.513142e+00    3.541253e+00
  6.529017e+00    3.602877e+00
  6.544893e+00    3.536108e+00
  6.560768e+00    3.557522e+00
  6.576644e+00    3.621236e+00
  6.592519e+00    3.579870e+00
  6.608395e+00    3.524081e+00
  6.624271e+00    3.576609e+00
  6.640146e+00    3.631373e+00
  6.656022e+00    3.563403e+00
  6.671897e+00    3.538755e+00
  6.687773e+00    3.560192e+00
  6.703648e+00    3.607467e+00
  6.719524e+00    3.546753e+00
  6.735400e+00    3.620858e+00
  6.751275e+00    3.586587e+00
  6.767151e+00    3.601789e+00
  6.783026e+00    3.520282e+00
  6.798902e+00    3.511624e+00
  6.814777e+00    3.569757e+00
  6.830653e+00    3.571748e+00
  6.846529e+00    3.581414e+00
  6.862404e+00    3.497803e+00
  6.878280e+00    3.442302e+00
  6.894155e+00    3.516849e+00
  6.910031e+00    3.542515e+00
  6.925907e+00    3.560786e+00
  6.941782e+00    3.581068e+00
  6.957658e+00    3.524023e+00
  6.973533e+00    3.535569e+00
  6.989409e+00    3.593436e+00
  7.005284e+00    3.587995e+00
  7.021160e+00    3.508754e+00
  7.037036e+00    3.536653e+00
  7.052911e+00    3.579872e+00
  7.068787e+00    3.553473e+00
  7.084662e+00    3.549882e+00
  7.100538e+00    3.553471e+00
  7.116413e+00    3.656143e+00
  7.132289e+00    3.632075e+00
  7.148165e+00    3.533865e+00
  7.164040e+00    3.537585e+00
  7.179916e+00    3.530662e+00
  7.195791e+00    3.518327e+00
  7.211667e+00    3.447041e+00
  7.227542e+00    3.524548e+00
  7.243418e+00    3.581241e+00
  7.259294e+00    3.561264e+00
  7.275169e+00    3.521600e+00
  7.291045e+00    3.486771e+00
  7.306920e+00    3.495035e+00
  7.322796e+00    3.454455e+00
  7.338671e+00    3.526842e+00
  7.354547e+00    3.564171e+00
  7.370423e+00    3.505151e+00
  7.386298e+00    3.416451e+00
  7.402174e+00    3.443813e+00
  7.418049e+00    3.534971e+00
  7.433925e+00    3.565000e+00
  7.449800e+00    3.569890e+00
  7.465676e+00    3.526246e+00
  7.481552e+00    3.547194e+00
  7.497427e+00    3.525858e+00
  7.513303e+00    3.469990e+00
  7.529178e+00    3.502579e+00
  7.545054e+00    3.487274e+00
  7.560929e+00    3.478335e+00
  7.576805e+00    3.462438e+00
  7.592681e+00    3.480282e+00
  7.608556e+00    3.528058e+00
  7.624432e+00    3.500174e+00
  7.640307e+00    3.477056e+00
  7.656183e+00    3.442815e+00
  7.672058e+00    3.465989e+00
  7.687934e+00    3.476343e+00
  7.703810e+00    3.457776e+00
  7.719685e+00    3.501841e+00
  7.735561e+00    3.539314e+00
  7.751436e+00    3.535625e+00
  7.767312e+00    3.472702e+00
  7.783187e+00    3.438584e+00
  7.799063e+00    3.415955e+00
  7.814939e+00    3.472750e+00
  7.830814e+00    3.436169e+00
  7.846690e+00    3.433355e+00
  7.862565e+00    3.465466e+00
  7.878441e+00    3.442456e+00
  7.894317e+00    3.376338e+00
  7.910192e+00    3.455225e+00
  7.926068e+00    3.383560e+00
  7.941943e+00    3.428326e+00
  7.957819e+00    3.393772e+00
  7.973694e+00    3.410165e+00
  7.989570e+00    3.393389e+00
  8.005446e+00    3.417920e+00
  8.021321e+00    3.406240e+00
  8.037197e+00    3.457244e+00
  8.053072e+00    3.424154e+00
  8.068948e+00    3.366482e+00
  8.084823e+00    3.424637e+00
  8.100699e+00    3.432550e+00
  8.116575e+00    3.492373e+00
  8.132450e+00    3.482129e+00
  8.148326e+00    3.378821e+00
  8.164201e+00    3.426994e+00
  8.180077e+00    3.563416e+00
  8.195952e+00    3.531951e+00
  8.211828e+00    3.510319e+00
  8.227704e+00    3.522317e+00
  8.243579e+00    3.490574e+00
  8.259455e+00    3.491519e+00
  8.275330e+00    3.407218e+00
  8.291206e+00    3.423126e+00
  8.307081e+00    3.429192e+00
  8.322957e+00    3.393403e+00
  8.338833e+00    3.387948e+00
  8.354708e+00    3.413147e+00
  8.370584e+00    3.401394e+00
  8.386459e+00    3.393476e+00
  8.402335e+00    3.329563e+00
  8.418210e+00    3.345643e+00
  8.434086e+00    3.371152e+00
  8.449962e+00    3.338781e+00
  8.465837e+00    3.360374e+00
  8.481713e+00    3.399879e+00
  8.497588e+00    3.394357e+00
  8.513464e+00    3.409508e+00
  8.529339e+00    3.322387e+00
  8.545215e+00    3.368492e+00
  8.561091e+00    3.426267e+00
  8.576966e+00    3.368499e+00
  8.592842e+00    3.376956e+00
  8.608717e+00    3.382390e+00
  8.624593e+00    3.343412e+00
  8.640468e+00    3.301154e+00
  8.656344e+00    3.407648e+00
  8.672220e+00    3.360044e+00
  8.688095e+00    3.404170e+00
  8.703971e+00    3.370044e+00
  8.719846e+00    3.298905e+00
  8.735722e+00    3.354889e+00
  8.751598e+00    3.327413e+00
  8.767473e+00    3.353239e+00
  8.783349e+00    3.315210e+00
  8.799224e+00    3.312772e+00
  8.815100e+00    3.335998e+00
  8.830975e+00    3.368919e+00
  8.846851e+00    3.351957e+00
  8.862727e+00    3.342783e+00
  8.878602e+00    3.339558e+00
  8.894478e+00    3.305958e+00
  8.910353e+00    3.280652e+00
  8.926229e+00    3.313970e+00
  8.942104e+00    3.330901e+00
  8.957980e+00    3.342191e+00
  8.973856e+00    3.307987e+00
  8.989731e+00    3.295897e+00
  9.005607e+00    3.292419e+00
  9.021482e+00    3.316542e+00
  9.037358e+00    3.322086e+00
  9.053233e+00    3.299347e+00
  9.069109e+00    3.297327e+00
  9.084985e+00    3.344866e+00
  9.100860e+00    3.294921e+00
  9.116736e+00    3.240301e+00
  9.132611e+00    3.289437e+00
  9.148487e+00    3.328207e+00
  9.164362e+00    3.253418e+00
  9.180238e+00    3.249693e+00
  9.196114e+00    3.273208e+00
  9.211989e+00    3.210642e+00
  9.227865e+00    3.195706e+00
  9.243740e+00    3.263149e+00
  9.259616e+00    3.219708e+00
  9.275491e+00    3.238411e+00
  9.291367e+00    3.213981e+00
  9.307243e+00    3.218979e+00
  9.323118e+00    3.283810e+00
  9.338994e+00    3.280651e+00
  9.354869e+00    3.240008e+00
  9.370745e+00    3.221539e+00
  9.386620e+00    3.258029e+00
  9.402496e+00    3.251902e+00
  9.418372e+00    3.187022e+00
  9.434247e+00    3.211864e+00
  9.450123e+00    3.289782e+00
  9.465998e+00    3.240888e+00
  9.481874e+00    3.170772e+00
  9.497749e+00    3.212173e+00
  9.513625e+00    3.267589e+00
  9.529501e+00    3.263729e+00
  9.545376e+00    3.223904e+00
  9.561252e+00    3.247496e+00
  9.577127e+00    3.233077e+00
  9.593003e+00    3.243610e+00
  9.608878e+00    3.217620e+00
  9.624754e+00    3.191284e+00
  9.640630e+00    3.260667e+00
  9.656505e+00    3.248264e+00
  9.672381e+00    3.233503e+00
  9.688256e+00    3.208990e+00
  9.704132e+00    3.200950e+00
  9.720008e+00    3.300913e+00
  9.735883e+00    3.296977e+00
  9.751759e+00    3.216571e+00
  9.767634e+00    3.222439e+00
  9.783510e+00    3.197800e+00
  9.799385e+00    3.150019e+00
  9.815261e+00    3.168736e+00
  9.831137e+00    3.121880e+00
  9.847012e+00    3.179705e+00
  9.862888e+00    3.144607e+00
  9.878763e+00    3.195713e+00
  9.894639e+00    3.187585e+00
  9.910514e+00    3.175320e+00
  9.926390e+00    3.234869e+00
  9.942266e+00    3.192635e+00
  9.958141e+00    3.143553e+00
  9.974017e+00    3.114383e+00
  9.989892e+00    3.115434e+00
  1.000577e+01    3.099115e+00
  1.002164e+01    3.110397e+00
  1.003752e+01    3.070478e+00
  1.005339e+01    3.127957e+00
  1.006927e+01    3.101274e+00
  1.008515e+01    3.125632e+00
  1.010102e+01    3.140353e+00
  1.011690e+01    3.087957e+00
  1.013277e+01    3.066658e+00
  1.014865e+01    3.065951e+00
  1.016452e+01    3.068165e+00
  1.018040e+01    3.083062e+00
  1.019627e+01    3.098996e+00
  1.021215e+01    3.052531e+00
  1.022803e+01    3.077807e+00
  1.024390e+01    3.039674e+00
  1.025978e+01    3.101267e+00
  1.027565e+01    3.166576e+00
  1.029153e+01    3.082050e+00
  1.030740e+01    3.057351e+00
  1.032328e+01    3.042353e+00
  1.033915e+01    3.075325e+00
  1.035503e+01    3.078723e+00
  1.037091e+01    3.024905e+00
  1.038678e+01    3.041362e+00
  1.040266e+01    3.036578e+00
  1.041853e+01    3.098207e+00
  1.043441e+01    3.039945e+00
  1.045028e+01    3.031514e+00
  1.046616e+01    3.054365e+00
  1.048204e+01    3.014578e+00
  1.049791e+01    3.057491e+00
  1.051379e+01    3.102844e+00
  1.052966e+01    3.028412e+00
  1.054554e+01    3.009208e+00
  1.056141e+01    3.001774e+00
  1.057729e+01    3.012979e+00
  1.059316e+01    2.975785e+00
  1.060904e+01    2.982791e+00
  1.062492e+01    2.987755e+00
  1.064079e+01    2.991733e+00
  1.065667e+01    2.982445e+00
  1.067254e+01    3.012453e+00
  1.068842e+01    2.993988e+00
  1.070429e+01    2.986619e+00
  1.072017e+01    2.992314e+00
  1.073604e+01    2.986190e+00
  1.075192e+01    2.952963e+00
  1.076780e+01    2.921718e+00
  1.078367e+01    2.922625e+00
  1.079955e+01    2.961732e+00
  1.081542e+01    2.933108e+00
  1.083130e+01    2.857970e+00
  1.084717e+01    2.901308e+00
  1.086305e+01    2.947105e+00
  1.087892e+01    2.954037e+00
  1.089480e+01    2.947599e+00
  1.091068e+01    2.946208e+00
  1.092655e+01    2.969869e+00
  1.094243e+01    2.897450e+00
  1.095830e+01    2.897001e+00
  1.097418e+01    2.917202e+00
  1.099005e+01    2.955358e+00
  1.100593e+01    2.953493e+00
  1.102180e+01    2.951401e+00
  1.103768e+01    2.941015e+00
  1.105356e+01    2.894870e+00
  1.106943e+01    2.908631e+00
  1.108531e+01    2.897543e+00
  1.110118e+01    2.944319e+00
  1.111706e+01    2.880259e+00
  1.113293e+01    2.875865e+00
  1.114881e+01    2.788434e+00
  1.116468e+01    2.872695e+00
  1.118056e+01    2.931616e+00
  1.119644e+01    2.892685e+00
  1.121231e+01    2.869109e+00
  1.122819e+01    2.875611e+00
  1.124406e+01    2.839646e+00
  1.125994e+01    2.869197e+00
  1.127581e+01    2.833839e+00
  1.129169e+01    2.840871e+00
  1.130756e+01    2.878055e+00
  1.132344e+01    2.883139e+00
  1.133932e+01    2.886137e+00
  1.135519e+01    2.843571e+00
  1.137107e+01    2.832036e+00
  1.138694e+01    2.812660e+00
  1.140282e+01    2.819129e+00
  1.141869e+01    2.819363e+00
  1.143457e+01    2.845556e+00
  1.145045e+01    2.802994e+00
  1.146632e+01    2.829627e+00
  1.148220e+01    2.796285e+00
  1.149807e+01    2.793590e+00
  1.151395e+01    2.808440e+00
  1.152982e+01    2.818324e+00
  1.154570e+01    2.810439e+00
  1.156157e+01    2.794344e+00
  1.157745e+01    2.765780e+00
  1.159333e+01    2.746743e+00
  1.160920e+01    2.763396e+00
  1.162508e+01    2.801990e+00
  1.164095e+01    2.785241e+00
  1.165683e+01    2.729483e+00
  1.167270e+01    2.773689e+00
  1.168858e+01    2.830184e+00
  1.170445e+01    2.808979e+00
  1.172033e+01    2.745099e+00
  1.173621e+01    2.751992e+00
  1.175208e+01    2.785334e+00
  1.176796e+01    2.747575e+00
  1.178383e+01    2.710047e+00
  1.179971e+01    2.749060e+00
  1.181558e+01    2.731282e+00
  1.183146e+01    2.720700e+00
  1.184733e+01    2.770251e+00
  1.186321e+01    2.761003e+00
  1.187909e+01    2.772485e+00
  1.189496e+01    2.712625e+00
  1.191084e+01    2.710216e+00
  1.192671e+01    2.739097e+00
  1.194259e+01    2.748322e+00
  1.195846e+01    2.703514e+00
  1.197434e+01    2.649475e+00
  1.199021e+01    2.660556e+00
  1.200609e+01    2.671942e+00
  1.202197e+01    2.718389e+00
  1.203784e+01    2.781757e+00
  1.205372e+01    2.755471e+00
  1.206959e+01    2.724201e+00
  1.208547e+01    2.698035e+00
  1.210134e+01    2.686234e+00
  1.211722e+01    2.699137e+00
  1.213309e+01    2.697561e+00
  1.214897e+01    2.720199e+00
  1.216485e+01    2.718624e+00
  1.218072e+01    2.724271e+00
  1.219660e+01    2.655050e+00
  1.221247e+01    2.711600e+00
  1.222835e+01    2.751275e+00
  1.224422e+01    2.695761e+00
  1.226010e+01    2.691500e+00
  1.227597e+01    2.704716e+00
  1.229185e+01    2.701863e+00
  1.230773e+01    2.691378e+00
  1.232360e+01    2.721119e+00
  1.233948e+01    2.723938e+00
  1.235535e+01    2.707273e+00
  1.237123e+01    2.712976e+00
  1.238710e+01    2.736017e+00
  1.240298e+01    2.701199e+00
  1.241886e+01    2.702118e+00
  1.243473e+01    2.698476e+00
  1.245061e+01    2.730012e+00
  1.246648e+01    2.690468e+00
  1.248236e+01    2.716727e+00
  1.249823e+01    2.698272e+00
  1.251411e+01    2.723353e+00
  1.252998e+01    2.744496e+00
  1.254586e+01    2.718958e+00
  1.256174e+01    2.731696e+00
  1.257761e+01    2.722517e+00
  1.259349e+01    2.770870e+00
  1.260936e+01    2.828256e+00
  1.262524e+01    2.792558e+00
  1.264111e+01    2.777879e+00
  1.265699e+01    2.780978e+00
  1.267286e+01    2.840346e+00
  1.268874e+01    2.856840e+00
  1.270462e+01    2.820160e+00
  1.272049e+01    2.876540e+00
  1.273637e+01    2.905994e+00
  1.275224e+01    2.901882e+00
  1.276812e+01    2.945657e+00
  1.278399e+01    2.993567e+00
  1.279987e+01    3.070334e+00
  1.281574e+01    3.072628e+00
  1.283162e+01    3.150099e+00
  1.284750e+01    3.248770e+00
  1.286337e+01    3.347744e+00
  1.287925e+01    3.412576e+00
  1.289512e+01    3.472333e+00
  1.291100e+01    3.706025e+00
  1.292687e+01    3.883805e+00
  1.294275e+01    4.085864e+00
  1.295862e+01    4.427951e+00
  1.297450e+01    4.791384e+00
  1.299038e+01    5.293014e+00
  1.300625e+01    5.911400e+00
  1.302213e+01    6.785789e+00
  1.303800e+01    7.811225e+00
  1.305388e+01    8.977626e+00
  1.306975e+01    1.031319e+01
  1.308563e+01    1.160916e+01
  1.310150e+01    1.283663e+01
  1.311738e+01    1.392288e+01
  1.313326e+01    1.492858e+01
  1.314913e+01    1.586570e+01
  1.316501e+01    1.648432e+01
  1.318088e+01    1.656225e+01
  1.319676e+01    1.588730e+01
  1.321263e+01    1.448248e+01
  1.322851e+01    1.265842e+01
  1.324438e+01    1.081862e+01
  1.326026e+01    9.138697e+00
  1.327614e+01    7.919634e+00
  1.329201e+01    6.809293e+00
  1.330789e+01    5.984277e+00
  1.332376e+01    5.334862e+00
  1.333964e+01    4.830819e+00
  1.335551e+01    4.490921e+00
  1.337139e+01    4.159689e+00
  1.338727e+01    3.883456e+00
  1.340314e+01    3.661234e+00
  1.341902e+01    3.538563e+00
  1.343489e+01    3.414941e+00
  1.345077e+01    3.259331e+00
  1.346664e+01    3.143866e+00
  1.348252e+01    3.044802e+00
  1.349839e+01    2.999813e+00
  1.351427e+01    2.957937e+00
  1.353015e+01    2.871080e+00
  1.354602e+01    2.818362e+00
  1.356190e+01    2.764009e+00
  1.357777e+01    2.693611e+00
  1.359365e+01    2.707988e+00
  1.360952e+01    2.646158e+00
  1.362540e+01    2.648213e+00
  1.364127e+01    2.694107e+00
  1.365715e+01    2.637951e+00
  1.367303e+01    2.611387e+00
  1.368890e+01    2.560895e+00
  1.370478e+01    2.522904e+00
  1.372065e+01    2.533517e+00
  1.373653e+01    2.511105e+00
  1.375240e+01    2.494465e+00
  1.376828e+01    2.516636e+00
  1.378415e+01    2.551317e+00
  1.380003e+01    2.477319e+00
  1.381591e+01    2.458619e+00
  1.383178e+01    2.447893e+00
  1.384766e+01    2.497676e+00
  1.386353e+01    2.506340e+00
  1.387941e+01    2.463683e+00
  1.389528e+01    2.415805e+00
  1.391116e+01    2.440774e+00
  1.392703e+01    2.404106e+00
  1.394291e+01    2.410203e+00
  1.395879e+01    2.405499e+00
  1.397466e+01    2.377815e+00
  1.399054e+01    2.373381e+00
  1.400641e+01    2.364306e+00
  1.402229e+01    2.373250e+00
  1.403816e+01    2.347489e+00
  1.405404e+01    2.357916e+00
  1.406991e+01    2.395231e+00
  1.408579e+01    2.418711e+00
  1.410167e+01    2.373826e+00
  1.411754e+01    2.314294e+00
  1.413342e+01    2.344666e+00
  1.414929e+01    2.332631e+00
  1.416517e+01    2.303274e+00
  1.418104e+01    2.304142e+00
  1.419692e+01    2.277212e+00
  1.421279e+01    2.303125e+00
  1.422867e+01    2.279183e+00
  1.424455e+01    2.306521e+00
  1.426042e+01    2.298619e+00
  1.427630e+01    2.282663e+00
  1.429217e+01    2.265229e+00
  1.430805e+01    2.292661e+00
  1.432392e+01    2.304871e+00
  1.433980e+01    2.247107e+00
  1.435568e+01    2.276592e+00
  1.437155e+01    2.291331e+00
  1.438743e+01    2.294806e+00
  1.440330e+01    2.295109e+00
  1.441918e+01    2.251015e+00
  1.443505e+01    2.244468e+00
  1.445093e+01    2.215064e+00
  1.446680e+01    2.191724e+00
  1.448268e+01    2.192018e+00
  1.449856e+01    2.263514e+00
  1.451443e+01    2.286886e+00
  1.453031e+01    2.269662e+00
  1.454618e+01    2.251379e+00
  1.456206e+01    2.205834e+00
  1.457793e+01    2.224451e+00
  1.459381e+01    2.242189e+00
  1.460968e+01    2.215474e+00
  1.462556e+01    2.215014e+00
  1.464144e+01    2.185653e+00
  1.465731e+01    2.209999e+00
  1.467319e+01    2.251462e+00
  1.468906e+01    2.232647e+00
  1.470494e+01    2.180460e+00
  1.472081e+01    2.220702e+00
  1.473669e+01    2.208217e+00
  1.475256e+01    2.204523e+00
  1.476844e+01    2.200814e+00
  1.478432e+01    2.188151e+00
  1.480019e+01    2.187746e+00
  1.481607e+01    2.230320e+00
  1.483194e+01    2.255930e+00
  1.484782e+01    2.245957e+00
  1.486369e+01    2.205744e+00
  1.487957e+01    2.216302e+00
  1.489544e+01    2.268283e+00
  1.491132e+01    2.273663e+00
  1.492720e+01    2.281694e+00
  1.494307e+01    2.281750e+00
  1.495895e+01    2.387916e+00
  1.497482e+01    2.400308e+00
  1.499070e+01    2.370765e+00
  1.500657e+01    2.431138e+00
  1.502245e+01    2.482568e+00
  1.503832e+01    2.579353e+00
  1.505420e+01    2.678163e+00
  1.507008e+01    2.814649e+00
  1.508595e+01    2.997747e+00
  1.510183e+01    3.221186e+00
  1.511770e+01    3.524492e+00
  1.513358e+01    3.872079e+00
  1.514945e+01    4.190125e+00
  1.516533e+01    4.599829e+00
  1.518120e+01    4.963011e+00
  1.519708e+01    5.199996e+00
  1.521296e+01    5.455554e+00
  1.522883e+01    5.681161e+00
  1.524471e+01    5.767651e+00
  1.526058e+01    5.847854e+00
  1.527646e+01    5.834234e+00
  1.529233e+01    5.505996e+00
  1.530821e+01    5.150256e+00
  1.532409e+01    4.715273e+00
  1.533996e+01    4.213768e+00
  1.535584e+01    3.812386e+00
  1.537171e+01    3.492988e+00
  1.538759e+01    3.211167e+00
  1.540346e+01    3.010563e+00
  1.541934e+01    2.788105e+00
  1.543521e+01    2.620378e+00
  1.545109e+01    2.538929e+00
  1.546697e+01    2.428544e+00
  1.548284e+01    2.391566e+00
  1.549872e+01    2.353469e+00
  1.551459e+01    2.281744e+00
  1.553047e+01    2.199717e+00
  1.554634e+01    2.181226e+00
  1.556222e+01    2.176771e+00
  1.557809e+01    2.128796e+00
  1.559397e+01    2.119856e+00
  1.560985e+01    2.071192e+00
  1.562572e+01    2.099101e+00
  1.564160e+01    2.077197e+00
  1.565747e+01    2.032214e+00
  1.567335e+01    2.009377e+00
  1.568922e+01    2.054981e+00
  1.570510e+01    2.007368e+00
  1.572097e+01    1.963658e+00
  1.573685e+01    1.977751e+00
  1.575273e+01    1.959882e+00
  1.576860e+01    1.939366e+00
  1.578448e+01    1.943898e+00
  1.580035e+01    1.963286e+00
  1.581623e+01    1.932945e+00
  1.583210e+01    1.936493e+00
  1.584798e+01    1.942492e+00
  1.586385e+01    1.925008e+00
  1.587973e+01    1.938093e+00
  1.589561e+01    1.902672e+00
  1.591148e+01    1.907198e+00
  1.592736e+01    1.882123e+00
  1.594323e+01    1.878907e+00
  1.595911e+01    1.893036e+00
  1.597498e+01    1.872243e+00
  1.599086e+01    1.914604e+00
  1.600673e+01    1.885290e+00
  1.602261e+01    1.900919e+00
  1.603849e+01    1.912107e+00
  1.605436e+01    1.907979e+00
  1.607024e+01    1.879913e+00
  1.608611e+01    1.868237e+00
  1.610199e+01    1.848644e+00
  1.611786e+01    1.870455e+00
  1.613374e+01    1.875024e+00
  1.614961e+01    1.884643e+00
  1.616549e+01    1.827005e+00
  1.618137e+01    1.825205e+00
  1.619724e+01    1.851206e+00
  1.621312e+01    1.843237e+00
  1.622899e+01    1.773847e+00
  1.624487e+01    1.793912e+00
  1.626074e+01    1.796467e+00
  1.627662e+01    1.815607e+00
  1.629250e+01    1.824901e+00
  1.630837e+01    1.782848e+00
  1.632425e+01    1.774926e+00
  1.634012e+01    1.748317e+00
  1.635600e+01    1.749008e+00
  1.637187e+01    1.779578e+00
  1.638775e+01    1.777967e+00
  1.640362e+01    1.817725e+00
  1.641950e+01    1.791527e+00
  1.643538e+01    1.770970e+00
  1.645125e+01    1.772877e+00
  1.646713e+01    1.770200e+00
  1.648300e+01    1.759284e+00
  1.649888e+01    1.767114e+00
  1.651475e+01    1.767305e+00
  1.653063e+01    1.763493e+00
  1.654650e+01    1.766637e+00
  1.656238e+01    1.761229e+00
  1.657826e+01    1.757117e+00
  1.659413e+01    1.766436e+00
  1.661001e+01    1.757592e+00
  1.662588e+01    1.756544e+00
  1.664176e+01    1.751173e+00
  1.665763e+01    1.751271e+00
  1.667351e+01    1.752923e+00
  1.668938e+01    1.741625e+00
  1.670526e+01    1.729091e+00
  1.672114e+01    1.723249e+00
  1.673701e+01    1.758142e+00
  1.675289e+01    1.767526e+00
  1.676876e+01    1.756019e+00
  1.678464e+01    1.733121e+00
  1.680051e+01    1.717245e+00
  1.681639e+01    1.705547e+00
  1.683226e+01    1.681509e+00
  1.684814e+01    1.690956e+00
  1.686402e+01    1.689057e+00
  1.687989e+01    1.702543e+00
  1.689577e+01    1.702230e+00
  1.691164e+01    1.683924e+00
  1.692752e+01    1.674271e+00
  1.694339e+01    1.696179e+00
  1.695927e+01    1.671266e+00
  1.697514e+01    1.656300e+00
  1.699102e+01    1.679966e+00
  1.700690e+01    1.689472e+00
  1.702277e+01    1.655665e+00
  1.703865e+01    1.666731e+00
  1.705452e+01    1.687031e+00
  1.707040e+01    1.688231e+00
  1.708627e+01    1.644409e+00
  1.710215e+01    1.678439e+00
  1.711802e+01    1.648171e+00
  1.713390e+01    1.653957e+00
  1.714978e+01    1.652824e+00
  1.716565e+01    1.668735e+00
  1.718153e+01    1.661454e+00
  1.719740e+01    1.634983e+00
  1.721328e+01    1.622472e+00
  1.722915e+01    1.616835e+00
  1.724503e+01    1.609192e+00
  1.726091e+01    1.619132e+00
  1.727678e+01    1.647122e+00
  1.729266e+01    1.627771e+00
  1.730853e+01    1.600485e+00
  1.732441e+01    1.605620e+00
  1.734028e+01    1.625190e+00
  1.735616e+01    1.598237e+00
  1.737203e+01    1.592486e+00
  1.738791e+01    1.601699e+00
  1.740379e+01    1.603139e+00
  1.741966e+01    1.607542e+00
  1.743554e+01    1.593697e+00
  1.745141e+01    1.604748e+00
  1.746729e+01    1.596376e+00
  1.748316e+01    1.579255e+00
  1.749904e+01    1.583499e+00
  1.751491e+01    1.582696e+00
  1.753079e+01    1.587980e+00
  1.754667e+01    1.606542e+00
  1.756254e+01    1.618806e+00
  1.757842e+01    1.605592e+00
  1.759429e+01    1.583870e+00
  1.761017e+01    1.584587e+00
  1.762604e+01    1.582801e+00
  1.764192e+01    1.582703e+00
  1.765779e+01    1.574651e+00
  1.767367e+01    1.571177e+00
  1.768955e+01    1.566222e+00
  1.770542e+01    1.557635e+00
  1.772130e+01    1.550701e+00
  1.773717e+01    1.593850e+00
  1.775305e+01    1.559204e+00
  1.776892e+01    1.557183e+00
  1.778480e+01    1.550227e+00
  1.780067e+01    1.536717e+00
  1.781655e+01    1.555601e+00
  1.783243e+01    1.499641e+00
  1.784830e+01    1.516650e+00
  1.786418e+01    1.515574e+00
  1.788005e+01    1.493137e+00
  1.789593e+01    1.508171e+00
  1.791180e+01    1.522825e+00
  1.792768e+01    1.509637e+00
  1.794355e+01    1.532628e+00
  1.795943e+01    1.547571e+00
  1.797531e+01    1.522422e+00
  1.799118e+01    1.477653e+00
  1.800706e+01    1.494871e+00
  1.802293e+01    1.490601e+00
  1.803881e+01    1.499652e+00
  1.805468e+01    1.511861e+00
  1.807056e+01    1.504402e+00
  1.808643e+01    1.500904e+00
  1.810231e+01    1.513611e+00
  1.811819e+01    1.487601e+00
  1.813406e+01    1.505371e+00
  1.814994e+01    1.478180e+00
  1.816581e+01    1.492934e+00
  1.818169e+01    1.508001e+00
  1.819756e+01    1.483917e+00
  1.821344e+01    1.483759e+00
  1.822932e+01    1.506340e+00
  1.824519e+01    1.487384e+00
  1.826107e+01    1.449936e+00
  1.827694e+01    1.453069e+00
  1.829282e+01    1.472062e+00
  1.830869e+01    1.511215e+00
  1.832457e+01    1.492182e+00
  1.834044e+01    1.478455e+00
  1.835632e+01    1.500577e+00
  1.837220e+01    1.471339e+00
  1.838807e+01    1.461378e+00
  1.840395e+01    1.461285e+00
  1.841982e+01    1.456561e+00
  1.843570e+01    1.440352e+00
  1.845157e+01    1.448049e+00
  1.846745e+01    1.435921e+00
  1.848332e+01    1.440291e+00
  1.849920e+01    1.448164e+00
  1.851508e+01    1.458254e+00
  1.853095e+01    1.448671e+00
  1.854683e+01    1.454853e+00
  1.856270e+01    1.445534e+00
  1.857858e+01    1.441304e+00
  1.859445e+01    1.463510e+00
  1.861033e+01    1.442900e+00
  1.862620e+01    1.424422e+00
  1.864208e+01    1.453863e+00
  1.865796e+01    1.451255e+00
  1.867383e+01    1.436476e+00
  1.868971e+01    1.421270e+00
  1.870558e+01    1.420901e+00
  1.872146e+01    1.414539e+00
  1.873733e+01    1.434082e+00
  1.875321e+01    1.445590e+00
  1.876908e+01    1.426396e+00
  1.878496e+01    1.427601e+00
  1.880084e+01    1.401569e+00
  1.881671e+01    1.392416e+00
  1.883259e+01    1.395431e+00
  1.884846e+01    1.413735e+00
  1.886434e+01    1.415435e+00
  1.888021e+01    1.399276e+00
  1.889609e+01    1.401153e+00
  1.891196e+01    1.390093e+00
  1.892784e+01    1.396627e+00
  1.894372e+01    1.363419e+00
  1.895959e+01    1.420789e+00
  1.897547e+01    1.430409e+00
  1.899134e+01    1.413726e+00
  1.900722e+01    1.380757e+00
  1.902309e+01    1.394331e+00
  1.903897e+01    1.385998e+00
  1.905484e+01    1.368299e+00
  1.907072e+01    1.408615e+00
  1.908660e+01    1.409938e+00
  1.910247e+01    1.382820e+00
  1.911835e+01    1.372276e+00
  1.913422e+01    1.358454e+00
  1.915010e+01    1.361894e+00
  1.916597e+01    1.351266e+00
  1.918185e+01    1.371933e+00
  1.919773e+01    1.383055e+00
  1.921360e+01    1.375146e+00
  1.922948e+01    1.345974e+00
  1.924535e+01    1.366650e+00
  1.926123e+01    1.348343e+00
  1.927710e+01    1.338377e+00
  1.929298e+01    1.344862e+00
  1.930885e+01    1.323453e+00
  1.932473e+01    1.343006e+00
  1.934061e+01    1.352556e+00
  1.935648e+01    1.386218e+00
  1.937236e+01    1.407342e+00
  1.938823e+01    1.388376e+00
  1.940411e+01    1.360282e+00
  1.941998e+01    1.363492e+00
  1.943586e+01    1.344889e+00
  1.945173e+01    1.337546e+00
  1.946761e+01    1.356709e+00
  1.948349e+01    1.349865e+00
  1.949936e+01    1.355014e+00
  1.951524e+01    1.347442e+00
  1.953111e+01    1.340234e+00
  1.954699e+01    1.339703e+00
  1.956286e+01    1.320005e+00
  1.957874e+01    1.323844e+00
  1.959461e+01    1.321953e+00
  1.961049e+01    1.332581e+00
  1.962637e+01    1.337459e+00
  1.964224e+01    1.338039e+00
  1.965812e+01    1.307231e+00
  1.967399e+01    1.315241e+00
  1.968987e+01    1.322436e+00
  1.970574e+01    1.334985e+00
  1.972162e+01    1.328588e+00
  1.973749e+01    1.297087e+00
  1.975337e+01    1.296319e+00
  1.976925e+01    1.312656e+00
  1.978512e+01    1.311499e+00
  1.980100e+01    1.293559e+00
  1.981687e+01    1.290484e+00
  1.983275e+01    1.279594e+00
  1.984862e+01    1.283189e+00
  1.986450e+01    1.296795e+00
  1.988037e+01    1.306051e+00
  1.989625e+01    1.310872e+00
  1.991213e+01    1.297640e+00
  1.992800e+01    1.287201e+00
  1.994388e+01    1.299811e+00
  1.995975e+01    1.304187e+00
  1.997563e+01    1.288061e+00
  1.999150e+01    1.268497e+00
  2.000738e+01    1.273173e+00
  2.002325e+01    1.288253e+00
  2.003913e+01    1.316954e+00
  2.005501e+01    1.298599e+00
  2.007088e+01    1.294720e+00
  2.008676e+01    1.305722e+00
  2.010263e+01    1.299823e+00
  2.011851e+01    1.270003e+00
  2.013438e+01    1.275254e+00
  2.015026e+01    1.289556e+00
  2.016614e+01    1.294963e+00
  2.018201e+01    1.285536e+00
  2.019789e+01    1.287833e+00
  2.021376e+01    1.258268e+00
  2.022964e+01    1.271270e+00
  2.024551e+01    1.265405e+00
  2.026139e+01    1.263672e+00
  2.027726e+01    1.272259e+00
  2.029314e+01    1.278503e+00
  2.030902e+01    1.234502e+00
  2.032489e+01    1.245226e+00
  2.034077e+01    1.257463e+00
  2.035664e+01    1.249164e+00
  2.037252e+01    1.246741e+00
  2.038839e+01    1.238379e+00
  2.040427e+01    1.234495e+00
  2.042014e+01    1.274132e+00
  2.043602e+01    1.296630e+00
  2.045190e+01    1.249717e+00
  2.046777e+01    1.242697e+00
  2.048365e+01    1.267713e+00
  2.049952e+01    1.254734e+00
  2.051540e+01    1.250773e+00
  2.053127e+01    1.252191e+00
  2.054715e+01    1.274750e+00
  2.056302e+01    1.253711e+00
  2.057890e+01    1.229655e+00
  2.059478e+01    1.239871e+00
  2.061065e+01    1.253580e+00
  2.062653e+01    1.248980e+00
  2.064240e+01    1.236928e+00
  2.065828e+01    1.230595e+00
  2.067415e+01    1.262971e+00
  2.069003e+01    1.248463e+00
  2.070590e+01    1.239094e+00
  2.072178e+01    1.252653e+00
  2.073766e+01    1.243804e+00
  2.075353e+01    1.252484e+00
  2.076941e+01    1.242622e+00
  2.078528e+01    1.226275e+00
  2.080116e+01    1.234919e+00
  2.081703e+01    1.240558e+00
  2.083291e+01    1.253328e+00
  2.084878e+01    1.242143e+00
  2.086466e+01    1.240551e+00
  2.088054e+01    1.232886e+00
  2.089641e+01    1.254957e+00
  2.091229e+01    1.232863e+00
  2.092816e+01    1.230157e+00
  2.094404e+01    1.234618e+00
  2.095991e+01    1.247858e+00
  2.097579e+01    1.237670e+00
  2.099166e+01    1.226140e+00
  2.100754e+01    1.247354e+00
  2.102342e+01    1.227636e+00
  2.103929e+01    1.228457e+00
  2.105517e+01    1.252525e+00
  2.107104e+01    1.222369e+00
  2.108692e+01    1.230678e+00
  2.110279e+01    1.220624e+00
  2.111867e+01    1.215997e+00
  2.113455e+01    1.216658e+00
  2.115042e+01    1.247819e+00
  2.116630e+01    1.224975e+00
  2.118217e+01    1.220883e+00
  2.119805e+01    1.223621e+00
  2.121392e+01    1.231648e+00
  2.122980e+01    1.253157e+00
  2.124567e+01    1.245760e+00
  2.126155e+01    1.256052e+00
  2.127743e+01    1.252331e+00
  2.129330e+01    1.230231e+00
  2.130918e+01    1.250569e+00
  2.132505e+01    1.261334e+00
  2.134093e+01    1.265696e+00
  2.135680e+01    1.283549e+00
  2.137268e+01    1.293061e+00
  2.138855e+01    1.322465e+00
  2.140443e+01    1.321958e+00
  2.142031e+01    1.330201e+00
  2.143618e+01    1.347874e+00
  2.145206e+01    1.349028e+00
  2.146793e+01    1.367893e+00
  2.148381e+01    1.403393e+00
  2.149968e+01    1.443627e+00
  2.151556e+01    1.443500e+00
  2.153143e+01    1.474180e+00
  2.154731e+01    1.515637e+00
  2.156319e+01    1.595170e+00
  2.157906e+01    1.612319e+00
  2.159494e+01    1.690213e+00
  2.161081e+01    1.791541e+00
  2.162669e+01    1.857450e+00
  2.164256e+01    1.983427e+00
  2.165844e+01    2.128726e+00
  2.167431e+01    2.310384e+00
  2.169019e+01    2.548532e+00
  2.170607e+01    2.801035e+00
  2.172194e+01    3.160769e+00
  2.173782e+01    3.563121e+00
  2.175369e+01    4.045467e+00
  2.176957e+01    4.594041e+00
  2.178544e+01    5.252638e+00
  2.180132e+01    5.934098e+00
  2.181719e+01    6.598387e+00
  2.183307e+01    7.221554e+00
  2.184895e+01    7.866954e+00
  2.186482e+01    8.391421e+00
  2.188070e+01    8.863458e+00
  2.189657e+01    8.969151e+00
  2.191245e+01    8.932803e+00
  2.192832e+01    8.417562e+00
  2.194420e+01    7.602084e+00
  2.196007e+01    6.675324e+00
  2.197595e+01    5.766573e+00
  2.199183e+01    4.928275e+00
  2.200770e+01    4.248710e+00
  2.202358e+01    3.666177e+00
  2.203945e+01    3.217866e+00
  2.205533e+01    2.860749e+00
  2.207120e+01    2.604818e+00
  2.208708e+01    2.359819e+00
  2.210296e+01    2.183570e+00
  2.211883e+01    1.995821e+00
  2.213471e+01    1.873347e+00
  2.215058e+01    1.768992e+00
  2.216646e+01    1.706666e+00
  2.218233e+01    1.649327e+00
  2.219821e+01    1.555864e+00
  2.221408e+01    1.528556e+00
  2.222996e+01    1.459065e+00
  2.224584e+01    1.419139e+00
  2.226171e+01    1.391522e+00
  2.227759e+01    1.352597e+00
  2.229346e+01    1.336119e+00
  2.230934e+01    1.280894e+00
  2.232521e+01    1.272356e+00
  2.234109e+01    1.272643e+00
  2.235696e+01    1.256813e+00
  2.237284e+01    1.241219e+00
  2.238872e+01    1.242658e+00
  2.240459e+01    1.209214e+00
  2.242047e+01    1.192517e+00
  2.243634e+01    1.162846e+00
  2.245222e+01    1.160197e+00
  2.246809e+01    1.153641e+00
  2.248397e+01    1.174033e+00
  2.249984e+01    1.147026e+00
  2.251572e+01    1.131593e+00
  2.253160e+01    1.143020e+00
  2.254747e+01    1.123219e+00
  2.256335e+01    1.143962e+00
  2.257922e+01    1.126065e+00
  2.259510e+01    1.123854e+00
  2.261097e+01    1.107062e+00
  2.262685e+01    1.093290e+00
  2.264272e+01    1.088714e+00
  2.265860e+01    1.107383e+00
  2.267448e+01    1.115514e+00
  2.269035e+01    1.096404e+00
  2.270623e+01    1.082689e+00
  2.272210e+01    1.092061e+00
  2.273798e+01    1.081585e+00
  2.275385e+01    1.089468e+00
  2.276973e+01    1.081763e+00
  2.278560e+01    1.075903e+00
  2.280148e+01    1.069390e+00
  2.281736e+01    1.061003e+00
  2.283323e+01    1.054485e+00
  2.284911e+01    1.059240e+00
  2.286498e+01    1.061834e+00
  2.288086e+01    1.050809e+00
  2.289673e+01    1.053034e+00
  2.291261e+01    1.053179e+00
  2.292848e+01    1.039839e+00
  2.294436e+01    1.033801e+00
  2.296024e+01    1.012130e+00
  2.297611e+01    1.026342e+00
  2.299199e+01    1.039123e+00
  2.300786e+01    1.023985e+00
  2.302374e+01    1.004560e+00
  2.303961e+01    1.026150e+00
  2.305549e+01    1.012842e+00
  2.307137e+01    1.014124e+00
  2.308724e+01    1.023196e+00
  2.310312e+01    1.030951e+00
  2.311899e+01    1.011827e+00
  2.313487e+01    1.015572e+00
  2.315074e+01    1.013656e+00
  2.316662e+01    9.906887e-01
  2.318249e+01    1.016116e+00
  2.319837e+01    1.015612e+00
  2.321425e+01    1.008128e+00
  2.323012e+01    9.973953e-01
  2.324600e+01    9.994747e-01
  2.326187e+01    9.979981e-01
  2.327775e+01    9.996292e-01
  2.329362e+01    9.795678e-01
  2.330950e+01    9.896306e-01
  2.332537e+01    9.877464e-01
  2.334125e+01    9.683412e-01
  2.335713e+01    9.783123e-01
  2.337300e+01    9.774976e-01
  2.338888e+01    9.875081e-01
  2.340475e+01    9.838844e-01
  2.342063e+01    9.646617e-01
  2.343650e+01    9.457204e-01
  2.345238e+01    9.630551e-01
  2.346825e+01    9.725585e-01
  2.348413e+01    9.528229e-01
  2.350001e+01    9.432732e-01
  2.351588e+01    9.487346e-01
  2.353176e+01    9.613143e-01
  2.354763e+01    9.497273e-01
  2.356351e+01    9.674873e-01
  2.357938e+01    9.669725e-01
  2.359526e+01    9.508237e-01
  2.361113e+01    9.604471e-01
  2.362701e+01    9.620136e-01
  2.364289e+01    9.619957e-01
  2.365876e+01    9.606591e-01
  2.367464e+01    9.558409e-01
  2.369051e+01    9.418164e-01
  2.370639e+01    9.676074e-01
  2.372226e+01    9.625773e-01
  2.373814e+01    9.343429e-01
  2.375401e+01    9.062548e-01
  2.376989e+01    9.458517e-01
  2.378577e+01    9.518216e-01
  2.380164e+01    9.512019e-01
  2.381752e+01    9.249137e-01
  2.383339e+01    9.302812e-01
  2.384927e+01    9.250597e-01
  2.386514e+01    9.135472e-01
  2.388102e+01    9.085965e-01
  2.389689e+01    9.166633e-01
  2.391277e+01    9.091387e-01
  2.392865e+01    9.126838e-01
  2.394452e+01    9.054416e-01
  2.396040e+01    9.165795e-01
  2.397627e+01    9.202594e-01
  2.399215e+01    9.188042e-01
  2.400802e+01    9.304297e-01
  2.402390e+01    9.100423e-01
  2.403978e+01    9.052226e-01
  2.405565e+01    9.099492e-01
  2.407153e+01    9.197927e-01
  2.408740e+01    8.863420e-01
  2.410328e+01    8.801823e-01
  2.411915e+01    8.766621e-01
  2.413503e+01    8.953239e-01
  2.415090e+01    8.945936e-01
  2.416678e+01    8.966039e-01
  2.418266e+01    8.877362e-01
  2.419853e+01    9.008813e-01
  2.421441e+01    8.897771e-01
  2.423028e+01    8.715029e-01
  2.424616e+01    8.867133e-01
  2.426203e+01    8.865139e-01
  2.427791e+01    8.676891e-01
  2.429378e+01    9.018786e-01
  2.430966e+01    9.029717e-01
  2.432554e+01    9.027684e-01
  2.434141e+01    8.901342e-01
  2.435729e+01    8.949091e-01
  2.437316e+01    8.926301e-01
  2.438904e+01    8.943861e-01
  2.440491e+01    9.045522e-01
  2.442079e+01    8.897500e-01
  2.443666e+01    9.018678e-01
  2.445254e+01    9.107473e-01
  2.446842e+01    8.947846e-01
  2.448429e+01    8.986843e-01
  2.450017e+01    8.854890e-01
  2.451604e+01    9.046881e-01
  2.453192e+01    8.948728e-01
  2.454779e+01    8.886679e-01
  2.456367e+01    8.649562e-01
  2.457954e+01    8.999658e-01
  2.459542e+01    9.036828e-01
  2.461130e+01    8.948717e-01
  2.462717e+01    9.039356e-01
  2.464305e+01    8.974612e-01
  2.465892e+01    8.955260e-01
  2.467480e+01    9.055434e-01
  2.469067e+01    8.912122e-01
  2.470655e+01    9.069572e-01
  2.472242e+01    8.854025e-01
  2.473830e+01    8.799923e-01
  2.475418e+01    8.929355e-01
  2.477005e+01    9.006613e-01
  2.478593e+01    8.807802e-01
  2.480180e+01    8.931279e-01
  2.481768e+01    8.963413e-01
  2.483355e+01    8.954941e-01
  2.484943e+01    8.863763e-01
  2.486530e+01    9.054443e-01
  2.488118e+01    8.952088e-01
  2.489706e+01    8.963189e-01
  2.491293e+01    8.874708e-01
  2.492881e+01    8.761523e-01
  2.494468e+01    8.957399e-01
  2.496056e+01    9.014942e-01
  2.497643e+01    8.767170e-01
  2.499231e+01    8.856659e-01
  2.500819e+01    9.094952e-01
  2.502406e+01    8.891134e-01
  2.503994e+01    9.153055e-01
  2.505581e+01    9.307942e-01
  2.507169e+01    9.224526e-01
  2.508756e+01    9.225441e-01
  2.510344e+01    9.046696e-01
  2.511931e+01    9.059873e-01
  2.513519e+01    9.139062e-01
  2.515107e+01    9.076445e-01
  2.516694e+01    9.285541e-01
  2.518282e+01    9.419417e-01
  2.519869e+01    9.218813e-01
  2.521457e+01    9.350586e-01
  2.523044e+01    9.636909e-01
  2.524632e+01    9.507462e-01
  2.526219e+01    9.413342e-01
  2.527807e+01    9.572431e-01
  2.529395e+01    9.536645e-01
  2.530982e+01    9.349117e-01
  2.532570e+01    9.528886e-01
  2.534157e+01    9.745139e-01
  2.535745e+01    9.968214e-01
  2.537332e+01    9.885284e-01
  2.538920e+01    9.867906e-01
  2.540507e+01    1.008287e+00
  2.542095e+01    1.003062e+00
  2.543683e+01    1.019442e+00
  2.545270e+01    1.035980e+00
  2.546858e+01    1.043549e+00
  2.548445e+01    1.062219e+00
  2.550033e+01    1.081581e+00
  2.551620e+01    1.102319e+00
  2.553208e+01    1.106329e+00
  2.554795e+01    1.110634e+00
  2.556383e+01    1.140214e+00
  2.557971e+01    1.175457e+00
  2.559558e+01    1.186155e+00
  2.561146e+01    1.227155e+00
  2.562733e+01    1.277103e+00
  2.564321e+01    1.314937e+00
  2.565908e+01    1.360414e+00
  2.567496e+01    1.437128e+00
  2.569083e+01    1.481552e+00
  2.570671e+01    1.580467e+00
  2.572259e+01    1.705799e+00
  2.573846e+01    1.843967e+00
  2.575434e+01    2.046769e+00
  2.577021e+01    2.252203e+00
  2.578609e+01    2.503524e+00
  2.580196e+01    2.821896e+00
  2.581784e+01    3.187777e+00
  2.583371e+01    3.688039e+00
  2.584959e+01    4.183423e+00
  2.586547e+01    4.702521e+00
  2.588134e+01    5.286587e+00
  2.589722e+01    5.851360e+00
  2.591309e+01    6.353527e+00
  2.592897e+01    6.832145e+00
  2.594484e+01    7.128162e+00
  2.596072e+01    7.186195e+00
  2.597660e+01    7.029111e+00
  2.599247e+01    6.637193e+00
  2.600835e+01    6.089028e+00
  2.602422e+01    5.418215e+00
  2.604010e+01    4.689904e+00
  2.605597e+01    4.008955e+00
  2.607185e+01    3.454415e+00
  2.608772e+01    3.054317e+00
  2.610360e+01    2.696950e+00
  2.611948e+01    2.406846e+00
  2.613535e+01    2.193068e+00
  2.615123e+01    1.952957e+00
  2.616710e+01    1.809743e+00
  2.618298e+01    1.654186e+00
  2.619885e+01    1.574196e+00
  2.621473e+01    1.492638e+00
  2.623060e+01    1.425610e+00
  2.624648e+01    1.362024e+00
  2.626236e+01    1.291818e+00
  2.627823e+01    1.258559e+00
  2.629411e+01    1.222041e+00
  2.630998e+01    1.194823e+00
  2.632586e+01    1.148028e+00
  2.634173e+01    1.129181e+00
  2.635761e+01    1.116138e+00
  2.637348e+01    1.101436e+00
  2.638936e+01    1.076678e+00
  2.640524e+01    1.046612e+00
  2.642111e+01    1.065000e+00
  2.643699e+01    1.054804e+00
  2.645286e+01    1.052972e+00
  2.646874e+01    1.041881e+00
  2.648461e+01    1.017941e+00
  2.650049e+01    1.022024e+00
  2.651636e+01    1.015865e+00
  2.653224e+01    1.018926e+00
  2.654812e+01    1.023862e+00
  2.656399e+01    1.009844e+00
  2.657987e+01    1.021783e+00
  2.659574e+01    1.004821e+00
  2.661162e+01    9.966717e-01
  2.662749e+01    9.789864e-01
  2.664337e+01    9.798852e-01
  2.665924e+01    9.619822e-01
  2.667512e+01    9.750813e-01
  2.669100e+01    9.780471e-01
  2.670687e+01    9.656680e-01
  2.672275e+01    9.712108e-01
  2.673862e+01    9.861068e-01
  2.675450e+01    1.002269e+00
  2.677037e+01    9.949259e-01
  2.678625e+01    9.791389e-01
  2.680212e+01    9.761047e-01
  2.681800e+01    9.876639e-01
  2.683388e+01    9.858544e-01
  2.684975e+01    9.872128e-01
  2.686563e+01    1.000236e+00
  2.688150e+01    1.010853e+00
  2.689738e+01    1.044450e+00
  2.691325e+01    1.047067e+00
  2.692913e+01    1.029594e+00
  2.694501e+01    1.046897e+00
  2.696088e+01    1.066584e+00
  2.697676e+01    1.074509e+00
  2.699263e+01    1.102316e+00
  2.700851e+01    1.123372e+00
  2.702438e+01    1.167705e+00
  2.704026e+01    1.219129e+00
  2.705613e+01    1.256329e+00
  2.707201e+01    1.331559e+00
  2.708789e+01    1.419171e+00
  2.710376e+01    1.534857e+00
  2.711964e+01    1.619009e+00
  2.713551e+01    1.730824e+00
  2.715139e+01    1.859653e+00
  2.716726e+01    1.965921e+00
  2.718314e+01    2.079522e+00
  2.719901e+01    2.129221e+00
  2.721489e+01    2.164856e+00
  2.723077e+01    2.156923e+00
  2.724664e+01    2.119349e+00
  2.726252e+01    1.985138e+00
  2.727839e+01    1.861619e+00
  2.729427e+01    1.734473e+00
  2.731014e+01    1.589735e+00
  2.732602e+01    1.494190e+00
  2.734189e+01    1.359345e+00
  2.735777e+01    1.272506e+00
  2.737365e+01    1.224700e+00
  2.738952e+01    1.165916e+00
  2.740540e+01    1.104550e+00
  2.742127e+01    1.081264e+00
  2.743715e+01    1.062941e+00
  2.745302e+01    1.038048e+00
  2.746890e+01    1.024007e+00
  2.748477e+01    1.020541e+00
  2.750065e+01    9.689646e-01
  2.751653e+01    9.536085e-01
  2.753240e+01    9.542267e-01
  2.754828e+01    9.450408e-01
  2.756415e+01    9.378864e-01
  2.758003e+01    9.316993e-01
  2.759590e+01    9.374538e-01
  2.761178e+01    9.369001e-01
  2.762765e+01    9.187782e-01
  2.764353e+01    9.361908e-01
  2.765941e+01    9.446177e-01
  2.767528e+01    9.323461e-01
  2.769116e+01    9.259849e-01
  2.770703e+01    9.022614e-01
  2.772291e+01    9.138750e-01
  2.773878e+01    9.082943e-01
  2.775466e+01    8.855403e-01
  2.777054e+01    8.899426e-01
  2.778641e+01    8.836035e-01
  2.780229e+01    8.892883e-01
  2.781816e+01    8.868948e-01
  2.783404e+01    8.819996e-01
  2.784991e+01    8.874919e-01
  2.786579e+01    8.783902e-01
  2.788166e+01    8.702090e-01
  2.789754e+01    8.548728e-01
  2.791342e+01    8.711272e-01
  2.792929e+01    8.722169e-01
  2.794517e+01    8.710815e-01
  2.796104e+01    8.763941e-01
  2.797692e+01    8.871168e-01
  2.799279e+01    8.743128e-01
  2.800867e+01    8.781468e-01
  2.802454e+01    8.809779e-01
  2.804042e+01    8.828004e-01
  2.805630e+01    8.843995e-01
  2.807217e+01    8.772669e-01
  2.808805e+01    8.394920e-01
  2.810392e+01    8.637263e-01
  2.811980e+01    8.565635e-01
  2.813567e+01    8.499559e-01
  2.815155e+01    8.463885e-01
  2.816742e+01    8.533670e-01
  2.818330e+01    8.655905e-01
  2.819918e+01    8.564537e-01
  2.821505e+01    8.700594e-01
  2.823093e+01    8.547035e-01
  2.824680e+01    8.669546e-01
  2.826268e+01    8.618903e-01
  2.827855e+01    8.432623e-01
  2.829443e+01    8.458100e-01
  2.831030e+01    8.506141e-01
  2.832618e+01    8.377842e-01
  2.834206e+01    8.551080e-01
  2.835793e+01    8.874339e-01
  2.837381e+01    8.667024e-01
  2.838968e+01    8.690026e-01
  2.840556e+01    8.565465e-01
  2.842143e+01    8.592482e-01
  2.843731e+01    8.498271e-01
  2.845318e+01    8.305139e-01
  2.846906e+01    8.503243e-01
  2.848494e+01    8.500782e-01
  2.850081e+01    8.633617e-01
  2.851669e+01    8.507825e-01
  2.853256e+01    8.431891e-01
  2.854844e+01    8.569295e-01
  2.856431e+01    8.566777e-01
  2.858019e+01    8.590826e-01
  2.859606e+01    8.480055e-01
  2.861194e+01    8.257918e-01
  2.862782e+01    8.309230e-01
  2.864369e+01    8.214629e-01
  2.865957e+01    8.270440e-01
  2.867544e+01    8.292939e-01
  2.869132e+01    8.215537e-01
  2.870719e+01    8.348105e-01
  2.872307e+01    8.292518e-01
  2.873895e+01    8.181738e-01
  2.875482e+01    8.247660e-01
  2.877070e+01    8.466862e-01
  2.878657e+01    8.323315e-01
  2.880245e+01    8.359212e-01
  2.881832e+01    8.354904e-01
  2.883420e+01    8.257388e-01
  2.885007e+01    8.354034e-01
  2.886595e+01    8.210716e-01
  2.888183e+01    8.190107e-01
  2.889770e+01    8.224625e-01
  2.891358e+01    8.157407e-01
  2.892945e+01    8.320631e-01
  2.894533e+01    8.184889e-01
  2.896120e+01    8.241354e-01
  2.897708e+01    8.360896e-01
  2.899295e+01    8.556196e-01
  2.900883e+01    8.428695e-01
  2.902471e+01    8.247319e-01
  2.904058e+01    8.163196e-01
  2.905646e+01    8.118459e-01
  2.907233e+01    8.344318e-01
  2.908821e+01    8.110143e-01
  2.910408e+01    8.194857e-01
  2.911996e+01    8.348924e-01
  2.913583e+01    8.375356e-01
  2.915171e+01    8.270844e-01
  2.916759e+01    8.353839e-01
  2.918346e+01    8.327147e-01
  2.919934e+01    8.209177e-01
  2.921521e+01    8.129594e-01
  2.923109e+01    8.158419e-01
  2.924696e+01    8.160977e-01
  2.926284e+01    8.304348e-01
  2.927871e+01    8.166109e-01
  2.929459e+01    8.284379e-01
  2.931047e+01    8.107656e-01
  2.932634e+01    7.992151e-01
  2.934222e+01    8.139256e-01
  2.935809e+01    7.981714e-01
  2.937397e+01    7.972094e-01
  2.938984e+01    8.124656e-01
  2.940572e+01    8.115441e-01
  2.942159e+01    7.978201e-01
  2.943747e+01    8.033473e-01
  2.945335e+01    8.101950e-01
  2.946922e+01    8.177574e-01
  2.948510e+01    8.084969e-01
  2.950097e+01    8.221051e-01
  2.951685e+01    8.116437e-01
  2.953272e+01    8.175155e-01
  2.954860e+01    7.977150e-01
  2.956447e+01    7.919192e-01
  2.958035e+01    8.156664e-01
  2.959623e+01    8.056210e-01
  2.961210e+01    8.019721e-01
  2.962798e+01    7.950408e-01
  2.964385e+01    8.079560e-01
  2.965973e+01    8.103974e-01
  2.967560e+01    8.171126e-01
  2.969148e+01    8.053037e-01
  2.970736e+01    7.924190e-01
  2.972323e+01    8.028279e-01
  2.973911e+01    7.981073e-01
  2.975498e+01    8.046830e-01
  2.977086e+01    8.156729e-01
  2.978673e+01    8.107622e-01
  2.980261e+01    7.882574e-01
  2.981848e+01    8.039384e-01
  2.983436e+01    8.079405e-01
  2.985024e+01    8.208361e-01
  2.986611e+01    8.223584e-01
  2.988199e+01    8.196590e-01
  2.989786e+01    7.951210e-01
  2.991374e+01    8.026202e-01
  2.992961e+01    7.913854e-01
  2.994549e+01    8.181869e-01
  2.996136e+01    8.061866e-01
  2.997724e+01    8.307386e-01
  2.999312e+01    8.188995e-01
  3.000899e+01    8.185218e-01
  3.002487e+01    8.139980e-01
  3.004074e+01    8.441870e-01
  3.005662e+01    8.300132e-01
  3.007249e+01    8.186648e-01
  3.008837e+01    8.167326e-01
  3.010424e+01    8.125426e-01
  3.012012e+01    8.032540e-01
  3.013600e+01    7.880601e-01
  3.015187e+01    8.048365e-01
  3.016775e+01    7.950640e-01
  3.018362e+01    7.451828e-01
  3.019950e+01    7.676553e-01
  3.021537e+01    7.836322e-01
  3.023125e+01    7.958705e-01
  3.024712e+01    7.827572e-01
  3.026300e+01    7.698312e-01
  3.027888e+01    8.010614e-01
  3.029475e+01    8.110760e-01
  3.031063e+01    7.978925e-01
  3.032650e+01    8.062818e-01
  3.034238e+01    7.853150e-01
  3.035825e+01    8.101004e-01
  3.037413e+01    8.028577e-01
  3.039000e+01    7.997607e-01
  3.040588e+01    8.003023e-01
  3.042176e+01    7.906355e-01
  3.043763e+01    7.867896e-01
  3.045351e+01    7.982577e-01
  3.046938e+01    7.918536e-01
  3.048526e+01    7.935532e-01
  3.050113e+01    7.784811e-01
  3.051701e+01    7.656518e-01
  3.053288e+01    7.696003e-01
  3.054876e+01    7.858592e-01
  3.056464e+01    7.981820e-01
  3.058051e+01    7.875912e-01
  3.059639e+01    7.727825e-01
  3.061226e+01    7.662708e-01
  3.062814e+01    7.806905e-01
  3.064401e+01    7.793692e-01
  3.065989e+01    7.937111e-01
  3.067577e+01    7.982769e-01
  3.069164e+01    7.743425e-01
  3.070752e+01    7.705802e-01
  3.072339e+01    7.932087e-01
  3.073927e+01    8.148147e-01
  3.075514e+01    8.024638e-01
  3.077102e+01    7.943199e-01
  3.078689e+01    7.872248e-01
  3.080277e+01    7.961531e-01
  3.081865e+01    8.127087e-01
  3.083452e+01    7.963715e-01
  3.085040e+01    7.923008e-01
  3.086627e+01    7.926179e-01
  3.088215e+01    7.976846e-01
  3.089802e+01    7.955950e-01
  3.091390e+01    7.721618e-01
  3.092977e+01    7.858480e-01
  3.094565e+01    8.291132e-01
  3.096153e+01    8.244917e-01
  3.097740e+01    7.826817e-01
  3.099328e+01    7.940491e-01
  3.100915e+01    7.820422e-01
  3.102503e+01    7.825550e-01
  3.104090e+01    7.851572e-01
  3.105678e+01    8.014603e-01
  3.107265e+01    8.109359e-01
  3.108853e+01    7.974502e-01
  3.110441e+01    7.848718e-01
  3.112028e+01    7.937913e-01
  3.113616e+01    7.992086e-01
  3.115203e+01    7.927390e-01
  3.116791e+01    7.770414e-01
  3.118378e+01    7.860463e-01
  3.119966e+01    7.918614e-01
  3.121553e+01    7.817436e-01
  3.123141e+01    7.737401e-01
  3.124729e+01    7.871337e-01
  3.126316e+01    7.925271e-01
  3.127904e+01    7.743413e-01
  3.129491e+01    7.967364e-01
  3.131079e+01    7.998300e-01
  3.132666e+01    8.038502e-01
  3.134254e+01    8.218213e-01
  3.135841e+01    7.917224e-01
  3.137429e+01    8.214758e-01
  3.139017e+01    8.153141e-01
  3.140604e+01    7.971129e-01
  3.142192e+01    7.952129e-01
  3.143779e+01    8.094358e-01
  3.145367e+01    8.239241e-01
  3.146954e+01    8.068022e-01
  3.148542e+01    8.214409e-01
  3.150129e+01    8.245996e-01
  3.151717e+01    8.336566e-01
  3.153305e+01    8.438140e-01
  3.154892e+01    8.620044e-01
  3.156480e+01    8.653549e-01
  3.158067e+01    8.513580e-01
  3.159655e+01    8.503472e-01
  3.161242e+01    8.530497e-01
  3.162830e+01    9.064339e-01
  3.164418e+01    9.269592e-01
  3.166005e+01    9.626452e-01
  3.167593e+01    9.597542e-01
  3.169180e+01    9.612589e-01
  3.170768e+01    1.034030e+00
  3.172355e+01    1.087233e+00
  3.173943e+01    1.114647e+00
  3.175530e+01    1.158727e+00
  3.177118e+01    1.279778e+00
  3.178706e+01    1.387689e+00
  3.180293e+01    1.469671e+00
  3.181881e+01    1.586723e+00
  3.183468e+01    1.773295e+00
  3.185056e+01    1.847052e+00
  3.186643e+01    1.968980e+00
  3.188231e+01    2.067310e+00
  3.189818e+01    2.117971e+00
  3.191406e+01    2.133600e+00
  3.192994e+01    2.064510e+00
  3.194581e+01    1.959756e+00
  3.196169e+01    1.863507e+00
  3.197756e+01    1.718751e+00
  3.199344e+01    1.565339e+00
  3.200931e+01    1.449444e+00
  3.202519e+01    1.327482e+00
  3.204106e+01    1.240145e+00
  3.205694e+01    1.189103e+00
  3.207282e+01    1.128980e+00
  3.208869e+01    1.060991e+00
  3.210457e+01    9.896441e-01
  3.212044e+01    9.690877e-01
  3.213632e+01    9.179122e-01
  3.215219e+01    9.024211e-01
  3.216807e+01    8.808419e-01
  3.218394e+01    8.790152e-01
  3.219982e+01    8.667087e-01
  3.221570e+01    8.515831e-01
  3.223157e+01    8.598775e-01
  3.224745e+01    8.446642e-01
  3.226332e+01    8.545025e-01
  3.227920e+01    8.367106e-01
  3.229507e+01    8.314759e-01
  3.231095e+01    8.435194e-01
  3.232682e+01    8.168561e-01
  3.234270e+01    7.883000e-01
  3.235858e+01    8.137293e-01
  3.237445e+01    8.097826e-01
  3.239033e+01    8.176686e-01
  3.240620e+01    7.967193e-01
  3.242208e+01    7.974570e-01
  3.243795e+01    7.852281e-01
  3.245383e+01    8.041155e-01
  3.246970e+01    7.933435e-01
  3.248558e+01    7.660607e-01
  3.250146e+01    7.809706e-01
  3.251733e+01    8.058555e-01
  3.253321e+01    8.045909e-01
  3.254908e+01    7.969319e-01
