# == pyFAI calibration ==
# Distance Sample to Detector: 0.3999999939076516 m
# PONI: 9.750e-02, 1.135e-01 m
# Rotations: -0.000175 0.000000 -0.000000 rad
# 
# == Fit2d calibration ==
# Distance Sample-beamCenter: 400.000 mm
# Center: x=1514.000, y=1300.000 pix
# Tilt: 0.010 deg  TiltPlanRot: 0.010 deg
# 
# Detector Detector	 Spline= None	 PixelSize= 7.500e-05, 7.500e-05 m
#    Detector has a mask: False 
#    Detector has a dark current: False 
#    detector has a flat field: False 
# 
# Wavelength: 6.888e-11 m
# Mask applied: user provided
# Dark current applied: False
# Flat field applied: False
# Polarization factor: 0.99
# Normalization factor: 1.0
# --> /home/myspot/data/2024_07_Rosario/Ru-CGO-ex/2024-07-27_003_Ru-CGO-ex_Reaction_dwell_000023_data_000006.dat
#       q_nm^-1             I 
  2.003187e-02    0.000000e+00
  3.590745e-02    0.000000e+00
  5.178302e-02    1.012208e-01
  6.765859e-02    2.068441e-01
  8.353417e-02    1.433775e-01
  9.940974e-02    1.498128e-01
  1.152853e-01    1.012968e-01
  1.311609e-01    4.995025e-02
  1.470365e-01    1.646052e-02
  1.629120e-01    2.788462e-02
  1.787876e-01    2.921974e-02
  1.946632e-01    3.464652e-02
  2.105388e-01    4.925485e-02
  2.264143e-01    6.672700e-03
  2.422899e-01    3.920800e-02
  2.581655e-01    7.348125e-02
  2.740411e-01    4.304346e-02
  2.899166e-01    7.593067e-02
  3.057922e-01    7.205034e-02
  3.216678e-01    3.222593e-02
  3.375433e-01    3.994397e-02
  3.534189e-01    7.268341e-02
  3.692945e-01    5.820633e-02
  3.851701e-01    4.097904e-02
  4.010456e-01    3.622361e-02
  4.169212e-01    5.759863e-02
  4.327968e-01    6.040666e-02
  4.486724e-01    5.430162e-02
  4.645479e-01    3.651351e-02
  4.804235e-01    3.174364e-02
  4.962991e-01    4.497132e-02
  5.121747e-01    1.879770e-02
  5.280502e-01    3.574075e-02
  5.439258e-01    5.772623e-02
  5.598014e-01    2.808493e-02
  5.756770e-01    2.279666e-02
  5.915525e-01    4.595907e-02
  6.074281e-01    4.930043e-02
  6.233037e-01    4.429988e-02
  6.391793e-01    5.092752e-02
  6.550548e-01    5.522429e-02
  6.709304e-01    4.170720e-02
  6.868060e-01    2.589289e-02
  7.026815e-01    3.048309e-02
  7.185571e-01    4.954126e-02
  7.344327e-01    4.694690e-02
  7.503083e-01    5.454972e-02
  7.661838e-01    9.704527e-02
  7.820594e-01    1.198301e-01
  7.979350e-01    1.719056e-01
  8.138106e-01    2.080820e-01
  8.296861e-01    2.853044e-01
  8.455617e-01    3.976260e-01
  8.614373e-01    4.405614e-01
  8.773129e-01    4.157785e-01
  8.931884e-01    5.604679e-01
  9.090640e-01    6.005153e-01
  9.249396e-01    6.782068e-01
  9.408152e-01    8.179339e-01
  9.566907e-01    8.965864e-01
  9.725663e-01    9.681283e-01
  9.884419e-01    1.086549e+00
  1.004317e+00    1.215094e+00
  1.020193e+00    1.417198e+00
  1.036069e+00    1.402941e+00
  1.051944e+00    1.448834e+00
  1.067820e+00    1.387553e+00
  1.083695e+00    1.477185e+00
  1.099571e+00    1.643099e+00
  1.115446e+00    1.593994e+00
  1.131322e+00    1.670589e+00
  1.147198e+00    1.589351e+00
  1.163073e+00    1.716954e+00
  1.178949e+00    1.776200e+00
  1.194824e+00    1.810008e+00
  1.210700e+00    1.941736e+00
  1.226575e+00    2.117677e+00
  1.242451e+00    2.274253e+00
  1.258327e+00    2.458341e+00
  1.274202e+00    2.673450e+00
  1.290078e+00    2.655097e+00
  1.305953e+00    2.522465e+00
  1.321829e+00    2.612259e+00
  1.337705e+00    2.723943e+00
  1.353580e+00    2.806805e+00
  1.369456e+00    2.838901e+00
  1.385331e+00    2.953236e+00
  1.401207e+00    2.927485e+00
  1.417082e+00    2.967638e+00
  1.432958e+00    3.015430e+00
  1.448834e+00    2.979096e+00
  1.464709e+00    2.926234e+00
  1.480585e+00    3.087040e+00
  1.496460e+00    3.151600e+00
  1.512336e+00    3.136333e+00
  1.528211e+00    3.059542e+00
  1.544087e+00    3.235811e+00
  1.559963e+00    3.326705e+00
  1.575838e+00    3.203632e+00
  1.591714e+00    3.093709e+00
  1.607589e+00    3.199018e+00
  1.623465e+00    3.214574e+00
  1.639340e+00    3.199651e+00
  1.655216e+00    3.179893e+00
  1.671092e+00    3.203186e+00
  1.686967e+00    3.189608e+00
  1.702843e+00    3.142458e+00
  1.718718e+00    3.041573e+00
  1.734594e+00    3.224241e+00
  1.750469e+00    3.132706e+00
  1.766345e+00    3.006783e+00
  1.782221e+00    3.164048e+00
  1.798096e+00    3.167563e+00
  1.813972e+00    3.154853e+00
  1.829847e+00    3.137085e+00
  1.845723e+00    3.149388e+00
  1.861598e+00    3.095357e+00
  1.877474e+00    3.136642e+00
  1.893350e+00    3.110693e+00
  1.909225e+00    2.999545e+00
  1.925101e+00    3.006010e+00
  1.940976e+00    3.107186e+00
  1.956852e+00    3.082544e+00
  1.972727e+00    3.055645e+00
  1.988603e+00    3.090965e+00
  2.004479e+00    3.110876e+00
  2.020354e+00    3.040137e+00
  2.036230e+00    3.103942e+00
  2.052105e+00    3.032959e+00
  2.067981e+00    3.102220e+00
  2.083856e+00    3.195668e+00
  2.099732e+00    3.187802e+00
  2.115608e+00    3.234614e+00
  2.131483e+00    3.149867e+00
  2.147359e+00    3.120103e+00
  2.163234e+00    3.098349e+00
  2.179110e+00    3.099964e+00
  2.194985e+00    3.147601e+00
  2.210861e+00    3.118836e+00
  2.226737e+00    3.101282e+00
  2.242612e+00    3.065195e+00
  2.258488e+00    3.059437e+00
  2.274363e+00    3.104289e+00
  2.290239e+00    3.220959e+00
  2.306115e+00    3.236493e+00
  2.321990e+00    3.275687e+00
  2.337866e+00    3.193322e+00
  2.353741e+00    3.138288e+00
  2.369617e+00    3.262644e+00
  2.385492e+00    3.171635e+00
  2.401368e+00    3.130741e+00
  2.417244e+00    3.135877e+00
  2.433119e+00    3.118913e+00
  2.448995e+00    3.139648e+00
  2.464870e+00    3.194778e+00
  2.480746e+00    3.281647e+00
  2.496621e+00    3.184702e+00
  2.512497e+00    3.234347e+00
  2.528373e+00    3.167897e+00
  2.544248e+00    3.186990e+00
  2.560124e+00    3.196652e+00
  2.575999e+00    3.254765e+00
  2.591875e+00    3.251474e+00
  2.607750e+00    3.155532e+00
  2.623626e+00    3.213724e+00
  2.639502e+00    3.337598e+00
  2.655377e+00    3.322277e+00
  2.671253e+00    3.244106e+00
  2.687128e+00    3.255548e+00
  2.703004e+00    3.332034e+00
  2.718879e+00    3.270008e+00
  2.734755e+00    3.206648e+00
  2.750631e+00    3.205652e+00
  2.766506e+00    3.297477e+00
  2.782382e+00    3.262658e+00
  2.798257e+00    3.319650e+00
  2.814133e+00    3.369919e+00
  2.830008e+00    3.286951e+00
  2.845884e+00    3.291644e+00
  2.861760e+00    3.323143e+00
  2.877635e+00    3.355635e+00
  2.893511e+00    3.342633e+00
  2.909386e+00    3.451243e+00
  2.925262e+00    3.319831e+00
  2.941137e+00    3.271608e+00
  2.957013e+00    3.291470e+00
  2.972889e+00    3.346252e+00
  2.988764e+00    3.318827e+00
  3.004640e+00    3.394647e+00
  3.020515e+00    3.333829e+00
  3.036391e+00    3.355834e+00
  3.052266e+00    3.387059e+00
  3.068142e+00    3.422795e+00
  3.084018e+00    3.318088e+00
  3.099893e+00    3.276317e+00
  3.115769e+00    3.334282e+00
  3.131644e+00    3.296995e+00
  3.147520e+00    3.289708e+00
  3.163395e+00    3.429718e+00
  3.179271e+00    3.379626e+00
  3.195147e+00    3.382692e+00
  3.211022e+00    3.364475e+00
  3.226898e+00    3.319602e+00
  3.242773e+00    3.389622e+00
  3.258649e+00    3.405741e+00
  3.274525e+00    3.328369e+00
  3.290400e+00    3.359512e+00
  3.306276e+00    3.420557e+00
  3.322151e+00    3.468986e+00
  3.338027e+00    3.370437e+00
  3.353902e+00    3.423685e+00
  3.369778e+00    3.350417e+00
  3.385654e+00    3.439580e+00
  3.401529e+00    3.435599e+00
  3.417405e+00    3.420597e+00
  3.433280e+00    3.470106e+00
  3.449156e+00    3.476854e+00
  3.465031e+00    3.457201e+00
  3.480907e+00    3.497301e+00
  3.496783e+00    3.503291e+00
  3.512658e+00    3.508873e+00
  3.528534e+00    3.535564e+00
  3.544409e+00    3.586907e+00
  3.560285e+00    3.604231e+00
  3.576160e+00    3.461407e+00
  3.592036e+00    3.388784e+00
  3.607912e+00    3.426454e+00
  3.623787e+00    3.542844e+00
  3.639663e+00    3.452180e+00
  3.655538e+00    3.457896e+00
  3.671414e+00    3.529207e+00
  3.687289e+00    3.521945e+00
  3.703165e+00    3.541331e+00
  3.719041e+00    3.610141e+00
  3.734916e+00    3.517435e+00
  3.750792e+00    3.503041e+00
  3.766667e+00    3.438281e+00
  3.782543e+00    3.499168e+00
  3.798418e+00    3.479912e+00
  3.814294e+00    3.535518e+00
  3.830170e+00    3.577062e+00
  3.846045e+00    3.494160e+00
  3.861921e+00    3.462217e+00
  3.877796e+00    3.536866e+00
  3.893672e+00    3.548283e+00
  3.909547e+00    3.510979e+00
  3.925423e+00    3.566594e+00
  3.941299e+00    3.564183e+00
  3.957174e+00    3.662624e+00
  3.973050e+00    3.613203e+00
  3.988925e+00    3.615407e+00
  4.004801e+00    3.602386e+00
  4.020676e+00    3.600919e+00
  4.036552e+00    3.580113e+00
  4.052428e+00    3.504362e+00
  4.068303e+00    3.448431e+00
  4.084179e+00    3.479171e+00
  4.100054e+00    3.553862e+00
  4.115930e+00    3.702974e+00
  4.131806e+00    3.620057e+00
  4.147681e+00    3.570068e+00
  4.163557e+00    3.615759e+00
  4.179432e+00    3.593708e+00
  4.195308e+00    3.625383e+00
  4.211183e+00    3.696945e+00
  4.227059e+00    3.657304e+00
  4.242935e+00    3.608867e+00
  4.258810e+00    3.561866e+00
  4.274686e+00    3.607845e+00
  4.290561e+00    3.528151e+00
  4.306437e+00    3.583522e+00
  4.322312e+00    3.683382e+00
  4.338188e+00    3.593345e+00
  4.354064e+00    3.623455e+00
  4.369939e+00    3.566560e+00
  4.385815e+00    3.545786e+00
  4.401690e+00    3.606897e+00
  4.417566e+00    3.554340e+00
  4.433441e+00    3.600997e+00
  4.449317e+00    3.619375e+00
  4.465193e+00    3.633669e+00
  4.481068e+00    3.705054e+00
  4.496944e+00    3.659224e+00
  4.512819e+00    3.644633e+00
  4.528695e+00    3.611465e+00
  4.544570e+00    3.627894e+00
  4.560446e+00    3.645370e+00
  4.576322e+00    3.623412e+00
  4.592197e+00    3.663470e+00
  4.608073e+00    3.704579e+00
  4.623948e+00    3.641990e+00
  4.639824e+00    3.577654e+00
  4.655699e+00    3.606675e+00
  4.671575e+00    3.581570e+00
  4.687451e+00    3.642554e+00
  4.703326e+00    3.674757e+00
  4.719202e+00    3.665591e+00
  4.735077e+00    3.663985e+00
  4.750953e+00    3.601739e+00
  4.766828e+00    3.639476e+00
  4.782704e+00    3.635246e+00
  4.798580e+00    3.545557e+00
  4.814455e+00    3.535374e+00
  4.830331e+00    3.617582e+00
  4.846206e+00    3.630095e+00
  4.862082e+00    3.635618e+00
  4.877957e+00    3.664649e+00
  4.893833e+00    3.688213e+00
  4.909709e+00    3.657300e+00
  4.925584e+00    3.646185e+00
  4.941460e+00    3.564376e+00
  4.957335e+00    3.640654e+00
  4.973211e+00    3.675440e+00
  4.989086e+00    3.634694e+00
  5.004962e+00    3.727427e+00
  5.020838e+00    3.750172e+00
  5.036713e+00    3.742365e+00
  5.052589e+00    3.648561e+00
  5.068464e+00    3.635689e+00
  5.084340e+00    3.662584e+00
  5.100216e+00    3.730972e+00
  5.116091e+00    3.653574e+00
  5.131967e+00    3.612079e+00
  5.147842e+00    3.675847e+00
  5.163718e+00    3.632921e+00
  5.179593e+00    3.682760e+00
  5.195469e+00    3.720683e+00
  5.211345e+00    3.648476e+00
  5.227220e+00    3.636494e+00
  5.243096e+00    3.686584e+00
  5.258971e+00    3.648456e+00
  5.274847e+00    3.659830e+00
  5.290722e+00    3.648754e+00
  5.306598e+00    3.670758e+00
  5.322474e+00    3.605190e+00
  5.338349e+00    3.689395e+00
  5.354225e+00    3.676372e+00
  5.370100e+00    3.627797e+00
  5.385976e+00    3.734643e+00
  5.401851e+00    3.747222e+00
  5.417727e+00    3.607109e+00
  5.433603e+00    3.522540e+00
  5.449478e+00    3.515449e+00
  5.465354e+00    3.582611e+00
  5.481229e+00    3.578280e+00
  5.497105e+00    3.541982e+00
  5.512980e+00    3.536548e+00
  5.528856e+00    3.531884e+00
  5.544732e+00    3.572010e+00
  5.560607e+00    3.545948e+00
  5.576483e+00    3.602353e+00
  5.592358e+00    3.681489e+00
  5.608234e+00    3.627490e+00
  5.624109e+00    3.527524e+00
  5.639985e+00    3.602133e+00
  5.655861e+00    3.634179e+00
  5.671736e+00    3.677878e+00
  5.687612e+00    3.707289e+00
  5.703487e+00    3.591255e+00
  5.719363e+00    3.587600e+00
  5.735238e+00    3.604333e+00
  5.751114e+00    3.581742e+00
  5.766990e+00    3.634685e+00
  5.782865e+00    3.626097e+00
  5.798741e+00    3.681600e+00
  5.814616e+00    3.662873e+00
  5.830492e+00    3.601663e+00
  5.846367e+00    3.593791e+00
  5.862243e+00    3.591907e+00
  5.878119e+00    3.571280e+00
  5.893994e+00    3.522261e+00
  5.909870e+00    3.580249e+00
  5.925745e+00    3.632401e+00
  5.941621e+00    3.625686e+00
  5.957497e+00    3.592990e+00
  5.973372e+00    3.481311e+00
  5.989248e+00    3.415682e+00
  6.005123e+00    3.457082e+00
  6.020999e+00    3.640151e+00
  6.036874e+00    3.633070e+00
  6.052750e+00    3.470392e+00
  6.068626e+00    3.511689e+00
  6.084501e+00    3.483786e+00
  6.100377e+00    3.602025e+00
  6.116252e+00    3.668884e+00
  6.132128e+00    3.640854e+00
  6.148003e+00    3.634887e+00
  6.163879e+00    3.717525e+00
  6.179755e+00    3.718959e+00
  6.195630e+00    3.603097e+00
  6.211506e+00    3.537092e+00
  6.227381e+00    3.658754e+00
  6.243257e+00    3.639327e+00
  6.259132e+00    3.647329e+00
  6.275008e+00    3.619145e+00
  6.290884e+00    3.637414e+00
  6.306759e+00    3.529372e+00
  6.322635e+00    3.531947e+00
  6.338510e+00    3.522379e+00
  6.354386e+00    3.567876e+00
  6.370261e+00    3.589841e+00
  6.386137e+00    3.599521e+00
  6.402013e+00    3.624732e+00
  6.417888e+00    3.604935e+00
  6.433764e+00    3.556910e+00
  6.449639e+00    3.562557e+00
  6.465515e+00    3.495902e+00
  6.481390e+00    3.577832e+00
  6.497266e+00    3.615795e+00
  6.513142e+00    3.510757e+00
  6.529017e+00    3.548776e+00
  6.544893e+00    3.481426e+00
  6.560768e+00    3.653366e+00
  6.576644e+00    3.696479e+00
  6.592519e+00    3.641666e+00
  6.608395e+00    3.633860e+00
  6.624271e+00    3.524307e+00
  6.640146e+00    3.565659e+00
  6.656022e+00    3.613351e+00
  6.671897e+00    3.620343e+00
  6.687773e+00    3.527830e+00
  6.703648e+00    3.641664e+00
  6.719524e+00    3.657765e+00
  6.735400e+00    3.568015e+00
  6.751275e+00    3.565876e+00
  6.767151e+00    3.572300e+00
  6.783026e+00    3.576679e+00
  6.798902e+00    3.533864e+00
  6.814777e+00    3.519519e+00
  6.830653e+00    3.582610e+00
  6.846529e+00    3.599004e+00
  6.862404e+00    3.563011e+00
  6.878280e+00    3.579076e+00
  6.894155e+00    3.590218e+00
  6.910031e+00    3.609186e+00
  6.925907e+00    3.604029e+00
  6.941782e+00    3.558048e+00
  6.957658e+00    3.515157e+00
  6.973533e+00    3.445066e+00
  6.989409e+00    3.511878e+00
  7.005284e+00    3.637048e+00
  7.021160e+00    3.540739e+00
  7.037036e+00    3.446282e+00
  7.052911e+00    3.531493e+00
  7.068787e+00    3.559541e+00
  7.084662e+00    3.558108e+00
  7.100538e+00    3.512712e+00
  7.116413e+00    3.505160e+00
  7.132289e+00    3.531097e+00
  7.148165e+00    3.560526e+00
  7.164040e+00    3.567207e+00
  7.179916e+00    3.584499e+00
  7.195791e+00    3.515260e+00
  7.211667e+00    3.510223e+00
  7.227542e+00    3.513725e+00
  7.243418e+00    3.499681e+00
  7.259294e+00    3.473546e+00
  7.275169e+00    3.500008e+00
  7.291045e+00    3.544821e+00
  7.306920e+00    3.529273e+00
  7.322796e+00    3.463795e+00
  7.338671e+00    3.480410e+00
  7.354547e+00    3.577751e+00
  7.370423e+00    3.566335e+00
  7.386298e+00    3.511182e+00
  7.402174e+00    3.472008e+00
  7.418049e+00    3.521625e+00
  7.433925e+00    3.529911e+00
  7.449800e+00    3.529632e+00
  7.465676e+00    3.492781e+00
  7.481552e+00    3.477252e+00
  7.497427e+00    3.507196e+00
  7.513303e+00    3.568007e+00
  7.529178e+00    3.507295e+00
  7.545054e+00    3.489677e+00
  7.560929e+00    3.577064e+00
  7.576805e+00    3.560139e+00
  7.592681e+00    3.504185e+00
  7.608556e+00    3.498539e+00
  7.624432e+00    3.475241e+00
  7.640307e+00    3.462600e+00
  7.656183e+00    3.476360e+00
  7.672058e+00    3.462526e+00
  7.687934e+00    3.497339e+00
  7.703810e+00    3.512727e+00
  7.719685e+00    3.508878e+00
  7.735561e+00    3.567885e+00
  7.751436e+00    3.549645e+00
  7.767312e+00    3.492372e+00
  7.783187e+00    3.467508e+00
  7.799063e+00    3.366228e+00
  7.814939e+00    3.401609e+00
  7.830814e+00    3.447535e+00
  7.846690e+00    3.424554e+00
  7.862565e+00    3.432467e+00
  7.878441e+00    3.438522e+00
  7.894317e+00    3.440016e+00
  7.910192e+00    3.428528e+00
  7.926068e+00    3.421028e+00
  7.941943e+00    3.423909e+00
  7.957819e+00    3.468180e+00
  7.973694e+00    3.441494e+00
  7.989570e+00    3.391794e+00
  8.005446e+00    3.429497e+00
  8.021321e+00    3.428466e+00
  8.037197e+00    3.496248e+00
  8.053072e+00    3.469131e+00
  8.068948e+00    3.417287e+00
  8.084823e+00    3.435697e+00
  8.100699e+00    3.490154e+00
  8.116575e+00    3.475296e+00
  8.132450e+00    3.458234e+00
  8.148326e+00    3.542404e+00
  8.164201e+00    3.507538e+00
  8.180077e+00    3.450923e+00
  8.195952e+00    3.473695e+00
  8.211828e+00    3.503935e+00
  8.227704e+00    3.497047e+00
  8.243579e+00    3.472119e+00
  8.259455e+00    3.419946e+00
  8.275330e+00    3.389076e+00
  8.291206e+00    3.424163e+00
  8.307081e+00    3.387572e+00
  8.322957e+00    3.394962e+00
  8.338833e+00    3.345725e+00
  8.354708e+00    3.370336e+00
  8.370584e+00    3.468606e+00
  8.386459e+00    3.461152e+00
  8.402335e+00    3.484342e+00
  8.418210e+00    3.479383e+00
  8.434086e+00    3.453653e+00
  8.449962e+00    3.365176e+00
  8.465837e+00    3.360905e+00
  8.481713e+00    3.423525e+00
  8.497588e+00    3.391870e+00
  8.513464e+00    3.372106e+00
  8.529339e+00    3.446635e+00
  8.545215e+00    3.415144e+00
  8.561091e+00    3.331212e+00
  8.576966e+00    3.348960e+00
  8.592842e+00    3.350182e+00
  8.608717e+00    3.326299e+00
  8.624593e+00    3.322515e+00
  8.640468e+00    3.340254e+00
  8.656344e+00    3.327329e+00
  8.672220e+00    3.413280e+00
  8.688095e+00    3.365799e+00
  8.703971e+00    3.333391e+00
  8.719846e+00    3.360758e+00
  8.735722e+00    3.356285e+00
  8.751598e+00    3.392234e+00
  8.767473e+00    3.389751e+00
  8.783349e+00    3.389923e+00
  8.799224e+00    3.372494e+00
  8.815100e+00    3.362352e+00
  8.830975e+00    3.335020e+00
  8.846851e+00    3.329483e+00
  8.862727e+00    3.296602e+00
  8.878602e+00    3.306508e+00
  8.894478e+00    3.362693e+00
  8.910353e+00    3.410525e+00
  8.926229e+00    3.340546e+00
  8.942104e+00    3.358560e+00
  8.957980e+00    3.325624e+00
  8.973856e+00    3.336831e+00
  8.989731e+00    3.316140e+00
  9.005607e+00    3.313382e+00
  9.021482e+00    3.321726e+00
  9.037358e+00    3.376028e+00
  9.053233e+00    3.337146e+00
  9.069109e+00    3.357629e+00
  9.084985e+00    3.330250e+00
  9.100860e+00    3.364766e+00
  9.116736e+00    3.357185e+00
  9.132611e+00    3.334816e+00
  9.148487e+00    3.289227e+00
  9.164362e+00    3.270097e+00
  9.180238e+00    3.242084e+00
  9.196114e+00    3.301090e+00
  9.211989e+00    3.228974e+00
  9.227865e+00    3.287085e+00
  9.243740e+00    3.251956e+00
  9.259616e+00    3.231426e+00
  9.275491e+00    3.303045e+00
  9.291367e+00    3.268288e+00
  9.307243e+00    3.255182e+00
  9.323118e+00    3.305509e+00
  9.338994e+00    3.245344e+00
  9.354869e+00    3.240991e+00
  9.370745e+00    3.273365e+00
  9.386620e+00    3.287848e+00
  9.402496e+00    3.274008e+00
  9.418372e+00    3.284538e+00
  9.434247e+00    3.299862e+00
  9.450123e+00    3.227885e+00
  9.465998e+00    3.235839e+00
  9.481874e+00    3.211959e+00
  9.497749e+00    3.179263e+00
  9.513625e+00    3.180255e+00
  9.529501e+00    3.202948e+00
  9.545376e+00    3.230225e+00
  9.561252e+00    3.246288e+00
  9.577127e+00    3.240173e+00
  9.593003e+00    3.190099e+00
  9.608878e+00    3.217850e+00
  9.624754e+00    3.263083e+00
  9.640630e+00    3.265122e+00
  9.656505e+00    3.268588e+00
  9.672381e+00    3.262062e+00
  9.688256e+00    3.223294e+00
  9.704132e+00    3.219347e+00
  9.720008e+00    3.183098e+00
  9.735883e+00    3.171660e+00
  9.751759e+00    3.172733e+00
  9.767634e+00    3.221462e+00
  9.783510e+00    3.146658e+00
  9.799385e+00    3.112703e+00
  9.815261e+00    3.146907e+00
  9.831137e+00    3.172423e+00
  9.847012e+00    3.192302e+00
  9.862888e+00    3.217395e+00
  9.878763e+00    3.212138e+00
  9.894639e+00    3.163756e+00
  9.910514e+00    3.159595e+00
  9.926390e+00    3.172455e+00
  9.942266e+00    3.130164e+00
  9.958141e+00    3.108448e+00
  9.974017e+00    3.128647e+00
  9.989892e+00    3.166521e+00
  1.000577e+01    3.158298e+00
  1.002164e+01    3.149417e+00
  1.003752e+01    3.200446e+00
  1.005339e+01    3.123543e+00
  1.006927e+01    3.107298e+00
  1.008515e+01    3.128134e+00
  1.010102e+01    3.115285e+00
  1.011690e+01    3.124699e+00
  1.013277e+01    3.094738e+00
  1.014865e+01    3.070782e+00
  1.016452e+01    3.098102e+00
  1.018040e+01    3.041798e+00
  1.019627e+01    3.081510e+00
  1.021215e+01    3.110657e+00
  1.022803e+01    3.091180e+00
  1.024390e+01    3.080287e+00
  1.025978e+01    3.099774e+00
  1.027565e+01    3.027484e+00
  1.029153e+01    3.086912e+00
  1.030740e+01    3.130529e+00
  1.032328e+01    3.032566e+00
  1.033915e+01    3.008968e+00
  1.035503e+01    3.054648e+00
  1.037091e+01    3.094387e+00
  1.038678e+01    3.055503e+00
  1.040266e+01    3.015036e+00
  1.041853e+01    3.058339e+00
  1.043441e+01    3.061129e+00
  1.045028e+01    3.071481e+00
  1.046616e+01    3.040311e+00
  1.048204e+01    3.018965e+00
  1.049791e+01    2.997272e+00
  1.051379e+01    3.025061e+00
  1.052966e+01    3.017027e+00
  1.054554e+01    3.017972e+00
  1.056141e+01    2.984674e+00
  1.057729e+01    2.967501e+00
  1.059316e+01    3.021974e+00
  1.060904e+01    3.003654e+00
  1.062492e+01    3.023797e+00
  1.064079e+01    2.998770e+00
  1.065667e+01    2.979513e+00
  1.067254e+01    3.046115e+00
  1.068842e+01    2.998277e+00
  1.070429e+01    2.937184e+00
  1.072017e+01    2.979003e+00
  1.073604e+01    3.024815e+00
  1.075192e+01    3.024472e+00
  1.076780e+01    2.958967e+00
  1.078367e+01    2.956632e+00
  1.079955e+01    2.968634e+00
  1.081542e+01    2.945923e+00
  1.083130e+01    2.997214e+00
  1.084717e+01    2.973948e+00
  1.086305e+01    2.924792e+00
  1.087892e+01    2.951951e+00
  1.089480e+01    2.945174e+00
  1.091068e+01    2.966596e+00
  1.092655e+01    3.000240e+00
  1.094243e+01    2.957776e+00
  1.095830e+01    2.934123e+00
  1.097418e+01    2.930180e+00
  1.099005e+01    2.940018e+00
  1.100593e+01    2.901881e+00
  1.102180e+01    2.878136e+00
  1.103768e+01    2.899150e+00
  1.105356e+01    2.925371e+00
  1.106943e+01    2.954835e+00
  1.108531e+01    2.961689e+00
  1.110118e+01    2.928332e+00
  1.111706e+01    2.873888e+00
  1.113293e+01    2.879297e+00
  1.114881e+01    2.899613e+00
  1.116468e+01    2.912347e+00
  1.118056e+01    2.920145e+00
  1.119644e+01    2.924134e+00
  1.121231e+01    2.909669e+00
  1.122819e+01    2.866819e+00
  1.124406e+01    2.903612e+00
  1.125994e+01    2.843238e+00
  1.127581e+01    2.851423e+00
  1.129169e+01    2.815458e+00
  1.130756e+01    2.817239e+00
  1.132344e+01    2.858857e+00
  1.133932e+01    2.869773e+00
  1.135519e+01    2.842047e+00
  1.137107e+01    2.869974e+00
  1.138694e+01    2.822280e+00
  1.140282e+01    2.848384e+00
  1.141869e+01    2.891356e+00
  1.143457e+01    2.855216e+00
  1.145045e+01    2.877125e+00
  1.146632e+01    2.805440e+00
  1.148220e+01    2.810888e+00
  1.149807e+01    2.856926e+00
  1.151395e+01    2.790430e+00
  1.152982e+01    2.784195e+00
  1.154570e+01    2.805960e+00
  1.156157e+01    2.811808e+00
  1.157745e+01    2.842459e+00
  1.159333e+01    2.818368e+00
  1.160920e+01    2.795778e+00
  1.162508e+01    2.770273e+00
  1.164095e+01    2.736389e+00
  1.165683e+01    2.769510e+00
  1.167270e+01    2.738276e+00
  1.168858e+01    2.788965e+00
  1.170445e+01    2.787907e+00
  1.172033e+01    2.816114e+00
  1.173621e+01    2.807627e+00
  1.175208e+01    2.770681e+00
  1.176796e+01    2.745903e+00
  1.178383e+01    2.728238e+00
  1.179971e+01    2.709623e+00
  1.181558e+01    2.736435e+00
  1.183146e+01    2.726027e+00
  1.184733e+01    2.712303e+00
  1.186321e+01    2.728651e+00
  1.187909e+01    2.678387e+00
  1.189496e+01    2.692545e+00
  1.191084e+01    2.756840e+00
  1.192671e+01    2.730375e+00
  1.194259e+01    2.732794e+00
  1.195846e+01    2.737365e+00
  1.197434e+01    2.730452e+00
  1.199021e+01    2.737494e+00
  1.200609e+01    2.765724e+00
  1.202197e+01    2.739324e+00
  1.203784e+01    2.710126e+00
  1.205372e+01    2.709132e+00
  1.206959e+01    2.754955e+00
  1.208547e+01    2.734761e+00
  1.210134e+01    2.741251e+00
  1.211722e+01    2.708813e+00
  1.213309e+01    2.707664e+00
  1.214897e+01    2.726589e+00
  1.216485e+01    2.716477e+00
  1.218072e+01    2.730274e+00
  1.219660e+01    2.692031e+00
  1.221247e+01    2.698610e+00
  1.222835e+01    2.695223e+00
  1.224422e+01    2.709968e+00
  1.226010e+01    2.732729e+00
  1.227597e+01    2.731797e+00
  1.229185e+01    2.679415e+00
  1.230773e+01    2.713839e+00
  1.232360e+01    2.729706e+00
  1.233948e+01    2.706283e+00
  1.235535e+01    2.710919e+00
  1.237123e+01    2.678134e+00
  1.238710e+01    2.650604e+00
  1.240298e+01    2.690959e+00
  1.241886e+01    2.741376e+00
  1.243473e+01    2.769059e+00
  1.245061e+01    2.765828e+00
  1.246648e+01    2.723389e+00
  1.248236e+01    2.739611e+00
  1.249823e+01    2.727520e+00
  1.251411e+01    2.732152e+00
  1.252998e+01    2.740794e+00
  1.254586e+01    2.740618e+00
  1.256174e+01    2.783742e+00
  1.257761e+01    2.745856e+00
  1.259349e+01    2.748552e+00
  1.260936e+01    2.716584e+00
  1.262524e+01    2.763023e+00
  1.264111e+01    2.755447e+00
  1.265699e+01    2.794605e+00
  1.267286e+01    2.823503e+00
  1.268874e+01    2.830737e+00
  1.270462e+01    2.843570e+00
  1.272049e+01    2.822049e+00
  1.273637e+01    2.865674e+00
  1.275224e+01    2.870933e+00
  1.276812e+01    2.912457e+00
  1.278399e+01    2.944663e+00
  1.279987e+01    2.993088e+00
  1.281574e+01    3.012911e+00
  1.283162e+01    3.033703e+00
  1.284750e+01    3.151138e+00
  1.286337e+01    3.276000e+00
  1.287925e+01    3.404840e+00
  1.289512e+01    3.519168e+00
  1.291100e+01    3.715911e+00
  1.292687e+01    3.853842e+00
  1.294275e+01    4.052057e+00
  1.295862e+01    4.323270e+00
  1.297450e+01    4.745296e+00
  1.299038e+01    5.323194e+00
  1.300625e+01    5.962753e+00
  1.302213e+01    6.640928e+00
  1.303800e+01    7.603187e+00
  1.305388e+01    8.799148e+00
  1.306975e+01    1.009031e+01
  1.308563e+01    1.141079e+01
  1.310150e+01    1.270674e+01
  1.311738e+01    1.384727e+01
  1.313326e+01    1.478303e+01
  1.314913e+01    1.554196e+01
  1.316501e+01    1.620720e+01
  1.318088e+01    1.626226e+01
  1.319676e+01    1.569744e+01
  1.321263e+01    1.420420e+01
  1.322851e+01    1.242691e+01
  1.324438e+01    1.064821e+01
  1.326026e+01    9.056505e+00
  1.327614e+01    7.772232e+00
  1.329201e+01    6.781035e+00
  1.330789e+01    5.968435e+00
  1.332376e+01    5.312407e+00
  1.333964e+01    4.816439e+00
  1.335551e+01    4.462873e+00
  1.337139e+01    4.153326e+00
  1.338727e+01    3.881095e+00
  1.340314e+01    3.678728e+00
  1.341902e+01    3.514078e+00
  1.343489e+01    3.379756e+00
  1.345077e+01    3.271631e+00
  1.346664e+01    3.151547e+00
  1.348252e+01    3.060602e+00
  1.349839e+01    2.970216e+00
  1.351427e+01    2.927158e+00
  1.353015e+01    2.864705e+00
  1.354602e+01    2.799761e+00
  1.356190e+01    2.752632e+00
  1.357777e+01    2.743223e+00
  1.359365e+01    2.768246e+00
  1.360952e+01    2.704130e+00
  1.362540e+01    2.683334e+00
  1.364127e+01    2.661559e+00
  1.365715e+01    2.632122e+00
  1.367303e+01    2.591364e+00
  1.368890e+01    2.576783e+00
  1.370478e+01    2.521148e+00
  1.372065e+01    2.503902e+00
  1.373653e+01    2.505019e+00
  1.375240e+01    2.498779e+00
  1.376828e+01    2.511028e+00
  1.378415e+01    2.483323e+00
  1.380003e+01    2.472567e+00
  1.381591e+01    2.524039e+00
  1.383178e+01    2.475628e+00
  1.384766e+01    2.456716e+00
  1.386353e+01    2.460152e+00
  1.387941e+01    2.412480e+00
  1.389528e+01    2.398359e+00
  1.391116e+01    2.437247e+00
  1.392703e+01    2.434280e+00
  1.394291e+01    2.409735e+00
  1.395879e+01    2.405877e+00
  1.397466e+01    2.413522e+00
  1.399054e+01    2.369966e+00
  1.400641e+01    2.419914e+00
  1.402229e+01    2.374805e+00
  1.403816e+01    2.317905e+00
  1.405404e+01    2.344926e+00
  1.406991e+01    2.373144e+00
  1.408579e+01    2.364434e+00
  1.410167e+01    2.362049e+00
  1.411754e+01    2.325795e+00
  1.413342e+01    2.332550e+00
  1.414929e+01    2.339298e+00
  1.416517e+01    2.329741e+00
  1.418104e+01    2.296862e+00
  1.419692e+01    2.302194e+00
  1.421279e+01    2.293806e+00
  1.422867e+01    2.287223e+00
  1.424455e+01    2.291143e+00
  1.426042e+01    2.263609e+00
  1.427630e+01    2.290165e+00
  1.429217e+01    2.285376e+00
  1.430805e+01    2.241481e+00
  1.432392e+01    2.258760e+00
  1.433980e+01    2.268330e+00
  1.435568e+01    2.250983e+00
  1.437155e+01    2.231230e+00
  1.438743e+01    2.233676e+00
  1.440330e+01    2.228315e+00
  1.441918e+01    2.266306e+00
  1.443505e+01    2.278254e+00
  1.445093e+01    2.206065e+00
  1.446680e+01    2.244565e+00
  1.448268e+01    2.269939e+00
  1.449856e+01    2.244075e+00
  1.451443e+01    2.191968e+00
  1.453031e+01    2.189733e+00
  1.454618e+01    2.186864e+00
  1.456206e+01    2.187881e+00
  1.457793e+01    2.230964e+00
  1.459381e+01    2.261257e+00
  1.460968e+01    2.258127e+00
  1.462556e+01    2.237212e+00
  1.464144e+01    2.216377e+00
  1.465731e+01    2.253766e+00
  1.467319e+01    2.222425e+00
  1.468906e+01    2.195926e+00
  1.470494e+01    2.216720e+00
  1.472081e+01    2.222291e+00
  1.473669e+01    2.212482e+00
  1.475256e+01    2.208336e+00
  1.476844e+01    2.203668e+00
  1.478432e+01    2.178252e+00
  1.480019e+01    2.194772e+00
  1.481607e+01    2.246192e+00
  1.483194e+01    2.231031e+00
  1.484782e+01    2.243894e+00
  1.486369e+01    2.249091e+00
  1.487957e+01    2.240963e+00
  1.489544e+01    2.214391e+00
  1.491132e+01    2.207878e+00
  1.492720e+01    2.254755e+00
  1.494307e+01    2.327155e+00
  1.495895e+01    2.320254e+00
  1.497482e+01    2.315376e+00
  1.499070e+01    2.393952e+00
  1.500657e+01    2.454325e+00
  1.502245e+01    2.476506e+00
  1.503832e+01    2.630515e+00
  1.505420e+01    2.715890e+00
  1.507008e+01    2.801366e+00
  1.508595e+01    2.999276e+00
  1.510183e+01    3.180898e+00
  1.511770e+01    3.390135e+00
  1.513358e+01    3.774497e+00
  1.514945e+01    4.211487e+00
  1.516533e+01    4.537610e+00
  1.518120e+01    4.781085e+00
  1.519708e+01    5.112030e+00
  1.521296e+01    5.406487e+00
  1.522883e+01    5.575877e+00
  1.524471e+01    5.703563e+00
  1.526058e+01    5.789351e+00
  1.527646e+01    5.708253e+00
  1.529233e+01    5.487551e+00
  1.530821e+01    5.150123e+00
  1.532409e+01    4.631182e+00
  1.533996e+01    4.196274e+00
  1.535584e+01    3.791767e+00
  1.537171e+01    3.394114e+00
  1.538759e+01    3.143912e+00
  1.540346e+01    2.953595e+00
  1.541934e+01    2.820243e+00
  1.543521e+01    2.621710e+00
  1.545109e+01    2.511275e+00
  1.546697e+01    2.462608e+00
  1.548284e+01    2.405313e+00
  1.549872e+01    2.390282e+00
  1.551459e+01    2.308096e+00
  1.553047e+01    2.213057e+00
  1.554634e+01    2.178910e+00
  1.556222e+01    2.166089e+00
  1.557809e+01    2.161842e+00
  1.559397e+01    2.134839e+00
  1.560985e+01    2.066474e+00
  1.562572e+01    2.046538e+00
  1.564160e+01    2.022768e+00
  1.565747e+01    1.993860e+00
  1.567335e+01    2.030151e+00
  1.568922e+01    2.052079e+00
  1.570510e+01    2.048655e+00
  1.572097e+01    2.011590e+00
  1.573685e+01    1.981010e+00
  1.575273e+01    1.966024e+00
  1.576860e+01    1.977098e+00
  1.578448e+01    1.986634e+00
  1.580035e+01    1.928710e+00
  1.581623e+01    1.928276e+00
  1.583210e+01    1.944773e+00
  1.584798e+01    1.943330e+00
  1.586385e+01    1.968171e+00
  1.587973e+01    1.950243e+00
  1.589561e+01    1.923125e+00
  1.591148e+01    1.947926e+00
  1.592736e+01    1.933155e+00
  1.594323e+01    1.869497e+00
  1.595911e+01    1.874324e+00
  1.597498e+01    1.885821e+00
  1.599086e+01    1.887114e+00
  1.600673e+01    1.873553e+00
  1.602261e+01    1.858709e+00
  1.603849e+01    1.881558e+00
  1.605436e+01    1.866499e+00
  1.607024e+01    1.859563e+00
  1.608611e+01    1.880461e+00
  1.610199e+01    1.842836e+00
  1.611786e+01    1.854193e+00
  1.613374e+01    1.863823e+00
  1.614961e+01    1.860071e+00
  1.616549e+01    1.823528e+00
  1.618137e+01    1.818568e+00
  1.619724e+01    1.804584e+00
  1.621312e+01    1.844746e+00
  1.622899e+01    1.867336e+00
  1.624487e+01    1.834628e+00
  1.626074e+01    1.814408e+00
  1.627662e+01    1.822140e+00
  1.629250e+01    1.816305e+00
  1.630837e+01    1.815652e+00
  1.632425e+01    1.837264e+00
  1.634012e+01    1.822987e+00
  1.635600e+01    1.828310e+00
  1.637187e+01    1.842573e+00
  1.638775e+01    1.788028e+00
  1.640362e+01    1.767857e+00
  1.641950e+01    1.770873e+00
  1.643538e+01    1.784068e+00
  1.645125e+01    1.806909e+00
  1.646713e+01    1.810375e+00
  1.648300e+01    1.777967e+00
  1.649888e+01    1.757797e+00
  1.651475e+01    1.818349e+00
  1.653063e+01    1.743909e+00
  1.654650e+01    1.735248e+00
  1.656238e+01    1.761860e+00
  1.657826e+01    1.746884e+00
  1.659413e+01    1.756459e+00
  1.661001e+01    1.748452e+00
  1.662588e+01    1.744399e+00
  1.664176e+01    1.741711e+00
  1.665763e+01    1.721267e+00
  1.667351e+01    1.717367e+00
  1.668938e+01    1.725103e+00
  1.670526e+01    1.722261e+00
  1.672114e+01    1.725215e+00
  1.673701e+01    1.696940e+00
  1.675289e+01    1.693261e+00
  1.676876e+01    1.703498e+00
  1.678464e+01    1.716444e+00
  1.680051e+01    1.724041e+00
  1.681639e+01    1.731412e+00
  1.683226e+01    1.739988e+00
  1.684814e+01    1.713789e+00
  1.686402e+01    1.676005e+00
  1.687989e+01    1.680410e+00
  1.689577e+01    1.711135e+00
  1.691164e+01    1.701533e+00
  1.692752e+01    1.723300e+00
  1.694339e+01    1.684293e+00
  1.695927e+01    1.695614e+00
  1.697514e+01    1.713509e+00
  1.699102e+01    1.687949e+00
  1.700690e+01    1.663488e+00
  1.702277e+01    1.657328e+00
  1.703865e+01    1.683535e+00
  1.705452e+01    1.715716e+00
  1.707040e+01    1.665104e+00
  1.708627e+01    1.628151e+00
  1.710215e+01    1.677539e+00
  1.711802e+01    1.686839e+00
  1.713390e+01    1.642422e+00
  1.714978e+01    1.651044e+00
  1.716565e+01    1.634005e+00
  1.718153e+01    1.650687e+00
  1.719740e+01    1.638628e+00
  1.721328e+01    1.670961e+00
  1.722915e+01    1.662619e+00
  1.724503e+01    1.634909e+00
  1.726091e+01    1.645125e+00
  1.727678e+01    1.574694e+00
  1.729266e+01    1.621847e+00
  1.730853e+01    1.636068e+00
  1.732441e+01    1.604526e+00
  1.734028e+01    1.616062e+00
  1.735616e+01    1.594776e+00
  1.737203e+01    1.594417e+00
  1.738791e+01    1.623062e+00
  1.740379e+01    1.625244e+00
  1.741966e+01    1.624052e+00
  1.743554e+01    1.627600e+00
  1.745141e+01    1.596838e+00
  1.746729e+01    1.577395e+00
  1.748316e+01    1.584557e+00
  1.749904e+01    1.578734e+00
  1.751491e+01    1.552219e+00
  1.753079e+01    1.579476e+00
  1.754667e+01    1.551629e+00
  1.756254e+01    1.576667e+00
  1.757842e+01    1.581247e+00
  1.759429e+01    1.600663e+00
  1.761017e+01    1.573145e+00
  1.762604e+01    1.563083e+00
  1.764192e+01    1.561469e+00
  1.765779e+01    1.551582e+00
  1.767367e+01    1.581658e+00
  1.768955e+01    1.590509e+00
  1.770542e+01    1.563627e+00
  1.772130e+01    1.546468e+00
  1.773717e+01    1.556281e+00
  1.775305e+01    1.549181e+00
  1.776892e+01    1.547077e+00
  1.778480e+01    1.563788e+00
  1.780067e+01    1.562541e+00
  1.781655e+01    1.543176e+00
  1.783243e+01    1.554925e+00
  1.784830e+01    1.544102e+00
  1.786418e+01    1.528255e+00
  1.788005e+01    1.535091e+00
  1.789593e+01    1.531692e+00
  1.791180e+01    1.529858e+00
  1.792768e+01    1.513018e+00
  1.794355e+01    1.519861e+00
  1.795943e+01    1.513479e+00
  1.797531e+01    1.521754e+00
  1.799118e+01    1.509573e+00
  1.800706e+01    1.522274e+00
  1.802293e+01    1.487625e+00
  1.803881e+01    1.518658e+00
  1.805468e+01    1.508377e+00
  1.807056e+01    1.477303e+00
  1.808643e+01    1.485527e+00
  1.810231e+01    1.500004e+00
  1.811819e+01    1.473472e+00
  1.813406e+01    1.486999e+00
  1.814994e+01    1.493846e+00
  1.816581e+01    1.496061e+00
  1.818169e+01    1.479339e+00
  1.819756e+01    1.447039e+00
  1.821344e+01    1.490509e+00
  1.822932e+01    1.517496e+00
  1.824519e+01    1.493218e+00
  1.826107e+01    1.458875e+00
  1.827694e+01    1.471784e+00
  1.829282e+01    1.483608e+00
  1.830869e+01    1.463795e+00
  1.832457e+01    1.483809e+00
  1.834044e+01    1.445199e+00
  1.835632e+01    1.460273e+00
  1.837220e+01    1.462850e+00
  1.838807e+01    1.460910e+00
  1.840395e+01    1.480258e+00
  1.841982e+01    1.464055e+00
  1.843570e+01    1.479386e+00
  1.845157e+01    1.472382e+00
  1.846745e+01    1.449094e+00
  1.848332e+01    1.462957e+00
  1.849920e+01    1.455727e+00
  1.851508e+01    1.475500e+00
  1.853095e+01    1.466805e+00
  1.854683e+01    1.431882e+00
  1.856270e+01    1.436690e+00
  1.857858e+01    1.454768e+00
  1.859445e+01    1.457080e+00
  1.861033e+01    1.452967e+00
  1.862620e+01    1.437992e+00
  1.864208e+01    1.418019e+00
  1.865796e+01    1.407035e+00
  1.867383e+01    1.415120e+00
  1.868971e+01    1.432330e+00
  1.870558e+01    1.415211e+00
  1.872146e+01    1.436155e+00
  1.873733e+01    1.440175e+00
  1.875321e+01    1.443755e+00
  1.876908e+01    1.465485e+00
  1.878496e+01    1.453707e+00
  1.880084e+01    1.413474e+00
  1.881671e+01    1.399613e+00
  1.883259e+01    1.405414e+00
  1.884846e+01    1.402411e+00
  1.886434e+01    1.433935e+00
  1.888021e+01    1.397709e+00
  1.889609e+01    1.404494e+00
  1.891196e+01    1.422916e+00
  1.892784e+01    1.399664e+00
  1.894372e+01    1.400188e+00
  1.895959e+01    1.402647e+00
  1.897547e+01    1.390225e+00
  1.899134e+01    1.396437e+00
  1.900722e+01    1.431249e+00
  1.902309e+01    1.395667e+00
  1.903897e+01    1.374764e+00
  1.905484e+01    1.376927e+00
  1.907072e+01    1.382129e+00
  1.908660e+01    1.365186e+00
  1.910247e+01    1.387926e+00
  1.911835e+01    1.387891e+00
  1.913422e+01    1.379421e+00
  1.915010e+01    1.399103e+00
  1.916597e+01    1.384708e+00
  1.918185e+01    1.364859e+00
  1.919773e+01    1.349345e+00
  1.921360e+01    1.379049e+00
  1.922948e+01    1.379069e+00
  1.924535e+01    1.355225e+00
  1.926123e+01    1.361745e+00
  1.927710e+01    1.345490e+00
  1.929298e+01    1.337619e+00
  1.930885e+01    1.332658e+00
  1.932473e+01    1.338593e+00
  1.934061e+01    1.348581e+00
  1.935648e+01    1.359852e+00
  1.937236e+01    1.348871e+00
  1.938823e+01    1.365270e+00
  1.940411e+01    1.377855e+00
  1.941998e+01    1.351056e+00
  1.943586e+01    1.333536e+00
  1.945173e+01    1.359849e+00
  1.946761e+01    1.338724e+00
  1.948349e+01    1.335116e+00
  1.949936e+01    1.322380e+00
  1.951524e+01    1.330574e+00
  1.953111e+01    1.339351e+00
  1.954699e+01    1.331607e+00
  1.956286e+01    1.325239e+00
  1.957874e+01    1.319419e+00
  1.959461e+01    1.319566e+00
  1.961049e+01    1.337968e+00
  1.962637e+01    1.332215e+00
  1.964224e+01    1.295489e+00
  1.965812e+01    1.317499e+00
  1.967399e+01    1.334353e+00
  1.968987e+01    1.320319e+00
  1.970574e+01    1.290379e+00
  1.972162e+01    1.304677e+00
  1.973749e+01    1.283879e+00
  1.975337e+01    1.305042e+00
  1.976925e+01    1.305137e+00
  1.978512e+01    1.291881e+00
  1.980100e+01    1.309831e+00
  1.981687e+01    1.300816e+00
  1.983275e+01    1.291939e+00
  1.984862e+01    1.275996e+00
  1.986450e+01    1.289426e+00
  1.988037e+01    1.295500e+00
  1.989625e+01    1.290841e+00
  1.991213e+01    1.298350e+00
  1.992800e+01    1.297218e+00
  1.994388e+01    1.288591e+00
  1.995975e+01    1.276251e+00
  1.997563e+01    1.271065e+00
  1.999150e+01    1.287080e+00
  2.000738e+01    1.274154e+00
  2.002325e+01    1.302577e+00
  2.003913e+01    1.290250e+00
  2.005501e+01    1.290169e+00
  2.007088e+01    1.286022e+00
  2.008676e+01    1.287817e+00
  2.010263e+01    1.286549e+00
  2.011851e+01    1.295822e+00
  2.013438e+01    1.277876e+00
  2.015026e+01    1.275743e+00
  2.016614e+01    1.298563e+00
  2.018201e+01    1.264157e+00
  2.019789e+01    1.257779e+00
  2.021376e+01    1.268170e+00
  2.022964e+01    1.269637e+00
  2.024551e+01    1.258867e+00
  2.026139e+01    1.238437e+00
  2.027726e+01    1.251119e+00
  2.029314e+01    1.259570e+00
  2.030902e+01    1.269073e+00
  2.032489e+01    1.268562e+00
  2.034077e+01    1.273071e+00
  2.035664e+01    1.281829e+00
  2.037252e+01    1.257200e+00
  2.038839e+01    1.267281e+00
  2.040427e+01    1.270216e+00
  2.042014e+01    1.258377e+00
  2.043602e+01    1.254275e+00
  2.045190e+01    1.244259e+00
  2.046777e+01    1.234002e+00
  2.048365e+01    1.241711e+00
  2.049952e+01    1.263639e+00
  2.051540e+01    1.252324e+00
  2.053127e+01    1.260182e+00
  2.054715e+01    1.256019e+00
  2.056302e+01    1.255949e+00
  2.057890e+01    1.240564e+00
  2.059478e+01    1.240928e+00
  2.061065e+01    1.259405e+00
  2.062653e+01    1.250260e+00
  2.064240e+01    1.212209e+00
  2.065828e+01    1.229978e+00
  2.067415e+01    1.239538e+00
  2.069003e+01    1.255522e+00
  2.070590e+01    1.262413e+00
  2.072178e+01    1.230247e+00
  2.073766e+01    1.240333e+00
  2.075353e+01    1.231916e+00
  2.076941e+01    1.221195e+00
  2.078528e+01    1.254752e+00
  2.080116e+01    1.239089e+00
  2.081703e+01    1.240234e+00
  2.083291e+01    1.241833e+00
  2.084878e+01    1.248499e+00
  2.086466e+01    1.244193e+00
  2.088054e+01    1.244194e+00
  2.089641e+01    1.229396e+00
  2.091229e+01    1.241167e+00
  2.092816e+01    1.242581e+00
  2.094404e+01    1.245912e+00
  2.095991e+01    1.234565e+00
  2.097579e+01    1.219123e+00
  2.099166e+01    1.242926e+00
  2.100754e+01    1.219679e+00
  2.102342e+01    1.216555e+00
  2.103929e+01    1.223847e+00
  2.105517e+01    1.225914e+00
  2.107104e+01    1.216708e+00
  2.108692e+01    1.212702e+00
  2.110279e+01    1.228141e+00
  2.111867e+01    1.251805e+00
  2.113455e+01    1.242437e+00
  2.115042e+01    1.242975e+00
  2.116630e+01    1.235256e+00
  2.118217e+01    1.233227e+00
  2.119805e+01    1.257292e+00
  2.121392e+01    1.255668e+00
  2.122980e+01    1.248296e+00
  2.124567e+01    1.231971e+00
  2.126155e+01    1.227074e+00
  2.127743e+01    1.257007e+00
  2.129330e+01    1.267496e+00
  2.130918e+01    1.274405e+00
  2.132505e+01    1.275250e+00
  2.134093e+01    1.267517e+00
  2.135680e+01    1.263227e+00
  2.137268e+01    1.311590e+00
  2.138855e+01    1.333767e+00
  2.140443e+01    1.328856e+00
  2.142031e+01    1.340586e+00
  2.143618e+01    1.347113e+00
  2.145206e+01    1.349876e+00
  2.146793e+01    1.376751e+00
  2.148381e+01    1.402647e+00
  2.149968e+01    1.420649e+00
  2.151556e+01    1.431341e+00
  2.153143e+01    1.474538e+00
  2.154731e+01    1.505957e+00
  2.156319e+01    1.569406e+00
  2.157906e+01    1.610480e+00
  2.159494e+01    1.671136e+00
  2.161081e+01    1.737876e+00
  2.162669e+01    1.848844e+00
  2.164256e+01    1.982044e+00
  2.165844e+01    2.126278e+00
  2.167431e+01    2.280387e+00
  2.169019e+01    2.518092e+00
  2.170607e+01    2.795262e+00
  2.172194e+01    3.102474e+00
  2.173782e+01    3.479855e+00
  2.175369e+01    3.967957e+00
  2.176957e+01    4.546526e+00
  2.178544e+01    5.159118e+00
  2.180132e+01    5.834868e+00
  2.181719e+01    6.463853e+00
  2.183307e+01    7.137987e+00
  2.184895e+01    7.812840e+00
  2.186482e+01    8.357561e+00
  2.188070e+01    8.733069e+00
  2.189657e+01    8.910892e+00
  2.191245e+01    8.764307e+00
  2.192832e+01    8.262225e+00
  2.194420e+01    7.541591e+00
  2.196007e+01    6.631510e+00
  2.197595e+01    5.701704e+00
  2.199183e+01    4.875742e+00
  2.200770e+01    4.204450e+00
  2.202358e+01    3.695521e+00
  2.203945e+01    3.187324e+00
  2.205533e+01    2.828037e+00
  2.207120e+01    2.561862e+00
  2.208708e+01    2.353592e+00
  2.210296e+01    2.160990e+00
  2.211883e+01    1.992941e+00
  2.213471e+01    1.870228e+00
  2.215058e+01    1.766482e+00
  2.216646e+01    1.694078e+00
  2.218233e+01    1.590379e+00
  2.219821e+01    1.535868e+00
  2.221408e+01    1.497579e+00
  2.222996e+01    1.458512e+00
  2.224584e+01    1.412568e+00
  2.226171e+01    1.357325e+00
  2.227759e+01    1.328686e+00
  2.229346e+01    1.308966e+00
  2.230934e+01    1.292652e+00
  2.232521e+01    1.284770e+00
  2.234109e+01    1.271854e+00
  2.235696e+01    1.266490e+00
  2.237284e+01    1.249557e+00
  2.238872e+01    1.227644e+00
  2.240459e+01    1.220600e+00
  2.242047e+01    1.195968e+00
  2.243634e+01    1.185222e+00
  2.245222e+01    1.181395e+00
  2.246809e+01    1.172535e+00
  2.248397e+01    1.155832e+00
  2.249984e+01    1.147152e+00
  2.251572e+01    1.145156e+00
  2.253160e+01    1.125433e+00
  2.254747e+01    1.127886e+00
  2.256335e+01    1.141157e+00
  2.257922e+01    1.115326e+00
  2.259510e+01    1.109935e+00
  2.261097e+01    1.102468e+00
  2.262685e+01    1.102946e+00
  2.264272e+01    1.115794e+00
  2.265860e+01    1.119614e+00
  2.267448e+01    1.102521e+00
  2.269035e+01    1.083808e+00
  2.270623e+01    1.085663e+00
  2.272210e+01    1.082814e+00
  2.273798e+01    1.099693e+00
  2.275385e+01    1.079182e+00
  2.276973e+01    1.067289e+00
  2.278560e+01    1.075482e+00
  2.280148e+01    1.073766e+00
  2.281736e+01    1.066820e+00
  2.283323e+01    1.061624e+00
  2.284911e+01    1.032144e+00
  2.286498e+01    1.027076e+00
  2.288086e+01    1.028609e+00
  2.289673e+01    1.037719e+00
  2.291261e+01    1.035777e+00
  2.292848e+01    1.037314e+00
  2.294436e+01    1.031662e+00
  2.296024e+01    1.032247e+00
  2.297611e+01    1.047948e+00
  2.299199e+01    1.027554e+00
  2.300786e+01    1.031762e+00
  2.302374e+01    1.028364e+00
  2.303961e+01    1.032601e+00
  2.305549e+01    1.021252e+00
  2.307137e+01    9.925070e-01
  2.308724e+01    9.994473e-01
  2.310312e+01    1.007589e+00
  2.311899e+01    1.010028e+00
  2.313487e+01    1.002161e+00
  2.315074e+01    9.907205e-01
  2.316662e+01    9.904848e-01
  2.318249e+01    1.021614e+00
  2.319837e+01    1.005911e+00
  2.321425e+01    9.995869e-01
  2.323012e+01    9.784899e-01
  2.324600e+01    9.872193e-01
  2.326187e+01    9.891014e-01
  2.327775e+01    9.862204e-01
  2.329362e+01    9.853660e-01
  2.330950e+01    9.628873e-01
  2.332537e+01    9.664984e-01
  2.334125e+01    9.683185e-01
  2.335713e+01    9.803181e-01
  2.337300e+01    9.796576e-01
  2.338888e+01    9.657807e-01
  2.340475e+01    9.822164e-01
  2.342063e+01    9.892543e-01
  2.343650e+01    9.702407e-01
  2.345238e+01    9.700196e-01
  2.346825e+01    9.764854e-01
  2.348413e+01    9.846578e-01
  2.350001e+01    9.803914e-01
  2.351588e+01    9.708195e-01
  2.353176e+01    9.501860e-01
  2.354763e+01    9.753852e-01
  2.356351e+01    9.741831e-01
  2.357938e+01    9.693425e-01
  2.359526e+01    9.422771e-01
  2.361113e+01    9.614948e-01
  2.362701e+01    9.674669e-01
  2.364289e+01    9.728774e-01
  2.365876e+01    9.607226e-01
  2.367464e+01    9.389014e-01
  2.369051e+01    9.504297e-01
  2.370639e+01    9.428136e-01
  2.372226e+01    9.523847e-01
  2.373814e+01    9.604895e-01
  2.375401e+01    9.455135e-01
  2.376989e+01    9.308108e-01
  2.378577e+01    9.071559e-01
  2.380164e+01    9.286292e-01
  2.381752e+01    9.219580e-01
  2.383339e+01    9.065945e-01
  2.384927e+01    9.065241e-01
  2.386514e+01    9.014001e-01
  2.388102e+01    9.270278e-01
  2.389689e+01    9.290750e-01
  2.391277e+01    9.122192e-01
  2.392865e+01    9.068978e-01
  2.394452e+01    9.094342e-01
  2.396040e+01    9.129794e-01
  2.397627e+01    9.243506e-01
  2.399215e+01    9.027414e-01
  2.400802e+01    8.908339e-01
  2.402390e+01    9.085263e-01
  2.403978e+01    9.027959e-01
  2.405565e+01    8.979937e-01
  2.407153e+01    8.951433e-01
  2.408740e+01    8.961393e-01
  2.410328e+01    8.765416e-01
  2.411915e+01    8.800013e-01
  2.413503e+01    9.158629e-01
  2.415090e+01    9.075153e-01
  2.416678e+01    8.940983e-01
  2.418266e+01    8.835532e-01
  2.419853e+01    8.989966e-01
  2.421441e+01    8.952350e-01
  2.423028e+01    8.859010e-01
  2.424616e+01    8.845372e-01
  2.426203e+01    9.011226e-01
  2.427791e+01    9.055970e-01
  2.429378e+01    8.822715e-01
  2.430966e+01    8.802040e-01
  2.432554e+01    8.978441e-01
  2.434141e+01    8.891313e-01
  2.435729e+01    8.872277e-01
  2.437316e+01    8.921963e-01
  2.438904e+01    8.934786e-01
  2.440491e+01    9.034681e-01
  2.442079e+01    9.055548e-01
  2.443666e+01    8.806134e-01
  2.445254e+01    8.822489e-01
  2.446842e+01    8.937033e-01
  2.448429e+01    8.883131e-01
  2.450017e+01    9.017957e-01
  2.451604e+01    8.875586e-01
  2.453192e+01    9.028580e-01
  2.454779e+01    9.141493e-01
  2.456367e+01    9.018224e-01
  2.457954e+01    8.963188e-01
  2.459542e+01    8.895688e-01
  2.461130e+01    8.924536e-01
  2.462717e+01    9.009113e-01
  2.464305e+01    8.948576e-01
  2.465892e+01    9.055011e-01
  2.467480e+01    9.046148e-01
  2.469067e+01    8.880830e-01
  2.470655e+01    9.129855e-01
  2.472242e+01    9.128646e-01
  2.473830e+01    8.871391e-01
  2.475418e+01    8.876756e-01
  2.477005e+01    8.990520e-01
  2.478593e+01    9.007538e-01
  2.480180e+01    8.988574e-01
  2.481768e+01    8.809153e-01
  2.483355e+01    8.821471e-01
  2.484943e+01    8.762117e-01
  2.486530e+01    8.871859e-01
  2.488118e+01    8.867912e-01
  2.489706e+01    8.844187e-01
  2.491293e+01    8.889211e-01
  2.492881e+01    8.922689e-01
  2.494468e+01    8.970363e-01
  2.496056e+01    8.943327e-01
  2.497643e+01    8.952140e-01
  2.499231e+01    8.923531e-01
  2.500819e+01    9.001197e-01
  2.502406e+01    9.083802e-01
  2.503994e+01    8.887389e-01
  2.505581e+01    8.886776e-01
  2.507169e+01    9.012077e-01
  2.508756e+01    8.973516e-01
  2.510344e+01    8.908129e-01
  2.511931e+01    8.950172e-01
  2.513519e+01    9.167278e-01
  2.515107e+01    8.978212e-01
  2.516694e+01    9.055430e-01
  2.518282e+01    9.200681e-01
  2.519869e+01    9.406807e-01
  2.521457e+01    9.281461e-01
  2.523044e+01    9.259909e-01
  2.524632e+01    9.387903e-01
  2.526219e+01    9.486808e-01
  2.527807e+01    9.593438e-01
  2.529395e+01    9.600902e-01
  2.530982e+01    9.670029e-01
  2.532570e+01    9.596706e-01
  2.534157e+01    9.621686e-01
  2.535745e+01    9.599349e-01
  2.537332e+01    9.828370e-01
  2.538920e+01    9.905476e-01
  2.540507e+01    9.960940e-01
  2.542095e+01    1.020882e+00
  2.543683e+01    1.015584e+00
  2.545270e+01    1.017290e+00
  2.546858e+01    1.047227e+00
  2.548445e+01    1.038330e+00
  2.550033e+01    1.073569e+00
  2.551620e+01    1.089367e+00
  2.553208e+01    1.074760e+00
  2.554795e+01    1.100128e+00
  2.556383e+01    1.140693e+00
  2.557971e+01    1.157356e+00
  2.559558e+01    1.176016e+00
  2.561146e+01    1.221547e+00
  2.562733e+01    1.250293e+00
  2.564321e+01    1.303292e+00
  2.565908e+01    1.343215e+00
  2.567496e+01    1.406405e+00
  2.569083e+01    1.502382e+00
  2.570671e+01    1.599107e+00
  2.572259e+01    1.699217e+00
  2.573846e+01    1.826811e+00
  2.575434e+01    1.960057e+00
  2.577021e+01    2.172673e+00
  2.578609e+01    2.501065e+00
  2.580196e+01    2.813956e+00
  2.581784e+01    3.151571e+00
  2.583371e+01    3.574963e+00
  2.584959e+01    4.084425e+00
  2.586547e+01    4.645465e+00
  2.588134e+01    5.260698e+00
  2.589722e+01    5.801521e+00
  2.591309e+01    6.268432e+00
  2.592897e+01    6.741711e+00
  2.594484e+01    7.003666e+00
  2.596072e+01    7.121973e+00
  2.597660e+01    6.969962e+00
  2.599247e+01    6.595866e+00
  2.600835e+01    6.058161e+00
  2.602422e+01    5.362032e+00
  2.604010e+01    4.633378e+00
  2.605597e+01    4.005007e+00
  2.607185e+01    3.490519e+00
  2.608772e+01    3.053640e+00
  2.610360e+01    2.701705e+00
  2.611948e+01    2.397014e+00
  2.613535e+01    2.165060e+00
  2.615123e+01    1.933601e+00
  2.616710e+01    1.802292e+00
  2.618298e+01    1.699274e+00
  2.619885e+01    1.574680e+00
  2.621473e+01    1.483794e+00
  2.623060e+01    1.413248e+00
  2.624648e+01    1.357623e+00
  2.626236e+01    1.294721e+00
  2.627823e+01    1.238152e+00
  2.629411e+01    1.198334e+00
  2.630998e+01    1.174548e+00
  2.632586e+01    1.150930e+00
  2.634173e+01    1.116071e+00
  2.635761e+01    1.102121e+00
  2.637348e+01    1.077413e+00
  2.638936e+01    1.076072e+00
  2.640524e+01    1.086059e+00
  2.642111e+01    1.054616e+00
  2.643699e+01    1.021298e+00
  2.645286e+01    1.000010e+00
  2.646874e+01    1.020655e+00
  2.648461e+01    1.029336e+00
  2.650049e+01    1.018424e+00
  2.651636e+01    1.019305e+00
  2.653224e+01    9.980072e-01
  2.654812e+01    9.752968e-01
  2.656399e+01    9.698375e-01
  2.657987e+01    1.005362e+00
  2.659574e+01    9.958751e-01
  2.661162e+01    9.855095e-01
  2.662749e+01    9.666691e-01
  2.664337e+01    9.666224e-01
  2.665924e+01    9.808901e-01
  2.667512e+01    9.706038e-01
  2.669100e+01    9.666662e-01
  2.670687e+01    9.519181e-01
  2.672275e+01    9.570388e-01
  2.673862e+01    9.597141e-01
  2.675450e+01    9.425223e-01
  2.677037e+01    9.416976e-01
  2.678625e+01    9.759654e-01
  2.680212e+01    9.742186e-01
  2.681800e+01    9.500216e-01
  2.683388e+01    9.612501e-01
  2.684975e+01    9.713442e-01
  2.686563e+01    9.877352e-01
  2.688150e+01    1.002283e+00
  2.689738e+01    9.920819e-01
  2.691325e+01    1.002173e+00
  2.692913e+01    1.008436e+00
  2.694501e+01    1.026135e+00
  2.696088e+01    1.050774e+00
  2.697676e+01    1.080608e+00
  2.699263e+01    1.090563e+00
  2.700851e+01    1.127497e+00
  2.702438e+01    1.164747e+00
  2.704026e+01    1.194273e+00
  2.705613e+01    1.256701e+00
  2.707201e+01    1.327936e+00
  2.708789e+01    1.383417e+00
  2.710376e+01    1.495283e+00
  2.711964e+01    1.582020e+00
  2.713551e+01    1.709349e+00
  2.715139e+01    1.824015e+00
  2.716726e+01    1.945434e+00
  2.718314e+01    2.063814e+00
  2.719901e+01    2.132034e+00
  2.721489e+01    2.154308e+00
  2.723077e+01    2.177362e+00
  2.724664e+01    2.098029e+00
  2.726252e+01    1.992003e+00
  2.727839e+01    1.848168e+00
  2.729427e+01    1.710231e+00
  2.731014e+01    1.580030e+00
  2.732602e+01    1.435900e+00
  2.734189e+01    1.348142e+00
  2.735777e+01    1.280782e+00
  2.737365e+01    1.203341e+00
  2.738952e+01    1.180859e+00
  2.740540e+01    1.168244e+00
  2.742127e+01    1.087369e+00
  2.743715e+01    1.037595e+00
  2.745302e+01    1.032473e+00
  2.746890e+01    1.013035e+00
  2.748477e+01    9.808315e-01
  2.750065e+01    9.869383e-01
  2.751653e+01    9.766420e-01
  2.753240e+01    9.756160e-01
  2.754828e+01    9.627606e-01
  2.756415e+01    9.663752e-01
  2.758003e+01    9.416116e-01
  2.759590e+01    9.296218e-01
  2.761178e+01    9.159002e-01
  2.762765e+01    9.062841e-01
  2.764353e+01    9.005276e-01
  2.765941e+01    8.968239e-01
  2.767528e+01    9.129164e-01
  2.769116e+01    9.059744e-01
  2.770703e+01    8.860915e-01
  2.772291e+01    8.904895e-01
  2.773878e+01    8.925861e-01
  2.775466e+01    8.953571e-01
  2.777054e+01    9.058443e-01
  2.778641e+01    9.065623e-01
  2.780229e+01    9.076287e-01
  2.781816e+01    8.857779e-01
  2.783404e+01    9.016291e-01
  2.784991e+01    8.963871e-01
  2.786579e+01    8.813208e-01
  2.788166e+01    8.809934e-01
  2.789754e+01    8.826135e-01
  2.791342e+01    8.874043e-01
  2.792929e+01    8.875535e-01
  2.794517e+01    8.967257e-01
  2.796104e+01    8.872800e-01
  2.797692e+01    8.534136e-01
  2.799279e+01    8.449200e-01
  2.800867e+01    8.518176e-01
  2.802454e+01    8.673052e-01
  2.804042e+01    8.640697e-01
  2.805630e+01    8.645588e-01
  2.807217e+01    8.498319e-01
  2.808805e+01    8.625259e-01
  2.810392e+01    8.769960e-01
  2.811980e+01    8.656849e-01
  2.813567e+01    8.564578e-01
  2.815155e+01    8.498942e-01
  2.816742e+01    8.645354e-01
  2.818330e+01    8.494238e-01
  2.819918e+01    8.569846e-01
  2.821505e+01    8.662168e-01
  2.823093e+01    8.763750e-01
  2.824680e+01    8.623888e-01
  2.826268e+01    8.484534e-01
  2.827855e+01    8.408251e-01
  2.829443e+01    8.460238e-01
  2.831030e+01    8.463214e-01
  2.832618e+01    8.517812e-01
  2.834206e+01    8.639653e-01
  2.835793e+01    8.420433e-01
  2.837381e+01    8.527618e-01
  2.838968e+01    8.548536e-01
  2.840556e+01    8.417941e-01
  2.842143e+01    8.467057e-01
  2.843731e+01    8.580136e-01
  2.845318e+01    8.449535e-01
  2.846906e+01    8.423382e-01
  2.848494e+01    8.458441e-01
  2.850081e+01    8.435478e-01
  2.851669e+01    8.416161e-01
  2.853256e+01    8.553568e-01
  2.854844e+01    8.376339e-01
  2.856431e+01    8.471152e-01
  2.858019e+01    8.558012e-01
  2.859606e+01    8.423074e-01
  2.861194e+01    8.396865e-01
  2.862782e+01    8.540155e-01
  2.864369e+01    8.547069e-01
  2.865957e+01    8.428000e-01
  2.867544e+01    8.443853e-01
  2.869132e+01    8.344777e-01
  2.870719e+01    8.508356e-01
  2.872307e+01    8.496683e-01
  2.873895e+01    8.293039e-01
  2.875482e+01    8.170725e-01
  2.877070e+01    8.351317e-01
  2.878657e+01    8.437958e-01
  2.880245e+01    8.393878e-01
  2.881832e+01    8.322856e-01
  2.883420e+01    8.288425e-01
  2.885007e+01    8.043055e-01
  2.886595e+01    8.165537e-01
  2.888183e+01    8.281416e-01
  2.889770e+01    8.274333e-01
  2.891358e+01    8.297750e-01
  2.892945e+01    8.252336e-01
  2.894533e+01    8.192374e-01
  2.896120e+01    8.280087e-01
  2.897708e+01    8.284138e-01
  2.899295e+01    8.294078e-01
  2.900883e+01    8.190455e-01
  2.902471e+01    8.145286e-01
  2.904058e+01    8.224325e-01
  2.905646e+01    8.080956e-01
  2.907233e+01    7.934837e-01
  2.908821e+01    8.152211e-01
  2.910408e+01    8.066446e-01
  2.911996e+01    8.124613e-01
  2.913583e+01    8.270917e-01
  2.915171e+01    8.084179e-01
  2.916759e+01    8.086839e-01
  2.918346e+01    8.111862e-01
  2.919934e+01    8.100633e-01
  2.921521e+01    8.184472e-01
  2.923109e+01    8.250530e-01
  2.924696e+01    8.233619e-01
  2.926284e+01    8.075376e-01
  2.927871e+01    7.986791e-01
  2.929459e+01    8.291211e-01
  2.931047e+01    8.216847e-01
  2.932634e+01    8.182955e-01
  2.934222e+01    8.149287e-01
  2.935809e+01    7.840210e-01
  2.937397e+01    8.025171e-01
  2.938984e+01    8.068753e-01
  2.940572e+01    8.047608e-01
  2.942159e+01    7.979251e-01
  2.943747e+01    8.078294e-01
  2.945335e+01    8.237501e-01
  2.946922e+01    8.219063e-01
  2.948510e+01    8.251271e-01
  2.950097e+01    8.369468e-01
  2.951685e+01    8.112350e-01
  2.953272e+01    7.800943e-01
  2.954860e+01    7.902027e-01
  2.956447e+01    7.984959e-01
  2.958035e+01    8.008544e-01
  2.959623e+01    7.825986e-01
  2.961210e+01    7.990410e-01
  2.962798e+01    8.049329e-01
  2.964385e+01    7.832910e-01
  2.965973e+01    8.152463e-01
  2.967560e+01    8.060980e-01
  2.969148e+01    8.033966e-01
  2.970736e+01    8.182541e-01
  2.972323e+01    8.097407e-01
  2.973911e+01    7.922220e-01
  2.975498e+01    8.090522e-01
  2.977086e+01    8.001890e-01
  2.978673e+01    8.083129e-01
  2.980261e+01    8.087279e-01
  2.981848e+01    7.932698e-01
  2.983436e+01    8.011469e-01
  2.985024e+01    8.074020e-01
  2.986611e+01    8.046843e-01
  2.988199e+01    7.823228e-01
  2.989786e+01    8.047745e-01
  2.991374e+01    7.953565e-01
  2.992961e+01    7.793820e-01
  2.994549e+01    7.892709e-01
  2.996136e+01    8.040090e-01
  2.997724e+01    8.116205e-01
  2.999312e+01    8.106244e-01
  3.000899e+01    8.079273e-01
  3.002487e+01    8.204011e-01
  3.004074e+01    8.446571e-01
  3.005662e+01    8.371570e-01
  3.007249e+01    8.288686e-01
  3.008837e+01    8.143781e-01
  3.010424e+01    8.050919e-01
  3.012012e+01    8.272313e-01
  3.013600e+01    8.029929e-01
  3.015187e+01    7.882855e-01
  3.016775e+01    7.953526e-01
  3.018362e+01    7.992643e-01
  3.019950e+01    7.768970e-01
  3.021537e+01    7.791307e-01
  3.023125e+01    8.024793e-01
  3.024712e+01    8.026820e-01
  3.026300e+01    7.942199e-01
  3.027888e+01    7.840273e-01
  3.029475e+01    8.064225e-01
  3.031063e+01    8.129059e-01
  3.032650e+01    7.950087e-01
  3.034238e+01    7.939922e-01
  3.035825e+01    7.755936e-01
  3.037413e+01    7.922381e-01
  3.039000e+01    7.848466e-01
  3.040588e+01    7.856780e-01
  3.042176e+01    7.964764e-01
  3.043763e+01    7.933626e-01
  3.045351e+01    7.643867e-01
  3.046938e+01    7.778432e-01
  3.048526e+01    7.704960e-01
  3.050113e+01    7.664933e-01
  3.051701e+01    7.806390e-01
  3.053288e+01    7.887490e-01
  3.054876e+01    7.961602e-01
  3.056464e+01    8.103380e-01
  3.058051e+01    7.987355e-01
  3.059639e+01    7.867808e-01
  3.061226e+01    7.802851e-01
  3.062814e+01    7.986581e-01
  3.064401e+01    7.839998e-01
  3.065989e+01    7.769904e-01
  3.067577e+01    7.696543e-01
  3.069164e+01    7.853484e-01
  3.070752e+01    7.789769e-01
  3.072339e+01    7.672876e-01
  3.073927e+01    7.814230e-01
  3.075514e+01    7.902835e-01
  3.077102e+01    7.933967e-01
  3.078689e+01    7.869551e-01
  3.080277e+01    7.857358e-01
  3.081865e+01    7.925240e-01
  3.083452e+01    7.849373e-01
  3.085040e+01    8.087521e-01
  3.086627e+01    7.878700e-01
  3.088215e+01    7.750677e-01
  3.089802e+01    7.812067e-01
  3.091390e+01    7.887033e-01
  3.092977e+01    7.943470e-01
  3.094565e+01    7.711555e-01
  3.096153e+01    7.774147e-01
  3.097740e+01    7.835250e-01
  3.099328e+01    7.851836e-01
  3.100915e+01    7.997416e-01
  3.102503e+01    8.062688e-01
  3.104090e+01    8.212819e-01
  3.105678e+01    8.010765e-01
  3.107265e+01    7.942635e-01
  3.108853e+01    7.826018e-01
  3.110441e+01    7.822382e-01
  3.112028e+01    8.244364e-01
  3.113616e+01    7.901005e-01
  3.115203e+01    7.852432e-01
  3.116791e+01    7.751628e-01
  3.118378e+01    7.780419e-01
  3.119966e+01    7.875104e-01
  3.121553e+01    7.717670e-01
  3.123141e+01    7.874192e-01
  3.124729e+01    8.021245e-01
  3.126316e+01    8.001300e-01
  3.127904e+01    7.769241e-01
  3.129491e+01    7.873082e-01
  3.131079e+01    7.932999e-01
  3.132666e+01    8.072003e-01
  3.134254e+01    8.108268e-01
  3.135841e+01    8.021120e-01
  3.137429e+01    8.123409e-01
  3.139017e+01    8.105778e-01
  3.140604e+01    8.222260e-01
  3.142192e+01    8.108276e-01
  3.143779e+01    8.169490e-01
  3.145367e+01    8.297992e-01
  3.146954e+01    8.376189e-01
  3.148542e+01    8.369279e-01
  3.150129e+01    8.458154e-01
  3.151717e+01    8.378175e-01
  3.153305e+01    8.436941e-01
  3.154892e+01    8.444397e-01
  3.156480e+01    8.484516e-01
  3.158067e+01    8.731158e-01
  3.159655e+01    8.723174e-01
  3.161242e+01    9.037622e-01
  3.162830e+01    9.074534e-01
  3.164418e+01    9.283136e-01
  3.166005e+01    9.294429e-01
  3.167593e+01    9.565598e-01
  3.169180e+01    9.908895e-01
  3.170768e+01    1.016432e+00
  3.172355e+01    1.080708e+00
  3.173943e+01    1.134439e+00
  3.175530e+01    1.189192e+00
  3.177118e+01    1.261737e+00
  3.178706e+01    1.329139e+00
  3.180293e+01    1.415244e+00
  3.181881e+01    1.552186e+00
  3.183468e+01    1.691563e+00
  3.185056e+01    1.780365e+00
  3.186643e+01    1.914523e+00
  3.188231e+01    2.048907e+00
  3.189818e+01    2.093882e+00
  3.191406e+01    2.057492e+00
  3.192994e+01    1.987566e+00
  3.194581e+01    1.933769e+00
  3.196169e+01    1.839398e+00
  3.197756e+01    1.691687e+00
  3.199344e+01    1.562890e+00
  3.200931e+01    1.456130e+00
  3.202519e+01    1.327071e+00
  3.204106e+01    1.223553e+00
  3.205694e+01    1.171487e+00
  3.207282e+01    1.110814e+00
  3.208869e+01    1.068821e+00
  3.210457e+01    1.003032e+00
  3.212044e+01    1.000653e+00
  3.213632e+01    9.456652e-01
  3.215219e+01    8.976721e-01
  3.216807e+01    9.066637e-01
  3.218394e+01    8.891478e-01
  3.219982e+01    8.714602e-01
  3.221570e+01    8.508343e-01
  3.223157e+01    8.539012e-01
  3.224745e+01    8.447524e-01
  3.226332e+01    8.643366e-01
  3.227920e+01    8.326722e-01
  3.229507e+01    8.236268e-01
  3.231095e+01    8.054452e-01
  3.232682e+01    7.819846e-01
  3.234270e+01    7.876675e-01
  3.235858e+01    8.168045e-01
  3.237445e+01    8.047011e-01
  3.239033e+01    7.960678e-01
  3.240620e+01    7.899618e-01
  3.242208e+01    7.801719e-01
  3.243795e+01    7.808750e-01
  3.245383e+01    7.755935e-01
  3.246970e+01    7.813290e-01
  3.248558e+01    7.797618e-01
  3.250146e+01    7.955800e-01
  3.251733e+01    8.061717e-01
  3.253321e+01    7.619061e-01
  3.254908e+01    7.787363e-01
