# == pyFAI calibration ==
# Distance Sample to Detector: 0.3999999939076516 m
# PONI: 9.750e-02, 1.135e-01 m
# Rotations: -0.000175 0.000000 -0.000000 rad
# 
# == Fit2d calibration ==
# Distance Sample-beamCenter: 400.000 mm
# Center: x=1514.000, y=1300.000 pix
# Tilt: 0.010 deg  TiltPlanRot: 0.010 deg
# 
# Detector Detector	 Spline= None	 PixelSize= 7.500e-05, 7.500e-05 m
#    Detector has a mask: False 
#    Detector has a dark current: False 
#    detector has a flat field: False 
# 
# Wavelength: 6.888e-11 m
# Mask applied: user provided
# Dark current applied: False
# Flat field applied: False
# Polarization factor: 0.99
# Normalization factor: 1.0
# --> /home/myspot/data/2024_07_Rosario/Ru-CGO-ex/2024-07-27_003_Ru-CGO-ex_Reaction_dwell_000023_data_000137.dat
#       q_nm^-1             I 
  2.003187e-02    2.849293e-01
  3.590745e-02    0.000000e+00
  5.178302e-02    2.671064e-02
  6.765859e-02    5.597109e-02
  8.353417e-02    2.592503e-03
  9.940974e-02    4.021791e-02
  1.152853e-01    8.042735e-02
  1.311609e-01    6.267555e-02
  1.470365e-01    4.615516e-02
  1.629120e-01    2.810175e-02
  1.787876e-01    5.714674e-03
  1.946632e-01    3.301151e-03
  2.105388e-01    1.931425e-02
  2.264143e-01    2.413321e-02
  2.422899e-01    2.484329e-02
  2.581655e-01    3.712761e-03
  2.740411e-01    1.564143e-02
  2.899166e-01    6.128225e-02
  3.057922e-01    4.361747e-02
  3.216678e-01    4.785128e-02
  3.375433e-01    5.583175e-02
  3.534189e-01    7.003633e-02
  3.692945e-01    4.999907e-02
  3.851701e-01    4.066151e-02
  4.010456e-01    2.673641e-02
  4.169212e-01    3.006573e-02
  4.327968e-01    2.281420e-02
  4.486724e-01    6.425727e-03
  4.645479e-01    1.116055e-02
  4.804235e-01    2.595491e-02
  4.962991e-01    4.147510e-02
  5.121747e-01    4.246875e-02
  5.280502e-01    5.404429e-02
  5.439258e-01    3.584769e-02
  5.598014e-01    3.183480e-02
  5.756770e-01    3.461646e-02
  5.915525e-01    5.431134e-02
  6.074281e-01    3.769912e-02
  6.233037e-01    4.587967e-02
  6.391793e-01    5.927170e-02
  6.550548e-01    5.214719e-02
  6.709304e-01    4.819865e-02
  6.868060e-01    8.224879e-02
  7.026815e-01    7.141971e-02
  7.185571e-01    6.384476e-02
  7.344327e-01    6.558428e-02
  7.503083e-01    3.816038e-02
  7.661838e-01    8.272480e-02
  7.820594e-01    1.451218e-01
  7.979350e-01    1.576746e-01
  8.138106e-01    2.082674e-01
  8.296861e-01    2.988370e-01
  8.455617e-01    3.406541e-01
  8.614373e-01    4.117821e-01
  8.773129e-01    4.972517e-01
  8.931884e-01    5.662205e-01
  9.090640e-01    6.428611e-01
  9.249396e-01    7.693435e-01
  9.408152e-01    8.468155e-01
  9.566907e-01    8.417780e-01
  9.725663e-01    1.033357e+00
  9.884419e-01    1.093010e+00
  1.004317e+00    1.240797e+00
  1.020193e+00    1.347066e+00
  1.036069e+00    1.355852e+00
  1.051944e+00    1.346293e+00
  1.067820e+00    1.537188e+00
  1.083695e+00    1.578841e+00
  1.099571e+00    1.615750e+00
  1.115446e+00    1.604626e+00
  1.131322e+00    1.576040e+00
  1.147198e+00    1.670316e+00
  1.163073e+00    1.622633e+00
  1.178949e+00    1.631040e+00
  1.194824e+00    1.806697e+00
  1.210700e+00    2.074308e+00
  1.226575e+00    2.215748e+00
  1.242451e+00    2.267865e+00
  1.258327e+00    2.513019e+00
  1.274202e+00    2.687196e+00
  1.290078e+00    2.780991e+00
  1.305953e+00    2.743665e+00
  1.321829e+00    2.688288e+00
  1.337705e+00    2.748399e+00
  1.353580e+00    2.869268e+00
  1.369456e+00    2.850730e+00
  1.385331e+00    2.827006e+00
  1.401207e+00    2.904863e+00
  1.417082e+00    2.898039e+00
  1.432958e+00    2.889220e+00
  1.448834e+00    2.929978e+00
  1.464709e+00    2.990360e+00
  1.480585e+00    2.937427e+00
  1.496460e+00    3.044518e+00
  1.512336e+00    3.071241e+00
  1.528211e+00    3.130108e+00
  1.544087e+00    3.267628e+00
  1.559963e+00    3.064651e+00
  1.575838e+00    2.871887e+00
  1.591714e+00    3.091997e+00
  1.607589e+00    3.197228e+00
  1.623465e+00    3.211509e+00
  1.639340e+00    3.217625e+00
  1.655216e+00    3.136796e+00
  1.671092e+00    3.052609e+00
  1.686967e+00    3.159834e+00
  1.702843e+00    3.234472e+00
  1.718718e+00    3.225881e+00
  1.734594e+00    3.170851e+00
  1.750469e+00    3.079206e+00
  1.766345e+00    3.136551e+00
  1.782221e+00    3.089024e+00
  1.798096e+00    3.015181e+00
  1.813972e+00    3.011069e+00
  1.829847e+00    3.103153e+00
  1.845723e+00    3.006430e+00
  1.861598e+00    3.089756e+00
  1.877474e+00    3.182432e+00
  1.893350e+00    3.110744e+00
  1.909225e+00    3.019974e+00
  1.925101e+00    3.086679e+00
  1.940976e+00    2.984928e+00
  1.956852e+00    2.950497e+00
  1.972727e+00    3.025311e+00
  1.988603e+00    3.028582e+00
  2.004479e+00    3.017210e+00
  2.020354e+00    3.052436e+00
  2.036230e+00    3.077894e+00
  2.052105e+00    3.143128e+00
  2.067981e+00    3.124439e+00
  2.083856e+00    3.074557e+00
  2.099732e+00    3.081401e+00
  2.115608e+00    3.086773e+00
  2.131483e+00    3.082895e+00
  2.147359e+00    3.155742e+00
  2.163234e+00    3.088505e+00
  2.179110e+00    3.022034e+00
  2.194985e+00    3.278511e+00
  2.210861e+00    3.282136e+00
  2.226737e+00    3.119783e+00
  2.242612e+00    3.141140e+00
  2.258488e+00    3.278798e+00
  2.274363e+00    3.178819e+00
  2.290239e+00    3.126585e+00
  2.306115e+00    3.084928e+00
  2.321990e+00    3.102613e+00
  2.337866e+00    3.144762e+00
  2.353741e+00    3.131841e+00
  2.369617e+00    3.057646e+00
  2.385492e+00    3.081788e+00
  2.401368e+00    3.066558e+00
  2.417244e+00    3.141363e+00
  2.433119e+00    3.205968e+00
  2.448995e+00    3.235033e+00
  2.464870e+00    3.197824e+00
  2.480746e+00    3.236224e+00
  2.496621e+00    3.193620e+00
  2.512497e+00    3.098913e+00
  2.528373e+00    3.163068e+00
  2.544248e+00    3.151132e+00
  2.560124e+00    3.190029e+00
  2.575999e+00    3.206489e+00
  2.591875e+00    3.184970e+00
  2.607750e+00    3.274939e+00
  2.623626e+00    3.256309e+00
  2.639502e+00    3.261152e+00
  2.655377e+00    3.196634e+00
  2.671253e+00    3.216192e+00
  2.687128e+00    3.279201e+00
  2.703004e+00    3.246704e+00
  2.718879e+00    3.297893e+00
  2.734755e+00    3.214128e+00
  2.750631e+00    3.282045e+00
  2.766506e+00    3.256157e+00
  2.782382e+00    3.184441e+00
  2.798257e+00    3.225911e+00
  2.814133e+00    3.195505e+00
  2.830008e+00    3.273733e+00
  2.845884e+00    3.375662e+00
  2.861760e+00    3.255885e+00
  2.877635e+00    3.305034e+00
  2.893511e+00    3.304946e+00
  2.909386e+00    3.300960e+00
  2.925262e+00    3.402063e+00
  2.941137e+00    3.399485e+00
  2.957013e+00    3.437137e+00
  2.972889e+00    3.323939e+00
  2.988764e+00    3.335160e+00
  3.004640e+00    3.281149e+00
  3.020515e+00    3.273553e+00
  3.036391e+00    3.333343e+00
  3.052266e+00    3.405360e+00
  3.068142e+00    3.286948e+00
  3.084018e+00    3.266269e+00
  3.099893e+00    3.386560e+00
  3.115769e+00    3.401961e+00
  3.131644e+00    3.299100e+00
  3.147520e+00    3.329811e+00
  3.163395e+00    3.401468e+00
  3.179271e+00    3.428602e+00
  3.195147e+00    3.420646e+00
  3.211022e+00    3.281180e+00
  3.226898e+00    3.360091e+00
  3.242773e+00    3.513663e+00
  3.258649e+00    3.450025e+00
  3.274525e+00    3.416946e+00
  3.290400e+00    3.426743e+00
  3.306276e+00    3.435862e+00
  3.322151e+00    3.297155e+00
  3.338027e+00    3.368678e+00
  3.353902e+00    3.358430e+00
  3.369778e+00    3.410266e+00
  3.385654e+00    3.433645e+00
  3.401529e+00    3.455394e+00
  3.417405e+00    3.436483e+00
  3.433280e+00    3.446582e+00
  3.449156e+00    3.495536e+00
  3.465031e+00    3.425928e+00
  3.480907e+00    3.454766e+00
  3.496783e+00    3.457224e+00
  3.512658e+00    3.448481e+00
  3.528534e+00    3.375401e+00
  3.544409e+00    3.434775e+00
  3.560285e+00    3.485372e+00
  3.576160e+00    3.473792e+00
  3.592036e+00    3.471241e+00
  3.607912e+00    3.413170e+00
  3.623787e+00    3.484025e+00
  3.639663e+00    3.539504e+00
  3.655538e+00    3.448420e+00
  3.671414e+00    3.438452e+00
  3.687289e+00    3.483727e+00
  3.703165e+00    3.551064e+00
  3.719041e+00    3.525957e+00
  3.734916e+00    3.503916e+00
  3.750792e+00    3.482324e+00
  3.766667e+00    3.461145e+00
  3.782543e+00    3.533273e+00
  3.798418e+00    3.570739e+00
  3.814294e+00    3.527712e+00
  3.830170e+00    3.412673e+00
  3.846045e+00    3.395499e+00
  3.861921e+00    3.514444e+00
  3.877796e+00    3.563650e+00
  3.893672e+00    3.548539e+00
  3.909547e+00    3.494318e+00
  3.925423e+00    3.458429e+00
  3.941299e+00    3.482389e+00
  3.957174e+00    3.489101e+00
  3.973050e+00    3.508189e+00
  3.988925e+00    3.488402e+00
  4.004801e+00    3.409608e+00
  4.020676e+00    3.462788e+00
  4.036552e+00    3.560800e+00
  4.052428e+00    3.535366e+00
  4.068303e+00    3.501072e+00
  4.084179e+00    3.526052e+00
  4.100054e+00    3.555564e+00
  4.115930e+00    3.454643e+00
  4.131806e+00    3.495529e+00
  4.147681e+00    3.561473e+00
  4.163557e+00    3.461744e+00
  4.179432e+00    3.478302e+00
  4.195308e+00    3.511007e+00
  4.211183e+00    3.514301e+00
  4.227059e+00    3.521688e+00
  4.242935e+00    3.612771e+00
  4.258810e+00    3.567301e+00
  4.274686e+00    3.622020e+00
  4.290561e+00    3.545514e+00
  4.306437e+00    3.529081e+00
  4.322312e+00    3.559664e+00
  4.338188e+00    3.565135e+00
  4.354064e+00    3.560570e+00
  4.369939e+00    3.558178e+00
  4.385815e+00    3.550847e+00
  4.401690e+00    3.593168e+00
  4.417566e+00    3.685575e+00
  4.433441e+00    3.734287e+00
  4.449317e+00    3.592139e+00
  4.465193e+00    3.645466e+00
  4.481068e+00    3.625928e+00
  4.496944e+00    3.615077e+00
  4.512819e+00    3.561577e+00
  4.528695e+00    3.560047e+00
  4.544570e+00    3.651370e+00
  4.560446e+00    3.670405e+00
  4.576322e+00    3.701590e+00
  4.592197e+00    3.644622e+00
  4.608073e+00    3.574479e+00
  4.623948e+00    3.566398e+00
  4.639824e+00    3.573413e+00
  4.655699e+00    3.585669e+00
  4.671575e+00    3.641502e+00
  4.687451e+00    3.691935e+00
  4.703326e+00    3.663008e+00
  4.719202e+00    3.623152e+00
  4.735077e+00    3.644576e+00
  4.750953e+00    3.662889e+00
  4.766828e+00    3.651792e+00
  4.782704e+00    3.645638e+00
  4.798580e+00    3.686490e+00
  4.814455e+00    3.587767e+00
  4.830331e+00    3.626848e+00
  4.846206e+00    3.704452e+00
  4.862082e+00    3.689552e+00
  4.877957e+00    3.644252e+00
  4.893833e+00    3.642203e+00
  4.909709e+00    3.653152e+00
  4.925584e+00    3.682193e+00
  4.941460e+00    3.651767e+00
  4.957335e+00    3.537746e+00
  4.973211e+00    3.617800e+00
  4.989086e+00    3.653746e+00
  5.004962e+00    3.622714e+00
  5.020838e+00    3.566878e+00
  5.036713e+00    3.561063e+00
  5.052589e+00    3.648439e+00
  5.068464e+00    3.702408e+00
  5.084340e+00    3.687603e+00
  5.100216e+00    3.589887e+00
  5.116091e+00    3.575538e+00
  5.131967e+00    3.631246e+00
  5.147842e+00    3.607666e+00
  5.163718e+00    3.630427e+00
  5.179593e+00    3.621376e+00
  5.195469e+00    3.684233e+00
  5.211345e+00    3.683540e+00
  5.227220e+00    3.681551e+00
  5.243096e+00    3.580053e+00
  5.258971e+00    3.630994e+00
  5.274847e+00    3.744073e+00
  5.290722e+00    3.757968e+00
  5.306598e+00    3.752313e+00
  5.322474e+00    3.648545e+00
  5.338349e+00    3.616364e+00
  5.354225e+00    3.683175e+00
  5.370100e+00    3.641979e+00
  5.385976e+00    3.646210e+00
  5.401851e+00    3.695660e+00
  5.417727e+00    3.646480e+00
  5.433603e+00    3.575178e+00
  5.449478e+00    3.591095e+00
  5.465354e+00    3.706384e+00
  5.481229e+00    3.704793e+00
  5.497105e+00    3.622959e+00
  5.512980e+00    3.588422e+00
  5.528856e+00    3.624286e+00
  5.544732e+00    3.644352e+00
  5.560607e+00    3.598553e+00
  5.576483e+00    3.548030e+00
  5.592358e+00    3.688329e+00
  5.608234e+00    3.660124e+00
  5.624109e+00    3.639156e+00
  5.639985e+00    3.711393e+00
  5.655861e+00    3.722343e+00
  5.671736e+00    3.641297e+00
  5.687612e+00    3.570199e+00
  5.703487e+00    3.548060e+00
  5.719363e+00    3.616466e+00
  5.735238e+00    3.642551e+00
  5.751114e+00    3.544507e+00
  5.766990e+00    3.626196e+00
  5.782865e+00    3.590999e+00
  5.798741e+00    3.517721e+00
  5.814616e+00    3.593670e+00
  5.830492e+00    3.627940e+00
  5.846367e+00    3.634636e+00
  5.862243e+00    3.517438e+00
  5.878119e+00    3.595428e+00
  5.893994e+00    3.596790e+00
  5.909870e+00    3.538304e+00
  5.925745e+00    3.548184e+00
  5.941621e+00    3.632647e+00
  5.957497e+00    3.575442e+00
  5.973372e+00    3.553869e+00
  5.989248e+00    3.573266e+00
  6.005123e+00    3.515733e+00
  6.020999e+00    3.618095e+00
  6.036874e+00    3.649990e+00
  6.052750e+00    3.636817e+00
  6.068626e+00    3.588142e+00
  6.084501e+00    3.631503e+00
  6.100377e+00    3.676824e+00
  6.116252e+00    3.669111e+00
  6.132128e+00    3.612664e+00
  6.148003e+00    3.571038e+00
  6.163879e+00    3.620763e+00
  6.179755e+00    3.611478e+00
  6.195630e+00    3.605868e+00
  6.211506e+00    3.630765e+00
  6.227381e+00    3.602856e+00
  6.243257e+00    3.568675e+00
  6.259132e+00    3.499919e+00
  6.275008e+00    3.525967e+00
  6.290884e+00    3.605294e+00
  6.306759e+00    3.547390e+00
  6.322635e+00    3.569467e+00
  6.338510e+00    3.560380e+00
  6.354386e+00    3.554256e+00
  6.370261e+00    3.583622e+00
  6.386137e+00    3.562832e+00
  6.402013e+00    3.576694e+00
  6.417888e+00    3.589072e+00
  6.433764e+00    3.557537e+00
  6.449639e+00    3.510076e+00
  6.465515e+00    3.470354e+00
  6.481390e+00    3.564958e+00
  6.497266e+00    3.578427e+00
  6.513142e+00    3.563955e+00
  6.529017e+00    3.547733e+00
  6.544893e+00    3.608446e+00
  6.560768e+00    3.544799e+00
  6.576644e+00    3.537067e+00
  6.592519e+00    3.494419e+00
  6.608395e+00    3.483666e+00
  6.624271e+00    3.574916e+00
  6.640146e+00    3.593631e+00
  6.656022e+00    3.548870e+00
  6.671897e+00    3.619023e+00
  6.687773e+00    3.666703e+00
  6.703648e+00    3.579823e+00
  6.719524e+00    3.552347e+00
  6.735400e+00    3.558465e+00
  6.751275e+00    3.532000e+00
  6.767151e+00    3.495019e+00
  6.783026e+00    3.524727e+00
  6.798902e+00    3.512618e+00
  6.814777e+00    3.531515e+00
  6.830653e+00    3.514025e+00
  6.846529e+00    3.545592e+00
  6.862404e+00    3.516490e+00
  6.878280e+00    3.504689e+00
  6.894155e+00    3.607830e+00
  6.910031e+00    3.551608e+00
  6.925907e+00    3.555727e+00
  6.941782e+00    3.595383e+00
  6.957658e+00    3.543035e+00
  6.973533e+00    3.505105e+00
  6.989409e+00    3.570104e+00
  7.005284e+00    3.614442e+00
  7.021160e+00    3.587846e+00
  7.037036e+00    3.567278e+00
  7.052911e+00    3.483324e+00
  7.068787e+00    3.519864e+00
  7.084662e+00    3.480298e+00
  7.100538e+00    3.511371e+00
  7.116413e+00    3.533184e+00
  7.132289e+00    3.488938e+00
  7.148165e+00    3.478976e+00
  7.164040e+00    3.476838e+00
  7.179916e+00    3.489604e+00
  7.195791e+00    3.482442e+00
  7.211667e+00    3.475985e+00
  7.227542e+00    3.380778e+00
  7.243418e+00    3.461950e+00
  7.259294e+00    3.476589e+00
  7.275169e+00    3.568753e+00
  7.291045e+00    3.548708e+00
  7.306920e+00    3.483990e+00
  7.322796e+00    3.463742e+00
  7.338671e+00    3.518987e+00
  7.354547e+00    3.509122e+00
  7.370423e+00    3.570875e+00
  7.386298e+00    3.522120e+00
  7.402174e+00    3.479904e+00
  7.418049e+00    3.517190e+00
  7.433925e+00    3.513715e+00
  7.449800e+00    3.470469e+00
  7.465676e+00    3.460449e+00
  7.481552e+00    3.435227e+00
  7.497427e+00    3.491206e+00
  7.513303e+00    3.549107e+00
  7.529178e+00    3.449516e+00
  7.545054e+00    3.471452e+00
  7.560929e+00    3.432750e+00
  7.576805e+00    3.481635e+00
  7.592681e+00    3.566608e+00
  7.608556e+00    3.504504e+00
  7.624432e+00    3.448662e+00
  7.640307e+00    3.508244e+00
  7.656183e+00    3.521684e+00
  7.672058e+00    3.501284e+00
  7.687934e+00    3.438456e+00
  7.703810e+00    3.411647e+00
  7.719685e+00    3.477406e+00
  7.735561e+00    3.460248e+00
  7.751436e+00    3.396302e+00
  7.767312e+00    3.434026e+00
  7.783187e+00    3.469837e+00
  7.799063e+00    3.418551e+00
  7.814939e+00    3.403339e+00
  7.830814e+00    3.425949e+00
  7.846690e+00    3.402828e+00
  7.862565e+00    3.394183e+00
  7.878441e+00    3.443285e+00
  7.894317e+00    3.489796e+00
  7.910192e+00    3.529592e+00
  7.926068e+00    3.510169e+00
  7.941943e+00    3.446946e+00
  7.957819e+00    3.332520e+00
  7.973694e+00    3.351513e+00
  7.989570e+00    3.319318e+00
  8.005446e+00    3.414986e+00
  8.021321e+00    3.479889e+00
  8.037197e+00    3.455295e+00
  8.053072e+00    3.493554e+00
  8.068948e+00    3.462373e+00
  8.084823e+00    3.495960e+00
  8.100699e+00    3.517603e+00
  8.116575e+00    3.516445e+00
  8.132450e+00    3.457799e+00
  8.148326e+00    3.487980e+00
  8.164201e+00    3.462132e+00
  8.180077e+00    3.343132e+00
  8.195952e+00    3.425938e+00
  8.211828e+00    3.487290e+00
  8.227704e+00    3.532846e+00
  8.243579e+00    3.495760e+00
  8.259455e+00    3.481062e+00
  8.275330e+00    3.438515e+00
  8.291206e+00    3.425548e+00
  8.307081e+00    3.456303e+00
  8.322957e+00    3.398028e+00
  8.338833e+00    3.395364e+00
  8.354708e+00    3.395860e+00
  8.370584e+00    3.414149e+00
  8.386459e+00    3.380524e+00
  8.402335e+00    3.385985e+00
  8.418210e+00    3.412903e+00
  8.434086e+00    3.369156e+00
  8.449962e+00    3.387512e+00
  8.465837e+00    3.407511e+00
  8.481713e+00    3.400969e+00
  8.497588e+00    3.359156e+00
  8.513464e+00    3.326028e+00
  8.529339e+00    3.342057e+00
  8.545215e+00    3.340123e+00
  8.561091e+00    3.357635e+00
  8.576966e+00    3.369848e+00
  8.592842e+00    3.338527e+00
  8.608717e+00    3.311894e+00
  8.624593e+00    3.337555e+00
  8.640468e+00    3.324466e+00
  8.656344e+00    3.338894e+00
  8.672220e+00    3.395954e+00
  8.688095e+00    3.409660e+00
  8.703971e+00    3.360383e+00
  8.719846e+00    3.300019e+00
  8.735722e+00    3.343510e+00
  8.751598e+00    3.365905e+00
  8.767473e+00    3.338759e+00
  8.783349e+00    3.278802e+00
  8.799224e+00    3.306297e+00
  8.815100e+00    3.337820e+00
  8.830975e+00    3.323658e+00
  8.846851e+00    3.362657e+00
  8.862727e+00    3.320705e+00
  8.878602e+00    3.301455e+00
  8.894478e+00    3.292875e+00
  8.910353e+00    3.296987e+00
  8.926229e+00    3.342835e+00
  8.942104e+00    3.352773e+00
  8.957980e+00    3.302384e+00
  8.973856e+00    3.300197e+00
  8.989731e+00    3.309718e+00
  9.005607e+00    3.297220e+00
  9.021482e+00    3.293692e+00
  9.037358e+00    3.297757e+00
  9.053233e+00    3.361650e+00
  9.069109e+00    3.309449e+00
  9.084985e+00    3.311507e+00
  9.100860e+00    3.286493e+00
  9.116736e+00    3.296457e+00
  9.132611e+00    3.207827e+00
  9.148487e+00    3.246507e+00
  9.164362e+00    3.246115e+00
  9.180238e+00    3.244524e+00
  9.196114e+00    3.286823e+00
  9.211989e+00    3.288016e+00
  9.227865e+00    3.174395e+00
  9.243740e+00    3.174167e+00
  9.259616e+00    3.254987e+00
  9.275491e+00    3.244807e+00
  9.291367e+00    3.226066e+00
  9.307243e+00    3.210113e+00
  9.323118e+00    3.214536e+00
  9.338994e+00    3.207621e+00
  9.354869e+00    3.198079e+00
  9.370745e+00    3.223473e+00
  9.386620e+00    3.203250e+00
  9.402496e+00    3.197570e+00
  9.418372e+00    3.237862e+00
  9.434247e+00    3.263231e+00
  9.450123e+00    3.254895e+00
  9.465998e+00    3.233841e+00
  9.481874e+00    3.249615e+00
  9.497749e+00    3.321215e+00
  9.513625e+00    3.257261e+00
  9.529501e+00    3.240864e+00
  9.545376e+00    3.266186e+00
  9.561252e+00    3.219693e+00
  9.577127e+00    3.185360e+00
  9.593003e+00    3.200157e+00
  9.608878e+00    3.231714e+00
  9.624754e+00    3.222336e+00
  9.640630e+00    3.171172e+00
  9.656505e+00    3.187517e+00
  9.672381e+00    3.195081e+00
  9.688256e+00    3.193633e+00
  9.704132e+00    3.221021e+00
  9.720008e+00    3.204560e+00
  9.735883e+00    3.188529e+00
  9.751759e+00    3.138471e+00
  9.767634e+00    3.139543e+00
  9.783510e+00    3.180786e+00
  9.799385e+00    3.171453e+00
  9.815261e+00    3.136040e+00
  9.831137e+00    3.163543e+00
  9.847012e+00    3.088655e+00
  9.862888e+00    3.135234e+00
  9.878763e+00    3.098243e+00
  9.894639e+00    3.122413e+00
  9.910514e+00    3.144752e+00
  9.926390e+00    3.096544e+00
  9.942266e+00    3.085943e+00
  9.958141e+00    3.146239e+00
  9.974017e+00    3.135030e+00
  9.989892e+00    3.153099e+00
  1.000577e+01    3.141351e+00
  1.002164e+01    3.082189e+00
  1.003752e+01    3.062772e+00
  1.005339e+01    3.096390e+00
  1.006927e+01    3.068957e+00
  1.008515e+01    3.067339e+00
  1.010102e+01    3.076563e+00
  1.011690e+01    3.109433e+00
  1.013277e+01    3.111593e+00
  1.014865e+01    3.076721e+00
  1.016452e+01    3.088097e+00
  1.018040e+01    3.087096e+00
  1.019627e+01    3.152559e+00
  1.021215e+01    3.090776e+00
  1.022803e+01    3.072865e+00
  1.024390e+01    3.098210e+00
  1.025978e+01    3.068539e+00
  1.027565e+01    3.069621e+00
  1.029153e+01    3.065167e+00
  1.030740e+01    3.086151e+00
  1.032328e+01    3.118308e+00
  1.033915e+01    3.031181e+00
  1.035503e+01    3.031399e+00
  1.037091e+01    3.040946e+00
  1.038678e+01    3.087747e+00
  1.040266e+01    3.060964e+00
  1.041853e+01    3.000978e+00
  1.043441e+01    3.003490e+00
  1.045028e+01    3.021474e+00
  1.046616e+01    3.055025e+00
  1.048204e+01    3.026111e+00
  1.049791e+01    2.991361e+00
  1.051379e+01    2.973174e+00
  1.052966e+01    3.012467e+00
  1.054554e+01    3.014413e+00
  1.056141e+01    3.037401e+00
  1.057729e+01    2.999550e+00
  1.059316e+01    3.034675e+00
  1.060904e+01    3.035106e+00
  1.062492e+01    3.023627e+00
  1.064079e+01    2.987365e+00
  1.065667e+01    2.996934e+00
  1.067254e+01    2.967275e+00
  1.068842e+01    2.988952e+00
  1.070429e+01    3.001558e+00
  1.072017e+01    3.036439e+00
  1.073604e+01    2.981194e+00
  1.075192e+01    2.991302e+00
  1.076780e+01    2.966492e+00
  1.078367e+01    2.981843e+00
  1.079955e+01    2.971460e+00
  1.081542e+01    2.970523e+00
  1.083130e+01    2.928205e+00
  1.084717e+01    2.904296e+00
  1.086305e+01    2.957130e+00
  1.087892e+01    2.976729e+00
  1.089480e+01    2.939406e+00
  1.091068e+01    2.902092e+00
  1.092655e+01    2.862558e+00
  1.094243e+01    2.881217e+00
  1.095830e+01    2.876278e+00
  1.097418e+01    2.904275e+00
  1.099005e+01    2.925506e+00
  1.100593e+01    2.913400e+00
  1.102180e+01    2.894514e+00
  1.103768e+01    2.911399e+00
  1.105356e+01    2.931114e+00
  1.106943e+01    2.924479e+00
  1.108531e+01    2.862114e+00
  1.110118e+01    2.887747e+00
  1.111706e+01    2.867773e+00
  1.113293e+01    2.902184e+00
  1.114881e+01    2.833096e+00
  1.116468e+01    2.851032e+00
  1.118056e+01    2.830481e+00
  1.119644e+01    2.824337e+00
  1.121231e+01    2.869647e+00
  1.122819e+01    2.826119e+00
  1.124406e+01    2.841812e+00
  1.125994e+01    2.831377e+00
  1.127581e+01    2.841735e+00
  1.129169e+01    2.847193e+00
  1.130756e+01    2.841784e+00
  1.132344e+01    2.797130e+00
  1.133932e+01    2.845130e+00
  1.135519e+01    2.884293e+00
  1.137107e+01    2.893787e+00
  1.138694e+01    2.852136e+00
  1.140282e+01    2.852319e+00
  1.141869e+01    2.855989e+00
  1.143457e+01    2.785243e+00
  1.145045e+01    2.768505e+00
  1.146632e+01    2.780178e+00
  1.148220e+01    2.819045e+00
  1.149807e+01    2.856498e+00
  1.151395e+01    2.868365e+00
  1.152982e+01    2.841585e+00
  1.154570e+01    2.812415e+00
  1.156157e+01    2.792725e+00
  1.157745e+01    2.782472e+00
  1.159333e+01    2.771137e+00
  1.160920e+01    2.764203e+00
  1.162508e+01    2.719553e+00
  1.164095e+01    2.753725e+00
  1.165683e+01    2.778333e+00
  1.167270e+01    2.738645e+00
  1.168858e+01    2.725472e+00
  1.170445e+01    2.723100e+00
  1.172033e+01    2.717315e+00
  1.173621e+01    2.734015e+00
  1.175208e+01    2.790630e+00
  1.176796e+01    2.760987e+00
  1.178383e+01    2.731093e+00
  1.179971e+01    2.775935e+00
  1.181558e+01    2.762095e+00
  1.183146e+01    2.759449e+00
  1.184733e+01    2.781323e+00
  1.186321e+01    2.761678e+00
  1.187909e+01    2.724352e+00
  1.189496e+01    2.713683e+00
  1.191084e+01    2.740833e+00
  1.192671e+01    2.759111e+00
  1.194259e+01    2.781706e+00
  1.195846e+01    2.742333e+00
  1.197434e+01    2.748592e+00
  1.199021e+01    2.719951e+00
  1.200609e+01    2.695554e+00
  1.202197e+01    2.705932e+00
  1.203784e+01    2.675292e+00
  1.205372e+01    2.684271e+00
  1.206959e+01    2.650813e+00
  1.208547e+01    2.707537e+00
  1.210134e+01    2.698046e+00
  1.211722e+01    2.722243e+00
  1.213309e+01    2.691290e+00
  1.214897e+01    2.691070e+00
  1.216485e+01    2.671200e+00
  1.218072e+01    2.655436e+00
  1.219660e+01    2.669363e+00
  1.221247e+01    2.648830e+00
  1.222835e+01    2.735227e+00
  1.224422e+01    2.721988e+00
  1.226010e+01    2.686121e+00
  1.227597e+01    2.655366e+00
  1.229185e+01    2.693649e+00
  1.230773e+01    2.753768e+00
  1.232360e+01    2.688460e+00
  1.233948e+01    2.652203e+00
  1.235535e+01    2.683197e+00
  1.237123e+01    2.693719e+00
  1.238710e+01    2.673325e+00
  1.240298e+01    2.701729e+00
  1.241886e+01    2.702393e+00
  1.243473e+01    2.657527e+00
  1.245061e+01    2.651084e+00
  1.246648e+01    2.692474e+00
  1.248236e+01    2.741068e+00
  1.249823e+01    2.689596e+00
  1.251411e+01    2.735574e+00
  1.252998e+01    2.770245e+00
  1.254586e+01    2.698387e+00
  1.256174e+01    2.670151e+00
  1.257761e+01    2.719515e+00
  1.259349e+01    2.804349e+00
  1.260936e+01    2.795568e+00
  1.262524e+01    2.793776e+00
  1.264111e+01    2.784250e+00
  1.265699e+01    2.791541e+00
  1.267286e+01    2.819602e+00
  1.268874e+01    2.801070e+00
  1.270462e+01    2.787686e+00
  1.272049e+01    2.809949e+00
  1.273637e+01    2.870483e+00
  1.275224e+01    2.843961e+00
  1.276812e+01    2.888527e+00
  1.278399e+01    2.936856e+00
  1.279987e+01    2.968349e+00
  1.281574e+01    2.975295e+00
  1.283162e+01    3.117589e+00
  1.284750e+01    3.227528e+00
  1.286337e+01    3.278618e+00
  1.287925e+01    3.400505e+00
  1.289512e+01    3.531842e+00
  1.291100e+01    3.659595e+00
  1.292687e+01    3.848080e+00
  1.294275e+01    4.046765e+00
  1.295862e+01    4.346404e+00
  1.297450e+01    4.775695e+00
  1.299038e+01    5.234634e+00
  1.300625e+01    5.919765e+00
  1.302213e+01    6.765823e+00
  1.303800e+01    7.757284e+00
  1.305388e+01    8.845366e+00
  1.306975e+01    1.024725e+01
  1.308563e+01    1.158018e+01
  1.310150e+01    1.277208e+01
  1.311738e+01    1.387462e+01
  1.313326e+01    1.482466e+01
  1.314913e+01    1.568481e+01
  1.316501e+01    1.629268e+01
  1.318088e+01    1.637589e+01
  1.319676e+01    1.569911e+01
  1.321263e+01    1.436545e+01
  1.322851e+01    1.250416e+01
  1.324438e+01    1.071598e+01
  1.326026e+01    9.065129e+00
  1.327614e+01    7.770780e+00
  1.329201e+01    6.705362e+00
  1.330789e+01    5.865030e+00
  1.332376e+01    5.353491e+00
  1.333964e+01    4.825930e+00
  1.335551e+01    4.449091e+00
  1.337139e+01    4.158510e+00
  1.338727e+01    3.884953e+00
  1.340314e+01    3.602216e+00
  1.341902e+01    3.441838e+00
  1.343489e+01    3.327045e+00
  1.345077e+01    3.259862e+00
  1.346664e+01    3.117882e+00
  1.348252e+01    3.035735e+00
  1.349839e+01    3.015213e+00
  1.351427e+01    2.966624e+00
  1.353015e+01    2.863718e+00
  1.354602e+01    2.804262e+00
  1.356190e+01    2.808644e+00
  1.357777e+01    2.786391e+00
  1.359365e+01    2.701022e+00
  1.360952e+01    2.620959e+00
  1.362540e+01    2.605345e+00
  1.364127e+01    2.624323e+00
  1.365715e+01    2.608510e+00
  1.367303e+01    2.596416e+00
  1.368890e+01    2.565633e+00
  1.370478e+01    2.547185e+00
  1.372065e+01    2.535900e+00
  1.373653e+01    2.536456e+00
  1.375240e+01    2.578976e+00
  1.376828e+01    2.516970e+00
  1.378415e+01    2.473790e+00
  1.380003e+01    2.454718e+00
  1.381591e+01    2.446921e+00
  1.383178e+01    2.423227e+00
  1.384766e+01    2.455906e+00
  1.386353e+01    2.388186e+00
  1.387941e+01    2.374205e+00
  1.389528e+01    2.420875e+00
  1.391116e+01    2.397743e+00
  1.392703e+01    2.388938e+00
  1.394291e+01    2.391433e+00
  1.395879e+01    2.370422e+00
  1.397466e+01    2.354674e+00
  1.399054e+01    2.370421e+00
  1.400641e+01    2.353860e+00
  1.402229e+01    2.382823e+00
  1.403816e+01    2.387390e+00
  1.405404e+01    2.359349e+00
  1.406991e+01    2.358529e+00
  1.408579e+01    2.343715e+00
  1.410167e+01    2.310858e+00
  1.411754e+01    2.291004e+00
  1.413342e+01    2.302814e+00
  1.414929e+01    2.322423e+00
  1.416517e+01    2.296693e+00
  1.418104e+01    2.273284e+00
  1.419692e+01    2.303624e+00
  1.421279e+01    2.309354e+00
  1.422867e+01    2.288865e+00
  1.424455e+01    2.295349e+00
  1.426042e+01    2.286920e+00
  1.427630e+01    2.291203e+00
  1.429217e+01    2.287628e+00
  1.430805e+01    2.268821e+00
  1.432392e+01    2.243494e+00
  1.433980e+01    2.245016e+00
  1.435568e+01    2.274149e+00
  1.437155e+01    2.252328e+00
  1.438743e+01    2.255640e+00
  1.440330e+01    2.230902e+00
  1.441918e+01    2.267816e+00
  1.443505e+01    2.232238e+00
  1.445093e+01    2.242693e+00
  1.446680e+01    2.239397e+00
  1.448268e+01    2.218465e+00
  1.449856e+01    2.206378e+00
  1.451443e+01    2.250294e+00
  1.453031e+01    2.222497e+00
  1.454618e+01    2.203812e+00
  1.456206e+01    2.213111e+00
  1.457793e+01    2.227356e+00
  1.459381e+01    2.212348e+00
  1.460968e+01    2.212424e+00
  1.462556e+01    2.248097e+00
  1.464144e+01    2.237973e+00
  1.465731e+01    2.240182e+00
  1.467319e+01    2.238718e+00
  1.468906e+01    2.216712e+00
  1.470494e+01    2.192598e+00
  1.472081e+01    2.190733e+00
  1.473669e+01    2.198096e+00
  1.475256e+01    2.214722e+00
  1.476844e+01    2.231896e+00
  1.478432e+01    2.211488e+00
  1.480019e+01    2.184194e+00
  1.481607e+01    2.207017e+00
  1.483194e+01    2.204337e+00
  1.484782e+01    2.246731e+00
  1.486369e+01    2.222786e+00
  1.487957e+01    2.236506e+00
  1.489544e+01    2.233580e+00
  1.491132e+01    2.254849e+00
  1.492720e+01    2.280999e+00
  1.494307e+01    2.287954e+00
  1.495895e+01    2.350482e+00
  1.497482e+01    2.372363e+00
  1.499070e+01    2.407519e+00
  1.500657e+01    2.446509e+00
  1.502245e+01    2.507495e+00
  1.503832e+01    2.614423e+00
  1.505420e+01    2.689938e+00
  1.507008e+01    2.830719e+00
  1.508595e+01    2.902467e+00
  1.510183e+01    3.131231e+00
  1.511770e+01    3.463657e+00
  1.513358e+01    3.827341e+00
  1.514945e+01    4.185826e+00
  1.516533e+01    4.530599e+00
  1.518120e+01    4.920246e+00
  1.519708e+01    5.242838e+00
  1.521296e+01    5.436347e+00
  1.522883e+01    5.586902e+00
  1.524471e+01    5.774923e+00
  1.526058e+01    5.781743e+00
  1.527646e+01    5.693107e+00
  1.529233e+01    5.441533e+00
  1.530821e+01    5.129891e+00
  1.532409e+01    4.669144e+00
  1.533996e+01    4.186634e+00
  1.535584e+01    3.776960e+00
  1.537171e+01    3.424930e+00
  1.538759e+01    3.169028e+00
  1.540346e+01    2.965325e+00
  1.541934e+01    2.751721e+00
  1.543521e+01    2.637477e+00
  1.545109e+01    2.486258e+00
  1.546697e+01    2.417896e+00
  1.548284e+01    2.388008e+00
  1.549872e+01    2.324272e+00
  1.551459e+01    2.249272e+00
  1.553047e+01    2.213078e+00
  1.554634e+01    2.148961e+00
  1.556222e+01    2.144446e+00
  1.557809e+01    2.143655e+00
  1.559397e+01    2.092989e+00
  1.560985e+01    2.066453e+00
  1.562572e+01    2.064221e+00
  1.564160e+01    2.064942e+00
  1.565747e+01    2.014797e+00
  1.567335e+01    1.998021e+00
  1.568922e+01    2.012989e+00
  1.570510e+01    1.986955e+00
  1.572097e+01    1.985334e+00
  1.573685e+01    1.979952e+00
  1.575273e+01    1.955136e+00
  1.576860e+01    1.931162e+00
  1.578448e+01    1.944459e+00
  1.580035e+01    1.923140e+00
  1.581623e+01    1.908246e+00
  1.583210e+01    1.910778e+00
  1.584798e+01    1.955071e+00
  1.586385e+01    1.953473e+00
  1.587973e+01    1.934427e+00
  1.589561e+01    1.921628e+00
  1.591148e+01    1.878687e+00
  1.592736e+01    1.867611e+00
  1.594323e+01    1.903824e+00
  1.595911e+01    1.906197e+00
  1.597498e+01    1.896953e+00
  1.599086e+01    1.862745e+00
  1.600673e+01    1.857162e+00
  1.602261e+01    1.854790e+00
  1.603849e+01    1.810932e+00
  1.605436e+01    1.807715e+00
  1.607024e+01    1.813567e+00
  1.608611e+01    1.808729e+00
  1.610199e+01    1.861982e+00
  1.611786e+01    1.836653e+00
  1.613374e+01    1.847913e+00
  1.614961e+01    1.844935e+00
  1.616549e+01    1.848667e+00
  1.618137e+01    1.806753e+00
  1.619724e+01    1.813718e+00
  1.621312e+01    1.816441e+00
  1.622899e+01    1.814860e+00
  1.624487e+01    1.816409e+00
  1.626074e+01    1.802842e+00
  1.627662e+01    1.791892e+00
  1.629250e+01    1.771946e+00
  1.630837e+01    1.780215e+00
  1.632425e+01    1.778841e+00
  1.634012e+01    1.788576e+00
  1.635600e+01    1.777123e+00
  1.637187e+01    1.779739e+00
  1.638775e+01    1.739926e+00
  1.640362e+01    1.758576e+00
  1.641950e+01    1.782517e+00
  1.643538e+01    1.781966e+00
  1.645125e+01    1.741185e+00
  1.646713e+01    1.749427e+00
  1.648300e+01    1.739525e+00
  1.649888e+01    1.732543e+00
  1.651475e+01    1.762520e+00
  1.653063e+01    1.766806e+00
  1.654650e+01    1.791393e+00
  1.656238e+01    1.742001e+00
  1.657826e+01    1.750438e+00
  1.659413e+01    1.742959e+00
  1.661001e+01    1.760291e+00
  1.662588e+01    1.731486e+00
  1.664176e+01    1.738633e+00
  1.665763e+01    1.729153e+00
  1.667351e+01    1.735135e+00
  1.668938e+01    1.756649e+00
  1.670526e+01    1.756848e+00
  1.672114e+01    1.754081e+00
  1.673701e+01    1.724984e+00
  1.675289e+01    1.718091e+00
  1.676876e+01    1.724260e+00
  1.678464e+01    1.710857e+00
  1.680051e+01    1.703146e+00
  1.681639e+01    1.707684e+00
  1.683226e+01    1.702138e+00
  1.684814e+01    1.723408e+00
  1.686402e+01    1.708761e+00
  1.687989e+01    1.673281e+00
  1.689577e+01    1.690499e+00
  1.691164e+01    1.669689e+00
  1.692752e+01    1.661046e+00
  1.694339e+01    1.672859e+00
  1.695927e+01    1.686066e+00
  1.697514e+01    1.691042e+00
  1.699102e+01    1.647502e+00
  1.700690e+01    1.653259e+00
  1.702277e+01    1.659860e+00
  1.703865e+01    1.651384e+00
  1.705452e+01    1.658074e+00
  1.707040e+01    1.653620e+00
  1.708627e+01    1.630790e+00
  1.710215e+01    1.637301e+00
  1.711802e+01    1.626283e+00
  1.713390e+01    1.637931e+00
  1.714978e+01    1.650656e+00
  1.716565e+01    1.591736e+00
  1.718153e+01    1.602767e+00
  1.719740e+01    1.638884e+00
  1.721328e+01    1.662333e+00
  1.722915e+01    1.615110e+00
  1.724503e+01    1.603739e+00
  1.726091e+01    1.602783e+00
  1.727678e+01    1.583300e+00
  1.729266e+01    1.586596e+00
  1.730853e+01    1.600594e+00
  1.732441e+01    1.610036e+00
  1.734028e+01    1.596259e+00
  1.735616e+01    1.600757e+00
  1.737203e+01    1.600706e+00
  1.738791e+01    1.604665e+00
  1.740379e+01    1.605131e+00
  1.741966e+01    1.577971e+00
  1.743554e+01    1.583172e+00
  1.745141e+01    1.625662e+00
  1.746729e+01    1.581192e+00
  1.748316e+01    1.611044e+00
  1.749904e+01    1.631132e+00
  1.751491e+01    1.609080e+00
  1.753079e+01    1.605786e+00
  1.754667e+01    1.611681e+00
  1.756254e+01    1.571281e+00
  1.757842e+01    1.585880e+00
  1.759429e+01    1.591409e+00
  1.761017e+01    1.556261e+00
  1.762604e+01    1.515677e+00
  1.764192e+01    1.493168e+00
  1.765779e+01    1.492694e+00
  1.767367e+01    1.546384e+00
  1.768955e+01    1.551231e+00
  1.770542e+01    1.551943e+00
  1.772130e+01    1.564584e+00
  1.773717e+01    1.541080e+00
  1.775305e+01    1.554901e+00
  1.776892e+01    1.564800e+00
  1.778480e+01    1.537585e+00
  1.780067e+01    1.542292e+00
  1.781655e+01    1.523264e+00
  1.783243e+01    1.494921e+00
  1.784830e+01    1.494957e+00
  1.786418e+01    1.534378e+00
  1.788005e+01    1.539652e+00
  1.789593e+01    1.549433e+00
  1.791180e+01    1.555885e+00
  1.792768e+01    1.528622e+00
  1.794355e+01    1.510587e+00
  1.795943e+01    1.546924e+00
  1.797531e+01    1.524182e+00
  1.799118e+01    1.511818e+00
  1.800706e+01    1.551722e+00
  1.802293e+01    1.523759e+00
  1.803881e+01    1.521799e+00
  1.805468e+01    1.520450e+00
  1.807056e+01    1.521942e+00
  1.808643e+01    1.503664e+00
  1.810231e+01    1.514347e+00
  1.811819e+01    1.522187e+00
  1.813406e+01    1.491658e+00
  1.814994e+01    1.486288e+00
  1.816581e+01    1.485041e+00
  1.818169e+01    1.463655e+00
  1.819756e+01    1.502045e+00
  1.821344e+01    1.497966e+00
  1.822932e+01    1.489581e+00
  1.824519e+01    1.481172e+00
  1.826107e+01    1.469711e+00
  1.827694e+01    1.479070e+00
  1.829282e+01    1.487861e+00
  1.830869e+01    1.492207e+00
  1.832457e+01    1.474196e+00
  1.834044e+01    1.470858e+00
  1.835632e+01    1.462726e+00
  1.837220e+01    1.474919e+00
  1.838807e+01    1.460544e+00
  1.840395e+01    1.461036e+00
  1.841982e+01    1.454445e+00
  1.843570e+01    1.468827e+00
  1.845157e+01    1.443006e+00
  1.846745e+01    1.445722e+00
  1.848332e+01    1.444043e+00
  1.849920e+01    1.437182e+00
  1.851508e+01    1.455953e+00
  1.853095e+01    1.430664e+00
  1.854683e+01    1.461651e+00
  1.856270e+01    1.458875e+00
  1.857858e+01    1.391571e+00
  1.859445e+01    1.398515e+00
  1.861033e+01    1.429282e+00
  1.862620e+01    1.428149e+00
  1.864208e+01    1.404605e+00
  1.865796e+01    1.420350e+00
  1.867383e+01    1.403914e+00
  1.868971e+01    1.428343e+00
  1.870558e+01    1.428960e+00
  1.872146e+01    1.432783e+00
  1.873733e+01    1.434351e+00
  1.875321e+01    1.433326e+00
  1.876908e+01    1.398565e+00
  1.878496e+01    1.407852e+00
  1.880084e+01    1.411806e+00
  1.881671e+01    1.412310e+00
  1.883259e+01    1.414080e+00
  1.884846e+01    1.419475e+00
  1.886434e+01    1.393728e+00
  1.888021e+01    1.389846e+00
  1.889609e+01    1.403734e+00
  1.891196e+01    1.395401e+00
  1.892784e+01    1.378796e+00
  1.894372e+01    1.389321e+00
  1.895959e+01    1.420159e+00
  1.897547e+01    1.404984e+00
  1.899134e+01    1.398118e+00
  1.900722e+01    1.420736e+00
  1.902309e+01    1.394051e+00
  1.903897e+01    1.366536e+00
  1.905484e+01    1.364109e+00
  1.907072e+01    1.353940e+00
  1.908660e+01    1.361939e+00
  1.910247e+01    1.359863e+00
  1.911835e+01    1.366841e+00
  1.913422e+01    1.362533e+00
  1.915010e+01    1.368901e+00
  1.916597e+01    1.385764e+00
  1.918185e+01    1.383044e+00
  1.919773e+01    1.385193e+00
  1.921360e+01    1.379041e+00
  1.922948e+01    1.375874e+00
  1.924535e+01    1.375875e+00
  1.926123e+01    1.362385e+00
  1.927710e+01    1.334310e+00
  1.929298e+01    1.354052e+00
  1.930885e+01    1.362605e+00
  1.932473e+01    1.347326e+00
  1.934061e+01    1.331186e+00
  1.935648e+01    1.356815e+00
  1.937236e+01    1.367077e+00
  1.938823e+01    1.366535e+00
  1.940411e+01    1.356470e+00
  1.941998e+01    1.341154e+00
  1.943586e+01    1.362287e+00
  1.945173e+01    1.342977e+00
  1.946761e+01    1.323596e+00
  1.948349e+01    1.322815e+00
  1.949936e+01    1.325462e+00
  1.951524e+01    1.325329e+00
  1.953111e+01    1.335940e+00
  1.954699e+01    1.320718e+00
  1.956286e+01    1.319786e+00
  1.957874e+01    1.317318e+00
  1.959461e+01    1.297823e+00
  1.961049e+01    1.299779e+00
  1.962637e+01    1.319335e+00
  1.964224e+01    1.315110e+00
  1.965812e+01    1.302189e+00
  1.967399e+01    1.302240e+00
  1.968987e+01    1.317960e+00
  1.970574e+01    1.327902e+00
  1.972162e+01    1.329235e+00
  1.973749e+01    1.297267e+00
  1.975337e+01    1.297144e+00
  1.976925e+01    1.307833e+00
  1.978512e+01    1.299707e+00
  1.980100e+01    1.288020e+00
  1.981687e+01    1.297810e+00
  1.983275e+01    1.304507e+00
  1.984862e+01    1.298666e+00
  1.986450e+01    1.289902e+00
  1.988037e+01    1.282359e+00
  1.989625e+01    1.262452e+00
  1.991213e+01    1.276610e+00
  1.992800e+01    1.300886e+00
  1.994388e+01    1.288005e+00
  1.995975e+01    1.299302e+00
  1.997563e+01    1.280061e+00
  1.999150e+01    1.298860e+00
  2.000738e+01    1.293976e+00
  2.002325e+01    1.297110e+00
  2.003913e+01    1.293334e+00
  2.005501e+01    1.268950e+00
  2.007088e+01    1.266238e+00
  2.008676e+01    1.283494e+00
  2.010263e+01    1.267299e+00
  2.011851e+01    1.264786e+00
  2.013438e+01    1.274503e+00
  2.015026e+01    1.286117e+00
  2.016614e+01    1.284709e+00
  2.018201e+01    1.276898e+00
  2.019789e+01    1.250349e+00
  2.021376e+01    1.235480e+00
  2.022964e+01    1.230609e+00
  2.024551e+01    1.257841e+00
  2.026139e+01    1.250558e+00
  2.027726e+01    1.240124e+00
  2.029314e+01    1.242225e+00
  2.030902e+01    1.261139e+00
  2.032489e+01    1.237833e+00
  2.034077e+01    1.244842e+00
  2.035664e+01    1.250685e+00
  2.037252e+01    1.230305e+00
  2.038839e+01    1.231805e+00
  2.040427e+01    1.249271e+00
  2.042014e+01    1.243399e+00
  2.043602e+01    1.235389e+00
  2.045190e+01    1.240118e+00
  2.046777e+01    1.235918e+00
  2.048365e+01    1.234583e+00
  2.049952e+01    1.227986e+00
  2.051540e+01    1.240306e+00
  2.053127e+01    1.244422e+00
  2.054715e+01    1.245240e+00
  2.056302e+01    1.244361e+00
  2.057890e+01    1.242757e+00
  2.059478e+01    1.236233e+00
  2.061065e+01    1.218282e+00
  2.062653e+01    1.243103e+00
  2.064240e+01    1.254944e+00
  2.065828e+01    1.238799e+00
  2.067415e+01    1.235056e+00
  2.069003e+01    1.219520e+00
  2.070590e+01    1.215770e+00
  2.072178e+01    1.186525e+00
  2.073766e+01    1.220050e+00
  2.075353e+01    1.219734e+00
  2.076941e+01    1.211132e+00
  2.078528e+01    1.215360e+00
  2.080116e+01    1.240122e+00
  2.081703e+01    1.224537e+00
  2.083291e+01    1.217504e+00
  2.084878e+01    1.218312e+00
  2.086466e+01    1.233737e+00
  2.088054e+01    1.200419e+00
  2.089641e+01    1.219778e+00
  2.091229e+01    1.231339e+00
  2.092816e+01    1.223698e+00
  2.094404e+01    1.227012e+00
  2.095991e+01    1.212561e+00
  2.097579e+01    1.190289e+00
  2.099166e+01    1.214227e+00
  2.100754e+01    1.247549e+00
  2.102342e+01    1.222718e+00
  2.103929e+01    1.201268e+00
  2.105517e+01    1.221670e+00
  2.107104e+01    1.219153e+00
  2.108692e+01    1.205089e+00
  2.110279e+01    1.210886e+00
  2.111867e+01    1.225119e+00
  2.113455e+01    1.267814e+00
  2.115042e+01    1.252955e+00
  2.116630e+01    1.233310e+00
  2.118217e+01    1.251842e+00
  2.119805e+01    1.247644e+00
  2.121392e+01    1.264536e+00
  2.122980e+01    1.271065e+00
  2.124567e+01    1.225683e+00
  2.126155e+01    1.216698e+00
  2.127743e+01    1.245883e+00
  2.129330e+01    1.265211e+00
  2.130918e+01    1.250002e+00
  2.132505e+01    1.269830e+00
  2.134093e+01    1.287908e+00
  2.135680e+01    1.292341e+00
  2.137268e+01    1.307775e+00
  2.138855e+01    1.332622e+00
  2.140443e+01    1.311890e+00
  2.142031e+01    1.316466e+00
  2.143618e+01    1.314333e+00
  2.145206e+01    1.350657e+00
  2.146793e+01    1.373768e+00
  2.148381e+01    1.370346e+00
  2.149968e+01    1.406368e+00
  2.151556e+01    1.467294e+00
  2.153143e+01    1.492985e+00
  2.154731e+01    1.525735e+00
  2.156319e+01    1.573922e+00
  2.157906e+01    1.628800e+00
  2.159494e+01    1.705947e+00
  2.161081e+01    1.781027e+00
  2.162669e+01    1.858908e+00
  2.164256e+01    1.982590e+00
  2.165844e+01    2.145871e+00
  2.167431e+01    2.292171e+00
  2.169019e+01    2.485819e+00
  2.170607e+01    2.800777e+00
  2.172194e+01    3.144543e+00
  2.173782e+01    3.512315e+00
  2.175369e+01    3.988554e+00
  2.176957e+01    4.583909e+00
  2.178544e+01    5.219441e+00
  2.180132e+01    5.892462e+00
  2.181719e+01    6.517287e+00
  2.183307e+01    7.175838e+00
  2.184895e+01    7.830657e+00
  2.186482e+01    8.362338e+00
  2.188070e+01    8.821277e+00
  2.189657e+01    9.007987e+00
  2.191245e+01    8.739090e+00
  2.192832e+01    8.269415e+00
  2.194420e+01    7.445699e+00
  2.196007e+01    6.541836e+00
  2.197595e+01    5.638030e+00
  2.199183e+01    4.877759e+00
  2.200770e+01    4.183869e+00
  2.202358e+01    3.634574e+00
  2.203945e+01    3.210298e+00
  2.205533e+01    2.792035e+00
  2.207120e+01    2.529148e+00
  2.208708e+01    2.336155e+00
  2.210296e+01    2.152352e+00
  2.211883e+01    1.996683e+00
  2.213471e+01    1.872687e+00
  2.215058e+01    1.804676e+00
  2.216646e+01    1.688389e+00
  2.218233e+01    1.593325e+00
  2.219821e+01    1.520196e+00
  2.221408e+01    1.489550e+00
  2.222996e+01    1.463561e+00
  2.224584e+01    1.392321e+00
  2.226171e+01    1.352784e+00
  2.227759e+01    1.370107e+00
  2.229346e+01    1.342100e+00
  2.230934e+01    1.297989e+00
  2.232521e+01    1.263159e+00
  2.234109e+01    1.251044e+00
  2.235696e+01    1.245969e+00
  2.237284e+01    1.231024e+00
  2.238872e+01    1.229951e+00
  2.240459e+01    1.205486e+00
  2.242047e+01    1.184719e+00
  2.243634e+01    1.160590e+00
  2.245222e+01    1.164721e+00
  2.246809e+01    1.158311e+00
  2.248397e+01    1.139971e+00
  2.249984e+01    1.145155e+00
  2.251572e+01    1.152620e+00
  2.253160e+01    1.146010e+00
  2.254747e+01    1.130865e+00
  2.256335e+01    1.136018e+00
  2.257922e+01    1.124551e+00
  2.259510e+01    1.113257e+00
  2.261097e+01    1.104550e+00
  2.262685e+01    1.117555e+00
  2.264272e+01    1.093271e+00
  2.265860e+01    1.087613e+00
  2.267448e+01    1.088147e+00
  2.269035e+01    1.077238e+00
  2.270623e+01    1.094705e+00
  2.272210e+01    1.059842e+00
  2.273798e+01    1.054125e+00
  2.275385e+01    1.068717e+00
  2.276973e+01    1.079105e+00
  2.278560e+01    1.077232e+00
  2.280148e+01    1.045133e+00
  2.281736e+01    1.051753e+00
  2.283323e+01    1.066120e+00
  2.284911e+01    1.062334e+00
  2.286498e+01    1.050796e+00
  2.288086e+01    1.030972e+00
  2.289673e+01    1.047437e+00
  2.291261e+01    1.032580e+00
  2.292848e+01    1.026928e+00
  2.294436e+01    1.032642e+00
  2.296024e+01    1.023287e+00
  2.297611e+01    1.032778e+00
  2.299199e+01    1.022863e+00
  2.300786e+01    1.035220e+00
  2.302374e+01    1.039056e+00
  2.303961e+01    1.004827e+00
  2.305549e+01    1.015553e+00
  2.307137e+01    1.015340e+00
  2.308724e+01    1.004063e+00
  2.310312e+01    9.914021e-01
  2.311899e+01    9.962930e-01
  2.313487e+01    1.003345e+00
  2.315074e+01    1.006951e+00
  2.316662e+01    1.004234e+00
  2.318249e+01    9.872243e-01
  2.319837e+01    9.969237e-01
  2.321425e+01    9.952889e-01
  2.323012e+01    1.002398e+00
  2.324600e+01    1.005049e+00
  2.326187e+01    9.765698e-01
  2.327775e+01    9.803113e-01
  2.329362e+01    9.756750e-01
  2.330950e+01    9.818085e-01
  2.332537e+01    9.729648e-01
  2.334125e+01    9.749965e-01
  2.335713e+01    9.814689e-01
  2.337300e+01    9.739994e-01
  2.338888e+01    9.687682e-01
  2.340475e+01    9.617249e-01
  2.342063e+01    9.664919e-01
  2.343650e+01    9.771889e-01
  2.345238e+01    9.862005e-01
  2.346825e+01    9.810973e-01
  2.348413e+01    9.680538e-01
  2.350001e+01    9.543288e-01
  2.351588e+01    9.616183e-01
  2.353176e+01    9.663662e-01
  2.354763e+01    9.505794e-01
  2.356351e+01    9.603230e-01
  2.357938e+01    9.816810e-01
  2.359526e+01    9.823822e-01
  2.361113e+01    9.423898e-01
  2.362701e+01    9.681647e-01
  2.364289e+01    9.736652e-01
  2.365876e+01    9.640710e-01
  2.367464e+01    9.573720e-01
  2.369051e+01    9.514690e-01
  2.370639e+01    9.410806e-01
  2.372226e+01    9.408194e-01
  2.373814e+01    9.462018e-01
  2.375401e+01    9.353518e-01
  2.376989e+01    9.340699e-01
  2.378577e+01    9.295158e-01
  2.380164e+01    9.336530e-01
  2.381752e+01    9.219687e-01
  2.383339e+01    9.183546e-01
  2.384927e+01    9.301056e-01
  2.386514e+01    9.242048e-01
  2.388102e+01    9.210882e-01
  2.389689e+01    9.050190e-01
  2.391277e+01    9.030262e-01
  2.392865e+01    9.389434e-01
  2.394452e+01    9.122006e-01
  2.396040e+01    8.961586e-01
  2.397627e+01    8.582451e-01
  2.399215e+01    8.831049e-01
  2.400802e+01    8.953597e-01
  2.402390e+01    8.906353e-01
  2.403978e+01    8.882383e-01
  2.405565e+01    8.935039e-01
  2.407153e+01    9.013343e-01
  2.408740e+01    9.039817e-01
  2.410328e+01    9.010819e-01
  2.411915e+01    8.840088e-01
  2.413503e+01    8.725441e-01
  2.415090e+01    8.785308e-01
  2.416678e+01    8.793691e-01
  2.418266e+01    8.877501e-01
  2.419853e+01    8.744323e-01
  2.421441e+01    8.837831e-01
  2.423028e+01    8.817364e-01
  2.424616e+01    8.874753e-01
  2.426203e+01    8.802572e-01
  2.427791e+01    8.717496e-01
  2.429378e+01    8.745112e-01
  2.430966e+01    9.110685e-01
  2.432554e+01    9.163206e-01
  2.434141e+01    8.919163e-01
  2.435729e+01    8.931374e-01
  2.437316e+01    8.892168e-01
  2.438904e+01    8.803717e-01
  2.440491e+01    8.837478e-01
  2.442079e+01    9.045539e-01
  2.443666e+01    9.028736e-01
  2.445254e+01    9.138142e-01
  2.446842e+01    9.083354e-01
  2.448429e+01    8.907886e-01
  2.450017e+01    9.001040e-01
  2.451604e+01    9.041179e-01
  2.453192e+01    8.967667e-01
  2.454779e+01    8.778293e-01
  2.456367e+01    8.866879e-01
  2.457954e+01    8.867037e-01
  2.459542e+01    9.008288e-01
  2.461130e+01    8.933414e-01
  2.462717e+01    8.945422e-01
  2.464305e+01    8.907728e-01
  2.465892e+01    9.091017e-01
  2.467480e+01    8.885849e-01
  2.469067e+01    8.599575e-01
  2.470655e+01    8.843645e-01
  2.472242e+01    8.987135e-01
  2.473830e+01    8.957539e-01
  2.475418e+01    8.899518e-01
  2.477005e+01    9.114814e-01
  2.478593e+01    9.094334e-01
  2.480180e+01    9.013441e-01
  2.481768e+01    9.047480e-01
  2.483355e+01    9.031490e-01
  2.484943e+01    8.781546e-01
  2.486530e+01    8.889204e-01
  2.488118e+01    8.985977e-01
  2.489706e+01    8.800143e-01
  2.491293e+01    8.863532e-01
  2.492881e+01    8.896312e-01
  2.494468e+01    9.045161e-01
  2.496056e+01    8.967580e-01
  2.497643e+01    9.091196e-01
  2.499231e+01    9.040365e-01
  2.500819e+01    9.000646e-01
  2.502406e+01    8.896199e-01
  2.503994e+01    9.084494e-01
  2.505581e+01    9.026653e-01
  2.507169e+01    9.018254e-01
  2.508756e+01    8.796036e-01
  2.510344e+01    8.865488e-01
  2.511931e+01    9.095082e-01
  2.513519e+01    9.196705e-01
  2.515107e+01    8.958488e-01
  2.516694e+01    9.028849e-01
  2.518282e+01    9.257202e-01
  2.519869e+01    9.349791e-01
  2.521457e+01    9.371697e-01
  2.523044e+01    9.295998e-01
  2.524632e+01    9.409359e-01
  2.526219e+01    9.374770e-01
  2.527807e+01    9.374855e-01
  2.529395e+01    9.509214e-01
  2.530982e+01    9.299439e-01
  2.532570e+01    9.519764e-01
  2.534157e+01    9.705011e-01
  2.535745e+01    9.827129e-01
  2.537332e+01    9.661359e-01
  2.538920e+01    9.801725e-01
  2.540507e+01    9.886324e-01
  2.542095e+01    1.004855e+00
  2.543683e+01    1.011208e+00
  2.545270e+01    1.021242e+00
  2.546858e+01    1.041607e+00
  2.548445e+01    1.035426e+00
  2.550033e+01    1.050762e+00
  2.551620e+01    1.058305e+00
  2.553208e+01    1.080621e+00
  2.554795e+01    1.107273e+00
  2.556383e+01    1.145288e+00
  2.557971e+01    1.166421e+00
  2.559558e+01    1.178723e+00
  2.561146e+01    1.212335e+00
  2.562733e+01    1.256117e+00
  2.564321e+01    1.336977e+00
  2.565908e+01    1.365225e+00
  2.567496e+01    1.418943e+00
  2.569083e+01    1.499196e+00
  2.570671e+01    1.564202e+00
  2.572259e+01    1.704744e+00
  2.573846e+01    1.850563e+00
  2.575434e+01    1.993773e+00
  2.577021e+01    2.217710e+00
  2.578609e+01    2.507166e+00
  2.580196e+01    2.844869e+00
  2.581784e+01    3.182141e+00
  2.583371e+01    3.661644e+00
  2.584959e+01    4.186060e+00
  2.586547e+01    4.699252e+00
  2.588134e+01    5.253988e+00
  2.589722e+01    5.796339e+00
  2.591309e+01    6.359723e+00
  2.592897e+01    6.760904e+00
  2.594484e+01    7.066779e+00
  2.596072e+01    7.095068e+00
  2.597660e+01    6.922823e+00
  2.599247e+01    6.506041e+00
  2.600835e+01    5.904210e+00
  2.602422e+01    5.252045e+00
  2.604010e+01    4.592407e+00
  2.605597e+01    3.972006e+00
  2.607185e+01    3.415309e+00
  2.608772e+01    2.995267e+00
  2.610360e+01    2.656177e+00
  2.611948e+01    2.365602e+00
  2.613535e+01    2.144053e+00
  2.615123e+01    1.952948e+00
  2.616710e+01    1.780847e+00
  2.618298e+01    1.654544e+00
  2.619885e+01    1.571031e+00
  2.621473e+01    1.451158e+00
  2.623060e+01    1.389154e+00
  2.624648e+01    1.329155e+00
  2.626236e+01    1.308108e+00
  2.627823e+01    1.263460e+00
  2.629411e+01    1.210186e+00
  2.630998e+01    1.190876e+00
  2.632586e+01    1.141235e+00
  2.634173e+01    1.108676e+00
  2.635761e+01    1.081375e+00
  2.637348e+01    1.073172e+00
  2.638936e+01    1.077968e+00
  2.640524e+01    1.036682e+00
  2.642111e+01    1.019086e+00
  2.643699e+01    1.017253e+00
  2.645286e+01    1.018195e+00
  2.646874e+01    1.016986e+00
  2.648461e+01    1.016837e+00
  2.650049e+01    1.000238e+00
  2.651636e+01    1.000067e+00
  2.653224e+01    1.019853e+00
  2.654812e+01    1.001866e+00
  2.656399e+01    9.893003e-01
  2.657987e+01    9.924821e-01
  2.659574e+01    9.942136e-01
  2.661162e+01    9.611382e-01
  2.662749e+01    9.563367e-01
  2.664337e+01    9.662830e-01
  2.665924e+01    9.831522e-01
  2.667512e+01    9.972258e-01
  2.669100e+01    9.495225e-01
  2.670687e+01    9.542717e-01
  2.672275e+01    9.708749e-01
  2.673862e+01    9.738030e-01
  2.675450e+01    9.897234e-01
  2.677037e+01    9.754148e-01
  2.678625e+01    9.612631e-01
  2.680212e+01    9.870082e-01
  2.681800e+01    9.849417e-01
  2.683388e+01    9.806394e-01
  2.684975e+01    9.816872e-01
  2.686563e+01    9.955807e-01
  2.688150e+01    9.974709e-01
  2.689738e+01    1.032812e+00
  2.691325e+01    1.021302e+00
  2.692913e+01    1.017308e+00
  2.694501e+01    1.028690e+00
  2.696088e+01    1.031630e+00
  2.697676e+01    1.061529e+00
  2.699263e+01    1.088447e+00
  2.700851e+01    1.112227e+00
  2.702438e+01    1.166991e+00
  2.704026e+01    1.219650e+00
  2.705613e+01    1.263904e+00
  2.707201e+01    1.326360e+00
  2.708789e+01    1.399177e+00
  2.710376e+01    1.508486e+00
  2.711964e+01    1.613970e+00
  2.713551e+01    1.730372e+00
  2.715139e+01    1.857869e+00
  2.716726e+01    1.977718e+00
  2.718314e+01    2.074312e+00
  2.719901e+01    2.140743e+00
  2.721489e+01    2.200240e+00
  2.723077e+01    2.134724e+00
  2.724664e+01    2.052682e+00
  2.726252e+01    1.952305e+00
  2.727839e+01    1.846732e+00
  2.729427e+01    1.714490e+00
  2.731014e+01    1.580766e+00
  2.732602e+01    1.443721e+00
  2.734189e+01    1.378081e+00
  2.735777e+01    1.315433e+00
  2.737365e+01    1.226865e+00
  2.738952e+01    1.145759e+00
  2.740540e+01    1.120924e+00
  2.742127e+01    1.086388e+00
  2.743715e+01    1.060475e+00
  2.745302e+01    1.042554e+00
  2.746890e+01    1.016951e+00
  2.748477e+01    9.883571e-01
  2.750065e+01    9.923856e-01
  2.751653e+01    9.742758e-01
  2.753240e+01    9.362414e-01
  2.754828e+01    9.458441e-01
  2.756415e+01    9.438367e-01
  2.758003e+01    9.584360e-01
  2.759590e+01    9.543132e-01
  2.761178e+01    9.304956e-01
  2.762765e+01    9.209287e-01
  2.764353e+01    9.233972e-01
  2.765941e+01    9.083712e-01
  2.767528e+01    9.024042e-01
  2.769116e+01    9.098227e-01
  2.770703e+01    8.951228e-01
  2.772291e+01    8.912576e-01
  2.773878e+01    8.871393e-01
  2.775466e+01    8.884188e-01
  2.777054e+01    8.947156e-01
  2.778641e+01    8.903779e-01
  2.780229e+01    8.878983e-01
  2.781816e+01    8.992367e-01
  2.783404e+01    8.990273e-01
  2.784991e+01    8.812318e-01
  2.786579e+01    8.798480e-01
  2.788166e+01    8.936354e-01
  2.789754e+01    8.877498e-01
  2.791342e+01    8.798777e-01
  2.792929e+01    8.857784e-01
  2.794517e+01    8.723847e-01
  2.796104e+01    8.568495e-01
  2.797692e+01    8.425138e-01
  2.799279e+01    8.702745e-01
  2.800867e+01    8.910154e-01
  2.802454e+01    8.583310e-01
  2.804042e+01    8.539450e-01
  2.805630e+01    8.589361e-01
  2.807217e+01    8.473739e-01
  2.808805e+01    8.643715e-01
  2.810392e+01    8.802963e-01
  2.811980e+01    8.633548e-01
  2.813567e+01    8.387340e-01
  2.815155e+01    8.385488e-01
  2.816742e+01    8.555194e-01
  2.818330e+01    8.613093e-01
  2.819918e+01    8.449550e-01
  2.821505e+01    8.604698e-01
  2.823093e+01    8.599021e-01
  2.824680e+01    8.814001e-01
  2.826268e+01    8.638958e-01
  2.827855e+01    8.401943e-01
  2.829443e+01    8.386251e-01
  2.831030e+01    8.333361e-01
  2.832618e+01    8.351678e-01
  2.834206e+01    8.443118e-01
  2.835793e+01    8.497691e-01
  2.837381e+01    8.517157e-01
  2.838968e+01    8.468320e-01
  2.840556e+01    8.457253e-01
  2.842143e+01    8.516940e-01
  2.843731e+01    8.329799e-01
  2.845318e+01    8.468950e-01
  2.846906e+01    8.401017e-01
  2.848494e+01    8.376281e-01
  2.850081e+01    8.464931e-01
  2.851669e+01    8.585089e-01
  2.853256e+01    8.139039e-01
  2.854844e+01    8.228908e-01
  2.856431e+01    8.589936e-01
  2.858019e+01    8.209758e-01
  2.859606e+01    8.243048e-01
  2.861194e+01    8.444290e-01
  2.862782e+01    8.390958e-01
  2.864369e+01    8.314404e-01
  2.865957e+01    8.433942e-01
  2.867544e+01    8.333856e-01
  2.869132e+01    8.379604e-01
  2.870719e+01    8.124272e-01
  2.872307e+01    8.278393e-01
  2.873895e+01    8.296869e-01
  2.875482e+01    8.465603e-01
  2.877070e+01    8.363913e-01
  2.878657e+01    8.268046e-01
  2.880245e+01    8.294575e-01
  2.881832e+01    8.263439e-01
  2.883420e+01    8.273132e-01
  2.885007e+01    8.267536e-01
  2.886595e+01    8.228135e-01
  2.888183e+01    8.143986e-01
  2.889770e+01    8.308645e-01
  2.891358e+01    8.200005e-01
  2.892945e+01    8.329718e-01
  2.894533e+01    8.334027e-01
  2.896120e+01    8.240544e-01
  2.897708e+01    8.442637e-01
  2.899295e+01    8.199250e-01
  2.900883e+01    8.245262e-01
  2.902471e+01    8.193702e-01
  2.904058e+01    8.311338e-01
  2.905646e+01    8.313175e-01
  2.907233e+01    8.276234e-01
  2.908821e+01    8.091326e-01
  2.910408e+01    8.246793e-01
  2.911996e+01    8.070199e-01
  2.913583e+01    8.286789e-01
  2.915171e+01    8.300985e-01
  2.916759e+01    8.195768e-01
  2.918346e+01    8.002877e-01
  2.919934e+01    7.934068e-01
  2.921521e+01    7.965707e-01
  2.923109e+01    8.180577e-01
  2.924696e+01    8.269562e-01
  2.926284e+01    8.312678e-01
  2.927871e+01    8.307258e-01
  2.929459e+01    8.057672e-01
  2.931047e+01    8.195180e-01
  2.932634e+01    8.326089e-01
  2.934222e+01    8.005157e-01
  2.935809e+01    8.142834e-01
  2.937397e+01    8.143656e-01
  2.938984e+01    7.970720e-01
  2.940572e+01    8.196344e-01
  2.942159e+01    8.043720e-01
  2.943747e+01    8.252115e-01
  2.945335e+01    8.037994e-01
  2.946922e+01    7.959564e-01
  2.948510e+01    8.101978e-01
  2.950097e+01    8.080473e-01
  2.951685e+01    8.101550e-01
  2.953272e+01    8.235093e-01
  2.954860e+01    8.096864e-01
  2.956447e+01    8.140580e-01
  2.958035e+01    8.046966e-01
  2.959623e+01    7.818927e-01
  2.961210e+01    8.048017e-01
  2.962798e+01    7.962419e-01
  2.964385e+01    8.166493e-01
  2.965973e+01    7.878813e-01
  2.967560e+01    7.855484e-01
  2.969148e+01    7.780427e-01
  2.970736e+01    7.922943e-01
  2.972323e+01    7.969588e-01
  2.973911e+01    8.062676e-01
  2.975498e+01    7.952552e-01
  2.977086e+01    7.936925e-01
  2.978673e+01    8.034927e-01
  2.980261e+01    7.716967e-01
  2.981848e+01    7.655047e-01
  2.983436e+01    7.986820e-01
  2.985024e+01    8.082886e-01
  2.986611e+01    7.896661e-01
  2.988199e+01    7.743148e-01
  2.989786e+01    7.791397e-01
  2.991374e+01    7.866556e-01
  2.992961e+01    8.167437e-01
  2.994549e+01    8.109848e-01
  2.996136e+01    7.978770e-01
  2.997724e+01    7.996095e-01
  2.999312e+01    7.914519e-01
  3.000899e+01    7.946329e-01
  3.002487e+01    8.323941e-01
  3.004074e+01    8.307974e-01
  3.005662e+01    8.083032e-01
  3.007249e+01    8.151307e-01
  3.008837e+01    8.267462e-01
  3.010424e+01    8.218033e-01
  3.012012e+01    7.910833e-01
  3.013600e+01    7.976938e-01
  3.015187e+01    7.874679e-01
  3.016775e+01    7.987669e-01
  3.018362e+01    8.074569e-01
  3.019950e+01    7.864805e-01
  3.021537e+01    7.781594e-01
  3.023125e+01    7.728611e-01
  3.024712e+01    7.693542e-01
  3.026300e+01    7.841673e-01
  3.027888e+01    7.719623e-01
  3.029475e+01    7.776762e-01
  3.031063e+01    7.824156e-01
  3.032650e+01    7.757847e-01
  3.034238e+01    7.836859e-01
  3.035825e+01    7.823122e-01
  3.037413e+01    7.849388e-01
  3.039000e+01    7.923388e-01
  3.040588e+01    7.869648e-01
  3.042176e+01    7.938145e-01
  3.043763e+01    7.911439e-01
  3.045351e+01    7.888692e-01
  3.046938e+01    7.956420e-01
  3.048526e+01    8.135052e-01
  3.050113e+01    8.040423e-01
  3.051701e+01    7.757799e-01
  3.053288e+01    7.864522e-01
  3.054876e+01    7.920693e-01
  3.056464e+01    7.704534e-01
  3.058051e+01    7.738847e-01
  3.059639e+01    8.129193e-01
  3.061226e+01    8.061002e-01
  3.062814e+01    7.925366e-01
  3.064401e+01    7.861665e-01
  3.065989e+01    7.883491e-01
  3.067577e+01    8.002203e-01
  3.069164e+01    7.829206e-01
  3.070752e+01    7.862498e-01
  3.072339e+01    7.880458e-01
  3.073927e+01    7.978268e-01
  3.075514e+01    7.874826e-01
  3.077102e+01    7.924441e-01
  3.078689e+01    7.813030e-01
  3.080277e+01    7.860102e-01
  3.081865e+01    7.731674e-01
  3.083452e+01    7.876167e-01
  3.085040e+01    7.828201e-01
  3.086627e+01    7.872857e-01
  3.088215e+01    7.797355e-01
  3.089802e+01    7.878369e-01
  3.091390e+01    7.762220e-01
  3.092977e+01    7.686942e-01
  3.094565e+01    7.818658e-01
  3.096153e+01    7.928677e-01
  3.097740e+01    7.872633e-01
  3.099328e+01    7.854318e-01
  3.100915e+01    7.819394e-01
  3.102503e+01    7.750044e-01
  3.104090e+01    7.815023e-01
  3.105678e+01    7.966811e-01
  3.107265e+01    7.926001e-01
  3.108853e+01    7.886649e-01
  3.110441e+01    7.899104e-01
  3.112028e+01    7.833099e-01
  3.113616e+01    7.863283e-01
  3.115203e+01    7.984204e-01
  3.116791e+01    7.917076e-01
  3.118378e+01    7.983192e-01
  3.119966e+01    8.090330e-01
  3.121553e+01    7.907668e-01
  3.123141e+01    7.920046e-01
  3.124729e+01    7.986827e-01
  3.126316e+01    7.822457e-01
  3.127904e+01    7.923491e-01
  3.129491e+01    8.234411e-01
  3.131079e+01    8.108878e-01
  3.132666e+01    7.931031e-01
  3.134254e+01    7.947733e-01
  3.135841e+01    8.166215e-01
  3.137429e+01    8.204088e-01
  3.139017e+01    8.136510e-01
  3.140604e+01    7.911189e-01
  3.142192e+01    8.050371e-01
  3.143779e+01    8.142492e-01
  3.145367e+01    8.203398e-01
  3.146954e+01    8.189227e-01
  3.148542e+01    8.211008e-01
  3.150129e+01    8.286190e-01
  3.151717e+01    8.279126e-01
  3.153305e+01    8.451560e-01
  3.154892e+01    8.406931e-01
  3.156480e+01    8.469146e-01
  3.158067e+01    8.706228e-01
  3.159655e+01    8.832395e-01
  3.161242e+01    8.870960e-01
  3.162830e+01    9.013976e-01
  3.164418e+01    9.270307e-01
  3.166005e+01    9.196324e-01
  3.167593e+01    9.834552e-01
  3.169180e+01    9.947198e-01
  3.170768e+01    1.039930e+00
  3.172355e+01    1.059724e+00
  3.173943e+01    1.149906e+00
  3.175530e+01    1.190817e+00
  3.177118e+01    1.244502e+00
  3.178706e+01    1.364014e+00
  3.180293e+01    1.474288e+00
  3.181881e+01    1.587649e+00
  3.183468e+01    1.732582e+00
  3.185056e+01    1.837118e+00
  3.186643e+01    1.964496e+00
  3.188231e+01    2.050618e+00
  3.189818e+01    2.069231e+00
  3.191406e+01    2.076588e+00
  3.192994e+01    2.017516e+00
  3.194581e+01    1.946352e+00
  3.196169e+01    1.806375e+00
  3.197756e+01    1.665664e+00
  3.199344e+01    1.539686e+00
  3.200931e+01    1.418430e+00
  3.202519e+01    1.305223e+00
  3.204106e+01    1.226820e+00
  3.205694e+01    1.176992e+00
  3.207282e+01    1.133510e+00
  3.208869e+01    1.061213e+00
  3.210457e+01    1.008071e+00
  3.212044e+01    9.783486e-01
  3.213632e+01    9.372863e-01
  3.215219e+01    9.017278e-01
  3.216807e+01    8.687088e-01
  3.218394e+01    8.744953e-01
  3.219982e+01    8.664635e-01
  3.221570e+01    8.499005e-01
  3.223157e+01    8.548352e-01
  3.224745e+01    8.488540e-01
  3.226332e+01    8.415623e-01
  3.227920e+01    8.249421e-01
  3.229507e+01    8.020510e-01
  3.231095e+01    7.888291e-01
  3.232682e+01    7.953051e-01
  3.234270e+01    8.058280e-01
  3.235858e+01    8.154328e-01
  3.237445e+01    8.013384e-01
  3.239033e+01    7.718465e-01
  3.240620e+01    7.869043e-01
  3.242208e+01    8.007939e-01
  3.243795e+01    8.017280e-01
  3.245383e+01    7.894647e-01
  3.246970e+01    7.760246e-01
  3.248558e+01    7.832783e-01
  3.250146e+01    7.821326e-01
  3.251733e+01    7.941545e-01
  3.253321e+01    7.845933e-01
  3.254908e+01    7.797601e-01
