# == pyFAI calibration ==
# Distance Sample to Detector: 0.3999999939076516 m
# PONI: 9.750e-02, 1.135e-01 m
# Rotations: -0.000175 0.000000 -0.000000 rad
# 
# == Fit2d calibration ==
# Distance Sample-beamCenter: 400.000 mm
# Center: x=1514.000, y=1300.000 pix
# Tilt: 0.010 deg  TiltPlanRot: 0.010 deg
# 
# Detector Detector	 Spline= None	 PixelSize= 7.500e-05, 7.500e-05 m
#    Detector has a mask: False 
#    Detector has a dark current: False 
#    detector has a flat field: False 
# 
# Wavelength: 6.888e-11 m
# Mask applied: user provided
# Dark current applied: False
# Flat field applied: False
# Polarization factor: 0.99
# Normalization factor: 1.0
# --> /home/myspot/data/2024_07_Rosario/Ru-CGO-ex/2024-07-27_003_Ru-CGO-ex_Reaction_dwell_000023_data_000155.dat
#       q_nm^-1             I 
  2.003187e-02    1.647358e-01
  3.590745e-02    9.188656e-02
  5.178302e-02    6.627674e-02
  6.765859e-02    4.304534e-02
  8.353417e-02    5.130880e-02
  9.940974e-02    1.446930e-01
  1.152853e-01    5.888716e-02
  1.311609e-01    2.083884e-02
  1.470365e-01    6.053165e-02
  1.629120e-01    1.144610e-01
  1.787876e-01    3.841080e-03
  1.946632e-01    2.098427e-02
  2.105388e-01    1.039395e-02
  2.264143e-01    3.546290e-02
  2.422899e-01    2.587942e-02
  2.581655e-01    5.178440e-02
  2.740411e-01    6.916893e-02
  2.899166e-01    6.237446e-02
  3.057922e-01    1.828896e-02
  3.216678e-01    4.118262e-02
  3.375433e-01    5.907114e-02
  3.534189e-01    3.266139e-02
  3.692945e-01    2.873872e-02
  3.851701e-01    2.831112e-02
  4.010456e-01    4.802647e-02
  4.169212e-01    2.597058e-02
  4.327968e-01    1.164579e-02
  4.486724e-01    4.291688e-03
  4.645479e-01    2.251792e-02
  4.804235e-01    4.569506e-02
  4.962991e-01    5.953548e-02
  5.121747e-01    6.647792e-02
  5.280502e-01    6.208648e-02
  5.439258e-01    4.717750e-02
  5.598014e-01    3.024288e-02
  5.756770e-01    2.020372e-02
  5.915525e-01    5.918474e-02
  6.074281e-01    7.151765e-02
  6.233037e-01    3.983307e-02
  6.391793e-01    2.297412e-02
  6.550548e-01    4.843961e-02
  6.709304e-01    4.829887e-02
  6.868060e-01    2.818624e-02
  7.026815e-01    3.303833e-02
  7.185571e-01    5.183723e-02
  7.344327e-01    3.701940e-02
  7.503083e-01    2.106290e-02
  7.661838e-01    7.521658e-02
  7.820594e-01    1.170364e-01
  7.979350e-01    1.398253e-01
  8.138106e-01    2.280598e-01
  8.296861e-01    2.434707e-01
  8.455617e-01    3.416493e-01
  8.614373e-01    4.695985e-01
  8.773129e-01    4.845903e-01
  8.931884e-01    5.686540e-01
  9.090640e-01    7.340568e-01
  9.249396e-01    8.790917e-01
  9.408152e-01    8.847117e-01
  9.566907e-01    9.712783e-01
  9.725663e-01    9.792323e-01
  9.884419e-01    1.072335e+00
  1.004317e+00    1.248710e+00
  1.020193e+00    1.412359e+00
  1.036069e+00    1.538716e+00
  1.051944e+00    1.546694e+00
  1.067820e+00    1.445688e+00
  1.083695e+00    1.423833e+00
  1.099571e+00    1.526426e+00
  1.115446e+00    1.605177e+00
  1.131322e+00    1.663692e+00
  1.147198e+00    1.627392e+00
  1.163073e+00    1.540357e+00
  1.178949e+00    1.686044e+00
  1.194824e+00    1.792215e+00
  1.210700e+00    1.996864e+00
  1.226575e+00    2.263660e+00
  1.242451e+00    2.359246e+00
  1.258327e+00    2.380852e+00
  1.274202e+00    2.466589e+00
  1.290078e+00    2.630057e+00
  1.305953e+00    2.686774e+00
  1.321829e+00    2.732767e+00
  1.337705e+00    2.773721e+00
  1.353580e+00    2.857318e+00
  1.369456e+00    2.888712e+00
  1.385331e+00    2.861406e+00
  1.401207e+00    2.857314e+00
  1.417082e+00    2.723578e+00
  1.432958e+00    2.734261e+00
  1.448834e+00    2.787827e+00
  1.464709e+00    2.945332e+00
  1.480585e+00    3.036958e+00
  1.496460e+00    3.046278e+00
  1.512336e+00    3.030895e+00
  1.528211e+00    3.190288e+00
  1.544087e+00    3.160159e+00
  1.559963e+00    3.168598e+00
  1.575838e+00    3.321977e+00
  1.591714e+00    3.151374e+00
  1.607589e+00    3.131568e+00
  1.623465e+00    3.173420e+00
  1.639340e+00    3.086446e+00
  1.655216e+00    3.137320e+00
  1.671092e+00    3.037351e+00
  1.686967e+00    2.944808e+00
  1.702843e+00    3.105343e+00
  1.718718e+00    3.208823e+00
  1.734594e+00    3.141279e+00
  1.750469e+00    2.979093e+00
  1.766345e+00    3.027855e+00
  1.782221e+00    3.029897e+00
  1.798096e+00    3.021416e+00
  1.813972e+00    3.044708e+00
  1.829847e+00    3.018281e+00
  1.845723e+00    3.036055e+00
  1.861598e+00    2.917158e+00
  1.877474e+00    2.855656e+00
  1.893350e+00    3.006588e+00
  1.909225e+00    2.996119e+00
  1.925101e+00    3.032412e+00
  1.940976e+00    3.001215e+00
  1.956852e+00    3.131181e+00
  1.972727e+00    3.063512e+00
  1.988603e+00    2.991131e+00
  2.004479e+00    2.984768e+00
  2.020354e+00    3.077032e+00
  2.036230e+00    3.166262e+00
  2.052105e+00    3.178562e+00
  2.067981e+00    3.185518e+00
  2.083856e+00    3.074592e+00
  2.099732e+00    3.047314e+00
  2.115608e+00    3.042814e+00
  2.131483e+00    3.120456e+00
  2.147359e+00    3.162860e+00
  2.163234e+00    3.168077e+00
  2.179110e+00    3.165514e+00
  2.194985e+00    3.294826e+00
  2.210861e+00    3.166842e+00
  2.226737e+00    3.186105e+00
  2.242612e+00    3.191899e+00
  2.258488e+00    3.043312e+00
  2.274363e+00    3.037784e+00
  2.290239e+00    3.077823e+00
  2.306115e+00    3.072552e+00
  2.321990e+00    3.068797e+00
  2.337866e+00    3.039633e+00
  2.353741e+00    3.107557e+00
  2.369617e+00    3.144261e+00
  2.385492e+00    3.219018e+00
  2.401368e+00    3.124865e+00
  2.417244e+00    3.163957e+00
  2.433119e+00    3.123922e+00
  2.448995e+00    3.049789e+00
  2.464870e+00    3.011057e+00
  2.480746e+00    3.115272e+00
  2.496621e+00    3.112673e+00
  2.512497e+00    3.102814e+00
  2.528373e+00    3.141642e+00
  2.544248e+00    3.157033e+00
  2.560124e+00    3.142447e+00
  2.575999e+00    3.230310e+00
  2.591875e+00    3.302156e+00
  2.607750e+00    3.164900e+00
  2.623626e+00    3.246752e+00
  2.639502e+00    3.178911e+00
  2.655377e+00    3.248805e+00
  2.671253e+00    3.239139e+00
  2.687128e+00    3.216561e+00
  2.703004e+00    3.202872e+00
  2.718879e+00    3.217650e+00
  2.734755e+00    3.287125e+00
  2.750631e+00    3.374170e+00
  2.766506e+00    3.203649e+00
  2.782382e+00    3.205252e+00
  2.798257e+00    3.285903e+00
  2.814133e+00    3.291608e+00
  2.830008e+00    3.226382e+00
  2.845884e+00    3.292989e+00
  2.861760e+00    3.297662e+00
  2.877635e+00    3.241710e+00
  2.893511e+00    3.297186e+00
  2.909386e+00    3.403797e+00
  2.925262e+00    3.349307e+00
  2.941137e+00    3.346031e+00
  2.957013e+00    3.336768e+00
  2.972889e+00    3.186795e+00
  2.988764e+00    3.177542e+00
  3.004640e+00    3.171608e+00
  3.020515e+00    3.313756e+00
  3.036391e+00    3.361565e+00
  3.052266e+00    3.288284e+00
  3.068142e+00    3.242657e+00
  3.084018e+00    3.302986e+00
  3.099893e+00    3.332444e+00
  3.115769e+00    3.353164e+00
  3.131644e+00    3.303298e+00
  3.147520e+00    3.351735e+00
  3.163395e+00    3.406324e+00
  3.179271e+00    3.359269e+00
  3.195147e+00    3.264471e+00
  3.211022e+00    3.366984e+00
  3.226898e+00    3.407524e+00
  3.242773e+00    3.442458e+00
  3.258649e+00    3.357826e+00
  3.274525e+00    3.399611e+00
  3.290400e+00    3.466860e+00
  3.306276e+00    3.432626e+00
  3.322151e+00    3.378268e+00
  3.338027e+00    3.462155e+00
  3.353902e+00    3.358227e+00
  3.369778e+00    3.335188e+00
  3.385654e+00    3.271009e+00
  3.401529e+00    3.341919e+00
  3.417405e+00    3.293909e+00
  3.433280e+00    3.406836e+00
  3.449156e+00    3.465409e+00
  3.465031e+00    3.473255e+00
  3.480907e+00    3.428903e+00
  3.496783e+00    3.390844e+00
  3.512658e+00    3.470495e+00
  3.528534e+00    3.506188e+00
  3.544409e+00    3.437479e+00
  3.560285e+00    3.430189e+00
  3.576160e+00    3.463947e+00
  3.592036e+00    3.440166e+00
  3.607912e+00    3.447485e+00
  3.623787e+00    3.479114e+00
  3.639663e+00    3.438509e+00
  3.655538e+00    3.448159e+00
  3.671414e+00    3.506509e+00
  3.687289e+00    3.520475e+00
  3.703165e+00    3.406473e+00
  3.719041e+00    3.325763e+00
  3.734916e+00    3.491654e+00
  3.750792e+00    3.430416e+00
  3.766667e+00    3.391684e+00
  3.782543e+00    3.506186e+00
  3.798418e+00    3.518889e+00
  3.814294e+00    3.471405e+00
  3.830170e+00    3.498163e+00
  3.846045e+00    3.481176e+00
  3.861921e+00    3.407370e+00
  3.877796e+00    3.454065e+00
  3.893672e+00    3.535225e+00
  3.909547e+00    3.544979e+00
  3.925423e+00    3.521443e+00
  3.941299e+00    3.482794e+00
  3.957174e+00    3.511703e+00
  3.973050e+00    3.453650e+00
  3.988925e+00    3.449953e+00
  4.004801e+00    3.500450e+00
  4.020676e+00    3.473998e+00
  4.036552e+00    3.456673e+00
  4.052428e+00    3.489429e+00
  4.068303e+00    3.483530e+00
  4.084179e+00    3.539674e+00
  4.100054e+00    3.506347e+00
  4.115930e+00    3.541272e+00
  4.131806e+00    3.566747e+00
  4.147681e+00    3.522488e+00
  4.163557e+00    3.561512e+00
  4.179432e+00    3.601579e+00
  4.195308e+00    3.542607e+00
  4.211183e+00    3.551830e+00
  4.227059e+00    3.525815e+00
  4.242935e+00    3.530294e+00
  4.258810e+00    3.545949e+00
  4.274686e+00    3.586036e+00
  4.290561e+00    3.570278e+00
  4.306437e+00    3.541758e+00
  4.322312e+00    3.515153e+00
  4.338188e+00    3.546996e+00
  4.354064e+00    3.572731e+00
  4.369939e+00    3.544574e+00
  4.385815e+00    3.544450e+00
  4.401690e+00    3.521576e+00
  4.417566e+00    3.610675e+00
  4.433441e+00    3.663764e+00
  4.449317e+00    3.558218e+00
  4.465193e+00    3.618947e+00
  4.481068e+00    3.602506e+00
  4.496944e+00    3.572029e+00
  4.512819e+00    3.536577e+00
  4.528695e+00    3.548801e+00
  4.544570e+00    3.548427e+00
  4.560446e+00    3.572635e+00
  4.576322e+00    3.566731e+00
  4.592197e+00    3.597874e+00
  4.608073e+00    3.589748e+00
  4.623948e+00    3.572023e+00
  4.639824e+00    3.602501e+00
  4.655699e+00    3.589129e+00
  4.671575e+00    3.596814e+00
  4.687451e+00    3.577865e+00
  4.703326e+00    3.643045e+00
  4.719202e+00    3.624256e+00
  4.735077e+00    3.578819e+00
  4.750953e+00    3.669735e+00
  4.766828e+00    3.598897e+00
  4.782704e+00    3.592853e+00
  4.798580e+00    3.596421e+00
  4.814455e+00    3.694019e+00
  4.830331e+00    3.604021e+00
  4.846206e+00    3.558186e+00
  4.862082e+00    3.666768e+00
  4.877957e+00    3.580550e+00
  4.893833e+00    3.540365e+00
  4.909709e+00    3.574601e+00
  4.925584e+00    3.649687e+00
  4.941460e+00    3.603689e+00
  4.957335e+00    3.627727e+00
  4.973211e+00    3.663862e+00
  4.989086e+00    3.634351e+00
  5.004962e+00    3.641374e+00
  5.020838e+00    3.611097e+00
  5.036713e+00    3.677795e+00
  5.052589e+00    3.654792e+00
  5.068464e+00    3.670494e+00
  5.084340e+00    3.719228e+00
  5.100216e+00    3.634723e+00
  5.116091e+00    3.659657e+00
  5.131967e+00    3.635451e+00
  5.147842e+00    3.649176e+00
  5.163718e+00    3.642824e+00
  5.179593e+00    3.671154e+00
  5.195469e+00    3.643013e+00
  5.211345e+00    3.591492e+00
  5.227220e+00    3.527168e+00
  5.243096e+00    3.616201e+00
  5.258971e+00    3.617202e+00
  5.274847e+00    3.625699e+00
  5.290722e+00    3.703996e+00
  5.306598e+00    3.612913e+00
  5.322474e+00    3.579647e+00
  5.338349e+00    3.606402e+00
  5.354225e+00    3.682045e+00
  5.370100e+00    3.644773e+00
  5.385976e+00    3.582322e+00
  5.401851e+00    3.659929e+00
  5.417727e+00    3.730145e+00
  5.433603e+00    3.615541e+00
  5.449478e+00    3.550761e+00
  5.465354e+00    3.536341e+00
  5.481229e+00    3.579587e+00
  5.497105e+00    3.622722e+00
  5.512980e+00    3.579517e+00
  5.528856e+00    3.565568e+00
  5.544732e+00    3.542264e+00
  5.560607e+00    3.550219e+00
  5.576483e+00    3.618109e+00
  5.592358e+00    3.602756e+00
  5.608234e+00    3.592960e+00
  5.624109e+00    3.540925e+00
  5.639985e+00    3.560978e+00
  5.655861e+00    3.638677e+00
  5.671736e+00    3.648065e+00
  5.687612e+00    3.607330e+00
  5.703487e+00    3.570006e+00
  5.719363e+00    3.522577e+00
  5.735238e+00    3.539250e+00
  5.751114e+00    3.612025e+00
  5.766990e+00    3.634989e+00
  5.782865e+00    3.593574e+00
  5.798741e+00    3.591541e+00
  5.814616e+00    3.614389e+00
  5.830492e+00    3.557937e+00
  5.846367e+00    3.535200e+00
  5.862243e+00    3.541490e+00
  5.878119e+00    3.518698e+00
  5.893994e+00    3.551669e+00
  5.909870e+00    3.560095e+00
  5.925745e+00    3.459724e+00
  5.941621e+00    3.458497e+00
  5.957497e+00    3.470503e+00
  5.973372e+00    3.524151e+00
  5.989248e+00    3.478905e+00
  6.005123e+00    3.494610e+00
  6.020999e+00    3.513788e+00
  6.036874e+00    3.555538e+00
  6.052750e+00    3.488392e+00
  6.068626e+00    3.535185e+00
  6.084501e+00    3.568846e+00
  6.100377e+00    3.645530e+00
  6.116252e+00    3.623821e+00
  6.132128e+00    3.611732e+00
  6.148003e+00    3.591000e+00
  6.163879e+00    3.562787e+00
  6.179755e+00    3.542344e+00
  6.195630e+00    3.569587e+00
  6.211506e+00    3.602620e+00
  6.227381e+00    3.524447e+00
  6.243257e+00    3.528587e+00
  6.259132e+00    3.608727e+00
  6.275008e+00    3.646948e+00
  6.290884e+00    3.520380e+00
  6.306759e+00    3.494442e+00
  6.322635e+00    3.568826e+00
  6.338510e+00    3.574459e+00
  6.354386e+00    3.522415e+00
  6.370261e+00    3.514621e+00
  6.386137e+00    3.503055e+00
  6.402013e+00    3.634472e+00
  6.417888e+00    3.598637e+00
  6.433764e+00    3.589628e+00
  6.449639e+00    3.578569e+00
  6.465515e+00    3.528830e+00
  6.481390e+00    3.489643e+00
  6.497266e+00    3.525421e+00
  6.513142e+00    3.484459e+00
  6.529017e+00    3.464478e+00
  6.544893e+00    3.484843e+00
  6.560768e+00    3.504062e+00
  6.576644e+00    3.537214e+00
  6.592519e+00    3.516181e+00
  6.608395e+00    3.537999e+00
  6.624271e+00    3.506735e+00
  6.640146e+00    3.497796e+00
  6.656022e+00    3.552993e+00
  6.671897e+00    3.466015e+00
  6.687773e+00    3.392923e+00
  6.703648e+00    3.475407e+00
  6.719524e+00    3.489423e+00
  6.735400e+00    3.502468e+00
  6.751275e+00    3.464178e+00
  6.767151e+00    3.463038e+00
  6.783026e+00    3.603022e+00
  6.798902e+00    3.567396e+00
  6.814777e+00    3.547212e+00
  6.830653e+00    3.604492e+00
  6.846529e+00    3.628454e+00
  6.862404e+00    3.586153e+00
  6.878280e+00    3.490361e+00
  6.894155e+00    3.506670e+00
  6.910031e+00    3.487093e+00
  6.925907e+00    3.458732e+00
  6.941782e+00    3.460048e+00
  6.957658e+00    3.479150e+00
  6.973533e+00    3.534926e+00
  6.989409e+00    3.517628e+00
  7.005284e+00    3.505745e+00
  7.021160e+00    3.470781e+00
  7.037036e+00    3.531756e+00
  7.052911e+00    3.622627e+00
  7.068787e+00    3.512485e+00
  7.084662e+00    3.516782e+00
  7.100538e+00    3.518850e+00
  7.116413e+00    3.457268e+00
  7.132289e+00    3.457817e+00
  7.148165e+00    3.460651e+00
  7.164040e+00    3.545831e+00
  7.179916e+00    3.602608e+00
  7.195791e+00    3.568098e+00
  7.211667e+00    3.484671e+00
  7.227542e+00    3.492248e+00
  7.243418e+00    3.533256e+00
  7.259294e+00    3.543487e+00
  7.275169e+00    3.491173e+00
  7.291045e+00    3.565978e+00
  7.306920e+00    3.513261e+00
  7.322796e+00    3.437073e+00
  7.338671e+00    3.474430e+00
  7.354547e+00    3.463909e+00
  7.370423e+00    3.484686e+00
  7.386298e+00    3.457103e+00
  7.402174e+00    3.505484e+00
  7.418049e+00    3.543000e+00
  7.433925e+00    3.468028e+00
  7.449800e+00    3.512741e+00
  7.465676e+00    3.437309e+00
  7.481552e+00    3.451010e+00
  7.497427e+00    3.485712e+00
  7.513303e+00    3.420330e+00
  7.529178e+00    3.457870e+00
  7.545054e+00    3.439507e+00
  7.560929e+00    3.384843e+00
  7.576805e+00    3.399295e+00
  7.592681e+00    3.455007e+00
  7.608556e+00    3.395589e+00
  7.624432e+00    3.427995e+00
  7.640307e+00    3.430451e+00
  7.656183e+00    3.417975e+00
  7.672058e+00    3.401892e+00
  7.687934e+00    3.380457e+00
  7.703810e+00    3.443209e+00
  7.719685e+00    3.463946e+00
  7.735561e+00    3.419310e+00
  7.751436e+00    3.421727e+00
  7.767312e+00    3.452980e+00
  7.783187e+00    3.470740e+00
  7.799063e+00    3.504259e+00
  7.814939e+00    3.389223e+00
  7.830814e+00    3.382501e+00
  7.846690e+00    3.411238e+00
  7.862565e+00    3.416281e+00
  7.878441e+00    3.399786e+00
  7.894317e+00    3.465167e+00
  7.910192e+00    3.439832e+00
  7.926068e+00    3.310173e+00
  7.941943e+00    3.352323e+00
  7.957819e+00    3.376766e+00
  7.973694e+00    3.445888e+00
  7.989570e+00    3.369881e+00
  8.005446e+00    3.428427e+00
  8.021321e+00    3.364673e+00
  8.037197e+00    3.371935e+00
  8.053072e+00    3.399971e+00
  8.068948e+00    3.403013e+00
  8.084823e+00    3.427263e+00
  8.100699e+00    3.429666e+00
  8.116575e+00    3.475491e+00
  8.132450e+00    3.414218e+00
  8.148326e+00    3.397371e+00
  8.164201e+00    3.436461e+00
  8.180077e+00    3.472163e+00
  8.195952e+00    3.433066e+00
  8.211828e+00    3.445235e+00
  8.227704e+00    3.480041e+00
  8.243579e+00    3.473487e+00
  8.259455e+00    3.411712e+00
  8.275330e+00    3.395023e+00
  8.291206e+00    3.368937e+00
  8.307081e+00    3.444318e+00
  8.322957e+00    3.424623e+00
  8.338833e+00    3.434196e+00
  8.354708e+00    3.342682e+00
  8.370584e+00    3.358509e+00
  8.386459e+00    3.370381e+00
  8.402335e+00    3.273956e+00
  8.418210e+00    3.258965e+00
  8.434086e+00    3.360078e+00
  8.449962e+00    3.435474e+00
  8.465837e+00    3.345923e+00
  8.481713e+00    3.363894e+00
  8.497588e+00    3.364415e+00
  8.513464e+00    3.357651e+00
  8.529339e+00    3.326088e+00
  8.545215e+00    3.345821e+00
  8.561091e+00    3.360583e+00
  8.576966e+00    3.351542e+00
  8.592842e+00    3.357983e+00
  8.608717e+00    3.374150e+00
  8.624593e+00    3.413491e+00
  8.640468e+00    3.387809e+00
  8.656344e+00    3.346341e+00
  8.672220e+00    3.335790e+00
  8.688095e+00    3.279853e+00
  8.703971e+00    3.293992e+00
  8.719846e+00    3.340104e+00
  8.735722e+00    3.315945e+00
  8.751598e+00    3.331147e+00
  8.767473e+00    3.312965e+00
  8.783349e+00    3.325111e+00
  8.799224e+00    3.355662e+00
  8.815100e+00    3.265326e+00
  8.830975e+00    3.335138e+00
  8.846851e+00    3.383828e+00
  8.862727e+00    3.286612e+00
  8.878602e+00    3.263837e+00
  8.894478e+00    3.294228e+00
  8.910353e+00    3.326014e+00
  8.926229e+00    3.315970e+00
  8.942104e+00    3.237587e+00
  8.957980e+00    3.218663e+00
  8.973856e+00    3.290546e+00
  8.989731e+00    3.351871e+00
  9.005607e+00    3.299678e+00
  9.021482e+00    3.293164e+00
  9.037358e+00    3.300307e+00
  9.053233e+00    3.244325e+00
  9.069109e+00    3.271837e+00
  9.084985e+00    3.262453e+00
  9.100860e+00    3.281473e+00
  9.116736e+00    3.249586e+00
  9.132611e+00    3.233573e+00
  9.148487e+00    3.250939e+00
  9.164362e+00    3.287597e+00
  9.180238e+00    3.274475e+00
  9.196114e+00    3.233478e+00
  9.211989e+00    3.239347e+00
  9.227865e+00    3.314394e+00
  9.243740e+00    3.297328e+00
  9.259616e+00    3.226787e+00
  9.275491e+00    3.196339e+00
  9.291367e+00    3.233055e+00
  9.307243e+00    3.223438e+00
  9.323118e+00    3.225786e+00
  9.338994e+00    3.231894e+00
  9.354869e+00    3.207912e+00
  9.370745e+00    3.197531e+00
  9.386620e+00    3.179859e+00
  9.402496e+00    3.196141e+00
  9.418372e+00    3.191068e+00
  9.434247e+00    3.194584e+00
  9.450123e+00    3.247469e+00
  9.465998e+00    3.221488e+00
  9.481874e+00    3.162967e+00
  9.497749e+00    3.165912e+00
  9.513625e+00    3.161347e+00
  9.529501e+00    3.180228e+00
  9.545376e+00    3.258219e+00
  9.561252e+00    3.188510e+00
  9.577127e+00    3.194427e+00
  9.593003e+00    3.214608e+00
  9.608878e+00    3.208773e+00
  9.624754e+00    3.216377e+00
  9.640630e+00    3.238888e+00
  9.656505e+00    3.215162e+00
  9.672381e+00    3.193923e+00
  9.688256e+00    3.171823e+00
  9.704132e+00    3.124021e+00
  9.720008e+00    3.147093e+00
  9.735883e+00    3.145584e+00
  9.751759e+00    3.113857e+00
  9.767634e+00    3.113056e+00
  9.783510e+00    3.144776e+00
  9.799385e+00    3.134006e+00
  9.815261e+00    3.179024e+00
  9.831137e+00    3.158757e+00
  9.847012e+00    3.139482e+00
  9.862888e+00    3.153803e+00
  9.878763e+00    3.163435e+00
  9.894639e+00    3.170846e+00
  9.910514e+00    3.160092e+00
  9.926390e+00    3.092386e+00
  9.942266e+00    3.069938e+00
  9.958141e+00    3.104554e+00
  9.974017e+00    3.162058e+00
  9.989892e+00    3.131110e+00
  1.000577e+01    3.127741e+00
  1.002164e+01    3.078949e+00
  1.003752e+01    3.096043e+00
  1.005339e+01    3.113036e+00
  1.006927e+01    3.068536e+00
  1.008515e+01    3.086134e+00
  1.010102e+01    3.062421e+00
  1.011690e+01    3.102062e+00
  1.013277e+01    3.083489e+00
  1.014865e+01    3.087520e+00
  1.016452e+01    3.059916e+00
  1.018040e+01    3.056810e+00
  1.019627e+01    3.053993e+00
  1.021215e+01    3.071923e+00
  1.022803e+01    3.044116e+00
  1.024390e+01    3.057003e+00
  1.025978e+01    3.082705e+00
  1.027565e+01    3.054560e+00
  1.029153e+01    3.080732e+00
  1.030740e+01    3.146948e+00
  1.032328e+01    3.101163e+00
  1.033915e+01    3.019335e+00
  1.035503e+01    3.075472e+00
  1.037091e+01    3.071258e+00
  1.038678e+01    3.006413e+00
  1.040266e+01    3.008215e+00
  1.041853e+01    2.983139e+00
  1.043441e+01    3.009189e+00
  1.045028e+01    3.075089e+00
  1.046616e+01    3.059227e+00
  1.048204e+01    2.994117e+00
  1.049791e+01    2.996921e+00
  1.051379e+01    2.997380e+00
  1.052966e+01    3.037534e+00
  1.054554e+01    3.003727e+00
  1.056141e+01    2.971706e+00
  1.057729e+01    2.945789e+00
  1.059316e+01    2.981160e+00
  1.060904e+01    2.957312e+00
  1.062492e+01    2.987152e+00
  1.064079e+01    2.998152e+00
  1.065667e+01    2.916897e+00
  1.067254e+01    2.967762e+00
  1.068842e+01    3.002247e+00
  1.070429e+01    2.924721e+00
  1.072017e+01    3.006759e+00
  1.073604e+01    3.030304e+00
  1.075192e+01    2.940434e+00
  1.076780e+01    2.911906e+00
  1.078367e+01    2.940425e+00
  1.079955e+01    2.911174e+00
  1.081542e+01    2.922039e+00
  1.083130e+01    2.952584e+00
  1.084717e+01    2.930383e+00
  1.086305e+01    2.919441e+00
  1.087892e+01    2.895137e+00
  1.089480e+01    2.905080e+00
  1.091068e+01    2.927307e+00
  1.092655e+01    2.929876e+00
  1.094243e+01    2.860807e+00
  1.095830e+01    2.842027e+00
  1.097418e+01    2.933525e+00
  1.099005e+01    2.901743e+00
  1.100593e+01    2.903363e+00
  1.102180e+01    2.924321e+00
  1.103768e+01    2.946287e+00
  1.105356e+01    2.857630e+00
  1.106943e+01    2.910257e+00
  1.108531e+01    2.910617e+00
  1.110118e+01    2.879164e+00
  1.111706e+01    2.828694e+00
  1.113293e+01    2.866251e+00
  1.114881e+01    2.871955e+00
  1.116468e+01    2.901029e+00
  1.118056e+01    2.883992e+00
  1.119644e+01    2.834133e+00
  1.121231e+01    2.838240e+00
  1.122819e+01    2.876424e+00
  1.124406e+01    2.821536e+00
  1.125994e+01    2.785598e+00
  1.127581e+01    2.845177e+00
  1.129169e+01    2.847390e+00
  1.130756e+01    2.880455e+00
  1.132344e+01    2.827483e+00
  1.133932e+01    2.842580e+00
  1.135519e+01    2.837583e+00
  1.137107e+01    2.835745e+00
  1.138694e+01    2.798560e+00
  1.140282e+01    2.814368e+00
  1.141869e+01    2.841970e+00
  1.143457e+01    2.794640e+00
  1.145045e+01    2.800874e+00
  1.146632e+01    2.824456e+00
  1.148220e+01    2.847569e+00
  1.149807e+01    2.812055e+00
  1.151395e+01    2.819487e+00
  1.152982e+01    2.824405e+00
  1.154570e+01    2.765929e+00
  1.156157e+01    2.769867e+00
  1.157745e+01    2.803774e+00
  1.159333e+01    2.795428e+00
  1.160920e+01    2.719180e+00
  1.162508e+01    2.753802e+00
  1.164095e+01    2.789359e+00
  1.165683e+01    2.809123e+00
  1.167270e+01    2.782553e+00
  1.168858e+01    2.716171e+00
  1.170445e+01    2.744022e+00
  1.172033e+01    2.718046e+00
  1.173621e+01    2.715224e+00
  1.175208e+01    2.734487e+00
  1.176796e+01    2.723378e+00
  1.178383e+01    2.745044e+00
  1.179971e+01    2.701941e+00
  1.181558e+01    2.707165e+00
  1.183146e+01    2.741265e+00
  1.184733e+01    2.750367e+00
  1.186321e+01    2.779269e+00
  1.187909e+01    2.688181e+00
  1.189496e+01    2.662166e+00
  1.191084e+01    2.708315e+00
  1.192671e+01    2.703943e+00
  1.194259e+01    2.723797e+00
  1.195846e+01    2.741874e+00
  1.197434e+01    2.717330e+00
  1.199021e+01    2.697042e+00
  1.200609e+01    2.707698e+00
  1.202197e+01    2.720710e+00
  1.203784e+01    2.743389e+00
  1.205372e+01    2.726464e+00
  1.206959e+01    2.694705e+00
  1.208547e+01    2.693743e+00
  1.210134e+01    2.691117e+00
  1.211722e+01    2.697973e+00
  1.213309e+01    2.719422e+00
  1.214897e+01    2.687272e+00
  1.216485e+01    2.677145e+00
  1.218072e+01    2.684269e+00
  1.219660e+01    2.667376e+00
  1.221247e+01    2.664589e+00
  1.222835e+01    2.726650e+00
  1.224422e+01    2.712765e+00
  1.226010e+01    2.649341e+00
  1.227597e+01    2.656121e+00
  1.229185e+01    2.697751e+00
  1.230773e+01    2.719460e+00
  1.232360e+01    2.666138e+00
  1.233948e+01    2.671863e+00
  1.235535e+01    2.677940e+00
  1.237123e+01    2.659580e+00
  1.238710e+01    2.686741e+00
  1.240298e+01    2.688322e+00
  1.241886e+01    2.642737e+00
  1.243473e+01    2.675475e+00
  1.245061e+01    2.644491e+00
  1.246648e+01    2.658854e+00
  1.248236e+01    2.670012e+00
  1.249823e+01    2.716907e+00
  1.251411e+01    2.764349e+00
  1.252998e+01    2.735090e+00
  1.254586e+01    2.727734e+00
  1.256174e+01    2.718023e+00
  1.257761e+01    2.732714e+00
  1.259349e+01    2.725648e+00
  1.260936e+01    2.771424e+00
  1.262524e+01    2.745851e+00
  1.264111e+01    2.714388e+00
  1.265699e+01    2.714445e+00
  1.267286e+01    2.818949e+00
  1.268874e+01    2.822829e+00
  1.270462e+01    2.820510e+00
  1.272049e+01    2.862915e+00
  1.273637e+01    2.869338e+00
  1.275224e+01    2.893691e+00
  1.276812e+01    2.902415e+00
  1.278399e+01    2.898749e+00
  1.279987e+01    2.962726e+00
  1.281574e+01    3.046209e+00
  1.283162e+01    3.087460e+00
  1.284750e+01    3.162169e+00
  1.286337e+01    3.244542e+00
  1.287925e+01    3.350970e+00
  1.289512e+01    3.501810e+00
  1.291100e+01    3.598743e+00
  1.292687e+01    3.826184e+00
  1.294275e+01    4.068984e+00
  1.295862e+01    4.390831e+00
  1.297450e+01    4.762758e+00
  1.299038e+01    5.293075e+00
  1.300625e+01    5.886990e+00
  1.302213e+01    6.656629e+00
  1.303800e+01    7.642446e+00
  1.305388e+01    8.727394e+00
  1.306975e+01    1.002272e+01
  1.308563e+01    1.129439e+01
  1.310150e+01    1.248515e+01
  1.311738e+01    1.368165e+01
  1.313326e+01    1.468019e+01
  1.314913e+01    1.541844e+01
  1.316501e+01    1.598129e+01
  1.318088e+01    1.620382e+01
  1.319676e+01    1.563891e+01
  1.321263e+01    1.414583e+01
  1.322851e+01    1.242530e+01
  1.324438e+01    1.066395e+01
  1.326026e+01    9.176045e+00
  1.327614e+01    7.854196e+00
  1.329201e+01    6.717750e+00
  1.330789e+01    5.855558e+00
  1.332376e+01    5.299321e+00
  1.333964e+01    4.816562e+00
  1.335551e+01    4.423205e+00
  1.337139e+01    4.111851e+00
  1.338727e+01    3.841624e+00
  1.340314e+01    3.674077e+00
  1.341902e+01    3.504315e+00
  1.343489e+01    3.363478e+00
  1.345077e+01    3.213341e+00
  1.346664e+01    3.139454e+00
  1.348252e+01    3.076773e+00
  1.349839e+01    3.016263e+00
  1.351427e+01    2.906311e+00
  1.353015e+01    2.821717e+00
  1.354602e+01    2.804868e+00
  1.356190e+01    2.782596e+00
  1.357777e+01    2.725672e+00
  1.359365e+01    2.695595e+00
  1.360952e+01    2.658623e+00
  1.362540e+01    2.631522e+00
  1.364127e+01    2.635471e+00
  1.365715e+01    2.591303e+00
  1.367303e+01    2.564366e+00
  1.368890e+01    2.566056e+00
  1.370478e+01    2.565067e+00
  1.372065e+01    2.548666e+00
  1.373653e+01    2.486653e+00
  1.375240e+01    2.481799e+00
  1.376828e+01    2.461470e+00
  1.378415e+01    2.459954e+00
  1.380003e+01    2.460379e+00
  1.381591e+01    2.453164e+00
  1.383178e+01    2.438053e+00
  1.384766e+01    2.430802e+00
  1.386353e+01    2.444921e+00
  1.387941e+01    2.445145e+00
  1.389528e+01    2.416334e+00
  1.391116e+01    2.426898e+00
  1.392703e+01    2.436841e+00
  1.394291e+01    2.435060e+00
  1.395879e+01    2.373758e+00
  1.397466e+01    2.328568e+00
  1.399054e+01    2.334881e+00
  1.400641e+01    2.354750e+00
  1.402229e+01    2.347017e+00
  1.403816e+01    2.299814e+00
  1.405404e+01    2.298584e+00
  1.406991e+01    2.345601e+00
  1.408579e+01    2.357235e+00
  1.410167e+01    2.334915e+00
  1.411754e+01    2.319075e+00
  1.413342e+01    2.319582e+00
  1.414929e+01    2.295786e+00
  1.416517e+01    2.306007e+00
  1.418104e+01    2.344386e+00
  1.419692e+01    2.292157e+00
  1.421279e+01    2.304535e+00
  1.422867e+01    2.266726e+00
  1.424455e+01    2.302206e+00
  1.426042e+01    2.269998e+00
  1.427630e+01    2.284088e+00
  1.429217e+01    2.267210e+00
  1.430805e+01    2.253450e+00
  1.432392e+01    2.236012e+00
  1.433980e+01    2.253707e+00
  1.435568e+01    2.259481e+00
  1.437155e+01    2.258311e+00
  1.438743e+01    2.292569e+00
  1.440330e+01    2.279700e+00
  1.441918e+01    2.215872e+00
  1.443505e+01    2.231867e+00
  1.445093e+01    2.251539e+00
  1.446680e+01    2.218189e+00
  1.448268e+01    2.210444e+00
  1.449856e+01    2.215973e+00
  1.451443e+01    2.252223e+00
  1.453031e+01    2.244725e+00
  1.454618e+01    2.200208e+00
  1.456206e+01    2.193288e+00
  1.457793e+01    2.244264e+00
  1.459381e+01    2.204101e+00
  1.460968e+01    2.165529e+00
  1.462556e+01    2.175552e+00
  1.464144e+01    2.203726e+00
  1.465731e+01    2.198654e+00
  1.467319e+01    2.162112e+00
  1.468906e+01    2.174886e+00
  1.470494e+01    2.206532e+00
  1.472081e+01    2.183051e+00
  1.473669e+01    2.145008e+00
  1.475256e+01    2.159758e+00
  1.476844e+01    2.161805e+00
  1.478432e+01    2.214694e+00
  1.480019e+01    2.238497e+00
  1.481607e+01    2.219891e+00
  1.483194e+01    2.207993e+00
  1.484782e+01    2.219584e+00
  1.486369e+01    2.171244e+00
  1.487957e+01    2.199534e+00
  1.489544e+01    2.185743e+00
  1.491132e+01    2.220416e+00
  1.492720e+01    2.223320e+00
  1.494307e+01    2.245377e+00
  1.495895e+01    2.306130e+00
  1.497482e+01    2.337950e+00
  1.499070e+01    2.324441e+00
  1.500657e+01    2.385602e+00
  1.502245e+01    2.471091e+00
  1.503832e+01    2.571526e+00
  1.505420e+01    2.660213e+00
  1.507008e+01    2.739569e+00
  1.508595e+01    2.924007e+00
  1.510183e+01    3.177459e+00
  1.511770e+01    3.470600e+00
  1.513358e+01    3.801641e+00
  1.514945e+01    4.150113e+00
  1.516533e+01    4.515562e+00
  1.518120e+01    4.861265e+00
  1.519708e+01    5.198162e+00
  1.521296e+01    5.422503e+00
  1.522883e+01    5.573577e+00
  1.524471e+01    5.727172e+00
  1.526058e+01    5.795803e+00
  1.527646e+01    5.697526e+00
  1.529233e+01    5.461599e+00
  1.530821e+01    5.048469e+00
  1.532409e+01    4.601650e+00
  1.533996e+01    4.170380e+00
  1.535584e+01    3.748454e+00
  1.537171e+01    3.412613e+00
  1.538759e+01    3.117914e+00
  1.540346e+01    2.933800e+00
  1.541934e+01    2.771194e+00
  1.543521e+01    2.607786e+00
  1.545109e+01    2.521407e+00
  1.546697e+01    2.390368e+00
  1.548284e+01    2.346527e+00
  1.549872e+01    2.273296e+00
  1.551459e+01    2.274277e+00
  1.553047e+01    2.243804e+00
  1.554634e+01    2.180302e+00
  1.556222e+01    2.111169e+00
  1.557809e+01    2.081600e+00
  1.559397e+01    2.094695e+00
  1.560985e+01    2.033199e+00
  1.562572e+01    2.076879e+00
  1.564160e+01    2.055987e+00
  1.565747e+01    2.042806e+00
  1.567335e+01    2.050861e+00
  1.568922e+01    2.011197e+00
  1.570510e+01    1.990572e+00
  1.572097e+01    1.985392e+00
  1.573685e+01    1.970762e+00
  1.575273e+01    1.968195e+00
  1.576860e+01    1.969290e+00
  1.578448e+01    1.931096e+00
  1.580035e+01    1.921325e+00
  1.581623e+01    1.940859e+00
  1.583210e+01    1.891881e+00
  1.584798e+01    1.881381e+00
  1.586385e+01    1.921529e+00
  1.587973e+01    1.937374e+00
  1.589561e+01    1.891344e+00
  1.591148e+01    1.913861e+00
  1.592736e+01    1.887509e+00
  1.594323e+01    1.882634e+00
  1.595911e+01    1.855958e+00
  1.597498e+01    1.848054e+00
  1.599086e+01    1.885453e+00
  1.600673e+01    1.886700e+00
  1.602261e+01    1.858297e+00
  1.603849e+01    1.844477e+00
  1.605436e+01    1.851337e+00
  1.607024e+01    1.849228e+00
  1.608611e+01    1.806964e+00
  1.610199e+01    1.841692e+00
  1.611786e+01    1.852995e+00
  1.613374e+01    1.855908e+00
  1.614961e+01    1.853752e+00
  1.616549e+01    1.844312e+00
  1.618137e+01    1.802610e+00
  1.619724e+01    1.794852e+00
  1.621312e+01    1.800359e+00
  1.622899e+01    1.833395e+00
  1.624487e+01    1.845029e+00
  1.626074e+01    1.806436e+00
  1.627662e+01    1.803609e+00
  1.629250e+01    1.804519e+00
  1.630837e+01    1.836398e+00
  1.632425e+01    1.801675e+00
  1.634012e+01    1.766588e+00
  1.635600e+01    1.765817e+00
  1.637187e+01    1.769517e+00
  1.638775e+01    1.774800e+00
  1.640362e+01    1.763675e+00
  1.641950e+01    1.765041e+00
  1.643538e+01    1.763653e+00
  1.645125e+01    1.772021e+00
  1.646713e+01    1.791134e+00
  1.648300e+01    1.778038e+00
  1.649888e+01    1.767900e+00
  1.651475e+01    1.736578e+00
  1.653063e+01    1.723413e+00
  1.654650e+01    1.741501e+00
  1.656238e+01    1.754830e+00
  1.657826e+01    1.775584e+00
  1.659413e+01    1.750970e+00
  1.661001e+01    1.732645e+00
  1.662588e+01    1.732322e+00
  1.664176e+01    1.720719e+00
  1.665763e+01    1.716364e+00
  1.667351e+01    1.718892e+00
  1.668938e+01    1.729198e+00
  1.670526e+01    1.731634e+00
  1.672114e+01    1.731626e+00
  1.673701e+01    1.727132e+00
  1.675289e+01    1.704842e+00
  1.676876e+01    1.687642e+00
  1.678464e+01    1.711296e+00
  1.680051e+01    1.692406e+00
  1.681639e+01    1.667726e+00
  1.683226e+01    1.699124e+00
  1.684814e+01    1.696049e+00
  1.686402e+01    1.671783e+00
  1.687989e+01    1.656960e+00
  1.689577e+01    1.686686e+00
  1.691164e+01    1.673201e+00
  1.692752e+01    1.698741e+00
  1.694339e+01    1.701342e+00
  1.695927e+01    1.688679e+00
  1.697514e+01    1.670663e+00
  1.699102e+01    1.653777e+00
  1.700690e+01    1.644222e+00
  1.702277e+01    1.684054e+00
  1.703865e+01    1.670378e+00
  1.705452e+01    1.632802e+00
  1.707040e+01    1.620181e+00
  1.708627e+01    1.670692e+00
  1.710215e+01    1.652055e+00
  1.711802e+01    1.619882e+00
  1.713390e+01    1.604590e+00
  1.714978e+01    1.618045e+00
  1.716565e+01    1.623061e+00
  1.718153e+01    1.637439e+00
  1.719740e+01    1.592707e+00
  1.721328e+01    1.627570e+00
  1.722915e+01    1.626861e+00
  1.724503e+01    1.624866e+00
  1.726091e+01    1.621907e+00
  1.727678e+01    1.594549e+00
  1.729266e+01    1.605504e+00
  1.730853e+01    1.607056e+00
  1.732441e+01    1.615095e+00
  1.734028e+01    1.605217e+00
  1.735616e+01    1.598173e+00
  1.737203e+01    1.594383e+00
  1.738791e+01    1.582651e+00
  1.740379e+01    1.588323e+00
  1.741966e+01    1.585814e+00
  1.743554e+01    1.571454e+00
  1.745141e+01    1.578211e+00
  1.746729e+01    1.595636e+00
  1.748316e+01    1.600509e+00
  1.749904e+01    1.588761e+00
  1.751491e+01    1.579431e+00
  1.753079e+01    1.546028e+00
  1.754667e+01    1.546550e+00
  1.756254e+01    1.568157e+00
  1.757842e+01    1.569144e+00
  1.759429e+01    1.563268e+00
  1.761017e+01    1.585193e+00
  1.762604e+01    1.561937e+00
  1.764192e+01    1.551101e+00
  1.765779e+01    1.527669e+00
  1.767367e+01    1.522683e+00
  1.768955e+01    1.544750e+00
  1.770542e+01    1.542403e+00
  1.772130e+01    1.550689e+00
  1.773717e+01    1.554973e+00
  1.775305e+01    1.571791e+00
  1.776892e+01    1.538809e+00
  1.778480e+01    1.546568e+00
  1.780067e+01    1.549825e+00
  1.781655e+01    1.521913e+00
  1.783243e+01    1.510833e+00
  1.784830e+01    1.521051e+00
  1.786418e+01    1.560622e+00
  1.788005e+01    1.508391e+00
  1.789593e+01    1.475005e+00
  1.791180e+01    1.474673e+00
  1.792768e+01    1.522701e+00
  1.794355e+01    1.548424e+00
  1.795943e+01    1.518241e+00
  1.797531e+01    1.490798e+00
  1.799118e+01    1.483936e+00
  1.800706e+01    1.464593e+00
  1.802293e+01    1.516845e+00
  1.803881e+01    1.527536e+00
  1.805468e+01    1.502872e+00
  1.807056e+01    1.509444e+00
  1.808643e+01    1.484685e+00
  1.810231e+01    1.511501e+00
  1.811819e+01    1.492471e+00
  1.813406e+01    1.485444e+00
  1.814994e+01    1.500872e+00
  1.816581e+01    1.499535e+00
  1.818169e+01    1.504471e+00
  1.819756e+01    1.497919e+00
  1.821344e+01    1.470969e+00
  1.822932e+01    1.493228e+00
  1.824519e+01    1.517495e+00
  1.826107e+01    1.469570e+00
  1.827694e+01    1.481582e+00
  1.829282e+01    1.474941e+00
  1.830869e+01    1.471170e+00
  1.832457e+01    1.467146e+00
  1.834044e+01    1.444034e+00
  1.835632e+01    1.452488e+00
  1.837220e+01    1.465420e+00
  1.838807e+01    1.443095e+00
  1.840395e+01    1.457379e+00
  1.841982e+01    1.465991e+00
  1.843570e+01    1.442632e+00
  1.845157e+01    1.425921e+00
  1.846745e+01    1.465757e+00
  1.848332e+01    1.459049e+00
  1.849920e+01    1.437677e+00
  1.851508e+01    1.441113e+00
  1.853095e+01    1.425878e+00
  1.854683e+01    1.451937e+00
  1.856270e+01    1.459147e+00
  1.857858e+01    1.448785e+00
  1.859445e+01    1.421673e+00
  1.861033e+01    1.408928e+00
  1.862620e+01    1.411239e+00
  1.864208e+01    1.379714e+00
  1.865796e+01    1.405303e+00
  1.867383e+01    1.425649e+00
  1.868971e+01    1.419158e+00
  1.870558e+01    1.404872e+00
  1.872146e+01    1.399223e+00
  1.873733e+01    1.408201e+00
  1.875321e+01    1.414746e+00
  1.876908e+01    1.399447e+00
  1.878496e+01    1.400063e+00
  1.880084e+01    1.412097e+00
  1.881671e+01    1.407829e+00
  1.883259e+01    1.423724e+00
  1.884846e+01    1.381361e+00
  1.886434e+01    1.387716e+00
  1.888021e+01    1.382412e+00
  1.889609e+01    1.371275e+00
  1.891196e+01    1.364164e+00
  1.892784e+01    1.361833e+00
  1.894372e+01    1.379776e+00
  1.895959e+01    1.375229e+00
  1.897547e+01    1.363622e+00
  1.899134e+01    1.366206e+00
  1.900722e+01    1.357924e+00
  1.902309e+01    1.346624e+00
  1.903897e+01    1.381859e+00
  1.905484e+01    1.380434e+00
  1.907072e+01    1.375612e+00
  1.908660e+01    1.389276e+00
  1.910247e+01    1.361589e+00
  1.911835e+01    1.362320e+00
  1.913422e+01    1.384548e+00
  1.915010e+01    1.372867e+00
  1.916597e+01    1.373879e+00
  1.918185e+01    1.393638e+00
  1.919773e+01    1.375005e+00
  1.921360e+01    1.333993e+00
  1.922948e+01    1.373332e+00
  1.924535e+01    1.363017e+00
  1.926123e+01    1.352167e+00
  1.927710e+01    1.370197e+00
  1.929298e+01    1.347148e+00
  1.930885e+01    1.347117e+00
  1.932473e+01    1.355589e+00
  1.934061e+01    1.376254e+00
  1.935648e+01    1.374950e+00
  1.937236e+01    1.346763e+00
  1.938823e+01    1.363942e+00
  1.940411e+01    1.347792e+00
  1.941998e+01    1.332680e+00
  1.943586e+01    1.339367e+00
  1.945173e+01    1.362305e+00
  1.946761e+01    1.325904e+00
  1.948349e+01    1.329636e+00
  1.949936e+01    1.328091e+00
  1.951524e+01    1.329146e+00
  1.953111e+01    1.317080e+00
  1.954699e+01    1.308091e+00
  1.956286e+01    1.329572e+00
  1.957874e+01    1.348097e+00
  1.959461e+01    1.341639e+00
  1.961049e+01    1.340602e+00
  1.962637e+01    1.304583e+00
  1.964224e+01    1.263099e+00
  1.965812e+01    1.296671e+00
  1.967399e+01    1.302521e+00
  1.968987e+01    1.311550e+00
  1.970574e+01    1.316158e+00
  1.972162e+01    1.306112e+00
  1.973749e+01    1.298537e+00
  1.975337e+01    1.319615e+00
  1.976925e+01    1.308265e+00
  1.978512e+01    1.297861e+00
  1.980100e+01    1.286258e+00
  1.981687e+01    1.282161e+00
  1.983275e+01    1.284399e+00
  1.984862e+01    1.307438e+00
  1.986450e+01    1.312435e+00
  1.988037e+01    1.275054e+00
  1.989625e+01    1.295230e+00
  1.991213e+01    1.304390e+00
  1.992800e+01    1.276896e+00
  1.994388e+01    1.270483e+00
  1.995975e+01    1.274504e+00
  1.997563e+01    1.295603e+00
  1.999150e+01    1.301801e+00
  2.000738e+01    1.286022e+00
  2.002325e+01    1.263633e+00
  2.003913e+01    1.267833e+00
  2.005501e+01    1.275758e+00
  2.007088e+01    1.287770e+00
  2.008676e+01    1.282724e+00
  2.010263e+01    1.277881e+00
  2.011851e+01    1.284190e+00
  2.013438e+01    1.303662e+00
  2.015026e+01    1.279154e+00
  2.016614e+01    1.243150e+00
  2.018201e+01    1.246809e+00
  2.019789e+01    1.255269e+00
  2.021376e+01    1.257302e+00
  2.022964e+01    1.269501e+00
  2.024551e+01    1.279168e+00
  2.026139e+01    1.256133e+00
  2.027726e+01    1.241974e+00
  2.029314e+01    1.240357e+00
  2.030902e+01    1.239398e+00
  2.032489e+01    1.261960e+00
  2.034077e+01    1.272133e+00
  2.035664e+01    1.249424e+00
  2.037252e+01    1.230856e+00
  2.038839e+01    1.251167e+00
  2.040427e+01    1.261708e+00
  2.042014e+01    1.249425e+00
  2.043602e+01    1.229650e+00
  2.045190e+01    1.251974e+00
  2.046777e+01    1.230163e+00
  2.048365e+01    1.215129e+00
  2.049952e+01    1.204995e+00
  2.051540e+01    1.239407e+00
  2.053127e+01    1.227867e+00
  2.054715e+01    1.224468e+00
  2.056302e+01    1.234200e+00
  2.057890e+01    1.212830e+00
  2.059478e+01    1.215035e+00
  2.061065e+01    1.228364e+00
  2.062653e+01    1.214529e+00
  2.064240e+01    1.223275e+00
  2.065828e+01    1.231200e+00
  2.067415e+01    1.236626e+00
  2.069003e+01    1.243267e+00
  2.070590e+01    1.221113e+00
  2.072178e+01    1.223393e+00
  2.073766e+01    1.238833e+00
  2.075353e+01    1.228745e+00
  2.076941e+01    1.231423e+00
  2.078528e+01    1.249508e+00
  2.080116e+01    1.221425e+00
  2.081703e+01    1.226553e+00
  2.083291e+01    1.220887e+00
  2.084878e+01    1.215839e+00
  2.086466e+01    1.215652e+00
  2.088054e+01    1.222093e+00
  2.089641e+01    1.243927e+00
  2.091229e+01    1.216142e+00
  2.092816e+01    1.206225e+00
  2.094404e+01    1.189986e+00
  2.095991e+01    1.192248e+00
  2.097579e+01    1.228798e+00
  2.099166e+01    1.243926e+00
  2.100754e+01    1.227802e+00
  2.102342e+01    1.208965e+00
  2.103929e+01    1.221126e+00
  2.105517e+01    1.232821e+00
  2.107104e+01    1.217950e+00
  2.108692e+01    1.219389e+00
  2.110279e+01    1.246532e+00
  2.111867e+01    1.236545e+00
  2.113455e+01    1.228780e+00
  2.115042e+01    1.211596e+00
  2.116630e+01    1.227176e+00
  2.118217e+01    1.225247e+00
  2.119805e+01    1.248267e+00
  2.121392e+01    1.218363e+00
  2.122980e+01    1.225942e+00
  2.124567e+01    1.262736e+00
  2.126155e+01    1.263341e+00
  2.127743e+01    1.251991e+00
  2.129330e+01    1.249930e+00
  2.130918e+01    1.246832e+00
  2.132505e+01    1.260087e+00
  2.134093e+01    1.274028e+00
  2.135680e+01    1.274433e+00
  2.137268e+01    1.279270e+00
  2.138855e+01    1.279587e+00
  2.140443e+01    1.294738e+00
  2.142031e+01    1.310205e+00
  2.143618e+01    1.349310e+00
  2.145206e+01    1.359279e+00
  2.146793e+01    1.352018e+00
  2.148381e+01    1.357927e+00
  2.149968e+01    1.388157e+00
  2.151556e+01    1.434555e+00
  2.153143e+01    1.455728e+00
  2.154731e+01    1.515158e+00
  2.156319e+01    1.563878e+00
  2.157906e+01    1.621205e+00
  2.159494e+01    1.705758e+00
  2.161081e+01    1.737303e+00
  2.162669e+01    1.818463e+00
  2.164256e+01    1.952083e+00
  2.165844e+01    2.087055e+00
  2.167431e+01    2.281589e+00
  2.169019e+01    2.490771e+00
  2.170607e+01    2.768747e+00
  2.172194e+01    3.081330e+00
  2.173782e+01    3.489255e+00
  2.175369e+01    3.966889e+00
  2.176957e+01    4.486111e+00
  2.178544e+01    5.113450e+00
  2.180132e+01    5.786131e+00
  2.181719e+01    6.467300e+00
  2.183307e+01    7.132794e+00
  2.184895e+01    7.826180e+00
  2.186482e+01    8.355259e+00
  2.188070e+01    8.744314e+00
  2.189657e+01    8.907311e+00
  2.191245e+01    8.734750e+00
  2.192832e+01    8.257914e+00
  2.194420e+01    7.485688e+00
  2.196007e+01    6.600042e+00
  2.197595e+01    5.637096e+00
  2.199183e+01    4.804406e+00
  2.200770e+01    4.197238e+00
  2.202358e+01    3.623705e+00
  2.203945e+01    3.178640e+00
  2.205533e+01    2.808962e+00
  2.207120e+01    2.527521e+00
  2.208708e+01    2.321271e+00
  2.210296e+01    2.170053e+00
  2.211883e+01    2.000817e+00
  2.213471e+01    1.844100e+00
  2.215058e+01    1.751309e+00
  2.216646e+01    1.673115e+00
  2.218233e+01    1.598967e+00
  2.219821e+01    1.521548e+00
  2.221408e+01    1.468931e+00
  2.222996e+01    1.422883e+00
  2.224584e+01    1.387849e+00
  2.226171e+01    1.357103e+00
  2.227759e+01    1.324321e+00
  2.229346e+01    1.302517e+00
  2.230934e+01    1.288137e+00
  2.232521e+01    1.263694e+00
  2.234109e+01    1.261867e+00
  2.235696e+01    1.247446e+00
  2.237284e+01    1.229300e+00
  2.238872e+01    1.207316e+00
  2.240459e+01    1.207065e+00
  2.242047e+01    1.202136e+00
  2.243634e+01    1.176209e+00
  2.245222e+01    1.146744e+00
  2.246809e+01    1.168795e+00
  2.248397e+01    1.153613e+00
  2.249984e+01    1.131729e+00
  2.251572e+01    1.134619e+00
  2.253160e+01    1.132377e+00
  2.254747e+01    1.112027e+00
  2.256335e+01    1.143784e+00
  2.257922e+01    1.127207e+00
  2.259510e+01    1.116047e+00
  2.261097e+01    1.106171e+00
  2.262685e+01    1.098213e+00
  2.264272e+01    1.098048e+00
  2.265860e+01    1.071941e+00
  2.267448e+01    1.075048e+00
  2.269035e+01    1.062463e+00
  2.270623e+01    1.052084e+00
  2.272210e+01    1.073422e+00
  2.273798e+01    1.072365e+00
  2.275385e+01    1.064927e+00
  2.276973e+01    1.045693e+00
  2.278560e+01    1.055817e+00
  2.280148e+01    1.045662e+00
  2.281736e+01    1.059691e+00
  2.283323e+01    1.043540e+00
  2.284911e+01    1.038856e+00
  2.286498e+01    1.032333e+00
  2.288086e+01    1.036080e+00
  2.289673e+01    1.036661e+00
  2.291261e+01    1.026377e+00
  2.292848e+01    1.043597e+00
  2.294436e+01    1.037781e+00
  2.296024e+01    1.021017e+00
  2.297611e+01    1.051849e+00
  2.299199e+01    1.030691e+00
  2.300786e+01    1.003305e+00
  2.302374e+01    1.006503e+00
  2.303961e+01    1.020125e+00
  2.305549e+01    1.032310e+00
  2.307137e+01    1.022851e+00
  2.308724e+01    1.011820e+00
  2.310312e+01    1.014384e+00
  2.311899e+01    9.849889e-01
  2.313487e+01    9.812551e-01
  2.315074e+01    9.882137e-01
  2.316662e+01    9.911179e-01
  2.318249e+01    9.742815e-01
  2.319837e+01    9.753551e-01
  2.321425e+01    9.879870e-01
  2.323012e+01    9.929436e-01
  2.324600e+01    9.741490e-01
  2.326187e+01    9.733807e-01
  2.327775e+01    9.847938e-01
  2.329362e+01    9.872738e-01
  2.330950e+01    9.980309e-01
  2.332537e+01    9.717948e-01
  2.334125e+01    9.460492e-01
  2.335713e+01    9.746374e-01
  2.337300e+01    9.717528e-01
  2.338888e+01    9.633632e-01
  2.340475e+01    9.689815e-01
  2.342063e+01    9.544806e-01
  2.343650e+01    9.599304e-01
  2.345238e+01    9.675945e-01
  2.346825e+01    9.558557e-01
  2.348413e+01    9.501877e-01
  2.350001e+01    9.586702e-01
  2.351588e+01    9.783900e-01
  2.353176e+01    9.741557e-01
  2.354763e+01    9.679610e-01
  2.356351e+01    9.667548e-01
  2.357938e+01    9.409101e-01
  2.359526e+01    9.533504e-01
  2.361113e+01    9.672608e-01
  2.362701e+01    9.731647e-01
  2.364289e+01    9.493880e-01
  2.365876e+01    9.351842e-01
  2.367464e+01    9.342504e-01
  2.369051e+01    9.252689e-01
  2.370639e+01    9.312574e-01
  2.372226e+01    9.256216e-01
  2.373814e+01    9.516662e-01
  2.375401e+01    9.232906e-01
  2.376989e+01    9.152385e-01
  2.378577e+01    9.152154e-01
  2.380164e+01    9.327348e-01
  2.381752e+01    9.193768e-01
  2.383339e+01    9.102677e-01
  2.384927e+01    9.128343e-01
  2.386514e+01    9.267560e-01
  2.388102e+01    9.148332e-01
  2.389689e+01    9.206263e-01
  2.391277e+01    9.131694e-01
  2.392865e+01    9.187649e-01
  2.394452e+01    9.059319e-01
  2.396040e+01    8.940144e-01
  2.397627e+01    8.854859e-01
  2.399215e+01    8.755528e-01
  2.400802e+01    8.913187e-01
  2.402390e+01    9.168231e-01
  2.403978e+01    9.047261e-01
  2.405565e+01    8.895981e-01
  2.407153e+01    8.856491e-01
  2.408740e+01    8.680761e-01
  2.410328e+01    8.869026e-01
  2.411915e+01    8.971815e-01
  2.413503e+01    8.907261e-01
  2.415090e+01    8.882101e-01
  2.416678e+01    8.930593e-01
  2.418266e+01    8.842679e-01
  2.419853e+01    8.714030e-01
  2.421441e+01    8.770470e-01
  2.423028e+01    8.691167e-01
  2.424616e+01    8.645489e-01
  2.426203e+01    8.942495e-01
  2.427791e+01    9.016438e-01
  2.429378e+01    8.777820e-01
  2.430966e+01    8.882895e-01
  2.432554e+01    8.816404e-01
  2.434141e+01    8.851377e-01
  2.435729e+01    9.026160e-01
  2.437316e+01    8.917633e-01
  2.438904e+01    8.924658e-01
  2.440491e+01    8.918294e-01
  2.442079e+01    8.726598e-01
  2.443666e+01    8.981315e-01
  2.445254e+01    8.956871e-01
  2.446842e+01    8.919252e-01
  2.448429e+01    8.969187e-01
  2.450017e+01    8.868575e-01
  2.451604e+01    8.711704e-01
  2.453192e+01    8.982990e-01
  2.454779e+01    9.039769e-01
  2.456367e+01    8.777463e-01
  2.457954e+01    8.874936e-01
  2.459542e+01    8.809410e-01
  2.461130e+01    8.786696e-01
  2.462717e+01    8.877220e-01
  2.464305e+01    8.914689e-01
  2.465892e+01    8.898095e-01
  2.467480e+01    8.820452e-01
  2.469067e+01    8.760881e-01
  2.470655e+01    8.858626e-01
  2.472242e+01    8.865463e-01
  2.473830e+01    8.881362e-01
  2.475418e+01    9.032621e-01
  2.477005e+01    8.655797e-01
  2.478593e+01    8.840209e-01
  2.480180e+01    8.956707e-01
  2.481768e+01    9.253299e-01
  2.483355e+01    9.093246e-01
  2.484943e+01    8.908169e-01
  2.486530e+01    8.745511e-01
  2.488118e+01    8.866922e-01
  2.489706e+01    8.930327e-01
  2.491293e+01    9.109020e-01
  2.492881e+01    8.981146e-01
  2.494468e+01    8.952031e-01
  2.496056e+01    8.716128e-01
  2.497643e+01    8.878473e-01
  2.499231e+01    8.929605e-01
  2.500819e+01    8.950103e-01
  2.502406e+01    8.863280e-01
  2.503994e+01    8.742101e-01
  2.505581e+01    8.894390e-01
  2.507169e+01    9.003834e-01
  2.508756e+01    8.965912e-01
  2.510344e+01    9.112154e-01
  2.511931e+01    9.049631e-01
  2.513519e+01    9.088714e-01
  2.515107e+01    9.109608e-01
  2.516694e+01    9.009629e-01
  2.518282e+01    9.074066e-01
  2.519869e+01    9.239564e-01
  2.521457e+01    9.303609e-01
  2.523044e+01    9.481944e-01
  2.524632e+01    9.584334e-01
  2.526219e+01    9.368424e-01
  2.527807e+01    9.368556e-01
  2.529395e+01    9.439151e-01
  2.530982e+01    9.512148e-01
  2.532570e+01    9.595515e-01
  2.534157e+01    9.602969e-01
  2.535745e+01    9.665425e-01
  2.537332e+01    9.706536e-01
  2.538920e+01    9.817514e-01
  2.540507e+01    9.854963e-01
  2.542095e+01    1.012129e+00
  2.543683e+01    1.012446e+00
  2.545270e+01    1.025517e+00
  2.546858e+01    1.049955e+00
  2.548445e+01    1.065737e+00
  2.550033e+01    1.046543e+00
  2.551620e+01    1.072428e+00
  2.553208e+01    1.085991e+00
  2.554795e+01    1.093583e+00
  2.556383e+01    1.110902e+00
  2.557971e+01    1.145724e+00
  2.559558e+01    1.181235e+00
  2.561146e+01    1.236552e+00
  2.562733e+01    1.243096e+00
  2.564321e+01    1.278365e+00
  2.565908e+01    1.329113e+00
  2.567496e+01    1.427498e+00
  2.569083e+01    1.502684e+00
  2.570671e+01    1.580466e+00
  2.572259e+01    1.680442e+00
  2.573846e+01    1.819070e+00
  2.575434e+01    2.013444e+00
  2.577021e+01    2.198493e+00
  2.578609e+01    2.468294e+00
  2.580196e+01    2.804364e+00
  2.581784e+01    3.139498e+00
  2.583371e+01    3.566718e+00
  2.584959e+01    4.060232e+00
  2.586547e+01    4.590658e+00
  2.588134e+01    5.161736e+00
  2.589722e+01    5.709262e+00
  2.591309e+01    6.250332e+00
  2.592897e+01    6.706302e+00
  2.594484e+01    6.931856e+00
  2.596072e+01    7.065259e+00
  2.597660e+01    6.927830e+00
  2.599247e+01    6.574528e+00
  2.600835e+01    5.965717e+00
  2.602422e+01    5.308726e+00
  2.604010e+01    4.617831e+00
  2.605597e+01    3.988610e+00
  2.607185e+01    3.417232e+00
  2.608772e+01    2.958657e+00
  2.610360e+01    2.668628e+00
  2.611948e+01    2.349721e+00
  2.613535e+01    2.113881e+00
  2.615123e+01    1.936856e+00
  2.616710e+01    1.819043e+00
  2.618298e+01    1.675538e+00
  2.619885e+01    1.564245e+00
  2.621473e+01    1.474714e+00
  2.623060e+01    1.398996e+00
  2.624648e+01    1.347195e+00
  2.626236e+01    1.280990e+00
  2.627823e+01    1.234657e+00
  2.629411e+01    1.202591e+00
  2.630998e+01    1.169392e+00
  2.632586e+01    1.132735e+00
  2.634173e+01    1.115826e+00
  2.635761e+01    1.112658e+00
  2.637348e+01    1.055054e+00
  2.638936e+01    1.047301e+00
  2.640524e+01    1.071568e+00
  2.642111e+01    1.047330e+00
  2.643699e+01    1.022987e+00
  2.645286e+01    9.985780e-01
  2.646874e+01    1.008862e+00
  2.648461e+01    9.975806e-01
  2.650049e+01    9.958065e-01
  2.651636e+01    1.003635e+00
  2.653224e+01    9.910285e-01
  2.654812e+01    9.838941e-01
  2.656399e+01    1.020325e+00
  2.657987e+01    9.904424e-01
  2.659574e+01    9.787720e-01
  2.661162e+01    9.582661e-01
  2.662749e+01    9.690886e-01
  2.664337e+01    9.469249e-01
  2.665924e+01    9.606184e-01
  2.667512e+01    9.715146e-01
  2.669100e+01    9.558351e-01
  2.670687e+01    9.339717e-01
  2.672275e+01    9.309102e-01
  2.673862e+01    9.612626e-01
  2.675450e+01    9.723900e-01
  2.677037e+01    9.856648e-01
  2.678625e+01    9.681975e-01
  2.680212e+01    9.670866e-01
  2.681800e+01    9.620908e-01
  2.683388e+01    9.805679e-01
  2.684975e+01    9.776887e-01
  2.686563e+01    1.001966e+00
  2.688150e+01    9.900978e-01
  2.689738e+01    9.754519e-01
  2.691325e+01    1.000643e+00
  2.692913e+01    1.036730e+00
  2.694501e+01    1.042340e+00
  2.696088e+01    1.039308e+00
  2.697676e+01    1.041971e+00
  2.699263e+01    1.059730e+00
  2.700851e+01    1.116366e+00
  2.702438e+01    1.125636e+00
  2.704026e+01    1.170129e+00
  2.705613e+01    1.224772e+00
  2.707201e+01    1.311659e+00
  2.708789e+01    1.385175e+00
  2.710376e+01    1.472219e+00
  2.711964e+01    1.596691e+00
  2.713551e+01    1.735891e+00
  2.715139e+01    1.847384e+00
  2.716726e+01    1.966633e+00
  2.718314e+01    2.064223e+00
  2.719901e+01    2.133740e+00
  2.721489e+01    2.194377e+00
  2.723077e+01    2.167625e+00
  2.724664e+01    2.102305e+00
  2.726252e+01    1.977637e+00
  2.727839e+01    1.864944e+00
  2.729427e+01    1.713271e+00
  2.731014e+01    1.556878e+00
  2.732602e+01    1.431822e+00
  2.734189e+01    1.342232e+00
  2.735777e+01    1.274778e+00
  2.737365e+01    1.230437e+00
  2.738952e+01    1.168185e+00
  2.740540e+01    1.109197e+00
  2.742127e+01    1.111676e+00
  2.743715e+01    1.061046e+00
  2.745302e+01    1.032846e+00
  2.746890e+01    1.025454e+00
  2.748477e+01    1.025836e+00
  2.750065e+01    9.811098e-01
  2.751653e+01    9.512771e-01
  2.753240e+01    9.443805e-01
  2.754828e+01    9.380679e-01
  2.756415e+01    9.498665e-01
  2.758003e+01    9.588522e-01
  2.759590e+01    9.264842e-01
  2.761178e+01    9.120385e-01
  2.762765e+01    9.152635e-01
  2.764353e+01    8.878143e-01
  2.765941e+01    8.655010e-01
  2.767528e+01    8.983403e-01
  2.769116e+01    9.167457e-01
  2.770703e+01    8.867642e-01
  2.772291e+01    8.930901e-01
  2.773878e+01    9.059335e-01
  2.775466e+01    8.869620e-01
  2.777054e+01    8.775055e-01
  2.778641e+01    8.756166e-01
  2.780229e+01    8.843373e-01
  2.781816e+01    8.714462e-01
  2.783404e+01    8.742031e-01
  2.784991e+01    8.615091e-01
  2.786579e+01    8.523534e-01
  2.788166e+01    8.708903e-01
  2.789754e+01    8.571733e-01
  2.791342e+01    8.766198e-01
  2.792929e+01    8.657725e-01
  2.794517e+01    8.596163e-01
  2.796104e+01    8.481814e-01
  2.797692e+01    8.515625e-01
  2.799279e+01    8.539304e-01
  2.800867e+01    8.561422e-01
  2.802454e+01    8.713451e-01
  2.804042e+01    8.797831e-01
  2.805630e+01    8.602666e-01
  2.807217e+01    8.722467e-01
  2.808805e+01    8.679526e-01
  2.810392e+01    8.557366e-01
  2.811980e+01    8.672411e-01
  2.813567e+01    8.658396e-01
  2.815155e+01    8.557349e-01
  2.816742e+01    8.581048e-01
  2.818330e+01    8.420978e-01
  2.819918e+01    8.397694e-01
  2.821505e+01    8.457155e-01
  2.823093e+01    8.507313e-01
  2.824680e+01    8.547778e-01
  2.826268e+01    8.497030e-01
  2.827855e+01    8.392942e-01
  2.829443e+01    8.223495e-01
  2.831030e+01    8.452874e-01
  2.832618e+01    8.657414e-01
  2.834206e+01    8.369094e-01
  2.835793e+01    8.375329e-01
  2.837381e+01    8.584464e-01
  2.838968e+01    8.571921e-01
  2.840556e+01    8.379156e-01
  2.842143e+01    8.367928e-01
  2.843731e+01    8.396491e-01
  2.845318e+01    8.557832e-01
  2.846906e+01    8.371955e-01
  2.848494e+01    8.181455e-01
  2.850081e+01    8.270667e-01
  2.851669e+01    8.226385e-01
  2.853256e+01    8.091103e-01
  2.854844e+01    8.245146e-01
  2.856431e+01    8.414301e-01
  2.858019e+01    8.214858e-01
  2.859606e+01    8.228984e-01
  2.861194e+01    8.375428e-01
  2.862782e+01    8.202708e-01
  2.864369e+01    8.211358e-01
  2.865957e+01    8.295401e-01
  2.867544e+01    8.208936e-01
  2.869132e+01    8.285043e-01
  2.870719e+01    8.159033e-01
  2.872307e+01    8.138798e-01
  2.873895e+01    8.362167e-01
  2.875482e+01    8.441181e-01
  2.877070e+01    8.336743e-01
  2.878657e+01    8.333570e-01
  2.880245e+01    8.300797e-01
  2.881832e+01    8.167199e-01
  2.883420e+01    8.227116e-01
  2.885007e+01    8.170521e-01
  2.886595e+01    8.031534e-01
  2.888183e+01    8.125557e-01
  2.889770e+01    8.043600e-01
  2.891358e+01    8.331978e-01
  2.892945e+01    8.169950e-01
  2.894533e+01    8.113073e-01
  2.896120e+01    8.223276e-01
  2.897708e+01    8.190272e-01
  2.899295e+01    8.082670e-01
  2.900883e+01    8.132393e-01
  2.902471e+01    8.112459e-01
  2.904058e+01    8.067536e-01
  2.905646e+01    8.164987e-01
  2.907233e+01    7.992449e-01
  2.908821e+01    8.031849e-01
  2.910408e+01    8.081848e-01
  2.911996e+01    8.227740e-01
  2.913583e+01    8.161828e-01
  2.915171e+01    8.205941e-01
  2.916759e+01    8.176550e-01
  2.918346e+01    8.066412e-01
  2.919934e+01    8.062999e-01
  2.921521e+01    8.178157e-01
  2.923109e+01    7.967078e-01
  2.924696e+01    8.137278e-01
  2.926284e+01    8.184171e-01
  2.927871e+01    7.955801e-01
  2.929459e+01    8.054957e-01
  2.931047e+01    8.072052e-01
  2.932634e+01    8.170843e-01
  2.934222e+01    8.204938e-01
  2.935809e+01    8.412008e-01
  2.937397e+01    8.060960e-01
  2.938984e+01    8.189492e-01
  2.940572e+01    8.055992e-01
  2.942159e+01    7.995536e-01
  2.943747e+01    7.900271e-01
  2.945335e+01    7.972817e-01
  2.946922e+01    7.959997e-01
  2.948510e+01    7.916518e-01
  2.950097e+01    8.142415e-01
  2.951685e+01    8.143011e-01
  2.953272e+01    7.918428e-01
  2.954860e+01    7.845669e-01
  2.956447e+01    7.868328e-01
  2.958035e+01    8.029854e-01
  2.959623e+01    8.058580e-01
  2.961210e+01    7.844107e-01
  2.962798e+01    7.990085e-01
  2.964385e+01    7.990005e-01
  2.965973e+01    7.879823e-01
  2.967560e+01    7.975783e-01
  2.969148e+01    7.865223e-01
  2.970736e+01    7.876045e-01
  2.972323e+01    7.754301e-01
  2.973911e+01    7.910008e-01
  2.975498e+01    8.103995e-01
  2.977086e+01    8.115530e-01
  2.978673e+01    7.876397e-01
  2.980261e+01    7.850474e-01
  2.981848e+01    7.861016e-01
  2.983436e+01    7.925721e-01
  2.985024e+01    8.016754e-01
  2.986611e+01    7.996932e-01
  2.988199e+01    7.964422e-01
  2.989786e+01    8.047563e-01
  2.991374e+01    8.126253e-01
  2.992961e+01    7.758180e-01
  2.994549e+01    8.018366e-01
  2.996136e+01    8.082816e-01
  2.997724e+01    8.105338e-01
  2.999312e+01    8.145704e-01
  3.000899e+01    7.891139e-01
  3.002487e+01    7.927608e-01
  3.004074e+01    8.021950e-01
  3.005662e+01    8.196225e-01
  3.007249e+01    8.070522e-01
  3.008837e+01    7.920307e-01
  3.010424e+01    7.670307e-01
  3.012012e+01    7.793355e-01
  3.013600e+01    7.937073e-01
  3.015187e+01    7.861599e-01
  3.016775e+01    7.902432e-01
  3.018362e+01    8.036841e-01
  3.019950e+01    7.899897e-01
  3.021537e+01    7.884648e-01
  3.023125e+01    7.663291e-01
  3.024712e+01    7.619804e-01
  3.026300e+01    7.975408e-01
  3.027888e+01    7.909315e-01
  3.029475e+01    7.834067e-01
  3.031063e+01    7.713219e-01
  3.032650e+01    7.772413e-01
  3.034238e+01    7.825988e-01
  3.035825e+01    7.872484e-01
  3.037413e+01    7.966474e-01
  3.039000e+01    7.735175e-01
  3.040588e+01    7.859305e-01
  3.042176e+01    7.774758e-01
  3.043763e+01    7.879446e-01
  3.045351e+01    7.826031e-01
  3.046938e+01    7.940750e-01
  3.048526e+01    7.871199e-01
  3.050113e+01    7.822948e-01
  3.051701e+01    7.941892e-01
  3.053288e+01    7.897426e-01
  3.054876e+01    7.778564e-01
  3.056464e+01    7.741473e-01
  3.058051e+01    7.455629e-01
  3.059639e+01    7.724940e-01
  3.061226e+01    7.855421e-01
  3.062814e+01    7.776215e-01
  3.064401e+01    7.740026e-01
  3.065989e+01    7.917064e-01
  3.067577e+01    7.787198e-01
  3.069164e+01    7.619529e-01
  3.070752e+01    7.868329e-01
  3.072339e+01    7.869855e-01
  3.073927e+01    7.858040e-01
  3.075514e+01    7.743553e-01
  3.077102e+01    7.977326e-01
  3.078689e+01    7.994334e-01
  3.080277e+01    7.998657e-01
  3.081865e+01    7.937874e-01
  3.083452e+01    7.857110e-01
  3.085040e+01    7.824586e-01
  3.086627e+01    7.598339e-01
  3.088215e+01    7.840468e-01
  3.089802e+01    7.717170e-01
  3.091390e+01    7.593369e-01
  3.092977e+01    7.812047e-01
  3.094565e+01    7.989880e-01
  3.096153e+01    7.770372e-01
  3.097740e+01    7.800564e-01
  3.099328e+01    7.841535e-01
  3.100915e+01    7.990180e-01
  3.102503e+01    7.850868e-01
  3.104090e+01    7.763982e-01
  3.105678e+01    7.613760e-01
  3.107265e+01    7.893119e-01
  3.108853e+01    7.916933e-01
  3.110441e+01    7.599364e-01
  3.112028e+01    7.851507e-01
  3.113616e+01    7.855402e-01
  3.115203e+01    7.962431e-01
  3.116791e+01    7.834721e-01
  3.118378e+01    7.949450e-01
  3.119966e+01    7.964895e-01
  3.121553e+01    8.203049e-01
  3.123141e+01    8.070707e-01
  3.124729e+01    8.002949e-01
  3.126316e+01    7.859284e-01
  3.127904e+01    7.935629e-01
  3.129491e+01    7.963600e-01
  3.131079e+01    7.835032e-01
  3.132666e+01    7.835049e-01
  3.134254e+01    7.971172e-01
  3.135841e+01    7.960964e-01
  3.137429e+01    7.980095e-01
  3.139017e+01    7.860925e-01
  3.140604e+01    7.911303e-01
  3.142192e+01    7.823387e-01
  3.143779e+01    7.890803e-01
  3.145367e+01    7.992595e-01
  3.146954e+01    8.261804e-01
  3.148542e+01    8.327119e-01
  3.150129e+01    8.313318e-01
  3.151717e+01    8.069146e-01
  3.153305e+01    8.329080e-01
  3.154892e+01    8.599763e-01
  3.156480e+01    8.495806e-01
  3.158067e+01    8.700581e-01
  3.159655e+01    8.715731e-01
  3.161242e+01    8.781285e-01
  3.162830e+01    8.887183e-01
  3.164418e+01    8.910185e-01
  3.166005e+01    9.211902e-01
  3.167593e+01    9.419574e-01
  3.169180e+01    9.824627e-01
  3.170768e+01    1.028201e+00
  3.172355e+01    1.062937e+00
  3.173943e+01    1.122961e+00
  3.175530e+01    1.185451e+00
  3.177118e+01    1.257642e+00
  3.178706e+01    1.356120e+00
  3.180293e+01    1.495977e+00
  3.181881e+01    1.568116e+00
  3.183468e+01    1.714118e+00
  3.185056e+01    1.800639e+00
  3.186643e+01    1.953228e+00
  3.188231e+01    2.048883e+00
  3.189818e+01    2.074947e+00
  3.191406e+01    2.078063e+00
  3.192994e+01    2.056126e+00
  3.194581e+01    1.964036e+00
  3.196169e+01    1.864143e+00
  3.197756e+01    1.706832e+00
  3.199344e+01    1.548067e+00
  3.200931e+01    1.381609e+00
  3.202519e+01    1.284553e+00
  3.204106e+01    1.222722e+00
  3.205694e+01    1.179958e+00
  3.207282e+01    1.105345e+00
  3.208869e+01    1.052707e+00
  3.210457e+01    1.000553e+00
  3.212044e+01    9.636251e-01
  3.213632e+01    9.403581e-01
  3.215219e+01    9.089977e-01
  3.216807e+01    8.999022e-01
  3.218394e+01    8.722689e-01
  3.219982e+01    8.718840e-01
  3.221570e+01    8.388150e-01
  3.223157e+01    8.211825e-01
  3.224745e+01    8.336821e-01
  3.226332e+01    8.164455e-01
  3.227920e+01    8.011696e-01
  3.229507e+01    8.047879e-01
  3.231095e+01    8.116449e-01
  3.232682e+01    8.106320e-01
  3.234270e+01    8.137734e-01
  3.235858e+01    7.879818e-01
  3.237445e+01    7.771487e-01
  3.239033e+01    7.805837e-01
  3.240620e+01    7.858680e-01
  3.242208e+01    7.869434e-01
  3.243795e+01    7.862131e-01
  3.245383e+01    7.739080e-01
  3.246970e+01    7.779305e-01
  3.248558e+01    7.574576e-01
  3.250146e+01    7.736782e-01
  3.251733e+01    7.635323e-01
  3.253321e+01    7.564713e-01
  3.254908e+01    7.487108e-01
