# == pyFAI calibration ==
# Distance Sample to Detector: 0.3999999939076516 m
# PONI: 9.750e-02, 1.135e-01 m
# Rotations: -0.000175 0.000000 -0.000000 rad
# 
# == Fit2d calibration ==
# Distance Sample-beamCenter: 400.000 mm
# Center: x=1514.000, y=1300.000 pix
# Tilt: 0.010 deg  TiltPlanRot: 0.010 deg
# 
# Detector Detector	 Spline= None	 PixelSize= 7.500e-05, 7.500e-05 m
#    Detector has a mask: False 
#    Detector has a dark current: False 
#    detector has a flat field: False 
# 
# Wavelength: 6.888e-11 m
# Mask applied: user provided
# Dark current applied: False
# Flat field applied: False
# Polarization factor: 0.99
# Normalization factor: 1.0
# --> /home/myspot/data/2024_07_Rosario/Ru-CGO-ex/2024-07-27_003_Ru-CGO-ex_Reaction_dwell_000023_data_000084.dat
#       q_nm^-1             I 
  2.003187e-02    0.000000e+00
  3.590745e-02    0.000000e+00
  5.178302e-02    9.562786e-02
  6.765859e-02    2.213245e-01
  8.353417e-02    3.143234e-01
  9.940974e-02    2.190843e-01
  1.152853e-01    1.305278e-01
  1.311609e-01    1.133310e-01
  1.470365e-01    5.480796e-02
  1.629120e-01    7.133404e-02
  1.787876e-01    2.731698e-02
  1.946632e-01    3.936091e-03
  2.105388e-01    1.823419e-02
  2.264143e-01    4.846608e-03
  2.422899e-01    2.922317e-02
  2.581655e-01    5.649953e-02
  2.740411e-01    6.113479e-02
  2.899166e-01    4.667563e-02
  3.057922e-01    6.200288e-02
  3.216678e-01    7.048249e-02
  3.375433e-01    1.268148e-02
  3.534189e-01    2.193955e-03
  3.692945e-01    3.598049e-02
  3.851701e-01    5.006672e-02
  4.010456e-01    1.276657e-02
  4.169212e-01    1.942055e-02
  4.327968e-01    4.394840e-02
  4.486724e-01    5.151358e-02
  4.645479e-01    4.926337e-02
  4.804235e-01    4.121599e-02
  4.962991e-01    2.677812e-02
  5.121747e-01    3.295072e-02
  5.280502e-01    7.052012e-02
  5.439258e-01    6.758893e-02
  5.598014e-01    2.677051e-02
  5.756770e-01    2.763939e-02
  5.915525e-01    5.175512e-02
  6.074281e-01    4.307594e-02
  6.233037e-01    4.854836e-02
  6.391793e-01    4.675913e-02
  6.550548e-01    3.435524e-02
  6.709304e-01    3.942261e-02
  6.868060e-01    5.617283e-02
  7.026815e-01    3.579995e-02
  7.185571e-01    3.407409e-02
  7.344327e-01    3.614024e-02
  7.503083e-01    4.064833e-02
  7.661838e-01    8.082897e-02
  7.820594e-01    1.313978e-01
  7.979350e-01    2.001626e-01
  8.138106e-01    1.946101e-01
  8.296861e-01    2.146462e-01
  8.455617e-01    3.505141e-01
  8.614373e-01    4.196452e-01
  8.773129e-01    5.236917e-01
  8.931884e-01    5.565964e-01
  9.090640e-01    6.523784e-01
  9.249396e-01    6.712899e-01
  9.408152e-01    8.181344e-01
  9.566907e-01    1.003168e+00
  9.725663e-01    1.080776e+00
  9.884419e-01    1.175132e+00
  1.004317e+00    1.197066e+00
  1.020193e+00    1.184270e+00
  1.036069e+00    1.280499e+00
  1.051944e+00    1.404194e+00
  1.067820e+00    1.409383e+00
  1.083695e+00    1.539539e+00
  1.099571e+00    1.454069e+00
  1.115446e+00    1.506984e+00
  1.131322e+00    1.611238e+00
  1.147198e+00    1.563062e+00
  1.163073e+00    1.599806e+00
  1.178949e+00    1.742169e+00
  1.194824e+00    1.863197e+00
  1.210700e+00    2.063932e+00
  1.226575e+00    2.250025e+00
  1.242451e+00    2.422468e+00
  1.258327e+00    2.523002e+00
  1.274202e+00    2.730527e+00
  1.290078e+00    2.714469e+00
  1.305953e+00    2.602444e+00
  1.321829e+00    2.690643e+00
  1.337705e+00    2.819069e+00
  1.353580e+00    2.713161e+00
  1.369456e+00    2.748741e+00
  1.385331e+00    2.795558e+00
  1.401207e+00    2.926481e+00
  1.417082e+00    2.871521e+00
  1.432958e+00    2.901602e+00
  1.448834e+00    3.062669e+00
  1.464709e+00    3.173693e+00
  1.480585e+00    3.079102e+00
  1.496460e+00    3.098557e+00
  1.512336e+00    3.329839e+00
  1.528211e+00    3.194058e+00
  1.544087e+00    3.105640e+00
  1.559963e+00    3.208236e+00
  1.575838e+00    3.410661e+00
  1.591714e+00    3.289065e+00
  1.607589e+00    3.133196e+00
  1.623465e+00    3.135749e+00
  1.639340e+00    3.134407e+00
  1.655216e+00    3.163804e+00
  1.671092e+00    3.209758e+00
  1.686967e+00    3.177635e+00
  1.702843e+00    3.127143e+00
  1.718718e+00    3.163013e+00
  1.734594e+00    3.008869e+00
  1.750469e+00    3.075649e+00
  1.766345e+00    3.099203e+00
  1.782221e+00    3.008013e+00
  1.798096e+00    3.099560e+00
  1.813972e+00    3.097487e+00
  1.829847e+00    2.987942e+00
  1.845723e+00    3.068719e+00
  1.861598e+00    3.099637e+00
  1.877474e+00    3.097197e+00
  1.893350e+00    3.125229e+00
  1.909225e+00    3.093390e+00
  1.925101e+00    3.104574e+00
  1.940976e+00    3.073734e+00
  1.956852e+00    3.074743e+00
  1.972727e+00    3.092412e+00
  1.988603e+00    3.025504e+00
  2.004479e+00    3.159423e+00
  2.020354e+00    3.185986e+00
  2.036230e+00    2.893768e+00
  2.052105e+00    3.091668e+00
  2.067981e+00    3.066840e+00
  2.083856e+00    3.003308e+00
  2.099732e+00    3.119427e+00
  2.115608e+00    3.117395e+00
  2.131483e+00    3.006066e+00
  2.147359e+00    3.083244e+00
  2.163234e+00    3.094407e+00
  2.179110e+00    3.045393e+00
  2.194985e+00    3.096299e+00
  2.210861e+00    3.019643e+00
  2.226737e+00    3.005736e+00
  2.242612e+00    3.062850e+00
  2.258488e+00    3.078476e+00
  2.274363e+00    3.119467e+00
  2.290239e+00    3.124657e+00
  2.306115e+00    3.143512e+00
  2.321990e+00    3.221003e+00
  2.337866e+00    3.257389e+00
  2.353741e+00    3.233865e+00
  2.369617e+00    3.145291e+00
  2.385492e+00    3.103902e+00
  2.401368e+00    3.102555e+00
  2.417244e+00    3.240543e+00
  2.433119e+00    3.163008e+00
  2.448995e+00    3.119284e+00
  2.464870e+00    3.192615e+00
  2.480746e+00    3.247643e+00
  2.496621e+00    3.227246e+00
  2.512497e+00    3.250365e+00
  2.528373e+00    3.282028e+00
  2.544248e+00    3.215788e+00
  2.560124e+00    3.136187e+00
  2.575999e+00    3.090505e+00
  2.591875e+00    3.224451e+00
  2.607750e+00    3.177107e+00
  2.623626e+00    3.289117e+00
  2.639502e+00    3.257789e+00
  2.655377e+00    3.316647e+00
  2.671253e+00    3.264173e+00
  2.687128e+00    3.259340e+00
  2.703004e+00    3.156101e+00
  2.718879e+00    3.170765e+00
  2.734755e+00    3.262057e+00
  2.750631e+00    3.242853e+00
  2.766506e+00    3.249819e+00
  2.782382e+00    3.253796e+00
  2.798257e+00    3.275596e+00
  2.814133e+00    3.350214e+00
  2.830008e+00    3.316198e+00
  2.845884e+00    3.289741e+00
  2.861760e+00    3.281079e+00
  2.877635e+00    3.239958e+00
  2.893511e+00    3.356979e+00
  2.909386e+00    3.375047e+00
  2.925262e+00    3.339545e+00
  2.941137e+00    3.361622e+00
  2.957013e+00    3.376102e+00
  2.972889e+00    3.367122e+00
  2.988764e+00    3.228951e+00
  3.004640e+00    3.285318e+00
  3.020515e+00    3.361502e+00
  3.036391e+00    3.356498e+00
  3.052266e+00    3.313123e+00
  3.068142e+00    3.231273e+00
  3.084018e+00    3.213168e+00
  3.099893e+00    3.323069e+00
  3.115769e+00    3.324345e+00
  3.131644e+00    3.377634e+00
  3.147520e+00    3.323653e+00
  3.163395e+00    3.456561e+00
  3.179271e+00    3.408023e+00
  3.195147e+00    3.388749e+00
  3.211022e+00    3.439292e+00
  3.226898e+00    3.341495e+00
  3.242773e+00    3.402623e+00
  3.258649e+00    3.344970e+00
  3.274525e+00    3.406440e+00
  3.290400e+00    3.401824e+00
  3.306276e+00    3.385140e+00
  3.322151e+00    3.373195e+00
  3.338027e+00    3.412899e+00
  3.353902e+00    3.364679e+00
  3.369778e+00    3.390621e+00
  3.385654e+00    3.479271e+00
  3.401529e+00    3.541726e+00
  3.417405e+00    3.512454e+00
  3.433280e+00    3.500716e+00
  3.449156e+00    3.473517e+00
  3.465031e+00    3.385986e+00
  3.480907e+00    3.428595e+00
  3.496783e+00    3.457855e+00
  3.512658e+00    3.512078e+00
  3.528534e+00    3.501417e+00
  3.544409e+00    3.500447e+00
  3.560285e+00    3.460746e+00
  3.576160e+00    3.474858e+00
  3.592036e+00    3.524604e+00
  3.607912e+00    3.517478e+00
  3.623787e+00    3.536100e+00
  3.639663e+00    3.508028e+00
  3.655538e+00    3.476910e+00
  3.671414e+00    3.436257e+00
  3.687289e+00    3.430976e+00
  3.703165e+00    3.532704e+00
  3.719041e+00    3.619759e+00
  3.734916e+00    3.586801e+00
  3.750792e+00    3.489076e+00
  3.766667e+00    3.542831e+00
  3.782543e+00    3.464539e+00
  3.798418e+00    3.558631e+00
  3.814294e+00    3.553433e+00
  3.830170e+00    3.582631e+00
  3.846045e+00    3.559262e+00
  3.861921e+00    3.460783e+00
  3.877796e+00    3.387135e+00
  3.893672e+00    3.451848e+00
  3.909547e+00    3.527045e+00
  3.925423e+00    3.547580e+00
  3.941299e+00    3.633546e+00
  3.957174e+00    3.586067e+00
  3.973050e+00    3.588391e+00
  3.988925e+00    3.508558e+00
  4.004801e+00    3.574874e+00
  4.020676e+00    3.559666e+00
  4.036552e+00    3.492595e+00
  4.052428e+00    3.476078e+00
  4.068303e+00    3.518031e+00
  4.084179e+00    3.567611e+00
  4.100054e+00    3.533778e+00
  4.115930e+00    3.470139e+00
  4.131806e+00    3.470117e+00
  4.147681e+00    3.502725e+00
  4.163557e+00    3.477260e+00
  4.179432e+00    3.564931e+00
  4.195308e+00    3.562357e+00
  4.211183e+00    3.593787e+00
  4.227059e+00    3.626951e+00
  4.242935e+00    3.578316e+00
  4.258810e+00    3.564226e+00
  4.274686e+00    3.482900e+00
  4.290561e+00    3.517587e+00
  4.306437e+00    3.593875e+00
  4.322312e+00    3.588359e+00
  4.338188e+00    3.437531e+00
  4.354064e+00    3.501243e+00
  4.369939e+00    3.586092e+00
  4.385815e+00    3.618794e+00
  4.401690e+00    3.645010e+00
  4.417566e+00    3.629672e+00
  4.433441e+00    3.491927e+00
  4.449317e+00    3.596872e+00
  4.465193e+00    3.586920e+00
  4.481068e+00    3.699854e+00
  4.496944e+00    3.626405e+00
  4.512819e+00    3.571780e+00
  4.528695e+00    3.582613e+00
  4.544570e+00    3.579647e+00
  4.560446e+00    3.519608e+00
  4.576322e+00    3.566017e+00
  4.592197e+00    3.656175e+00
  4.608073e+00    3.665838e+00
  4.623948e+00    3.662849e+00
  4.639824e+00    3.483666e+00
  4.655699e+00    3.491877e+00
  4.671575e+00    3.595372e+00
  4.687451e+00    3.641827e+00
  4.703326e+00    3.562888e+00
  4.719202e+00    3.582858e+00
  4.735077e+00    3.629025e+00
  4.750953e+00    3.609199e+00
  4.766828e+00    3.628034e+00
  4.782704e+00    3.550148e+00
  4.798580e+00    3.584313e+00
  4.814455e+00    3.625389e+00
  4.830331e+00    3.683650e+00
  4.846206e+00    3.734054e+00
  4.862082e+00    3.674260e+00
  4.877957e+00    3.651577e+00
  4.893833e+00    3.670423e+00
  4.909709e+00    3.687369e+00
  4.925584e+00    3.736367e+00
  4.941460e+00    3.698982e+00
  4.957335e+00    3.656734e+00
  4.973211e+00    3.644776e+00
  4.989086e+00    3.691299e+00
  5.004962e+00    3.702010e+00
  5.020838e+00    3.713531e+00
  5.036713e+00    3.701441e+00
  5.052589e+00    3.630574e+00
  5.068464e+00    3.571678e+00
  5.084340e+00    3.616345e+00
  5.100216e+00    3.669115e+00
  5.116091e+00    3.727164e+00
  5.131967e+00    3.652012e+00
  5.147842e+00    3.627542e+00
  5.163718e+00    3.651076e+00
  5.179593e+00    3.726312e+00
  5.195469e+00    3.684115e+00
  5.211345e+00    3.678879e+00
  5.227220e+00    3.633730e+00
  5.243096e+00    3.593166e+00
  5.258971e+00    3.702836e+00
  5.274847e+00    3.715488e+00
  5.290722e+00    3.649582e+00
  5.306598e+00    3.633872e+00
  5.322474e+00    3.581838e+00
  5.338349e+00    3.717954e+00
  5.354225e+00    3.680643e+00
  5.370100e+00    3.677157e+00
  5.385976e+00    3.657102e+00
  5.401851e+00    3.633647e+00
  5.417727e+00    3.656184e+00
  5.433603e+00    3.615351e+00
  5.449478e+00    3.574163e+00
  5.465354e+00    3.627523e+00
  5.481229e+00    3.609403e+00
  5.497105e+00    3.604761e+00
  5.512980e+00    3.658749e+00
  5.528856e+00    3.632711e+00
  5.544732e+00    3.590283e+00
  5.560607e+00    3.619636e+00
  5.576483e+00    3.608154e+00
  5.592358e+00    3.649210e+00
  5.608234e+00    3.697684e+00
  5.624109e+00    3.621545e+00
  5.639985e+00    3.558986e+00
  5.655861e+00    3.603950e+00
  5.671736e+00    3.578603e+00
  5.687612e+00    3.554460e+00
  5.703487e+00    3.579825e+00
  5.719363e+00    3.517756e+00
  5.735238e+00    3.541874e+00
  5.751114e+00    3.607172e+00
  5.766990e+00    3.565939e+00
  5.782865e+00    3.586699e+00
  5.798741e+00    3.535304e+00
  5.814616e+00    3.506665e+00
  5.830492e+00    3.542047e+00
  5.846367e+00    3.544247e+00
  5.862243e+00    3.585775e+00
  5.878119e+00    3.546056e+00
  5.893994e+00    3.506935e+00
  5.909870e+00    3.503726e+00
  5.925745e+00    3.488633e+00
  5.941621e+00    3.493981e+00
  5.957497e+00    3.585276e+00
  5.973372e+00    3.574544e+00
  5.989248e+00    3.570516e+00
  6.005123e+00    3.567430e+00
  6.020999e+00    3.624916e+00
  6.036874e+00    3.651917e+00
  6.052750e+00    3.669450e+00
  6.068626e+00    3.581089e+00
  6.084501e+00    3.596587e+00
  6.100377e+00    3.610164e+00
  6.116252e+00    3.609979e+00
  6.132128e+00    3.621924e+00
  6.148003e+00    3.637386e+00
  6.163879e+00    3.546309e+00
  6.179755e+00    3.566064e+00
  6.195630e+00    3.624671e+00
  6.211506e+00    3.627840e+00
  6.227381e+00    3.676930e+00
  6.243257e+00    3.672018e+00
  6.259132e+00    3.641050e+00
  6.275008e+00    3.600181e+00
  6.290884e+00    3.707422e+00
  6.306759e+00    3.589420e+00
  6.322635e+00    3.515044e+00
  6.338510e+00    3.489055e+00
  6.354386e+00    3.494579e+00
  6.370261e+00    3.568016e+00
  6.386137e+00    3.616262e+00
  6.402013e+00    3.489537e+00
  6.417888e+00    3.558570e+00
  6.433764e+00    3.531906e+00
  6.449639e+00    3.567439e+00
  6.465515e+00    3.557304e+00
  6.481390e+00    3.616174e+00
  6.497266e+00    3.611530e+00
  6.513142e+00    3.495466e+00
  6.529017e+00    3.555992e+00
  6.544893e+00    3.534913e+00
  6.560768e+00    3.518594e+00
  6.576644e+00    3.560892e+00
  6.592519e+00    3.631716e+00
  6.608395e+00    3.583316e+00
  6.624271e+00    3.547411e+00
  6.640146e+00    3.557218e+00
  6.656022e+00    3.584721e+00
  6.671897e+00    3.582443e+00
  6.687773e+00    3.511870e+00
  6.703648e+00    3.504242e+00
  6.719524e+00    3.560167e+00
  6.735400e+00    3.557336e+00
  6.751275e+00    3.593543e+00
  6.767151e+00    3.534284e+00
  6.783026e+00    3.539958e+00
  6.798902e+00    3.556637e+00
  6.814777e+00    3.576407e+00
  6.830653e+00    3.584726e+00
  6.846529e+00    3.618037e+00
  6.862404e+00    3.551304e+00
  6.878280e+00    3.550261e+00
  6.894155e+00    3.519914e+00
  6.910031e+00    3.597201e+00
  6.925907e+00    3.600083e+00
  6.941782e+00    3.627371e+00
  6.957658e+00    3.592964e+00
  6.973533e+00    3.518961e+00
  6.989409e+00    3.502854e+00
  7.005284e+00    3.480363e+00
  7.021160e+00    3.534126e+00
  7.037036e+00    3.569460e+00
  7.052911e+00    3.497245e+00
  7.068787e+00    3.499272e+00
  7.084662e+00    3.536903e+00
  7.100538e+00    3.565927e+00
  7.116413e+00    3.487182e+00
  7.132289e+00    3.532879e+00
  7.148165e+00    3.438432e+00
  7.164040e+00    3.499930e+00
  7.179916e+00    3.483602e+00
  7.195791e+00    3.438174e+00
  7.211667e+00    3.465963e+00
  7.227542e+00    3.421491e+00
  7.243418e+00    3.448955e+00
  7.259294e+00    3.552215e+00
  7.275169e+00    3.520786e+00
  7.291045e+00    3.450938e+00
  7.306920e+00    3.511873e+00
  7.322796e+00    3.516171e+00
  7.338671e+00    3.519462e+00
  7.354547e+00    3.554098e+00
  7.370423e+00    3.531345e+00
  7.386298e+00    3.472937e+00
  7.402174e+00    3.491175e+00
  7.418049e+00    3.454594e+00
  7.433925e+00    3.455392e+00
  7.449800e+00    3.478286e+00
  7.465676e+00    3.494298e+00
  7.481552e+00    3.527540e+00
  7.497427e+00    3.497182e+00
  7.513303e+00    3.468487e+00
  7.529178e+00    3.502886e+00
  7.545054e+00    3.458764e+00
  7.560929e+00    3.512434e+00
  7.576805e+00    3.523076e+00
  7.592681e+00    3.527445e+00
  7.608556e+00    3.519743e+00
  7.624432e+00    3.509078e+00
  7.640307e+00    3.451827e+00
  7.656183e+00    3.467364e+00
  7.672058e+00    3.491658e+00
  7.687934e+00    3.490175e+00
  7.703810e+00    3.432974e+00
  7.719685e+00    3.480898e+00
  7.735561e+00    3.468265e+00
  7.751436e+00    3.487083e+00
  7.767312e+00    3.514759e+00
  7.783187e+00    3.483456e+00
  7.799063e+00    3.453151e+00
  7.814939e+00    3.424829e+00
  7.830814e+00    3.463754e+00
  7.846690e+00    3.392704e+00
  7.862565e+00    3.410515e+00
  7.878441e+00    3.394936e+00
  7.894317e+00    3.428930e+00
  7.910192e+00    3.428722e+00
  7.926068e+00    3.455918e+00
  7.941943e+00    3.402209e+00
  7.957819e+00    3.403077e+00
  7.973694e+00    3.398616e+00
  7.989570e+00    3.496804e+00
  8.005446e+00    3.435571e+00
  8.021321e+00    3.403148e+00
  8.037197e+00    3.399886e+00
  8.053072e+00    3.413532e+00
  8.068948e+00    3.394298e+00
  8.084823e+00    3.426321e+00
  8.100699e+00    3.444252e+00
  8.116575e+00    3.395366e+00
  8.132450e+00    3.453278e+00
  8.148326e+00    3.460809e+00
  8.164201e+00    3.445741e+00
  8.180077e+00    3.447703e+00
  8.195952e+00    3.469230e+00
  8.211828e+00    3.483119e+00
  8.227704e+00    3.514545e+00
  8.243579e+00    3.495932e+00
  8.259455e+00    3.465757e+00
  8.275330e+00    3.410891e+00
  8.291206e+00    3.384623e+00
  8.307081e+00    3.391697e+00
  8.322957e+00    3.423171e+00
  8.338833e+00    3.391718e+00
  8.354708e+00    3.422459e+00
  8.370584e+00    3.420023e+00
  8.386459e+00    3.435937e+00
  8.402335e+00    3.448779e+00
  8.418210e+00    3.387561e+00
  8.434086e+00    3.356919e+00
  8.449962e+00    3.402774e+00
  8.465837e+00    3.414036e+00
  8.481713e+00    3.368864e+00
  8.497588e+00    3.288885e+00
  8.513464e+00    3.380992e+00
  8.529339e+00    3.406806e+00
  8.545215e+00    3.341382e+00
  8.561091e+00    3.335695e+00
  8.576966e+00    3.319048e+00
  8.592842e+00    3.349895e+00
  8.608717e+00    3.322379e+00
  8.624593e+00    3.313832e+00
  8.640468e+00    3.300444e+00
  8.656344e+00    3.388475e+00
  8.672220e+00    3.350243e+00
  8.688095e+00    3.335816e+00
  8.703971e+00    3.377983e+00
  8.719846e+00    3.364680e+00
  8.735722e+00    3.348345e+00
  8.751598e+00    3.338012e+00
  8.767473e+00    3.311146e+00
  8.783349e+00    3.381510e+00
  8.799224e+00    3.297185e+00
  8.815100e+00    3.295224e+00
  8.830975e+00    3.290284e+00
  8.846851e+00    3.282230e+00
  8.862727e+00    3.275744e+00
  8.878602e+00    3.365302e+00
  8.894478e+00    3.350964e+00
  8.910353e+00    3.318054e+00
  8.926229e+00    3.300872e+00
  8.942104e+00    3.276133e+00
  8.957980e+00    3.274164e+00
  8.973856e+00    3.300572e+00
  8.989731e+00    3.280310e+00
  9.005607e+00    3.314780e+00
  9.021482e+00    3.321467e+00
  9.037358e+00    3.272815e+00
  9.053233e+00    3.277683e+00
  9.069109e+00    3.270158e+00
  9.084985e+00    3.282997e+00
  9.100860e+00    3.284199e+00
  9.116736e+00    3.236837e+00
  9.132611e+00    3.253096e+00
  9.148487e+00    3.221805e+00
  9.164362e+00    3.234730e+00
  9.180238e+00    3.232845e+00
  9.196114e+00    3.270341e+00
  9.211989e+00    3.249375e+00
  9.227865e+00    3.275117e+00
  9.243740e+00    3.269039e+00
  9.259616e+00    3.276119e+00
  9.275491e+00    3.280597e+00
  9.291367e+00    3.228038e+00
  9.307243e+00    3.197338e+00
  9.323118e+00    3.191182e+00
  9.338994e+00    3.224104e+00
  9.354869e+00    3.254905e+00
  9.370745e+00    3.259202e+00
  9.386620e+00    3.258286e+00
  9.402496e+00    3.281705e+00
  9.418372e+00    3.254257e+00
  9.434247e+00    3.251853e+00
  9.450123e+00    3.248889e+00
  9.465998e+00    3.222473e+00
  9.481874e+00    3.174767e+00
  9.497749e+00    3.183748e+00
  9.513625e+00    3.201044e+00
  9.529501e+00    3.181973e+00
  9.545376e+00    3.156177e+00
  9.561252e+00    3.185216e+00
  9.577127e+00    3.236312e+00
  9.593003e+00    3.307345e+00
  9.608878e+00    3.192033e+00
  9.624754e+00    3.150602e+00
  9.640630e+00    3.166589e+00
  9.656505e+00    3.186736e+00
  9.672381e+00    3.229769e+00
  9.688256e+00    3.248881e+00
  9.704132e+00    3.262717e+00
  9.720008e+00    3.164424e+00
  9.735883e+00    3.192494e+00
  9.751759e+00    3.166346e+00
  9.767634e+00    3.159317e+00
  9.783510e+00    3.144428e+00
  9.799385e+00    3.174128e+00
  9.815261e+00    3.218098e+00
  9.831137e+00    3.129050e+00
  9.847012e+00    3.074815e+00
  9.862888e+00    3.080225e+00
  9.878763e+00    3.131633e+00
  9.894639e+00    3.140030e+00
  9.910514e+00    3.099890e+00
  9.926390e+00    3.152122e+00
  9.942266e+00    3.150962e+00
  9.958141e+00    3.082562e+00
  9.974017e+00    3.062855e+00
  9.989892e+00    3.130332e+00
  1.000577e+01    3.153814e+00
  1.002164e+01    3.138409e+00
  1.003752e+01    3.057754e+00
  1.005339e+01    3.089473e+00
  1.006927e+01    3.083424e+00
  1.008515e+01    3.075599e+00
  1.010102e+01    3.147568e+00
  1.011690e+01    3.180928e+00
  1.013277e+01    3.154268e+00
  1.014865e+01    3.100228e+00
  1.016452e+01    3.050191e+00
  1.018040e+01    3.083174e+00
  1.019627e+01    3.083477e+00
  1.021215e+01    3.093825e+00
  1.022803e+01    3.090519e+00
  1.024390e+01    3.066077e+00
  1.025978e+01    3.024360e+00
  1.027565e+01    2.986030e+00
  1.029153e+01    3.041465e+00
  1.030740e+01    3.007098e+00
  1.032328e+01    3.082404e+00
  1.033915e+01    3.018967e+00
  1.035503e+01    3.040097e+00
  1.037091e+01    3.002973e+00
  1.038678e+01    3.028464e+00
  1.040266e+01    3.019171e+00
  1.041853e+01    3.022114e+00
  1.043441e+01    3.040321e+00
  1.045028e+01    3.025756e+00
  1.046616e+01    3.000549e+00
  1.048204e+01    3.030317e+00
  1.049791e+01    3.051287e+00
  1.051379e+01    3.031405e+00
  1.052966e+01    3.048140e+00
  1.054554e+01    3.024076e+00
  1.056141e+01    2.996501e+00
  1.057729e+01    3.025380e+00
  1.059316e+01    2.966666e+00
  1.060904e+01    2.965240e+00
  1.062492e+01    3.004933e+00
  1.064079e+01    3.032631e+00
  1.065667e+01    2.955042e+00
  1.067254e+01    2.978882e+00
  1.068842e+01    2.941804e+00
  1.070429e+01    2.917112e+00
  1.072017e+01    2.992322e+00
  1.073604e+01    2.999920e+00
  1.075192e+01    2.941218e+00
  1.076780e+01    2.951674e+00
  1.078367e+01    2.915768e+00
  1.079955e+01    2.917318e+00
  1.081542e+01    2.968151e+00
  1.083130e+01    2.919691e+00
  1.084717e+01    2.954557e+00
  1.086305e+01    2.947309e+00
  1.087892e+01    2.965534e+00
  1.089480e+01    2.883115e+00
  1.091068e+01    2.932883e+00
  1.092655e+01    2.941005e+00
  1.094243e+01    2.924406e+00
  1.095830e+01    2.882678e+00
  1.097418e+01    2.896878e+00
  1.099005e+01    2.905565e+00
  1.100593e+01    2.910972e+00
  1.102180e+01    2.898037e+00
  1.103768e+01    2.938765e+00
  1.105356e+01    2.885758e+00
  1.106943e+01    2.899060e+00
  1.108531e+01    2.899145e+00
  1.110118e+01    2.883642e+00
  1.111706e+01    2.879518e+00
  1.113293e+01    2.862458e+00
  1.114881e+01    2.880923e+00
  1.116468e+01    2.850687e+00
  1.118056e+01    2.839145e+00
  1.119644e+01    2.826725e+00
  1.121231e+01    2.829794e+00
  1.122819e+01    2.853130e+00
  1.124406e+01    2.824793e+00
  1.125994e+01    2.878964e+00
  1.127581e+01    2.848305e+00
  1.129169e+01    2.867475e+00
  1.130756e+01    2.858073e+00
  1.132344e+01    2.832048e+00
  1.133932e+01    2.813805e+00
  1.135519e+01    2.844694e+00
  1.137107e+01    2.829346e+00
  1.138694e+01    2.809064e+00
  1.140282e+01    2.765522e+00
  1.141869e+01    2.781086e+00
  1.143457e+01    2.789667e+00
  1.145045e+01    2.834878e+00
  1.146632e+01    2.778127e+00
  1.148220e+01    2.761570e+00
  1.149807e+01    2.763390e+00
  1.151395e+01    2.786834e+00
  1.152982e+01    2.782695e+00
  1.154570e+01    2.785825e+00
  1.156157e+01    2.810963e+00
  1.157745e+01    2.778007e+00
  1.159333e+01    2.745811e+00
  1.160920e+01    2.717155e+00
  1.162508e+01    2.732370e+00
  1.164095e+01    2.748863e+00
  1.165683e+01    2.786333e+00
  1.167270e+01    2.788970e+00
  1.168858e+01    2.749634e+00
  1.170445e+01    2.794819e+00
  1.172033e+01    2.788658e+00
  1.173621e+01    2.768966e+00
  1.175208e+01    2.754310e+00
  1.176796e+01    2.710974e+00
  1.178383e+01    2.711057e+00
  1.179971e+01    2.717414e+00
  1.181558e+01    2.712624e+00
  1.183146e+01    2.725529e+00
  1.184733e+01    2.757354e+00
  1.186321e+01    2.738580e+00
  1.187909e+01    2.744410e+00
  1.189496e+01    2.737053e+00
  1.191084e+01    2.691335e+00
  1.192671e+01    2.691614e+00
  1.194259e+01    2.744507e+00
  1.195846e+01    2.720324e+00
  1.197434e+01    2.737732e+00
  1.199021e+01    2.756097e+00
  1.200609e+01    2.726298e+00
  1.202197e+01    2.756959e+00
  1.203784e+01    2.727378e+00
  1.205372e+01    2.696840e+00
  1.206959e+01    2.705967e+00
  1.208547e+01    2.690864e+00
  1.210134e+01    2.716228e+00
  1.211722e+01    2.721556e+00
  1.213309e+01    2.681302e+00
  1.214897e+01    2.719808e+00
  1.216485e+01    2.710198e+00
  1.218072e+01    2.713831e+00
  1.219660e+01    2.690316e+00
  1.221247e+01    2.677110e+00
  1.222835e+01    2.659232e+00
  1.224422e+01    2.658602e+00
  1.226010e+01    2.734098e+00
  1.227597e+01    2.740134e+00
  1.229185e+01    2.679847e+00
  1.230773e+01    2.708508e+00
  1.232360e+01    2.752937e+00
  1.233948e+01    2.669480e+00
  1.235535e+01    2.664562e+00
  1.237123e+01    2.642025e+00
  1.238710e+01    2.651051e+00
  1.240298e+01    2.652212e+00
  1.241886e+01    2.621484e+00
  1.243473e+01    2.674505e+00
  1.245061e+01    2.747027e+00
  1.246648e+01    2.744386e+00
  1.248236e+01    2.723854e+00
  1.249823e+01    2.756076e+00
  1.251411e+01    2.712312e+00
  1.252998e+01    2.739151e+00
  1.254586e+01    2.738900e+00
  1.256174e+01    2.704143e+00
  1.257761e+01    2.716111e+00
  1.259349e+01    2.748015e+00
  1.260936e+01    2.713338e+00
  1.262524e+01    2.736803e+00
  1.264111e+01    2.782565e+00
  1.265699e+01    2.753879e+00
  1.267286e+01    2.795434e+00
  1.268874e+01    2.758173e+00
  1.270462e+01    2.763905e+00
  1.272049e+01    2.812085e+00
  1.273637e+01    2.859518e+00
  1.275224e+01    2.875711e+00
  1.276812e+01    2.949772e+00
  1.278399e+01    2.972582e+00
  1.279987e+01    3.011480e+00
  1.281574e+01    3.058042e+00
  1.283162e+01    3.124704e+00
  1.284750e+01    3.171615e+00
  1.286337e+01    3.260626e+00
  1.287925e+01    3.355694e+00
  1.289512e+01    3.526270e+00
  1.291100e+01    3.713459e+00
  1.292687e+01    3.947842e+00
  1.294275e+01    4.152145e+00
  1.295862e+01    4.405705e+00
  1.297450e+01    4.833436e+00
  1.299038e+01    5.323863e+00
  1.300625e+01    6.035993e+00
  1.302213e+01    6.790534e+00
  1.303800e+01    7.815175e+00
  1.305388e+01    8.972610e+00
  1.306975e+01    1.031068e+01
  1.308563e+01    1.160587e+01
  1.310150e+01    1.278772e+01
  1.311738e+01    1.389954e+01
  1.313326e+01    1.493655e+01
  1.314913e+01    1.580317e+01
  1.316501e+01    1.647464e+01
  1.318088e+01    1.644985e+01
  1.319676e+01    1.578686e+01
  1.321263e+01    1.435052e+01
  1.322851e+01    1.252998e+01
  1.324438e+01    1.066388e+01
  1.326026e+01    9.093861e+00
  1.327614e+01    7.744883e+00
  1.329201e+01    6.762639e+00
  1.330789e+01    5.999307e+00
  1.332376e+01    5.309861e+00
  1.333964e+01    4.852983e+00
  1.335551e+01    4.437227e+00
  1.337139e+01    4.094038e+00
  1.338727e+01    3.819268e+00
  1.340314e+01    3.651628e+00
  1.341902e+01    3.485088e+00
  1.343489e+01    3.402446e+00
  1.345077e+01    3.281262e+00
  1.346664e+01    3.105506e+00
  1.348252e+01    3.041105e+00
  1.349839e+01    2.974553e+00
  1.351427e+01    2.915595e+00
  1.353015e+01    2.889591e+00
  1.354602e+01    2.846692e+00
  1.356190e+01    2.791480e+00
  1.357777e+01    2.744486e+00
  1.359365e+01    2.728518e+00
  1.360952e+01    2.686056e+00
  1.362540e+01    2.577642e+00
  1.364127e+01    2.601357e+00
  1.365715e+01    2.596168e+00
  1.367303e+01    2.556865e+00
  1.368890e+01    2.567321e+00
  1.370478e+01    2.557656e+00
  1.372065e+01    2.560239e+00
  1.373653e+01    2.563338e+00
  1.375240e+01    2.518516e+00
  1.376828e+01    2.453703e+00
  1.378415e+01    2.453067e+00
  1.380003e+01    2.466349e+00
  1.381591e+01    2.463356e+00
  1.383178e+01    2.448316e+00
  1.384766e+01    2.443514e+00
  1.386353e+01    2.427091e+00
  1.387941e+01    2.431551e+00
  1.389528e+01    2.453460e+00
  1.391116e+01    2.443769e+00
  1.392703e+01    2.432161e+00
  1.394291e+01    2.393564e+00
  1.395879e+01    2.413230e+00
  1.397466e+01    2.394023e+00
  1.399054e+01    2.430067e+00
  1.400641e+01    2.432432e+00
  1.402229e+01    2.377490e+00
  1.403816e+01    2.343849e+00
  1.405404e+01    2.365993e+00
  1.406991e+01    2.380888e+00
  1.408579e+01    2.322978e+00
  1.410167e+01    2.338368e+00
  1.411754e+01    2.343481e+00
  1.413342e+01    2.315418e+00
  1.414929e+01    2.336721e+00
  1.416517e+01    2.297201e+00
  1.418104e+01    2.282508e+00
  1.419692e+01    2.290337e+00
  1.421279e+01    2.244829e+00
  1.422867e+01    2.262243e+00
  1.424455e+01    2.256161e+00
  1.426042e+01    2.285800e+00
  1.427630e+01    2.294860e+00
  1.429217e+01    2.242058e+00
  1.430805e+01    2.271161e+00
  1.432392e+01    2.269183e+00
  1.433980e+01    2.239311e+00
  1.435568e+01    2.232707e+00
  1.437155e+01    2.252076e+00
  1.438743e+01    2.221248e+00
  1.440330e+01    2.204481e+00
  1.441918e+01    2.228409e+00
  1.443505e+01    2.240277e+00
  1.445093e+01    2.274513e+00
  1.446680e+01    2.257546e+00
  1.448268e+01    2.251472e+00
  1.449856e+01    2.230317e+00
  1.451443e+01    2.226104e+00
  1.453031e+01    2.222193e+00
  1.454618e+01    2.231116e+00
  1.456206e+01    2.206298e+00
  1.457793e+01    2.192325e+00
  1.459381e+01    2.208652e+00
  1.460968e+01    2.224092e+00
  1.462556e+01    2.234313e+00
  1.464144e+01    2.239623e+00
  1.465731e+01    2.198765e+00
  1.467319e+01    2.204674e+00
  1.468906e+01    2.202603e+00
  1.470494e+01    2.221098e+00
  1.472081e+01    2.221189e+00
  1.473669e+01    2.223229e+00
  1.475256e+01    2.192453e+00
  1.476844e+01    2.228545e+00
  1.478432e+01    2.237789e+00
  1.480019e+01    2.227756e+00
  1.481607e+01    2.212178e+00
  1.483194e+01    2.200333e+00
  1.484782e+01    2.170986e+00
  1.486369e+01    2.212968e+00
  1.487957e+01    2.228212e+00
  1.489544e+01    2.250623e+00
  1.491132e+01    2.244408e+00
  1.492720e+01    2.228044e+00
  1.494307e+01    2.273531e+00
  1.495895e+01    2.326357e+00
  1.497482e+01    2.347391e+00
  1.499070e+01    2.394667e+00
  1.500657e+01    2.429188e+00
  1.502245e+01    2.498947e+00
  1.503832e+01    2.588283e+00
  1.505420e+01    2.706395e+00
  1.507008e+01    2.831255e+00
  1.508595e+01    2.969075e+00
  1.510183e+01    3.200894e+00
  1.511770e+01    3.487943e+00
  1.513358e+01    3.889524e+00
  1.514945e+01    4.286960e+00
  1.516533e+01    4.613475e+00
  1.518120e+01    4.922141e+00
  1.519708e+01    5.155867e+00
  1.521296e+01    5.425780e+00
  1.522883e+01    5.656733e+00
  1.524471e+01    5.785222e+00
  1.526058e+01    5.941035e+00
  1.527646e+01    5.780307e+00
  1.529233e+01    5.482591e+00
  1.530821e+01    5.139897e+00
  1.532409e+01    4.746933e+00
  1.533996e+01    4.161231e+00
  1.535584e+01    3.750084e+00
  1.537171e+01    3.412979e+00
  1.538759e+01    3.132409e+00
  1.540346e+01    2.935300e+00
  1.541934e+01    2.790990e+00
  1.543521e+01    2.621043e+00
  1.545109e+01    2.494515e+00
  1.546697e+01    2.430520e+00
  1.548284e+01    2.313342e+00
  1.549872e+01    2.319375e+00
  1.551459e+01    2.283258e+00
  1.553047e+01    2.226557e+00
  1.554634e+01    2.181683e+00
  1.556222e+01    2.131058e+00
  1.557809e+01    2.107583e+00
  1.559397e+01    2.103135e+00
  1.560985e+01    2.096975e+00
  1.562572e+01    2.078224e+00
  1.564160e+01    2.026036e+00
  1.565747e+01    2.049203e+00
  1.567335e+01    2.044528e+00
  1.568922e+01    2.051473e+00
  1.570510e+01    2.041122e+00
  1.572097e+01    2.038034e+00
  1.573685e+01    1.995414e+00
  1.575273e+01    1.961233e+00
  1.576860e+01    1.933534e+00
  1.578448e+01    1.951646e+00
  1.580035e+01    1.951230e+00
  1.581623e+01    1.955371e+00
  1.583210e+01    1.924832e+00
  1.584798e+01    1.908131e+00
  1.586385e+01    1.938345e+00
  1.587973e+01    1.954656e+00
  1.589561e+01    1.928877e+00
  1.591148e+01    1.941429e+00
  1.592736e+01    1.952010e+00
  1.594323e+01    1.903679e+00
  1.595911e+01    1.898817e+00
  1.597498e+01    1.889594e+00
  1.599086e+01    1.902591e+00
  1.600673e+01    1.880468e+00
  1.602261e+01    1.827531e+00
  1.603849e+01    1.853748e+00
  1.605436e+01    1.830406e+00
  1.607024e+01    1.843511e+00
  1.608611e+01    1.864487e+00
  1.610199e+01    1.869763e+00
  1.611786e+01    1.847137e+00
  1.613374e+01    1.810032e+00
  1.614961e+01    1.834747e+00
  1.616549e+01    1.837990e+00
  1.618137e+01    1.833042e+00
  1.619724e+01    1.840501e+00
  1.621312e+01    1.812797e+00
  1.622899e+01    1.807649e+00
  1.624487e+01    1.815596e+00
  1.626074e+01    1.802179e+00
  1.627662e+01    1.777906e+00
  1.629250e+01    1.806293e+00
  1.630837e+01    1.819284e+00
  1.632425e+01    1.810670e+00
  1.634012e+01    1.804489e+00
  1.635600e+01    1.790560e+00
  1.637187e+01    1.793470e+00
  1.638775e+01    1.781170e+00
  1.640362e+01    1.775163e+00
  1.641950e+01    1.780869e+00
  1.643538e+01    1.790246e+00
  1.645125e+01    1.755459e+00
  1.646713e+01    1.776129e+00
  1.648300e+01    1.761427e+00
  1.649888e+01    1.767814e+00
  1.651475e+01    1.775750e+00
  1.653063e+01    1.751925e+00
  1.654650e+01    1.757384e+00
  1.656238e+01    1.744511e+00
  1.657826e+01    1.754181e+00
  1.659413e+01    1.745051e+00
  1.661001e+01    1.747728e+00
  1.662588e+01    1.716985e+00
  1.664176e+01    1.730700e+00
  1.665763e+01    1.715915e+00
  1.667351e+01    1.722973e+00
  1.668938e+01    1.717011e+00
  1.670526e+01    1.726636e+00
  1.672114e+01    1.693510e+00
  1.673701e+01    1.707580e+00
  1.675289e+01    1.706940e+00
  1.676876e+01    1.692077e+00
  1.678464e+01    1.684281e+00
  1.680051e+01    1.728405e+00
  1.681639e+01    1.685055e+00
  1.683226e+01    1.696544e+00
  1.684814e+01    1.687954e+00
  1.686402e+01    1.679914e+00
  1.687989e+01    1.717017e+00
  1.689577e+01    1.713920e+00
  1.691164e+01    1.710278e+00
  1.692752e+01    1.697781e+00
  1.694339e+01    1.674318e+00
  1.695927e+01    1.676360e+00
  1.697514e+01    1.702310e+00
  1.699102e+01    1.702224e+00
  1.700690e+01    1.672671e+00
  1.702277e+01    1.696930e+00
  1.703865e+01    1.674342e+00
  1.705452e+01    1.663733e+00
  1.707040e+01    1.670882e+00
  1.708627e+01    1.671344e+00
  1.710215e+01    1.663280e+00
  1.711802e+01    1.677632e+00
  1.713390e+01    1.674251e+00
  1.714978e+01    1.634163e+00
  1.716565e+01    1.606400e+00
  1.718153e+01    1.615332e+00
  1.719740e+01    1.615017e+00
  1.721328e+01    1.642678e+00
  1.722915e+01    1.620738e+00
  1.724503e+01    1.627025e+00
  1.726091e+01    1.607664e+00
  1.727678e+01    1.592945e+00
  1.729266e+01    1.613086e+00
  1.730853e+01    1.624778e+00
  1.732441e+01    1.599630e+00
  1.734028e+01    1.617630e+00
  1.735616e+01    1.620713e+00
  1.737203e+01    1.616888e+00
  1.738791e+01    1.566946e+00
  1.740379e+01    1.588860e+00
  1.741966e+01    1.591076e+00
  1.743554e+01    1.582339e+00
  1.745141e+01    1.604105e+00
  1.746729e+01    1.612350e+00
  1.748316e+01    1.585765e+00
  1.749904e+01    1.579717e+00
  1.751491e+01    1.599459e+00
  1.753079e+01    1.584176e+00
  1.754667e+01    1.601272e+00
  1.756254e+01    1.587935e+00
  1.757842e+01    1.575946e+00
  1.759429e+01    1.566468e+00
  1.761017e+01    1.573362e+00
  1.762604e+01    1.562164e+00
  1.764192e+01    1.568775e+00
  1.765779e+01    1.551740e+00
  1.767367e+01    1.565647e+00
  1.768955e+01    1.571638e+00
  1.770542e+01    1.520041e+00
  1.772130e+01    1.574089e+00
  1.773717e+01    1.610654e+00
  1.775305e+01    1.548739e+00
  1.776892e+01    1.558262e+00
  1.778480e+01    1.568223e+00
  1.780067e+01    1.533229e+00
  1.781655e+01    1.559364e+00
  1.783243e+01    1.567050e+00
  1.784830e+01    1.561276e+00
  1.786418e+01    1.548819e+00
  1.788005e+01    1.536870e+00
  1.789593e+01    1.553087e+00
  1.791180e+01    1.549051e+00
  1.792768e+01    1.522478e+00
  1.794355e+01    1.540169e+00
  1.795943e+01    1.485157e+00
  1.797531e+01    1.493962e+00
  1.799118e+01    1.508458e+00
  1.800706e+01    1.525421e+00
  1.802293e+01    1.510207e+00
  1.803881e+01    1.513044e+00
  1.805468e+01    1.500083e+00
  1.807056e+01    1.496005e+00
  1.808643e+01    1.517493e+00
  1.810231e+01    1.525797e+00
  1.811819e+01    1.516288e+00
  1.813406e+01    1.491361e+00
  1.814994e+01    1.486990e+00
  1.816581e+01    1.469708e+00
  1.818169e+01    1.467569e+00
  1.819756e+01    1.467522e+00
  1.821344e+01    1.463684e+00
  1.822932e+01    1.452568e+00
  1.824519e+01    1.488001e+00
  1.826107e+01    1.481248e+00
  1.827694e+01    1.500482e+00
  1.829282e+01    1.491722e+00
  1.830869e+01    1.443838e+00
  1.832457e+01    1.450653e+00
  1.834044e+01    1.482171e+00
  1.835632e+01    1.481154e+00
  1.837220e+01    1.470439e+00
  1.838807e+01    1.491526e+00
  1.840395e+01    1.490186e+00
  1.841982e+01    1.481694e+00
  1.843570e+01    1.440160e+00
  1.845157e+01    1.425765e+00
  1.846745e+01    1.438360e+00
  1.848332e+01    1.465669e+00
  1.849920e+01    1.446912e+00
  1.851508e+01    1.456518e+00
  1.853095e+01    1.450220e+00
  1.854683e+01    1.449185e+00
  1.856270e+01    1.461431e+00
  1.857858e+01    1.439898e+00
  1.859445e+01    1.406711e+00
  1.861033e+01    1.421428e+00
  1.862620e+01    1.427732e+00
  1.864208e+01    1.418160e+00
  1.865796e+01    1.449139e+00
  1.867383e+01    1.432161e+00
  1.868971e+01    1.395404e+00
  1.870558e+01    1.429311e+00
  1.872146e+01    1.435880e+00
  1.873733e+01    1.443002e+00
  1.875321e+01    1.415857e+00
  1.876908e+01    1.385664e+00
  1.878496e+01    1.399274e+00
  1.880084e+01    1.394888e+00
  1.881671e+01    1.416067e+00
  1.883259e+01    1.437432e+00
  1.884846e+01    1.434337e+00
  1.886434e+01    1.432828e+00
  1.888021e+01    1.415116e+00
  1.889609e+01    1.400969e+00
  1.891196e+01    1.385061e+00
  1.892784e+01    1.390253e+00
  1.894372e+01    1.363243e+00
  1.895959e+01    1.375431e+00
  1.897547e+01    1.384788e+00
  1.899134e+01    1.375263e+00
  1.900722e+01    1.381041e+00
  1.902309e+01    1.379504e+00
  1.903897e+01    1.356759e+00
  1.905484e+01    1.391285e+00
  1.907072e+01    1.406379e+00
  1.908660e+01    1.359595e+00
  1.910247e+01    1.362661e+00
  1.911835e+01    1.370570e+00
  1.913422e+01    1.364259e+00
  1.915010e+01    1.400153e+00
  1.916597e+01    1.420881e+00
  1.918185e+01    1.378289e+00
  1.919773e+01    1.385482e+00
  1.921360e+01    1.351941e+00
  1.922948e+01    1.366755e+00
  1.924535e+01    1.360723e+00
  1.926123e+01    1.350669e+00
  1.927710e+01    1.343912e+00
  1.929298e+01    1.355653e+00
  1.930885e+01    1.359170e+00
  1.932473e+01    1.346785e+00
  1.934061e+01    1.351251e+00
  1.935648e+01    1.374725e+00
  1.937236e+01    1.360553e+00
  1.938823e+01    1.340375e+00
  1.940411e+01    1.350426e+00
  1.941998e+01    1.340663e+00
  1.943586e+01    1.330869e+00
  1.945173e+01    1.332980e+00
  1.946761e+01    1.339380e+00
  1.948349e+01    1.307215e+00
  1.949936e+01    1.339747e+00
  1.951524e+01    1.354722e+00
  1.953111e+01    1.353830e+00
  1.954699e+01    1.329744e+00
  1.956286e+01    1.327148e+00
  1.957874e+01    1.342514e+00
  1.959461e+01    1.346591e+00
  1.961049e+01    1.324262e+00
  1.962637e+01    1.338258e+00
  1.964224e+01    1.334796e+00
  1.965812e+01    1.334821e+00
  1.967399e+01    1.303417e+00
  1.968987e+01    1.326979e+00
  1.970574e+01    1.338077e+00
  1.972162e+01    1.326576e+00
  1.973749e+01    1.305340e+00
  1.975337e+01    1.284469e+00
  1.976925e+01    1.307106e+00
  1.978512e+01    1.316466e+00
  1.980100e+01    1.310351e+00
  1.981687e+01    1.318286e+00
  1.983275e+01    1.309656e+00
  1.984862e+01    1.299677e+00
  1.986450e+01    1.295321e+00
  1.988037e+01    1.266461e+00
  1.989625e+01    1.258003e+00
  1.991213e+01    1.296092e+00
  1.992800e+01    1.286488e+00
  1.994388e+01    1.273679e+00
  1.995975e+01    1.303666e+00
  1.997563e+01    1.279103e+00
  1.999150e+01    1.269416e+00
  2.000738e+01    1.263505e+00
  2.002325e+01    1.269175e+00
  2.003913e+01    1.287240e+00
  2.005501e+01    1.266350e+00
  2.007088e+01    1.274822e+00
  2.008676e+01    1.259115e+00
  2.010263e+01    1.270437e+00
  2.011851e+01    1.258302e+00
  2.013438e+01    1.275850e+00
  2.015026e+01    1.280544e+00
  2.016614e+01    1.265270e+00
  2.018201e+01    1.270670e+00
  2.019789e+01    1.258572e+00
  2.021376e+01    1.268888e+00
  2.022964e+01    1.243606e+00
  2.024551e+01    1.252635e+00
  2.026139e+01    1.271983e+00
  2.027726e+01    1.259485e+00
  2.029314e+01    1.252261e+00
  2.030902e+01    1.259737e+00
  2.032489e+01    1.283325e+00
  2.034077e+01    1.253639e+00
  2.035664e+01    1.269910e+00
  2.037252e+01    1.288742e+00
  2.038839e+01    1.275615e+00
  2.040427e+01    1.226912e+00
  2.042014e+01    1.227647e+00
  2.043602e+01    1.255775e+00
  2.045190e+01    1.245201e+00
  2.046777e+01    1.229897e+00
  2.048365e+01    1.242185e+00
  2.049952e+01    1.238022e+00
  2.051540e+01    1.247801e+00
  2.053127e+01    1.220674e+00
  2.054715e+01    1.234089e+00
  2.056302e+01    1.252516e+00
  2.057890e+01    1.240826e+00
  2.059478e+01    1.233578e+00
  2.061065e+01    1.225537e+00
  2.062653e+01    1.250058e+00
  2.064240e+01    1.260749e+00
  2.065828e+01    1.251893e+00
  2.067415e+01    1.235892e+00
  2.069003e+01    1.235657e+00
  2.070590e+01    1.220681e+00
  2.072178e+01    1.243336e+00
  2.073766e+01    1.236164e+00
  2.075353e+01    1.230407e+00
  2.076941e+01    1.222517e+00
  2.078528e+01    1.242467e+00
  2.080116e+01    1.249634e+00
  2.081703e+01    1.234564e+00
  2.083291e+01    1.236210e+00
  2.084878e+01    1.247503e+00
  2.086466e+01    1.235133e+00
  2.088054e+01    1.214373e+00
  2.089641e+01    1.221668e+00
  2.091229e+01    1.242103e+00
  2.092816e+01    1.226758e+00
  2.094404e+01    1.206048e+00
  2.095991e+01    1.208241e+00
  2.097579e+01    1.242119e+00
  2.099166e+01    1.225990e+00
  2.100754e+01    1.230301e+00
  2.102342e+01    1.248719e+00
  2.103929e+01    1.243569e+00
  2.105517e+01    1.214271e+00
  2.107104e+01    1.219084e+00
  2.108692e+01    1.245542e+00
  2.110279e+01    1.233849e+00
  2.111867e+01    1.227297e+00
  2.113455e+01    1.220482e+00
  2.115042e+01    1.242954e+00
  2.116630e+01    1.261210e+00
  2.118217e+01    1.256178e+00
  2.119805e+01    1.247753e+00
  2.121392e+01    1.252907e+00
  2.122980e+01    1.235953e+00
  2.124567e+01    1.259944e+00
  2.126155e+01    1.266417e+00
  2.127743e+01    1.276939e+00
  2.129330e+01    1.277453e+00
  2.130918e+01    1.264812e+00
  2.132505e+01    1.265699e+00
  2.134093e+01    1.263898e+00
  2.135680e+01    1.277738e+00
  2.137268e+01    1.288195e+00
  2.138855e+01    1.314310e+00
  2.140443e+01    1.313098e+00
  2.142031e+01    1.337668e+00
  2.143618e+01    1.349260e+00
  2.145206e+01    1.366233e+00
  2.146793e+01    1.363919e+00
  2.148381e+01    1.403668e+00
  2.149968e+01    1.436393e+00
  2.151556e+01    1.477776e+00
  2.153143e+01    1.507285e+00
  2.154731e+01    1.523791e+00
  2.156319e+01    1.555728e+00
  2.157906e+01    1.607393e+00
  2.159494e+01    1.671543e+00
  2.161081e+01    1.748210e+00
  2.162669e+01    1.852789e+00
  2.164256e+01    2.007361e+00
  2.165844e+01    2.145659e+00
  2.167431e+01    2.298326e+00
  2.169019e+01    2.567525e+00
  2.170607e+01    2.859201e+00
  2.172194e+01    3.183128e+00
  2.173782e+01    3.551303e+00
  2.175369e+01    4.049979e+00
  2.176957e+01    4.688118e+00
  2.178544e+01    5.280413e+00
  2.180132e+01    5.914487e+00
  2.181719e+01    6.610050e+00
  2.183307e+01    7.224440e+00
  2.184895e+01    7.863384e+00
  2.186482e+01    8.530549e+00
  2.188070e+01    8.846672e+00
  2.189657e+01    9.000481e+00
  2.191245e+01    8.857207e+00
  2.192832e+01    8.278680e+00
  2.194420e+01    7.432428e+00
  2.196007e+01    6.528254e+00
  2.197595e+01    5.676817e+00
  2.199183e+01    4.879915e+00
  2.200770e+01    4.151854e+00
  2.202358e+01    3.626861e+00
  2.203945e+01    3.185011e+00
  2.205533e+01    2.830590e+00
  2.207120e+01    2.533683e+00
  2.208708e+01    2.344985e+00
  2.210296e+01    2.164228e+00
  2.211883e+01    2.025335e+00
  2.213471e+01    1.856980e+00
  2.215058e+01    1.734377e+00
  2.216646e+01    1.662567e+00
  2.218233e+01    1.618973e+00
  2.219821e+01    1.569732e+00
  2.221408e+01    1.516913e+00
  2.222996e+01    1.470716e+00
  2.224584e+01    1.411408e+00
  2.226171e+01    1.372055e+00
  2.227759e+01    1.355456e+00
  2.229346e+01    1.325743e+00
  2.230934e+01    1.297369e+00
  2.232521e+01    1.282876e+00
  2.234109e+01    1.292289e+00
  2.235696e+01    1.259930e+00
  2.237284e+01    1.246245e+00
  2.238872e+01    1.206542e+00
  2.240459e+01    1.187026e+00
  2.242047e+01    1.174403e+00
  2.243634e+01    1.194873e+00
  2.245222e+01    1.180560e+00
  2.246809e+01    1.158285e+00
  2.248397e+01    1.168425e+00
  2.249984e+01    1.151201e+00
  2.251572e+01    1.144518e+00
  2.253160e+01    1.143830e+00
  2.254747e+01    1.124493e+00
  2.256335e+01    1.145903e+00
  2.257922e+01    1.109365e+00
  2.259510e+01    1.116311e+00
  2.261097e+01    1.120776e+00
  2.262685e+01    1.107913e+00
  2.264272e+01    1.092758e+00
  2.265860e+01    1.090114e+00
  2.267448e+01    1.087471e+00
  2.269035e+01    1.068441e+00
  2.270623e+01    1.081680e+00
  2.272210e+01    1.081346e+00
  2.273798e+01    1.077140e+00
  2.275385e+01    1.067634e+00
  2.276973e+01    1.075064e+00
  2.278560e+01    1.057453e+00
  2.280148e+01    1.046728e+00
  2.281736e+01    1.064005e+00
  2.283323e+01    1.065242e+00
  2.284911e+01    1.060536e+00
  2.286498e+01    1.059021e+00
  2.288086e+01    1.044068e+00
  2.289673e+01    1.045815e+00
  2.291261e+01    1.064958e+00
  2.292848e+01    1.054873e+00
  2.294436e+01    1.045488e+00
  2.296024e+01    1.037621e+00
  2.297611e+01    1.040093e+00
  2.299199e+01    1.048368e+00
  2.300786e+01    1.018748e+00
  2.302374e+01    1.034737e+00
  2.303961e+01    1.018068e+00
  2.305549e+01    1.026517e+00
  2.307137e+01    1.006882e+00
  2.308724e+01    1.011007e+00
  2.310312e+01    1.024829e+00
  2.311899e+01    9.851484e-01
  2.313487e+01    9.880709e-01
  2.315074e+01    9.877402e-01
  2.316662e+01    1.008303e+00
  2.318249e+01    1.003244e+00
  2.319837e+01    9.780632e-01
  2.321425e+01    9.773419e-01
  2.323012e+01    1.009709e+00
  2.324600e+01    9.856194e-01
  2.326187e+01    9.875621e-01
  2.327775e+01    9.910889e-01
  2.329362e+01    9.695044e-01
  2.330950e+01    9.807100e-01
  2.332537e+01    9.843175e-01
  2.334125e+01    9.670955e-01
  2.335713e+01    9.882257e-01
  2.337300e+01    9.810256e-01
  2.338888e+01    9.822038e-01
  2.340475e+01    9.845905e-01
  2.342063e+01    9.726107e-01
  2.343650e+01    9.747922e-01
  2.345238e+01    9.629558e-01
  2.346825e+01    9.623488e-01
  2.348413e+01    9.613988e-01
  2.350001e+01    9.434498e-01
  2.351588e+01    9.335911e-01
  2.353176e+01    9.537464e-01
  2.354763e+01    9.651520e-01
  2.356351e+01    9.733582e-01
  2.357938e+01    9.560301e-01
  2.359526e+01    9.605845e-01
  2.361113e+01    9.500331e-01
  2.362701e+01    9.536750e-01
  2.364289e+01    9.449008e-01
  2.365876e+01    9.551045e-01
  2.367464e+01    9.499772e-01
  2.369051e+01    9.558399e-01
  2.370639e+01    9.470191e-01
  2.372226e+01    9.323820e-01
  2.373814e+01    9.334704e-01
  2.375401e+01    9.323971e-01
  2.376989e+01    9.303837e-01
  2.378577e+01    9.224741e-01
  2.380164e+01    9.312491e-01
  2.381752e+01    9.230216e-01
  2.383339e+01    9.268733e-01
  2.384927e+01    9.330986e-01
  2.386514e+01    9.146414e-01
  2.388102e+01    9.214368e-01
  2.389689e+01    9.313338e-01
  2.391277e+01    9.165668e-01
  2.392865e+01    9.272066e-01
  2.394452e+01    9.175988e-01
  2.396040e+01    9.112176e-01
  2.397627e+01    8.965423e-01
  2.399215e+01    8.979622e-01
  2.400802e+01    8.987997e-01
  2.402390e+01    8.991744e-01
  2.403978e+01    9.173329e-01
  2.405565e+01    8.855504e-01
  2.407153e+01    8.952709e-01
  2.408740e+01    8.995343e-01
  2.410328e+01    9.054338e-01
  2.411915e+01    8.951072e-01
  2.413503e+01    8.750677e-01
  2.415090e+01    8.868127e-01
  2.416678e+01    8.800794e-01
  2.418266e+01    8.967383e-01
  2.419853e+01    8.742739e-01
  2.421441e+01    8.890691e-01
  2.423028e+01    8.863749e-01
  2.424616e+01    8.713764e-01
  2.426203e+01    8.853689e-01
  2.427791e+01    8.885059e-01
  2.429378e+01    8.900664e-01
  2.430966e+01    8.702638e-01
  2.432554e+01    8.886256e-01
  2.434141e+01    8.831209e-01
  2.435729e+01    8.900546e-01
  2.437316e+01    8.912994e-01
  2.438904e+01    9.041870e-01
  2.440491e+01    8.974962e-01
  2.442079e+01    9.099163e-01
  2.443666e+01    9.066447e-01
  2.445254e+01    8.830625e-01
  2.446842e+01    8.851720e-01
  2.448429e+01    9.101951e-01
  2.450017e+01    8.960183e-01
  2.451604e+01    9.145308e-01
  2.453192e+01    8.979318e-01
  2.454779e+01    8.971000e-01
  2.456367e+01    8.809325e-01
  2.457954e+01    8.965335e-01
  2.459542e+01    8.972170e-01
  2.461130e+01    8.877138e-01
  2.462717e+01    8.852548e-01
  2.464305e+01    8.818699e-01
  2.465892e+01    8.991666e-01
  2.467480e+01    8.845400e-01
  2.469067e+01    8.939095e-01
  2.470655e+01    9.064047e-01
  2.472242e+01    8.990631e-01
  2.473830e+01    8.959013e-01
  2.475418e+01    8.954694e-01
  2.477005e+01    8.939474e-01
  2.478593e+01    8.935342e-01
  2.480180e+01    8.920466e-01
  2.481768e+01    8.891293e-01
  2.483355e+01    8.773949e-01
  2.484943e+01    8.908091e-01
  2.486530e+01    9.204968e-01
  2.488118e+01    8.969119e-01
  2.489706e+01    8.804592e-01
  2.491293e+01    8.826563e-01
  2.492881e+01    8.948081e-01
  2.494468e+01    8.914346e-01
  2.496056e+01    8.878757e-01
  2.497643e+01    8.935714e-01
  2.499231e+01    8.994177e-01
  2.500819e+01    9.155561e-01
  2.502406e+01    8.966457e-01
  2.503994e+01    8.863390e-01
  2.505581e+01    8.928069e-01
  2.507169e+01    8.965154e-01
  2.508756e+01    9.093032e-01
  2.510344e+01    9.035893e-01
  2.511931e+01    9.010364e-01
  2.513519e+01    9.090587e-01
  2.515107e+01    9.219049e-01
  2.516694e+01    9.145148e-01
  2.518282e+01    9.081754e-01
  2.519869e+01    9.189446e-01
  2.521457e+01    9.243561e-01
  2.523044e+01    9.365682e-01
  2.524632e+01    9.132802e-01
  2.526219e+01    9.414533e-01
  2.527807e+01    9.479473e-01
  2.529395e+01    9.511513e-01
  2.530982e+01    9.523600e-01
  2.532570e+01    9.526936e-01
  2.534157e+01    9.703810e-01
  2.535745e+01    9.783996e-01
  2.537332e+01    9.734805e-01
  2.538920e+01    9.929579e-01
  2.540507e+01    9.956598e-01
  2.542095e+01    9.967301e-01
  2.543683e+01    1.029526e+00
  2.545270e+01    1.022942e+00
  2.546858e+01    1.043624e+00
  2.548445e+01    1.046094e+00
  2.550033e+01    1.053184e+00
  2.551620e+01    1.096685e+00
  2.553208e+01    1.099171e+00
  2.554795e+01    1.115402e+00
  2.556383e+01    1.149771e+00
  2.557971e+01    1.178730e+00
  2.559558e+01    1.195029e+00
  2.561146e+01    1.222029e+00
  2.562733e+01    1.280040e+00
  2.564321e+01    1.320916e+00
  2.565908e+01    1.359858e+00
  2.567496e+01    1.428870e+00
  2.569083e+01    1.520645e+00
  2.570671e+01    1.617851e+00
  2.572259e+01    1.734057e+00
  2.573846e+01    1.876514e+00
  2.575434e+01    2.049492e+00
  2.577021e+01    2.281235e+00
  2.578609e+01    2.532521e+00
  2.580196e+01    2.891260e+00
  2.581784e+01    3.289531e+00
  2.583371e+01    3.673243e+00
  2.584959e+01    4.187126e+00
  2.586547e+01    4.804847e+00
  2.588134e+01    5.381953e+00
  2.589722e+01    5.884279e+00
  2.591309e+01    6.427365e+00
  2.592897e+01    6.873044e+00
  2.594484e+01    7.171662e+00
  2.596072e+01    7.221138e+00
  2.597660e+01    6.975668e+00
  2.599247e+01    6.555724e+00
  2.600835e+01    5.961571e+00
  2.602422e+01    5.269496e+00
  2.604010e+01    4.510953e+00
  2.605597e+01    3.940544e+00
  2.607185e+01    3.443380e+00
  2.608772e+01    2.953408e+00
  2.610360e+01    2.643811e+00
  2.611948e+01    2.354302e+00
  2.613535e+01    2.138841e+00
  2.615123e+01    1.960096e+00
  2.616710e+01    1.794823e+00
  2.618298e+01    1.655979e+00
  2.619885e+01    1.556721e+00
  2.621473e+01    1.479763e+00
  2.623060e+01    1.426996e+00
  2.624648e+01    1.341695e+00
  2.626236e+01    1.275146e+00
  2.627823e+01    1.245419e+00
  2.629411e+01    1.196611e+00
  2.630998e+01    1.198590e+00
  2.632586e+01    1.174688e+00
  2.634173e+01    1.122709e+00
  2.635761e+01    1.086571e+00
  2.637348e+01    1.075742e+00
  2.638936e+01    1.062279e+00
  2.640524e+01    1.056793e+00
  2.642111e+01    1.038708e+00
  2.643699e+01    1.037868e+00
  2.645286e+01    1.005955e+00
  2.646874e+01    1.009948e+00
  2.648461e+01    1.016654e+00
  2.650049e+01    1.000105e+00
  2.651636e+01    1.000326e+00
  2.653224e+01    9.900185e-01
  2.654812e+01    9.721216e-01
  2.656399e+01    9.840713e-01
  2.657987e+01    9.756798e-01
  2.659574e+01    9.845523e-01
  2.661162e+01    9.875572e-01
  2.662749e+01    9.675823e-01
  2.664337e+01    9.535854e-01
  2.665924e+01    9.702461e-01
  2.667512e+01    9.701105e-01
  2.669100e+01    9.685377e-01
  2.670687e+01    9.792475e-01
  2.672275e+01    9.820228e-01
  2.673862e+01    9.508760e-01
  2.675450e+01    9.661949e-01
  2.677037e+01    9.659035e-01
  2.678625e+01    9.708098e-01
  2.680212e+01    9.773722e-01
  2.681800e+01    9.874040e-01
  2.683388e+01    9.733084e-01
  2.684975e+01    9.926888e-01
  2.686563e+01    9.970777e-01
  2.688150e+01    9.931047e-01
  2.689738e+01    1.004929e+00
  2.691325e+01    1.035633e+00
  2.692913e+01    1.051880e+00
  2.694501e+01    1.042383e+00
  2.696088e+01    1.052488e+00
  2.697676e+01    1.059957e+00
  2.699263e+01    1.092453e+00
  2.700851e+01    1.123875e+00
  2.702438e+01    1.149463e+00
  2.704026e+01    1.190347e+00
  2.705613e+01    1.268094e+00
  2.707201e+01    1.354192e+00
  2.708789e+01    1.409305e+00
  2.710376e+01    1.479382e+00
  2.711964e+01    1.577347e+00
  2.713551e+01    1.728267e+00
  2.715139e+01    1.883849e+00
  2.716726e+01    2.015417e+00
  2.718314e+01    2.064294e+00
  2.719901e+01    2.156009e+00
  2.721489e+01    2.196082e+00
  2.723077e+01    2.170935e+00
  2.724664e+01    2.112333e+00
  2.726252e+01    1.986089e+00
  2.727839e+01    1.813235e+00
  2.729427e+01    1.684782e+00
  2.731014e+01    1.544905e+00
  2.732602e+01    1.416134e+00
  2.734189e+01    1.345090e+00
  2.735777e+01    1.266246e+00
  2.737365e+01    1.222325e+00
  2.738952e+01    1.176328e+00
  2.740540e+01    1.136755e+00
  2.742127e+01    1.119167e+00
  2.743715e+01    1.067361e+00
  2.745302e+01    1.033425e+00
  2.746890e+01    1.013881e+00
  2.748477e+01    9.819847e-01
  2.750065e+01    9.929044e-01
  2.751653e+01    1.004338e+00
  2.753240e+01    9.711658e-01
  2.754828e+01    9.770705e-01
  2.756415e+01    9.403839e-01
  2.758003e+01    9.355705e-01
  2.759590e+01    9.305221e-01
  2.761178e+01    9.216697e-01
  2.762765e+01    9.171652e-01
  2.764353e+01    9.066116e-01
  2.765941e+01    9.193583e-01
  2.767528e+01    9.182775e-01
  2.769116e+01    9.158069e-01
  2.770703e+01    8.956448e-01
  2.772291e+01    9.023597e-01
  2.773878e+01    9.119507e-01
  2.775466e+01    8.959497e-01
  2.777054e+01    9.023170e-01
  2.778641e+01    8.935958e-01
  2.780229e+01    9.032169e-01
  2.781816e+01    9.125310e-01
  2.783404e+01    9.151825e-01
  2.784991e+01    8.933154e-01
  2.786579e+01    8.903643e-01
  2.788166e+01    8.840504e-01
  2.789754e+01    8.810157e-01
  2.791342e+01    8.683941e-01
  2.792929e+01    8.794657e-01
  2.794517e+01    8.756692e-01
  2.796104e+01    8.749673e-01
  2.797692e+01    8.645670e-01
  2.799279e+01    8.697394e-01
  2.800867e+01    8.740278e-01
  2.802454e+01    8.608758e-01
  2.804042e+01    8.643134e-01
  2.805630e+01    8.599517e-01
  2.807217e+01    8.682792e-01
  2.808805e+01    8.628101e-01
  2.810392e+01    8.606079e-01
  2.811980e+01    8.549344e-01
  2.813567e+01    8.578466e-01
  2.815155e+01    8.587581e-01
  2.816742e+01    8.673179e-01
  2.818330e+01    8.753064e-01
  2.819918e+01    8.549556e-01
  2.821505e+01    8.640032e-01
  2.823093e+01    8.582083e-01
  2.824680e+01    8.599996e-01
  2.826268e+01    8.602371e-01
  2.827855e+01    8.578361e-01
  2.829443e+01    8.418594e-01
  2.831030e+01    8.376914e-01
  2.832618e+01    8.363611e-01
  2.834206e+01    8.445215e-01
  2.835793e+01    8.422075e-01
  2.837381e+01    8.324615e-01
  2.838968e+01    8.254012e-01
  2.840556e+01    8.335507e-01
  2.842143e+01    8.293790e-01
  2.843731e+01    8.209293e-01
  2.845318e+01    8.364902e-01
  2.846906e+01    8.372526e-01
  2.848494e+01    8.314462e-01
  2.850081e+01    8.394709e-01
  2.851669e+01    8.574446e-01
  2.853256e+01    8.421589e-01
  2.854844e+01    8.355538e-01
  2.856431e+01    8.324666e-01
  2.858019e+01    8.350627e-01
  2.859606e+01    8.400983e-01
  2.861194e+01    8.583965e-01
  2.862782e+01    8.353190e-01
  2.864369e+01    8.477558e-01
  2.865957e+01    8.419837e-01
  2.867544e+01    8.463624e-01
  2.869132e+01    8.664004e-01
  2.870719e+01    8.367326e-01
  2.872307e+01    8.448722e-01
  2.873895e+01    8.180143e-01
  2.875482e+01    8.269038e-01
  2.877070e+01    8.367668e-01
  2.878657e+01    8.083723e-01
  2.880245e+01    8.247429e-01
  2.881832e+01    8.408624e-01
  2.883420e+01    8.220024e-01
  2.885007e+01    8.323391e-01
  2.886595e+01    8.381259e-01
  2.888183e+01    8.049150e-01
  2.889770e+01    8.034238e-01
  2.891358e+01    8.385676e-01
  2.892945e+01    8.333890e-01
  2.894533e+01    8.328044e-01
  2.896120e+01    8.227051e-01
  2.897708e+01    8.388841e-01
  2.899295e+01    8.354192e-01
  2.900883e+01    8.173336e-01
  2.902471e+01    8.106446e-01
  2.904058e+01    7.973098e-01
  2.905646e+01    8.248445e-01
  2.907233e+01    8.239528e-01
  2.908821e+01    8.089474e-01
  2.910408e+01    8.175121e-01
  2.911996e+01    8.255097e-01
  2.913583e+01    8.441029e-01
  2.915171e+01    8.288320e-01
  2.916759e+01    8.233992e-01
  2.918346e+01    8.264061e-01
  2.919934e+01    8.221380e-01
  2.921521e+01    8.144510e-01
  2.923109e+01    7.972192e-01
  2.924696e+01    8.042748e-01
  2.926284e+01    8.115168e-01
  2.927871e+01    7.897779e-01
  2.929459e+01    8.209785e-01
  2.931047e+01    8.258980e-01
  2.932634e+01    8.108539e-01
  2.934222e+01    8.140301e-01
  2.935809e+01    8.182733e-01
  2.937397e+01    8.111908e-01
  2.938984e+01    7.946281e-01
  2.940572e+01    8.178654e-01
  2.942159e+01    7.991893e-01
  2.943747e+01    7.817957e-01
  2.945335e+01    7.922602e-01
  2.946922e+01    8.003153e-01
  2.948510e+01    8.036371e-01
  2.950097e+01    8.029587e-01
  2.951685e+01    7.990242e-01
  2.953272e+01    8.103424e-01
  2.954860e+01    8.131558e-01
  2.956447e+01    8.154637e-01
  2.958035e+01    8.315715e-01
  2.959623e+01    8.154197e-01
  2.961210e+01    7.954855e-01
  2.962798e+01    8.178374e-01
  2.964385e+01    7.799886e-01
  2.965973e+01    7.648060e-01
  2.967560e+01    7.886541e-01
  2.969148e+01    7.793898e-01
  2.970736e+01    8.076310e-01
  2.972323e+01    8.000129e-01
  2.973911e+01    7.910626e-01
  2.975498e+01    8.026386e-01
  2.977086e+01    7.968624e-01
  2.978673e+01    8.034947e-01
  2.980261e+01    7.893549e-01
  2.981848e+01    7.944912e-01
  2.983436e+01    8.116657e-01
  2.985024e+01    8.069429e-01
  2.986611e+01    7.941687e-01
  2.988199e+01    8.097787e-01
  2.989786e+01    8.235062e-01
  2.991374e+01    7.823548e-01
  2.992961e+01    7.996203e-01
  2.994549e+01    8.183006e-01
  2.996136e+01    8.055672e-01
  2.997724e+01    8.052981e-01
  2.999312e+01    7.960097e-01
  3.000899e+01    8.164302e-01
  3.002487e+01    8.012953e-01
  3.004074e+01    8.144743e-01
  3.005662e+01    8.175999e-01
  3.007249e+01    8.252908e-01
  3.008837e+01    8.208401e-01
  3.010424e+01    8.080988e-01
  3.012012e+01    8.135808e-01
  3.013600e+01    7.875603e-01
  3.015187e+01    7.959722e-01
  3.016775e+01    8.065231e-01
  3.018362e+01    8.032781e-01
  3.019950e+01    7.935572e-01
  3.021537e+01    7.918611e-01
  3.023125e+01    7.809047e-01
  3.024712e+01    7.720364e-01
  3.026300e+01    7.650335e-01
  3.027888e+01    7.780282e-01
  3.029475e+01    7.867250e-01
  3.031063e+01    7.856982e-01
  3.032650e+01    7.850792e-01
  3.034238e+01    7.911232e-01
  3.035825e+01    7.935376e-01
  3.037413e+01    8.098817e-01
  3.039000e+01    8.167841e-01
  3.040588e+01    7.809092e-01
  3.042176e+01    7.731692e-01
  3.043763e+01    7.815546e-01
  3.045351e+01    8.008953e-01
  3.046938e+01    7.886984e-01
  3.048526e+01    7.907972e-01
  3.050113e+01    8.172787e-01
  3.051701e+01    7.862347e-01
  3.053288e+01    7.762949e-01
  3.054876e+01    7.729246e-01
  3.056464e+01    8.027268e-01
  3.058051e+01    7.865304e-01
  3.059639e+01    8.064753e-01
  3.061226e+01    7.911627e-01
  3.062814e+01    7.630942e-01
  3.064401e+01    7.780417e-01
  3.065989e+01    7.788938e-01
  3.067577e+01    7.864334e-01
  3.069164e+01    7.818533e-01
  3.070752e+01    7.899473e-01
  3.072339e+01    7.862765e-01
  3.073927e+01    7.808483e-01
  3.075514e+01    7.766616e-01
  3.077102e+01    7.916729e-01
  3.078689e+01    7.811200e-01
  3.080277e+01    7.877883e-01
  3.081865e+01    7.724218e-01
  3.083452e+01    7.833682e-01
  3.085040e+01    8.043596e-01
  3.086627e+01    7.860277e-01
  3.088215e+01    7.993880e-01
  3.089802e+01    7.979958e-01
  3.091390e+01    8.156715e-01
  3.092977e+01    7.880784e-01
  3.094565e+01    7.839497e-01
  3.096153e+01    7.829898e-01
  3.097740e+01    7.711132e-01
  3.099328e+01    7.654147e-01
  3.100915e+01    7.908565e-01
  3.102503e+01    7.858608e-01
  3.104090e+01    7.792618e-01
  3.105678e+01    7.631244e-01
  3.107265e+01    7.904806e-01
  3.108853e+01    7.853612e-01
  3.110441e+01    8.018337e-01
  3.112028e+01    7.898259e-01
  3.113616e+01    7.885295e-01
  3.115203e+01    8.091158e-01
  3.116791e+01    8.110360e-01
  3.118378e+01    8.006452e-01
  3.119966e+01    7.951014e-01
  3.121553e+01    8.014632e-01
  3.123141e+01    8.000957e-01
  3.124729e+01    7.882592e-01
  3.126316e+01    7.689583e-01
  3.127904e+01    7.877530e-01
  3.129491e+01    7.854456e-01
  3.131079e+01    7.972492e-01
  3.132666e+01    7.933720e-01
  3.134254e+01    8.172284e-01
  3.135841e+01    7.924320e-01
  3.137429e+01    7.944748e-01
  3.139017e+01    8.115411e-01
  3.140604e+01    8.151555e-01
  3.142192e+01    7.977948e-01
  3.143779e+01    8.003093e-01
  3.145367e+01    8.400165e-01
  3.146954e+01    8.202771e-01
  3.148542e+01    8.257699e-01
  3.150129e+01    8.387692e-01
  3.151717e+01    8.750991e-01
  3.153305e+01    8.417422e-01
  3.154892e+01    8.402297e-01
  3.156480e+01    8.551921e-01
  3.158067e+01    8.440735e-01
  3.159655e+01    8.441618e-01
  3.161242e+01    9.036947e-01
  3.162830e+01    9.124434e-01
  3.164418e+01    9.303356e-01
  3.166005e+01    9.570067e-01
  3.167593e+01    9.711460e-01
  3.169180e+01    9.844254e-01
  3.170768e+01    1.036695e+00
  3.172355e+01    1.080312e+00
  3.173943e+01    1.160290e+00
  3.175530e+01    1.203570e+00
  3.177118e+01    1.262942e+00
  3.178706e+01    1.351207e+00
  3.180293e+01    1.478468e+00
  3.181881e+01    1.605946e+00
  3.183468e+01    1.727351e+00
  3.185056e+01    1.845366e+00
  3.186643e+01    1.953953e+00
  3.188231e+01    2.067382e+00
  3.189818e+01    2.096831e+00
  3.191406e+01    2.095379e+00
  3.192994e+01    2.035033e+00
  3.194581e+01    1.937123e+00
  3.196169e+01    1.833133e+00
  3.197756e+01    1.712349e+00
  3.199344e+01    1.552387e+00
  3.200931e+01    1.424006e+00
  3.202519e+01    1.343072e+00
  3.204106e+01    1.245540e+00
  3.205694e+01    1.175687e+00
  3.207282e+01    1.088760e+00
  3.208869e+01    1.030260e+00
  3.210457e+01    1.002476e+00
  3.212044e+01    9.771505e-01
  3.213632e+01    9.412459e-01
  3.215219e+01    9.041855e-01
  3.216807e+01    9.096965e-01
  3.218394e+01    8.968237e-01
  3.219982e+01    8.915534e-01
  3.221570e+01    8.621427e-01
  3.223157e+01    8.399411e-01
  3.224745e+01    8.203770e-01
  3.226332e+01    8.473457e-01
  3.227920e+01    8.366114e-01
  3.229507e+01    8.228073e-01
  3.231095e+01    8.276425e-01
  3.232682e+01    8.218977e-01
  3.234270e+01    8.129554e-01
  3.235858e+01    7.872058e-01
  3.237445e+01    7.834418e-01
  3.239033e+01    7.672608e-01
  3.240620e+01    7.934849e-01
  3.242208e+01    7.814021e-01
  3.243795e+01    7.867860e-01
  3.245383e+01    7.815346e-01
  3.246970e+01    8.043922e-01
  3.248558e+01    7.795106e-01
  3.250146e+01    7.884787e-01
  3.251733e+01    7.875325e-01
  3.253321e+01    7.882501e-01
  3.254908e+01    7.827884e-01
