# == pyFAI calibration ==
# Distance Sample to Detector: 0.3999999939076516 m
# PONI: 9.750e-02, 1.135e-01 m
# Rotations: -0.000175 0.000000 -0.000000 rad
# 
# == Fit2d calibration ==
# Distance Sample-beamCenter: 400.000 mm
# Center: x=1514.000, y=1300.000 pix
# Tilt: 0.010 deg  TiltPlanRot: 0.010 deg
# 
# Detector Detector	 Spline= None	 PixelSize= 7.500e-05, 7.500e-05 m
#    Detector has a mask: False 
#    Detector has a dark current: False 
#    detector has a flat field: False 
# 
# Wavelength: 6.888e-11 m
# Mask applied: user provided
# Dark current applied: False
# Flat field applied: False
# Polarization factor: 0.99
# Normalization factor: 1.0
# --> /home/myspot/data/2024_07_Rosario/Ru-CGO-ex/2024-07-27_003_Ru-CGO-ex_Reaction_dwell_000023_data_000087.dat
#       q_nm^-1             I 
  2.003187e-02    7.712225e-02
  3.590745e-02    1.700988e-01
  5.178302e-02    2.394490e-01
  6.765859e-02    2.335190e-01
  8.353417e-02    1.286686e-01
  9.940974e-02    1.729683e-02
  1.152853e-01    6.282490e-02
  1.311609e-01    2.083509e-02
  1.470365e-01    2.606104e-02
  1.629120e-01    5.649346e-02
  1.787876e-01    1.245382e-01
  1.946632e-01    6.005338e-02
  2.105388e-01    5.145624e-02
  2.264143e-01    2.163929e-02
  2.422899e-01    2.193459e-02
  2.581655e-01    6.965452e-02
  2.740411e-01    9.831849e-02
  2.899166e-01    8.361088e-02
  3.057922e-01    5.451665e-02
  3.216678e-01    5.922507e-02
  3.375433e-01    4.596792e-02
  3.534189e-01    3.609525e-02
  3.692945e-01    1.555253e-02
  3.851701e-01    6.629484e-02
  4.010456e-01    3.312971e-02
  4.169212e-01    2.890881e-02
  4.327968e-01    3.951342e-02
  4.486724e-01    5.321054e-02
  4.645479e-01    2.789195e-02
  4.804235e-01    8.795605e-03
  4.962991e-01    2.897788e-03
  5.121747e-01    2.529819e-02
  5.280502e-01    6.908821e-02
  5.439258e-01    6.785201e-02
  5.598014e-01    9.235172e-02
  5.756770e-01    4.423986e-02
  5.915525e-01    2.806839e-02
  6.074281e-01    4.135786e-02
  6.233037e-01    4.807793e-02
  6.391793e-01    3.552022e-02
  6.550548e-01    4.404781e-02
  6.709304e-01    2.936779e-02
  6.868060e-01    5.190605e-02
  7.026815e-01    3.355200e-02
  7.185571e-01    3.124561e-02
  7.344327e-01    1.663041e-02
  7.503083e-01    3.343200e-02
  7.661838e-01    9.423041e-02
  7.820594e-01    1.154296e-01
  7.979350e-01    1.818977e-01
  8.138106e-01    2.045387e-01
  8.296861e-01    2.552868e-01
  8.455617e-01    3.469883e-01
  8.614373e-01    4.425099e-01
  8.773129e-01    4.894373e-01
  8.931884e-01    5.973929e-01
  9.090640e-01    6.885070e-01
  9.249396e-01    7.430464e-01
  9.408152e-01    8.456472e-01
  9.566907e-01    8.110712e-01
  9.725663e-01    8.373002e-01
  9.884419e-01    1.062259e+00
  1.004317e+00    1.132102e+00
  1.020193e+00    1.271672e+00
  1.036069e+00    1.374936e+00
  1.051944e+00    1.422708e+00
  1.067820e+00    1.473727e+00
  1.083695e+00    1.425395e+00
  1.099571e+00    1.417653e+00
  1.115446e+00    1.486001e+00
  1.131322e+00    1.577637e+00
  1.147198e+00    1.645265e+00
  1.163073e+00    1.650973e+00
  1.178949e+00    1.687943e+00
  1.194824e+00    1.853776e+00
  1.210700e+00    2.001073e+00
  1.226575e+00    2.210736e+00
  1.242451e+00    2.183722e+00
  1.258327e+00    2.417920e+00
  1.274202e+00    2.516037e+00
  1.290078e+00    2.629096e+00
  1.305953e+00    2.724307e+00
  1.321829e+00    2.776771e+00
  1.337705e+00    2.708941e+00
  1.353580e+00    2.809889e+00
  1.369456e+00    2.742015e+00
  1.385331e+00    2.813095e+00
  1.401207e+00    2.845815e+00
  1.417082e+00    2.834940e+00
  1.432958e+00    2.937407e+00
  1.448834e+00    2.998235e+00
  1.464709e+00    3.003641e+00
  1.480585e+00    3.126957e+00
  1.496460e+00    3.180302e+00
  1.512336e+00    3.182752e+00
  1.528211e+00    3.192118e+00
  1.544087e+00    3.165990e+00
  1.559963e+00    3.225239e+00
  1.575838e+00    3.179615e+00
  1.591714e+00    3.153375e+00
  1.607589e+00    3.241758e+00
  1.623465e+00    3.194206e+00
  1.639340e+00    3.097429e+00
  1.655216e+00    3.079517e+00
  1.671092e+00    3.209776e+00
  1.686967e+00    3.095976e+00
  1.702843e+00    3.075347e+00
  1.718718e+00    3.063362e+00
  1.734594e+00    3.127379e+00
  1.750469e+00    3.122057e+00
  1.766345e+00    3.158438e+00
  1.782221e+00    3.168511e+00
  1.798096e+00    3.227484e+00
  1.813972e+00    3.013173e+00
  1.829847e+00    3.123733e+00
  1.845723e+00    3.146196e+00
  1.861598e+00    3.083839e+00
  1.877474e+00    3.095186e+00
  1.893350e+00    2.929566e+00
  1.909225e+00    2.986706e+00
  1.925101e+00    3.029712e+00
  1.940976e+00    3.067473e+00
  1.956852e+00    3.040620e+00
  1.972727e+00    3.098731e+00
  1.988603e+00    3.135752e+00
  2.004479e+00    3.112147e+00
  2.020354e+00    3.001860e+00
  2.036230e+00    3.011009e+00
  2.052105e+00    3.126342e+00
  2.067981e+00    3.136343e+00
  2.083856e+00    3.131517e+00
  2.099732e+00    3.065251e+00
  2.115608e+00    3.172606e+00
  2.131483e+00    3.202176e+00
  2.147359e+00    3.140245e+00
  2.163234e+00    3.127652e+00
  2.179110e+00    3.119212e+00
  2.194985e+00    3.118583e+00
  2.210861e+00    3.221176e+00
  2.226737e+00    3.048241e+00
  2.242612e+00    3.077241e+00
  2.258488e+00    3.054969e+00
  2.274363e+00    3.100925e+00
  2.290239e+00    3.177939e+00
  2.306115e+00    3.171422e+00
  2.321990e+00    3.106890e+00
  2.337866e+00    3.087841e+00
  2.353741e+00    3.058571e+00
  2.369617e+00    3.075228e+00
  2.385492e+00    3.284376e+00
  2.401368e+00    3.235032e+00
  2.417244e+00    3.159828e+00
  2.433119e+00    3.062672e+00
  2.448995e+00    3.103320e+00
  2.464870e+00    3.173573e+00
  2.480746e+00    3.184340e+00
  2.496621e+00    3.189172e+00
  2.512497e+00    3.173168e+00
  2.528373e+00    3.208894e+00
  2.544248e+00    3.278944e+00
  2.560124e+00    3.219802e+00
  2.575999e+00    3.109776e+00
  2.591875e+00    3.136457e+00
  2.607750e+00    3.183973e+00
  2.623626e+00    3.261501e+00
  2.639502e+00    3.212602e+00
  2.655377e+00    3.262689e+00
  2.671253e+00    3.235409e+00
  2.687128e+00    3.211006e+00
  2.703004e+00    3.366120e+00
  2.718879e+00    3.326168e+00
  2.734755e+00    3.265001e+00
  2.750631e+00    3.274583e+00
  2.766506e+00    3.298199e+00
  2.782382e+00    3.262695e+00
  2.798257e+00    3.307409e+00
  2.814133e+00    3.235981e+00
  2.830008e+00    3.228386e+00
  2.845884e+00    3.248530e+00
  2.861760e+00    3.285472e+00
  2.877635e+00    3.218106e+00
  2.893511e+00    3.360487e+00
  2.909386e+00    3.367633e+00
  2.925262e+00    3.356531e+00
  2.941137e+00    3.405477e+00
  2.957013e+00    3.338817e+00
  2.972889e+00    3.354370e+00
  2.988764e+00    3.327680e+00
  3.004640e+00    3.302671e+00
  3.020515e+00    3.356244e+00
  3.036391e+00    3.354084e+00
  3.052266e+00    3.291673e+00
  3.068142e+00    3.348762e+00
  3.084018e+00    3.326768e+00
  3.099893e+00    3.344332e+00
  3.115769e+00    3.270855e+00
  3.131644e+00    3.214619e+00
  3.147520e+00    3.214806e+00
  3.163395e+00    3.207984e+00
  3.179271e+00    3.292890e+00
  3.195147e+00    3.360516e+00
  3.211022e+00    3.388791e+00
  3.226898e+00    3.341943e+00
  3.242773e+00    3.396532e+00
  3.258649e+00    3.372819e+00
  3.274525e+00    3.437510e+00
  3.290400e+00    3.472207e+00
  3.306276e+00    3.424713e+00
  3.322151e+00    3.460403e+00
  3.338027e+00    3.338219e+00
  3.353902e+00    3.369363e+00
  3.369778e+00    3.345886e+00
  3.385654e+00    3.434440e+00
  3.401529e+00    3.485141e+00
  3.417405e+00    3.436580e+00
  3.433280e+00    3.427006e+00
  3.449156e+00    3.420617e+00
  3.465031e+00    3.434110e+00
  3.480907e+00    3.451783e+00
  3.496783e+00    3.466352e+00
  3.512658e+00    3.442786e+00
  3.528534e+00    3.400387e+00
  3.544409e+00    3.393670e+00
  3.560285e+00    3.392831e+00
  3.576160e+00    3.433334e+00
  3.592036e+00    3.466560e+00
  3.607912e+00    3.416840e+00
  3.623787e+00    3.449288e+00
  3.639663e+00    3.438499e+00
  3.655538e+00    3.443596e+00
  3.671414e+00    3.556612e+00
  3.687289e+00    3.446116e+00
  3.703165e+00    3.465679e+00
  3.719041e+00    3.441677e+00
  3.734916e+00    3.448719e+00
  3.750792e+00    3.513119e+00
  3.766667e+00    3.390468e+00
  3.782543e+00    3.353640e+00
  3.798418e+00    3.441552e+00
  3.814294e+00    3.478181e+00
  3.830170e+00    3.503258e+00
  3.846045e+00    3.477853e+00
  3.861921e+00    3.594645e+00
  3.877796e+00    3.552873e+00
  3.893672e+00    3.542721e+00
  3.909547e+00    3.609705e+00
  3.925423e+00    3.520189e+00
  3.941299e+00    3.458250e+00
  3.957174e+00    3.552998e+00
  3.973050e+00    3.480932e+00
  3.988925e+00    3.582728e+00
  4.004801e+00    3.520250e+00
  4.020676e+00    3.537599e+00
  4.036552e+00    3.555978e+00
  4.052428e+00    3.542296e+00
  4.068303e+00    3.549425e+00
  4.084179e+00    3.585638e+00
  4.100054e+00    3.524144e+00
  4.115930e+00    3.514337e+00
  4.131806e+00    3.513343e+00
  4.147681e+00    3.533246e+00
  4.163557e+00    3.438440e+00
  4.179432e+00    3.559205e+00
  4.195308e+00    3.583131e+00
  4.211183e+00    3.509351e+00
  4.227059e+00    3.522713e+00
  4.242935e+00    3.609535e+00
  4.258810e+00    3.575173e+00
  4.274686e+00    3.544173e+00
  4.290561e+00    3.509795e+00
  4.306437e+00    3.492315e+00
  4.322312e+00    3.524197e+00
  4.338188e+00    3.560603e+00
  4.354064e+00    3.444881e+00
  4.369939e+00    3.481728e+00
  4.385815e+00    3.608838e+00
  4.401690e+00    3.642612e+00
  4.417566e+00    3.614787e+00
  4.433441e+00    3.518623e+00
  4.449317e+00    3.582036e+00
  4.465193e+00    3.680607e+00
  4.481068e+00    3.701645e+00
  4.496944e+00    3.609761e+00
  4.512819e+00    3.604344e+00
  4.528695e+00    3.673030e+00
  4.544570e+00    3.674005e+00
  4.560446e+00    3.666020e+00
  4.576322e+00    3.712931e+00
  4.592197e+00    3.638045e+00
  4.608073e+00    3.573375e+00
  4.623948e+00    3.578449e+00
  4.639824e+00    3.558457e+00
  4.655699e+00    3.644570e+00
  4.671575e+00    3.627781e+00
  4.687451e+00    3.647398e+00
  4.703326e+00    3.674665e+00
  4.719202e+00    3.671287e+00
  4.735077e+00    3.692621e+00
  4.750953e+00    3.631151e+00
  4.766828e+00    3.541833e+00
  4.782704e+00    3.536764e+00
  4.798580e+00    3.590165e+00
  4.814455e+00    3.723011e+00
  4.830331e+00    3.742318e+00
  4.846206e+00    3.625925e+00
  4.862082e+00    3.598187e+00
  4.877957e+00    3.605718e+00
  4.893833e+00    3.664689e+00
  4.909709e+00    3.697460e+00
  4.925584e+00    3.686596e+00
  4.941460e+00    3.612210e+00
  4.957335e+00    3.653242e+00
  4.973211e+00    3.673105e+00
  4.989086e+00    3.642876e+00
  5.004962e+00    3.640539e+00
  5.020838e+00    3.643785e+00
  5.036713e+00    3.658661e+00
  5.052589e+00    3.625127e+00
  5.068464e+00    3.665050e+00
  5.084340e+00    3.723609e+00
  5.100216e+00    3.737803e+00
  5.116091e+00    3.653667e+00
  5.131967e+00    3.688801e+00
  5.147842e+00    3.648879e+00
  5.163718e+00    3.670137e+00
  5.179593e+00    3.663499e+00
  5.195469e+00    3.628070e+00
  5.211345e+00    3.611605e+00
  5.227220e+00    3.656440e+00
  5.243096e+00    3.666433e+00
  5.258971e+00    3.676161e+00
  5.274847e+00    3.720645e+00
  5.290722e+00    3.731063e+00
  5.306598e+00    3.697383e+00
  5.322474e+00    3.624097e+00
  5.338349e+00    3.553647e+00
  5.354225e+00    3.692527e+00
  5.370100e+00    3.741840e+00
  5.385976e+00    3.631498e+00
  5.401851e+00    3.672460e+00
  5.417727e+00    3.581396e+00
  5.433603e+00    3.649556e+00
  5.449478e+00    3.619902e+00
  5.465354e+00    3.624722e+00
  5.481229e+00    3.668943e+00
  5.497105e+00    3.629687e+00
  5.512980e+00    3.586384e+00
  5.528856e+00    3.592286e+00
  5.544732e+00    3.536776e+00
  5.560607e+00    3.500634e+00
  5.576483e+00    3.546174e+00
  5.592358e+00    3.573257e+00
  5.608234e+00    3.595840e+00
  5.624109e+00    3.555866e+00
  5.639985e+00    3.575731e+00
  5.655861e+00    3.551350e+00
  5.671736e+00    3.483593e+00
  5.687612e+00    3.586044e+00
  5.703487e+00    3.620730e+00
  5.719363e+00    3.579311e+00
  5.735238e+00    3.545669e+00
  5.751114e+00    3.561126e+00
  5.766990e+00    3.682442e+00
  5.782865e+00    3.586373e+00
  5.798741e+00    3.490788e+00
  5.814616e+00    3.543103e+00
  5.830492e+00    3.483300e+00
  5.846367e+00    3.513056e+00
  5.862243e+00    3.540741e+00
  5.878119e+00    3.544762e+00
  5.893994e+00    3.617219e+00
  5.909870e+00    3.647589e+00
  5.925745e+00    3.603563e+00
  5.941621e+00    3.547104e+00
  5.957497e+00    3.541430e+00
  5.973372e+00    3.561524e+00
  5.989248e+00    3.605679e+00
  6.005123e+00    3.535246e+00
  6.020999e+00    3.455519e+00
  6.036874e+00    3.525951e+00
  6.052750e+00    3.591497e+00
  6.068626e+00    3.625806e+00
  6.084501e+00    3.671174e+00
  6.100377e+00    3.680384e+00
  6.116252e+00    3.552166e+00
  6.132128e+00    3.586696e+00
  6.148003e+00    3.587575e+00
  6.163879e+00    3.599016e+00
  6.179755e+00    3.536564e+00
  6.195630e+00    3.602773e+00
  6.211506e+00    3.700897e+00
  6.227381e+00    3.535710e+00
  6.243257e+00    3.524955e+00
  6.259132e+00    3.631518e+00
  6.275008e+00    3.652236e+00
  6.290884e+00    3.647048e+00
  6.306759e+00    3.587973e+00
  6.322635e+00    3.511255e+00
  6.338510e+00    3.495237e+00
  6.354386e+00    3.470383e+00
  6.370261e+00    3.513483e+00
  6.386137e+00    3.553517e+00
  6.402013e+00    3.533658e+00
  6.417888e+00    3.570503e+00
  6.433764e+00    3.601229e+00
  6.449639e+00    3.633196e+00
  6.465515e+00    3.635366e+00
  6.481390e+00    3.595180e+00
  6.497266e+00    3.587822e+00
  6.513142e+00    3.515966e+00
  6.529017e+00    3.560796e+00
  6.544893e+00    3.533635e+00
  6.560768e+00    3.541830e+00
  6.576644e+00    3.578315e+00
  6.592519e+00    3.605187e+00
  6.608395e+00    3.521068e+00
  6.624271e+00    3.577765e+00
  6.640146e+00    3.677175e+00
  6.656022e+00    3.652784e+00
  6.671897e+00    3.581661e+00
  6.687773e+00    3.588930e+00
  6.703648e+00    3.561947e+00
  6.719524e+00    3.559271e+00
  6.735400e+00    3.582129e+00
  6.751275e+00    3.516695e+00
  6.767151e+00    3.525236e+00
  6.783026e+00    3.596849e+00
  6.798902e+00    3.586092e+00
  6.814777e+00    3.615376e+00
  6.830653e+00    3.546831e+00
  6.846529e+00    3.546319e+00
  6.862404e+00    3.525047e+00
  6.878280e+00    3.518404e+00
  6.894155e+00    3.506517e+00
  6.910031e+00    3.535460e+00
  6.925907e+00    3.563423e+00
  6.941782e+00    3.577856e+00
  6.957658e+00    3.539886e+00
  6.973533e+00    3.574422e+00
  6.989409e+00    3.570404e+00
  7.005284e+00    3.549301e+00
  7.021160e+00    3.527216e+00
  7.037036e+00    3.595577e+00
  7.052911e+00    3.532052e+00
  7.068787e+00    3.523977e+00
  7.084662e+00    3.469799e+00
  7.100538e+00    3.558216e+00
  7.116413e+00    3.538085e+00
  7.132289e+00    3.489809e+00
  7.148165e+00    3.565681e+00
  7.164040e+00    3.578532e+00
  7.179916e+00    3.561620e+00
  7.195791e+00    3.513042e+00
  7.211667e+00    3.559535e+00
  7.227542e+00    3.522712e+00
  7.243418e+00    3.528651e+00
  7.259294e+00    3.604592e+00
  7.275169e+00    3.547514e+00
  7.291045e+00    3.532759e+00
  7.306920e+00    3.568816e+00
  7.322796e+00    3.451742e+00
  7.338671e+00    3.445714e+00
  7.354547e+00    3.470215e+00
  7.370423e+00    3.538412e+00
  7.386298e+00    3.551598e+00
  7.402174e+00    3.474071e+00
  7.418049e+00    3.533473e+00
  7.433925e+00    3.491725e+00
  7.449800e+00    3.458388e+00
  7.465676e+00    3.420700e+00
  7.481552e+00    3.453582e+00
  7.497427e+00    3.500044e+00
  7.513303e+00    3.476458e+00
  7.529178e+00    3.487560e+00
  7.545054e+00    3.528011e+00
  7.560929e+00    3.506616e+00
  7.576805e+00    3.444921e+00
  7.592681e+00    3.387484e+00
  7.608556e+00    3.398270e+00
  7.624432e+00    3.483712e+00
  7.640307e+00    3.481421e+00
  7.656183e+00    3.503526e+00
  7.672058e+00    3.541796e+00
  7.687934e+00    3.477081e+00
  7.703810e+00    3.410173e+00
  7.719685e+00    3.448782e+00
  7.735561e+00    3.474850e+00
  7.751436e+00    3.466052e+00
  7.767312e+00    3.434705e+00
  7.783187e+00    3.469788e+00
  7.799063e+00    3.431400e+00
  7.814939e+00    3.424281e+00
  7.830814e+00    3.444453e+00
  7.846690e+00    3.339422e+00
  7.862565e+00    3.391549e+00
  7.878441e+00    3.402391e+00
  7.894317e+00    3.416749e+00
  7.910192e+00    3.453706e+00
  7.926068e+00    3.442801e+00
  7.941943e+00    3.381772e+00
  7.957819e+00    3.387305e+00
  7.973694e+00    3.382622e+00
  7.989570e+00    3.411259e+00
  8.005446e+00    3.373701e+00
  8.021321e+00    3.442115e+00
  8.037197e+00    3.431514e+00
  8.053072e+00    3.444047e+00
  8.068948e+00    3.445757e+00
  8.084823e+00    3.457073e+00
  8.100699e+00    3.408162e+00
  8.116575e+00    3.459605e+00
  8.132450e+00    3.483588e+00
  8.148326e+00    3.502059e+00
  8.164201e+00    3.486928e+00
  8.180077e+00    3.442558e+00
  8.195952e+00    3.441862e+00
  8.211828e+00    3.484110e+00
  8.227704e+00    3.478926e+00
  8.243579e+00    3.434128e+00
  8.259455e+00    3.459716e+00
  8.275330e+00    3.535957e+00
  8.291206e+00    3.467497e+00
  8.307081e+00    3.482904e+00
  8.322957e+00    3.432932e+00
  8.338833e+00    3.347704e+00
  8.354708e+00    3.353713e+00
  8.370584e+00    3.403373e+00
  8.386459e+00    3.396440e+00
  8.402335e+00    3.417267e+00
  8.418210e+00    3.393389e+00
  8.434086e+00    3.390518e+00
  8.449962e+00    3.416877e+00
  8.465837e+00    3.350179e+00
  8.481713e+00    3.333690e+00
  8.497588e+00    3.380080e+00
  8.513464e+00    3.374800e+00
  8.529339e+00    3.421325e+00
  8.545215e+00    3.328373e+00
  8.561091e+00    3.379678e+00
  8.576966e+00    3.375285e+00
  8.592842e+00    3.410712e+00
  8.608717e+00    3.453285e+00
  8.624593e+00    3.410372e+00
  8.640468e+00    3.385303e+00
  8.656344e+00    3.343228e+00
  8.672220e+00    3.326248e+00
  8.688095e+00    3.282766e+00
  8.703971e+00    3.295945e+00
  8.719846e+00    3.323964e+00
  8.735722e+00    3.353629e+00
  8.751598e+00    3.393513e+00
  8.767473e+00    3.385292e+00
  8.783349e+00    3.366768e+00
  8.799224e+00    3.319739e+00
  8.815100e+00    3.325026e+00
  8.830975e+00    3.364436e+00
  8.846851e+00    3.332476e+00
  8.862727e+00    3.311078e+00
  8.878602e+00    3.250075e+00
  8.894478e+00    3.231909e+00
  8.910353e+00    3.273783e+00
  8.926229e+00    3.282268e+00
  8.942104e+00    3.320428e+00
  8.957980e+00    3.324908e+00
  8.973856e+00    3.287091e+00
  8.989731e+00    3.213226e+00
  9.005607e+00    3.222087e+00
  9.021482e+00    3.238202e+00
  9.037358e+00    3.241713e+00
  9.053233e+00    3.261044e+00
  9.069109e+00    3.309566e+00
  9.084985e+00    3.222110e+00
  9.100860e+00    3.295191e+00
  9.116736e+00    3.282917e+00
  9.132611e+00    3.281350e+00
  9.148487e+00    3.238367e+00
  9.164362e+00    3.278416e+00
  9.180238e+00    3.224141e+00
  9.196114e+00    3.234612e+00
  9.211989e+00    3.266801e+00
  9.227865e+00    3.335387e+00
  9.243740e+00    3.304875e+00
  9.259616e+00    3.215274e+00
  9.275491e+00    3.255602e+00
  9.291367e+00    3.310086e+00
  9.307243e+00    3.286814e+00
  9.323118e+00    3.278426e+00
  9.338994e+00    3.266813e+00
  9.354869e+00    3.249212e+00
  9.370745e+00    3.177936e+00
  9.386620e+00    3.191297e+00
  9.402496e+00    3.136984e+00
  9.418372e+00    3.204184e+00
  9.434247e+00    3.216949e+00
  9.450123e+00    3.207149e+00
  9.465998e+00    3.191079e+00
  9.481874e+00    3.199388e+00
  9.497749e+00    3.253391e+00
  9.513625e+00    3.232403e+00
  9.529501e+00    3.260487e+00
  9.545376e+00    3.239977e+00
  9.561252e+00    3.252550e+00
  9.577127e+00    3.174302e+00
  9.593003e+00    3.181997e+00
  9.608878e+00    3.199963e+00
  9.624754e+00    3.197743e+00
  9.640630e+00    3.252507e+00
  9.656505e+00    3.200010e+00
  9.672381e+00    3.216483e+00
  9.688256e+00    3.146896e+00
  9.704132e+00    3.097721e+00
  9.720008e+00    3.158439e+00
  9.735883e+00    3.209122e+00
  9.751759e+00    3.205293e+00
  9.767634e+00    3.139521e+00
  9.783510e+00    3.158245e+00
  9.799385e+00    3.172114e+00
  9.815261e+00    3.173630e+00
  9.831137e+00    3.122685e+00
  9.847012e+00    3.169646e+00
  9.862888e+00    3.140401e+00
  9.878763e+00    3.139951e+00
  9.894639e+00    3.105045e+00
  9.910514e+00    3.106818e+00
  9.926390e+00    3.130922e+00
  9.942266e+00    3.135831e+00
  9.958141e+00    3.114703e+00
  9.974017e+00    3.114872e+00
  9.989892e+00    3.129910e+00
  1.000577e+01    3.114761e+00
  1.002164e+01    3.114813e+00
  1.003752e+01    3.122784e+00
  1.005339e+01    3.128856e+00
  1.006927e+01    3.142904e+00
  1.008515e+01    3.098206e+00
  1.010102e+01    3.148815e+00
  1.011690e+01    3.126344e+00
  1.013277e+01    3.081201e+00
  1.014865e+01    3.060910e+00
  1.016452e+01    3.090106e+00
  1.018040e+01    3.106060e+00
  1.019627e+01    3.086664e+00
  1.021215e+01    3.066569e+00
  1.022803e+01    3.099491e+00
  1.024390e+01    3.063971e+00
  1.025978e+01    3.083252e+00
  1.027565e+01    3.144887e+00
  1.029153e+01    3.135306e+00
  1.030740e+01    3.047066e+00
  1.032328e+01    3.027435e+00
  1.033915e+01    3.018030e+00
  1.035503e+01    3.094966e+00
  1.037091e+01    3.096996e+00
  1.038678e+01    3.051429e+00
  1.040266e+01    3.082167e+00
  1.041853e+01    3.065891e+00
  1.043441e+01    3.035100e+00
  1.045028e+01    3.044411e+00
  1.046616e+01    3.045772e+00
  1.048204e+01    3.091292e+00
  1.049791e+01    3.033031e+00
  1.051379e+01    2.999018e+00
  1.052966e+01    3.013368e+00
  1.054554e+01    3.075065e+00
  1.056141e+01    3.044025e+00
  1.057729e+01    3.030924e+00
  1.059316e+01    3.025543e+00
  1.060904e+01    3.030770e+00
  1.062492e+01    3.000788e+00
  1.064079e+01    2.993561e+00
  1.065667e+01    3.003481e+00
  1.067254e+01    3.002929e+00
  1.068842e+01    3.016399e+00
  1.070429e+01    2.939078e+00
  1.072017e+01    2.973828e+00
  1.073604e+01    2.946253e+00
  1.075192e+01    2.956376e+00
  1.076780e+01    2.965387e+00
  1.078367e+01    2.983712e+00
  1.079955e+01    2.986210e+00
  1.081542e+01    2.991162e+00
  1.083130e+01    2.934949e+00
  1.084717e+01    2.932569e+00
  1.086305e+01    2.920141e+00
  1.087892e+01    2.897380e+00
  1.089480e+01    2.922549e+00
  1.091068e+01    2.974649e+00
  1.092655e+01    2.987625e+00
  1.094243e+01    2.921293e+00
  1.095830e+01    2.930256e+00
  1.097418e+01    2.924650e+00
  1.099005e+01    2.879245e+00
  1.100593e+01    2.913767e+00
  1.102180e+01    2.919219e+00
  1.103768e+01    2.869712e+00
  1.105356e+01    2.870173e+00
  1.106943e+01    2.859544e+00
  1.108531e+01    2.858726e+00
  1.110118e+01    2.956710e+00
  1.111706e+01    2.879232e+00
  1.113293e+01    2.864247e+00
  1.114881e+01    2.903616e+00
  1.116468e+01    2.875788e+00
  1.118056e+01    2.897902e+00
  1.119644e+01    2.873459e+00
  1.121231e+01    2.808559e+00
  1.122819e+01    2.868224e+00
  1.124406e+01    2.844000e+00
  1.125994e+01    2.857784e+00
  1.127581e+01    2.798025e+00
  1.129169e+01    2.859839e+00
  1.130756e+01    2.808110e+00
  1.132344e+01    2.852296e+00
  1.133932e+01    2.853534e+00
  1.135519e+01    2.860104e+00
  1.137107e+01    2.821805e+00
  1.138694e+01    2.837713e+00
  1.140282e+01    2.815785e+00
  1.141869e+01    2.782249e+00
  1.143457e+01    2.799848e+00
  1.145045e+01    2.818776e+00
  1.146632e+01    2.783044e+00
  1.148220e+01    2.797530e+00
  1.149807e+01    2.829017e+00
  1.151395e+01    2.810360e+00
  1.152982e+01    2.730361e+00
  1.154570e+01    2.740950e+00
  1.156157e+01    2.763003e+00
  1.157745e+01    2.774746e+00
  1.159333e+01    2.792352e+00
  1.160920e+01    2.788666e+00
  1.162508e+01    2.782598e+00
  1.164095e+01    2.790958e+00
  1.165683e+01    2.772814e+00
  1.167270e+01    2.768384e+00
  1.168858e+01    2.835627e+00
  1.170445e+01    2.834655e+00
  1.172033e+01    2.773127e+00
  1.173621e+01    2.741318e+00
  1.175208e+01    2.740963e+00
  1.176796e+01    2.724125e+00
  1.178383e+01    2.751686e+00
  1.179971e+01    2.725795e+00
  1.181558e+01    2.765546e+00
  1.183146e+01    2.750787e+00
  1.184733e+01    2.719282e+00
  1.186321e+01    2.729709e+00
  1.187909e+01    2.746308e+00
  1.189496e+01    2.760232e+00
  1.191084e+01    2.733000e+00
  1.192671e+01    2.728318e+00
  1.194259e+01    2.707598e+00
  1.195846e+01    2.651780e+00
  1.197434e+01    2.622897e+00
  1.199021e+01    2.671645e+00
  1.200609e+01    2.745839e+00
  1.202197e+01    2.695474e+00
  1.203784e+01    2.694682e+00
  1.205372e+01    2.691735e+00
  1.206959e+01    2.700702e+00
  1.208547e+01    2.751695e+00
  1.210134e+01    2.734543e+00
  1.211722e+01    2.714480e+00
  1.213309e+01    2.692930e+00
  1.214897e+01    2.691605e+00
  1.216485e+01    2.686265e+00
  1.218072e+01    2.690194e+00
  1.219660e+01    2.700396e+00
  1.221247e+01    2.731426e+00
  1.222835e+01    2.752500e+00
  1.224422e+01    2.676131e+00
  1.226010e+01    2.650356e+00
  1.227597e+01    2.679976e+00
  1.229185e+01    2.701375e+00
  1.230773e+01    2.678651e+00
  1.232360e+01    2.648996e+00
  1.233948e+01    2.693725e+00
  1.235535e+01    2.718220e+00
  1.237123e+01    2.695700e+00
  1.238710e+01    2.685472e+00
  1.240298e+01    2.672584e+00
  1.241886e+01    2.719267e+00
  1.243473e+01    2.728011e+00
  1.245061e+01    2.694997e+00
  1.246648e+01    2.694913e+00
  1.248236e+01    2.669113e+00
  1.249823e+01    2.706307e+00
  1.251411e+01    2.689463e+00
  1.252998e+01    2.712714e+00
  1.254586e+01    2.755343e+00
  1.256174e+01    2.702577e+00
  1.257761e+01    2.736897e+00
  1.259349e+01    2.759781e+00
  1.260936e+01    2.774874e+00
  1.262524e+01    2.768041e+00
  1.264111e+01    2.776323e+00
  1.265699e+01    2.771902e+00
  1.267286e+01    2.802243e+00
  1.268874e+01    2.811899e+00
  1.270462e+01    2.817645e+00
  1.272049e+01    2.880197e+00
  1.273637e+01    2.905344e+00
  1.275224e+01    2.932224e+00
  1.276812e+01    2.953784e+00
  1.278399e+01    2.937800e+00
  1.279987e+01    3.016402e+00
  1.281574e+01    3.064677e+00
  1.283162e+01    3.060016e+00
  1.284750e+01    3.145571e+00
  1.286337e+01    3.255348e+00
  1.287925e+01    3.367625e+00
  1.289512e+01    3.540021e+00
  1.291100e+01    3.687055e+00
  1.292687e+01    3.873496e+00
  1.294275e+01    4.167272e+00
  1.295862e+01    4.492357e+00
  1.297450e+01    4.875348e+00
  1.299038e+01    5.305903e+00
  1.300625e+01    5.976298e+00
  1.302213e+01    6.797472e+00
  1.303800e+01    7.790180e+00
  1.305388e+01    8.953303e+00
  1.306975e+01    1.020936e+01
  1.308563e+01    1.163001e+01
  1.310150e+01    1.279734e+01
  1.311738e+01    1.392915e+01
  1.313326e+01    1.500557e+01
  1.314913e+01    1.592709e+01
  1.316501e+01    1.646839e+01
  1.318088e+01    1.648391e+01
  1.319676e+01    1.576615e+01
  1.321263e+01    1.439400e+01
  1.322851e+01    1.253916e+01
  1.324438e+01    1.070410e+01
  1.326026e+01    9.029944e+00
  1.327614e+01    7.816807e+00
  1.329201e+01    6.793364e+00
  1.330789e+01    6.016017e+00
  1.332376e+01    5.282752e+00
  1.333964e+01    4.855950e+00
  1.335551e+01    4.423867e+00
  1.337139e+01    4.084524e+00
  1.338727e+01    3.856940e+00
  1.340314e+01    3.617803e+00
  1.341902e+01    3.443667e+00
  1.343489e+01    3.338664e+00
  1.345077e+01    3.217913e+00
  1.346664e+01    3.139514e+00
  1.348252e+01    3.011963e+00
  1.349839e+01    2.947697e+00
  1.351427e+01    2.926766e+00
  1.353015e+01    2.862352e+00
  1.354602e+01    2.811897e+00
  1.356190e+01    2.786018e+00
  1.357777e+01    2.755303e+00
  1.359365e+01    2.759776e+00
  1.360952e+01    2.689013e+00
  1.362540e+01    2.678970e+00
  1.364127e+01    2.661628e+00
  1.365715e+01    2.575138e+00
  1.367303e+01    2.602905e+00
  1.368890e+01    2.607674e+00
  1.370478e+01    2.561831e+00
  1.372065e+01    2.520539e+00
  1.373653e+01    2.542696e+00
  1.375240e+01    2.510141e+00
  1.376828e+01    2.498955e+00
  1.378415e+01    2.522020e+00
  1.380003e+01    2.437479e+00
  1.381591e+01    2.431294e+00
  1.383178e+01    2.435781e+00
  1.384766e+01    2.468508e+00
  1.386353e+01    2.462887e+00
  1.387941e+01    2.414506e+00
  1.389528e+01    2.407058e+00
  1.391116e+01    2.428766e+00
  1.392703e+01    2.456330e+00
  1.394291e+01    2.409131e+00
  1.395879e+01    2.404505e+00
  1.397466e+01    2.410395e+00
  1.399054e+01    2.391349e+00
  1.400641e+01    2.366979e+00
  1.402229e+01    2.356537e+00
  1.403816e+01    2.341498e+00
  1.405404e+01    2.347390e+00
  1.406991e+01    2.359661e+00
  1.408579e+01    2.344951e+00
  1.410167e+01    2.363174e+00
  1.411754e+01    2.324131e+00
  1.413342e+01    2.268809e+00
  1.414929e+01    2.300532e+00
  1.416517e+01    2.314144e+00
  1.418104e+01    2.316774e+00
  1.419692e+01    2.317974e+00
  1.421279e+01    2.304506e+00
  1.422867e+01    2.263936e+00
  1.424455e+01    2.271770e+00
  1.426042e+01    2.254437e+00
  1.427630e+01    2.244958e+00
  1.429217e+01    2.297656e+00
  1.430805e+01    2.283048e+00
  1.432392e+01    2.294868e+00
  1.433980e+01    2.285806e+00
  1.435568e+01    2.288260e+00
  1.437155e+01    2.224008e+00
  1.438743e+01    2.257560e+00
  1.440330e+01    2.257265e+00
  1.441918e+01    2.248304e+00
  1.443505e+01    2.248760e+00
  1.445093e+01    2.238025e+00
  1.446680e+01    2.220632e+00
  1.448268e+01    2.226464e+00
  1.449856e+01    2.258323e+00
  1.451443e+01    2.259278e+00
  1.453031e+01    2.193786e+00
  1.454618e+01    2.191828e+00
  1.456206e+01    2.219910e+00
  1.457793e+01    2.220424e+00
  1.459381e+01    2.216882e+00
  1.460968e+01    2.172682e+00
  1.462556e+01    2.210998e+00
  1.464144e+01    2.224189e+00
  1.465731e+01    2.217950e+00
  1.467319e+01    2.211964e+00
  1.468906e+01    2.172418e+00
  1.470494e+01    2.171796e+00
  1.472081e+01    2.201755e+00
  1.473669e+01    2.223439e+00
  1.475256e+01    2.185126e+00
  1.476844e+01    2.209572e+00
  1.478432e+01    2.184505e+00
  1.480019e+01    2.200654e+00
  1.481607e+01    2.206661e+00
  1.483194e+01    2.174338e+00
  1.484782e+01    2.221219e+00
  1.486369e+01    2.231654e+00
  1.487957e+01    2.173006e+00
  1.489544e+01    2.207375e+00
  1.491132e+01    2.270665e+00
  1.492720e+01    2.246389e+00
  1.494307e+01    2.295723e+00
  1.495895e+01    2.359515e+00
  1.497482e+01    2.401602e+00
  1.499070e+01    2.359066e+00
  1.500657e+01    2.473477e+00
  1.502245e+01    2.535680e+00
  1.503832e+01    2.598627e+00
  1.505420e+01    2.713023e+00
  1.507008e+01    2.820506e+00
  1.508595e+01    3.004976e+00
  1.510183e+01    3.272884e+00
  1.511770e+01    3.547730e+00
  1.513358e+01    3.816068e+00
  1.514945e+01    4.227315e+00
  1.516533e+01    4.582196e+00
  1.518120e+01    4.901595e+00
  1.519708e+01    5.240287e+00
  1.521296e+01    5.505042e+00
  1.522883e+01    5.684436e+00
  1.524471e+01    5.808624e+00
  1.526058e+01    5.868145e+00
  1.527646e+01    5.750443e+00
  1.529233e+01    5.533861e+00
  1.530821e+01    5.214901e+00
  1.532409e+01    4.687037e+00
  1.533996e+01    4.175612e+00
  1.535584e+01    3.756554e+00
  1.537171e+01    3.452291e+00
  1.538759e+01    3.178670e+00
  1.540346e+01    2.971131e+00
  1.541934e+01    2.770595e+00
  1.543521e+01    2.670816e+00
  1.545109e+01    2.534945e+00
  1.546697e+01    2.462586e+00
  1.548284e+01    2.372233e+00
  1.549872e+01    2.303812e+00
  1.551459e+01    2.290877e+00
  1.553047e+01    2.222825e+00
  1.554634e+01    2.185338e+00
  1.556222e+01    2.131547e+00
  1.557809e+01    2.125523e+00
  1.559397e+01    2.142525e+00
  1.560985e+01    2.084000e+00
  1.562572e+01    2.023637e+00
  1.564160e+01    2.036170e+00
  1.565747e+01    2.038141e+00
  1.567335e+01    2.037139e+00
  1.568922e+01    2.015604e+00
  1.570510e+01    2.012128e+00
  1.572097e+01    2.016830e+00
  1.573685e+01    2.024809e+00
  1.575273e+01    2.021697e+00
  1.576860e+01    2.000590e+00
  1.578448e+01    1.966034e+00
  1.580035e+01    1.918844e+00
  1.581623e+01    1.953274e+00
  1.583210e+01    1.919971e+00
  1.584798e+01    1.909473e+00
  1.586385e+01    1.902769e+00
  1.587973e+01    1.910037e+00
  1.589561e+01    1.910976e+00
  1.591148e+01    1.885794e+00
  1.592736e+01    1.901922e+00
  1.594323e+01    1.880841e+00
  1.595911e+01    1.865011e+00
  1.597498e+01    1.913613e+00
  1.599086e+01    1.922441e+00
  1.600673e+01    1.898643e+00
  1.602261e+01    1.879114e+00
  1.603849e+01    1.901439e+00
  1.605436e+01    1.903370e+00
  1.607024e+01    1.870059e+00
  1.608611e+01    1.815105e+00
  1.610199e+01    1.839948e+00
  1.611786e+01    1.842576e+00
  1.613374e+01    1.835161e+00
  1.614961e+01    1.815888e+00
  1.616549e+01    1.801551e+00
  1.618137e+01    1.818231e+00
  1.619724e+01    1.813115e+00
  1.621312e+01    1.830194e+00
  1.622899e+01    1.819723e+00
  1.624487e+01    1.807072e+00
  1.626074e+01    1.807181e+00
  1.627662e+01    1.789475e+00
  1.629250e+01    1.814928e+00
  1.630837e+01    1.808620e+00
  1.632425e+01    1.785404e+00
  1.634012e+01    1.794137e+00
  1.635600e+01    1.784296e+00
  1.637187e+01    1.808357e+00
  1.638775e+01    1.829399e+00
  1.640362e+01    1.798483e+00
  1.641950e+01    1.745453e+00
  1.643538e+01    1.781216e+00
  1.645125e+01    1.777025e+00
  1.646713e+01    1.801694e+00
  1.648300e+01    1.760390e+00
  1.649888e+01    1.770889e+00
  1.651475e+01    1.785414e+00
  1.653063e+01    1.762287e+00
  1.654650e+01    1.758632e+00
  1.656238e+01    1.754494e+00
  1.657826e+01    1.753007e+00
  1.659413e+01    1.717004e+00
  1.661001e+01    1.705655e+00
  1.662588e+01    1.721841e+00
  1.664176e+01    1.754615e+00
  1.665763e+01    1.780427e+00
  1.667351e+01    1.728982e+00
  1.668938e+01    1.696000e+00
  1.670526e+01    1.707818e+00
  1.672114e+01    1.708837e+00
  1.673701e+01    1.726658e+00
  1.675289e+01    1.694701e+00
  1.676876e+01    1.688055e+00
  1.678464e+01    1.717715e+00
  1.680051e+01    1.696819e+00
  1.681639e+01    1.667928e+00
  1.683226e+01    1.695813e+00
  1.684814e+01    1.718360e+00
  1.686402e+01    1.677733e+00
  1.687989e+01    1.655419e+00
  1.689577e+01    1.691771e+00
  1.691164e+01    1.682813e+00
  1.692752e+01    1.661125e+00
  1.694339e+01    1.677300e+00
  1.695927e+01    1.679367e+00
  1.697514e+01    1.685178e+00
  1.699102e+01    1.689388e+00
  1.700690e+01    1.660660e+00
  1.702277e+01    1.658027e+00
  1.703865e+01    1.670104e+00
  1.705452e+01    1.647761e+00
  1.707040e+01    1.681305e+00
  1.708627e+01    1.647024e+00
  1.710215e+01    1.638488e+00
  1.711802e+01    1.643837e+00
  1.713390e+01    1.633762e+00
  1.714978e+01    1.636009e+00
  1.716565e+01    1.629476e+00
  1.718153e+01    1.633479e+00
  1.719740e+01    1.631092e+00
  1.721328e+01    1.615150e+00
  1.722915e+01    1.598130e+00
  1.724503e+01    1.614995e+00
  1.726091e+01    1.605010e+00
  1.727678e+01    1.632476e+00
  1.729266e+01    1.624447e+00
  1.730853e+01    1.622931e+00
  1.732441e+01    1.620596e+00
  1.734028e+01    1.626112e+00
  1.735616e+01    1.645601e+00
  1.737203e+01    1.611615e+00
  1.738791e+01    1.570354e+00
  1.740379e+01    1.607142e+00
  1.741966e+01    1.606974e+00
  1.743554e+01    1.608968e+00
  1.745141e+01    1.603459e+00
  1.746729e+01    1.575314e+00
  1.748316e+01    1.618846e+00
  1.749904e+01    1.589610e+00
  1.751491e+01    1.589875e+00
  1.753079e+01    1.578584e+00
  1.754667e+01    1.600939e+00
  1.756254e+01    1.620522e+00
  1.757842e+01    1.591978e+00
  1.759429e+01    1.563013e+00
  1.761017e+01    1.588889e+00
  1.762604e+01    1.599129e+00
  1.764192e+01    1.588399e+00
  1.765779e+01    1.568797e+00
  1.767367e+01    1.559238e+00
  1.768955e+01    1.535043e+00
  1.770542e+01    1.537737e+00
  1.772130e+01    1.566214e+00
  1.773717e+01    1.584672e+00
  1.775305e+01    1.567585e+00
  1.776892e+01    1.533030e+00
  1.778480e+01    1.541354e+00
  1.780067e+01    1.554018e+00
  1.781655e+01    1.570018e+00
  1.783243e+01    1.555457e+00
  1.784830e+01    1.569288e+00
  1.786418e+01    1.568713e+00
  1.788005e+01    1.526495e+00
  1.789593e+01    1.534646e+00
  1.791180e+01    1.531923e+00
  1.792768e+01    1.515946e+00
  1.794355e+01    1.514516e+00
  1.795943e+01    1.533688e+00
  1.797531e+01    1.547894e+00
  1.799118e+01    1.530333e+00
  1.800706e+01    1.538782e+00
  1.802293e+01    1.510462e+00
  1.803881e+01    1.518057e+00
  1.805468e+01    1.508574e+00
  1.807056e+01    1.505092e+00
  1.808643e+01    1.506004e+00
  1.810231e+01    1.505347e+00
  1.811819e+01    1.504603e+00
  1.813406e+01    1.505908e+00
  1.814994e+01    1.486990e+00
  1.816581e+01    1.488100e+00
  1.818169e+01    1.486933e+00
  1.819756e+01    1.476539e+00
  1.821344e+01    1.459679e+00
  1.822932e+01    1.469185e+00
  1.824519e+01    1.478937e+00
  1.826107e+01    1.492265e+00
  1.827694e+01    1.450833e+00
  1.829282e+01    1.454660e+00
  1.830869e+01    1.446186e+00
  1.832457e+01    1.459316e+00
  1.834044e+01    1.449996e+00
  1.835632e+01    1.481257e+00
  1.837220e+01    1.490533e+00
  1.838807e+01    1.463250e+00
  1.840395e+01    1.443159e+00
  1.841982e+01    1.450005e+00
  1.843570e+01    1.481138e+00
  1.845157e+01    1.476242e+00
  1.846745e+01    1.428388e+00
  1.848332e+01    1.451194e+00
  1.849920e+01    1.439687e+00
  1.851508e+01    1.443970e+00
  1.853095e+01    1.457874e+00
  1.854683e+01    1.471605e+00
  1.856270e+01    1.442750e+00
  1.857858e+01    1.439829e+00
  1.859445e+01    1.433977e+00
  1.861033e+01    1.420623e+00
  1.862620e+01    1.425238e+00
  1.864208e+01    1.441514e+00
  1.865796e+01    1.450128e+00
  1.867383e+01    1.433661e+00
  1.868971e+01    1.403206e+00
  1.870558e+01    1.423511e+00
  1.872146e+01    1.404284e+00
  1.873733e+01    1.395439e+00
  1.875321e+01    1.423609e+00
  1.876908e+01    1.406493e+00
  1.878496e+01    1.398598e+00
  1.880084e+01    1.392421e+00
  1.881671e+01    1.404376e+00
  1.883259e+01    1.398174e+00
  1.884846e+01    1.421494e+00
  1.886434e+01    1.368626e+00
  1.888021e+01    1.405243e+00
  1.889609e+01    1.391173e+00
  1.891196e+01    1.372875e+00
  1.892784e+01    1.407163e+00
  1.894372e+01    1.400299e+00
  1.895959e+01    1.382662e+00
  1.897547e+01    1.373354e+00
  1.899134e+01    1.382282e+00
  1.900722e+01    1.387070e+00
  1.902309e+01    1.362223e+00
  1.903897e+01    1.386918e+00
  1.905484e+01    1.391710e+00
  1.907072e+01    1.401904e+00
  1.908660e+01    1.410734e+00
  1.910247e+01    1.419780e+00
  1.911835e+01    1.391137e+00
  1.913422e+01    1.376132e+00
  1.915010e+01    1.375999e+00
  1.916597e+01    1.362933e+00
  1.918185e+01    1.343291e+00
  1.919773e+01    1.330564e+00
  1.921360e+01    1.371783e+00
  1.922948e+01    1.395058e+00
  1.924535e+01    1.361921e+00
  1.926123e+01    1.359586e+00
  1.927710e+01    1.366091e+00
  1.929298e+01    1.361733e+00
  1.930885e+01    1.358963e+00
  1.932473e+01    1.361423e+00
  1.934061e+01    1.374942e+00
  1.935648e+01    1.351618e+00
  1.937236e+01    1.305477e+00
  1.938823e+01    1.309309e+00
  1.940411e+01    1.322269e+00
  1.941998e+01    1.311054e+00
  1.943586e+01    1.329863e+00
  1.945173e+01    1.338509e+00
  1.946761e+01    1.325550e+00
  1.948349e+01    1.334013e+00
  1.949936e+01    1.343485e+00
  1.951524e+01    1.329778e+00
  1.953111e+01    1.358994e+00
  1.954699e+01    1.311316e+00
  1.956286e+01    1.296804e+00
  1.957874e+01    1.336185e+00
  1.959461e+01    1.344586e+00
  1.961049e+01    1.341661e+00
  1.962637e+01    1.339481e+00
  1.964224e+01    1.332998e+00
  1.965812e+01    1.310845e+00
  1.967399e+01    1.304886e+00
  1.968987e+01    1.310604e+00
  1.970574e+01    1.300414e+00
  1.972162e+01    1.336049e+00
  1.973749e+01    1.331549e+00
  1.975337e+01    1.339126e+00
  1.976925e+01    1.306728e+00
  1.978512e+01    1.319626e+00
  1.980100e+01    1.323043e+00
  1.981687e+01    1.313881e+00
  1.983275e+01    1.290365e+00
  1.984862e+01    1.312081e+00
  1.986450e+01    1.299273e+00
  1.988037e+01    1.299128e+00
  1.989625e+01    1.312759e+00
  1.991213e+01    1.283886e+00
  1.992800e+01    1.303300e+00
  1.994388e+01    1.318165e+00
  1.995975e+01    1.311141e+00
  1.997563e+01    1.304020e+00
  1.999150e+01    1.301925e+00
  2.000738e+01    1.257369e+00
  2.002325e+01    1.265605e+00
  2.003913e+01    1.268111e+00
  2.005501e+01    1.271896e+00
  2.007088e+01    1.276400e+00
  2.008676e+01    1.263495e+00
  2.010263e+01    1.271544e+00
  2.011851e+01    1.295921e+00
  2.013438e+01    1.273136e+00
  2.015026e+01    1.278475e+00
  2.016614e+01    1.259304e+00
  2.018201e+01    1.281814e+00
  2.019789e+01    1.293442e+00
  2.021376e+01    1.255654e+00
  2.022964e+01    1.256378e+00
  2.024551e+01    1.246468e+00
  2.026139e+01    1.264416e+00
  2.027726e+01    1.291230e+00
  2.029314e+01    1.299330e+00
  2.030902e+01    1.284947e+00
  2.032489e+01    1.305956e+00
  2.034077e+01    1.282798e+00
  2.035664e+01    1.246279e+00
  2.037252e+01    1.243601e+00
  2.038839e+01    1.257896e+00
  2.040427e+01    1.247503e+00
  2.042014e+01    1.249878e+00
  2.043602e+01    1.251766e+00
  2.045190e+01    1.229128e+00
  2.046777e+01    1.253861e+00
  2.048365e+01    1.250697e+00
  2.049952e+01    1.276706e+00
  2.051540e+01    1.260889e+00
  2.053127e+01    1.234206e+00
  2.054715e+01    1.238838e+00
  2.056302e+01    1.250822e+00
  2.057890e+01    1.256014e+00
  2.059478e+01    1.256505e+00
  2.061065e+01    1.257727e+00
  2.062653e+01    1.263156e+00
  2.064240e+01    1.244414e+00
  2.065828e+01    1.210783e+00
  2.067415e+01    1.198470e+00
  2.069003e+01    1.214638e+00
  2.070590e+01    1.249209e+00
  2.072178e+01    1.265838e+00
  2.073766e+01    1.246954e+00
  2.075353e+01    1.241832e+00
  2.076941e+01    1.215158e+00
  2.078528e+01    1.188273e+00
  2.080116e+01    1.197010e+00
  2.081703e+01    1.251255e+00
  2.083291e+01    1.240602e+00
  2.084878e+01    1.243360e+00
  2.086466e+01    1.211927e+00
  2.088054e+01    1.209935e+00
  2.089641e+01    1.233292e+00
  2.091229e+01    1.239447e+00
  2.092816e+01    1.225981e+00
  2.094404e+01    1.225902e+00
  2.095991e+01    1.234468e+00
  2.097579e+01    1.233745e+00
  2.099166e+01    1.222175e+00
  2.100754e+01    1.224151e+00
  2.102342e+01    1.239410e+00
  2.103929e+01    1.211582e+00
  2.105517e+01    1.207455e+00
  2.107104e+01    1.217106e+00
  2.108692e+01    1.209437e+00
  2.110279e+01    1.230693e+00
  2.111867e+01    1.245303e+00
  2.113455e+01    1.238049e+00
  2.115042e+01    1.229982e+00
  2.116630e+01    1.226059e+00
  2.118217e+01    1.243404e+00
  2.119805e+01    1.229396e+00
  2.121392e+01    1.219589e+00
  2.122980e+01    1.243450e+00
  2.124567e+01    1.235835e+00
  2.126155e+01    1.260420e+00
  2.127743e+01    1.267762e+00
  2.129330e+01    1.233846e+00
  2.130918e+01    1.266003e+00
  2.132505e+01    1.262171e+00
  2.134093e+01    1.272148e+00
  2.135680e+01    1.278919e+00
  2.137268e+01    1.288932e+00
  2.138855e+01    1.312302e+00
  2.140443e+01    1.325073e+00
  2.142031e+01    1.332957e+00
  2.143618e+01    1.345866e+00
  2.145206e+01    1.355471e+00
  2.146793e+01    1.384032e+00
  2.148381e+01    1.422764e+00
  2.149968e+01    1.411230e+00
  2.151556e+01    1.446660e+00
  2.153143e+01    1.502450e+00
  2.154731e+01    1.546990e+00
  2.156319e+01    1.573408e+00
  2.157906e+01    1.645000e+00
  2.159494e+01    1.692220e+00
  2.161081e+01    1.756433e+00
  2.162669e+01    1.867769e+00
  2.164256e+01    1.983606e+00
  2.165844e+01    2.153173e+00
  2.167431e+01    2.337482e+00
  2.169019e+01    2.568375e+00
  2.170607e+01    2.858748e+00
  2.172194e+01    3.174771e+00
  2.173782e+01    3.612476e+00
  2.175369e+01    4.056758e+00
  2.176957e+01    4.593129e+00
  2.178544e+01    5.312311e+00
  2.180132e+01    5.974241e+00
  2.181719e+01    6.631779e+00
  2.183307e+01    7.249977e+00
  2.184895e+01    7.842449e+00
  2.186482e+01    8.449904e+00
  2.188070e+01    8.805390e+00
  2.189657e+01    8.920950e+00
  2.191245e+01    8.745335e+00
  2.192832e+01    8.225186e+00
  2.194420e+01    7.474314e+00
  2.196007e+01    6.578154e+00
  2.197595e+01    5.623467e+00
  2.199183e+01    4.788001e+00
  2.200770e+01    4.148926e+00
  2.202358e+01    3.603981e+00
  2.203945e+01    3.186050e+00
  2.205533e+01    2.794031e+00
  2.207120e+01    2.548532e+00
  2.208708e+01    2.333523e+00
  2.210296e+01    2.134963e+00
  2.211883e+01    1.987998e+00
  2.213471e+01    1.873297e+00
  2.215058e+01    1.782441e+00
  2.216646e+01    1.698338e+00
  2.218233e+01    1.625294e+00
  2.219821e+01    1.562081e+00
  2.221408e+01    1.521964e+00
  2.222996e+01    1.461044e+00
  2.224584e+01    1.435904e+00
  2.226171e+01    1.394875e+00
  2.227759e+01    1.335760e+00
  2.229346e+01    1.320643e+00
  2.230934e+01    1.311220e+00
  2.232521e+01    1.293457e+00
  2.234109e+01    1.269433e+00
  2.235696e+01    1.256877e+00
  2.237284e+01    1.243732e+00
  2.238872e+01    1.223945e+00
  2.240459e+01    1.223863e+00
  2.242047e+01    1.207765e+00
  2.243634e+01    1.169376e+00
  2.245222e+01    1.155887e+00
  2.246809e+01    1.155910e+00
  2.248397e+01    1.178287e+00
  2.249984e+01    1.137279e+00
  2.251572e+01    1.124648e+00
  2.253160e+01    1.135586e+00
  2.254747e+01    1.138364e+00
  2.256335e+01    1.120811e+00
  2.257922e+01    1.131769e+00
  2.259510e+01    1.113863e+00
  2.261097e+01    1.087736e+00
  2.262685e+01    1.099094e+00
  2.264272e+01    1.103903e+00
  2.265860e+01    1.097423e+00
  2.267448e+01    1.082481e+00
  2.269035e+01    1.087619e+00
  2.270623e+01    1.100577e+00
  2.272210e+01    1.088213e+00
  2.273798e+01    1.072169e+00
  2.275385e+01    1.087351e+00
  2.276973e+01    1.074427e+00
  2.278560e+01    1.065360e+00
  2.280148e+01    1.066892e+00
  2.281736e+01    1.078297e+00
  2.283323e+01    1.062043e+00
  2.284911e+01    1.063353e+00
  2.286498e+01    1.057722e+00
  2.288086e+01    1.053989e+00
  2.289673e+01    1.031110e+00
  2.291261e+01    1.029372e+00
  2.292848e+01    1.038928e+00
  2.294436e+01    1.041164e+00
  2.296024e+01    1.047386e+00
  2.297611e+01    1.051710e+00
  2.299199e+01    1.015340e+00
  2.300786e+01    1.005221e+00
  2.302374e+01    1.000752e+00
  2.303961e+01    1.003511e+00
  2.305549e+01    1.022064e+00
  2.307137e+01    1.017000e+00
  2.308724e+01    1.009769e+00
  2.310312e+01    9.857004e-01
  2.311899e+01    9.942037e-01
  2.313487e+01    9.799531e-01
  2.315074e+01    1.001205e+00
  2.316662e+01    9.930209e-01
  2.318249e+01    9.934979e-01
  2.319837e+01    1.003555e+00
  2.321425e+01    1.010103e+00
  2.323012e+01    9.979300e-01
  2.324600e+01    9.943595e-01
  2.326187e+01    9.793102e-01
  2.327775e+01    9.767314e-01
  2.329362e+01    9.746998e-01
  2.330950e+01    9.944631e-01
  2.332537e+01    9.773982e-01
  2.334125e+01    9.906206e-01
  2.335713e+01    9.905413e-01
  2.337300e+01    9.650371e-01
  2.338888e+01    9.574448e-01
  2.340475e+01    9.545231e-01
  2.342063e+01    9.557061e-01
  2.343650e+01    9.843403e-01
  2.345238e+01    9.833946e-01
  2.346825e+01    9.761506e-01
  2.348413e+01    9.577711e-01
  2.350001e+01    9.407017e-01
  2.351588e+01    9.612535e-01
  2.353176e+01    9.649178e-01
  2.354763e+01    9.811153e-01
  2.356351e+01    9.687542e-01
  2.357938e+01    9.756526e-01
  2.359526e+01    9.682360e-01
  2.361113e+01    9.760259e-01
  2.362701e+01    9.810914e-01
  2.364289e+01    9.741916e-01
  2.365876e+01    9.510048e-01
  2.367464e+01    9.579958e-01
  2.369051e+01    9.506310e-01
  2.370639e+01    9.465333e-01
  2.372226e+01    9.370022e-01
  2.373814e+01    9.203907e-01
  2.375401e+01    9.391364e-01
  2.376989e+01    9.229522e-01
  2.378577e+01    9.439416e-01
  2.380164e+01    9.100101e-01
  2.381752e+01    9.138892e-01
  2.383339e+01    8.964100e-01
  2.384927e+01    9.178413e-01
  2.386514e+01    9.149847e-01
  2.388102e+01    9.119187e-01
  2.389689e+01    8.981707e-01
  2.391277e+01    9.042469e-01
  2.392865e+01    9.085982e-01
  2.394452e+01    9.047371e-01
  2.396040e+01    9.073906e-01
  2.397627e+01    9.023755e-01
  2.399215e+01    9.109176e-01
  2.400802e+01    9.139943e-01
  2.402390e+01    9.230649e-01
  2.403978e+01    9.114116e-01
  2.405565e+01    9.055570e-01
  2.407153e+01    9.088767e-01
  2.408740e+01    8.942256e-01
  2.410328e+01    8.808582e-01
  2.411915e+01    8.852214e-01
  2.413503e+01    8.884851e-01
  2.415090e+01    8.779365e-01
  2.416678e+01    8.737594e-01
  2.418266e+01    8.723733e-01
  2.419853e+01    8.954306e-01
  2.421441e+01    9.000155e-01
  2.423028e+01    8.813430e-01
  2.424616e+01    8.746803e-01
  2.426203e+01    8.859625e-01
  2.427791e+01    8.962345e-01
  2.429378e+01    9.129794e-01
  2.430966e+01    9.101994e-01
  2.432554e+01    9.174860e-01
  2.434141e+01    9.026905e-01
  2.435729e+01    8.993208e-01
  2.437316e+01    8.813750e-01
  2.438904e+01    8.986878e-01
  2.440491e+01    9.168537e-01
  2.442079e+01    9.042594e-01
  2.443666e+01    9.000330e-01
  2.445254e+01    8.993372e-01
  2.446842e+01    8.815369e-01
  2.448429e+01    8.998086e-01
  2.450017e+01    8.878829e-01
  2.451604e+01    8.741879e-01
  2.453192e+01    8.905375e-01
  2.454779e+01    8.850014e-01
  2.456367e+01    8.829265e-01
  2.457954e+01    8.894042e-01
  2.459542e+01    9.007837e-01
  2.461130e+01    8.930000e-01
  2.462717e+01    9.026176e-01
  2.464305e+01    8.960038e-01
  2.465892e+01    8.920760e-01
  2.467480e+01    8.989781e-01
  2.469067e+01    8.916729e-01
  2.470655e+01    8.899831e-01
  2.472242e+01    8.878532e-01
  2.473830e+01    9.038628e-01
  2.475418e+01    8.957033e-01
  2.477005e+01    8.757277e-01
  2.478593e+01    8.896959e-01
  2.480180e+01    8.991985e-01
  2.481768e+01    8.942977e-01
  2.483355e+01    8.809385e-01
  2.484943e+01    8.823297e-01
  2.486530e+01    8.835229e-01
  2.488118e+01    9.091815e-01
  2.489706e+01    9.147741e-01
  2.491293e+01    9.002438e-01
  2.492881e+01    9.090839e-01
  2.494468e+01    8.916095e-01
  2.496056e+01    8.965830e-01
  2.497643e+01    8.852133e-01
  2.499231e+01    9.126145e-01
  2.500819e+01    9.136606e-01
  2.502406e+01    9.094956e-01
  2.503994e+01    9.044885e-01
  2.505581e+01    9.071178e-01
  2.507169e+01    9.226130e-01
  2.508756e+01    9.065474e-01
  2.510344e+01    8.782886e-01
  2.511931e+01    9.025403e-01
  2.513519e+01    9.154140e-01
  2.515107e+01    9.244160e-01
  2.516694e+01    9.311072e-01
  2.518282e+01    9.333310e-01
  2.519869e+01    9.337971e-01
  2.521457e+01    9.558480e-01
  2.523044e+01    9.495016e-01
  2.524632e+01    9.386779e-01
  2.526219e+01    9.502211e-01
  2.527807e+01    9.584810e-01
  2.529395e+01    9.381440e-01
  2.530982e+01    9.588121e-01
  2.532570e+01    9.721920e-01
  2.534157e+01    9.744365e-01
  2.535745e+01    9.762020e-01
  2.537332e+01    9.763262e-01
  2.538920e+01    9.749607e-01
  2.540507e+01    9.719799e-01
  2.542095e+01    9.787028e-01
  2.543683e+01    1.006986e+00
  2.545270e+01    1.025502e+00
  2.546858e+01    1.033245e+00
  2.548445e+01    1.043208e+00
  2.550033e+01    1.056453e+00
  2.551620e+01    1.081213e+00
  2.553208e+01    1.098429e+00
  2.554795e+01    1.114777e+00
  2.556383e+01    1.143882e+00
  2.557971e+01    1.140101e+00
  2.559558e+01    1.181033e+00
  2.561146e+01    1.238876e+00
  2.562733e+01    1.272257e+00
  2.564321e+01    1.294130e+00
  2.565908e+01    1.355600e+00
  2.567496e+01    1.427818e+00
  2.569083e+01    1.523753e+00
  2.570671e+01    1.634442e+00
  2.572259e+01    1.731798e+00
  2.573846e+01    1.837916e+00
  2.575434e+01    2.049605e+00
  2.577021e+01    2.257043e+00
  2.578609e+01    2.575894e+00
  2.580196e+01    2.851654e+00
  2.581784e+01    3.249250e+00
  2.583371e+01    3.750990e+00
  2.584959e+01    4.275364e+00
  2.586547e+01    4.769789e+00
  2.588134e+01    5.352671e+00
  2.589722e+01    5.932557e+00
  2.591309e+01    6.416381e+00
  2.592897e+01    6.818321e+00
  2.594484e+01    7.129733e+00
  2.596072e+01    7.137217e+00
  2.597660e+01    7.014972e+00
  2.599247e+01    6.600986e+00
  2.600835e+01    5.964516e+00
  2.602422e+01    5.228482e+00
  2.604010e+01    4.555392e+00
  2.605597e+01    3.903227e+00
  2.607185e+01    3.449795e+00
  2.608772e+01    3.008447e+00
  2.610360e+01    2.625003e+00
  2.611948e+01    2.345934e+00
  2.613535e+01    2.106636e+00
  2.615123e+01    1.946694e+00
  2.616710e+01    1.791394e+00
  2.618298e+01    1.687128e+00
  2.619885e+01    1.556788e+00
  2.621473e+01    1.486941e+00
  2.623060e+01    1.410225e+00
  2.624648e+01    1.339296e+00
  2.626236e+01    1.296501e+00
  2.627823e+01    1.256655e+00
  2.629411e+01    1.223073e+00
  2.630998e+01    1.210433e+00
  2.632586e+01    1.165326e+00
  2.634173e+01    1.118864e+00
  2.635761e+01    1.097154e+00
  2.637348e+01    1.072778e+00
  2.638936e+01    1.048337e+00
  2.640524e+01    1.064660e+00
  2.642111e+01    1.069964e+00
  2.643699e+01    1.033978e+00
  2.645286e+01    1.027344e+00
  2.646874e+01    1.031477e+00
  2.648461e+01    1.028466e+00
  2.650049e+01    1.006513e+00
  2.651636e+01    1.005480e+00
  2.653224e+01    1.017554e+00
  2.654812e+01    1.015633e+00
  2.656399e+01    1.004768e+00
  2.657987e+01    9.947830e-01
  2.659574e+01    9.903079e-01
  2.661162e+01    9.902856e-01
  2.662749e+01    9.959700e-01
  2.664337e+01    1.000868e+00
  2.665924e+01    9.814625e-01
  2.667512e+01    9.970573e-01
  2.669100e+01    9.756393e-01
  2.670687e+01    9.833218e-01
  2.672275e+01    9.642509e-01
  2.673862e+01    9.737681e-01
  2.675450e+01    9.840780e-01
  2.677037e+01    9.739971e-01
  2.678625e+01    9.685746e-01
  2.680212e+01    9.821205e-01
  2.681800e+01    9.861699e-01
  2.683388e+01    9.811403e-01
  2.684975e+01    9.671845e-01
  2.686563e+01    9.711460e-01
  2.688150e+01    9.716982e-01
  2.689738e+01    1.005559e+00
  2.691325e+01    1.018369e+00
  2.692913e+01    1.033644e+00
  2.694501e+01    1.040475e+00
  2.696088e+01    1.054210e+00
  2.697676e+01    1.074516e+00
  2.699263e+01    1.087418e+00
  2.700851e+01    1.122812e+00
  2.702438e+01    1.160125e+00
  2.704026e+01    1.223303e+00
  2.705613e+01    1.261463e+00
  2.707201e+01    1.321669e+00
  2.708789e+01    1.415345e+00
  2.710376e+01    1.477538e+00
  2.711964e+01    1.604140e+00
  2.713551e+01    1.752014e+00
  2.715139e+01    1.875330e+00
  2.716726e+01    1.974325e+00
  2.718314e+01    2.079905e+00
  2.719901e+01    2.167527e+00
  2.721489e+01    2.214195e+00
  2.723077e+01    2.173081e+00
  2.724664e+01    2.065208e+00
  2.726252e+01    1.948884e+00
  2.727839e+01    1.812304e+00
  2.729427e+01    1.690126e+00
  2.731014e+01    1.534908e+00
  2.732602e+01    1.441730e+00
  2.734189e+01    1.358513e+00
  2.735777e+01    1.269433e+00
  2.737365e+01    1.226211e+00
  2.738952e+01    1.178508e+00
  2.740540e+01    1.135120e+00
  2.742127e+01    1.093337e+00
  2.743715e+01    1.074154e+00
  2.745302e+01    1.020626e+00
  2.746890e+01    1.012202e+00
  2.748477e+01    9.958352e-01
  2.750065e+01    9.730336e-01
  2.751653e+01    9.666111e-01
  2.753240e+01    9.688451e-01
  2.754828e+01    9.535987e-01
  2.756415e+01    9.283320e-01
  2.758003e+01    9.206076e-01
  2.759590e+01    9.194004e-01
  2.761178e+01    9.123479e-01
  2.762765e+01    9.241495e-01
  2.764353e+01    9.282268e-01
  2.765941e+01    9.038317e-01
  2.767528e+01    8.819925e-01
  2.769116e+01    8.893756e-01
  2.770703e+01    9.068834e-01
  2.772291e+01    9.236596e-01
  2.773878e+01    9.196379e-01
  2.775466e+01    8.960570e-01
  2.777054e+01    9.024456e-01
  2.778641e+01    8.880755e-01
  2.780229e+01    8.878636e-01
  2.781816e+01    8.954424e-01
  2.783404e+01    8.838198e-01
  2.784991e+01    8.804815e-01
  2.786579e+01    8.630179e-01
  2.788166e+01    8.775047e-01
  2.789754e+01    8.808395e-01
  2.791342e+01    8.720630e-01
  2.792929e+01    8.806728e-01
  2.794517e+01    8.820778e-01
  2.796104e+01    8.704563e-01
  2.797692e+01    8.704879e-01
  2.799279e+01    9.069133e-01
  2.800867e+01    8.604193e-01
  2.802454e+01    8.690581e-01
  2.804042e+01    8.630383e-01
  2.805630e+01    8.548226e-01
  2.807217e+01    8.639379e-01
  2.808805e+01    8.663654e-01
  2.810392e+01    8.685125e-01
  2.811980e+01    8.390807e-01
  2.813567e+01    8.445254e-01
  2.815155e+01    8.662717e-01
  2.816742e+01    8.610376e-01
  2.818330e+01    8.610521e-01
  2.819918e+01    8.636808e-01
  2.821505e+01    8.504939e-01
  2.823093e+01    8.643721e-01
  2.824680e+01    8.572559e-01
  2.826268e+01    8.379447e-01
  2.827855e+01    8.361863e-01
  2.829443e+01    8.698015e-01
  2.831030e+01    8.587214e-01
  2.832618e+01    8.666506e-01
  2.834206e+01    8.577582e-01
  2.835793e+01    8.128729e-01
  2.837381e+01    8.161405e-01
  2.838968e+01    8.508707e-01
  2.840556e+01    8.484690e-01
  2.842143e+01    8.416986e-01
  2.843731e+01    8.587011e-01
  2.845318e+01    8.402591e-01
  2.846906e+01    8.497438e-01
  2.848494e+01    8.633113e-01
  2.850081e+01    8.544436e-01
  2.851669e+01    8.594060e-01
  2.853256e+01    8.421668e-01
  2.854844e+01    8.313565e-01
  2.856431e+01    8.167053e-01
  2.858019e+01    8.342742e-01
  2.859606e+01    8.369066e-01
  2.861194e+01    8.361667e-01
  2.862782e+01    8.209104e-01
  2.864369e+01    8.156974e-01
  2.865957e+01    8.388174e-01
  2.867544e+01    8.449672e-01
  2.869132e+01    8.334484e-01
  2.870719e+01    8.320293e-01
  2.872307e+01    8.288552e-01
  2.873895e+01    8.225400e-01
  2.875482e+01    8.259377e-01
  2.877070e+01    8.237497e-01
  2.878657e+01    8.138461e-01
  2.880245e+01    8.314266e-01
  2.881832e+01    8.237108e-01
  2.883420e+01    8.145645e-01
  2.885007e+01    8.408914e-01
  2.886595e+01    8.213206e-01
  2.888183e+01    8.430618e-01
  2.889770e+01    8.401251e-01
  2.891358e+01    8.329736e-01
  2.892945e+01    8.122286e-01
  2.894533e+01    7.989914e-01
  2.896120e+01    8.080291e-01
  2.897708e+01    8.324198e-01
  2.899295e+01    8.284835e-01
  2.900883e+01    8.279820e-01
  2.902471e+01    8.070412e-01
  2.904058e+01    7.857767e-01
  2.905646e+01    8.100994e-01
  2.907233e+01    8.257628e-01
  2.908821e+01    8.197318e-01
  2.910408e+01    8.361536e-01
  2.911996e+01    8.263770e-01
  2.913583e+01    8.249186e-01
  2.915171e+01    8.196160e-01
  2.916759e+01    8.363772e-01
  2.918346e+01    8.140571e-01
  2.919934e+01    8.214405e-01
  2.921521e+01    8.165768e-01
  2.923109e+01    8.139007e-01
  2.924696e+01    8.176414e-01
  2.926284e+01    8.298935e-01
  2.927871e+01    8.182792e-01
  2.929459e+01    8.123664e-01
  2.931047e+01    8.130351e-01
  2.932634e+01    8.081224e-01
  2.934222e+01    8.182099e-01
  2.935809e+01    8.218947e-01
  2.937397e+01    8.060789e-01
  2.938984e+01    8.057300e-01
  2.940572e+01    8.122721e-01
  2.942159e+01    7.985157e-01
  2.943747e+01    8.117862e-01
  2.945335e+01    8.100681e-01
  2.946922e+01    8.124041e-01
  2.948510e+01    8.322458e-01
  2.950097e+01    8.269218e-01
  2.951685e+01    8.121445e-01
  2.953272e+01    8.099022e-01
  2.954860e+01    8.106595e-01
  2.956447e+01    7.975423e-01
  2.958035e+01    8.151942e-01
  2.959623e+01    8.102399e-01
  2.961210e+01    7.985061e-01
  2.962798e+01    8.041644e-01
  2.964385e+01    7.958454e-01
  2.965973e+01    7.962368e-01
  2.967560e+01    7.848945e-01
  2.969148e+01    7.849028e-01
  2.970736e+01    7.980771e-01
  2.972323e+01    8.062220e-01
  2.973911e+01    8.096639e-01
  2.975498e+01    7.985500e-01
  2.977086e+01    7.921075e-01
  2.978673e+01    8.106784e-01
  2.980261e+01    7.997124e-01
  2.981848e+01    8.149378e-01
  2.983436e+01    8.072005e-01
  2.985024e+01    7.961920e-01
  2.986611e+01    8.002354e-01
  2.988199e+01    7.885931e-01
  2.989786e+01    8.127803e-01
  2.991374e+01    8.238034e-01
  2.992961e+01    7.986965e-01
  2.994549e+01    7.841166e-01
  2.996136e+01    7.979273e-01
  2.997724e+01    7.985473e-01
  2.999312e+01    7.959806e-01
  3.000899e+01    8.145806e-01
  3.002487e+01    8.241624e-01
  3.004074e+01    8.173574e-01
  3.005662e+01    8.100945e-01
  3.007249e+01    8.145896e-01
  3.008837e+01    8.079337e-01
  3.010424e+01    8.238790e-01
  3.012012e+01    7.903298e-01
  3.013600e+01    7.905705e-01
  3.015187e+01    7.901301e-01
  3.016775e+01    7.909393e-01
  3.018362e+01    7.944639e-01
  3.019950e+01    7.853341e-01
  3.021537e+01    7.882267e-01
  3.023125e+01    7.945157e-01
  3.024712e+01    7.846060e-01
  3.026300e+01    7.922280e-01
  3.027888e+01    7.935314e-01
  3.029475e+01    7.992688e-01
  3.031063e+01    7.950472e-01
  3.032650e+01    8.058431e-01
  3.034238e+01    7.676843e-01
  3.035825e+01    7.701505e-01
  3.037413e+01    8.037074e-01
  3.039000e+01    7.859712e-01
  3.040588e+01    7.759080e-01
  3.042176e+01    7.846843e-01
  3.043763e+01    7.762395e-01
  3.045351e+01    7.635408e-01
  3.046938e+01    7.897992e-01
  3.048526e+01    7.770398e-01
  3.050113e+01    7.938122e-01
  3.051701e+01    7.939935e-01
  3.053288e+01    7.900071e-01
  3.054876e+01    8.049497e-01
  3.056464e+01    7.972263e-01
  3.058051e+01    7.728979e-01
  3.059639e+01    7.631881e-01
  3.061226e+01    7.815556e-01
  3.062814e+01    7.932356e-01
  3.064401e+01    8.239126e-01
  3.065989e+01    7.795212e-01
  3.067577e+01    7.795460e-01
  3.069164e+01    8.077263e-01
  3.070752e+01    8.076866e-01
  3.072339e+01    8.050324e-01
  3.073927e+01    7.855747e-01
  3.075514e+01    7.828820e-01
  3.077102e+01    7.958292e-01
  3.078689e+01    8.273685e-01
  3.080277e+01    8.035117e-01
  3.081865e+01    8.119149e-01
  3.083452e+01    7.918439e-01
  3.085040e+01    7.769552e-01
  3.086627e+01    7.684810e-01
  3.088215e+01    7.789062e-01
  3.089802e+01    7.805594e-01
  3.091390e+01    7.890183e-01
  3.092977e+01    7.837994e-01
  3.094565e+01    7.698903e-01
  3.096153e+01    7.935990e-01
  3.097740e+01    8.115221e-01
  3.099328e+01    8.075953e-01
  3.100915e+01    8.172838e-01
  3.102503e+01    7.811285e-01
  3.104090e+01    7.672743e-01
  3.105678e+01    7.751906e-01
  3.107265e+01    7.667944e-01
  3.108853e+01    7.856330e-01
  3.110441e+01    8.002425e-01
  3.112028e+01    8.117212e-01
  3.113616e+01    7.948353e-01
  3.115203e+01    8.039362e-01
  3.116791e+01    7.999341e-01
  3.118378e+01    7.884049e-01
  3.119966e+01    7.954296e-01
  3.121553e+01    8.185248e-01
  3.123141e+01    7.979643e-01
  3.124729e+01    7.998334e-01
  3.126316e+01    8.084366e-01
  3.127904e+01    8.047391e-01
  3.129491e+01    8.119942e-01
  3.131079e+01    7.987925e-01
  3.132666e+01    7.937891e-01
  3.134254e+01    8.037870e-01
  3.135841e+01    8.418217e-01
  3.137429e+01    8.337092e-01
  3.139017e+01    8.285353e-01
  3.140604e+01    8.086504e-01
  3.142192e+01    8.106890e-01
  3.143779e+01    8.097886e-01
  3.145367e+01    8.423750e-01
  3.146954e+01    8.273867e-01
  3.148542e+01    8.256493e-01
  3.150129e+01    8.167905e-01
  3.151717e+01    8.247200e-01
  3.153305e+01    8.448634e-01
  3.154892e+01    8.536944e-01
  3.156480e+01    8.680605e-01
  3.158067e+01    8.795367e-01
  3.159655e+01    8.809996e-01
  3.161242e+01    9.013001e-01
  3.162830e+01    8.785500e-01
  3.164418e+01    9.163441e-01
  3.166005e+01    9.492784e-01
  3.167593e+01    9.782645e-01
  3.169180e+01    1.003134e+00
  3.170768e+01    1.039544e+00
  3.172355e+01    1.079627e+00
  3.173943e+01    1.096077e+00
  3.175530e+01    1.171653e+00
  3.177118e+01    1.263364e+00
  3.178706e+01    1.346382e+00
  3.180293e+01    1.490374e+00
  3.181881e+01    1.611027e+00
  3.183468e+01    1.709602e+00
  3.185056e+01    1.855151e+00
  3.186643e+01    2.008729e+00
  3.188231e+01    2.069939e+00
  3.189818e+01    2.107243e+00
  3.191406e+01    2.137658e+00
  3.192994e+01    2.053214e+00
  3.194581e+01    1.944601e+00
  3.196169e+01    1.836779e+00
  3.197756e+01    1.689070e+00
  3.199344e+01    1.555295e+00
  3.200931e+01    1.421489e+00
  3.202519e+01    1.323674e+00
  3.204106e+01    1.254488e+00
  3.205694e+01    1.169051e+00
  3.207282e+01    1.106184e+00
  3.208869e+01    1.032034e+00
  3.210457e+01    9.983758e-01
  3.212044e+01    9.743408e-01
  3.213632e+01    9.227882e-01
  3.215219e+01    9.015692e-01
  3.216807e+01    9.135230e-01
  3.218394e+01    9.002905e-01
  3.219982e+01    8.809695e-01
  3.221570e+01    8.872648e-01
  3.223157e+01    8.526884e-01
  3.224745e+01    8.136374e-01
  3.226332e+01    8.208582e-01
  3.227920e+01    8.227058e-01
  3.229507e+01    8.161113e-01
  3.231095e+01    7.824676e-01
  3.232682e+01    7.956951e-01
  3.234270e+01    8.216905e-01
  3.235858e+01    8.063225e-01
  3.237445e+01    7.891776e-01
  3.239033e+01    7.832004e-01
  3.240620e+01    7.838765e-01
  3.242208e+01    7.675820e-01
  3.243795e+01    7.825466e-01
  3.245383e+01    8.100862e-01
  3.246970e+01    7.900051e-01
  3.248558e+01    7.887570e-01
  3.250146e+01    7.783462e-01
  3.251733e+01    7.919351e-01
  3.253321e+01    7.857103e-01
  3.254908e+01    7.652083e-01
