# == pyFAI calibration ==
# Distance Sample to Detector: 0.3999999939076516 m
# PONI: 9.750e-02, 1.135e-01 m
# Rotations: -0.000175 0.000000 -0.000000 rad
# 
# == Fit2d calibration ==
# Distance Sample-beamCenter: 400.000 mm
# Center: x=1514.000, y=1300.000 pix
# Tilt: 0.010 deg  TiltPlanRot: 0.010 deg
# 
# Detector Detector	 Spline= None	 PixelSize= 7.500e-05, 7.500e-05 m
#    Detector has a mask: False 
#    Detector has a dark current: False 
#    detector has a flat field: False 
# 
# Wavelength: 6.888e-11 m
# Mask applied: user provided
# Dark current applied: False
# Flat field applied: False
# Polarization factor: 0.99
# Normalization factor: 1.0
# --> /home/myspot/data/2024_07_Rosario/Ru-CGO-ex/2024-07-27_003_Ru-CGO-ex_Reaction_dwell_000023_data_000014.dat
#       q_nm^-1             I 
  2.003187e-02    1.424646e-01
  3.590745e-02    0.000000e+00
  5.178302e-02    2.670345e-02
  6.765859e-02    5.597643e-02
  8.353417e-02    2.592751e-03
  9.940974e-02    3.787665e-02
  1.152853e-01    1.577930e-02
  1.311609e-01    6.315543e-03
  1.470365e-01    7.386756e-02
  1.629120e-01    3.302620e-02
  1.787876e-01    2.893634e-02
  1.946632e-01    5.673257e-02
  2.105388e-01    2.633847e-02
  2.264143e-01    2.183351e-02
  2.422899e-01    5.164895e-02
  2.581655e-01    6.311483e-02
  2.740411e-01    3.986143e-02
  2.899166e-01    2.890277e-02
  3.057922e-01    4.815768e-02
  3.216678e-01    5.004296e-02
  3.375433e-01    5.595166e-02
  3.534189e-01    1.210240e-02
  3.692945e-01    4.781486e-02
  3.851701e-01    7.790417e-02
  4.010456e-01    4.524104e-02
  4.169212e-01    3.785329e-02
  4.327968e-01    4.267859e-02
  4.486724e-01    6.849001e-02
  4.645479e-01    5.862499e-02
  4.804235e-01    3.862096e-02
  4.962991e-01    5.213298e-02
  5.121747e-01    3.199572e-02
  5.280502e-01    3.653328e-02
  5.439258e-01    5.809023e-02
  5.598014e-01    4.349994e-02
  5.756770e-01    2.814921e-02
  5.915525e-01    3.499507e-02
  6.074281e-01    4.615338e-02
  6.233037e-01    3.449625e-02
  6.391793e-01    2.912881e-02
  6.550548e-01    3.802543e-02
  6.709304e-01    4.891438e-02
  6.868060e-01    3.183850e-02
  7.026815e-01    3.508605e-02
  7.185571e-01    5.467466e-02
  7.344327e-01    3.999001e-02
  7.503083e-01    6.374688e-02
  7.661838e-01    8.893413e-02
  7.820594e-01    1.282369e-01
  7.979350e-01    1.765134e-01
  8.138106e-01    2.534679e-01
  8.296861e-01    2.582511e-01
  8.455617e-01    3.452858e-01
  8.614373e-01    4.336030e-01
  8.773129e-01    5.665861e-01
  8.931884e-01    6.464621e-01
  9.090640e-01    6.843738e-01
  9.249396e-01    6.783307e-01
  9.408152e-01    7.911078e-01
  9.566907e-01    9.053009e-01
  9.725663e-01    8.823918e-01
  9.884419e-01    1.033820e+00
  1.004317e+00    1.077672e+00
  1.020193e+00    1.182955e+00
  1.036069e+00    1.318394e+00
  1.051944e+00    1.375475e+00
  1.067820e+00    1.395467e+00
  1.083695e+00    1.512524e+00
  1.099571e+00    1.651867e+00
  1.115446e+00    1.626974e+00
  1.131322e+00    1.609710e+00
  1.147198e+00    1.647491e+00
  1.163073e+00    1.722517e+00
  1.178949e+00    1.713564e+00
  1.194824e+00    1.794667e+00
  1.210700e+00    1.983038e+00
  1.226575e+00    2.171300e+00
  1.242451e+00    2.371437e+00
  1.258327e+00    2.530697e+00
  1.274202e+00    2.493962e+00
  1.290078e+00    2.618681e+00
  1.305953e+00    2.672032e+00
  1.321829e+00    2.667755e+00
  1.337705e+00    2.634523e+00
  1.353580e+00    2.783068e+00
  1.369456e+00    2.874407e+00
  1.385331e+00    2.874233e+00
  1.401207e+00    2.795488e+00
  1.417082e+00    2.829982e+00
  1.432958e+00    2.953155e+00
  1.448834e+00    2.979346e+00
  1.464709e+00    2.958718e+00
  1.480585e+00    3.027440e+00
  1.496460e+00    3.086124e+00
  1.512336e+00    3.077717e+00
  1.528211e+00    3.238938e+00
  1.544087e+00    3.276749e+00
  1.559963e+00    3.104249e+00
  1.575838e+00    3.189486e+00
  1.591714e+00    3.099898e+00
  1.607589e+00    3.003786e+00
  1.623465e+00    3.099408e+00
  1.639340e+00    3.184802e+00
  1.655216e+00    3.267092e+00
  1.671092e+00    3.135727e+00
  1.686967e+00    3.155139e+00
  1.702843e+00    3.230914e+00
  1.718718e+00    3.168999e+00
  1.734594e+00    3.094765e+00
  1.750469e+00    3.112032e+00
  1.766345e+00    3.008662e+00
  1.782221e+00    2.890514e+00
  1.798096e+00    2.958667e+00
  1.813972e+00    3.058944e+00
  1.829847e+00    3.142419e+00
  1.845723e+00    3.049899e+00
  1.861598e+00    3.046106e+00
  1.877474e+00    3.065896e+00
  1.893350e+00    3.063153e+00
  1.909225e+00    3.051472e+00
  1.925101e+00    3.047105e+00
  1.940976e+00    2.950130e+00
  1.956852e+00    3.031510e+00
  1.972727e+00    3.084356e+00
  1.988603e+00    2.995576e+00
  2.004479e+00    3.105143e+00
  2.020354e+00    3.122068e+00
  2.036230e+00    3.029434e+00
  2.052105e+00    3.177746e+00
  2.067981e+00    3.216748e+00
  2.083856e+00    3.064445e+00
  2.099732e+00    3.028065e+00
  2.115608e+00    2.968191e+00
  2.131483e+00    3.030652e+00
  2.147359e+00    3.013462e+00
  2.163234e+00    3.100246e+00
  2.179110e+00    3.133750e+00
  2.194985e+00    3.148224e+00
  2.210861e+00    3.144915e+00
  2.226737e+00    3.098423e+00
  2.242612e+00    3.150012e+00
  2.258488e+00    3.279947e+00
  2.274363e+00    3.227431e+00
  2.290239e+00    3.191717e+00
  2.306115e+00    3.122608e+00
  2.321990e+00    3.073142e+00
  2.337866e+00    3.214880e+00
  2.353741e+00    3.214236e+00
  2.369617e+00    3.183333e+00
  2.385492e+00    3.183478e+00
  2.401368e+00    3.224126e+00
  2.417244e+00    3.166572e+00
  2.433119e+00    3.082804e+00
  2.448995e+00    3.037763e+00
  2.464870e+00    3.296834e+00
  2.480746e+00    3.184179e+00
  2.496621e+00    3.265582e+00
  2.512497e+00    3.162801e+00
  2.528373e+00    3.170677e+00
  2.544248e+00    3.281094e+00
  2.560124e+00    3.335209e+00
  2.575999e+00    3.162433e+00
  2.591875e+00    3.225677e+00
  2.607750e+00    3.249157e+00
  2.623626e+00    3.125248e+00
  2.639502e+00    3.158797e+00
  2.655377e+00    3.104314e+00
  2.671253e+00    3.104303e+00
  2.687128e+00    3.236518e+00
  2.703004e+00    3.199723e+00
  2.718879e+00    3.205805e+00
  2.734755e+00    3.281834e+00
  2.750631e+00    3.288861e+00
  2.766506e+00    3.214018e+00
  2.782382e+00    3.298994e+00
  2.798257e+00    3.281150e+00
  2.814133e+00    3.224664e+00
  2.830008e+00    3.277081e+00
  2.845884e+00    3.282372e+00
  2.861760e+00    3.332832e+00
  2.877635e+00    3.313860e+00
  2.893511e+00    3.398145e+00
  2.909386e+00    3.280057e+00
  2.925262e+00    3.349111e+00
  2.941137e+00    3.346988e+00
  2.957013e+00    3.257072e+00
  2.972889e+00    3.255314e+00
  2.988764e+00    3.299990e+00
  3.004640e+00    3.298662e+00
  3.020515e+00    3.300518e+00
  3.036391e+00    3.289206e+00
  3.052266e+00    3.407293e+00
  3.068142e+00    3.444387e+00
  3.084018e+00    3.393460e+00
  3.099893e+00    3.360693e+00
  3.115769e+00    3.364362e+00
  3.131644e+00    3.364345e+00
  3.147520e+00    3.430105e+00
  3.163395e+00    3.445710e+00
  3.179271e+00    3.471232e+00
  3.195147e+00    3.400333e+00
  3.211022e+00    3.401002e+00
  3.226898e+00    3.493822e+00
  3.242773e+00    3.430827e+00
  3.258649e+00    3.458516e+00
  3.274525e+00    3.397028e+00
  3.290400e+00    3.352305e+00
  3.306276e+00    3.296946e+00
  3.322151e+00    3.411449e+00
  3.338027e+00    3.430203e+00
  3.353902e+00    3.471215e+00
  3.369778e+00    3.529994e+00
  3.385654e+00    3.369231e+00
  3.401529e+00    3.338356e+00
  3.417405e+00    3.444146e+00
  3.433280e+00    3.406196e+00
  3.449156e+00    3.394891e+00
  3.465031e+00    3.423226e+00
  3.480907e+00    3.537238e+00
  3.496783e+00    3.611518e+00
  3.512658e+00    3.440311e+00
  3.528534e+00    3.425034e+00
  3.544409e+00    3.498050e+00
  3.560285e+00    3.541787e+00
  3.576160e+00    3.459833e+00
  3.592036e+00    3.454997e+00
  3.607912e+00    3.463612e+00
  3.623787e+00    3.391882e+00
  3.639663e+00    3.404154e+00
  3.655538e+00    3.467820e+00
  3.671414e+00    3.522513e+00
  3.687289e+00    3.543914e+00
  3.703165e+00    3.608379e+00
  3.719041e+00    3.469748e+00
  3.734916e+00    3.420650e+00
  3.750792e+00    3.521732e+00
  3.766667e+00    3.526528e+00
  3.782543e+00    3.467280e+00
  3.798418e+00    3.474495e+00
  3.814294e+00    3.488307e+00
  3.830170e+00    3.433635e+00
  3.846045e+00    3.464575e+00
  3.861921e+00    3.554917e+00
  3.877796e+00    3.626023e+00
  3.893672e+00    3.652254e+00
  3.909547e+00    3.588720e+00
  3.925423e+00    3.521488e+00
  3.941299e+00    3.522465e+00
  3.957174e+00    3.534218e+00
  3.973050e+00    3.492419e+00
  3.988925e+00    3.449530e+00
  4.004801e+00    3.428556e+00
  4.020676e+00    3.563596e+00
  4.036552e+00    3.642342e+00
  4.052428e+00    3.578239e+00
  4.068303e+00    3.484660e+00
  4.084179e+00    3.597652e+00
  4.100054e+00    3.663052e+00
  4.115930e+00    3.630346e+00
  4.131806e+00    3.527334e+00
  4.147681e+00    3.514836e+00
  4.163557e+00    3.500299e+00
  4.179432e+00    3.528587e+00
  4.195308e+00    3.551977e+00
  4.211183e+00    3.586789e+00
  4.227059e+00    3.705181e+00
  4.242935e+00    3.692447e+00
  4.258810e+00    3.569261e+00
  4.274686e+00    3.532686e+00
  4.290561e+00    3.572385e+00
  4.306437e+00    3.590493e+00
  4.322312e+00    3.550453e+00
  4.338188e+00    3.602840e+00
  4.354064e+00    3.627028e+00
  4.369939e+00    3.652009e+00
  4.385815e+00    3.630145e+00
  4.401690e+00    3.592664e+00
  4.417566e+00    3.620878e+00
  4.433441e+00    3.538590e+00
  4.449317e+00    3.499037e+00
  4.465193e+00    3.662412e+00
  4.481068e+00    3.627662e+00
  4.496944e+00    3.548694e+00
  4.512819e+00    3.565973e+00
  4.528695e+00    3.587810e+00
  4.544570e+00    3.589253e+00
  4.560446e+00    3.695817e+00
  4.576322e+00    3.682876e+00
  4.592197e+00    3.619062e+00
  4.608073e+00    3.678537e+00
  4.623948e+00    3.657783e+00
  4.639824e+00    3.612755e+00
  4.655699e+00    3.622003e+00
  4.671575e+00    3.583931e+00
  4.687451e+00    3.573581e+00
  4.703326e+00    3.533582e+00
  4.719202e+00    3.585949e+00
  4.735077e+00    3.647355e+00
  4.750953e+00    3.715131e+00
  4.766828e+00    3.677422e+00
  4.782704e+00    3.637374e+00
  4.798580e+00    3.638608e+00
  4.814455e+00    3.672265e+00
  4.830331e+00    3.610192e+00
  4.846206e+00    3.620103e+00
  4.862082e+00    3.605666e+00
  4.877957e+00    3.548776e+00
  4.893833e+00    3.622827e+00
  4.909709e+00    3.671299e+00
  4.925584e+00    3.607771e+00
  4.941460e+00    3.703097e+00
  4.957335e+00    3.727440e+00
  4.973211e+00    3.558629e+00
  4.989086e+00    3.615561e+00
  5.004962e+00    3.707347e+00
  5.020838e+00    3.634830e+00
  5.036713e+00    3.665523e+00
  5.052589e+00    3.597260e+00
  5.068464e+00    3.618240e+00
  5.084340e+00    3.674616e+00
  5.100216e+00    3.622352e+00
  5.116091e+00    3.648347e+00
  5.131967e+00    3.748295e+00
  5.147842e+00    3.698772e+00
  5.163718e+00    3.642310e+00
  5.179593e+00    3.589122e+00
  5.195469e+00    3.687713e+00
  5.211345e+00    3.746851e+00
  5.227220e+00    3.694919e+00
  5.243096e+00    3.617254e+00
  5.258971e+00    3.548129e+00
  5.274847e+00    3.608451e+00
  5.290722e+00    3.650830e+00
  5.306598e+00    3.767619e+00
  5.322474e+00    3.737474e+00
  5.338349e+00    3.718021e+00
  5.354225e+00    3.640598e+00
  5.370100e+00    3.592317e+00
  5.385976e+00    3.603714e+00
  5.401851e+00    3.683637e+00
  5.417727e+00    3.684475e+00
  5.433603e+00    3.618649e+00
  5.449478e+00    3.596408e+00
  5.465354e+00    3.553743e+00
  5.481229e+00    3.522443e+00
  5.497105e+00    3.542247e+00
  5.512980e+00    3.579329e+00
  5.528856e+00    3.586081e+00
  5.544732e+00    3.510098e+00
  5.560607e+00    3.531435e+00
  5.576483e+00    3.577066e+00
  5.592358e+00    3.596469e+00
  5.608234e+00    3.668064e+00
  5.624109e+00    3.608805e+00
  5.639985e+00    3.562190e+00
  5.655861e+00    3.586794e+00
  5.671736e+00    3.629810e+00
  5.687612e+00    3.617214e+00
  5.703487e+00    3.608827e+00
  5.719363e+00    3.590513e+00
  5.735238e+00    3.627687e+00
  5.751114e+00    3.596000e+00
  5.766990e+00    3.517929e+00
  5.782865e+00    3.524014e+00
  5.798741e+00    3.562608e+00
  5.814616e+00    3.516406e+00
  5.830492e+00    3.584846e+00
  5.846367e+00    3.594618e+00
  5.862243e+00    3.581317e+00
  5.878119e+00    3.617177e+00
  5.893994e+00    3.583725e+00
  5.909870e+00    3.590863e+00
  5.925745e+00    3.572067e+00
  5.941621e+00    3.597542e+00
  5.957497e+00    3.508395e+00
  5.973372e+00    3.555214e+00
  5.989248e+00    3.548904e+00
  6.005123e+00    3.587219e+00
  6.020999e+00    3.655761e+00
  6.036874e+00    3.571101e+00
  6.052750e+00    3.587343e+00
  6.068626e+00    3.590104e+00
  6.084501e+00    3.541878e+00
  6.100377e+00    3.550345e+00
  6.116252e+00    3.495532e+00
  6.132128e+00    3.575326e+00
  6.148003e+00    3.558159e+00
  6.163879e+00    3.530407e+00
  6.179755e+00    3.526036e+00
  6.195630e+00    3.520854e+00
  6.211506e+00    3.540903e+00
  6.227381e+00    3.530589e+00
  6.243257e+00    3.576321e+00
  6.259132e+00    3.527618e+00
  6.275008e+00    3.589611e+00
  6.290884e+00    3.531455e+00
  6.306759e+00    3.549220e+00
  6.322635e+00    3.485522e+00
  6.338510e+00    3.616996e+00
  6.354386e+00    3.537608e+00
  6.370261e+00    3.567881e+00
  6.386137e+00    3.601669e+00
  6.402013e+00    3.661820e+00
  6.417888e+00    3.630255e+00
  6.433764e+00    3.580488e+00
  6.449639e+00    3.583602e+00
  6.465515e+00    3.559579e+00
  6.481390e+00    3.620287e+00
  6.497266e+00    3.521543e+00
  6.513142e+00    3.413724e+00
  6.529017e+00    3.498191e+00
  6.544893e+00    3.516613e+00
  6.560768e+00    3.534520e+00
  6.576644e+00    3.552058e+00
  6.592519e+00    3.572311e+00
  6.608395e+00    3.611439e+00
  6.624271e+00    3.549767e+00
  6.640146e+00    3.553416e+00
  6.656022e+00    3.636019e+00
  6.671897e+00    3.626610e+00
  6.687773e+00    3.493068e+00
  6.703648e+00    3.505213e+00
  6.719524e+00    3.533356e+00
  6.735400e+00    3.608329e+00
  6.751275e+00    3.594223e+00
  6.767151e+00    3.548967e+00
  6.783026e+00    3.546976e+00
  6.798902e+00    3.536080e+00
  6.814777e+00    3.600975e+00
  6.830653e+00    3.601904e+00
  6.846529e+00    3.522317e+00
  6.862404e+00    3.502213e+00
  6.878280e+00    3.530082e+00
  6.894155e+00    3.554588e+00
  6.910031e+00    3.526990e+00
  6.925907e+00    3.541636e+00
  6.941782e+00    3.552873e+00
  6.957658e+00    3.531905e+00
  6.973533e+00    3.575326e+00
  6.989409e+00    3.650021e+00
  7.005284e+00    3.513156e+00
  7.021160e+00    3.463764e+00
  7.037036e+00    3.498013e+00
  7.052911e+00    3.604810e+00
  7.068787e+00    3.568718e+00
  7.084662e+00    3.509832e+00
  7.100538e+00    3.506579e+00
  7.116413e+00    3.475773e+00
  7.132289e+00    3.472321e+00
  7.148165e+00    3.505372e+00
  7.164040e+00    3.579920e+00
  7.179916e+00    3.572955e+00
  7.195791e+00    3.554705e+00
  7.211667e+00    3.566273e+00
  7.227542e+00    3.517200e+00
  7.243418e+00    3.453958e+00
  7.259294e+00    3.495163e+00
  7.275169e+00    3.587250e+00
  7.291045e+00    3.620281e+00
  7.306920e+00    3.591007e+00
  7.322796e+00    3.540905e+00
  7.338671e+00    3.526575e+00
  7.354547e+00    3.500044e+00
  7.370423e+00    3.545188e+00
  7.386298e+00    3.514450e+00
  7.402174e+00    3.451530e+00
  7.418049e+00    3.490645e+00
  7.433925e+00    3.496084e+00
  7.449800e+00    3.528877e+00
  7.465676e+00    3.476691e+00
  7.481552e+00    3.501871e+00
  7.497427e+00    3.515033e+00
  7.513303e+00    3.545532e+00
  7.529178e+00    3.478658e+00
  7.545054e+00    3.420874e+00
  7.560929e+00    3.424211e+00
  7.576805e+00    3.411000e+00
  7.592681e+00    3.465893e+00
  7.608556e+00    3.493364e+00
  7.624432e+00    3.442621e+00
  7.640307e+00    3.505906e+00
  7.656183e+00    3.426619e+00
  7.672058e+00    3.462521e+00
  7.687934e+00    3.421878e+00
  7.703810e+00    3.475102e+00
  7.719685e+00    3.540305e+00
  7.735561e+00    3.454877e+00
  7.751436e+00    3.461667e+00
  7.767312e+00    3.428715e+00
  7.783187e+00    3.443232e+00
  7.799063e+00    3.477658e+00
  7.814939e+00    3.483322e+00
  7.830814e+00    3.485297e+00
  7.846690e+00    3.490184e+00
  7.862565e+00    3.456985e+00
  7.878441e+00    3.460519e+00
  7.894317e+00    3.474011e+00
  7.910192e+00    3.480782e+00
  7.926068e+00    3.441865e+00
  7.941943e+00    3.430852e+00
  7.957819e+00    3.415794e+00
  7.973694e+00    3.346063e+00
  7.989570e+00    3.471511e+00
  8.005446e+00    3.489509e+00
  8.021321e+00    3.404573e+00
  8.037197e+00    3.432581e+00
  8.053072e+00    3.391017e+00
  8.068948e+00    3.418351e+00
  8.084823e+00    3.509265e+00
  8.100699e+00    3.505336e+00
  8.116575e+00    3.487498e+00
  8.132450e+00    3.517107e+00
  8.148326e+00    3.568818e+00
  8.164201e+00    3.545045e+00
  8.180077e+00    3.540300e+00
  8.195952e+00    3.423752e+00
  8.211828e+00    3.391422e+00
  8.227704e+00    3.476162e+00
  8.243579e+00    3.482279e+00
  8.259455e+00    3.453461e+00
  8.275330e+00    3.351112e+00
  8.291206e+00    3.304485e+00
  8.307081e+00    3.422676e+00
  8.322957e+00    3.438533e+00
  8.338833e+00    3.428053e+00
  8.354708e+00    3.438100e+00
  8.370584e+00    3.378751e+00
  8.386459e+00    3.392475e+00
  8.402335e+00    3.405345e+00
  8.418210e+00    3.364288e+00
  8.434086e+00    3.315043e+00
  8.449962e+00    3.398677e+00
  8.465837e+00    3.422234e+00
  8.481713e+00    3.403203e+00
  8.497588e+00    3.421636e+00
  8.513464e+00    3.339476e+00
  8.529339e+00    3.316365e+00
  8.545215e+00    3.391410e+00
  8.561091e+00    3.409137e+00
  8.576966e+00    3.387666e+00
  8.592842e+00    3.363893e+00
  8.608717e+00    3.389231e+00
  8.624593e+00    3.436989e+00
  8.640468e+00    3.390069e+00
  8.656344e+00    3.318690e+00
  8.672220e+00    3.333081e+00
  8.688095e+00    3.390202e+00
  8.703971e+00    3.336443e+00
  8.719846e+00    3.347714e+00
  8.735722e+00    3.317319e+00
  8.751598e+00    3.337475e+00
  8.767473e+00    3.396796e+00
  8.783349e+00    3.320821e+00
  8.799224e+00    3.321828e+00
  8.815100e+00    3.273346e+00
  8.830975e+00    3.295532e+00
  8.846851e+00    3.387233e+00
  8.862727e+00    3.345304e+00
  8.878602e+00    3.327271e+00
  8.894478e+00    3.350891e+00
  8.910353e+00    3.301070e+00
  8.926229e+00    3.338390e+00
  8.942104e+00    3.315550e+00
  8.957980e+00    3.249725e+00
  8.973856e+00    3.273784e+00
  8.989731e+00    3.262943e+00
  9.005607e+00    3.281379e+00
  9.021482e+00    3.288563e+00
  9.037358e+00    3.287423e+00
  9.053233e+00    3.284671e+00
  9.069109e+00    3.279061e+00
  9.084985e+00    3.256350e+00
  9.100860e+00    3.251187e+00
  9.116736e+00    3.291636e+00
  9.132611e+00    3.305716e+00
  9.148487e+00    3.283641e+00
  9.164362e+00    3.266578e+00
  9.180238e+00    3.307734e+00
  9.196114e+00    3.253348e+00
  9.211989e+00    3.243842e+00
  9.227865e+00    3.264642e+00
  9.243740e+00    3.209970e+00
  9.259616e+00    3.167897e+00
  9.275491e+00    3.231946e+00
  9.291367e+00    3.268747e+00
  9.307243e+00    3.228633e+00
  9.323118e+00    3.199966e+00
  9.338994e+00    3.226975e+00
  9.354869e+00    3.240088e+00
  9.370745e+00    3.182611e+00
  9.386620e+00    3.203475e+00
  9.402496e+00    3.268147e+00
  9.418372e+00    3.289593e+00
  9.434247e+00    3.257325e+00
  9.450123e+00    3.198708e+00
  9.465998e+00    3.187597e+00
  9.481874e+00    3.249160e+00
  9.497749e+00    3.230115e+00
  9.513625e+00    3.194731e+00
  9.529501e+00    3.265141e+00
  9.545376e+00    3.224208e+00
  9.561252e+00    3.297259e+00
  9.577127e+00    3.253160e+00
  9.593003e+00    3.182842e+00
  9.608878e+00    3.233399e+00
  9.624754e+00    3.273172e+00
  9.640630e+00    3.234646e+00
  9.656505e+00    3.209487e+00
  9.672381e+00    3.231013e+00
  9.688256e+00    3.234082e+00
  9.704132e+00    3.226664e+00
  9.720008e+00    3.194143e+00
  9.735883e+00    3.170473e+00
  9.751759e+00    3.211681e+00
  9.767634e+00    3.267724e+00
  9.783510e+00    3.154827e+00
  9.799385e+00    3.150409e+00
  9.815261e+00    3.194103e+00
  9.831137e+00    3.121208e+00
  9.847012e+00    3.108889e+00
  9.862888e+00    3.170873e+00
  9.878763e+00    3.114795e+00
  9.894639e+00    3.142306e+00
  9.910514e+00    3.137446e+00
  9.926390e+00    3.073992e+00
  9.942266e+00    3.098976e+00
  9.958141e+00    3.106895e+00
  9.974017e+00    3.126313e+00
  9.989892e+00    3.145488e+00
  1.000577e+01    3.124691e+00
  1.002164e+01    3.140263e+00
  1.003752e+01    3.122310e+00
  1.005339e+01    3.074643e+00
  1.006927e+01    3.074557e+00
  1.008515e+01    3.078646e+00
  1.010102e+01    3.116002e+00
  1.011690e+01    3.046089e+00
  1.013277e+01    3.054914e+00
  1.014865e+01    3.078946e+00
  1.016452e+01    3.099966e+00
  1.018040e+01    3.049746e+00
  1.019627e+01    3.064558e+00
  1.021215e+01    3.101530e+00
  1.022803e+01    3.137813e+00
  1.024390e+01    3.093511e+00
  1.025978e+01    3.048004e+00
  1.027565e+01    3.067714e+00
  1.029153e+01    3.081835e+00
  1.030740e+01    3.050749e+00
  1.032328e+01    3.138541e+00
  1.033915e+01    3.109504e+00
  1.035503e+01    3.092592e+00
  1.037091e+01    3.053751e+00
  1.038678e+01    3.026104e+00
  1.040266e+01    3.031628e+00
  1.041853e+01    3.055403e+00
  1.043441e+01    3.009377e+00
  1.045028e+01    2.996764e+00
  1.046616e+01    3.026503e+00
  1.048204e+01    2.992216e+00
  1.049791e+01    2.982822e+00
  1.051379e+01    3.027379e+00
  1.052966e+01    3.006286e+00
  1.054554e+01    3.054284e+00
  1.056141e+01    3.060041e+00
  1.057729e+01    3.060989e+00
  1.059316e+01    3.027196e+00
  1.060904e+01    3.028622e+00
  1.062492e+01    3.023026e+00
  1.064079e+01    2.975697e+00
  1.065667e+01    2.931852e+00
  1.067254e+01    2.957476e+00
  1.068842e+01    2.999307e+00
  1.070429e+01    3.016596e+00
  1.072017e+01    2.965632e+00
  1.073604e+01    2.947522e+00
  1.075192e+01    2.974936e+00
  1.076780e+01    2.956625e+00
  1.078367e+01    2.955859e+00
  1.079955e+01    2.991801e+00
  1.081542e+01    2.972465e+00
  1.083130e+01    2.984090e+00
  1.084717e+01    2.940577e+00
  1.086305e+01    2.922431e+00
  1.087892e+01    2.961164e+00
  1.089480e+01    2.991755e+00
  1.091068e+01    2.962220e+00
  1.092655e+01    2.918013e+00
  1.094243e+01    2.909899e+00
  1.095830e+01    2.955176e+00
  1.097418e+01    2.958906e+00
  1.099005e+01    2.920225e+00
  1.100593e+01    2.952309e+00
  1.102180e+01    2.900372e+00
  1.103768e+01    2.906240e+00
  1.105356e+01    2.902809e+00
  1.106943e+01    2.909592e+00
  1.108531e+01    2.891675e+00
  1.110118e+01    2.865998e+00
  1.111706e+01    2.934645e+00
  1.113293e+01    2.936287e+00
  1.114881e+01    2.839189e+00
  1.116468e+01    2.874483e+00
  1.118056e+01    2.892622e+00
  1.119644e+01    2.888333e+00
  1.121231e+01    2.912050e+00
  1.122819e+01    2.928096e+00
  1.124406e+01    2.808023e+00
  1.125994e+01    2.825994e+00
  1.127581e+01    2.872396e+00
  1.129169e+01    2.825920e+00
  1.130756e+01    2.827484e+00
  1.132344e+01    2.860243e+00
  1.133932e+01    2.837612e+00
  1.135519e+01    2.866572e+00
  1.137107e+01    2.811203e+00
  1.138694e+01    2.781082e+00
  1.140282e+01    2.800510e+00
  1.141869e+01    2.793101e+00
  1.143457e+01    2.825307e+00
  1.145045e+01    2.856596e+00
  1.146632e+01    2.811387e+00
  1.148220e+01    2.852610e+00
  1.149807e+01    2.841206e+00
  1.151395e+01    2.854944e+00
  1.152982e+01    2.835614e+00
  1.154570e+01    2.771453e+00
  1.156157e+01    2.796289e+00
  1.157745e+01    2.830249e+00
  1.159333e+01    2.829015e+00
  1.160920e+01    2.780529e+00
  1.162508e+01    2.745894e+00
  1.164095e+01    2.792618e+00
  1.165683e+01    2.771760e+00
  1.167270e+01    2.738435e+00
  1.168858e+01    2.763572e+00
  1.170445e+01    2.768864e+00
  1.172033e+01    2.784323e+00
  1.173621e+01    2.757838e+00
  1.175208e+01    2.731702e+00
  1.176796e+01    2.744827e+00
  1.178383e+01    2.761302e+00
  1.179971e+01    2.753026e+00
  1.181558e+01    2.733067e+00
  1.183146e+01    2.745225e+00
  1.184733e+01    2.765322e+00
  1.186321e+01    2.777685e+00
  1.187909e+01    2.745434e+00
  1.189496e+01    2.720115e+00
  1.191084e+01    2.720358e+00
  1.192671e+01    2.722710e+00
  1.194259e+01    2.736228e+00
  1.195846e+01    2.725322e+00
  1.197434e+01    2.739757e+00
  1.199021e+01    2.743650e+00
  1.200609e+01    2.699591e+00
  1.202197e+01    2.708908e+00
  1.203784e+01    2.746861e+00
  1.205372e+01    2.731388e+00
  1.206959e+01    2.709938e+00
  1.208547e+01    2.710562e+00
  1.210134e+01    2.651181e+00
  1.211722e+01    2.680096e+00
  1.213309e+01    2.711799e+00
  1.214897e+01    2.675065e+00
  1.216485e+01    2.743094e+00
  1.218072e+01    2.746407e+00
  1.219660e+01    2.728653e+00
  1.221247e+01    2.702239e+00
  1.222835e+01    2.676189e+00
  1.224422e+01    2.678974e+00
  1.226010e+01    2.727709e+00
  1.227597e+01    2.656139e+00
  1.229185e+01    2.636199e+00
  1.230773e+01    2.644664e+00
  1.232360e+01    2.691265e+00
  1.233948e+01    2.689702e+00
  1.235535e+01    2.700257e+00
  1.237123e+01    2.724612e+00
  1.238710e+01    2.749450e+00
  1.240298e+01    2.663668e+00
  1.241886e+01    2.690250e+00
  1.243473e+01    2.721999e+00
  1.245061e+01    2.704112e+00
  1.246648e+01    2.626865e+00
  1.248236e+01    2.666991e+00
  1.249823e+01    2.737246e+00
  1.251411e+01    2.739339e+00
  1.252998e+01    2.694126e+00
  1.254586e+01    2.680731e+00
  1.256174e+01    2.684952e+00
  1.257761e+01    2.664930e+00
  1.259349e+01    2.673661e+00
  1.260936e+01    2.690892e+00
  1.262524e+01    2.773321e+00
  1.264111e+01    2.786301e+00
  1.265699e+01    2.804358e+00
  1.267286e+01    2.848189e+00
  1.268874e+01    2.853302e+00
  1.270462e+01    2.846077e+00
  1.272049e+01    2.855928e+00
  1.273637e+01    2.883029e+00
  1.275224e+01    2.871094e+00
  1.276812e+01    2.895527e+00
  1.278399e+01    2.923492e+00
  1.279987e+01    3.004545e+00
  1.281574e+01    3.033824e+00
  1.283162e+01    3.087462e+00
  1.284750e+01    3.145801e+00
  1.286337e+01    3.288244e+00
  1.287925e+01    3.384671e+00
  1.289512e+01    3.483204e+00
  1.291100e+01    3.632393e+00
  1.292687e+01    3.819432e+00
  1.294275e+01    4.081175e+00
  1.295862e+01    4.429665e+00
  1.297450e+01    4.759276e+00
  1.299038e+01    5.226582e+00
  1.300625e+01    5.896986e+00
  1.302213e+01    6.692726e+00
  1.303800e+01    7.625661e+00
  1.305388e+01    8.834239e+00
  1.306975e+01    1.014784e+01
  1.308563e+01    1.149359e+01
  1.310150e+01    1.274821e+01
  1.311738e+01    1.383086e+01
  1.313326e+01    1.479209e+01
  1.314913e+01    1.569840e+01
  1.316501e+01    1.624772e+01
  1.318088e+01    1.634717e+01
  1.319676e+01    1.566380e+01
  1.321263e+01    1.433451e+01
  1.322851e+01    1.255460e+01
  1.324438e+01    1.079286e+01
  1.326026e+01    9.187428e+00
  1.327614e+01    7.906320e+00
  1.329201e+01    6.755763e+00
  1.330789e+01    5.995156e+00
  1.332376e+01    5.364050e+00
  1.333964e+01    4.806590e+00
  1.335551e+01    4.415756e+00
  1.337139e+01    4.160577e+00
  1.338727e+01    3.948878e+00
  1.340314e+01    3.710752e+00
  1.341902e+01    3.478423e+00
  1.343489e+01    3.303268e+00
  1.345077e+01    3.196137e+00
  1.346664e+01    3.133127e+00
  1.348252e+01    3.099532e+00
  1.349839e+01    3.022694e+00
  1.351427e+01    2.903965e+00
  1.353015e+01    2.820347e+00
  1.354602e+01    2.780685e+00
  1.356190e+01    2.811777e+00
  1.357777e+01    2.801359e+00
  1.359365e+01    2.748007e+00
  1.360952e+01    2.680139e+00
  1.362540e+01    2.679065e+00
  1.364127e+01    2.624597e+00
  1.365715e+01    2.607475e+00
  1.367303e+01    2.581121e+00
  1.368890e+01    2.593902e+00
  1.370478e+01    2.584260e+00
  1.372065e+01    2.504366e+00
  1.373653e+01    2.523117e+00
  1.375240e+01    2.511767e+00
  1.376828e+01    2.478172e+00
  1.378415e+01    2.451648e+00
  1.380003e+01    2.456228e+00
  1.381591e+01    2.478796e+00
  1.383178e+01    2.482108e+00
  1.384766e+01    2.418489e+00
  1.386353e+01    2.397671e+00
  1.387941e+01    2.422056e+00
  1.389528e+01    2.415560e+00
  1.391116e+01    2.393705e+00
  1.392703e+01    2.391095e+00
  1.394291e+01    2.412903e+00
  1.395879e+01    2.396863e+00
  1.397466e+01    2.413689e+00
  1.399054e+01    2.393218e+00
  1.400641e+01    2.385715e+00
  1.402229e+01    2.361115e+00
  1.403816e+01    2.355072e+00
  1.405404e+01    2.326359e+00
  1.406991e+01    2.327176e+00
  1.408579e+01    2.349364e+00
  1.410167e+01    2.362128e+00
  1.411754e+01    2.372598e+00
  1.413342e+01    2.350872e+00
  1.414929e+01    2.271902e+00
  1.416517e+01    2.313559e+00
  1.418104e+01    2.328076e+00
  1.419692e+01    2.331100e+00
  1.421279e+01    2.317464e+00
  1.422867e+01    2.254130e+00
  1.424455e+01    2.278294e+00
  1.426042e+01    2.309368e+00
  1.427630e+01    2.275063e+00
  1.429217e+01    2.234972e+00
  1.430805e+01    2.244642e+00
  1.432392e+01    2.282687e+00
  1.433980e+01    2.296912e+00
  1.435568e+01    2.257654e+00
  1.437155e+01    2.222986e+00
  1.438743e+01    2.251102e+00
  1.440330e+01    2.280090e+00
  1.441918e+01    2.277394e+00
  1.443505e+01    2.218617e+00
  1.445093e+01    2.238050e+00
  1.446680e+01    2.201776e+00
  1.448268e+01    2.226042e+00
  1.449856e+01    2.202152e+00
  1.451443e+01    2.220376e+00
  1.453031e+01    2.263897e+00
  1.454618e+01    2.263570e+00
  1.456206e+01    2.213857e+00
  1.457793e+01    2.187460e+00
  1.459381e+01    2.218951e+00
  1.460968e+01    2.212980e+00
  1.462556e+01    2.243761e+00
  1.464144e+01    2.268779e+00
  1.465731e+01    2.241160e+00
  1.467319e+01    2.225965e+00
  1.468906e+01    2.196200e+00
  1.470494e+01    2.263572e+00
  1.472081e+01    2.185062e+00
  1.473669e+01    2.204411e+00
  1.475256e+01    2.172765e+00
  1.476844e+01    2.169886e+00
  1.478432e+01    2.182096e+00
  1.480019e+01    2.173074e+00
  1.481607e+01    2.203066e+00
  1.483194e+01    2.219988e+00
  1.484782e+01    2.239651e+00
  1.486369e+01    2.225929e+00
  1.487957e+01    2.187499e+00
  1.489544e+01    2.219183e+00
  1.491132e+01    2.288547e+00
  1.492720e+01    2.305072e+00
  1.494307e+01    2.276672e+00
  1.495895e+01    2.286412e+00
  1.497482e+01    2.372814e+00
  1.499070e+01    2.405727e+00
  1.500657e+01    2.396788e+00
  1.502245e+01    2.491539e+00
  1.503832e+01    2.588458e+00
  1.505420e+01    2.675705e+00
  1.507008e+01    2.829933e+00
  1.508595e+01    2.955656e+00
  1.510183e+01    3.187610e+00
  1.511770e+01    3.425274e+00
  1.513358e+01    3.788833e+00
  1.514945e+01    4.153201e+00
  1.516533e+01    4.505981e+00
  1.518120e+01    4.830246e+00
  1.519708e+01    5.203099e+00
  1.521296e+01    5.444909e+00
  1.522883e+01    5.615883e+00
  1.524471e+01    5.763148e+00
  1.526058e+01    5.848941e+00
  1.527646e+01    5.760674e+00
  1.529233e+01    5.450040e+00
  1.530821e+01    5.108529e+00
  1.532409e+01    4.678944e+00
  1.533996e+01    4.159249e+00
  1.535584e+01    3.773423e+00
  1.537171e+01    3.421174e+00
  1.538759e+01    3.130980e+00
  1.540346e+01    2.951423e+00
  1.541934e+01    2.786034e+00
  1.543521e+01    2.664759e+00
  1.545109e+01    2.581338e+00
  1.546697e+01    2.483211e+00
  1.548284e+01    2.341074e+00
  1.549872e+01    2.294271e+00
  1.551459e+01    2.270072e+00
  1.553047e+01    2.207769e+00
  1.554634e+01    2.185366e+00
  1.556222e+01    2.172959e+00
  1.557809e+01    2.124360e+00
  1.559397e+01    2.099886e+00
  1.560985e+01    2.088510e+00
  1.562572e+01    2.093428e+00
  1.564160e+01    2.074955e+00
  1.565747e+01    2.007370e+00
  1.567335e+01    1.991595e+00
  1.568922e+01    2.014211e+00
  1.570510e+01    1.981684e+00
  1.572097e+01    2.021521e+00
  1.573685e+01    1.992196e+00
  1.575273e+01    1.993870e+00
  1.576860e+01    1.971235e+00
  1.578448e+01    1.975447e+00
  1.580035e+01    1.928143e+00
  1.581623e+01    1.925340e+00
  1.583210e+01    1.945321e+00
  1.584798e+01    1.922107e+00
  1.586385e+01    1.945044e+00
  1.587973e+01    1.917162e+00
  1.589561e+01    1.910885e+00
  1.591148e+01    1.892161e+00
  1.592736e+01    1.876852e+00
  1.594323e+01    1.889021e+00
  1.595911e+01    1.905409e+00
  1.597498e+01    1.892451e+00
  1.599086e+01    1.891015e+00
  1.600673e+01    1.879821e+00
  1.602261e+01    1.877448e+00
  1.603849e+01    1.862421e+00
  1.605436e+01    1.890960e+00
  1.607024e+01    1.910457e+00
  1.608611e+01    1.821082e+00
  1.610199e+01    1.858591e+00
  1.611786e+01    1.852001e+00
  1.613374e+01    1.845462e+00
  1.614961e+01    1.864296e+00
  1.616549e+01    1.825538e+00
  1.618137e+01    1.824099e+00
  1.619724e+01    1.876414e+00
  1.621312e+01    1.836942e+00
  1.622899e+01    1.800072e+00
  1.624487e+01    1.798600e+00
  1.626074e+01    1.797606e+00
  1.627662e+01    1.823498e+00
  1.629250e+01    1.845030e+00
  1.630837e+01    1.796712e+00
  1.632425e+01    1.771921e+00
  1.634012e+01    1.798260e+00
  1.635600e+01    1.800437e+00
  1.637187e+01    1.801565e+00
  1.638775e+01    1.783462e+00
  1.640362e+01    1.797598e+00
  1.641950e+01    1.787012e+00
  1.643538e+01    1.762997e+00
  1.645125e+01    1.770784e+00
  1.646713e+01    1.787735e+00
  1.648300e+01    1.765416e+00
  1.649888e+01    1.761133e+00
  1.651475e+01    1.766094e+00
  1.653063e+01    1.741341e+00
  1.654650e+01    1.734084e+00
  1.656238e+01    1.696432e+00
  1.657826e+01    1.734074e+00
  1.659413e+01    1.736606e+00
  1.661001e+01    1.720825e+00
  1.662588e+01    1.749707e+00
  1.664176e+01    1.748790e+00
  1.665763e+01    1.722366e+00
  1.667351e+01    1.745689e+00
  1.668938e+01    1.747801e+00
  1.670526e+01    1.726326e+00
  1.672114e+01    1.726293e+00
  1.673701e+01    1.704968e+00
  1.675289e+01    1.708221e+00
  1.676876e+01    1.701393e+00
  1.678464e+01    1.679957e+00
  1.680051e+01    1.678139e+00
  1.681639e+01    1.693518e+00
  1.683226e+01    1.697065e+00
  1.684814e+01    1.688812e+00
  1.686402e+01    1.707534e+00
  1.687989e+01    1.689058e+00
  1.689577e+01    1.713772e+00
  1.691164e+01    1.704287e+00
  1.692752e+01    1.701464e+00
  1.694339e+01    1.676810e+00
  1.695927e+01    1.666758e+00
  1.697514e+01    1.672004e+00
  1.699102e+01    1.660007e+00
  1.700690e+01    1.673974e+00
  1.702277e+01    1.687474e+00
  1.703865e+01    1.654200e+00
  1.705452e+01    1.632264e+00
  1.707040e+01    1.631334e+00
  1.708627e+01    1.661399e+00
  1.710215e+01    1.655847e+00
  1.711802e+01    1.650761e+00
  1.713390e+01    1.670309e+00
  1.714978e+01    1.647928e+00
  1.716565e+01    1.609748e+00
  1.718153e+01    1.630842e+00
  1.719740e+01    1.670519e+00
  1.721328e+01    1.644707e+00
  1.722915e+01    1.625152e+00
  1.724503e+01    1.626927e+00
  1.726091e+01    1.634013e+00
  1.727678e+01    1.640933e+00
  1.729266e+01    1.619858e+00
  1.730853e+01    1.595804e+00
  1.732441e+01    1.582815e+00
  1.734028e+01    1.604492e+00
  1.735616e+01    1.622741e+00
  1.737203e+01    1.624349e+00
  1.738791e+01    1.612738e+00
  1.740379e+01    1.616671e+00
  1.741966e+01    1.612909e+00
  1.743554e+01    1.587571e+00
  1.745141e+01    1.596671e+00
  1.746729e+01    1.563877e+00
  1.748316e+01    1.547870e+00
  1.749904e+01    1.604897e+00
  1.751491e+01    1.608830e+00
  1.753079e+01    1.617694e+00
  1.754667e+01    1.603506e+00
  1.756254e+01    1.583100e+00
  1.757842e+01    1.579594e+00
  1.759429e+01    1.569841e+00
  1.761017e+01    1.573877e+00
  1.762604e+01    1.572197e+00
  1.764192e+01    1.536186e+00
  1.765779e+01    1.541858e+00
  1.767367e+01    1.561944e+00
  1.768955e+01    1.541293e+00
  1.770542e+01    1.572324e+00
  1.772130e+01    1.586448e+00
  1.773717e+01    1.556510e+00
  1.775305e+01    1.542327e+00
  1.776892e+01    1.530514e+00
  1.778480e+01    1.531153e+00
  1.780067e+01    1.515516e+00
  1.781655e+01    1.538185e+00
  1.783243e+01    1.537951e+00
  1.784830e+01    1.535449e+00
  1.786418e+01    1.544823e+00
  1.788005e+01    1.533463e+00
  1.789593e+01    1.528619e+00
  1.791180e+01    1.535896e+00
  1.792768e+01    1.535090e+00
  1.794355e+01    1.503220e+00
  1.795943e+01    1.508386e+00
  1.797531e+01    1.508235e+00
  1.799118e+01    1.496823e+00
  1.800706e+01    1.516715e+00
  1.802293e+01    1.501364e+00
  1.803881e+01    1.518199e+00
  1.805468e+01    1.524446e+00
  1.807056e+01    1.508995e+00
  1.808643e+01    1.509486e+00
  1.810231e+01    1.495025e+00
  1.811819e+01    1.515209e+00
  1.813406e+01    1.508782e+00
  1.814994e+01    1.469321e+00
  1.816581e+01    1.460718e+00
  1.818169e+01    1.503911e+00
  1.819756e+01    1.495570e+00
  1.821344e+01    1.521047e+00
  1.822932e+01    1.480664e+00
  1.824519e+01    1.475196e+00
  1.826107e+01    1.468379e+00
  1.827694e+01    1.464990e+00
  1.829282e+01    1.435971e+00
  1.830869e+01    1.442279e+00
  1.832457e+01    1.478340e+00
  1.834044e+01    1.478213e+00
  1.835632e+01    1.475409e+00
  1.837220e+01    1.468257e+00
  1.838807e+01    1.455647e+00
  1.840395e+01    1.460578e+00
  1.841982e+01    1.434146e+00
  1.843570e+01    1.433581e+00
  1.845157e+01    1.432688e+00
  1.846745e+01    1.419059e+00
  1.848332e+01    1.428637e+00
  1.849920e+01    1.424372e+00
  1.851508e+01    1.436462e+00
  1.853095e+01    1.450308e+00
  1.854683e+01    1.436610e+00
  1.856270e+01    1.413602e+00
  1.857858e+01    1.428289e+00
  1.859445e+01    1.461993e+00
  1.861033e+01    1.478143e+00
  1.862620e+01    1.430969e+00
  1.864208e+01    1.413239e+00
  1.865796e+01    1.424545e+00
  1.867383e+01    1.409102e+00
  1.868971e+01    1.423842e+00
  1.870558e+01    1.423911e+00
  1.872146e+01    1.419420e+00
  1.873733e+01    1.421509e+00
  1.875321e+01    1.422420e+00
  1.876908e+01    1.400361e+00
  1.878496e+01    1.411544e+00
  1.880084e+01    1.430335e+00
  1.881671e+01    1.423362e+00
  1.883259e+01    1.434067e+00
  1.884846e+01    1.410504e+00
  1.886434e+01    1.362481e+00
  1.888021e+01    1.371146e+00
  1.889609e+01    1.394416e+00
  1.891196e+01    1.411988e+00
  1.892784e+01    1.398981e+00
  1.894372e+01    1.392972e+00
  1.895959e+01    1.380266e+00
  1.897547e+01    1.392012e+00
  1.899134e+01    1.404113e+00
  1.900722e+01    1.431106e+00
  1.902309e+01    1.382643e+00
  1.903897e+01    1.379197e+00
  1.905484e+01    1.370011e+00
  1.907072e+01    1.406107e+00
  1.908660e+01    1.381135e+00
  1.910247e+01    1.377898e+00
  1.911835e+01    1.365533e+00
  1.913422e+01    1.388925e+00
  1.915010e+01    1.373999e+00
  1.916597e+01    1.341713e+00
  1.918185e+01    1.367640e+00
  1.919773e+01    1.377211e+00
  1.921360e+01    1.358586e+00
  1.922948e+01    1.363771e+00
  1.924535e+01    1.362208e+00
  1.926123e+01    1.353512e+00
  1.927710e+01    1.366795e+00
  1.929298e+01    1.351389e+00
  1.930885e+01    1.345403e+00
  1.932473e+01    1.328368e+00
  1.934061e+01    1.310934e+00
  1.935648e+01    1.366106e+00
  1.937236e+01    1.355298e+00
  1.938823e+01    1.350219e+00
  1.940411e+01    1.334777e+00
  1.941998e+01    1.331143e+00
  1.943586e+01    1.326441e+00
  1.945173e+01    1.365610e+00
  1.946761e+01    1.339374e+00
  1.948349e+01    1.326880e+00
  1.949936e+01    1.323821e+00
  1.951524e+01    1.327075e+00
  1.953111e+01    1.307173e+00
  1.954699e+01    1.315793e+00
  1.956286e+01    1.315481e+00
  1.957874e+01    1.348893e+00
  1.959461e+01    1.314872e+00
  1.961049e+01    1.327495e+00
  1.962637e+01    1.346537e+00
  1.964224e+01    1.340486e+00
  1.965812e+01    1.330509e+00
  1.967399e+01    1.297130e+00
  1.968987e+01    1.299658e+00
  1.970574e+01    1.292207e+00
  1.972162e+01    1.299703e+00
  1.973749e+01    1.337065e+00
  1.975337e+01    1.338651e+00
  1.976925e+01    1.334637e+00
  1.978512e+01    1.298731e+00
  1.980100e+01    1.309196e+00
  1.981687e+01    1.316551e+00
  1.983275e+01    1.303851e+00
  1.984862e+01    1.280782e+00
  1.986450e+01    1.300425e+00
  1.988037e+01    1.307023e+00
  1.989625e+01    1.296525e+00
  1.991213e+01    1.278838e+00
  1.992800e+01    1.261485e+00
  1.994388e+01    1.283788e+00
  1.995975e+01    1.297631e+00
  1.997563e+01    1.272859e+00
  1.999150e+01    1.296807e+00
  2.000738e+01    1.297130e+00
  2.002325e+01    1.294806e+00
  2.003913e+01    1.285327e+00
  2.005501e+01    1.298164e+00
  2.007088e+01    1.295748e+00
  2.008676e+01    1.283366e+00
  2.010263e+01    1.271068e+00
  2.011851e+01    1.282551e+00
  2.013438e+01    1.270805e+00
  2.015026e+01    1.263955e+00
  2.016614e+01    1.252703e+00
  2.018201e+01    1.292694e+00
  2.019789e+01    1.287932e+00
  2.021376e+01    1.277878e+00
  2.022964e+01    1.305634e+00
  2.024551e+01    1.278264e+00
  2.026139e+01    1.288124e+00
  2.027726e+01    1.293066e+00
  2.029314e+01    1.287403e+00
  2.030902e+01    1.263330e+00
  2.032489e+01    1.257911e+00
  2.034077e+01    1.265365e+00
  2.035664e+01    1.278023e+00
  2.037252e+01    1.257630e+00
  2.038839e+01    1.249664e+00
  2.040427e+01    1.234429e+00
  2.042014e+01    1.241739e+00
  2.043602e+01    1.242908e+00
  2.045190e+01    1.268131e+00
  2.046777e+01    1.265450e+00
  2.048365e+01    1.242877e+00
  2.049952e+01    1.240431e+00
  2.051540e+01    1.245190e+00
  2.053127e+01    1.239441e+00
  2.054715e+01    1.254333e+00
  2.056302e+01    1.247483e+00
  2.057890e+01    1.253075e+00
  2.059478e+01    1.265924e+00
  2.061065e+01    1.245867e+00
  2.062653e+01    1.230953e+00
  2.064240e+01    1.222793e+00
  2.065828e+01    1.245674e+00
  2.067415e+01    1.244165e+00
  2.069003e+01    1.224329e+00
  2.070590e+01    1.218011e+00
  2.072178e+01    1.228447e+00
  2.073766e+01    1.228402e+00
  2.075353e+01    1.214793e+00
  2.076941e+01    1.211948e+00
  2.078528e+01    1.244216e+00
  2.080116e+01    1.229226e+00
  2.081703e+01    1.245497e+00
  2.083291e+01    1.235287e+00
  2.084878e+01    1.243280e+00
  2.086466e+01    1.241125e+00
  2.088054e+01    1.234363e+00
  2.089641e+01    1.237489e+00
  2.091229e+01    1.240321e+00
  2.092816e+01    1.206929e+00
  2.094404e+01    1.199638e+00
  2.095991e+01    1.226894e+00
  2.097579e+01    1.218002e+00
  2.099166e+01    1.226859e+00
  2.100754e+01    1.228745e+00
  2.102342e+01    1.223789e+00
  2.103929e+01    1.202004e+00
  2.105517e+01    1.189815e+00
  2.107104e+01    1.225080e+00
  2.108692e+01    1.243929e+00
  2.110279e+01    1.226095e+00
  2.111867e+01    1.200459e+00
  2.113455e+01    1.210278e+00
  2.115042e+01    1.230950e+00
  2.116630e+01    1.222556e+00
  2.118217e+01    1.231752e+00
  2.119805e+01    1.266731e+00
  2.121392e+01    1.284575e+00
  2.122980e+01    1.244061e+00
  2.124567e+01    1.236009e+00
  2.126155e+01    1.237218e+00
  2.127743e+01    1.269054e+00
  2.129330e+01    1.278318e+00
  2.130918e+01    1.249825e+00
  2.132505e+01    1.254579e+00
  2.134093e+01    1.267988e+00
  2.135680e+01    1.294947e+00
  2.137268e+01    1.294480e+00
  2.138855e+01    1.304706e+00
  2.140443e+01    1.313290e+00
  2.142031e+01    1.315927e+00
  2.143618e+01    1.321689e+00
  2.145206e+01    1.325344e+00
  2.146793e+01    1.364135e+00
  2.148381e+01    1.391987e+00
  2.149968e+01    1.429529e+00
  2.151556e+01    1.437812e+00
  2.153143e+01    1.471557e+00
  2.154731e+01    1.534045e+00
  2.156319e+01    1.577835e+00
  2.157906e+01    1.613115e+00
  2.159494e+01    1.679702e+00
  2.161081e+01    1.756042e+00
  2.162669e+01    1.896639e+00
  2.164256e+01    1.993963e+00
  2.165844e+01    2.138928e+00
  2.167431e+01    2.300690e+00
  2.169019e+01    2.523557e+00
  2.170607e+01    2.759445e+00
  2.172194e+01    3.118052e+00
  2.173782e+01    3.486135e+00
  2.175369e+01    4.020679e+00
  2.176957e+01    4.576913e+00
  2.178544e+01    5.191323e+00
  2.180132e+01    5.860790e+00
  2.181719e+01    6.496454e+00
  2.183307e+01    7.146271e+00
  2.184895e+01    7.743187e+00
  2.186482e+01    8.301358e+00
  2.188070e+01    8.747208e+00
  2.189657e+01    8.964100e+00
  2.191245e+01    8.799581e+00
  2.192832e+01    8.281625e+00
  2.194420e+01    7.495787e+00
  2.196007e+01    6.561750e+00
  2.197595e+01    5.701396e+00
  2.199183e+01    4.859012e+00
  2.200770e+01    4.195176e+00
  2.202358e+01    3.621973e+00
  2.203945e+01    3.182700e+00
  2.205533e+01    2.825640e+00
  2.207120e+01    2.563777e+00
  2.208708e+01    2.335226e+00
  2.210296e+01    2.146911e+00
  2.211883e+01    2.040770e+00
  2.213471e+01    1.897783e+00
  2.215058e+01    1.782712e+00
  2.216646e+01    1.667131e+00
  2.218233e+01    1.581396e+00
  2.219821e+01    1.540772e+00
  2.221408e+01    1.486188e+00
  2.222996e+01    1.456132e+00
  2.224584e+01    1.408546e+00
  2.226171e+01    1.387248e+00
  2.227759e+01    1.342209e+00
  2.229346e+01    1.306975e+00
  2.230934e+01    1.283017e+00
  2.232521e+01    1.272660e+00
  2.234109e+01    1.248635e+00
  2.235696e+01    1.233988e+00
  2.237284e+01    1.222732e+00
  2.238872e+01    1.230078e+00
  2.240459e+01    1.213659e+00
  2.242047e+01    1.187167e+00
  2.243634e+01    1.198417e+00
  2.245222e+01    1.176898e+00
  2.246809e+01    1.149126e+00
  2.248397e+01    1.155332e+00
  2.249984e+01    1.150484e+00
  2.251572e+01    1.158377e+00
  2.253160e+01    1.134016e+00
  2.254747e+01    1.116300e+00
  2.256335e+01    1.120360e+00
  2.257922e+01    1.127835e+00
  2.259510e+01    1.113814e+00
  2.261097e+01    1.093849e+00
  2.262685e+01    1.094697e+00
  2.264272e+01    1.088336e+00
  2.265860e+01    1.075537e+00
  2.267448e+01    1.108516e+00
  2.269035e+01    1.107942e+00
  2.270623e+01    1.079568e+00
  2.272210e+01    1.070981e+00
  2.273798e+01    1.073395e+00
  2.275385e+01    1.059907e+00
  2.276973e+01    1.057971e+00
  2.278560e+01    1.066950e+00
  2.280148e+01    1.069825e+00
  2.281736e+01    1.060901e+00
  2.283323e+01    1.065742e+00
  2.284911e+01    1.055977e+00
  2.286498e+01    1.046216e+00
  2.288086e+01    1.041932e+00
  2.289673e+01    1.026339e+00
  2.291261e+01    1.017827e+00
  2.292848e+01    1.017562e+00
  2.294436e+01    1.034177e+00
  2.296024e+01    1.045764e+00
  2.297611e+01    1.018471e+00
  2.299199e+01    1.012282e+00
  2.300786e+01    1.003451e+00
  2.302374e+01    1.003908e+00
  2.303961e+01    1.031902e+00
  2.305549e+01    1.000474e+00
  2.307137e+01    1.016956e+00
  2.308724e+01    1.044299e+00
  2.310312e+01    1.026618e+00
  2.311899e+01    1.003355e+00
  2.313487e+01    9.952884e-01
  2.315074e+01    9.977125e-01
  2.316662e+01    9.824245e-01
  2.318249e+01    1.001016e+00
  2.319837e+01    9.952037e-01
  2.321425e+01    1.001208e+00
  2.323012e+01    9.854745e-01
  2.324600e+01    9.937073e-01
  2.326187e+01    9.797366e-01
  2.327775e+01    9.912121e-01
  2.329362e+01    1.004329e+00
  2.330950e+01    1.004912e+00
  2.332537e+01    1.014952e+00
  2.334125e+01    1.000277e+00
  2.335713e+01    9.744128e-01
  2.337300e+01    9.919773e-01
  2.338888e+01    9.945681e-01
  2.340475e+01    9.795858e-01
  2.342063e+01    9.734449e-01
  2.343650e+01    9.608857e-01
  2.345238e+01    9.564913e-01
  2.346825e+01    9.814438e-01
  2.348413e+01    9.985107e-01
  2.350001e+01    9.668887e-01
  2.351588e+01    9.718711e-01
  2.353176e+01    9.596042e-01
  2.354763e+01    9.602495e-01
  2.356351e+01    9.617762e-01
  2.357938e+01    9.719055e-01
  2.359526e+01    9.740251e-01
  2.361113e+01    9.667203e-01
  2.362701e+01    9.553093e-01
  2.364289e+01    9.507875e-01
  2.365876e+01    9.443479e-01
  2.367464e+01    9.360214e-01
  2.369051e+01    9.332885e-01
  2.370639e+01    9.467240e-01
  2.372226e+01    9.414328e-01
  2.373814e+01    9.181798e-01
  2.375401e+01    9.150521e-01
  2.376989e+01    9.147559e-01
  2.378577e+01    9.189512e-01
  2.380164e+01    9.179033e-01
  2.381752e+01    9.341010e-01
  2.383339e+01    9.135866e-01
  2.384927e+01    8.881654e-01
  2.386514e+01    9.163278e-01
  2.388102e+01    9.275971e-01
  2.389689e+01    9.049455e-01
  2.391277e+01    9.055097e-01
  2.392865e+01    8.829881e-01
  2.394452e+01    9.185984e-01
  2.396040e+01    9.202913e-01
  2.397627e+01    9.028675e-01
  2.399215e+01    9.023020e-01
  2.400802e+01    9.108058e-01
  2.402390e+01    9.153129e-01
  2.403978e+01    9.110037e-01
  2.405565e+01    9.117609e-01
  2.407153e+01    9.040194e-01
  2.408740e+01    8.961183e-01
  2.410328e+01    8.826512e-01
  2.411915e+01    8.748868e-01
  2.413503e+01    8.818981e-01
  2.415090e+01    8.949971e-01
  2.416678e+01    8.857216e-01
  2.418266e+01    8.960443e-01
  2.419853e+01    8.718320e-01
  2.421441e+01    8.699617e-01
  2.423028e+01    8.891380e-01
  2.424616e+01    8.960159e-01
  2.426203e+01    8.816213e-01
  2.427791e+01    8.801380e-01
  2.429378e+01    8.928781e-01
  2.430966e+01    8.972237e-01
  2.432554e+01    8.802498e-01
  2.434141e+01    8.895882e-01
  2.435729e+01    9.024855e-01
  2.437316e+01    8.927821e-01
  2.438904e+01    8.815042e-01
  2.440491e+01    8.839775e-01
  2.442079e+01    8.733525e-01
  2.443666e+01    9.028025e-01
  2.445254e+01    9.080805e-01
  2.446842e+01    8.901468e-01
  2.448429e+01    8.938065e-01
  2.450017e+01    8.922839e-01
  2.451604e+01    8.891420e-01
  2.453192e+01    9.000371e-01
  2.454779e+01    9.078146e-01
  2.456367e+01    9.029616e-01
  2.457954e+01    8.958636e-01
  2.459542e+01    8.849085e-01
  2.461130e+01    8.725914e-01
  2.462717e+01    9.049559e-01
  2.464305e+01    8.875519e-01
  2.465892e+01    8.866329e-01
  2.467480e+01    8.856445e-01
  2.469067e+01    8.735383e-01
  2.470655e+01    8.808399e-01
  2.472242e+01    8.935619e-01
  2.473830e+01    8.957757e-01
  2.475418e+01    8.869873e-01
  2.477005e+01    8.919601e-01
  2.478593e+01    8.951589e-01
  2.480180e+01    9.186693e-01
  2.481768e+01    8.985830e-01
  2.483355e+01    8.859813e-01
  2.484943e+01    8.801392e-01
  2.486530e+01    8.940023e-01
  2.488118e+01    8.936595e-01
  2.489706e+01    8.816397e-01
  2.491293e+01    8.684899e-01
  2.492881e+01    8.875914e-01
  2.494468e+01    9.107409e-01
  2.496056e+01    8.973877e-01
  2.497643e+01    8.807289e-01
  2.499231e+01    8.874071e-01
  2.500819e+01    9.066320e-01
  2.502406e+01    8.847901e-01
  2.503994e+01    9.018498e-01
  2.505581e+01    9.151491e-01
  2.507169e+01    9.005451e-01
  2.508756e+01    8.993183e-01
  2.510344e+01    8.994623e-01
  2.511931e+01    8.958766e-01
  2.513519e+01    9.057938e-01
  2.515107e+01    9.230703e-01
  2.516694e+01    9.158506e-01
  2.518282e+01    9.328929e-01
  2.519869e+01    9.420282e-01
  2.521457e+01    9.340813e-01
  2.523044e+01    9.300519e-01
  2.524632e+01    9.458442e-01
  2.526219e+01    9.639837e-01
  2.527807e+01    9.329364e-01
  2.529395e+01    9.382832e-01
  2.530982e+01    9.668703e-01
  2.532570e+01    9.768977e-01
  2.534157e+01    9.906846e-01
  2.535745e+01    9.715174e-01
  2.537332e+01    9.651099e-01
  2.538920e+01    9.889262e-01
  2.540507e+01    9.993119e-01
  2.542095e+01    1.002071e+00
  2.543683e+01    1.019737e+00
  2.545270e+01    1.036618e+00
  2.546858e+01    1.027557e+00
  2.548445e+01    1.040585e+00
  2.550033e+01    1.044211e+00
  2.551620e+01    1.054504e+00
  2.553208e+01    1.075864e+00
  2.554795e+01    1.116861e+00
  2.556383e+01    1.141601e+00
  2.557971e+01    1.165902e+00
  2.559558e+01    1.201030e+00
  2.561146e+01    1.224969e+00
  2.562733e+01    1.261781e+00
  2.564321e+01    1.302050e+00
  2.565908e+01    1.369118e+00
  2.567496e+01    1.425062e+00
  2.569083e+01    1.480021e+00
  2.570671e+01    1.590752e+00
  2.572259e+01    1.674903e+00
  2.573846e+01    1.826389e+00
  2.575434e+01    1.982760e+00
  2.577021e+01    2.204053e+00
  2.578609e+01    2.498261e+00
  2.580196e+01    2.800493e+00
  2.581784e+01    3.179116e+00
  2.583371e+01    3.620491e+00
  2.584959e+01    4.115554e+00
  2.586547e+01    4.707789e+00
  2.588134e+01    5.242223e+00
  2.589722e+01    5.817766e+00
  2.591309e+01    6.344172e+00
  2.592897e+01    6.816458e+00
  2.594484e+01    7.057142e+00
  2.596072e+01    7.095349e+00
  2.597660e+01    6.940269e+00
  2.599247e+01    6.545759e+00
  2.600835e+01    5.988158e+00
  2.602422e+01    5.337165e+00
  2.604010e+01    4.668268e+00
  2.605597e+01    4.030252e+00
  2.607185e+01    3.477923e+00
  2.608772e+01    3.015516e+00
  2.610360e+01    2.635977e+00
  2.611948e+01    2.348269e+00
  2.613535e+01    2.153943e+00
  2.615123e+01    1.924764e+00
  2.616710e+01    1.802476e+00
  2.618298e+01    1.675652e+00
  2.619885e+01    1.571886e+00
  2.621473e+01    1.511955e+00
  2.623060e+01    1.407132e+00
  2.624648e+01    1.334345e+00
  2.626236e+01    1.305946e+00
  2.627823e+01    1.270446e+00
  2.629411e+01    1.244617e+00
  2.630998e+01    1.173303e+00
  2.632586e+01    1.164894e+00
  2.634173e+01    1.138446e+00
  2.635761e+01    1.130580e+00
  2.637348e+01    1.094696e+00
  2.638936e+01    1.087411e+00
  2.640524e+01    1.067578e+00
  2.642111e+01    1.038756e+00
  2.643699e+01    1.011445e+00
  2.645286e+01    1.027375e+00
  2.646874e+01    1.039374e+00
  2.648461e+01    1.006397e+00
  2.650049e+01    1.024015e+00
  2.651636e+01    1.001172e+00
  2.653224e+01    9.873453e-01
  2.654812e+01    1.005525e+00
  2.656399e+01    9.896622e-01
  2.657987e+01    9.844463e-01
  2.659574e+01    9.738904e-01
  2.661162e+01    9.744878e-01
  2.662749e+01    9.860089e-01
  2.664337e+01    9.664907e-01
  2.665924e+01    9.980165e-01
  2.667512e+01    9.822460e-01
  2.669100e+01    9.869534e-01
  2.670687e+01    9.738600e-01
  2.672275e+01    9.805584e-01
  2.673862e+01    9.593791e-01
  2.675450e+01    9.585575e-01
  2.677037e+01    9.846634e-01
  2.678625e+01    9.828150e-01
  2.680212e+01    9.815989e-01
  2.681800e+01    9.913381e-01
  2.683388e+01    9.812847e-01
  2.684975e+01    9.965038e-01
  2.686563e+01    9.858494e-01
  2.688150e+01    9.978350e-01
  2.689738e+01    9.776804e-01
  2.691325e+01    1.008212e+00
  2.692913e+01    1.025529e+00
  2.694501e+01    1.020717e+00
  2.696088e+01    1.030887e+00
  2.697676e+01    1.054340e+00
  2.699263e+01    1.073601e+00
  2.700851e+01    1.111327e+00
  2.702438e+01    1.138566e+00
  2.704026e+01    1.186439e+00
  2.705613e+01    1.241548e+00
  2.707201e+01    1.304114e+00
  2.708789e+01    1.387830e+00
  2.710376e+01    1.505800e+00
  2.711964e+01    1.601688e+00
  2.713551e+01    1.711122e+00
  2.715139e+01    1.847339e+00
  2.716726e+01    1.950292e+00
  2.718314e+01    2.075938e+00
  2.719901e+01    2.153323e+00
  2.721489e+01    2.163526e+00
  2.723077e+01    2.102970e+00
  2.724664e+01    2.055450e+00
  2.726252e+01    1.954461e+00
  2.727839e+01    1.855000e+00
  2.729427e+01    1.720322e+00
  2.731014e+01    1.568226e+00
  2.732602e+01    1.461751e+00
  2.734189e+01    1.351224e+00
  2.735777e+01    1.260581e+00
  2.737365e+01    1.214892e+00
  2.738952e+01    1.169917e+00
  2.740540e+01    1.125936e+00
  2.742127e+01    1.096276e+00
  2.743715e+01    1.073362e+00
  2.745302e+01    1.048741e+00
  2.746890e+01    1.026521e+00
  2.748477e+01    9.999987e-01
  2.750065e+01    9.834120e-01
  2.751653e+01    9.715610e-01
  2.753240e+01    9.777482e-01
  2.754828e+01    9.776766e-01
  2.756415e+01    9.528102e-01
  2.758003e+01    9.426982e-01
  2.759590e+01    9.367819e-01
  2.761178e+01    9.420701e-01
  2.762765e+01    9.345049e-01
  2.764353e+01    9.237462e-01
  2.765941e+01    9.132255e-01
  2.767528e+01    8.810605e-01
  2.769116e+01    8.953472e-01
  2.770703e+01    9.070998e-01
  2.772291e+01    9.137179e-01
  2.773878e+01    9.170104e-01
  2.775466e+01    9.102891e-01
  2.777054e+01    8.823164e-01
  2.778641e+01    8.923494e-01
  2.780229e+01    8.877709e-01
  2.781816e+01    8.950439e-01
  2.783404e+01    8.981029e-01
  2.784991e+01    8.920396e-01
  2.786579e+01    8.846169e-01
  2.788166e+01    8.783963e-01
  2.789754e+01    8.671014e-01
  2.791342e+01    8.782131e-01
  2.792929e+01    8.739895e-01
  2.794517e+01    8.763489e-01
  2.796104e+01    8.779584e-01
  2.797692e+01    8.647258e-01
  2.799279e+01    8.439601e-01
  2.800867e+01    8.463802e-01
  2.802454e+01    8.519976e-01
  2.804042e+01    8.725486e-01
  2.805630e+01    8.448696e-01
  2.807217e+01    8.594069e-01
  2.808805e+01    8.591755e-01
  2.810392e+01    8.539429e-01
  2.811980e+01    8.537986e-01
  2.813567e+01    8.764163e-01
  2.815155e+01    8.827626e-01
  2.816742e+01    8.501508e-01
  2.818330e+01    8.521511e-01
  2.819918e+01    8.660332e-01
  2.821505e+01    8.534708e-01
  2.823093e+01    8.505150e-01
  2.824680e+01    8.465441e-01
  2.826268e+01    8.461506e-01
  2.827855e+01    8.553497e-01
  2.829443e+01    8.780761e-01
  2.831030e+01    8.684453e-01
  2.832618e+01    8.522952e-01
  2.834206e+01    8.429456e-01
  2.835793e+01    8.467025e-01
  2.837381e+01    8.423494e-01
  2.838968e+01    8.452124e-01
  2.840556e+01    8.320612e-01
  2.842143e+01    8.363672e-01
  2.843731e+01    8.442369e-01
  2.845318e+01    8.423795e-01
  2.846906e+01    8.369032e-01
  2.848494e+01    8.172847e-01
  2.850081e+01    8.337331e-01
  2.851669e+01    8.330442e-01
  2.853256e+01    8.462923e-01
  2.854844e+01    8.396308e-01
  2.856431e+01    8.196876e-01
  2.858019e+01    8.335666e-01
  2.859606e+01    8.293360e-01
  2.861194e+01    8.535547e-01
  2.862782e+01    8.510302e-01
  2.864369e+01    8.485090e-01
  2.865957e+01    8.217420e-01
  2.867544e+01    8.452333e-01
  2.869132e+01    8.404930e-01
  2.870719e+01    8.548945e-01
  2.872307e+01    8.203755e-01
  2.873895e+01    8.384408e-01
  2.875482e+01    8.268450e-01
  2.877070e+01    8.224123e-01
  2.878657e+01    8.106979e-01
  2.880245e+01    8.162334e-01
  2.881832e+01    8.205449e-01
  2.883420e+01    8.280996e-01
  2.885007e+01    8.354406e-01
  2.886595e+01    8.303938e-01
  2.888183e+01    8.041892e-01
  2.889770e+01    8.240482e-01
  2.891358e+01    8.288055e-01
  2.892945e+01    8.186774e-01
  2.894533e+01    8.351671e-01
  2.896120e+01    8.271419e-01
  2.897708e+01    8.231270e-01
  2.899295e+01    7.990329e-01
  2.900883e+01    8.063686e-01
  2.902471e+01    8.295035e-01
  2.904058e+01    8.169442e-01
  2.905646e+01    8.177266e-01
  2.907233e+01    8.122221e-01
  2.908821e+01    8.265383e-01
  2.910408e+01    8.182948e-01
  2.911996e+01    8.248200e-01
  2.913583e+01    8.226128e-01
  2.915171e+01    8.226991e-01
  2.916759e+01    8.037513e-01
  2.918346e+01    8.064763e-01
  2.919934e+01    8.142899e-01
  2.921521e+01    8.243785e-01
  2.923109e+01    8.181522e-01
  2.924696e+01    8.061267e-01
  2.926284e+01    8.245282e-01
  2.927871e+01    8.180770e-01
  2.929459e+01    8.113513e-01
  2.931047e+01    8.131108e-01
  2.932634e+01    8.113704e-01
  2.934222e+01    8.177224e-01
  2.935809e+01    8.196791e-01
  2.937397e+01    8.183708e-01
  2.938984e+01    8.094915e-01
  2.940572e+01    8.236806e-01
  2.942159e+01    8.102257e-01
  2.943747e+01    8.133319e-01
  2.945335e+01    7.871967e-01
  2.946922e+01    7.956377e-01
  2.948510e+01    8.077771e-01
  2.950097e+01    8.062398e-01
  2.951685e+01    8.086361e-01
  2.953272e+01    8.035584e-01
  2.954860e+01    8.018590e-01
  2.956447e+01    8.061395e-01
  2.958035e+01    8.040422e-01
  2.959623e+01    7.878112e-01
  2.961210e+01    8.096122e-01
  2.962798e+01    8.074563e-01
  2.964385e+01    8.043455e-01
  2.965973e+01    7.977056e-01
  2.967560e+01    7.955709e-01
  2.969148e+01    7.706524e-01
  2.970736e+01    7.819636e-01
  2.972323e+01    8.094962e-01
  2.973911e+01    8.099308e-01
  2.975498e+01    8.035740e-01
  2.977086e+01    7.904924e-01
  2.978673e+01    7.796063e-01
  2.980261e+01    7.924398e-01
  2.981848e+01    7.967589e-01
  2.983436e+01    7.979388e-01
  2.985024e+01    8.032848e-01
  2.986611e+01    7.863950e-01
  2.988199e+01    7.877200e-01
  2.989786e+01    7.966611e-01
  2.991374e+01    7.961961e-01
  2.992961e+01    7.895738e-01
  2.994549e+01    8.214145e-01
  2.996136e+01    8.088195e-01
  2.997724e+01    7.965925e-01
  2.999312e+01    8.116897e-01
  3.000899e+01    8.228180e-01
  3.002487e+01    8.244216e-01
  3.004074e+01    8.020055e-01
  3.005662e+01    7.942039e-01
  3.007249e+01    8.279164e-01
  3.008837e+01    8.194052e-01
  3.010424e+01    7.936021e-01
  3.012012e+01    8.139602e-01
  3.013600e+01    8.196847e-01
  3.015187e+01    7.999153e-01
  3.016775e+01    7.890193e-01
  3.018362e+01    7.930861e-01
  3.019950e+01    7.767276e-01
  3.021537e+01    7.855165e-01
  3.023125e+01    7.718182e-01
  3.024712e+01    7.881279e-01
  3.026300e+01    8.070393e-01
  3.027888e+01    7.772517e-01
  3.029475e+01    8.018655e-01
  3.031063e+01    7.863679e-01
  3.032650e+01    7.684490e-01
  3.034238e+01    7.552437e-01
  3.035825e+01    7.765618e-01
  3.037413e+01    7.954541e-01
  3.039000e+01    7.821790e-01
  3.040588e+01    7.851810e-01
  3.042176e+01    7.902929e-01
  3.043763e+01    7.792916e-01
  3.045351e+01    7.635936e-01
  3.046938e+01    7.669920e-01
  3.048526e+01    7.831690e-01
  3.050113e+01    7.788830e-01
  3.051701e+01    7.842086e-01
  3.053288e+01    7.990595e-01
  3.054876e+01    8.015375e-01
  3.056464e+01    8.092028e-01
  3.058051e+01    7.899812e-01
  3.059639e+01    7.881267e-01
  3.061226e+01    8.120750e-01
  3.062814e+01    8.009441e-01
  3.064401e+01    7.868273e-01
  3.065989e+01    7.805429e-01
  3.067577e+01    7.877522e-01
  3.069164e+01    7.838936e-01
  3.070752e+01    7.862661e-01
  3.072339e+01    7.889770e-01
  3.073927e+01    7.923415e-01
  3.075514e+01    8.048621e-01
  3.077102e+01    7.906585e-01
  3.078689e+01    7.883323e-01
  3.080277e+01    7.706276e-01
  3.081865e+01    7.804965e-01
  3.083452e+01    7.949939e-01
  3.085040e+01    7.823510e-01
  3.086627e+01    7.879699e-01
  3.088215e+01    7.862580e-01
  3.089802e+01    7.696088e-01
  3.091390e+01    7.942126e-01
  3.092977e+01    8.287596e-01
  3.094565e+01    7.832344e-01
  3.096153e+01    7.764420e-01
  3.097740e+01    8.005757e-01
  3.099328e+01    7.918089e-01
  3.100915e+01    8.073814e-01
  3.102503e+01    8.003619e-01
  3.104090e+01    8.072523e-01
  3.105678e+01    7.837337e-01
  3.107265e+01    7.641475e-01
  3.108853e+01    7.814655e-01
  3.110441e+01    7.963443e-01
  3.112028e+01    7.721177e-01
  3.113616e+01    7.680867e-01
  3.115203e+01    7.794300e-01
  3.116791e+01    7.774693e-01
  3.118378e+01    7.869398e-01
  3.119966e+01    7.904023e-01
  3.121553e+01    7.846213e-01
  3.123141e+01    7.781677e-01
  3.124729e+01    7.954698e-01
  3.126316e+01    8.114854e-01
  3.127904e+01    8.024352e-01
  3.129491e+01    7.967535e-01
  3.131079e+01    8.258409e-01
  3.132666e+01    8.103099e-01
  3.134254e+01    8.042293e-01
  3.135841e+01    7.913785e-01
  3.137429e+01    8.000325e-01
  3.139017e+01    8.140503e-01
  3.140604e+01    8.148980e-01
  3.142192e+01    8.225584e-01
  3.143779e+01    8.155918e-01
  3.145367e+01    7.890263e-01
  3.146954e+01    8.090236e-01
  3.148542e+01    8.362481e-01
  3.150129e+01    8.564949e-01
  3.151717e+01    8.448153e-01
  3.153305e+01    8.394215e-01
  3.154892e+01    8.386621e-01
  3.156480e+01    8.710827e-01
  3.158067e+01    8.675361e-01
  3.159655e+01    8.567073e-01
  3.161242e+01    8.939310e-01
  3.162830e+01    8.879866e-01
  3.164418e+01    9.044228e-01
  3.166005e+01    9.389371e-01
  3.167593e+01    9.707966e-01
  3.169180e+01    1.014089e+00
  3.170768e+01    1.006627e+00
  3.172355e+01    1.045449e+00
  3.173943e+01    1.082523e+00
  3.175530e+01    1.153704e+00
  3.177118e+01    1.230834e+00
  3.178706e+01    1.323183e+00
  3.180293e+01    1.448732e+00
  3.181881e+01    1.567665e+00
  3.183468e+01    1.729347e+00
  3.185056e+01    1.831313e+00
  3.186643e+01    1.924237e+00
  3.188231e+01    2.039433e+00
  3.189818e+01    2.079431e+00
  3.191406e+01    2.079564e+00
  3.192994e+01    2.026896e+00
  3.194581e+01    1.905786e+00
  3.196169e+01    1.825184e+00
  3.197756e+01    1.687656e+00
  3.199344e+01    1.584802e+00
  3.200931e+01    1.446951e+00
  3.202519e+01    1.354978e+00
  3.204106e+01    1.209862e+00
  3.205694e+01    1.166553e+00
  3.207282e+01    1.124269e+00
  3.208869e+01    1.029872e+00
  3.210457e+01    1.001436e+00
  3.212044e+01    9.769495e-01
  3.213632e+01    9.379863e-01
  3.215219e+01    9.171216e-01
  3.216807e+01    9.236744e-01
  3.218394e+01    9.040437e-01
  3.219982e+01    8.896086e-01
  3.221570e+01    8.522059e-01
  3.223157e+01    8.438708e-01
  3.224745e+01    8.380918e-01
  3.226332e+01    8.450878e-01
  3.227920e+01    8.327237e-01
  3.229507e+01    8.391365e-01
  3.231095e+01    8.040724e-01
  3.232682e+01    7.975664e-01
  3.234270e+01    8.080106e-01
  3.235858e+01    7.923058e-01
  3.237445e+01    8.134113e-01
  3.239033e+01    8.090519e-01
  3.240620e+01    7.869278e-01
  3.242208e+01    7.834759e-01
  3.243795e+01    7.762496e-01
  3.245383e+01    7.798719e-01
  3.246970e+01    7.772686e-01
  3.248558e+01    7.725579e-01
  3.250146e+01    7.752178e-01
  3.251733e+01    7.819021e-01
  3.253321e+01    7.890502e-01
  3.254908e+01    7.804644e-01
