# == pyFAI calibration ==
# Distance Sample to Detector: 0.3999999939076516 m
# PONI: 9.750e-02, 1.135e-01 m
# Rotations: -0.000175 0.000000 -0.000000 rad
# 
# == Fit2d calibration ==
# Distance Sample-beamCenter: 400.000 mm
# Center: x=1514.000, y=1300.000 pix
# Tilt: 0.010 deg  TiltPlanRot: 0.010 deg
# 
# Detector Detector	 Spline= None	 PixelSize= 7.500e-05, 7.500e-05 m
#    Detector has a mask: False 
#    Detector has a dark current: False 
#    detector has a flat field: False 
# 
# Wavelength: 6.888e-11 m
# Mask applied: user provided
# Dark current applied: False
# Flat field applied: False
# Polarization factor: 0.99
# Normalization factor: 1.0
# --> /home/myspot/data/2024_07_Rosario/Ru-CGO-ex/2024-07-27_003_Ru-CGO-ex_Reaction_dwell_000023_data_000030.dat
#       q_nm^-1             I 
  2.003187e-02    9.938470e-02
  3.590745e-02    1.561102e-01
  5.178302e-02    1.910478e-02
  6.765859e-02    1.985621e-02
  8.353417e-02    1.556468e-01
  9.940974e-02    7.797404e-02
  1.152853e-01    5.198565e-02
  1.311609e-01    1.106223e-01
  1.470365e-01    5.760422e-02
  1.629120e-01    4.486210e-02
  1.787876e-01    6.362924e-02
  1.946632e-01    9.298944e-02
  2.105388e-01    6.456271e-02
  2.264143e-01    5.842327e-04
  2.422899e-01    6.253635e-03
  2.581655e-01    4.828318e-02
  2.740411e-01    5.111294e-02
  2.899166e-01    6.208762e-02
  3.057922e-01    5.130352e-02
  3.216678e-01    3.996557e-02
  3.375433e-01    4.944372e-02
  3.534189e-01    5.363058e-02
  3.692945e-01    4.521212e-02
  3.851701e-01    6.255744e-02
  4.010456e-01    4.906477e-02
  4.169212e-01    4.395263e-02
  4.327968e-01    3.812177e-02
  4.486724e-01    4.420345e-02
  4.645479e-01    5.533807e-02
  4.804235e-01    5.986834e-02
  4.962991e-01    1.866323e-02
  5.121747e-01    8.572042e-03
  5.280502e-01    2.923350e-02
  5.439258e-01    4.204701e-02
  5.598014e-01    4.850382e-02
  5.756770e-01    1.319911e-02
  5.915525e-01    1.666701e-02
  6.074281e-01    3.100901e-02
  6.233037e-01    3.207912e-02
  6.391793e-01    1.835655e-02
  6.550548e-01    3.694298e-02
  6.709304e-01    4.927344e-02
  6.868060e-01    5.517610e-02
  7.026815e-01    4.858929e-02
  7.185571e-01    3.435655e-02
  7.344327e-01    2.768621e-02
  7.503083e-01    2.857233e-02
  7.661838e-01    6.584492e-02
  7.820594e-01    1.443441e-01
  7.979350e-01    2.021689e-01
  8.138106e-01    2.501871e-01
  8.296861e-01    2.719648e-01
  8.455617e-01    3.503960e-01
  8.614373e-01    3.727947e-01
  8.773129e-01    4.744844e-01
  8.931884e-01    6.387693e-01
  9.090640e-01    6.852368e-01
  9.249396e-01    7.619354e-01
  9.408152e-01    8.555483e-01
  9.566907e-01    1.006337e+00
  9.725663e-01    1.020402e+00
  9.884419e-01    1.043051e+00
  1.004317e+00    1.082699e+00
  1.020193e+00    1.231946e+00
  1.036069e+00    1.357055e+00
  1.051944e+00    1.533978e+00
  1.067820e+00    1.678070e+00
  1.083695e+00    1.618632e+00
  1.099571e+00    1.685069e+00
  1.115446e+00    1.617117e+00
  1.131322e+00    1.587403e+00
  1.147198e+00    1.522158e+00
  1.163073e+00    1.610121e+00
  1.178949e+00    1.761874e+00
  1.194824e+00    1.845925e+00
  1.210700e+00    1.998124e+00
  1.226575e+00    2.324496e+00
  1.242451e+00    2.558773e+00
  1.258327e+00    2.540626e+00
  1.274202e+00    2.486790e+00
  1.290078e+00    2.584325e+00
  1.305953e+00    2.555626e+00
  1.321829e+00    2.744328e+00
  1.337705e+00    2.763655e+00
  1.353580e+00    2.767913e+00
  1.369456e+00    2.738957e+00
  1.385331e+00    2.760790e+00
  1.401207e+00    2.882589e+00
  1.417082e+00    2.936368e+00
  1.432958e+00    2.941569e+00
  1.448834e+00    2.977318e+00
  1.464709e+00    3.020068e+00
  1.480585e+00    2.989030e+00
  1.496460e+00    3.010611e+00
  1.512336e+00    3.121519e+00
  1.528211e+00    3.101497e+00
  1.544087e+00    3.191849e+00
  1.559963e+00    3.339463e+00
  1.575838e+00    3.268147e+00
  1.591714e+00    3.124949e+00
  1.607589e+00    3.138993e+00
  1.623465e+00    3.194473e+00
  1.639340e+00    3.194808e+00
  1.655216e+00    3.244639e+00
  1.671092e+00    3.215947e+00
  1.686967e+00    3.125367e+00
  1.702843e+00    3.186899e+00
  1.718718e+00    3.098113e+00
  1.734594e+00    3.024808e+00
  1.750469e+00    2.928486e+00
  1.766345e+00    3.009791e+00
  1.782221e+00    3.016431e+00
  1.798096e+00    3.131027e+00
  1.813972e+00    3.069777e+00
  1.829847e+00    2.891868e+00
  1.845723e+00    2.976157e+00
  1.861598e+00    3.087390e+00
  1.877474e+00    3.023852e+00
  1.893350e+00    2.980424e+00
  1.909225e+00    3.074818e+00
  1.925101e+00    3.030125e+00
  1.940976e+00    2.943094e+00
  1.956852e+00    3.086825e+00
  1.972727e+00    3.057569e+00
  1.988603e+00    3.116428e+00
  2.004479e+00    3.178349e+00
  2.020354e+00    3.144343e+00
  2.036230e+00    3.109431e+00
  2.052105e+00    3.155030e+00
  2.067981e+00    3.043247e+00
  2.083856e+00    3.143210e+00
  2.099732e+00    3.012308e+00
  2.115608e+00    3.020171e+00
  2.131483e+00    3.176685e+00
  2.147359e+00    3.278116e+00
  2.163234e+00    3.201818e+00
  2.179110e+00    3.166502e+00
  2.194985e+00    3.080979e+00
  2.210861e+00    3.186431e+00
  2.226737e+00    3.235098e+00
  2.242612e+00    3.177367e+00
  2.258488e+00    3.136991e+00
  2.274363e+00    3.196868e+00
  2.290239e+00    3.225532e+00
  2.306115e+00    3.237406e+00
  2.321990e+00    3.147864e+00
  2.337866e+00    3.098457e+00
  2.353741e+00    3.125697e+00
  2.369617e+00    3.200181e+00
  2.385492e+00    3.273602e+00
  2.401368e+00    3.159540e+00
  2.417244e+00    3.090078e+00
  2.433119e+00    3.230406e+00
  2.448995e+00    3.215471e+00
  2.464870e+00    3.162177e+00
  2.480746e+00    3.232777e+00
  2.496621e+00    3.115113e+00
  2.512497e+00    3.068189e+00
  2.528373e+00    3.227291e+00
  2.544248e+00    3.184205e+00
  2.560124e+00    3.061677e+00
  2.575999e+00    3.191011e+00
  2.591875e+00    3.260461e+00
  2.607750e+00    3.214471e+00
  2.623626e+00    3.237395e+00
  2.639502e+00    3.290717e+00
  2.655377e+00    3.218166e+00
  2.671253e+00    3.280110e+00
  2.687128e+00    3.344012e+00
  2.703004e+00    3.335693e+00
  2.718879e+00    3.266530e+00
  2.734755e+00    3.206387e+00
  2.750631e+00    3.307193e+00
  2.766506e+00    3.226543e+00
  2.782382e+00    3.250325e+00
  2.798257e+00    3.198687e+00
  2.814133e+00    3.246053e+00
  2.830008e+00    3.221843e+00
  2.845884e+00    3.323894e+00
  2.861760e+00    3.390026e+00
  2.877635e+00    3.392706e+00
  2.893511e+00    3.432559e+00
  2.909386e+00    3.352793e+00
  2.925262e+00    3.421814e+00
  2.941137e+00    3.377135e+00
  2.957013e+00    3.339308e+00
  2.972889e+00    3.344909e+00
  2.988764e+00    3.269084e+00
  3.004640e+00    3.353302e+00
  3.020515e+00    3.293665e+00
  3.036391e+00    3.268134e+00
  3.052266e+00    3.301930e+00
  3.068142e+00    3.296339e+00
  3.084018e+00    3.297528e+00
  3.099893e+00    3.420097e+00
  3.115769e+00    3.421998e+00
  3.131644e+00    3.454341e+00
  3.147520e+00    3.374802e+00
  3.163395e+00    3.396608e+00
  3.179271e+00    3.372131e+00
  3.195147e+00    3.220858e+00
  3.211022e+00    3.244640e+00
  3.226898e+00    3.354259e+00
  3.242773e+00    3.459326e+00
  3.258649e+00    3.375979e+00
  3.274525e+00    3.402524e+00
  3.290400e+00    3.399185e+00
  3.306276e+00    3.410667e+00
  3.322151e+00    3.417576e+00
  3.338027e+00    3.419234e+00
  3.353902e+00    3.424335e+00
  3.369778e+00    3.394596e+00
  3.385654e+00    3.390069e+00
  3.401529e+00    3.474942e+00
  3.417405e+00    3.483405e+00
  3.433280e+00    3.507709e+00
  3.449156e+00    3.494630e+00
  3.465031e+00    3.371856e+00
  3.480907e+00    3.376935e+00
  3.496783e+00    3.434807e+00
  3.512658e+00    3.458842e+00
  3.528534e+00    3.473440e+00
  3.544409e+00    3.410457e+00
  3.560285e+00    3.424400e+00
  3.576160e+00    3.547404e+00
  3.592036e+00    3.645658e+00
  3.607912e+00    3.556020e+00
  3.623787e+00    3.602276e+00
  3.639663e+00    3.608616e+00
  3.655538e+00    3.522716e+00
  3.671414e+00    3.537029e+00
  3.687289e+00    3.470322e+00
  3.703165e+00    3.439654e+00
  3.719041e+00    3.501662e+00
  3.734916e+00    3.541869e+00
  3.750792e+00    3.488908e+00
  3.766667e+00    3.558125e+00
  3.782543e+00    3.515809e+00
  3.798418e+00    3.489398e+00
  3.814294e+00    3.418094e+00
  3.830170e+00    3.451631e+00
  3.846045e+00    3.478456e+00
  3.861921e+00    3.535052e+00
  3.877796e+00    3.545277e+00
  3.893672e+00    3.499013e+00
  3.909547e+00    3.477044e+00
  3.925423e+00    3.533616e+00
  3.941299e+00    3.518028e+00
  3.957174e+00    3.505815e+00
  3.973050e+00    3.469218e+00
  3.988925e+00    3.517681e+00
  4.004801e+00    3.560249e+00
  4.020676e+00    3.536070e+00
  4.036552e+00    3.520563e+00
  4.052428e+00    3.564372e+00
  4.068303e+00    3.659977e+00
  4.084179e+00    3.562120e+00
  4.100054e+00    3.504810e+00
  4.115930e+00    3.541922e+00
  4.131806e+00    3.520614e+00
  4.147681e+00    3.488730e+00
  4.163557e+00    3.512344e+00
  4.179432e+00    3.482020e+00
  4.195308e+00    3.508013e+00
  4.211183e+00    3.591730e+00
  4.227059e+00    3.573461e+00
  4.242935e+00    3.543252e+00
  4.258810e+00    3.580627e+00
  4.274686e+00    3.598469e+00
  4.290561e+00    3.537699e+00
  4.306437e+00    3.650581e+00
  4.322312e+00    3.686431e+00
  4.338188e+00    3.651186e+00
  4.354064e+00    3.565413e+00
  4.369939e+00    3.539130e+00
  4.385815e+00    3.546603e+00
  4.401690e+00    3.525275e+00
  4.417566e+00    3.559752e+00
  4.433441e+00    3.656846e+00
  4.449317e+00    3.699344e+00
  4.465193e+00    3.657287e+00
  4.481068e+00    3.640748e+00
  4.496944e+00    3.616780e+00
  4.512819e+00    3.579972e+00
  4.528695e+00    3.639780e+00
  4.544570e+00    3.697213e+00
  4.560446e+00    3.677330e+00
  4.576322e+00    3.649080e+00
  4.592197e+00    3.653728e+00
  4.608073e+00    3.643604e+00
  4.623948e+00    3.676192e+00
  4.639824e+00    3.671468e+00
  4.655699e+00    3.650359e+00
  4.671575e+00    3.640815e+00
  4.687451e+00    3.675445e+00
  4.703326e+00    3.675260e+00
  4.719202e+00    3.626163e+00
  4.735077e+00    3.656832e+00
  4.750953e+00    3.713330e+00
  4.766828e+00    3.670066e+00
  4.782704e+00    3.633613e+00
  4.798580e+00    3.718356e+00
  4.814455e+00    3.651957e+00
  4.830331e+00    3.612400e+00
  4.846206e+00    3.652653e+00
  4.862082e+00    3.629124e+00
  4.877957e+00    3.617222e+00
  4.893833e+00    3.590893e+00
  4.909709e+00    3.631501e+00
  4.925584e+00    3.648739e+00
  4.941460e+00    3.615981e+00
  4.957335e+00    3.723102e+00
  4.973211e+00    3.678773e+00
  4.989086e+00    3.644281e+00
  5.004962e+00    3.711785e+00
  5.020838e+00    3.724851e+00
  5.036713e+00    3.575753e+00
  5.052589e+00    3.590058e+00
  5.068464e+00    3.577518e+00
  5.084340e+00    3.660496e+00
  5.100216e+00    3.680838e+00
  5.116091e+00    3.687993e+00
  5.131967e+00    3.614139e+00
  5.147842e+00    3.589698e+00
  5.163718e+00    3.574468e+00
  5.179593e+00    3.615880e+00
  5.195469e+00    3.646206e+00
  5.211345e+00    3.635935e+00
  5.227220e+00    3.681726e+00
  5.243096e+00    3.684892e+00
  5.258971e+00    3.707962e+00
  5.274847e+00    3.699306e+00
  5.290722e+00    3.655099e+00
  5.306598e+00    3.627508e+00
  5.322474e+00    3.707903e+00
  5.338349e+00    3.701356e+00
  5.354225e+00    3.684874e+00
  5.370100e+00    3.696981e+00
  5.385976e+00    3.712395e+00
  5.401851e+00    3.739370e+00
  5.417727e+00    3.658718e+00
  5.433603e+00    3.590728e+00
  5.449478e+00    3.632622e+00
  5.465354e+00    3.621781e+00
  5.481229e+00    3.616804e+00
  5.497105e+00    3.559004e+00
  5.512980e+00    3.693987e+00
  5.528856e+00    3.596123e+00
  5.544732e+00    3.534739e+00
  5.560607e+00    3.591802e+00
  5.576483e+00    3.701319e+00
  5.592358e+00    3.695335e+00
  5.608234e+00    3.652276e+00
  5.624109e+00    3.568393e+00
  5.639985e+00    3.614887e+00
  5.655861e+00    3.625085e+00
  5.671736e+00    3.600758e+00
  5.687612e+00    3.670145e+00
  5.703487e+00    3.619560e+00
  5.719363e+00    3.612991e+00
  5.735238e+00    3.620328e+00
  5.751114e+00    3.593661e+00
  5.766990e+00    3.629135e+00
  5.782865e+00    3.597805e+00
  5.798741e+00    3.564209e+00
  5.814616e+00    3.580526e+00
  5.830492e+00    3.535564e+00
  5.846367e+00    3.621310e+00
  5.862243e+00    3.625358e+00
  5.878119e+00    3.594273e+00
  5.893994e+00    3.612306e+00
  5.909870e+00    3.505005e+00
  5.925745e+00    3.404412e+00
  5.941621e+00    3.508435e+00
  5.957497e+00    3.575270e+00
  5.973372e+00    3.596314e+00
  5.989248e+00    3.480616e+00
  6.005123e+00    3.452901e+00
  6.020999e+00    3.492788e+00
  6.036874e+00    3.530931e+00
  6.052750e+00    3.531700e+00
  6.068626e+00    3.498486e+00
  6.084501e+00    3.581391e+00
  6.100377e+00    3.653945e+00
  6.116252e+00    3.621615e+00
  6.132128e+00    3.659154e+00
  6.148003e+00    3.582315e+00
  6.163879e+00    3.584958e+00
  6.179755e+00    3.581609e+00
  6.195630e+00    3.511389e+00
  6.211506e+00    3.549757e+00
  6.227381e+00    3.574443e+00
  6.243257e+00    3.585049e+00
  6.259132e+00    3.612961e+00
  6.275008e+00    3.532279e+00
  6.290884e+00    3.530982e+00
  6.306759e+00    3.593137e+00
  6.322635e+00    3.609896e+00
  6.338510e+00    3.554440e+00
  6.354386e+00    3.638417e+00
  6.370261e+00    3.570016e+00
  6.386137e+00    3.479394e+00
  6.402013e+00    3.562694e+00
  6.417888e+00    3.633014e+00
  6.433764e+00    3.540066e+00
  6.449639e+00    3.526173e+00
  6.465515e+00    3.513137e+00
  6.481390e+00    3.589847e+00
  6.497266e+00    3.620046e+00
  6.513142e+00    3.555634e+00
  6.529017e+00    3.552556e+00
  6.544893e+00    3.539351e+00
  6.560768e+00    3.578974e+00
  6.576644e+00    3.601218e+00
  6.592519e+00    3.466333e+00
  6.608395e+00    3.538845e+00
  6.624271e+00    3.560965e+00
  6.640146e+00    3.545990e+00
  6.656022e+00    3.536556e+00
  6.671897e+00    3.604837e+00
  6.687773e+00    3.661894e+00
  6.703648e+00    3.536909e+00
  6.719524e+00    3.607057e+00
  6.735400e+00    3.595084e+00
  6.751275e+00    3.571687e+00
  6.767151e+00    3.562283e+00
  6.783026e+00    3.607440e+00
  6.798902e+00    3.580123e+00
  6.814777e+00    3.542780e+00
  6.830653e+00    3.539052e+00
  6.846529e+00    3.564339e+00
  6.862404e+00    3.606398e+00
  6.878280e+00    3.619477e+00
  6.894155e+00    3.682556e+00
  6.910031e+00    3.607925e+00
  6.925907e+00    3.563432e+00
  6.941782e+00    3.511141e+00
  6.957658e+00    3.489696e+00
  6.973533e+00    3.558870e+00
  6.989409e+00    3.589788e+00
  7.005284e+00    3.507494e+00
  7.021160e+00    3.455381e+00
  7.037036e+00    3.408023e+00
  7.052911e+00    3.455751e+00
  7.068787e+00    3.518657e+00
  7.084662e+00    3.546940e+00
  7.100538e+00    3.562774e+00
  7.116413e+00    3.550493e+00
  7.132289e+00    3.601311e+00
  7.148165e+00    3.618360e+00
  7.164040e+00    3.527209e+00
  7.179916e+00    3.548305e+00
  7.195791e+00    3.484683e+00
  7.211667e+00    3.469712e+00
  7.227542e+00    3.495693e+00
  7.243418e+00    3.462585e+00
  7.259294e+00    3.516340e+00
  7.275169e+00    3.542900e+00
  7.291045e+00    3.587051e+00
  7.306920e+00    3.611884e+00
  7.322796e+00    3.516887e+00
  7.338671e+00    3.434484e+00
  7.354547e+00    3.510677e+00
  7.370423e+00    3.486167e+00
  7.386298e+00    3.487252e+00
  7.402174e+00    3.450157e+00
  7.418049e+00    3.396645e+00
  7.433925e+00    3.392512e+00
  7.449800e+00    3.434797e+00
  7.465676e+00    3.533213e+00
  7.481552e+00    3.447925e+00
  7.497427e+00    3.413337e+00
  7.513303e+00    3.440685e+00
  7.529178e+00    3.443152e+00
  7.545054e+00    3.456466e+00
  7.560929e+00    3.517062e+00
  7.576805e+00    3.425200e+00
  7.592681e+00    3.517918e+00
  7.608556e+00    3.441719e+00
  7.624432e+00    3.422833e+00
  7.640307e+00    3.465220e+00
  7.656183e+00    3.503198e+00
  7.672058e+00    3.460097e+00
  7.687934e+00    3.473333e+00
  7.703810e+00    3.443120e+00
  7.719685e+00    3.497307e+00
  7.735561e+00    3.417697e+00
  7.751436e+00    3.376426e+00
  7.767312e+00    3.480467e+00
  7.783187e+00    3.514919e+00
  7.799063e+00    3.504893e+00
  7.814939e+00    3.545396e+00
  7.830814e+00    3.474231e+00
  7.846690e+00    3.444846e+00
  7.862565e+00    3.479178e+00
  7.878441e+00    3.485954e+00
  7.894317e+00    3.420341e+00
  7.910192e+00    3.475222e+00
  7.926068e+00    3.532654e+00
  7.941943e+00    3.523744e+00
  7.957819e+00    3.457265e+00
  7.973694e+00    3.470454e+00
  7.989570e+00    3.446368e+00
  8.005446e+00    3.447729e+00
  8.021321e+00    3.399848e+00
  8.037197e+00    3.391089e+00
  8.053072e+00    3.416726e+00
  8.068948e+00    3.456358e+00
  8.084823e+00    3.430500e+00
  8.100699e+00    3.454837e+00
  8.116575e+00    3.535746e+00
  8.132450e+00    3.510925e+00
  8.148326e+00    3.491390e+00
  8.164201e+00    3.488157e+00
  8.180077e+00    3.499610e+00
  8.195952e+00    3.422882e+00
  8.211828e+00    3.449714e+00
  8.227704e+00    3.428460e+00
  8.243579e+00    3.537776e+00
  8.259455e+00    3.483553e+00
  8.275330e+00    3.489349e+00
  8.291206e+00    3.454252e+00
  8.307081e+00    3.420225e+00
  8.322957e+00    3.453186e+00
  8.338833e+00    3.473448e+00
  8.354708e+00    3.415018e+00
  8.370584e+00    3.437207e+00
  8.386459e+00    3.429801e+00
  8.402335e+00    3.435525e+00
  8.418210e+00    3.430765e+00
  8.434086e+00    3.394717e+00
  8.449962e+00    3.443839e+00
  8.465837e+00    3.359028e+00
  8.481713e+00    3.319361e+00
  8.497588e+00    3.341664e+00
  8.513464e+00    3.362161e+00
  8.529339e+00    3.444186e+00
  8.545215e+00    3.445514e+00
  8.561091e+00    3.381524e+00
  8.576966e+00    3.313434e+00
  8.592842e+00    3.378911e+00
  8.608717e+00    3.410975e+00
  8.624593e+00    3.393367e+00
  8.640468e+00    3.383867e+00
  8.656344e+00    3.407236e+00
  8.672220e+00    3.356029e+00
  8.688095e+00    3.348882e+00
  8.703971e+00    3.359211e+00
  8.719846e+00    3.365443e+00
  8.735722e+00    3.302489e+00
  8.751598e+00    3.321303e+00
  8.767473e+00    3.347255e+00
  8.783349e+00    3.335205e+00
  8.799224e+00    3.293325e+00
  8.815100e+00    3.314837e+00
  8.830975e+00    3.374679e+00
  8.846851e+00    3.402467e+00
  8.862727e+00    3.306803e+00
  8.878602e+00    3.212088e+00
  8.894478e+00    3.160796e+00
  8.910353e+00    3.281706e+00
  8.926229e+00    3.301304e+00
  8.942104e+00    3.288689e+00
  8.957980e+00    3.305064e+00
  8.973856e+00    3.306496e+00
  8.989731e+00    3.292072e+00
  9.005607e+00    3.280391e+00
  9.021482e+00    3.287056e+00
  9.037358e+00    3.246332e+00
  9.053233e+00    3.284955e+00
  9.069109e+00    3.223188e+00
  9.084985e+00    3.275972e+00
  9.100860e+00    3.323652e+00
  9.116736e+00    3.273505e+00
  9.132611e+00    3.245402e+00
  9.148487e+00    3.302146e+00
  9.164362e+00    3.314656e+00
  9.180238e+00    3.320823e+00
  9.196114e+00    3.302114e+00
  9.211989e+00    3.288395e+00
  9.227865e+00    3.289906e+00
  9.243740e+00    3.296699e+00
  9.259616e+00    3.304550e+00
  9.275491e+00    3.271149e+00
  9.291367e+00    3.242963e+00
  9.307243e+00    3.216046e+00
  9.323118e+00    3.202349e+00
  9.338994e+00    3.257843e+00
  9.354869e+00    3.266652e+00
  9.370745e+00    3.260581e+00
  9.386620e+00    3.295277e+00
  9.402496e+00    3.291561e+00
  9.418372e+00    3.256796e+00
  9.434247e+00    3.213560e+00
  9.450123e+00    3.218806e+00
  9.465998e+00    3.292578e+00
  9.481874e+00    3.260390e+00
  9.497749e+00    3.305290e+00
  9.513625e+00    3.229382e+00
  9.529501e+00    3.205968e+00
  9.545376e+00    3.156203e+00
  9.561252e+00    3.173704e+00
  9.577127e+00    3.239488e+00
  9.593003e+00    3.231521e+00
  9.608878e+00    3.198043e+00
  9.624754e+00    3.184165e+00
  9.640630e+00    3.219726e+00
  9.656505e+00    3.215177e+00
  9.672381e+00    3.226733e+00
  9.688256e+00    3.272786e+00
  9.704132e+00    3.241851e+00
  9.720008e+00    3.245905e+00
  9.735883e+00    3.219587e+00
  9.751759e+00    3.128482e+00
  9.767634e+00    3.152523e+00
  9.783510e+00    3.168051e+00
  9.799385e+00    3.146009e+00
  9.815261e+00    3.186781e+00
  9.831137e+00    3.164822e+00
  9.847012e+00    3.187228e+00
  9.862888e+00    3.167358e+00
  9.878763e+00    3.197006e+00
  9.894639e+00    3.179388e+00
  9.910514e+00    3.160614e+00
  9.926390e+00    3.147324e+00
  9.942266e+00    3.116570e+00
  9.958141e+00    3.187382e+00
  9.974017e+00    3.199070e+00
  9.989892e+00    3.161068e+00
  1.000577e+01    3.144182e+00
  1.002164e+01    3.053321e+00
  1.003752e+01    3.071728e+00
  1.005339e+01    3.095598e+00
  1.006927e+01    3.139223e+00
  1.008515e+01    3.120832e+00
  1.010102e+01    3.122064e+00
  1.011690e+01    3.094245e+00
  1.013277e+01    3.090131e+00
  1.014865e+01    3.108288e+00
  1.016452e+01    3.062906e+00
  1.018040e+01    3.079581e+00
  1.019627e+01    3.077822e+00
  1.021215e+01    3.087813e+00
  1.022803e+01    3.098667e+00
  1.024390e+01    3.083590e+00
  1.025978e+01    3.050039e+00
  1.027565e+01    3.052136e+00
  1.029153e+01    3.088692e+00
  1.030740e+01    3.079192e+00
  1.032328e+01    3.091611e+00
  1.033915e+01    3.155085e+00
  1.035503e+01    3.075373e+00
  1.037091e+01    3.032237e+00
  1.038678e+01    3.038107e+00
  1.040266e+01    2.994850e+00
  1.041853e+01    3.035289e+00
  1.043441e+01    3.097625e+00
  1.045028e+01    3.045939e+00
  1.046616e+01    3.015460e+00
  1.048204e+01    3.000865e+00
  1.049791e+01    3.069961e+00
  1.051379e+01    3.112162e+00
  1.052966e+01    3.024827e+00
  1.054554e+01    3.039352e+00
  1.056141e+01    3.024091e+00
  1.057729e+01    2.957318e+00
  1.059316e+01    3.029811e+00
  1.060904e+01    2.987103e+00
  1.062492e+01    2.985385e+00
  1.064079e+01    2.910848e+00
  1.065667e+01    2.979324e+00
  1.067254e+01    3.007690e+00
  1.068842e+01    3.002876e+00
  1.070429e+01    2.959215e+00
  1.072017e+01    2.983620e+00
  1.073604e+01    2.941322e+00
  1.075192e+01    2.879125e+00
  1.076780e+01    2.921345e+00
  1.078367e+01    2.922126e+00
  1.079955e+01    2.926096e+00
  1.081542e+01    2.928472e+00
  1.083130e+01    2.999692e+00
  1.084717e+01    2.999940e+00
  1.086305e+01    2.945979e+00
  1.087892e+01    2.967606e+00
  1.089480e+01    3.006932e+00
  1.091068e+01    2.964516e+00
  1.092655e+01    2.975187e+00
  1.094243e+01    2.964608e+00
  1.095830e+01    2.927714e+00
  1.097418e+01    2.918499e+00
  1.099005e+01    2.893778e+00
  1.100593e+01    2.914832e+00
  1.102180e+01    2.916720e+00
  1.103768e+01    2.886615e+00
  1.105356e+01    2.930146e+00
  1.106943e+01    2.925979e+00
  1.108531e+01    2.911253e+00
  1.110118e+01    2.916957e+00
  1.111706e+01    2.856133e+00
  1.113293e+01    2.838918e+00
  1.114881e+01    2.836127e+00
  1.116468e+01    2.851097e+00
  1.118056e+01    2.807714e+00
  1.119644e+01    2.881327e+00
  1.121231e+01    2.885273e+00
  1.122819e+01    2.896750e+00
  1.124406e+01    2.865545e+00
  1.125994e+01    2.909712e+00
  1.127581e+01    2.904222e+00
  1.129169e+01    2.886644e+00
  1.130756e+01    2.859986e+00
  1.132344e+01    2.849115e+00
  1.133932e+01    2.847410e+00
  1.135519e+01    2.849182e+00
  1.137107e+01    2.881676e+00
  1.138694e+01    2.829806e+00
  1.140282e+01    2.760446e+00
  1.141869e+01    2.772320e+00
  1.143457e+01    2.782098e+00
  1.145045e+01    2.813214e+00
  1.146632e+01    2.784502e+00
  1.148220e+01    2.787222e+00
  1.149807e+01    2.814436e+00
  1.151395e+01    2.833861e+00
  1.152982e+01    2.802375e+00
  1.154570e+01    2.801795e+00
  1.156157e+01    2.833134e+00
  1.157745e+01    2.864067e+00
  1.159333e+01    2.880196e+00
  1.160920e+01    2.807187e+00
  1.162508e+01    2.827564e+00
  1.164095e+01    2.828418e+00
  1.165683e+01    2.800565e+00
  1.167270e+01    2.794110e+00
  1.168858e+01    2.757637e+00
  1.170445e+01    2.783854e+00
  1.172033e+01    2.775708e+00
  1.173621e+01    2.797600e+00
  1.175208e+01    2.745558e+00
  1.176796e+01    2.747974e+00
  1.178383e+01    2.714027e+00
  1.179971e+01    2.685289e+00
  1.181558e+01    2.698997e+00
  1.183146e+01    2.778831e+00
  1.184733e+01    2.766332e+00
  1.186321e+01    2.727958e+00
  1.187909e+01    2.693863e+00
  1.189496e+01    2.668020e+00
  1.191084e+01    2.709886e+00
  1.192671e+01    2.744038e+00
  1.194259e+01    2.722619e+00
  1.195846e+01    2.686780e+00
  1.197434e+01    2.727874e+00
  1.199021e+01    2.703507e+00
  1.200609e+01    2.714160e+00
  1.202197e+01    2.676976e+00
  1.203784e+01    2.697605e+00
  1.205372e+01    2.753678e+00
  1.206959e+01    2.779582e+00
  1.208547e+01    2.752016e+00
  1.210134e+01    2.711293e+00
  1.211722e+01    2.690746e+00
  1.213309e+01    2.707524e+00
  1.214897e+01    2.778936e+00
  1.216485e+01    2.726765e+00
  1.218072e+01    2.689751e+00
  1.219660e+01    2.639284e+00
  1.221247e+01    2.640605e+00
  1.222835e+01    2.661053e+00
  1.224422e+01    2.711031e+00
  1.226010e+01    2.701396e+00
  1.227597e+01    2.688780e+00
  1.229185e+01    2.669928e+00
  1.230773e+01    2.709177e+00
  1.232360e+01    2.711229e+00
  1.233948e+01    2.693371e+00
  1.235535e+01    2.697526e+00
  1.237123e+01    2.674340e+00
  1.238710e+01    2.646333e+00
  1.240298e+01    2.687744e+00
  1.241886e+01    2.723265e+00
  1.243473e+01    2.727319e+00
  1.245061e+01    2.724252e+00
  1.246648e+01    2.679929e+00
  1.248236e+01    2.682127e+00
  1.249823e+01    2.704553e+00
  1.251411e+01    2.737751e+00
  1.252998e+01    2.774889e+00
  1.254586e+01    2.737802e+00
  1.256174e+01    2.704010e+00
  1.257761e+01    2.699465e+00
  1.259349e+01    2.706958e+00
  1.260936e+01    2.736033e+00
  1.262524e+01    2.745395e+00
  1.264111e+01    2.824580e+00
  1.265699e+01    2.808356e+00
  1.267286e+01    2.826409e+00
  1.268874e+01    2.821832e+00
  1.270462e+01    2.812207e+00
  1.272049e+01    2.855440e+00
  1.273637e+01    2.875384e+00
  1.275224e+01    2.865152e+00
  1.276812e+01    2.928679e+00
  1.278399e+01    2.964459e+00
  1.279987e+01    2.973478e+00
  1.281574e+01    3.002678e+00
  1.283162e+01    3.076948e+00
  1.284750e+01    3.162024e+00
  1.286337e+01    3.262971e+00
  1.287925e+01    3.361849e+00
  1.289512e+01    3.532984e+00
  1.291100e+01    3.715208e+00
  1.292687e+01    3.872168e+00
  1.294275e+01    4.094060e+00
  1.295862e+01    4.393877e+00
  1.297450e+01    4.813454e+00
  1.299038e+01    5.291591e+00
  1.300625e+01    5.932224e+00
  1.302213e+01    6.748678e+00
  1.303800e+01    7.882789e+00
  1.305388e+01    8.978783e+00
  1.306975e+01    1.014773e+01
  1.308563e+01    1.155575e+01
  1.310150e+01    1.285703e+01
  1.311738e+01    1.382578e+01
  1.313326e+01    1.484450e+01
  1.314913e+01    1.582729e+01
  1.316501e+01    1.641929e+01
  1.318088e+01    1.639576e+01
  1.319676e+01    1.574654e+01
  1.321263e+01    1.442268e+01
  1.322851e+01    1.253697e+01
  1.324438e+01    1.072415e+01
  1.326026e+01    9.133231e+00
  1.327614e+01    7.763109e+00
  1.329201e+01    6.746044e+00
  1.330789e+01    5.970738e+00
  1.332376e+01    5.354403e+00
  1.333964e+01    4.864640e+00
  1.335551e+01    4.456293e+00
  1.337139e+01    4.108500e+00
  1.338727e+01    3.855841e+00
  1.340314e+01    3.683017e+00
  1.341902e+01    3.492248e+00
  1.343489e+01    3.381471e+00
  1.345077e+01    3.232017e+00
  1.346664e+01    3.153598e+00
  1.348252e+01    3.034453e+00
  1.349839e+01    2.973966e+00
  1.351427e+01    2.963421e+00
  1.353015e+01    2.894404e+00
  1.354602e+01    2.818697e+00
  1.356190e+01    2.740966e+00
  1.357777e+01    2.739026e+00
  1.359365e+01    2.681308e+00
  1.360952e+01    2.695516e+00
  1.362540e+01    2.685580e+00
  1.364127e+01    2.659909e+00
  1.365715e+01    2.599864e+00
  1.367303e+01    2.576856e+00
  1.368890e+01    2.582401e+00
  1.370478e+01    2.551273e+00
  1.372065e+01    2.539322e+00
  1.373653e+01    2.507169e+00
  1.375240e+01    2.503112e+00
  1.376828e+01    2.516067e+00
  1.378415e+01    2.487123e+00
  1.380003e+01    2.448457e+00
  1.381591e+01    2.486110e+00
  1.383178e+01    2.480542e+00
  1.384766e+01    2.453531e+00
  1.386353e+01    2.466645e+00
  1.387941e+01    2.424934e+00
  1.389528e+01    2.413528e+00
  1.391116e+01    2.394445e+00
  1.392703e+01    2.452467e+00
  1.394291e+01    2.436318e+00
  1.395879e+01    2.397596e+00
  1.397466e+01    2.388855e+00
  1.399054e+01    2.423279e+00
  1.400641e+01    2.397992e+00
  1.402229e+01    2.320954e+00
  1.403816e+01    2.326427e+00
  1.405404e+01    2.328217e+00
  1.406991e+01    2.294165e+00
  1.408579e+01    2.313427e+00
  1.410167e+01    2.340475e+00
  1.411754e+01    2.346436e+00
  1.413342e+01    2.304568e+00
  1.414929e+01    2.331935e+00
  1.416517e+01    2.322955e+00
  1.418104e+01    2.360011e+00
  1.419692e+01    2.325317e+00
  1.421279e+01    2.331554e+00
  1.422867e+01    2.340181e+00
  1.424455e+01    2.316849e+00
  1.426042e+01    2.261132e+00
  1.427630e+01    2.251864e+00
  1.429217e+01    2.269858e+00
  1.430805e+01    2.282096e+00
  1.432392e+01    2.308752e+00
  1.433980e+01    2.253433e+00
  1.435568e+01    2.230028e+00
  1.437155e+01    2.256049e+00
  1.438743e+01    2.241772e+00
  1.440330e+01    2.257586e+00
  1.441918e+01    2.278905e+00
  1.443505e+01    2.275912e+00
  1.445093e+01    2.247739e+00
  1.446680e+01    2.253546e+00
  1.448268e+01    2.262086e+00
  1.449856e+01    2.223533e+00
  1.451443e+01    2.197045e+00
  1.453031e+01    2.211446e+00
  1.454618e+01    2.202884e+00
  1.456206e+01    2.180872e+00
  1.457793e+01    2.214639e+00
  1.459381e+01    2.231172e+00
  1.460968e+01    2.193477e+00
  1.462556e+01    2.244768e+00
  1.464144e+01    2.275326e+00
  1.465731e+01    2.243743e+00
  1.467319e+01    2.183138e+00
  1.468906e+01    2.212911e+00
  1.470494e+01    2.215652e+00
  1.472081e+01    2.211719e+00
  1.473669e+01    2.235444e+00
  1.475256e+01    2.239501e+00
  1.476844e+01    2.259477e+00
  1.478432e+01    2.235142e+00
  1.480019e+01    2.227571e+00
  1.481607e+01    2.198906e+00
  1.483194e+01    2.198392e+00
  1.484782e+01    2.209537e+00
  1.486369e+01    2.226424e+00
  1.487957e+01    2.225808e+00
  1.489544e+01    2.189166e+00
  1.491132e+01    2.245533e+00
  1.492720e+01    2.286854e+00
  1.494307e+01    2.323520e+00
  1.495895e+01    2.335078e+00
  1.497482e+01    2.350126e+00
  1.499070e+01    2.377074e+00
  1.500657e+01    2.458567e+00
  1.502245e+01    2.510810e+00
  1.503832e+01    2.583802e+00
  1.505420e+01    2.723241e+00
  1.507008e+01    2.870145e+00
  1.508595e+01    3.004674e+00
  1.510183e+01    3.200971e+00
  1.511770e+01    3.487108e+00
  1.513358e+01    3.826393e+00
  1.514945e+01    4.191365e+00
  1.516533e+01    4.540340e+00
  1.518120e+01    4.928064e+00
  1.519708e+01    5.198688e+00
  1.521296e+01    5.478311e+00
  1.522883e+01    5.583413e+00
  1.524471e+01    5.727299e+00
  1.526058e+01    5.867764e+00
  1.527646e+01    5.728712e+00
  1.529233e+01    5.483148e+00
  1.530821e+01    5.155374e+00
  1.532409e+01    4.686275e+00
  1.533996e+01    4.194897e+00
  1.535584e+01    3.795427e+00
  1.537171e+01    3.462497e+00
  1.538759e+01    3.151921e+00
  1.540346e+01    2.967594e+00
  1.541934e+01    2.765770e+00
  1.543521e+01    2.622513e+00
  1.545109e+01    2.562389e+00
  1.546697e+01    2.455530e+00
  1.548284e+01    2.370549e+00
  1.549872e+01    2.322513e+00
  1.551459e+01    2.312292e+00
  1.553047e+01    2.213724e+00
  1.554634e+01    2.173036e+00
  1.556222e+01    2.172520e+00
  1.557809e+01    2.125565e+00
  1.559397e+01    2.125738e+00
  1.560985e+01    2.106894e+00
  1.562572e+01    2.041387e+00
  1.564160e+01    2.017838e+00
  1.565747e+01    2.039730e+00
  1.567335e+01    2.045593e+00
  1.568922e+01    2.032217e+00
  1.570510e+01    2.020616e+00
  1.572097e+01    2.051000e+00
  1.573685e+01    1.969378e+00
  1.575273e+01    1.937140e+00
  1.576860e+01    1.988029e+00
  1.578448e+01    1.949565e+00
  1.580035e+01    1.966966e+00
  1.581623e+01    1.946389e+00
  1.583210e+01    1.930713e+00
  1.584798e+01    1.939616e+00
  1.586385e+01    1.927905e+00
  1.587973e+01    1.927479e+00
  1.589561e+01    1.907615e+00
  1.591148e+01    1.881016e+00
  1.592736e+01    1.935933e+00
  1.594323e+01    1.926751e+00
  1.595911e+01    1.912029e+00
  1.597498e+01    1.849738e+00
  1.599086e+01    1.873554e+00
  1.600673e+01    1.901968e+00
  1.602261e+01    1.894399e+00
  1.603849e+01    1.830932e+00
  1.605436e+01    1.842213e+00
  1.607024e+01    1.860637e+00
  1.608611e+01    1.847392e+00
  1.610199e+01    1.812715e+00
  1.611786e+01    1.825651e+00
  1.613374e+01    1.873875e+00
  1.614961e+01    1.833687e+00
  1.616549e+01    1.841632e+00
  1.618137e+01    1.855684e+00
  1.619724e+01    1.835664e+00
  1.621312e+01    1.821155e+00
  1.622899e+01    1.815361e+00
  1.624487e+01    1.816499e+00
  1.626074e+01    1.809594e+00
  1.627662e+01    1.773345e+00
  1.629250e+01    1.799300e+00
  1.630837e+01    1.817160e+00
  1.632425e+01    1.833110e+00
  1.634012e+01    1.830561e+00
  1.635600e+01    1.806849e+00
  1.637187e+01    1.806725e+00
  1.638775e+01    1.773282e+00
  1.640362e+01    1.761766e+00
  1.641950e+01    1.798819e+00
  1.643538e+01    1.803071e+00
  1.645125e+01    1.812465e+00
  1.646713e+01    1.775860e+00
  1.648300e+01    1.758437e+00
  1.649888e+01    1.741049e+00
  1.651475e+01    1.750105e+00
  1.653063e+01    1.762837e+00
  1.654650e+01    1.772978e+00
  1.656238e+01    1.769125e+00
  1.657826e+01    1.770867e+00
  1.659413e+01    1.748079e+00
  1.661001e+01    1.710022e+00
  1.662588e+01    1.748208e+00
  1.664176e+01    1.739874e+00
  1.665763e+01    1.752480e+00
  1.667351e+01    1.755203e+00
  1.668938e+01    1.719960e+00
  1.670526e+01    1.732190e+00
  1.672114e+01    1.722129e+00
  1.673701e+01    1.722043e+00
  1.675289e+01    1.684460e+00
  1.676876e+01    1.695418e+00
  1.678464e+01    1.702269e+00
  1.680051e+01    1.718056e+00
  1.681639e+01    1.693682e+00
  1.683226e+01    1.697751e+00
  1.684814e+01    1.718238e+00
  1.686402e+01    1.707717e+00
  1.687989e+01    1.705012e+00
  1.689577e+01    1.698255e+00
  1.691164e+01    1.670456e+00
  1.692752e+01    1.672230e+00
  1.694339e+01    1.682514e+00
  1.695927e+01    1.671632e+00
  1.697514e+01    1.663037e+00
  1.699102e+01    1.650977e+00
  1.700690e+01    1.677402e+00
  1.702277e+01    1.662859e+00
  1.703865e+01    1.642481e+00
  1.705452e+01    1.677915e+00
  1.707040e+01    1.667012e+00
  1.708627e+01    1.651480e+00
  1.710215e+01    1.639550e+00
  1.711802e+01    1.642707e+00
  1.713390e+01    1.669796e+00
  1.714978e+01    1.647967e+00
  1.716565e+01    1.642572e+00
  1.718153e+01    1.647653e+00
  1.719740e+01    1.631786e+00
  1.721328e+01    1.610426e+00
  1.722915e+01    1.610388e+00
  1.724503e+01    1.616701e+00
  1.726091e+01    1.633884e+00
  1.727678e+01    1.606920e+00
  1.729266e+01    1.625232e+00
  1.730853e+01    1.623764e+00
  1.732441e+01    1.624417e+00
  1.734028e+01    1.626070e+00
  1.735616e+01    1.609801e+00
  1.737203e+01    1.600179e+00
  1.738791e+01    1.594432e+00
  1.740379e+01    1.619973e+00
  1.741966e+01    1.621720e+00
  1.743554e+01    1.616978e+00
  1.745141e+01    1.611351e+00
  1.746729e+01    1.627557e+00
  1.748316e+01    1.575160e+00
  1.749904e+01    1.563853e+00
  1.751491e+01    1.580578e+00
  1.753079e+01    1.604293e+00
  1.754667e+01    1.581459e+00
  1.756254e+01    1.553832e+00
  1.757842e+01    1.568469e+00
  1.759429e+01    1.550417e+00
  1.761017e+01    1.534307e+00
  1.762604e+01    1.555360e+00
  1.764192e+01    1.551609e+00
  1.765779e+01    1.562254e+00
  1.767367e+01    1.571707e+00
  1.768955e+01    1.553976e+00
  1.770542e+01    1.550832e+00
  1.772130e+01    1.564053e+00
  1.773717e+01    1.548203e+00
  1.775305e+01    1.553501e+00
  1.776892e+01    1.579884e+00
  1.778480e+01    1.561835e+00
  1.780067e+01    1.552525e+00
  1.781655e+01    1.550362e+00
  1.783243e+01    1.537464e+00
  1.784830e+01    1.542995e+00
  1.786418e+01    1.535726e+00
  1.788005e+01    1.536895e+00
  1.789593e+01    1.559963e+00
  1.791180e+01    1.548665e+00
  1.792768e+01    1.561736e+00
  1.794355e+01    1.535878e+00
  1.795943e+01    1.525623e+00
  1.797531e+01    1.507871e+00
  1.799118e+01    1.510072e+00
  1.800706e+01    1.531904e+00
  1.802293e+01    1.504129e+00
  1.803881e+01    1.490635e+00
  1.805468e+01    1.493401e+00
  1.807056e+01    1.498063e+00
  1.808643e+01    1.513471e+00
  1.810231e+01    1.494236e+00
  1.811819e+01    1.502512e+00
  1.813406e+01    1.480386e+00
  1.814994e+01    1.492013e+00
  1.816581e+01    1.506722e+00
  1.818169e+01    1.465893e+00
  1.819756e+01    1.502835e+00
  1.821344e+01    1.496636e+00
  1.822932e+01    1.508678e+00
  1.824519e+01    1.482769e+00
  1.826107e+01    1.478599e+00
  1.827694e+01    1.484308e+00
  1.829282e+01    1.458597e+00
  1.830869e+01    1.495203e+00
  1.832457e+01    1.491478e+00
  1.834044e+01    1.483156e+00
  1.835632e+01    1.455685e+00
  1.837220e+01    1.437080e+00
  1.838807e+01    1.452119e+00
  1.840395e+01    1.456459e+00
  1.841982e+01    1.420530e+00
  1.843570e+01    1.423732e+00
  1.845157e+01    1.444033e+00
  1.846745e+01    1.465303e+00
  1.848332e+01    1.460049e+00
  1.849920e+01    1.444819e+00
  1.851508e+01    1.446465e+00
  1.853095e+01    1.431611e+00
  1.854683e+01    1.445490e+00
  1.856270e+01    1.445373e+00
  1.857858e+01    1.445386e+00
  1.859445e+01    1.434828e+00
  1.861033e+01    1.438370e+00
  1.862620e+01    1.448081e+00
  1.864208e+01    1.430691e+00
  1.865796e+01    1.447829e+00
  1.867383e+01    1.431492e+00
  1.868971e+01    1.426536e+00
  1.870558e+01    1.416391e+00
  1.872146e+01    1.389858e+00
  1.873733e+01    1.404669e+00
  1.875321e+01    1.424578e+00
  1.876908e+01    1.387004e+00
  1.878496e+01    1.380324e+00
  1.880084e+01    1.415766e+00
  1.881671e+01    1.398002e+00
  1.883259e+01    1.407894e+00
  1.884846e+01    1.424009e+00
  1.886434e+01    1.423087e+00
  1.888021e+01    1.435533e+00
  1.889609e+01    1.380880e+00
  1.891196e+01    1.407138e+00
  1.892784e+01    1.430460e+00
  1.894372e+01    1.408418e+00
  1.895959e+01    1.401558e+00
  1.897547e+01    1.400993e+00
  1.899134e+01    1.433609e+00
  1.900722e+01    1.395410e+00
  1.902309e+01    1.379125e+00
  1.903897e+01    1.388855e+00
  1.905484e+01    1.417373e+00
  1.907072e+01    1.384080e+00
  1.908660e+01    1.407146e+00
  1.910247e+01    1.382662e+00
  1.911835e+01    1.367277e+00
  1.913422e+01    1.367655e+00
  1.915010e+01    1.371070e+00
  1.916597e+01    1.378467e+00
  1.918185e+01    1.379070e+00
  1.919773e+01    1.367493e+00
  1.921360e+01    1.375058e+00
  1.922948e+01    1.379326e+00
  1.924535e+01    1.360468e+00
  1.926123e+01    1.375160e+00
  1.927710e+01    1.377850e+00
  1.929298e+01    1.366133e+00
  1.930885e+01    1.386346e+00
  1.932473e+01    1.367498e+00
  1.934061e+01    1.363669e+00
  1.935648e+01    1.366326e+00
  1.937236e+01    1.344572e+00
  1.938823e+01    1.349454e+00
  1.940411e+01    1.372175e+00
  1.941998e+01    1.375752e+00
  1.943586e+01    1.340404e+00
  1.945173e+01    1.335462e+00
  1.946761e+01    1.336765e+00
  1.948349e+01    1.348203e+00
  1.949936e+01    1.341753e+00
  1.951524e+01    1.327673e+00
  1.953111e+01    1.329922e+00
  1.954699e+01    1.318399e+00
  1.956286e+01    1.320425e+00
  1.957874e+01    1.317111e+00
  1.959461e+01    1.321713e+00
  1.961049e+01    1.345747e+00
  1.962637e+01    1.332239e+00
  1.964224e+01    1.288594e+00
  1.965812e+01    1.327376e+00
  1.967399e+01    1.303404e+00
  1.968987e+01    1.304511e+00
  1.970574e+01    1.279200e+00
  1.972162e+01    1.306041e+00
  1.973749e+01    1.313241e+00
  1.975337e+01    1.334304e+00
  1.976925e+01    1.304558e+00
  1.978512e+01    1.284972e+00
  1.980100e+01    1.288910e+00
  1.981687e+01    1.316992e+00
  1.983275e+01    1.321090e+00
  1.984862e+01    1.316383e+00
  1.986450e+01    1.285367e+00
  1.988037e+01    1.301302e+00
  1.989625e+01    1.327239e+00
  1.991213e+01    1.331561e+00
  1.992800e+01    1.298335e+00
  1.994388e+01    1.293882e+00
  1.995975e+01    1.277948e+00
  1.997563e+01    1.278777e+00
  1.999150e+01    1.256101e+00
  2.000738e+01    1.283487e+00
  2.002325e+01    1.306855e+00
  2.003913e+01    1.269953e+00
  2.005501e+01    1.251478e+00
  2.007088e+01    1.256899e+00
  2.008676e+01    1.268000e+00
  2.010263e+01    1.269212e+00
  2.011851e+01    1.259481e+00
  2.013438e+01    1.264043e+00
  2.015026e+01    1.258690e+00
  2.016614e+01    1.271251e+00
  2.018201e+01    1.263948e+00
  2.019789e+01    1.293231e+00
  2.021376e+01    1.282892e+00
  2.022964e+01    1.276272e+00
  2.024551e+01    1.310166e+00
  2.026139e+01    1.273108e+00
  2.027726e+01    1.292244e+00
  2.029314e+01    1.283989e+00
  2.030902e+01    1.269063e+00
  2.032489e+01    1.250273e+00
  2.034077e+01    1.252668e+00
  2.035664e+01    1.251265e+00
  2.037252e+01    1.248361e+00
  2.038839e+01    1.269378e+00
  2.040427e+01    1.233779e+00
  2.042014e+01    1.257579e+00
  2.043602e+01    1.254658e+00
  2.045190e+01    1.236494e+00
  2.046777e+01    1.243054e+00
  2.048365e+01    1.229257e+00
  2.049952e+01    1.250411e+00
  2.051540e+01    1.277753e+00
  2.053127e+01    1.266349e+00
  2.054715e+01    1.242260e+00
  2.056302e+01    1.232323e+00
  2.057890e+01    1.222412e+00
  2.059478e+01    1.229297e+00
  2.061065e+01    1.226246e+00
  2.062653e+01    1.225745e+00
  2.064240e+01    1.238692e+00
  2.065828e+01    1.217011e+00
  2.067415e+01    1.215032e+00
  2.069003e+01    1.215571e+00
  2.070590e+01    1.217684e+00
  2.072178e+01    1.232476e+00
  2.073766e+01    1.252911e+00
  2.075353e+01    1.236718e+00
  2.076941e+01    1.231724e+00
  2.078528e+01    1.239372e+00
  2.080116e+01    1.238285e+00
  2.081703e+01    1.216931e+00
  2.083291e+01    1.225575e+00
  2.084878e+01    1.216777e+00
  2.086466e+01    1.199545e+00
  2.088054e+01    1.221614e+00
  2.089641e+01    1.226847e+00
  2.091229e+01    1.222527e+00
  2.092816e+01    1.234026e+00
  2.094404e+01    1.219297e+00
  2.095991e+01    1.229424e+00
  2.097579e+01    1.232928e+00
  2.099166e+01    1.229525e+00
  2.100754e+01    1.221258e+00
  2.102342e+01    1.233509e+00
  2.103929e+01    1.245709e+00
  2.105517e+01    1.236637e+00
  2.107104e+01    1.238593e+00
  2.108692e+01    1.243565e+00
  2.110279e+01    1.240672e+00
  2.111867e+01    1.241298e+00
  2.113455e+01    1.243119e+00
  2.115042e+01    1.236615e+00
  2.116630e+01    1.226283e+00
  2.118217e+01    1.238660e+00
  2.119805e+01    1.263913e+00
  2.121392e+01    1.270759e+00
  2.122980e+01    1.249902e+00
  2.124567e+01    1.250638e+00
  2.126155e+01    1.276818e+00
  2.127743e+01    1.274016e+00
  2.129330e+01    1.285110e+00
  2.130918e+01    1.280630e+00
  2.132505e+01    1.251352e+00
  2.134093e+01    1.244654e+00
  2.135680e+01    1.276431e+00
  2.137268e+01    1.286116e+00
  2.138855e+01    1.314717e+00
  2.140443e+01    1.308757e+00
  2.142031e+01    1.325621e+00
  2.143618e+01    1.352527e+00
  2.145206e+01    1.354378e+00
  2.146793e+01    1.378818e+00
  2.148381e+01    1.400524e+00
  2.149968e+01    1.428469e+00
  2.151556e+01    1.472827e+00
  2.153143e+01    1.495509e+00
  2.154731e+01    1.516047e+00
  2.156319e+01    1.551006e+00
  2.157906e+01    1.592749e+00
  2.159494e+01    1.685407e+00
  2.161081e+01    1.754676e+00
  2.162669e+01    1.840210e+00
  2.164256e+01    1.981642e+00
  2.165844e+01    2.133328e+00
  2.167431e+01    2.290016e+00
  2.169019e+01    2.506227e+00
  2.170607e+01    2.788300e+00
  2.172194e+01    3.171687e+00
  2.173782e+01    3.540613e+00
  2.175369e+01    4.022004e+00
  2.176957e+01    4.632215e+00
  2.178544e+01    5.251475e+00
  2.180132e+01    5.905150e+00
  2.181719e+01    6.553453e+00
  2.183307e+01    7.233090e+00
  2.184895e+01    7.861671e+00
  2.186482e+01    8.387164e+00
  2.188070e+01    8.757165e+00
  2.189657e+01    8.911542e+00
  2.191245e+01    8.726615e+00
  2.192832e+01    8.267225e+00
  2.194420e+01    7.537842e+00
  2.196007e+01    6.654033e+00
  2.197595e+01    5.686453e+00
  2.199183e+01    4.856773e+00
  2.200770e+01    4.158067e+00
  2.202358e+01    3.633634e+00
  2.203945e+01    3.177263e+00
  2.205533e+01    2.840441e+00
  2.207120e+01    2.588199e+00
  2.208708e+01    2.330953e+00
  2.210296e+01    2.182902e+00
  2.211883e+01    2.027617e+00
  2.213471e+01    1.871248e+00
  2.215058e+01    1.791461e+00
  2.216646e+01    1.686415e+00
  2.218233e+01    1.602157e+00
  2.219821e+01    1.510324e+00
  2.221408e+01    1.500522e+00
  2.222996e+01    1.464109e+00
  2.224584e+01    1.424596e+00
  2.226171e+01    1.379604e+00
  2.227759e+01    1.330324e+00
  2.229346e+01    1.315389e+00
  2.230934e+01    1.310592e+00
  2.232521e+01    1.281265e+00
  2.234109e+01    1.226181e+00
  2.235696e+01    1.203350e+00
  2.237284e+01    1.199126e+00
  2.238872e+01    1.206159e+00
  2.240459e+01    1.195231e+00
  2.242047e+01    1.177246e+00
  2.243634e+01    1.190859e+00
  2.245222e+01    1.174412e+00
  2.246809e+01    1.152331e+00
  2.248397e+01    1.140874e+00
  2.249984e+01    1.166601e+00
  2.251572e+01    1.175587e+00
  2.253160e+01    1.116092e+00
  2.254747e+01    1.121155e+00
  2.256335e+01    1.108516e+00
  2.257922e+01    1.112446e+00
  2.259510e+01    1.128568e+00
  2.261097e+01    1.119067e+00
  2.262685e+01    1.119332e+00
  2.264272e+01    1.101579e+00
  2.265860e+01    1.072966e+00
  2.267448e+01    1.087463e+00
  2.269035e+01    1.087325e+00
  2.270623e+01    1.092247e+00
  2.272210e+01    1.083805e+00
  2.273798e+01    1.070906e+00
  2.275385e+01    1.061722e+00
  2.276973e+01    1.064557e+00
  2.278560e+01    1.080703e+00
  2.280148e+01    1.051728e+00
  2.281736e+01    1.068076e+00
  2.283323e+01    1.051564e+00
  2.284911e+01    1.035752e+00
  2.286498e+01    1.041876e+00
  2.288086e+01    1.029827e+00
  2.289673e+01    1.015528e+00
  2.291261e+01    1.026032e+00
  2.292848e+01    1.030000e+00
  2.294436e+01    1.026199e+00
  2.296024e+01    1.046365e+00
  2.297611e+01    1.036251e+00
  2.299199e+01    1.009524e+00
  2.300786e+01    1.017895e+00
  2.302374e+01    1.022347e+00
  2.303961e+01    1.026983e+00
  2.305549e+01    1.006586e+00
  2.307137e+01    9.995252e-01
  2.308724e+01    9.988780e-01
  2.310312e+01    1.014054e+00
  2.311899e+01    1.010370e+00
  2.313487e+01    1.017318e+00
  2.315074e+01    9.967491e-01
  2.316662e+01    1.005768e+00
  2.318249e+01    1.000549e+00
  2.319837e+01    9.933726e-01
  2.321425e+01    1.002955e+00
  2.323012e+01    9.914886e-01
  2.324600e+01    1.000753e+00
  2.326187e+01    9.889035e-01
  2.327775e+01    9.711767e-01
  2.329362e+01    9.795336e-01
  2.330950e+01    9.950287e-01
  2.332537e+01    9.795266e-01
  2.334125e+01    9.818633e-01
  2.335713e+01    9.762592e-01
  2.337300e+01    9.598202e-01
  2.338888e+01    9.840035e-01
  2.340475e+01    9.838447e-01
  2.342063e+01    9.709119e-01
  2.343650e+01    9.647540e-01
  2.345238e+01    9.479746e-01
  2.346825e+01    9.539563e-01
  2.348413e+01    9.710425e-01
  2.350001e+01    9.781300e-01
  2.351588e+01    9.751779e-01
  2.353176e+01    9.697264e-01
  2.354763e+01    9.380542e-01
  2.356351e+01    9.453244e-01
  2.357938e+01    9.603035e-01
  2.359526e+01    9.478372e-01
  2.361113e+01    9.536783e-01
  2.362701e+01    9.658038e-01
  2.364289e+01    9.679372e-01
  2.365876e+01    9.617962e-01
  2.367464e+01    9.757692e-01
  2.369051e+01    9.587179e-01
  2.370639e+01    9.436190e-01
  2.372226e+01    9.302246e-01
  2.373814e+01    9.211278e-01
  2.375401e+01    9.357862e-01
  2.376989e+01    9.407044e-01
  2.378577e+01    9.252374e-01
  2.380164e+01    9.212162e-01
  2.381752e+01    9.366065e-01
  2.383339e+01    9.336041e-01
  2.384927e+01    9.458966e-01
  2.386514e+01    9.318794e-01
  2.388102e+01    9.231750e-01
  2.389689e+01    8.969988e-01
  2.391277e+01    8.920750e-01
  2.392865e+01    9.067016e-01
  2.394452e+01    9.154129e-01
  2.396040e+01    8.951468e-01
  2.397627e+01    8.885848e-01
  2.399215e+01    8.985019e-01
  2.400802e+01    9.115978e-01
  2.402390e+01    9.161355e-01
  2.403978e+01    9.060900e-01
  2.405565e+01    9.171039e-01
  2.407153e+01    9.074653e-01
  2.408740e+01    8.924173e-01
  2.410328e+01    8.975662e-01
  2.411915e+01    8.891301e-01
  2.413503e+01    8.936297e-01
  2.415090e+01    8.862756e-01
  2.416678e+01    8.851289e-01
  2.418266e+01    8.708484e-01
  2.419853e+01    8.876430e-01
  2.421441e+01    8.919657e-01
  2.423028e+01    9.124371e-01
  2.424616e+01    9.030618e-01
  2.426203e+01    8.856529e-01
  2.427791e+01    9.012179e-01
  2.429378e+01    9.118484e-01
  2.430966e+01    9.186307e-01
  2.432554e+01    8.982485e-01
  2.434141e+01    8.983557e-01
  2.435729e+01    9.044200e-01
  2.437316e+01    9.106787e-01
  2.438904e+01    9.028787e-01
  2.440491e+01    8.809429e-01
  2.442079e+01    8.936403e-01
  2.443666e+01    8.998681e-01
  2.445254e+01    8.797286e-01
  2.446842e+01    8.950558e-01
  2.448429e+01    9.096158e-01
  2.450017e+01    9.033601e-01
  2.451604e+01    8.778381e-01
  2.453192e+01    8.935419e-01
  2.454779e+01    8.836515e-01
  2.456367e+01    8.954136e-01
  2.457954e+01    8.905843e-01
  2.459542e+01    8.971565e-01
  2.461130e+01    8.953427e-01
  2.462717e+01    8.861694e-01
  2.464305e+01    8.993551e-01
  2.465892e+01    8.841004e-01
  2.467480e+01    9.077599e-01
  2.469067e+01    9.080796e-01
  2.470655e+01    8.841715e-01
  2.472242e+01    8.961806e-01
  2.473830e+01    8.718768e-01
  2.475418e+01    8.798928e-01
  2.477005e+01    9.039739e-01
  2.478593e+01    9.113817e-01
  2.480180e+01    8.972639e-01
  2.481768e+01    9.041135e-01
  2.483355e+01    9.062363e-01
  2.484943e+01    8.893080e-01
  2.486530e+01    8.898000e-01
  2.488118e+01    8.796031e-01
  2.489706e+01    8.759459e-01
  2.491293e+01    8.870899e-01
  2.492881e+01    8.978761e-01
  2.494468e+01    9.000271e-01
  2.496056e+01    9.105091e-01
  2.497643e+01    8.952910e-01
  2.499231e+01    9.005028e-01
  2.500819e+01    9.112388e-01
  2.502406e+01    9.068184e-01
  2.503994e+01    9.161460e-01
  2.505581e+01    8.975917e-01
  2.507169e+01    9.091303e-01
  2.508756e+01    9.115183e-01
  2.510344e+01    9.138247e-01
  2.511931e+01    9.191346e-01
  2.513519e+01    9.144723e-01
  2.515107e+01    9.028384e-01
  2.516694e+01    8.964193e-01
  2.518282e+01    9.027081e-01
  2.519869e+01    9.223092e-01
  2.521457e+01    9.245409e-01
  2.523044e+01    9.280174e-01
  2.524632e+01    9.391761e-01
  2.526219e+01    9.244962e-01
  2.527807e+01    9.423191e-01
  2.529395e+01    9.482973e-01
  2.530982e+01    9.400928e-01
  2.532570e+01    9.458146e-01
  2.534157e+01    9.689029e-01
  2.535745e+01    9.818905e-01
  2.537332e+01    9.925531e-01
  2.538920e+01    9.852442e-01
  2.540507e+01    9.776044e-01
  2.542095e+01    9.955102e-01
  2.543683e+01    1.011876e+00
  2.545270e+01    1.023525e+00
  2.546858e+01    1.020965e+00
  2.548445e+01    1.041041e+00
  2.550033e+01    1.060990e+00
  2.551620e+01    1.064635e+00
  2.553208e+01    1.098226e+00
  2.554795e+01    1.105094e+00
  2.556383e+01    1.143713e+00
  2.557971e+01    1.159222e+00
  2.559558e+01    1.189691e+00
  2.561146e+01    1.224095e+00
  2.562733e+01    1.259867e+00
  2.564321e+01    1.318381e+00
  2.565908e+01    1.368375e+00
  2.567496e+01    1.423353e+00
  2.569083e+01    1.498555e+00
  2.570671e+01    1.593842e+00
  2.572259e+01    1.703120e+00
  2.573846e+01    1.861259e+00
  2.575434e+01    2.036049e+00
  2.577021e+01    2.273265e+00
  2.578609e+01    2.513429e+00
  2.580196e+01    2.842767e+00
  2.581784e+01    3.194230e+00
  2.583371e+01    3.671541e+00
  2.584959e+01    4.151783e+00
  2.586547e+01    4.710251e+00
  2.588134e+01    5.264352e+00
  2.589722e+01    5.849537e+00
  2.591309e+01    6.378926e+00
  2.592897e+01    6.795842e+00
  2.594484e+01    7.121560e+00
  2.596072e+01    7.250464e+00
  2.597660e+01    7.065891e+00
  2.599247e+01    6.588003e+00
  2.600835e+01    6.018419e+00
  2.602422e+01    5.346310e+00
  2.604010e+01    4.639123e+00
  2.605597e+01    4.009396e+00
  2.607185e+01    3.463048e+00
  2.608772e+01    2.987808e+00
  2.610360e+01    2.640855e+00
  2.611948e+01    2.360120e+00
  2.613535e+01    2.103028e+00
  2.615123e+01    1.925765e+00
  2.616710e+01    1.792331e+00
  2.618298e+01    1.651712e+00
  2.619885e+01    1.583316e+00
  2.621473e+01    1.509249e+00
  2.623060e+01    1.414889e+00
  2.624648e+01    1.361161e+00
  2.626236e+01    1.303508e+00
  2.627823e+01    1.249779e+00
  2.629411e+01    1.190882e+00
  2.630998e+01    1.179865e+00
  2.632586e+01    1.167411e+00
  2.634173e+01    1.133215e+00
  2.635761e+01    1.107046e+00
  2.637348e+01    1.086779e+00
  2.638936e+01    1.084300e+00
  2.640524e+01    1.063872e+00
  2.642111e+01    1.039380e+00
  2.643699e+01    1.037382e+00
  2.645286e+01    1.035319e+00
  2.646874e+01    1.039661e+00
  2.648461e+01    1.032785e+00
  2.650049e+01    1.008922e+00
  2.651636e+01    9.972320e-01
  2.653224e+01    1.013924e+00
  2.654812e+01    1.001269e+00
  2.656399e+01    1.001625e+00
  2.657987e+01    1.005941e+00
  2.659574e+01    9.939844e-01
  2.661162e+01    9.791825e-01
  2.662749e+01    9.735243e-01
  2.664337e+01    9.935640e-01
  2.665924e+01    1.003692e+00
  2.667512e+01    9.875640e-01
  2.669100e+01    9.729957e-01
  2.670687e+01    9.682605e-01
  2.672275e+01    9.657783e-01
  2.673862e+01    9.762198e-01
  2.675450e+01    9.777204e-01
  2.677037e+01    9.807622e-01
  2.678625e+01    9.875748e-01
  2.680212e+01    9.809982e-01
  2.681800e+01    9.868277e-01
  2.683388e+01    9.907641e-01
  2.684975e+01    9.919659e-01
  2.686563e+01    9.878103e-01
  2.688150e+01    9.832283e-01
  2.689738e+01    9.800231e-01
  2.691325e+01    1.002002e+00
  2.692913e+01    1.028738e+00
  2.694501e+01    1.036126e+00
  2.696088e+01    1.054176e+00
  2.697676e+01    1.079552e+00
  2.699263e+01    1.084847e+00
  2.700851e+01    1.129014e+00
  2.702438e+01    1.155844e+00
  2.704026e+01    1.194116e+00
  2.705613e+01    1.227559e+00
  2.707201e+01    1.311731e+00
  2.708789e+01    1.406960e+00
  2.710376e+01    1.488741e+00
  2.711964e+01    1.595590e+00
  2.713551e+01    1.701874e+00
  2.715139e+01    1.836961e+00
  2.716726e+01    2.004087e+00
  2.718314e+01    2.096196e+00
  2.719901e+01    2.171610e+00
  2.721489e+01    2.174873e+00
  2.723077e+01    2.178912e+00
  2.724664e+01    2.063943e+00
  2.726252e+01    1.976669e+00
  2.727839e+01    1.834748e+00
  2.729427e+01    1.693364e+00
  2.731014e+01    1.595659e+00
  2.732602e+01    1.477388e+00
  2.734189e+01    1.368007e+00
  2.735777e+01    1.277293e+00
  2.737365e+01    1.205129e+00
  2.738952e+01    1.171786e+00
  2.740540e+01    1.119828e+00
  2.742127e+01    1.084483e+00
  2.743715e+01    1.065240e+00
  2.745302e+01    1.044474e+00
  2.746890e+01    9.997518e-01
  2.748477e+01    1.004747e+00
  2.750065e+01    9.890597e-01
  2.751653e+01    9.787504e-01
  2.753240e+01    9.873025e-01
  2.754828e+01    9.510934e-01
  2.756415e+01    9.498089e-01
  2.758003e+01    9.329972e-01
  2.759590e+01    9.316369e-01
  2.761178e+01    9.193439e-01
  2.762765e+01    9.169216e-01
  2.764353e+01    9.275524e-01
  2.765941e+01    9.318278e-01
  2.767528e+01    9.371719e-01
  2.769116e+01    9.073443e-01
  2.770703e+01    9.161837e-01
  2.772291e+01    9.138592e-01
  2.773878e+01    9.166652e-01
  2.775466e+01    9.197168e-01
  2.777054e+01    9.022403e-01
  2.778641e+01    8.984139e-01
  2.780229e+01    8.877984e-01
  2.781816e+01    8.871015e-01
  2.783404e+01    8.718084e-01
  2.784991e+01    8.839834e-01
  2.786579e+01    8.866192e-01
  2.788166e+01    8.939763e-01
  2.789754e+01    8.846064e-01
  2.791342e+01    8.856668e-01
  2.792929e+01    8.977553e-01
  2.794517e+01    8.531893e-01
  2.796104e+01    8.507417e-01
  2.797692e+01    8.788090e-01
  2.799279e+01    8.722801e-01
  2.800867e+01    8.597854e-01
  2.802454e+01    8.523651e-01
  2.804042e+01    8.449304e-01
  2.805630e+01    8.462636e-01
  2.807217e+01    8.666454e-01
  2.808805e+01    8.711956e-01
  2.810392e+01    8.391022e-01
  2.811980e+01    8.551270e-01
  2.813567e+01    8.818805e-01
  2.815155e+01    8.842801e-01
  2.816742e+01    8.565055e-01
  2.818330e+01    8.686218e-01
  2.819918e+01    8.664604e-01
  2.821505e+01    8.719563e-01
  2.823093e+01    8.576891e-01
  2.824680e+01    8.551145e-01
  2.826268e+01    8.352910e-01
  2.827855e+01    8.179079e-01
  2.829443e+01    8.490126e-01
  2.831030e+01    8.642179e-01
  2.832618e+01    8.403395e-01
  2.834206e+01    8.450710e-01
  2.835793e+01    8.565867e-01
  2.837381e+01    8.556212e-01
  2.838968e+01    8.515933e-01
  2.840556e+01    8.524669e-01
  2.842143e+01    8.536259e-01
  2.843731e+01    8.515006e-01
  2.845318e+01    8.336360e-01
  2.846906e+01    8.407785e-01
  2.848494e+01    8.422853e-01
  2.850081e+01    8.493961e-01
  2.851669e+01    8.431849e-01
  2.853256e+01    8.476908e-01
  2.854844e+01    8.297053e-01
  2.856431e+01    8.263826e-01
  2.858019e+01    8.457301e-01
  2.859606e+01    8.568797e-01
  2.861194e+01    8.296782e-01
  2.862782e+01    8.361121e-01
  2.864369e+01    8.163847e-01
  2.865957e+01    8.300510e-01
  2.867544e+01    8.236948e-01
  2.869132e+01    8.200036e-01
  2.870719e+01    8.428691e-01
  2.872307e+01    8.438524e-01
  2.873895e+01    8.172760e-01
  2.875482e+01    8.220476e-01
  2.877070e+01    8.286337e-01
  2.878657e+01    8.137631e-01
  2.880245e+01    8.500564e-01
  2.881832e+01    8.227013e-01
  2.883420e+01    8.206432e-01
  2.885007e+01    8.261892e-01
  2.886595e+01    8.188574e-01
  2.888183e+01    8.227405e-01
  2.889770e+01    8.294103e-01
  2.891358e+01    8.142062e-01
  2.892945e+01    8.123147e-01
  2.894533e+01    8.054557e-01
  2.896120e+01    8.140864e-01
  2.897708e+01    8.403394e-01
  2.899295e+01    8.279366e-01
  2.900883e+01    8.314347e-01
  2.902471e+01    8.338683e-01
  2.904058e+01    8.180748e-01
  2.905646e+01    8.272651e-01
  2.907233e+01    8.173315e-01
  2.908821e+01    8.160608e-01
  2.910408e+01    8.241284e-01
  2.911996e+01    8.151154e-01
  2.913583e+01    8.030193e-01
  2.915171e+01    8.092244e-01
  2.916759e+01    8.285258e-01
  2.918346e+01    8.120976e-01
  2.919934e+01    8.285326e-01
  2.921521e+01    8.233196e-01
  2.923109e+01    8.185393e-01
  2.924696e+01    8.225805e-01
  2.926284e+01    8.188534e-01
  2.927871e+01    8.145608e-01
  2.929459e+01    8.093309e-01
  2.931047e+01    8.197528e-01
  2.932634e+01    8.111134e-01
  2.934222e+01    8.128211e-01
  2.935809e+01    7.941907e-01
  2.937397e+01    8.067861e-01
  2.938984e+01    7.994452e-01
  2.940572e+01    8.086010e-01
  2.942159e+01    8.049780e-01
  2.943747e+01    8.046865e-01
  2.945335e+01    7.872409e-01
  2.946922e+01    7.736293e-01
  2.948510e+01    8.170648e-01
  2.950097e+01    8.036817e-01
  2.951685e+01    8.152499e-01
  2.953272e+01    8.104120e-01
  2.954860e+01    8.019558e-01
  2.956447e+01    8.247191e-01
  2.958035e+01    8.059241e-01
  2.959623e+01    8.072323e-01
  2.961210e+01    8.128287e-01
  2.962798e+01    7.897716e-01
  2.964385e+01    8.069378e-01
  2.965973e+01    7.942411e-01
  2.967560e+01    7.978854e-01
  2.969148e+01    8.143943e-01
  2.970736e+01    8.184597e-01
  2.972323e+01    7.860335e-01
  2.973911e+01    8.039005e-01
  2.975498e+01    8.230619e-01
  2.977086e+01    8.417090e-01
  2.978673e+01    8.218610e-01
  2.980261e+01    8.127573e-01
  2.981848e+01    7.956939e-01
  2.983436e+01    7.870771e-01
  2.985024e+01    7.979835e-01
  2.986611e+01    7.870672e-01
  2.988199e+01    7.789588e-01
  2.989786e+01    8.007149e-01
  2.991374e+01    8.156322e-01
  2.992961e+01    8.072059e-01
  2.994549e+01    7.970138e-01
  2.996136e+01    7.940859e-01
  2.997724e+01    7.936951e-01
  2.999312e+01    8.084362e-01
  3.000899e+01    8.232327e-01
  3.002487e+01    8.216878e-01
  3.004074e+01    7.956876e-01
  3.005662e+01    7.866965e-01
  3.007249e+01    8.150252e-01
  3.008837e+01    8.016071e-01
  3.010424e+01    7.923927e-01
  3.012012e+01    8.095032e-01
  3.013600e+01    8.015714e-01
  3.015187e+01    7.858176e-01
  3.016775e+01    7.741717e-01
  3.018362e+01    7.681390e-01
  3.019950e+01    7.889535e-01
  3.021537e+01    7.986714e-01
  3.023125e+01    7.756506e-01
  3.024712e+01    7.654835e-01
  3.026300e+01    7.701712e-01
  3.027888e+01    7.878709e-01
  3.029475e+01    7.810367e-01
  3.031063e+01    7.988434e-01
  3.032650e+01    7.877514e-01
  3.034238e+01    7.848372e-01
  3.035825e+01    7.885687e-01
  3.037413e+01    7.782284e-01
  3.039000e+01    7.884638e-01
  3.040588e+01    8.006240e-01
  3.042176e+01    7.911561e-01
  3.043763e+01    7.761199e-01
  3.045351e+01    7.777979e-01
  3.046938e+01    7.688192e-01
  3.048526e+01    7.886683e-01
  3.050113e+01    8.115737e-01
  3.051701e+01    7.899332e-01
  3.053288e+01    8.020628e-01
  3.054876e+01    8.033556e-01
  3.056464e+01    7.910790e-01
  3.058051e+01    7.976273e-01
  3.059639e+01    7.741260e-01
  3.061226e+01    7.735295e-01
  3.062814e+01    7.947068e-01
  3.064401e+01    7.799985e-01
  3.065989e+01    7.680277e-01
  3.067577e+01    7.842414e-01
  3.069164e+01    7.850405e-01
  3.070752e+01    7.425707e-01
  3.072339e+01    7.591669e-01
  3.073927e+01    7.877604e-01
  3.075514e+01    7.995054e-01
  3.077102e+01    7.898708e-01
  3.078689e+01    7.712052e-01
  3.080277e+01    7.768709e-01
  3.081865e+01    7.811723e-01
  3.083452e+01    7.940721e-01
  3.085040e+01    8.034776e-01
  3.086627e+01    7.993881e-01
  3.088215e+01    7.942858e-01
  3.089802e+01    7.973657e-01
  3.091390e+01    7.982661e-01
  3.092977e+01    7.918499e-01
  3.094565e+01    7.834597e-01
  3.096153e+01    7.766100e-01
  3.097740e+01    7.786947e-01
  3.099328e+01    7.817956e-01
  3.100915e+01    7.615237e-01
  3.102503e+01    7.825447e-01
  3.104090e+01    8.007271e-01
  3.105678e+01    7.964271e-01
  3.107265e+01    7.997855e-01
  3.108853e+01    7.820395e-01
  3.110441e+01    7.964582e-01
  3.112028e+01    8.046926e-01
  3.113616e+01    7.924192e-01
  3.115203e+01    7.912544e-01
  3.116791e+01    7.922978e-01
  3.118378e+01    8.011923e-01
  3.119966e+01    7.736502e-01
  3.121553e+01    7.752887e-01
  3.123141e+01    8.064961e-01
  3.124729e+01    7.934176e-01
  3.126316e+01    8.054558e-01
  3.127904e+01    7.909409e-01
  3.129491e+01    7.977843e-01
  3.131079e+01    8.176130e-01
  3.132666e+01    8.133083e-01
  3.134254e+01    8.110359e-01
  3.135841e+01    8.343665e-01
  3.137429e+01    8.372693e-01
  3.139017e+01    8.164283e-01
  3.140604e+01    8.059624e-01
  3.142192e+01    8.090554e-01
  3.143779e+01    7.892477e-01
  3.145367e+01    8.055174e-01
  3.146954e+01    8.239174e-01
  3.148542e+01    8.129175e-01
  3.150129e+01    8.270573e-01
  3.151717e+01    8.335314e-01
  3.153305e+01    8.417478e-01
  3.154892e+01    8.571411e-01
  3.156480e+01    8.616037e-01
  3.158067e+01    8.818623e-01
  3.159655e+01    8.774722e-01
  3.161242e+01    8.942265e-01
  3.162830e+01    8.793626e-01
  3.164418e+01    9.264190e-01
  3.166005e+01    9.415879e-01
  3.167593e+01    9.619888e-01
  3.169180e+01    9.813656e-01
  3.170768e+01    1.026469e+00
  3.172355e+01    1.060576e+00
  3.173943e+01    1.118198e+00
  3.175530e+01    1.215522e+00
  3.177118e+01    1.296637e+00
  3.178706e+01    1.364993e+00
  3.180293e+01    1.463647e+00
  3.181881e+01    1.610919e+00
  3.183468e+01    1.727647e+00
  3.185056e+01    1.850331e+00
  3.186643e+01    1.955640e+00
  3.188231e+01    2.060487e+00
  3.189818e+01    2.107646e+00
  3.191406e+01    2.109329e+00
  3.192994e+01    2.059008e+00
  3.194581e+01    1.960744e+00
  3.196169e+01    1.819144e+00
  3.197756e+01    1.685590e+00
  3.199344e+01    1.588548e+00
  3.200931e+01    1.440559e+00
  3.202519e+01    1.310970e+00
  3.204106e+01    1.230022e+00
  3.205694e+01    1.174450e+00
  3.207282e+01    1.113941e+00
  3.208869e+01    1.053114e+00
  3.210457e+01    9.878663e-01
  3.212044e+01    9.691139e-01
  3.213632e+01    9.419687e-01
  3.215219e+01    9.264123e-01
  3.216807e+01    9.035649e-01
  3.218394e+01    8.900833e-01
  3.219982e+01    8.656996e-01
  3.221570e+01    8.287165e-01
  3.223157e+01    8.249010e-01
  3.224745e+01    8.306416e-01
  3.226332e+01    8.383354e-01
  3.227920e+01    8.299915e-01
  3.229507e+01    8.218868e-01
  3.231095e+01    8.103346e-01
  3.232682e+01    7.904398e-01
  3.234270e+01    8.116713e-01
  3.235858e+01    8.101387e-01
  3.237445e+01    7.857205e-01
  3.239033e+01    7.964340e-01
  3.240620e+01    7.921303e-01
  3.242208e+01    7.940348e-01
  3.243795e+01    7.934397e-01
  3.245383e+01    7.910961e-01
  3.246970e+01    7.874150e-01
  3.248558e+01    7.805025e-01
  3.250146e+01    7.654109e-01
  3.251733e+01    8.039434e-01
  3.253321e+01    7.973388e-01
  3.254908e+01    7.667344e-01
