# == pyFAI calibration ==
# Distance Sample to Detector: 0.3999999939076516 m
# PONI: 9.750e-02, 1.135e-01 m
# Rotations: -0.000175 0.000000 -0.000000 rad
# 
# == Fit2d calibration ==
# Distance Sample-beamCenter: 400.000 mm
# Center: x=1514.000, y=1300.000 pix
# Tilt: 0.010 deg  TiltPlanRot: 0.010 deg
# 
# Detector Detector	 Spline= None	 PixelSize= 7.500e-05, 7.500e-05 m
#    Detector has a mask: False 
#    Detector has a dark current: False 
#    detector has a flat field: False 
# 
# Wavelength: 6.888e-11 m
# Mask applied: user provided
# Dark current applied: False
# Flat field applied: False
# Polarization factor: 0.99
# Normalization factor: 1.0
# --> /home/myspot/data/2024_07_Rosario/Ru-CGO-ex/2024-07-27_003_Ru-CGO-ex_Reaction_dwell_000023_data_000070.dat
#       q_nm^-1             I 
  2.003187e-02    7.711873e-02
  3.590745e-02    1.700957e-01
  5.178302e-02    1.655785e-01
  6.765859e-02    4.965349e-02
  8.353417e-02    5.694613e-02
  9.940974e-02    7.718560e-02
  1.152853e-01    7.028985e-02
  1.311609e-01    8.417908e-02
  1.470365e-01    1.756832e-01
  1.629120e-01    6.359431e-02
  1.787876e-01    2.078067e-02
  1.946632e-01    7.579994e-02
  2.105388e-01    8.272579e-02
  2.264143e-01    3.495674e-02
  2.422899e-01    1.437260e-02
  2.581655e-01    3.239641e-02
  2.740411e-01    2.812479e-02
  2.899166e-01    3.659939e-02
  3.057922e-01    3.050795e-02
  3.216678e-01    8.207757e-02
  3.375433e-01    6.589290e-02
  3.534189e-01    3.530445e-04
  3.692945e-01    2.749198e-02
  3.851701e-01    5.543280e-02
  4.010456e-01    4.092183e-02
  4.169212e-01    4.633253e-02
  4.327968e-01    4.673101e-02
  4.486724e-01    7.538905e-02
  4.645479e-01    5.297225e-02
  4.804235e-01    4.653549e-02
  4.962991e-01    3.849988e-02
  5.121747e-01    3.415541e-02
  5.280502e-01    2.604035e-02
  5.439258e-01    4.683543e-02
  5.598014e-01    4.010162e-02
  5.756770e-01    3.643877e-02
  5.915525e-01    4.193290e-02
  6.074281e-01    4.354312e-02
  6.233037e-01    7.505811e-02
  6.391793e-01    7.855269e-02
  6.550548e-01    6.234403e-02
  6.709304e-01    3.034949e-02
  6.868060e-01    3.361176e-02
  7.026815e-01    3.890027e-02
  7.185571e-01    4.856427e-02
  7.344327e-01    3.761241e-02
  7.503083e-01    5.630660e-02
  7.661838e-01    9.292196e-02
  7.820594e-01    1.349863e-01
  7.979350e-01    2.102893e-01
  8.138106e-01    2.213707e-01
  8.296861e-01    2.199870e-01
  8.455617e-01    3.089372e-01
  8.614373e-01    3.958009e-01
  8.773129e-01    4.604039e-01
  8.931884e-01    5.071644e-01
  9.090640e-01    6.573170e-01
  9.249396e-01    7.263088e-01
  9.408152e-01    8.388288e-01
  9.566907e-01    9.221641e-01
  9.725663e-01    1.054713e+00
  9.884419e-01    1.113171e+00
  1.004317e+00    1.244328e+00
  1.020193e+00    1.437825e+00
  1.036069e+00    1.496570e+00
  1.051944e+00    1.466779e+00
  1.067820e+00    1.492751e+00
  1.083695e+00    1.559064e+00
  1.099571e+00    1.624773e+00
  1.115446e+00    1.681624e+00
  1.131322e+00    1.611690e+00
  1.147198e+00    1.701948e+00
  1.163073e+00    1.688034e+00
  1.178949e+00    1.648570e+00
  1.194824e+00    1.783436e+00
  1.210700e+00    2.054217e+00
  1.226575e+00    2.288419e+00
  1.242451e+00    2.397152e+00
  1.258327e+00    2.424160e+00
  1.274202e+00    2.521872e+00
  1.290078e+00    2.571893e+00
  1.305953e+00    2.602337e+00
  1.321829e+00    2.796021e+00
  1.337705e+00    2.747464e+00
  1.353580e+00    2.755055e+00
  1.369456e+00    2.789804e+00
  1.385331e+00    2.768047e+00
  1.401207e+00    2.838540e+00
  1.417082e+00    2.937394e+00
  1.432958e+00    2.950109e+00
  1.448834e+00    2.993075e+00
  1.464709e+00    2.958103e+00
  1.480585e+00    3.064932e+00
  1.496460e+00    3.237300e+00
  1.512336e+00    3.233760e+00
  1.528211e+00    3.170965e+00
  1.544087e+00    3.127706e+00
  1.559963e+00    3.070791e+00
  1.575838e+00    3.107208e+00
  1.591714e+00    3.109833e+00
  1.607589e+00    3.078365e+00
  1.623465e+00    3.097186e+00
  1.639340e+00    3.151276e+00
  1.655216e+00    3.163810e+00
  1.671092e+00    3.083082e+00
  1.686967e+00    3.062995e+00
  1.702843e+00    3.152525e+00
  1.718718e+00    3.030308e+00
  1.734594e+00    3.067766e+00
  1.750469e+00    3.084294e+00
  1.766345e+00    3.006563e+00
  1.782221e+00    3.027110e+00
  1.798096e+00    3.089343e+00
  1.813972e+00    3.129596e+00
  1.829847e+00    3.057519e+00
  1.845723e+00    2.972046e+00
  1.861598e+00    2.852553e+00
  1.877474e+00    2.936388e+00
  1.893350e+00    3.068105e+00
  1.909225e+00    3.046390e+00
  1.925101e+00    2.991724e+00
  1.940976e+00    3.115743e+00
  1.956852e+00    3.144671e+00
  1.972727e+00    3.148421e+00
  1.988603e+00    3.095805e+00
  2.004479e+00    3.152901e+00
  2.020354e+00    3.075796e+00
  2.036230e+00    3.083374e+00
  2.052105e+00    3.134505e+00
  2.067981e+00    3.196786e+00
  2.083856e+00    3.165824e+00
  2.099732e+00    3.129564e+00
  2.115608e+00    3.154576e+00
  2.131483e+00    3.187918e+00
  2.147359e+00    3.158834e+00
  2.163234e+00    3.248087e+00
  2.179110e+00    3.179143e+00
  2.194985e+00    3.117220e+00
  2.210861e+00    3.100347e+00
  2.226737e+00    3.154018e+00
  2.242612e+00    3.110351e+00
  2.258488e+00    3.108629e+00
  2.274363e+00    3.182441e+00
  2.290239e+00    3.245980e+00
  2.306115e+00    3.270574e+00
  2.321990e+00    3.214189e+00
  2.337866e+00    3.182515e+00
  2.353741e+00    3.020063e+00
  2.369617e+00    3.031920e+00
  2.385492e+00    3.116108e+00
  2.401368e+00    3.249175e+00
  2.417244e+00    3.226727e+00
  2.433119e+00    3.174532e+00
  2.448995e+00    3.187486e+00
  2.464870e+00    3.240664e+00
  2.480746e+00    3.238713e+00
  2.496621e+00    3.193150e+00
  2.512497e+00    3.257339e+00
  2.528373e+00    3.296183e+00
  2.544248e+00    3.289658e+00
  2.560124e+00    3.210445e+00
  2.575999e+00    3.290740e+00
  2.591875e+00    3.335255e+00
  2.607750e+00    3.370064e+00
  2.623626e+00    3.259331e+00
  2.639502e+00    3.245263e+00
  2.655377e+00    3.265285e+00
  2.671253e+00    3.270477e+00
  2.687128e+00    3.244918e+00
  2.703004e+00    3.227424e+00
  2.718879e+00    3.245351e+00
  2.734755e+00    3.251951e+00
  2.750631e+00    3.276361e+00
  2.766506e+00    3.277773e+00
  2.782382e+00    3.319332e+00
  2.798257e+00    3.287544e+00
  2.814133e+00    3.190038e+00
  2.830008e+00    3.206734e+00
  2.845884e+00    3.273715e+00
  2.861760e+00    3.319556e+00
  2.877635e+00    3.367545e+00
  2.893511e+00    3.389909e+00
  2.909386e+00    3.306711e+00
  2.925262e+00    3.284035e+00
  2.941137e+00    3.390323e+00
  2.957013e+00    3.327849e+00
  2.972889e+00    3.362458e+00
  2.988764e+00    3.410848e+00
  3.004640e+00    3.251519e+00
  3.020515e+00    3.323115e+00
  3.036391e+00    3.347713e+00
  3.052266e+00    3.356169e+00
  3.068142e+00    3.311256e+00
  3.084018e+00    3.299399e+00
  3.099893e+00    3.372113e+00
  3.115769e+00    3.466687e+00
  3.131644e+00    3.307520e+00
  3.147520e+00    3.366735e+00
  3.163395e+00    3.363431e+00
  3.179271e+00    3.364185e+00
  3.195147e+00    3.364214e+00
  3.211022e+00    3.350000e+00
  3.226898e+00    3.358198e+00
  3.242773e+00    3.332243e+00
  3.258649e+00    3.264847e+00
  3.274525e+00    3.390188e+00
  3.290400e+00    3.436245e+00
  3.306276e+00    3.429180e+00
  3.322151e+00    3.388535e+00
  3.338027e+00    3.384878e+00
  3.353902e+00    3.363605e+00
  3.369778e+00    3.428255e+00
  3.385654e+00    3.494501e+00
  3.401529e+00    3.444609e+00
  3.417405e+00    3.415466e+00
  3.433280e+00    3.463658e+00
  3.449156e+00    3.408914e+00
  3.465031e+00    3.385511e+00
  3.480907e+00    3.482790e+00
  3.496783e+00    3.439610e+00
  3.512658e+00    3.392618e+00
  3.528534e+00    3.406020e+00
  3.544409e+00    3.531767e+00
  3.560285e+00    3.489663e+00
  3.576160e+00    3.449180e+00
  3.592036e+00    3.416259e+00
  3.607912e+00    3.464281e+00
  3.623787e+00    3.414395e+00
  3.639663e+00    3.453575e+00
  3.655538e+00    3.532764e+00
  3.671414e+00    3.521049e+00
  3.687289e+00    3.598764e+00
  3.703165e+00    3.545580e+00
  3.719041e+00    3.490133e+00
  3.734916e+00    3.481185e+00
  3.750792e+00    3.479360e+00
  3.766667e+00    3.484072e+00
  3.782543e+00    3.470536e+00
  3.798418e+00    3.481495e+00
  3.814294e+00    3.464855e+00
  3.830170e+00    3.417027e+00
  3.846045e+00    3.454199e+00
  3.861921e+00    3.475019e+00
  3.877796e+00    3.503314e+00
  3.893672e+00    3.438929e+00
  3.909547e+00    3.478711e+00
  3.925423e+00    3.508213e+00
  3.941299e+00    3.455853e+00
  3.957174e+00    3.485156e+00
  3.973050e+00    3.521199e+00
  3.988925e+00    3.541371e+00
  4.004801e+00    3.538059e+00
  4.020676e+00    3.505006e+00
  4.036552e+00    3.584610e+00
  4.052428e+00    3.595711e+00
  4.068303e+00    3.514405e+00
  4.084179e+00    3.517285e+00
  4.100054e+00    3.491708e+00
  4.115930e+00    3.460374e+00
  4.131806e+00    3.583284e+00
  4.147681e+00    3.599504e+00
  4.163557e+00    3.508492e+00
  4.179432e+00    3.419708e+00
  4.195308e+00    3.524548e+00
  4.211183e+00    3.565219e+00
  4.227059e+00    3.663551e+00
  4.242935e+00    3.643413e+00
  4.258810e+00    3.529613e+00
  4.274686e+00    3.468570e+00
  4.290561e+00    3.438491e+00
  4.306437e+00    3.512247e+00
  4.322312e+00    3.528431e+00
  4.338188e+00    3.597508e+00
  4.354064e+00    3.632530e+00
  4.369939e+00    3.686884e+00
  4.385815e+00    3.681868e+00
  4.401690e+00    3.585614e+00
  4.417566e+00    3.557202e+00
  4.433441e+00    3.623331e+00
  4.449317e+00    3.635426e+00
  4.465193e+00    3.603728e+00
  4.481068e+00    3.625248e+00
  4.496944e+00    3.673624e+00
  4.512819e+00    3.701169e+00
  4.528695e+00    3.655642e+00
  4.544570e+00    3.606269e+00
  4.560446e+00    3.655951e+00
  4.576322e+00    3.668443e+00
  4.592197e+00    3.698260e+00
  4.608073e+00    3.687301e+00
  4.623948e+00    3.607416e+00
  4.639824e+00    3.568434e+00
  4.655699e+00    3.537914e+00
  4.671575e+00    3.561017e+00
  4.687451e+00    3.490016e+00
  4.703326e+00    3.553056e+00
  4.719202e+00    3.649666e+00
  4.735077e+00    3.670340e+00
  4.750953e+00    3.619178e+00
  4.766828e+00    3.555876e+00
  4.782704e+00    3.638404e+00
  4.798580e+00    3.674871e+00
  4.814455e+00    3.670475e+00
  4.830331e+00    3.583646e+00
  4.846206e+00    3.590623e+00
  4.862082e+00    3.636134e+00
  4.877957e+00    3.702079e+00
  4.893833e+00    3.693635e+00
  4.909709e+00    3.682419e+00
  4.925584e+00    3.650482e+00
  4.941460e+00    3.667257e+00
  4.957335e+00    3.690927e+00
  4.973211e+00    3.634731e+00
  4.989086e+00    3.638682e+00
  5.004962e+00    3.625907e+00
  5.020838e+00    3.647317e+00
  5.036713e+00    3.655840e+00
  5.052589e+00    3.659364e+00
  5.068464e+00    3.524199e+00
  5.084340e+00    3.548394e+00
  5.100216e+00    3.701998e+00
  5.116091e+00    3.709295e+00
  5.131967e+00    3.671800e+00
  5.147842e+00    3.639612e+00
  5.163718e+00    3.663158e+00
  5.179593e+00    3.561464e+00
  5.195469e+00    3.523092e+00
  5.211345e+00    3.576615e+00
  5.227220e+00    3.626738e+00
  5.243096e+00    3.643235e+00
  5.258971e+00    3.681299e+00
  5.274847e+00    3.620452e+00
  5.290722e+00    3.645849e+00
  5.306598e+00    3.646064e+00
  5.322474e+00    3.674471e+00
  5.338349e+00    3.615581e+00
  5.354225e+00    3.575541e+00
  5.370100e+00    3.679352e+00
  5.385976e+00    3.709517e+00
  5.401851e+00    3.683274e+00
  5.417727e+00    3.668200e+00
  5.433603e+00    3.579319e+00
  5.449478e+00    3.589790e+00
  5.465354e+00    3.672394e+00
  5.481229e+00    3.612818e+00
  5.497105e+00    3.565691e+00
  5.512980e+00    3.606207e+00
  5.528856e+00    3.573683e+00
  5.544732e+00    3.624715e+00
  5.560607e+00    3.583318e+00
  5.576483e+00    3.615005e+00
  5.592358e+00    3.560957e+00
  5.608234e+00    3.564700e+00
  5.624109e+00    3.598400e+00
  5.639985e+00    3.591740e+00
  5.655861e+00    3.550875e+00
  5.671736e+00    3.606053e+00
  5.687612e+00    3.626658e+00
  5.703487e+00    3.615456e+00
  5.719363e+00    3.622305e+00
  5.735238e+00    3.612957e+00
  5.751114e+00    3.644291e+00
  5.766990e+00    3.584023e+00
  5.782865e+00    3.477861e+00
  5.798741e+00    3.520227e+00
  5.814616e+00    3.594153e+00
  5.830492e+00    3.518311e+00
  5.846367e+00    3.494068e+00
  5.862243e+00    3.593737e+00
  5.878119e+00    3.549694e+00
  5.893994e+00    3.528880e+00
  5.909870e+00    3.571216e+00
  5.925745e+00    3.549534e+00
  5.941621e+00    3.498010e+00
  5.957497e+00    3.608376e+00
  5.973372e+00    3.604831e+00
  5.989248e+00    3.547420e+00
  6.005123e+00    3.508570e+00
  6.020999e+00    3.557567e+00
  6.036874e+00    3.590345e+00
  6.052750e+00    3.564314e+00
  6.068626e+00    3.601118e+00
  6.084501e+00    3.655560e+00
  6.100377e+00    3.621687e+00
  6.116252e+00    3.650156e+00
  6.132128e+00    3.609482e+00
  6.148003e+00    3.522433e+00
  6.163879e+00    3.571182e+00
  6.179755e+00    3.592132e+00
  6.195630e+00    3.660665e+00
  6.211506e+00    3.596138e+00
  6.227381e+00    3.557093e+00
  6.243257e+00    3.563349e+00
  6.259132e+00    3.506119e+00
  6.275008e+00    3.476577e+00
  6.290884e+00    3.557554e+00
  6.306759e+00    3.598914e+00
  6.322635e+00    3.621675e+00
  6.338510e+00    3.590528e+00
  6.354386e+00    3.590000e+00
  6.370261e+00    3.575642e+00
  6.386137e+00    3.567035e+00
  6.402013e+00    3.563524e+00
  6.417888e+00    3.550985e+00
  6.433764e+00    3.574704e+00
  6.449639e+00    3.586032e+00
  6.465515e+00    3.572621e+00
  6.481390e+00    3.580631e+00
  6.497266e+00    3.547357e+00
  6.513142e+00    3.581027e+00
  6.529017e+00    3.515547e+00
  6.544893e+00    3.517174e+00
  6.560768e+00    3.595407e+00
  6.576644e+00    3.662954e+00
  6.592519e+00    3.563159e+00
  6.608395e+00    3.527027e+00
  6.624271e+00    3.489336e+00
  6.640146e+00    3.572676e+00
  6.656022e+00    3.566207e+00
  6.671897e+00    3.596331e+00
  6.687773e+00    3.536997e+00
  6.703648e+00    3.572208e+00
  6.719524e+00    3.571761e+00
  6.735400e+00    3.559716e+00
  6.751275e+00    3.559372e+00
  6.767151e+00    3.637106e+00
  6.783026e+00    3.610716e+00
  6.798902e+00    3.503561e+00
  6.814777e+00    3.534234e+00
  6.830653e+00    3.543417e+00
  6.846529e+00    3.594919e+00
  6.862404e+00    3.592068e+00
  6.878280e+00    3.573426e+00
  6.894155e+00    3.522943e+00
  6.910031e+00    3.472506e+00
  6.925907e+00    3.467061e+00
  6.941782e+00    3.519978e+00
  6.957658e+00    3.594990e+00
  6.973533e+00    3.562970e+00
  6.989409e+00    3.554029e+00
  7.005284e+00    3.581203e+00
  7.021160e+00    3.577015e+00
  7.037036e+00    3.563748e+00
  7.052911e+00    3.608785e+00
  7.068787e+00    3.547237e+00
  7.084662e+00    3.530236e+00
  7.100538e+00    3.546864e+00
  7.116413e+00    3.540636e+00
  7.132289e+00    3.556643e+00
  7.148165e+00    3.546099e+00
  7.164040e+00    3.549037e+00
  7.179916e+00    3.543434e+00
  7.195791e+00    3.529270e+00
  7.211667e+00    3.509146e+00
  7.227542e+00    3.593672e+00
  7.243418e+00    3.519025e+00
  7.259294e+00    3.500205e+00
  7.275169e+00    3.599362e+00
  7.291045e+00    3.498849e+00
  7.306920e+00    3.517581e+00
  7.322796e+00    3.499383e+00
  7.338671e+00    3.408207e+00
  7.354547e+00    3.525428e+00
  7.370423e+00    3.509853e+00
  7.386298e+00    3.475436e+00
  7.402174e+00    3.540189e+00
  7.418049e+00    3.486143e+00
  7.433925e+00    3.509537e+00
  7.449800e+00    3.562871e+00
  7.465676e+00    3.483107e+00
  7.481552e+00    3.443736e+00
  7.497427e+00    3.487136e+00
  7.513303e+00    3.494270e+00
  7.529178e+00    3.483187e+00
  7.545054e+00    3.491557e+00
  7.560929e+00    3.408548e+00
  7.576805e+00    3.443930e+00
  7.592681e+00    3.467990e+00
  7.608556e+00    3.483720e+00
  7.624432e+00    3.506301e+00
  7.640307e+00    3.479435e+00
  7.656183e+00    3.412791e+00
  7.672058e+00    3.417954e+00
  7.687934e+00    3.446536e+00
  7.703810e+00    3.392799e+00
  7.719685e+00    3.400749e+00
  7.735561e+00    3.516322e+00
  7.751436e+00    3.475390e+00
  7.767312e+00    3.393922e+00
  7.783187e+00    3.459808e+00
  7.799063e+00    3.449319e+00
  7.814939e+00    3.405965e+00
  7.830814e+00    3.398738e+00
  7.846690e+00    3.393666e+00
  7.862565e+00    3.398680e+00
  7.878441e+00    3.411028e+00
  7.894317e+00    3.425402e+00
  7.910192e+00    3.396950e+00
  7.926068e+00    3.436722e+00
  7.941943e+00    3.418631e+00
  7.957819e+00    3.435501e+00
  7.973694e+00    3.449791e+00
  7.989570e+00    3.422234e+00
  8.005446e+00    3.444994e+00
  8.021321e+00    3.402290e+00
  8.037197e+00    3.438956e+00
  8.053072e+00    3.417959e+00
  8.068948e+00    3.450787e+00
  8.084823e+00    3.435392e+00
  8.100699e+00    3.425145e+00
  8.116575e+00    3.393372e+00
  8.132450e+00    3.449796e+00
  8.148326e+00    3.505277e+00
  8.164201e+00    3.463614e+00
  8.180077e+00    3.452120e+00
  8.195952e+00    3.494532e+00
  8.211828e+00    3.408402e+00
  8.227704e+00    3.457240e+00
  8.243579e+00    3.484450e+00
  8.259455e+00    3.521190e+00
  8.275330e+00    3.475338e+00
  8.291206e+00    3.432507e+00
  8.307081e+00    3.374833e+00
  8.322957e+00    3.371112e+00
  8.338833e+00    3.411732e+00
  8.354708e+00    3.333441e+00
  8.370584e+00    3.354048e+00
  8.386459e+00    3.405823e+00
  8.402335e+00    3.413960e+00
  8.418210e+00    3.314584e+00
  8.434086e+00    3.302599e+00
  8.449962e+00    3.335723e+00
  8.465837e+00    3.359794e+00
  8.481713e+00    3.402534e+00
  8.497588e+00    3.344862e+00
  8.513464e+00    3.368631e+00
  8.529339e+00    3.310712e+00
  8.545215e+00    3.338109e+00
  8.561091e+00    3.366251e+00
  8.576966e+00    3.328836e+00
  8.592842e+00    3.351662e+00
  8.608717e+00    3.334552e+00
  8.624593e+00    3.312842e+00
  8.640468e+00    3.327049e+00
  8.656344e+00    3.314177e+00
  8.672220e+00    3.335668e+00
  8.688095e+00    3.338805e+00
  8.703971e+00    3.331586e+00
  8.719846e+00    3.318589e+00
  8.735722e+00    3.343546e+00
  8.751598e+00    3.275531e+00
  8.767473e+00    3.255348e+00
  8.783349e+00    3.286152e+00
  8.799224e+00    3.362131e+00
  8.815100e+00    3.327777e+00
  8.830975e+00    3.341609e+00
  8.846851e+00    3.382329e+00
  8.862727e+00    3.397796e+00
  8.878602e+00    3.307163e+00
  8.894478e+00    3.331060e+00
  8.910353e+00    3.357166e+00
  8.926229e+00    3.358180e+00
  8.942104e+00    3.280345e+00
  8.957980e+00    3.261505e+00
  8.973856e+00    3.318638e+00
  8.989731e+00    3.317871e+00
  9.005607e+00    3.266853e+00
  9.021482e+00    3.309012e+00
  9.037358e+00    3.294758e+00
  9.053233e+00    3.277132e+00
  9.069109e+00    3.241559e+00
  9.084985e+00    3.302719e+00
  9.100860e+00    3.289294e+00
  9.116736e+00    3.343004e+00
  9.132611e+00    3.300937e+00
  9.148487e+00    3.275342e+00
  9.164362e+00    3.222223e+00
  9.180238e+00    3.268529e+00
  9.196114e+00    3.257329e+00
  9.211989e+00    3.211668e+00
  9.227865e+00    3.200091e+00
  9.243740e+00    3.236632e+00
  9.259616e+00    3.251050e+00
  9.275491e+00    3.263505e+00
  9.291367e+00    3.259557e+00
  9.307243e+00    3.193674e+00
  9.323118e+00    3.191111e+00
  9.338994e+00    3.218763e+00
  9.354869e+00    3.258292e+00
  9.370745e+00    3.149855e+00
  9.386620e+00    3.192594e+00
  9.402496e+00    3.215043e+00
  9.418372e+00    3.197528e+00
  9.434247e+00    3.192043e+00
  9.450123e+00    3.193732e+00
  9.465998e+00    3.134922e+00
  9.481874e+00    3.148260e+00
  9.497749e+00    3.203442e+00
  9.513625e+00    3.245880e+00
  9.529501e+00    3.245606e+00
  9.545376e+00    3.211803e+00
  9.561252e+00    3.258541e+00
  9.577127e+00    3.314435e+00
  9.593003e+00    3.279582e+00
  9.608878e+00    3.199498e+00
  9.624754e+00    3.190165e+00
  9.640630e+00    3.183484e+00
  9.656505e+00    3.171556e+00
  9.672381e+00    3.261915e+00
  9.688256e+00    3.246458e+00
  9.704132e+00    3.254598e+00
  9.720008e+00    3.217063e+00
  9.735883e+00    3.166638e+00
  9.751759e+00    3.158319e+00
  9.767634e+00    3.129308e+00
  9.783510e+00    3.155327e+00
  9.799385e+00    3.213097e+00
  9.815261e+00    3.174220e+00
  9.831137e+00    3.117861e+00
  9.847012e+00    3.174672e+00
  9.862888e+00    3.209450e+00
  9.878763e+00    3.180161e+00
  9.894639e+00    3.151614e+00
  9.910514e+00    3.107283e+00
  9.926390e+00    3.105009e+00
  9.942266e+00    3.089067e+00
  9.958141e+00    3.086656e+00
  9.974017e+00    3.097156e+00
  9.989892e+00    3.164463e+00
  1.000577e+01    3.066136e+00
  1.002164e+01    3.146988e+00
  1.003752e+01    3.094811e+00
  1.005339e+01    3.108593e+00
  1.006927e+01    3.109597e+00
  1.008515e+01    3.078190e+00
  1.010102e+01    3.071343e+00
  1.011690e+01    3.100377e+00
  1.013277e+01    3.136156e+00
  1.014865e+01    3.134591e+00
  1.016452e+01    3.115520e+00
  1.018040e+01    3.071846e+00
  1.019627e+01    3.038760e+00
  1.021215e+01    3.061932e+00
  1.022803e+01    3.089498e+00
  1.024390e+01    3.057511e+00
  1.025978e+01    3.041517e+00
  1.027565e+01    3.103508e+00
  1.029153e+01    3.069861e+00
  1.030740e+01    3.056670e+00
  1.032328e+01    3.055195e+00
  1.033915e+01    3.076871e+00
  1.035503e+01    3.087081e+00
  1.037091e+01    3.092379e+00
  1.038678e+01    3.028858e+00
  1.040266e+01    3.023284e+00
  1.041853e+01    3.050476e+00
  1.043441e+01    3.026325e+00
  1.045028e+01    3.047137e+00
  1.046616e+01    2.989603e+00
  1.048204e+01    3.067002e+00
  1.049791e+01    3.078073e+00
  1.051379e+01    2.973864e+00
  1.052966e+01    3.028119e+00
  1.054554e+01    2.989634e+00
  1.056141e+01    2.983166e+00
  1.057729e+01    3.034391e+00
  1.059316e+01    3.065247e+00
  1.060904e+01    3.031385e+00
  1.062492e+01    3.002445e+00
  1.064079e+01    2.996551e+00
  1.065667e+01    3.008645e+00
  1.067254e+01    2.986287e+00
  1.068842e+01    2.981228e+00
  1.070429e+01    2.971269e+00
  1.072017e+01    2.981662e+00
  1.073604e+01    2.968666e+00
  1.075192e+01    2.946035e+00
  1.076780e+01    2.985317e+00
  1.078367e+01    2.923626e+00
  1.079955e+01    2.930066e+00
  1.081542e+01    2.934564e+00
  1.083130e+01    2.935206e+00
  1.084717e+01    2.885484e+00
  1.086305e+01    2.916809e+00
  1.087892e+01    2.973853e+00
  1.089480e+01    2.947116e+00
  1.091068e+01    2.916807e+00
  1.092655e+01    2.944837e+00
  1.094243e+01    2.942187e+00
  1.095830e+01    2.960549e+00
  1.097418e+01    2.920741e+00
  1.099005e+01    2.863742e+00
  1.100593e+01    2.928661e+00
  1.102180e+01    2.889884e+00
  1.103768e+01    2.894233e+00
  1.105356e+01    2.863334e+00
  1.106943e+01    2.889866e+00
  1.108531e+01    2.918092e+00
  1.110118e+01    2.909710e+00
  1.111706e+01    2.861178e+00
  1.113293e+01    2.865360e+00
  1.114881e+01    2.877116e+00
  1.116468e+01    2.808314e+00
  1.118056e+01    2.798685e+00
  1.119644e+01    2.916441e+00
  1.121231e+01    2.927842e+00
  1.122819e+01    2.896703e+00
  1.124406e+01    2.856534e+00
  1.125994e+01    2.909570e+00
  1.127581e+01    2.857847e+00
  1.129169e+01    2.860841e+00
  1.130756e+01    2.825728e+00
  1.132344e+01    2.787627e+00
  1.133932e+01    2.799551e+00
  1.135519e+01    2.799313e+00
  1.137107e+01    2.842428e+00
  1.138694e+01    2.853098e+00
  1.140282e+01    2.825626e+00
  1.141869e+01    2.844770e+00
  1.143457e+01    2.803482e+00
  1.145045e+01    2.790317e+00
  1.146632e+01    2.811318e+00
  1.148220e+01    2.789467e+00
  1.149807e+01    2.744318e+00
  1.151395e+01    2.754858e+00
  1.152982e+01    2.767706e+00
  1.154570e+01    2.763873e+00
  1.156157e+01    2.794849e+00
  1.157745e+01    2.758855e+00
  1.159333e+01    2.785941e+00
  1.160920e+01    2.763423e+00
  1.162508e+01    2.762081e+00
  1.164095e+01    2.789923e+00
  1.165683e+01    2.786158e+00
  1.167270e+01    2.824998e+00
  1.168858e+01    2.813408e+00
  1.170445e+01    2.763722e+00
  1.172033e+01    2.788081e+00
  1.173621e+01    2.796518e+00
  1.175208e+01    2.807979e+00
  1.176796e+01    2.767743e+00
  1.178383e+01    2.739580e+00
  1.179971e+01    2.733934e+00
  1.181558e+01    2.757834e+00
  1.183146e+01    2.788061e+00
  1.184733e+01    2.763305e+00
  1.186321e+01    2.737372e+00
  1.187909e+01    2.698231e+00
  1.189496e+01    2.680636e+00
  1.191084e+01    2.714648e+00
  1.192671e+01    2.725954e+00
  1.194259e+01    2.681667e+00
  1.195846e+01    2.675283e+00
  1.197434e+01    2.710185e+00
  1.199021e+01    2.735577e+00
  1.200609e+01    2.727160e+00
  1.202197e+01    2.704015e+00
  1.203784e+01    2.735816e+00
  1.205372e+01    2.737700e+00
  1.206959e+01    2.687173e+00
  1.208547e+01    2.689548e+00
  1.210134e+01    2.661220e+00
  1.211722e+01    2.642783e+00
  1.213309e+01    2.731539e+00
  1.214897e+01    2.703387e+00
  1.216485e+01    2.663747e+00
  1.218072e+01    2.672302e+00
  1.219660e+01    2.698859e+00
  1.221247e+01    2.702046e+00
  1.222835e+01    2.689724e+00
  1.224422e+01    2.660320e+00
  1.226010e+01    2.679148e+00
  1.227597e+01    2.667906e+00
  1.229185e+01    2.688622e+00
  1.230773e+01    2.662004e+00
  1.232360e+01    2.615274e+00
  1.233948e+01    2.658769e+00
  1.235535e+01    2.705503e+00
  1.237123e+01    2.722886e+00
  1.238710e+01    2.678751e+00
  1.240298e+01    2.691665e+00
  1.241886e+01    2.705934e+00
  1.243473e+01    2.676585e+00
  1.245061e+01    2.702075e+00
  1.246648e+01    2.703824e+00
  1.248236e+01    2.666168e+00
  1.249823e+01    2.652703e+00
  1.251411e+01    2.693509e+00
  1.252998e+01    2.715606e+00
  1.254586e+01    2.719952e+00
  1.256174e+01    2.718788e+00
  1.257761e+01    2.737508e+00
  1.259349e+01    2.725221e+00
  1.260936e+01    2.727369e+00
  1.262524e+01    2.793686e+00
  1.264111e+01    2.820060e+00
  1.265699e+01    2.767080e+00
  1.267286e+01    2.766440e+00
  1.268874e+01    2.836583e+00
  1.270462e+01    2.808176e+00
  1.272049e+01    2.865198e+00
  1.273637e+01    2.877832e+00
  1.275224e+01    2.867188e+00
  1.276812e+01    2.893051e+00
  1.278399e+01    2.924888e+00
  1.279987e+01    2.976627e+00
  1.281574e+01    3.048553e+00
  1.283162e+01    3.070549e+00
  1.284750e+01    3.123786e+00
  1.286337e+01    3.232306e+00
  1.287925e+01    3.344817e+00
  1.289512e+01    3.557581e+00
  1.291100e+01    3.717485e+00
  1.292687e+01    3.874485e+00
  1.294275e+01    4.105165e+00
  1.295862e+01    4.406051e+00
  1.297450e+01    4.804410e+00
  1.299038e+01    5.330626e+00
  1.300625e+01    5.879866e+00
  1.302213e+01    6.661279e+00
  1.303800e+01    7.744123e+00
  1.305388e+01    8.940431e+00
  1.306975e+01    1.013244e+01
  1.308563e+01    1.131767e+01
  1.310150e+01    1.260453e+01
  1.311738e+01    1.387401e+01
  1.313326e+01    1.484464e+01
  1.314913e+01    1.567251e+01
  1.316501e+01    1.629765e+01
  1.318088e+01    1.633341e+01
  1.319676e+01    1.581902e+01
  1.321263e+01    1.423216e+01
  1.322851e+01    1.256349e+01
  1.324438e+01    1.079588e+01
  1.326026e+01    9.244357e+00
  1.327614e+01    7.829117e+00
  1.329201e+01    6.730979e+00
  1.330789e+01    5.970575e+00
  1.332376e+01    5.321704e+00
  1.333964e+01    4.834611e+00
  1.335551e+01    4.417740e+00
  1.337139e+01    4.086446e+00
  1.338727e+01    3.837831e+00
  1.340314e+01    3.664402e+00
  1.341902e+01    3.515866e+00
  1.343489e+01    3.305058e+00
  1.345077e+01    3.176115e+00
  1.346664e+01    3.085409e+00
  1.348252e+01    3.057874e+00
  1.349839e+01    2.969865e+00
  1.351427e+01    2.928687e+00
  1.353015e+01    2.821963e+00
  1.354602e+01    2.788748e+00
  1.356190e+01    2.762252e+00
  1.357777e+01    2.718679e+00
  1.359365e+01    2.684712e+00
  1.360952e+01    2.675160e+00
  1.362540e+01    2.613731e+00
  1.364127e+01    2.632378e+00
  1.365715e+01    2.657462e+00
  1.367303e+01    2.600335e+00
  1.368890e+01    2.529648e+00
  1.370478e+01    2.514862e+00
  1.372065e+01    2.523909e+00
  1.373653e+01    2.527171e+00
  1.375240e+01    2.496730e+00
  1.376828e+01    2.501357e+00
  1.378415e+01    2.485774e+00
  1.380003e+01    2.429790e+00
  1.381591e+01    2.431450e+00
  1.383178e+01    2.370405e+00
  1.384766e+01    2.451297e+00
  1.386353e+01    2.460931e+00
  1.387941e+01    2.419643e+00
  1.389528e+01    2.404389e+00
  1.391116e+01    2.440212e+00
  1.392703e+01    2.466140e+00
  1.394291e+01    2.408559e+00
  1.395879e+01    2.359450e+00
  1.397466e+01    2.413630e+00
  1.399054e+01    2.391360e+00
  1.400641e+01    2.371242e+00
  1.402229e+01    2.342834e+00
  1.403816e+01    2.387781e+00
  1.405404e+01    2.348091e+00
  1.406991e+01    2.308751e+00
  1.408579e+01    2.295715e+00
  1.410167e+01    2.344121e+00
  1.411754e+01    2.347252e+00
  1.413342e+01    2.388115e+00
  1.414929e+01    2.320429e+00
  1.416517e+01    2.322944e+00
  1.418104e+01    2.353285e+00
  1.419692e+01    2.302224e+00
  1.421279e+01    2.265121e+00
  1.422867e+01    2.267254e+00
  1.424455e+01    2.300423e+00
  1.426042e+01    2.304354e+00
  1.427630e+01    2.263347e+00
  1.429217e+01    2.267082e+00
  1.430805e+01    2.231555e+00
  1.432392e+01    2.270576e+00
  1.433980e+01    2.238275e+00
  1.435568e+01    2.306562e+00
  1.437155e+01    2.275547e+00
  1.438743e+01    2.261763e+00
  1.440330e+01    2.291478e+00
  1.441918e+01    2.262355e+00
  1.443505e+01    2.248387e+00
  1.445093e+01    2.258033e+00
  1.446680e+01    2.240956e+00
  1.448268e+01    2.233085e+00
  1.449856e+01    2.228398e+00
  1.451443e+01    2.199487e+00
  1.453031e+01    2.191175e+00
  1.454618e+01    2.227606e+00
  1.456206e+01    2.208335e+00
  1.457793e+01    2.191254e+00
  1.459381e+01    2.237262e+00
  1.460968e+01    2.210710e+00
  1.462556e+01    2.224876e+00
  1.464144e+01    2.193259e+00
  1.465731e+01    2.175894e+00
  1.467319e+01    2.185505e+00
  1.468906e+01    2.180654e+00
  1.470494e+01    2.200591e+00
  1.472081e+01    2.199951e+00
  1.473669e+01    2.223999e+00
  1.475256e+01    2.221036e+00
  1.476844e+01    2.198785e+00
  1.478432e+01    2.228384e+00
  1.480019e+01    2.242860e+00
  1.481607e+01    2.236966e+00
  1.483194e+01    2.193149e+00
  1.484782e+01    2.179452e+00
  1.486369e+01    2.184283e+00
  1.487957e+01    2.186998e+00
  1.489544e+01    2.197451e+00
  1.491132e+01    2.249586e+00
  1.492720e+01    2.263439e+00
  1.494307e+01    2.319144e+00
  1.495895e+01    2.320193e+00
  1.497482e+01    2.350334e+00
  1.499070e+01    2.389513e+00
  1.500657e+01    2.423829e+00
  1.502245e+01    2.493757e+00
  1.503832e+01    2.576824e+00
  1.505420e+01    2.688719e+00
  1.507008e+01    2.831013e+00
  1.508595e+01    3.019933e+00
  1.510183e+01    3.206704e+00
  1.511770e+01    3.476804e+00
  1.513358e+01    3.790584e+00
  1.514945e+01    4.129346e+00
  1.516533e+01    4.464868e+00
  1.518120e+01    4.841089e+00
  1.519708e+01    5.141442e+00
  1.521296e+01    5.418023e+00
  1.522883e+01    5.619804e+00
  1.524471e+01    5.823799e+00
  1.526058e+01    5.873818e+00
  1.527646e+01    5.754693e+00
  1.529233e+01    5.514448e+00
  1.530821e+01    5.159929e+00
  1.532409e+01    4.721588e+00
  1.533996e+01    4.250395e+00
  1.535584e+01    3.786383e+00
  1.537171e+01    3.443541e+00
  1.538759e+01    3.126785e+00
  1.540346e+01    2.894677e+00
  1.541934e+01    2.754725e+00
  1.543521e+01    2.629255e+00
  1.545109e+01    2.529997e+00
  1.546697e+01    2.432896e+00
  1.548284e+01    2.352536e+00
  1.549872e+01    2.295218e+00
  1.551459e+01    2.229277e+00
  1.553047e+01    2.204501e+00
  1.554634e+01    2.141328e+00
  1.556222e+01    2.136641e+00
  1.557809e+01    2.131486e+00
  1.559397e+01    2.139730e+00
  1.560985e+01    2.100381e+00
  1.562572e+01    2.008033e+00
  1.564160e+01    1.988986e+00
  1.565747e+01    1.983152e+00
  1.567335e+01    1.997701e+00
  1.568922e+01    2.021057e+00
  1.570510e+01    2.010179e+00
  1.572097e+01    2.025943e+00
  1.573685e+01    2.005939e+00
  1.575273e+01    1.936155e+00
  1.576860e+01    1.960117e+00
  1.578448e+01    1.926648e+00
  1.580035e+01    1.950263e+00
  1.581623e+01    1.953234e+00
  1.583210e+01    1.925452e+00
  1.584798e+01    1.888814e+00
  1.586385e+01    1.912359e+00
  1.587973e+01    1.879045e+00
  1.589561e+01    1.880165e+00
  1.591148e+01    1.920161e+00
  1.592736e+01    1.932207e+00
  1.594323e+01    1.889377e+00
  1.595911e+01    1.885162e+00
  1.597498e+01    1.890350e+00
  1.599086e+01    1.860659e+00
  1.600673e+01    1.837898e+00
  1.602261e+01    1.827838e+00
  1.603849e+01    1.829298e+00
  1.605436e+01    1.885943e+00
  1.607024e+01    1.886373e+00
  1.608611e+01    1.855956e+00
  1.610199e+01    1.833987e+00
  1.611786e+01    1.834688e+00
  1.613374e+01    1.846315e+00
  1.614961e+01    1.874943e+00
  1.616549e+01    1.846768e+00
  1.618137e+01    1.840358e+00
  1.619724e+01    1.823066e+00
  1.621312e+01    1.778321e+00
  1.622899e+01    1.808031e+00
  1.624487e+01    1.797535e+00
  1.626074e+01    1.782511e+00
  1.627662e+01    1.790191e+00
  1.629250e+01    1.820065e+00
  1.630837e+01    1.767999e+00
  1.632425e+01    1.768255e+00
  1.634012e+01    1.799124e+00
  1.635600e+01    1.798154e+00
  1.637187e+01    1.760871e+00
  1.638775e+01    1.771971e+00
  1.640362e+01    1.760677e+00
  1.641950e+01    1.777573e+00
  1.643538e+01    1.771667e+00
  1.645125e+01    1.763724e+00
  1.646713e+01    1.776080e+00
  1.648300e+01    1.773683e+00
  1.649888e+01    1.786478e+00
  1.651475e+01    1.780872e+00
  1.653063e+01    1.781288e+00
  1.654650e+01    1.755093e+00
  1.656238e+01    1.720700e+00
  1.657826e+01    1.758613e+00
  1.659413e+01    1.730432e+00
  1.661001e+01    1.729959e+00
  1.662588e+01    1.736307e+00
  1.664176e+01    1.729554e+00
  1.665763e+01    1.747232e+00
  1.667351e+01    1.726906e+00
  1.668938e+01    1.702814e+00
  1.670526e+01    1.718305e+00
  1.672114e+01    1.732309e+00
  1.673701e+01    1.752015e+00
  1.675289e+01    1.740078e+00
  1.676876e+01    1.719295e+00
  1.678464e+01    1.687912e+00
  1.680051e+01    1.694867e+00
  1.681639e+01    1.677472e+00
  1.683226e+01    1.696398e+00
  1.684814e+01    1.707434e+00
  1.686402e+01    1.721419e+00
  1.687989e+01    1.700661e+00
  1.689577e+01    1.694985e+00
  1.691164e+01    1.687583e+00
  1.692752e+01    1.714448e+00
  1.694339e+01    1.690715e+00
  1.695927e+01    1.689844e+00
  1.697514e+01    1.658776e+00
  1.699102e+01    1.663483e+00
  1.700690e+01    1.664515e+00
  1.702277e+01    1.636067e+00
  1.703865e+01    1.658721e+00
  1.705452e+01    1.688736e+00
  1.707040e+01    1.671572e+00
  1.708627e+01    1.643168e+00
  1.710215e+01    1.666986e+00
  1.711802e+01    1.626660e+00
  1.713390e+01    1.615049e+00
  1.714978e+01    1.633839e+00
  1.716565e+01    1.618388e+00
  1.718153e+01    1.636932e+00
  1.719740e+01    1.642614e+00
  1.721328e+01    1.645962e+00
  1.722915e+01    1.610911e+00
  1.724503e+01    1.649266e+00
  1.726091e+01    1.629549e+00
  1.727678e+01    1.612584e+00
  1.729266e+01    1.643626e+00
  1.730853e+01    1.646768e+00
  1.732441e+01    1.653116e+00
  1.734028e+01    1.637598e+00
  1.735616e+01    1.584966e+00
  1.737203e+01    1.565500e+00
  1.738791e+01    1.607160e+00
  1.740379e+01    1.608814e+00
  1.741966e+01    1.583187e+00
  1.743554e+01    1.559742e+00
  1.745141e+01    1.591008e+00
  1.746729e+01    1.577477e+00
  1.748316e+01    1.577862e+00
  1.749904e+01    1.607484e+00
  1.751491e+01    1.585453e+00
  1.753079e+01    1.571084e+00
  1.754667e+01    1.576561e+00
  1.756254e+01    1.597466e+00
  1.757842e+01    1.576523e+00
  1.759429e+01    1.557902e+00
  1.761017e+01    1.557860e+00
  1.762604e+01    1.558811e+00
  1.764192e+01    1.556827e+00
  1.765779e+01    1.546443e+00
  1.767367e+01    1.570790e+00
  1.768955e+01    1.541649e+00
  1.770542e+01    1.530685e+00
  1.772130e+01    1.546280e+00
  1.773717e+01    1.522504e+00
  1.775305e+01    1.528856e+00
  1.776892e+01    1.590886e+00
  1.778480e+01    1.579272e+00
  1.780067e+01    1.545482e+00
  1.781655e+01    1.527604e+00
  1.783243e+01    1.519877e+00
  1.784830e+01    1.526426e+00
  1.786418e+01    1.526926e+00
  1.788005e+01    1.511232e+00
  1.789593e+01    1.521218e+00
  1.791180e+01    1.525109e+00
  1.792768e+01    1.530446e+00
  1.794355e+01    1.519380e+00
  1.795943e+01    1.525772e+00
  1.797531e+01    1.537183e+00
  1.799118e+01    1.537761e+00
  1.800706e+01    1.526968e+00
  1.802293e+01    1.500654e+00
  1.803881e+01    1.512507e+00
  1.805468e+01    1.477242e+00
  1.807056e+01    1.540771e+00
  1.808643e+01    1.555379e+00
  1.810231e+01    1.518487e+00
  1.811819e+01    1.487879e+00
  1.813406e+01    1.481665e+00
  1.814994e+01    1.472861e+00
  1.816581e+01    1.486369e+00
  1.818169e+01    1.491522e+00
  1.819756e+01    1.484118e+00
  1.821344e+01    1.489739e+00
  1.822932e+01    1.467909e+00
  1.824519e+01    1.484141e+00
  1.826107e+01    1.488147e+00
  1.827694e+01    1.478796e+00
  1.829282e+01    1.485461e+00
  1.830869e+01    1.475514e+00
  1.832457e+01    1.470831e+00
  1.834044e+01    1.468057e+00
  1.835632e+01    1.465033e+00
  1.837220e+01    1.464708e+00
  1.838807e+01    1.491236e+00
  1.840395e+01    1.451856e+00
  1.841982e+01    1.427828e+00
  1.843570e+01    1.467169e+00
  1.845157e+01    1.483368e+00
  1.846745e+01    1.462682e+00
  1.848332e+01    1.447462e+00
  1.849920e+01    1.431697e+00
  1.851508e+01    1.419851e+00
  1.853095e+01    1.429364e+00
  1.854683e+01    1.422828e+00
  1.856270e+01    1.424193e+00
  1.857858e+01    1.419037e+00
  1.859445e+01    1.439326e+00
  1.861033e+01    1.424422e+00
  1.862620e+01    1.398491e+00
  1.864208e+01    1.411556e+00
  1.865796e+01    1.419276e+00
  1.867383e+01    1.416192e+00
  1.868971e+01    1.399171e+00
  1.870558e+01    1.420970e+00
  1.872146e+01    1.423479e+00
  1.873733e+01    1.393791e+00
  1.875321e+01    1.400646e+00
  1.876908e+01    1.404829e+00
  1.878496e+01    1.409197e+00
  1.880084e+01    1.418564e+00
  1.881671e+01    1.405730e+00
  1.883259e+01    1.428285e+00
  1.884846e+01    1.407319e+00
  1.886434e+01    1.387869e+00
  1.888021e+01    1.393634e+00
  1.889609e+01    1.401796e+00
  1.891196e+01    1.406186e+00
  1.892784e+01    1.402590e+00
  1.894372e+01    1.389402e+00
  1.895959e+01    1.397858e+00
  1.897547e+01    1.389481e+00
  1.899134e+01    1.390955e+00
  1.900722e+01    1.389213e+00
  1.902309e+01    1.395459e+00
  1.903897e+01    1.387285e+00
  1.905484e+01    1.385100e+00
  1.907072e+01    1.355076e+00
  1.908660e+01    1.365917e+00
  1.910247e+01    1.371638e+00
  1.911835e+01    1.360953e+00
  1.913422e+01    1.344178e+00
  1.915010e+01    1.351271e+00
  1.916597e+01    1.368685e+00
  1.918185e+01    1.368652e+00
  1.919773e+01    1.371058e+00
  1.921360e+01    1.354399e+00
  1.922948e+01    1.368039e+00
  1.924535e+01    1.347993e+00
  1.926123e+01    1.342360e+00
  1.927710e+01    1.365005e+00
  1.929298e+01    1.374901e+00
  1.930885e+01    1.357012e+00
  1.932473e+01    1.368657e+00
  1.934061e+01    1.341779e+00
  1.935648e+01    1.347602e+00
  1.937236e+01    1.328268e+00
  1.938823e+01    1.339992e+00
  1.940411e+01    1.334164e+00
  1.941998e+01    1.330004e+00
  1.943586e+01    1.339189e+00
  1.945173e+01    1.334252e+00
  1.946761e+01    1.357285e+00
  1.948349e+01    1.326140e+00
  1.949936e+01    1.299542e+00
  1.951524e+01    1.289449e+00
  1.953111e+01    1.314252e+00
  1.954699e+01    1.321547e+00
  1.956286e+01    1.318330e+00
  1.957874e+01    1.353944e+00
  1.959461e+01    1.357216e+00
  1.961049e+01    1.336750e+00
  1.962637e+01    1.319777e+00
  1.964224e+01    1.319549e+00
  1.965812e+01    1.293654e+00
  1.967399e+01    1.279143e+00
  1.968987e+01    1.303242e+00
  1.970574e+01    1.310781e+00
  1.972162e+01    1.316930e+00
  1.973749e+01    1.333283e+00
  1.975337e+01    1.308753e+00
  1.976925e+01    1.284941e+00
  1.978512e+01    1.306124e+00
  1.980100e+01    1.295266e+00
  1.981687e+01    1.298765e+00
  1.983275e+01    1.314465e+00
  1.984862e+01    1.302882e+00
  1.986450e+01    1.294753e+00
  1.988037e+01    1.298519e+00
  1.989625e+01    1.297015e+00
  1.991213e+01    1.299605e+00
  1.992800e+01    1.312749e+00
  1.994388e+01    1.312332e+00
  1.995975e+01    1.311408e+00
  1.997563e+01    1.322708e+00
  1.999150e+01    1.306998e+00
  2.000738e+01    1.290659e+00
  2.002325e+01    1.279600e+00
  2.003913e+01    1.287529e+00
  2.005501e+01    1.274026e+00
  2.007088e+01    1.269280e+00
  2.008676e+01    1.257642e+00
  2.010263e+01    1.239812e+00
  2.011851e+01    1.259806e+00
  2.013438e+01    1.264835e+00
  2.015026e+01    1.270539e+00
  2.016614e+01    1.267039e+00
  2.018201e+01    1.264462e+00
  2.019789e+01    1.259485e+00
  2.021376e+01    1.260849e+00
  2.022964e+01    1.268999e+00
  2.024551e+01    1.279263e+00
  2.026139e+01    1.263311e+00
  2.027726e+01    1.259074e+00
  2.029314e+01    1.245363e+00
  2.030902e+01    1.245304e+00
  2.032489e+01    1.254889e+00
  2.034077e+01    1.241377e+00
  2.035664e+01    1.238114e+00
  2.037252e+01    1.253526e+00
  2.038839e+01    1.259719e+00
  2.040427e+01    1.262305e+00
  2.042014e+01    1.253258e+00
  2.043602e+01    1.236216e+00
  2.045190e+01    1.251229e+00
  2.046777e+01    1.260890e+00
  2.048365e+01    1.277545e+00
  2.049952e+01    1.271204e+00
  2.051540e+01    1.236741e+00
  2.053127e+01    1.224403e+00
  2.054715e+01    1.252279e+00
  2.056302e+01    1.245592e+00
  2.057890e+01    1.233250e+00
  2.059478e+01    1.238290e+00
  2.061065e+01    1.256762e+00
  2.062653e+01    1.239581e+00
  2.064240e+01    1.249413e+00
  2.065828e+01    1.245252e+00
  2.067415e+01    1.243954e+00
  2.069003e+01    1.235092e+00
  2.070590e+01    1.230060e+00
  2.072178e+01    1.236811e+00
  2.073766e+01    1.212857e+00
  2.075353e+01    1.192440e+00
  2.076941e+01    1.228134e+00
  2.078528e+01    1.229204e+00
  2.080116e+01    1.232751e+00
  2.081703e+01    1.211597e+00
  2.083291e+01    1.230595e+00
  2.084878e+01    1.230883e+00
  2.086466e+01    1.229400e+00
  2.088054e+01    1.249691e+00
  2.089641e+01    1.241939e+00
  2.091229e+01    1.213423e+00
  2.092816e+01    1.203238e+00
  2.094404e+01    1.223446e+00
  2.095991e+01    1.252035e+00
  2.097579e+01    1.213111e+00
  2.099166e+01    1.222817e+00
  2.100754e+01    1.233957e+00
  2.102342e+01    1.216963e+00
  2.103929e+01    1.247111e+00
  2.105517e+01    1.249775e+00
  2.107104e+01    1.240745e+00
  2.108692e+01    1.241700e+00
  2.110279e+01    1.245310e+00
  2.111867e+01    1.258684e+00
  2.113455e+01    1.251086e+00
  2.115042e+01    1.252072e+00
  2.116630e+01    1.247848e+00
  2.118217e+01    1.251833e+00
  2.119805e+01    1.239527e+00
  2.121392e+01    1.242614e+00
  2.122980e+01    1.267866e+00
  2.124567e+01    1.247661e+00
  2.126155e+01    1.230960e+00
  2.127743e+01    1.249634e+00
  2.129330e+01    1.272222e+00
  2.130918e+01    1.250741e+00
  2.132505e+01    1.245532e+00
  2.134093e+01    1.280021e+00
  2.135680e+01    1.308472e+00
  2.137268e+01    1.321490e+00
  2.138855e+01    1.316300e+00
  2.140443e+01    1.310802e+00
  2.142031e+01    1.325578e+00
  2.143618e+01    1.330123e+00
  2.145206e+01    1.357847e+00
  2.146793e+01    1.376851e+00
  2.148381e+01    1.379304e+00
  2.149968e+01    1.386052e+00
  2.151556e+01    1.442409e+00
  2.153143e+01    1.501154e+00
  2.154731e+01    1.493728e+00
  2.156319e+01    1.536540e+00
  2.157906e+01    1.585539e+00
  2.159494e+01    1.662883e+00
  2.161081e+01    1.767920e+00
  2.162669e+01    1.855728e+00
  2.164256e+01    1.961331e+00
  2.165844e+01    2.117574e+00
  2.167431e+01    2.277427e+00
  2.169019e+01    2.494051e+00
  2.170607e+01    2.758625e+00
  2.172194e+01    3.108092e+00
  2.173782e+01    3.539700e+00
  2.175369e+01    3.987035e+00
  2.176957e+01    4.552251e+00
  2.178544e+01    5.218969e+00
  2.180132e+01    5.874652e+00
  2.181719e+01    6.495842e+00
  2.183307e+01    7.174538e+00
  2.184895e+01    7.879923e+00
  2.186482e+01    8.388435e+00
  2.188070e+01    8.787073e+00
  2.189657e+01    8.985023e+00
  2.191245e+01    8.826652e+00
  2.192832e+01    8.293364e+00
  2.194420e+01    7.474874e+00
  2.196007e+01    6.665851e+00
  2.197595e+01    5.715657e+00
  2.199183e+01    4.911675e+00
  2.200770e+01    4.231430e+00
  2.202358e+01    3.670468e+00
  2.203945e+01    3.231380e+00
  2.205533e+01    2.868201e+00
  2.207120e+01    2.561666e+00
  2.208708e+01    2.336764e+00
  2.210296e+01    2.163665e+00
  2.211883e+01    2.013091e+00
  2.213471e+01    1.879597e+00
  2.215058e+01    1.752274e+00
  2.216646e+01    1.663513e+00
  2.218233e+01    1.603168e+00
  2.219821e+01    1.555780e+00
  2.221408e+01    1.488001e+00
  2.222996e+01    1.409817e+00
  2.224584e+01    1.383765e+00
  2.226171e+01    1.383309e+00
  2.227759e+01    1.377711e+00
  2.229346e+01    1.346570e+00
  2.230934e+01    1.319644e+00
  2.232521e+01    1.266725e+00
  2.234109e+01    1.264489e+00
  2.235696e+01    1.241293e+00
  2.237284e+01    1.201000e+00
  2.238872e+01    1.202345e+00
  2.240459e+01    1.185860e+00
  2.242047e+01    1.190644e+00
  2.243634e+01    1.195201e+00
  2.245222e+01    1.167820e+00
  2.246809e+01    1.178321e+00
  2.248397e+01    1.154267e+00
  2.249984e+01    1.144774e+00
  2.251572e+01    1.130882e+00
  2.253160e+01    1.108418e+00
  2.254747e+01    1.106397e+00
  2.256335e+01    1.133308e+00
  2.257922e+01    1.113407e+00
  2.259510e+01    1.095192e+00
  2.261097e+01    1.103362e+00
  2.262685e+01    1.106143e+00
  2.264272e+01    1.073760e+00
  2.265860e+01    1.077790e+00
  2.267448e+01    1.104634e+00
  2.269035e+01    1.073479e+00
  2.270623e+01    1.072565e+00
  2.272210e+01    1.084155e+00
  2.273798e+01    1.082631e+00
  2.275385e+01    1.074556e+00
  2.276973e+01    1.063852e+00
  2.278560e+01    1.075014e+00
  2.280148e+01    1.064304e+00
  2.281736e+01    1.050987e+00
  2.283323e+01    1.058398e+00
  2.284911e+01    1.040275e+00
  2.286498e+01    1.054221e+00
  2.288086e+01    1.063206e+00
  2.289673e+01    1.057660e+00
  2.291261e+01    1.045776e+00
  2.292848e+01    1.021161e+00
  2.294436e+01    1.012867e+00
  2.296024e+01    1.010561e+00
  2.297611e+01    1.022592e+00
  2.299199e+01    1.022298e+00
  2.300786e+01    1.012096e+00
  2.302374e+01    1.032110e+00
  2.303961e+01    1.038163e+00
  2.305549e+01    1.015522e+00
  2.307137e+01    1.002423e+00
  2.308724e+01    1.025874e+00
  2.310312e+01    1.006964e+00
  2.311899e+01    9.928773e-01
  2.313487e+01    9.977671e-01
  2.315074e+01    1.012947e+00
  2.316662e+01    1.006474e+00
  2.318249e+01    1.009391e+00
  2.319837e+01    9.990007e-01
  2.321425e+01    1.000891e+00
  2.323012e+01    1.006079e+00
  2.324600e+01    1.004420e+00
  2.326187e+01    9.780612e-01
  2.327775e+01    9.757785e-01
  2.329362e+01    9.942629e-01
  2.330950e+01    1.008504e+00
  2.332537e+01    9.729694e-01
  2.334125e+01    9.886004e-01
  2.335713e+01    9.893422e-01
  2.337300e+01    9.895507e-01
  2.338888e+01    9.749351e-01
  2.340475e+01    9.718777e-01
  2.342063e+01    9.641593e-01
  2.343650e+01    9.753146e-01
  2.345238e+01    9.621050e-01
  2.346825e+01    9.487182e-01
  2.348413e+01    9.849079e-01
  2.350001e+01    9.998673e-01
  2.351588e+01    9.679855e-01
  2.353176e+01    9.542400e-01
  2.354763e+01    9.537408e-01
  2.356351e+01    9.459420e-01
  2.357938e+01    9.377679e-01
  2.359526e+01    9.266596e-01
  2.361113e+01    9.225125e-01
  2.362701e+01    9.291418e-01
  2.364289e+01    9.430040e-01
  2.365876e+01    9.435830e-01
  2.367464e+01    9.410716e-01
  2.369051e+01    9.504974e-01
  2.370639e+01    9.324880e-01
  2.372226e+01    9.390393e-01
  2.373814e+01    9.299124e-01
  2.375401e+01    9.226063e-01
  2.376989e+01    9.385441e-01
  2.378577e+01    9.276173e-01
  2.380164e+01    9.164765e-01
  2.381752e+01    9.417695e-01
  2.383339e+01    9.227386e-01
  2.384927e+01    9.240881e-01
  2.386514e+01    9.085891e-01
  2.388102e+01    8.969085e-01
  2.389689e+01    8.907351e-01
  2.391277e+01    9.136819e-01
  2.392865e+01    8.934355e-01
  2.394452e+01    8.901770e-01
  2.396040e+01    8.948252e-01
  2.397627e+01    8.939226e-01
  2.399215e+01    9.011303e-01
  2.400802e+01    8.886397e-01
  2.402390e+01    9.078704e-01
  2.403978e+01    8.902436e-01
  2.405565e+01    9.069287e-01
  2.407153e+01    9.072608e-01
  2.408740e+01    8.789271e-01
  2.410328e+01    8.725581e-01
  2.411915e+01    8.817516e-01
  2.413503e+01    8.984183e-01
  2.415090e+01    8.814937e-01
  2.416678e+01    8.814658e-01
  2.418266e+01    8.725497e-01
  2.419853e+01    8.669611e-01
  2.421441e+01    8.619547e-01
  2.423028e+01    8.755540e-01
  2.424616e+01    8.737340e-01
  2.426203e+01    8.824387e-01
  2.427791e+01    8.613307e-01
  2.429378e+01    8.822851e-01
  2.430966e+01    8.797801e-01
  2.432554e+01    8.722164e-01
  2.434141e+01    8.749607e-01
  2.435729e+01    8.921869e-01
  2.437316e+01    9.140341e-01
  2.438904e+01    8.993368e-01
  2.440491e+01    8.760426e-01
  2.442079e+01    8.846830e-01
  2.443666e+01    8.965092e-01
  2.445254e+01    8.910522e-01
  2.446842e+01    9.014340e-01
  2.448429e+01    8.889795e-01
  2.450017e+01    8.869516e-01
  2.451604e+01    8.836444e-01
  2.453192e+01    8.932582e-01
  2.454779e+01    8.824785e-01
  2.456367e+01    8.794517e-01
  2.457954e+01    8.891660e-01
  2.459542e+01    8.994543e-01
  2.461130e+01    8.830163e-01
  2.462717e+01    8.705796e-01
  2.464305e+01    8.894211e-01
  2.465892e+01    8.937389e-01
  2.467480e+01    8.905191e-01
  2.469067e+01    9.039207e-01
  2.470655e+01    8.876317e-01
  2.472242e+01    8.839763e-01
  2.473830e+01    8.843577e-01
  2.475418e+01    8.943093e-01
  2.477005e+01    8.689429e-01
  2.478593e+01    8.777964e-01
  2.480180e+01    8.697425e-01
  2.481768e+01    8.774807e-01
  2.483355e+01    9.137466e-01
  2.484943e+01    8.824842e-01
  2.486530e+01    8.970765e-01
  2.488118e+01    8.892289e-01
  2.489706e+01    8.707892e-01
  2.491293e+01    8.927497e-01
  2.492881e+01    8.992098e-01
  2.494468e+01    8.988196e-01
  2.496056e+01    8.866001e-01
  2.497643e+01    8.974453e-01
  2.499231e+01    8.990735e-01
  2.500819e+01    8.788002e-01
  2.502406e+01    8.872575e-01
  2.503994e+01    8.917687e-01
  2.505581e+01    8.936368e-01
  2.507169e+01    8.838397e-01
  2.508756e+01    8.911139e-01
  2.510344e+01    9.155445e-01
  2.511931e+01    9.009361e-01
  2.513519e+01    9.005296e-01
  2.515107e+01    9.262682e-01
  2.516694e+01    9.316086e-01
  2.518282e+01    9.084669e-01
  2.519869e+01    9.145157e-01
  2.521457e+01    9.157847e-01
  2.523044e+01    9.335514e-01
  2.524632e+01    9.308248e-01
  2.526219e+01    9.462761e-01
  2.527807e+01    9.431462e-01
  2.529395e+01    9.461209e-01
  2.530982e+01    9.309661e-01
  2.532570e+01    9.412266e-01
  2.534157e+01    9.596455e-01
  2.535745e+01    9.840121e-01
  2.537332e+01    9.783868e-01
  2.538920e+01    9.658505e-01
  2.540507e+01    9.877604e-01
  2.542095e+01    1.014834e+00
  2.543683e+01    1.026373e+00
  2.545270e+01    1.027918e+00
  2.546858e+01    1.038337e+00
  2.548445e+01    1.060022e+00
  2.550033e+01    1.051879e+00
  2.551620e+01    1.071723e+00
  2.553208e+01    1.097604e+00
  2.554795e+01    1.112010e+00
  2.556383e+01    1.117080e+00
  2.557971e+01    1.171855e+00
  2.559558e+01    1.186157e+00
  2.561146e+01    1.215727e+00
  2.562733e+01    1.267761e+00
  2.564321e+01    1.335341e+00
  2.565908e+01    1.373294e+00
  2.567496e+01    1.428466e+00
  2.569083e+01    1.496950e+00
  2.570671e+01    1.594156e+00
  2.572259e+01    1.708745e+00
  2.573846e+01    1.832600e+00
  2.575434e+01    1.990217e+00
  2.577021e+01    2.211749e+00
  2.578609e+01    2.505155e+00
  2.580196e+01    2.810213e+00
  2.581784e+01    3.152099e+00
  2.583371e+01    3.609730e+00
  2.584959e+01    4.143782e+00
  2.586547e+01    4.689044e+00
  2.588134e+01    5.270396e+00
  2.589722e+01    5.841517e+00
  2.591309e+01    6.387994e+00
  2.592897e+01    6.824829e+00
  2.594484e+01    7.121973e+00
  2.596072e+01    7.180727e+00
  2.597660e+01    7.013135e+00
  2.599247e+01    6.576216e+00
  2.600835e+01    5.935232e+00
  2.602422e+01    5.337143e+00
  2.604010e+01    4.671946e+00
  2.605597e+01    4.045290e+00
  2.607185e+01    3.467560e+00
  2.608772e+01    3.051762e+00
  2.610360e+01    2.675469e+00
  2.611948e+01    2.378501e+00
  2.613535e+01    2.177848e+00
  2.615123e+01    1.962070e+00
  2.616710e+01    1.828434e+00
  2.618298e+01    1.681878e+00
  2.619885e+01    1.549665e+00
  2.621473e+01    1.486522e+00
  2.623060e+01    1.374492e+00
  2.624648e+01    1.344401e+00
  2.626236e+01    1.286873e+00
  2.627823e+01    1.256946e+00
  2.629411e+01    1.226296e+00
  2.630998e+01    1.172087e+00
  2.632586e+01    1.140059e+00
  2.634173e+01    1.136836e+00
  2.635761e+01    1.104170e+00
  2.637348e+01    1.069143e+00
  2.638936e+01    1.059719e+00
  2.640524e+01    1.049898e+00
  2.642111e+01    1.019262e+00
  2.643699e+01    1.018150e+00
  2.645286e+01    1.023609e+00
  2.646874e+01    1.029065e+00
  2.648461e+01    1.012635e+00
  2.650049e+01    9.971892e-01
  2.651636e+01    1.015329e+00
  2.653224e+01    1.012573e+00
  2.654812e+01    9.967453e-01
  2.656399e+01    9.726494e-01
  2.657987e+01    9.606836e-01
  2.659574e+01    9.693030e-01
  2.661162e+01    9.859723e-01
  2.662749e+01    9.898830e-01
  2.664337e+01    1.002491e+00
  2.665924e+01    9.742533e-01
  2.667512e+01    9.488854e-01
  2.669100e+01    9.811850e-01
  2.670687e+01    9.786521e-01
  2.672275e+01    9.875250e-01
  2.673862e+01    9.794588e-01
  2.675450e+01    9.676836e-01
  2.677037e+01    9.682029e-01
  2.678625e+01    9.826344e-01
  2.680212e+01    9.294695e-01
  2.681800e+01    9.594637e-01
  2.683388e+01    9.736865e-01
  2.684975e+01    9.708250e-01
  2.686563e+01    9.804577e-01
  2.688150e+01    9.847245e-01
  2.689738e+01    9.900365e-01
  2.691325e+01    9.980710e-01
  2.692913e+01    9.978999e-01
  2.694501e+01    1.018160e+00
  2.696088e+01    1.062149e+00
  2.697676e+01    1.081524e+00
  2.699263e+01    1.087642e+00
  2.700851e+01    1.116645e+00
  2.702438e+01    1.145137e+00
  2.704026e+01    1.202516e+00
  2.705613e+01    1.246968e+00
  2.707201e+01    1.308888e+00
  2.708789e+01    1.392395e+00
  2.710376e+01    1.486942e+00
  2.711964e+01    1.577065e+00
  2.713551e+01    1.745127e+00
  2.715139e+01    1.859538e+00
  2.716726e+01    1.951093e+00
  2.718314e+01    2.056898e+00
  2.719901e+01    2.140902e+00
  2.721489e+01    2.185513e+00
  2.723077e+01    2.155884e+00
  2.724664e+01    2.104416e+00
  2.726252e+01    1.971679e+00
  2.727839e+01    1.835446e+00
  2.729427e+01    1.695050e+00
  2.731014e+01    1.575920e+00
  2.732602e+01    1.481903e+00
  2.734189e+01    1.368153e+00
  2.735777e+01    1.271740e+00
  2.737365e+01    1.219111e+00
  2.738952e+01    1.194098e+00
  2.740540e+01    1.154535e+00
  2.742127e+01    1.125631e+00
  2.743715e+01    1.069774e+00
  2.745302e+01    1.028518e+00
  2.746890e+01    1.045823e+00
  2.748477e+01    1.000868e+00
  2.750065e+01    9.845906e-01
  2.751653e+01    9.715102e-01
  2.753240e+01    9.512200e-01
  2.754828e+01    9.745795e-01
  2.756415e+01    9.678974e-01
  2.758003e+01    9.608943e-01
  2.759590e+01    9.611265e-01
  2.761178e+01    9.441758e-01
  2.762765e+01    9.265361e-01
  2.764353e+01    9.370809e-01
  2.765941e+01    9.392738e-01
  2.767528e+01    9.207788e-01
  2.769116e+01    9.180605e-01
  2.770703e+01    9.154426e-01
  2.772291e+01    9.000710e-01
  2.773878e+01    9.081693e-01
  2.775466e+01    8.805283e-01
  2.777054e+01    8.748686e-01
  2.778641e+01    8.562169e-01
  2.780229e+01    8.624006e-01
  2.781816e+01    9.034600e-01
  2.783404e+01    8.805929e-01
  2.784991e+01    8.541356e-01
  2.786579e+01    8.884405e-01
  2.788166e+01    8.726118e-01
  2.789754e+01    8.685715e-01
  2.791342e+01    8.536705e-01
  2.792929e+01    8.529329e-01
  2.794517e+01    8.741202e-01
  2.796104e+01    8.696251e-01
  2.797692e+01    8.741094e-01
  2.799279e+01    8.923098e-01
  2.800867e+01    8.917522e-01
  2.802454e+01    8.688105e-01
  2.804042e+01    8.808769e-01
  2.805630e+01    8.610414e-01
  2.807217e+01    8.541163e-01
  2.808805e+01    8.443094e-01
  2.810392e+01    8.671355e-01
  2.811980e+01    8.789556e-01
  2.813567e+01    8.571773e-01
  2.815155e+01    8.635724e-01
  2.816742e+01    8.556224e-01
  2.818330e+01    8.409696e-01
  2.819918e+01    8.502794e-01
  2.821505e+01    8.852496e-01
  2.823093e+01    8.618951e-01
  2.824680e+01    8.400304e-01
  2.826268e+01    8.420258e-01
  2.827855e+01    8.496099e-01
  2.829443e+01    8.558519e-01
  2.831030e+01    8.440689e-01
  2.832618e+01    8.309110e-01
  2.834206e+01    8.462679e-01
  2.835793e+01    8.548926e-01
  2.837381e+01    8.423555e-01
  2.838968e+01    8.429971e-01
  2.840556e+01    8.407031e-01
  2.842143e+01    8.289033e-01
  2.843731e+01    8.184303e-01
  2.845318e+01    8.455231e-01
  2.846906e+01    8.417124e-01
  2.848494e+01    8.300258e-01
  2.850081e+01    8.541990e-01
  2.851669e+01    8.564029e-01
  2.853256e+01    8.367735e-01
  2.854844e+01    8.190724e-01
  2.856431e+01    8.376350e-01
  2.858019e+01    8.516877e-01
  2.859606e+01    8.466337e-01
  2.861194e+01    8.412747e-01
  2.862782e+01    8.400718e-01
  2.864369e+01    8.383344e-01
  2.865957e+01    8.276852e-01
  2.867544e+01    8.263409e-01
  2.869132e+01    8.301908e-01
  2.870719e+01    8.300410e-01
  2.872307e+01    8.264982e-01
  2.873895e+01    8.411846e-01
  2.875482e+01    8.319492e-01
  2.877070e+01    8.341794e-01
  2.878657e+01    8.230430e-01
  2.880245e+01    8.225809e-01
  2.881832e+01    8.333709e-01
  2.883420e+01    8.160724e-01
  2.885007e+01    8.273231e-01
  2.886595e+01    8.078300e-01
  2.888183e+01    8.045504e-01
  2.889770e+01    8.187652e-01
  2.891358e+01    8.366749e-01
  2.892945e+01    8.166404e-01
  2.894533e+01    7.946715e-01
  2.896120e+01    8.170648e-01
  2.897708e+01    8.116193e-01
  2.899295e+01    8.201717e-01
  2.900883e+01    8.181863e-01
  2.902471e+01    8.173485e-01
  2.904058e+01    8.225656e-01
  2.905646e+01    8.006529e-01
  2.907233e+01    8.123016e-01
  2.908821e+01    8.210760e-01
  2.910408e+01    8.187406e-01
  2.911996e+01    8.200446e-01
  2.913583e+01    8.053396e-01
  2.915171e+01    8.091135e-01
  2.916759e+01    8.170003e-01
  2.918346e+01    8.208007e-01
  2.919934e+01    8.242276e-01
  2.921521e+01    8.261002e-01
  2.923109e+01    8.194443e-01
  2.924696e+01    8.139514e-01
  2.926284e+01    8.072276e-01
  2.927871e+01    8.090914e-01
  2.929459e+01    8.069476e-01
  2.931047e+01    8.204253e-01
  2.932634e+01    8.012315e-01
  2.934222e+01    8.037164e-01
  2.935809e+01    8.001031e-01
  2.937397e+01    8.047698e-01
  2.938984e+01    8.060650e-01
  2.940572e+01    8.123389e-01
  2.942159e+01    8.017049e-01
  2.943747e+01    8.091902e-01
  2.945335e+01    7.811165e-01
  2.946922e+01    8.041000e-01
  2.948510e+01    7.890774e-01
  2.950097e+01    7.995860e-01
  2.951685e+01    8.055102e-01
  2.953272e+01    8.074484e-01
  2.954860e+01    7.974947e-01
  2.956447e+01    7.895498e-01
  2.958035e+01    7.819569e-01
  2.959623e+01    7.882765e-01
  2.961210e+01    8.001658e-01
  2.962798e+01    8.099570e-01
  2.964385e+01    8.323339e-01
  2.965973e+01    8.075125e-01
  2.967560e+01    8.043270e-01
  2.969148e+01    7.913675e-01
  2.970736e+01    8.107014e-01
  2.972323e+01    8.149790e-01
  2.973911e+01    8.027940e-01
  2.975498e+01    7.928806e-01
  2.977086e+01    8.088647e-01
  2.978673e+01    7.885584e-01
  2.980261e+01    7.949478e-01
  2.981848e+01    7.928467e-01
  2.983436e+01    7.910909e-01
  2.985024e+01    8.080990e-01
  2.986611e+01    8.207067e-01
  2.988199e+01    8.153514e-01
  2.989786e+01    8.052744e-01
  2.991374e+01    7.949954e-01
  2.992961e+01    7.950714e-01
  2.994549e+01    7.966052e-01
  2.996136e+01    8.016240e-01
  2.997724e+01    8.129201e-01
  2.999312e+01    8.125007e-01
  3.000899e+01    8.070843e-01
  3.002487e+01    8.133269e-01
  3.004074e+01    8.232874e-01
  3.005662e+01    8.132153e-01
  3.007249e+01    8.115242e-01
  3.008837e+01    8.217840e-01
  3.010424e+01    8.005953e-01
  3.012012e+01    7.973922e-01
  3.013600e+01    7.993831e-01
  3.015187e+01    8.125681e-01
  3.016775e+01    8.204702e-01
  3.018362e+01    7.951993e-01
  3.019950e+01    7.961426e-01
  3.021537e+01    8.143962e-01
  3.023125e+01    7.869703e-01
  3.024712e+01    7.958956e-01
  3.026300e+01    7.847284e-01
  3.027888e+01    7.714099e-01
  3.029475e+01    7.847919e-01
  3.031063e+01    7.974550e-01
  3.032650e+01    7.896975e-01
  3.034238e+01    7.876564e-01
  3.035825e+01    7.855709e-01
  3.037413e+01    8.065519e-01
  3.039000e+01    7.943069e-01
  3.040588e+01    7.994577e-01
  3.042176e+01    8.204328e-01
  3.043763e+01    7.897160e-01
  3.045351e+01    7.956055e-01
  3.046938e+01    7.974300e-01
  3.048526e+01    7.794780e-01
  3.050113e+01    7.799813e-01
  3.051701e+01    7.719410e-01
  3.053288e+01    7.792358e-01
  3.054876e+01    7.689136e-01
  3.056464e+01    7.841938e-01
  3.058051e+01    7.718209e-01
  3.059639e+01    7.960852e-01
  3.061226e+01    8.087966e-01
  3.062814e+01    7.859047e-01
  3.064401e+01    7.948349e-01
  3.065989e+01    8.087807e-01
  3.067577e+01    7.832481e-01
  3.069164e+01    8.069479e-01
  3.070752e+01    7.716069e-01
  3.072339e+01    7.743968e-01
  3.073927e+01    7.827210e-01
  3.075514e+01    8.087900e-01
  3.077102e+01    8.028182e-01
  3.078689e+01    7.829642e-01
  3.080277e+01    8.031133e-01
  3.081865e+01    7.811879e-01
  3.083452e+01    7.875209e-01
  3.085040e+01    7.957059e-01
  3.086627e+01    7.822846e-01
  3.088215e+01    7.683229e-01
  3.089802e+01    7.730795e-01
  3.091390e+01    7.977005e-01
  3.092977e+01    8.110882e-01
  3.094565e+01    8.084809e-01
  3.096153e+01    7.773155e-01
  3.097740e+01    7.765664e-01
  3.099328e+01    7.782402e-01
  3.100915e+01    7.749422e-01
  3.102503e+01    7.775831e-01
  3.104090e+01    7.834277e-01
  3.105678e+01    7.913611e-01
  3.107265e+01    7.771376e-01
  3.108853e+01    7.853492e-01
  3.110441e+01    7.859678e-01
  3.112028e+01    8.170667e-01
  3.113616e+01    8.050409e-01
  3.115203e+01    7.753543e-01
  3.116791e+01    7.884672e-01
  3.118378e+01    8.007880e-01
  3.119966e+01    7.877700e-01
  3.121553e+01    7.992846e-01
  3.123141e+01    7.930235e-01
  3.124729e+01    7.723498e-01
  3.126316e+01    8.014336e-01
  3.127904e+01    7.987005e-01
  3.129491e+01    7.937212e-01
  3.131079e+01    7.883100e-01
  3.132666e+01    7.924976e-01
  3.134254e+01    7.925658e-01
  3.135841e+01    8.050802e-01
  3.137429e+01    8.036155e-01
  3.139017e+01    8.086567e-01
  3.140604e+01    7.909204e-01
  3.142192e+01    8.171658e-01
  3.143779e+01    8.178764e-01
  3.145367e+01    8.154248e-01
  3.146954e+01    8.081761e-01
  3.148542e+01    8.300778e-01
  3.150129e+01    8.557691e-01
  3.151717e+01    8.223863e-01
  3.153305e+01    8.218256e-01
  3.154892e+01    8.258071e-01
  3.156480e+01    8.422837e-01
  3.158067e+01    8.758503e-01
  3.159655e+01    8.850942e-01
  3.161242e+01    8.980759e-01
  3.162830e+01    8.894995e-01
  3.164418e+01    9.002989e-01
  3.166005e+01    9.469660e-01
  3.167593e+01    9.829257e-01
  3.169180e+01    9.944747e-01
  3.170768e+01    1.024820e+00
  3.172355e+01    1.067560e+00
  3.173943e+01    1.102459e+00
  3.175530e+01    1.164184e+00
  3.177118e+01    1.269409e+00
  3.178706e+01    1.373578e+00
  3.180293e+01    1.475387e+00
  3.181881e+01    1.571970e+00
  3.183468e+01    1.689972e+00
  3.185056e+01    1.824249e+00
  3.186643e+01    1.930300e+00
  3.188231e+01    2.040713e+00
  3.189818e+01    2.099855e+00
  3.191406e+01    2.109150e+00
  3.192994e+01    2.039273e+00
  3.194581e+01    1.916726e+00
  3.196169e+01    1.795126e+00
  3.197756e+01    1.701417e+00
  3.199344e+01    1.558854e+00
  3.200931e+01    1.429327e+00
  3.202519e+01    1.338518e+00
  3.204106e+01    1.253333e+00
  3.205694e+01    1.166280e+00
  3.207282e+01    1.109080e+00
  3.208869e+01    1.035058e+00
  3.210457e+01    9.913335e-01
  3.212044e+01    9.742467e-01
  3.213632e+01    9.563642e-01
  3.215219e+01    9.190956e-01
  3.216807e+01    8.890737e-01
  3.218394e+01    8.722179e-01
  3.219982e+01    8.546336e-01
  3.221570e+01    8.573911e-01
  3.223157e+01    8.618084e-01
  3.224745e+01    8.453056e-01
  3.226332e+01    8.327488e-01
  3.227920e+01    8.494191e-01
  3.229507e+01    8.145123e-01
  3.231095e+01    8.055426e-01
  3.232682e+01    7.999133e-01
  3.234270e+01    7.999678e-01
  3.235858e+01    8.229469e-01
  3.237445e+01    8.162585e-01
  3.239033e+01    8.014355e-01
  3.240620e+01    7.837681e-01
  3.242208e+01    7.885324e-01
  3.243795e+01    7.875187e-01
  3.245383e+01    7.871199e-01
  3.246970e+01    7.811445e-01
  3.248558e+01    7.794271e-01
  3.250146e+01    7.807175e-01
  3.251733e+01    7.917945e-01
  3.253321e+01    7.826136e-01
  3.254908e+01    7.753671e-01
