# == pyFAI calibration ==
# Distance Sample to Detector: 0.3999999939076516 m
# PONI: 9.750e-02, 1.135e-01 m
# Rotations: -0.000175 0.000000 -0.000000 rad
# 
# == Fit2d calibration ==
# Distance Sample-beamCenter: 400.000 mm
# Center: x=1514.000, y=1300.000 pix
# Tilt: 0.010 deg  TiltPlanRot: 0.010 deg
# 
# Detector Detector	 Spline= None	 PixelSize= 7.500e-05, 7.500e-05 m
#    Detector has a mask: False 
#    Detector has a dark current: False 
#    detector has a flat field: False 
# 
# Wavelength: 6.888e-11 m
# Mask applied: user provided
# Dark current applied: False
# Flat field applied: False
# Polarization factor: 0.99
# Normalization factor: 1.0
# --> /home/myspot/data/2024_07_Rosario/Ru-CGO-ex/2024-07-27_003_Ru-CGO-ex_Reaction_dwell_000023_data_000018.dat
#       q_nm^-1             I 
  2.003187e-02    2.195834e-01
  3.590745e-02    9.850729e-02
  5.178302e-02    6.857958e-02
  6.765859e-02    1.357146e-01
  8.353417e-02    3.131770e-01
  9.940974e-02    9.182305e-02
  1.152853e-01    1.041835e-02
  1.311609e-01    3.712414e-02
  1.470365e-01    3.350660e-02
  1.629120e-01    4.925537e-02
  1.787876e-01    2.077045e-02
  1.946632e-01    2.381516e-02
  2.105388e-01    1.907442e-02
  2.264143e-01    4.979504e-02
  2.422899e-01    8.273365e-02
  2.581655e-01    5.109459e-02
  2.740411e-01    4.384675e-02
  2.899166e-01    6.358279e-02
  3.057922e-01    4.119734e-02
  3.216678e-01    5.439694e-02
  3.375433e-01    5.121743e-02
  3.534189e-01    6.809472e-02
  3.692945e-01    6.611077e-02
  3.851701e-01    5.676455e-02
  4.010456e-01    2.532934e-02
  4.169212e-01    3.326128e-02
  4.327968e-01    2.351303e-02
  4.486724e-01    1.615899e-02
  4.645479e-01    2.707738e-02
  4.804235e-01    2.739716e-02
  4.962991e-01    2.437758e-02
  5.121747e-01    1.968040e-02
  5.280502e-01    1.882390e-02
  5.439258e-01    4.545643e-02
  5.598014e-01    5.570687e-02
  5.756770e-01    2.031009e-02
  5.915525e-01    2.116707e-02
  6.074281e-01    5.404146e-02
  6.233037e-01    3.042589e-02
  6.391793e-01    4.417631e-02
  6.550548e-01    6.257202e-02
  6.709304e-01    5.113902e-02
  6.868060e-01    3.977485e-02
  7.026815e-01    4.466614e-02
  7.185571e-01    5.252438e-02
  7.344327e-01    4.774638e-02
  7.503083e-01    5.826452e-02
  7.661838e-01    5.352110e-02
  7.820594e-01    1.088961e-01
  7.979350e-01    1.754698e-01
  8.138106e-01    2.584255e-01
  8.296861e-01    2.712854e-01
  8.455617e-01    3.512679e-01
  8.614373e-01    4.110991e-01
  8.773129e-01    4.923572e-01
  8.931884e-01    5.244048e-01
  9.090640e-01    6.626022e-01
  9.249396e-01    7.917432e-01
  9.408152e-01    8.582883e-01
  9.566907e-01    9.264263e-01
  9.725663e-01    1.104140e+00
  9.884419e-01    1.089922e+00
  1.004317e+00    1.110475e+00
  1.020193e+00    1.231611e+00
  1.036069e+00    1.345367e+00
  1.051944e+00    1.388776e+00
  1.067820e+00    1.560748e+00
  1.083695e+00    1.493112e+00
  1.099571e+00    1.480385e+00
  1.115446e+00    1.538164e+00
  1.131322e+00    1.672851e+00
  1.147198e+00    1.756230e+00
  1.163073e+00    1.684777e+00
  1.178949e+00    1.650727e+00
  1.194824e+00    1.883278e+00
  1.210700e+00    2.147859e+00
  1.226575e+00    2.375101e+00
  1.242451e+00    2.393284e+00
  1.258327e+00    2.497431e+00
  1.274202e+00    2.678442e+00
  1.290078e+00    2.655045e+00
  1.305953e+00    2.639666e+00
  1.321829e+00    2.683371e+00
  1.337705e+00    2.741335e+00
  1.353580e+00    2.837705e+00
  1.369456e+00    2.904060e+00
  1.385331e+00    2.851037e+00
  1.401207e+00    2.846541e+00
  1.417082e+00    2.858402e+00
  1.432958e+00    2.971410e+00
  1.448834e+00    2.999132e+00
  1.464709e+00    3.052381e+00
  1.480585e+00    3.086914e+00
  1.496460e+00    2.910575e+00
  1.512336e+00    2.995681e+00
  1.528211e+00    3.180918e+00
  1.544087e+00    3.115931e+00
  1.559963e+00    3.165720e+00
  1.575838e+00    3.211132e+00
  1.591714e+00    3.145408e+00
  1.607589e+00    3.154524e+00
  1.623465e+00    3.157017e+00
  1.639340e+00    3.228438e+00
  1.655216e+00    3.178314e+00
  1.671092e+00    3.094465e+00
  1.686967e+00    3.162905e+00
  1.702843e+00    3.184996e+00
  1.718718e+00    3.069363e+00
  1.734594e+00    3.080255e+00
  1.750469e+00    3.071299e+00
  1.766345e+00    3.074920e+00
  1.782221e+00    3.061156e+00
  1.798096e+00    2.981874e+00
  1.813972e+00    3.080600e+00
  1.829847e+00    3.092921e+00
  1.845723e+00    3.054206e+00
  1.861598e+00    3.260396e+00
  1.877474e+00    3.247421e+00
  1.893350e+00    3.148401e+00
  1.909225e+00    3.032076e+00
  1.925101e+00    3.074612e+00
  1.940976e+00    3.111427e+00
  1.956852e+00    3.042957e+00
  1.972727e+00    3.157255e+00
  1.988603e+00    3.100354e+00
  2.004479e+00    3.058325e+00
  2.020354e+00    3.068254e+00
  2.036230e+00    3.013972e+00
  2.052105e+00    3.023332e+00
  2.067981e+00    3.084950e+00
  2.083856e+00    3.180079e+00
  2.099732e+00    3.044904e+00
  2.115608e+00    3.061941e+00
  2.131483e+00    3.107116e+00
  2.147359e+00    3.064503e+00
  2.163234e+00    3.131053e+00
  2.179110e+00    3.195099e+00
  2.194985e+00    3.030950e+00
  2.210861e+00    3.075831e+00
  2.226737e+00    3.094851e+00
  2.242612e+00    3.153823e+00
  2.258488e+00    3.170397e+00
  2.274363e+00    3.284113e+00
  2.290239e+00    3.154463e+00
  2.306115e+00    3.161016e+00
  2.321990e+00    3.156858e+00
  2.337866e+00    3.139411e+00
  2.353741e+00    3.196035e+00
  2.369617e+00    3.169767e+00
  2.385492e+00    3.158631e+00
  2.401368e+00    3.168133e+00
  2.417244e+00    3.255320e+00
  2.433119e+00    3.177666e+00
  2.448995e+00    3.150620e+00
  2.464870e+00    3.101596e+00
  2.480746e+00    3.170628e+00
  2.496621e+00    3.170558e+00
  2.512497e+00    3.184771e+00
  2.528373e+00    3.208553e+00
  2.544248e+00    3.101273e+00
  2.560124e+00    3.184501e+00
  2.575999e+00    3.384436e+00
  2.591875e+00    3.345335e+00
  2.607750e+00    3.327880e+00
  2.623626e+00    3.339037e+00
  2.639502e+00    3.291049e+00
  2.655377e+00    3.219599e+00
  2.671253e+00    3.236633e+00
  2.687128e+00    3.232458e+00
  2.703004e+00    3.183608e+00
  2.718879e+00    3.208963e+00
  2.734755e+00    3.204559e+00
  2.750631e+00    3.387738e+00
  2.766506e+00    3.362216e+00
  2.782382e+00    3.291657e+00
  2.798257e+00    3.193257e+00
  2.814133e+00    3.187763e+00
  2.830008e+00    3.263058e+00
  2.845884e+00    3.390735e+00
  2.861760e+00    3.413925e+00
  2.877635e+00    3.372527e+00
  2.893511e+00    3.325153e+00
  2.909386e+00    3.351390e+00
  2.925262e+00    3.301047e+00
  2.941137e+00    3.264256e+00
  2.957013e+00    3.330557e+00
  2.972889e+00    3.314397e+00
  2.988764e+00    3.219205e+00
  3.004640e+00    3.281816e+00
  3.020515e+00    3.372754e+00
  3.036391e+00    3.335781e+00
  3.052266e+00    3.360336e+00
  3.068142e+00    3.302634e+00
  3.084018e+00    3.389348e+00
  3.099893e+00    3.495136e+00
  3.115769e+00    3.371513e+00
  3.131644e+00    3.346395e+00
  3.147520e+00    3.359508e+00
  3.163395e+00    3.488863e+00
  3.179271e+00    3.477012e+00
  3.195147e+00    3.496846e+00
  3.211022e+00    3.334293e+00
  3.226898e+00    3.400758e+00
  3.242773e+00    3.483671e+00
  3.258649e+00    3.486204e+00
  3.274525e+00    3.423999e+00
  3.290400e+00    3.404236e+00
  3.306276e+00    3.554423e+00
  3.322151e+00    3.518163e+00
  3.338027e+00    3.518082e+00
  3.353902e+00    3.412542e+00
  3.369778e+00    3.318732e+00
  3.385654e+00    3.391526e+00
  3.401529e+00    3.469281e+00
  3.417405e+00    3.499804e+00
  3.433280e+00    3.454560e+00
  3.449156e+00    3.417851e+00
  3.465031e+00    3.402264e+00
  3.480907e+00    3.362957e+00
  3.496783e+00    3.404731e+00
  3.512658e+00    3.448386e+00
  3.528534e+00    3.486054e+00
  3.544409e+00    3.467612e+00
  3.560285e+00    3.478389e+00
  3.576160e+00    3.496303e+00
  3.592036e+00    3.497083e+00
  3.607912e+00    3.483684e+00
  3.623787e+00    3.381236e+00
  3.639663e+00    3.377533e+00
  3.655538e+00    3.368526e+00
  3.671414e+00    3.493840e+00
  3.687289e+00    3.538689e+00
  3.703165e+00    3.518939e+00
  3.719041e+00    3.613404e+00
  3.734916e+00    3.594481e+00
  3.750792e+00    3.518935e+00
  3.766667e+00    3.469337e+00
  3.782543e+00    3.522817e+00
  3.798418e+00    3.538941e+00
  3.814294e+00    3.500239e+00
  3.830170e+00    3.486858e+00
  3.846045e+00    3.571276e+00
  3.861921e+00    3.542578e+00
  3.877796e+00    3.532550e+00
  3.893672e+00    3.500383e+00
  3.909547e+00    3.541497e+00
  3.925423e+00    3.512066e+00
  3.941299e+00    3.550856e+00
  3.957174e+00    3.580352e+00
  3.973050e+00    3.571831e+00
  3.988925e+00    3.550601e+00
  4.004801e+00    3.593231e+00
  4.020676e+00    3.613243e+00
  4.036552e+00    3.597137e+00
  4.052428e+00    3.604656e+00
  4.068303e+00    3.599269e+00
  4.084179e+00    3.584227e+00
  4.100054e+00    3.643587e+00
  4.115930e+00    3.671943e+00
  4.131806e+00    3.559826e+00
  4.147681e+00    3.565703e+00
  4.163557e+00    3.518720e+00
  4.179432e+00    3.515206e+00
  4.195308e+00    3.582874e+00
  4.211183e+00    3.626472e+00
  4.227059e+00    3.541014e+00
  4.242935e+00    3.574029e+00
  4.258810e+00    3.632928e+00
  4.274686e+00    3.612842e+00
  4.290561e+00    3.591135e+00
  4.306437e+00    3.536191e+00
  4.322312e+00    3.549313e+00
  4.338188e+00    3.488766e+00
  4.354064e+00    3.600912e+00
  4.369939e+00    3.685072e+00
  4.385815e+00    3.646321e+00
  4.401690e+00    3.552033e+00
  4.417566e+00    3.546701e+00
  4.433441e+00    3.664994e+00
  4.449317e+00    3.672136e+00
  4.465193e+00    3.618058e+00
  4.481068e+00    3.572994e+00
  4.496944e+00    3.593824e+00
  4.512819e+00    3.681963e+00
  4.528695e+00    3.657700e+00
  4.544570e+00    3.556024e+00
  4.560446e+00    3.538882e+00
  4.576322e+00    3.589286e+00
  4.592197e+00    3.594003e+00
  4.608073e+00    3.605861e+00
  4.623948e+00    3.676600e+00
  4.639824e+00    3.628887e+00
  4.655699e+00    3.661107e+00
  4.671575e+00    3.682518e+00
  4.687451e+00    3.656359e+00
  4.703326e+00    3.548599e+00
  4.719202e+00    3.578322e+00
  4.735077e+00    3.653807e+00
  4.750953e+00    3.707778e+00
  4.766828e+00    3.680892e+00
  4.782704e+00    3.664130e+00
  4.798580e+00    3.618392e+00
  4.814455e+00    3.592878e+00
  4.830331e+00    3.620153e+00
  4.846206e+00    3.703003e+00
  4.862082e+00    3.660574e+00
  4.877957e+00    3.626738e+00
  4.893833e+00    3.653994e+00
  4.909709e+00    3.725369e+00
  4.925584e+00    3.689967e+00
  4.941460e+00    3.655391e+00
  4.957335e+00    3.731959e+00
  4.973211e+00    3.759575e+00
  4.989086e+00    3.681865e+00
  5.004962e+00    3.644943e+00
  5.020838e+00    3.682698e+00
  5.036713e+00    3.698040e+00
  5.052589e+00    3.725161e+00
  5.068464e+00    3.672700e+00
  5.084340e+00    3.674576e+00
  5.100216e+00    3.677853e+00
  5.116091e+00    3.730545e+00
  5.131967e+00    3.834759e+00
  5.147842e+00    3.804692e+00
  5.163718e+00    3.703660e+00
  5.179593e+00    3.677166e+00
  5.195469e+00    3.675449e+00
  5.211345e+00    3.612622e+00
  5.227220e+00    3.614059e+00
  5.243096e+00    3.629727e+00
  5.258971e+00    3.630594e+00
  5.274847e+00    3.670073e+00
  5.290722e+00    3.734993e+00
  5.306598e+00    3.690223e+00
  5.322474e+00    3.685185e+00
  5.338349e+00    3.713042e+00
  5.354225e+00    3.649186e+00
  5.370100e+00    3.666446e+00
  5.385976e+00    3.621437e+00
  5.401851e+00    3.660822e+00
  5.417727e+00    3.685066e+00
  5.433603e+00    3.611126e+00
  5.449478e+00    3.604403e+00
  5.465354e+00    3.623910e+00
  5.481229e+00    3.580568e+00
  5.497105e+00    3.559729e+00
  5.512980e+00    3.559181e+00
  5.528856e+00    3.610366e+00
  5.544732e+00    3.515622e+00
  5.560607e+00    3.565255e+00
  5.576483e+00    3.666893e+00
  5.592358e+00    3.537660e+00
  5.608234e+00    3.525445e+00
  5.624109e+00    3.605085e+00
  5.639985e+00    3.631507e+00
  5.655861e+00    3.592255e+00
  5.671736e+00    3.568842e+00
  5.687612e+00    3.604417e+00
  5.703487e+00    3.634097e+00
  5.719363e+00    3.486398e+00
  5.735238e+00    3.573491e+00
  5.751114e+00    3.589760e+00
  5.766990e+00    3.500215e+00
  5.782865e+00    3.529074e+00
  5.798741e+00    3.694492e+00
  5.814616e+00    3.587506e+00
  5.830492e+00    3.500058e+00
  5.846367e+00    3.547653e+00
  5.862243e+00    3.591834e+00
  5.878119e+00    3.659798e+00
  5.893994e+00    3.549973e+00
  5.909870e+00    3.528725e+00
  5.925745e+00    3.506774e+00
  5.941621e+00    3.546124e+00
  5.957497e+00    3.517631e+00
  5.973372e+00    3.534958e+00
  5.989248e+00    3.539335e+00
  6.005123e+00    3.587327e+00
  6.020999e+00    3.628479e+00
  6.036874e+00    3.549806e+00
  6.052750e+00    3.519692e+00
  6.068626e+00    3.512197e+00
  6.084501e+00    3.575448e+00
  6.100377e+00    3.597399e+00
  6.116252e+00    3.651638e+00
  6.132128e+00    3.567270e+00
  6.148003e+00    3.536860e+00
  6.163879e+00    3.623531e+00
  6.179755e+00    3.574406e+00
  6.195630e+00    3.540725e+00
  6.211506e+00    3.584424e+00
  6.227381e+00    3.590265e+00
  6.243257e+00    3.568775e+00
  6.259132e+00    3.561112e+00
  6.275008e+00    3.626853e+00
  6.290884e+00    3.599376e+00
  6.306759e+00    3.633983e+00
  6.322635e+00    3.653275e+00
  6.338510e+00    3.557149e+00
  6.354386e+00    3.550719e+00
  6.370261e+00    3.602531e+00
  6.386137e+00    3.577035e+00
  6.402013e+00    3.582494e+00
  6.417888e+00    3.611726e+00
  6.433764e+00    3.594431e+00
  6.449639e+00    3.557977e+00
  6.465515e+00    3.513640e+00
  6.481390e+00    3.534967e+00
  6.497266e+00    3.598811e+00
  6.513142e+00    3.592717e+00
  6.529017e+00    3.565408e+00
  6.544893e+00    3.574809e+00
  6.560768e+00    3.562059e+00
  6.576644e+00    3.530685e+00
  6.592519e+00    3.564745e+00
  6.608395e+00    3.571713e+00
  6.624271e+00    3.637808e+00
  6.640146e+00    3.601682e+00
  6.656022e+00    3.438391e+00
  6.671897e+00    3.501863e+00
  6.687773e+00    3.518265e+00
  6.703648e+00    3.496770e+00
  6.719524e+00    3.501855e+00
  6.735400e+00    3.507743e+00
  6.751275e+00    3.554106e+00
  6.767151e+00    3.530255e+00
  6.783026e+00    3.534612e+00
  6.798902e+00    3.525224e+00
  6.814777e+00    3.551666e+00
  6.830653e+00    3.566145e+00
  6.846529e+00    3.556740e+00
  6.862404e+00    3.594018e+00
  6.878280e+00    3.569264e+00
  6.894155e+00    3.570865e+00
  6.910031e+00    3.599738e+00
  6.925907e+00    3.619073e+00
  6.941782e+00    3.587231e+00
  6.957658e+00    3.585040e+00
  6.973533e+00    3.593522e+00
  6.989409e+00    3.556324e+00
  7.005284e+00    3.552170e+00
  7.021160e+00    3.559282e+00
  7.037036e+00    3.582437e+00
  7.052911e+00    3.475419e+00
  7.068787e+00    3.505103e+00
  7.084662e+00    3.446784e+00
  7.100538e+00    3.523339e+00
  7.116413e+00    3.479682e+00
  7.132289e+00    3.501047e+00
  7.148165e+00    3.582125e+00
  7.164040e+00    3.513552e+00
  7.179916e+00    3.512548e+00
  7.195791e+00    3.466801e+00
  7.211667e+00    3.462185e+00
  7.227542e+00    3.509836e+00
  7.243418e+00    3.570057e+00
  7.259294e+00    3.500579e+00
  7.275169e+00    3.499469e+00
  7.291045e+00    3.550880e+00
  7.306920e+00    3.499054e+00
  7.322796e+00    3.525065e+00
  7.338671e+00    3.539834e+00
  7.354547e+00    3.514124e+00
  7.370423e+00    3.506350e+00
  7.386298e+00    3.540064e+00
  7.402174e+00    3.528958e+00
  7.418049e+00    3.534206e+00
  7.433925e+00    3.568607e+00
  7.449800e+00    3.524056e+00
  7.465676e+00    3.534704e+00
  7.481552e+00    3.538043e+00
  7.497427e+00    3.533479e+00
  7.513303e+00    3.508417e+00
  7.529178e+00    3.441498e+00
  7.545054e+00    3.527362e+00
  7.560929e+00    3.527721e+00
  7.576805e+00    3.531401e+00
  7.592681e+00    3.482213e+00
  7.608556e+00    3.514811e+00
  7.624432e+00    3.523649e+00
  7.640307e+00    3.546583e+00
  7.656183e+00    3.543312e+00
  7.672058e+00    3.520805e+00
  7.687934e+00    3.458311e+00
  7.703810e+00    3.392951e+00
  7.719685e+00    3.485341e+00
  7.735561e+00    3.563323e+00
  7.751436e+00    3.499990e+00
  7.767312e+00    3.506283e+00
  7.783187e+00    3.477461e+00
  7.799063e+00    3.455224e+00
  7.814939e+00    3.376241e+00
  7.830814e+00    3.392935e+00
  7.846690e+00    3.432769e+00
  7.862565e+00    3.402312e+00
  7.878441e+00    3.400632e+00
  7.894317e+00    3.457295e+00
  7.910192e+00    3.450699e+00
  7.926068e+00    3.497231e+00
  7.941943e+00    3.451920e+00
  7.957819e+00    3.455894e+00
  7.973694e+00    3.469184e+00
  7.989570e+00    3.376386e+00
  8.005446e+00    3.358911e+00
  8.021321e+00    3.414419e+00
  8.037197e+00    3.452438e+00
  8.053072e+00    3.478691e+00
  8.068948e+00    3.427944e+00
  8.084823e+00    3.469687e+00
  8.100699e+00    3.442672e+00
  8.116575e+00    3.434476e+00
  8.132450e+00    3.439426e+00
  8.148326e+00    3.481113e+00
  8.164201e+00    3.513922e+00
  8.180077e+00    3.521950e+00
  8.195952e+00    3.505030e+00
  8.211828e+00    3.483270e+00
  8.227704e+00    3.469065e+00
  8.243579e+00    3.455637e+00
  8.259455e+00    3.450450e+00
  8.275330e+00    3.409964e+00
  8.291206e+00    3.374148e+00
  8.307081e+00    3.432057e+00
  8.322957e+00    3.431134e+00
  8.338833e+00    3.425793e+00
  8.354708e+00    3.473258e+00
  8.370584e+00    3.448628e+00
  8.386459e+00    3.448820e+00
  8.402335e+00    3.375009e+00
  8.418210e+00    3.338602e+00
  8.434086e+00    3.309512e+00
  8.449962e+00    3.373146e+00
  8.465837e+00    3.365045e+00
  8.481713e+00    3.405088e+00
  8.497588e+00    3.391644e+00
  8.513464e+00    3.360740e+00
  8.529339e+00    3.361714e+00
  8.545215e+00    3.345956e+00
  8.561091e+00    3.373762e+00
  8.576966e+00    3.426935e+00
  8.592842e+00    3.390344e+00
  8.608717e+00    3.363013e+00
  8.624593e+00    3.368405e+00
  8.640468e+00    3.362035e+00
  8.656344e+00    3.401400e+00
  8.672220e+00    3.431604e+00
  8.688095e+00    3.369475e+00
  8.703971e+00    3.321853e+00
  8.719846e+00    3.347974e+00
  8.735722e+00    3.400480e+00
  8.751598e+00    3.433536e+00
  8.767473e+00    3.350485e+00
  8.783349e+00    3.268541e+00
  8.799224e+00    3.269788e+00
  8.815100e+00    3.339833e+00
  8.830975e+00    3.343177e+00
  8.846851e+00    3.333360e+00
  8.862727e+00    3.316748e+00
  8.878602e+00    3.319612e+00
  8.894478e+00    3.321089e+00
  8.910353e+00    3.358311e+00
  8.926229e+00    3.371620e+00
  8.942104e+00    3.355431e+00
  8.957980e+00    3.331434e+00
  8.973856e+00    3.278908e+00
  8.989731e+00    3.310710e+00
  9.005607e+00    3.351842e+00
  9.021482e+00    3.299539e+00
  9.037358e+00    3.310375e+00
  9.053233e+00    3.240350e+00
  9.069109e+00    3.244036e+00
  9.084985e+00    3.271092e+00
  9.100860e+00    3.271604e+00
  9.116736e+00    3.273090e+00
  9.132611e+00    3.350169e+00
  9.148487e+00    3.297763e+00
  9.164362e+00    3.243577e+00
  9.180238e+00    3.254359e+00
  9.196114e+00    3.255783e+00
  9.211989e+00    3.246425e+00
  9.227865e+00    3.260442e+00
  9.243740e+00    3.274797e+00
  9.259616e+00    3.288383e+00
  9.275491e+00    3.234843e+00
  9.291367e+00    3.225649e+00
  9.307243e+00    3.251792e+00
  9.323118e+00    3.228150e+00
  9.338994e+00    3.227070e+00
  9.354869e+00    3.203555e+00
  9.370745e+00    3.260047e+00
  9.386620e+00    3.341418e+00
  9.402496e+00    3.251604e+00
  9.418372e+00    3.246243e+00
  9.434247e+00    3.286410e+00
  9.450123e+00    3.274899e+00
  9.465998e+00    3.187716e+00
  9.481874e+00    3.215716e+00
  9.497749e+00    3.247270e+00
  9.513625e+00    3.230030e+00
  9.529501e+00    3.188656e+00
  9.545376e+00    3.208864e+00
  9.561252e+00    3.260107e+00
  9.577127e+00    3.278725e+00
  9.593003e+00    3.279558e+00
  9.608878e+00    3.239619e+00
  9.624754e+00    3.254091e+00
  9.640630e+00    3.234667e+00
  9.656505e+00    3.151906e+00
  9.672381e+00    3.191893e+00
  9.688256e+00    3.180866e+00
  9.704132e+00    3.154200e+00
  9.720008e+00    3.235018e+00
  9.735883e+00    3.234236e+00
  9.751759e+00    3.176611e+00
  9.767634e+00    3.161237e+00
  9.783510e+00    3.166816e+00
  9.799385e+00    3.219589e+00
  9.815261e+00    3.213447e+00
  9.831137e+00    3.183643e+00
  9.847012e+00    3.172079e+00
  9.862888e+00    3.162303e+00
  9.878763e+00    3.118655e+00
  9.894639e+00    3.129624e+00
  9.910514e+00    3.112775e+00
  9.926390e+00    3.194859e+00
  9.942266e+00    3.177483e+00
  9.958141e+00    3.182514e+00
  9.974017e+00    3.180253e+00
  9.989892e+00    3.143425e+00
  1.000577e+01    3.127348e+00
  1.002164e+01    3.102363e+00
  1.003752e+01    3.099996e+00
  1.005339e+01    3.124120e+00
  1.006927e+01    3.125720e+00
  1.008515e+01    3.144342e+00
  1.010102e+01    3.123372e+00
  1.011690e+01    3.126120e+00
  1.013277e+01    3.128348e+00
  1.014865e+01    3.120597e+00
  1.016452e+01    3.123106e+00
  1.018040e+01    3.075593e+00
  1.019627e+01    3.070670e+00
  1.021215e+01    3.135918e+00
  1.022803e+01    3.027512e+00
  1.024390e+01    3.002053e+00
  1.025978e+01    3.004213e+00
  1.027565e+01    3.038105e+00
  1.029153e+01    3.063023e+00
  1.030740e+01    3.070365e+00
  1.032328e+01    3.061454e+00
  1.033915e+01    3.041417e+00
  1.035503e+01    2.999527e+00
  1.037091e+01    3.021365e+00
  1.038678e+01    3.100431e+00
  1.040266e+01    3.080559e+00
  1.041853e+01    3.041504e+00
  1.043441e+01    3.022383e+00
  1.045028e+01    3.012640e+00
  1.046616e+01    3.033378e+00
  1.048204e+01    3.063160e+00
  1.049791e+01    3.027737e+00
  1.051379e+01    3.028207e+00
  1.052966e+01    3.055042e+00
  1.054554e+01    3.052718e+00
  1.056141e+01    2.959418e+00
  1.057729e+01    2.934491e+00
  1.059316e+01    3.030474e+00
  1.060904e+01    3.034942e+00
  1.062492e+01    3.035877e+00
  1.064079e+01    3.021129e+00
  1.065667e+01    2.969670e+00
  1.067254e+01    2.986557e+00
  1.068842e+01    2.974943e+00
  1.070429e+01    2.932953e+00
  1.072017e+01    2.933596e+00
  1.073604e+01    3.039510e+00
  1.075192e+01    2.988836e+00
  1.076780e+01    2.969569e+00
  1.078367e+01    2.975478e+00
  1.079955e+01    2.920903e+00
  1.081542e+01    2.952785e+00
  1.083130e+01    2.942331e+00
  1.084717e+01    2.953908e+00
  1.086305e+01    2.944992e+00
  1.087892e+01    2.922886e+00
  1.089480e+01    2.904821e+00
  1.091068e+01    2.934670e+00
  1.092655e+01    2.983531e+00
  1.094243e+01    2.973978e+00
  1.095830e+01    2.975487e+00
  1.097418e+01    2.904057e+00
  1.099005e+01    2.878202e+00
  1.100593e+01    2.912670e+00
  1.102180e+01    2.903194e+00
  1.103768e+01    2.885643e+00
  1.105356e+01    2.927357e+00
  1.106943e+01    2.927721e+00
  1.108531e+01    2.907597e+00
  1.110118e+01    2.911413e+00
  1.111706e+01    2.884261e+00
  1.113293e+01    2.862788e+00
  1.114881e+01    2.906326e+00
  1.116468e+01    2.916642e+00
  1.118056e+01    2.855380e+00
  1.119644e+01    2.849185e+00
  1.121231e+01    2.897960e+00
  1.122819e+01    2.879857e+00
  1.124406e+01    2.882064e+00
  1.125994e+01    2.881469e+00
  1.127581e+01    2.862089e+00
  1.129169e+01    2.821822e+00
  1.130756e+01    2.903503e+00
  1.132344e+01    2.841562e+00
  1.133932e+01    2.807279e+00
  1.135519e+01    2.870568e+00
  1.137107e+01    2.850631e+00
  1.138694e+01    2.839276e+00
  1.140282e+01    2.826012e+00
  1.141869e+01    2.855088e+00
  1.143457e+01    2.828931e+00
  1.145045e+01    2.828606e+00
  1.146632e+01    2.836019e+00
  1.148220e+01    2.819854e+00
  1.149807e+01    2.834350e+00
  1.151395e+01    2.784123e+00
  1.152982e+01    2.819253e+00
  1.154570e+01    2.811164e+00
  1.156157e+01    2.818518e+00
  1.157745e+01    2.763168e+00
  1.159333e+01    2.755659e+00
  1.160920e+01    2.770294e+00
  1.162508e+01    2.773067e+00
  1.164095e+01    2.792250e+00
  1.165683e+01    2.808005e+00
  1.167270e+01    2.807542e+00
  1.168858e+01    2.822707e+00
  1.170445e+01    2.848548e+00
  1.172033e+01    2.744590e+00
  1.173621e+01    2.815122e+00
  1.175208e+01    2.793860e+00
  1.176796e+01    2.766804e+00
  1.178383e+01    2.765645e+00
  1.179971e+01    2.740975e+00
  1.181558e+01    2.800619e+00
  1.183146e+01    2.748276e+00
  1.184733e+01    2.751795e+00
  1.186321e+01    2.743955e+00
  1.187909e+01    2.768297e+00
  1.189496e+01    2.731121e+00
  1.191084e+01    2.708021e+00
  1.192671e+01    2.727818e+00
  1.194259e+01    2.738764e+00
  1.195846e+01    2.723599e+00
  1.197434e+01    2.743206e+00
  1.199021e+01    2.743898e+00
  1.200609e+01    2.689113e+00
  1.202197e+01    2.721010e+00
  1.203784e+01    2.771148e+00
  1.205372e+01    2.736125e+00
  1.206959e+01    2.737300e+00
  1.208547e+01    2.709468e+00
  1.210134e+01    2.702033e+00
  1.211722e+01    2.702139e+00
  1.213309e+01    2.712346e+00
  1.214897e+01    2.674939e+00
  1.216485e+01    2.637582e+00
  1.218072e+01    2.684725e+00
  1.219660e+01    2.747510e+00
  1.221247e+01    2.690770e+00
  1.222835e+01    2.653471e+00
  1.224422e+01    2.677308e+00
  1.226010e+01    2.712247e+00
  1.227597e+01    2.759569e+00
  1.229185e+01    2.764506e+00
  1.230773e+01    2.735193e+00
  1.232360e+01    2.730817e+00
  1.233948e+01    2.728497e+00
  1.235535e+01    2.716797e+00
  1.237123e+01    2.702867e+00
  1.238710e+01    2.706392e+00
  1.240298e+01    2.706081e+00
  1.241886e+01    2.701705e+00
  1.243473e+01    2.691295e+00
  1.245061e+01    2.716061e+00
  1.246648e+01    2.709876e+00
  1.248236e+01    2.720841e+00
  1.249823e+01    2.729137e+00
  1.251411e+01    2.688418e+00
  1.252998e+01    2.705397e+00
  1.254586e+01    2.697212e+00
  1.256174e+01    2.685467e+00
  1.257761e+01    2.767178e+00
  1.259349e+01    2.760118e+00
  1.260936e+01    2.746864e+00
  1.262524e+01    2.761901e+00
  1.264111e+01    2.784035e+00
  1.265699e+01    2.789731e+00
  1.267286e+01    2.809680e+00
  1.268874e+01    2.803472e+00
  1.270462e+01    2.918816e+00
  1.272049e+01    2.874639e+00
  1.273637e+01    2.886887e+00
  1.275224e+01    2.928379e+00
  1.276812e+01    2.963335e+00
  1.278399e+01    2.984009e+00
  1.279987e+01    3.044953e+00
  1.281574e+01    3.146384e+00
  1.283162e+01    3.171806e+00
  1.284750e+01    3.217166e+00
  1.286337e+01    3.276066e+00
  1.287925e+01    3.385369e+00
  1.289512e+01    3.492135e+00
  1.291100e+01    3.642097e+00
  1.292687e+01    3.850893e+00
  1.294275e+01    4.148650e+00
  1.295862e+01    4.458979e+00
  1.297450e+01    4.830976e+00
  1.299038e+01    5.341195e+00
  1.300625e+01    5.928240e+00
  1.302213e+01    6.756832e+00
  1.303800e+01    7.769638e+00
  1.305388e+01    8.942187e+00
  1.306975e+01    1.032021e+01
  1.308563e+01    1.165267e+01
  1.310150e+01    1.272318e+01
  1.311738e+01    1.381984e+01
  1.313326e+01    1.497337e+01
  1.314913e+01    1.591492e+01
  1.316501e+01    1.642607e+01
  1.318088e+01    1.645227e+01
  1.319676e+01    1.581964e+01
  1.321263e+01    1.452563e+01
  1.322851e+01    1.261246e+01
  1.324438e+01    1.072026e+01
  1.326026e+01    9.228529e+00
  1.327614e+01    7.899110e+00
  1.329201e+01    6.816816e+00
  1.330789e+01    6.000304e+00
  1.332376e+01    5.357137e+00
  1.333964e+01    4.820418e+00
  1.335551e+01    4.416351e+00
  1.337139e+01    4.166805e+00
  1.338727e+01    3.930691e+00
  1.340314e+01    3.684300e+00
  1.341902e+01    3.509562e+00
  1.343489e+01    3.331144e+00
  1.345077e+01    3.174309e+00
  1.346664e+01    3.129947e+00
  1.348252e+01    3.059386e+00
  1.349839e+01    3.012813e+00
  1.351427e+01    2.959218e+00
  1.353015e+01    2.883200e+00
  1.354602e+01    2.851609e+00
  1.356190e+01    2.817470e+00
  1.357777e+01    2.768320e+00
  1.359365e+01    2.736470e+00
  1.360952e+01    2.689383e+00
  1.362540e+01    2.706599e+00
  1.364127e+01    2.671790e+00
  1.365715e+01    2.630183e+00
  1.367303e+01    2.608363e+00
  1.368890e+01    2.593892e+00
  1.370478e+01    2.523885e+00
  1.372065e+01    2.552900e+00
  1.373653e+01    2.597428e+00
  1.375240e+01    2.530358e+00
  1.376828e+01    2.536244e+00
  1.378415e+01    2.539515e+00
  1.380003e+01    2.492692e+00
  1.381591e+01    2.481632e+00
  1.383178e+01    2.468989e+00
  1.384766e+01    2.472263e+00
  1.386353e+01    2.439333e+00
  1.387941e+01    2.405390e+00
  1.389528e+01    2.430222e+00
  1.391116e+01    2.445037e+00
  1.392703e+01    2.444150e+00
  1.394291e+01    2.403468e+00
  1.395879e+01    2.390614e+00
  1.397466e+01    2.367473e+00
  1.399054e+01    2.374568e+00
  1.400641e+01    2.341855e+00
  1.402229e+01    2.412118e+00
  1.403816e+01    2.413195e+00
  1.405404e+01    2.374928e+00
  1.406991e+01    2.390147e+00
  1.408579e+01    2.362396e+00
  1.410167e+01    2.327554e+00
  1.411754e+01    2.336315e+00
  1.413342e+01    2.279667e+00
  1.414929e+01    2.294216e+00
  1.416517e+01    2.318736e+00
  1.418104e+01    2.305596e+00
  1.419692e+01    2.323302e+00
  1.421279e+01    2.333360e+00
  1.422867e+01    2.293436e+00
  1.424455e+01    2.302387e+00
  1.426042e+01    2.325274e+00
  1.427630e+01    2.272573e+00
  1.429217e+01    2.254554e+00
  1.430805e+01    2.275217e+00
  1.432392e+01    2.281443e+00
  1.433980e+01    2.267485e+00
  1.435568e+01    2.265574e+00
  1.437155e+01    2.260839e+00
  1.438743e+01    2.277196e+00
  1.440330e+01    2.253353e+00
  1.441918e+01    2.218360e+00
  1.443505e+01    2.213126e+00
  1.445093e+01    2.200835e+00
  1.446680e+01    2.234826e+00
  1.448268e+01    2.260521e+00
  1.449856e+01    2.254761e+00
  1.451443e+01    2.257309e+00
  1.453031e+01    2.242213e+00
  1.454618e+01    2.225653e+00
  1.456206e+01    2.238252e+00
  1.457793e+01    2.245731e+00
  1.459381e+01    2.226800e+00
  1.460968e+01    2.179861e+00
  1.462556e+01    2.240397e+00
  1.464144e+01    2.240288e+00
  1.465731e+01    2.229907e+00
  1.467319e+01    2.232866e+00
  1.468906e+01    2.213414e+00
  1.470494e+01    2.207437e+00
  1.472081e+01    2.158902e+00
  1.473669e+01    2.163323e+00
  1.475256e+01    2.216747e+00
  1.476844e+01    2.175670e+00
  1.478432e+01    2.198921e+00
  1.480019e+01    2.219609e+00
  1.481607e+01    2.238543e+00
  1.483194e+01    2.257671e+00
  1.484782e+01    2.212523e+00
  1.486369e+01    2.218167e+00
  1.487957e+01    2.239882e+00
  1.489544e+01    2.250759e+00
  1.491132e+01    2.226083e+00
  1.492720e+01    2.258728e+00
  1.494307e+01    2.298558e+00
  1.495895e+01    2.345591e+00
  1.497482e+01    2.389976e+00
  1.499070e+01    2.421553e+00
  1.500657e+01    2.432095e+00
  1.502245e+01    2.497311e+00
  1.503832e+01    2.603848e+00
  1.505420e+01    2.715649e+00
  1.507008e+01    2.815762e+00
  1.508595e+01    2.990035e+00
  1.510183e+01    3.208435e+00
  1.511770e+01    3.478483e+00
  1.513358e+01    3.784983e+00
  1.514945e+01    4.207273e+00
  1.516533e+01    4.599640e+00
  1.518120e+01    4.978450e+00
  1.519708e+01    5.261648e+00
  1.521296e+01    5.432384e+00
  1.522883e+01    5.585931e+00
  1.524471e+01    5.843986e+00
  1.526058e+01    5.904596e+00
  1.527646e+01    5.853343e+00
  1.529233e+01    5.592432e+00
  1.530821e+01    5.200693e+00
  1.532409e+01    4.709095e+00
  1.533996e+01    4.198348e+00
  1.535584e+01    3.768977e+00
  1.537171e+01    3.438277e+00
  1.538759e+01    3.159898e+00
  1.540346e+01    2.911066e+00
  1.541934e+01    2.758212e+00
  1.543521e+01    2.708343e+00
  1.545109e+01    2.551672e+00
  1.546697e+01    2.411351e+00
  1.548284e+01    2.310664e+00
  1.549872e+01    2.259926e+00
  1.551459e+01    2.258357e+00
  1.553047e+01    2.233345e+00
  1.554634e+01    2.200426e+00
  1.556222e+01    2.161397e+00
  1.557809e+01    2.141067e+00
  1.559397e+01    2.098206e+00
  1.560985e+01    2.066138e+00
  1.562572e+01    2.075221e+00
  1.564160e+01    2.029149e+00
  1.565747e+01    2.050468e+00
  1.567335e+01    2.046789e+00
  1.568922e+01    2.006630e+00
  1.570510e+01    2.027276e+00
  1.572097e+01    2.013614e+00
  1.573685e+01    2.021775e+00
  1.575273e+01    1.979760e+00
  1.576860e+01    1.990631e+00
  1.578448e+01    1.985500e+00
  1.580035e+01    1.946129e+00
  1.581623e+01    1.964575e+00
  1.583210e+01    1.984654e+00
  1.584798e+01    1.961035e+00
  1.586385e+01    1.915810e+00
  1.587973e+01    1.925636e+00
  1.589561e+01    1.953938e+00
  1.591148e+01    1.909796e+00
  1.592736e+01    1.905826e+00
  1.594323e+01    1.915486e+00
  1.595911e+01    1.891248e+00
  1.597498e+01    1.880943e+00
  1.599086e+01    1.889700e+00
  1.600673e+01    1.875950e+00
  1.602261e+01    1.886784e+00
  1.603849e+01    1.861843e+00
  1.605436e+01    1.878569e+00
  1.607024e+01    1.866813e+00
  1.608611e+01    1.858863e+00
  1.610199e+01    1.843245e+00
  1.611786e+01    1.861976e+00
  1.613374e+01    1.831517e+00
  1.614961e+01    1.861052e+00
  1.616549e+01    1.904010e+00
  1.618137e+01    1.865206e+00
  1.619724e+01    1.837064e+00
  1.621312e+01    1.844138e+00
  1.622899e+01    1.832749e+00
  1.624487e+01    1.821312e+00
  1.626074e+01    1.807629e+00
  1.627662e+01    1.808578e+00
  1.629250e+01    1.815709e+00
  1.630837e+01    1.792953e+00
  1.632425e+01    1.801671e+00
  1.634012e+01    1.779409e+00
  1.635600e+01    1.784062e+00
  1.637187e+01    1.800651e+00
  1.638775e+01    1.821384e+00
  1.640362e+01    1.814106e+00
  1.641950e+01    1.810080e+00
  1.643538e+01    1.807184e+00
  1.645125e+01    1.781358e+00
  1.646713e+01    1.803254e+00
  1.648300e+01    1.792651e+00
  1.649888e+01    1.781599e+00
  1.651475e+01    1.751849e+00
  1.653063e+01    1.762857e+00
  1.654650e+01    1.785302e+00
  1.656238e+01    1.769012e+00
  1.657826e+01    1.741215e+00
  1.659413e+01    1.739592e+00
  1.661001e+01    1.753277e+00
  1.662588e+01    1.778298e+00
  1.664176e+01    1.764083e+00
  1.665763e+01    1.770768e+00
  1.667351e+01    1.741714e+00
  1.668938e+01    1.727333e+00
  1.670526e+01    1.732454e+00
  1.672114e+01    1.722364e+00
  1.673701e+01    1.731715e+00
  1.675289e+01    1.682689e+00
  1.676876e+01    1.711234e+00
  1.678464e+01    1.732896e+00
  1.680051e+01    1.734257e+00
  1.681639e+01    1.721848e+00
  1.683226e+01    1.712438e+00
  1.684814e+01    1.731848e+00
  1.686402e+01    1.747651e+00
  1.687989e+01    1.708055e+00
  1.689577e+01    1.689657e+00
  1.691164e+01    1.680120e+00
  1.692752e+01    1.691225e+00
  1.694339e+01    1.677788e+00
  1.695927e+01    1.650748e+00
  1.697514e+01    1.640955e+00
  1.699102e+01    1.667601e+00
  1.700690e+01    1.656368e+00
  1.702277e+01    1.663906e+00
  1.703865e+01    1.702575e+00
  1.705452e+01    1.699853e+00
  1.707040e+01    1.626244e+00
  1.708627e+01    1.651947e+00
  1.710215e+01    1.658137e+00
  1.711802e+01    1.663399e+00
  1.713390e+01    1.654994e+00
  1.714978e+01    1.630568e+00
  1.716565e+01    1.646873e+00
  1.718153e+01    1.656925e+00
  1.719740e+01    1.622340e+00
  1.721328e+01    1.624891e+00
  1.722915e+01    1.657741e+00
  1.724503e+01    1.638693e+00
  1.726091e+01    1.645463e+00
  1.727678e+01    1.642915e+00
  1.729266e+01    1.629171e+00
  1.730853e+01    1.616400e+00
  1.732441e+01    1.617888e+00
  1.734028e+01    1.622395e+00
  1.735616e+01    1.621806e+00
  1.737203e+01    1.628510e+00
  1.738791e+01    1.620462e+00
  1.740379e+01    1.599823e+00
  1.741966e+01    1.602469e+00
  1.743554e+01    1.627205e+00
  1.745141e+01    1.599147e+00
  1.746729e+01    1.590992e+00
  1.748316e+01    1.606222e+00
  1.749904e+01    1.615277e+00
  1.751491e+01    1.597506e+00
  1.753079e+01    1.563191e+00
  1.754667e+01    1.588125e+00
  1.756254e+01    1.626369e+00
  1.757842e+01    1.599643e+00
  1.759429e+01    1.560598e+00
  1.761017e+01    1.542696e+00
  1.762604e+01    1.567244e+00
  1.764192e+01    1.576457e+00
  1.765779e+01    1.582961e+00
  1.767367e+01    1.592398e+00
  1.768955e+01    1.558055e+00
  1.770542e+01    1.556635e+00
  1.772130e+01    1.554319e+00
  1.773717e+01    1.574345e+00
  1.775305e+01    1.553127e+00
  1.776892e+01    1.575254e+00
  1.778480e+01    1.568640e+00
  1.780067e+01    1.560473e+00
  1.781655e+01    1.542389e+00
  1.783243e+01    1.540017e+00
  1.784830e+01    1.577935e+00
  1.786418e+01    1.522449e+00
  1.788005e+01    1.517738e+00
  1.789593e+01    1.536122e+00
  1.791180e+01    1.536034e+00
  1.792768e+01    1.529474e+00
  1.794355e+01    1.532228e+00
  1.795943e+01    1.549688e+00
  1.797531e+01    1.536269e+00
  1.799118e+01    1.536311e+00
  1.800706e+01    1.497134e+00
  1.802293e+01    1.501257e+00
  1.803881e+01    1.499392e+00
  1.805468e+01    1.486852e+00
  1.807056e+01    1.492441e+00
  1.808643e+01    1.509864e+00
  1.810231e+01    1.521418e+00
  1.811819e+01    1.500001e+00
  1.813406e+01    1.522918e+00
  1.814994e+01    1.497969e+00
  1.816581e+01    1.478197e+00
  1.818169e+01    1.498159e+00
  1.819756e+01    1.482183e+00
  1.821344e+01    1.460012e+00
  1.822932e+01    1.481147e+00
  1.824519e+01    1.482631e+00
  1.826107e+01    1.494495e+00
  1.827694e+01    1.467157e+00
  1.829282e+01    1.471629e+00
  1.830869e+01    1.472687e+00
  1.832457e+01    1.474568e+00
  1.834044e+01    1.492617e+00
  1.835632e+01    1.459587e+00
  1.837220e+01    1.458723e+00
  1.838807e+01    1.445288e+00
  1.840395e+01    1.436703e+00
  1.841982e+01    1.455285e+00
  1.843570e+01    1.475656e+00
  1.845157e+01    1.446196e+00
  1.846745e+01    1.451514e+00
  1.848332e+01    1.459721e+00
  1.849920e+01    1.455446e+00
  1.851508e+01    1.453622e+00
  1.853095e+01    1.456067e+00
  1.854683e+01    1.441342e+00
  1.856270e+01    1.455621e+00
  1.857858e+01    1.459684e+00
  1.859445e+01    1.435547e+00
  1.861033e+01    1.429425e+00
  1.862620e+01    1.444956e+00
  1.864208e+01    1.449641e+00
  1.865796e+01    1.452837e+00
  1.867383e+01    1.458118e+00
  1.868971e+01    1.442415e+00
  1.870558e+01    1.429603e+00
  1.872146e+01    1.435089e+00
  1.873733e+01    1.449242e+00
  1.875321e+01    1.409223e+00
  1.876908e+01    1.390121e+00
  1.878496e+01    1.393816e+00
  1.880084e+01    1.396117e+00
  1.881671e+01    1.392832e+00
  1.883259e+01    1.408947e+00
  1.884846e+01    1.431018e+00
  1.886434e+01    1.399581e+00
  1.888021e+01    1.404667e+00
  1.889609e+01    1.414282e+00
  1.891196e+01    1.388773e+00
  1.892784e+01    1.391310e+00
  1.894372e+01    1.402769e+00
  1.895959e+01    1.426970e+00
  1.897547e+01    1.440070e+00
  1.899134e+01    1.385874e+00
  1.900722e+01    1.347712e+00
  1.902309e+01    1.372787e+00
  1.903897e+01    1.395129e+00
  1.905484e+01    1.379110e+00
  1.907072e+01    1.392082e+00
  1.908660e+01    1.390049e+00
  1.910247e+01    1.392115e+00
  1.911835e+01    1.384784e+00
  1.913422e+01    1.374462e+00
  1.915010e+01    1.399896e+00
  1.916597e+01    1.400150e+00
  1.918185e+01    1.393759e+00
  1.919773e+01    1.364101e+00
  1.921360e+01    1.350241e+00
  1.922948e+01    1.381293e+00
  1.924535e+01    1.361597e+00
  1.926123e+01    1.407910e+00
  1.927710e+01    1.395437e+00
  1.929298e+01    1.381157e+00
  1.930885e+01    1.351328e+00
  1.932473e+01    1.361688e+00
  1.934061e+01    1.368986e+00
  1.935648e+01    1.382292e+00
  1.937236e+01    1.358159e+00
  1.938823e+01    1.366657e+00
  1.940411e+01    1.364416e+00
  1.941998e+01    1.349269e+00
  1.943586e+01    1.356490e+00
  1.945173e+01    1.361002e+00
  1.946761e+01    1.354960e+00
  1.948349e+01    1.320348e+00
  1.949936e+01    1.313935e+00
  1.951524e+01    1.327927e+00
  1.953111e+01    1.330289e+00
  1.954699e+01    1.337402e+00
  1.956286e+01    1.318089e+00
  1.957874e+01    1.319464e+00
  1.959461e+01    1.325151e+00
  1.961049e+01    1.316224e+00
  1.962637e+01    1.316055e+00
  1.964224e+01    1.321558e+00
  1.965812e+01    1.318712e+00
  1.967399e+01    1.312625e+00
  1.968987e+01    1.342420e+00
  1.970574e+01    1.324930e+00
  1.972162e+01    1.299286e+00
  1.973749e+01    1.318540e+00
  1.975337e+01    1.309012e+00
  1.976925e+01    1.307927e+00
  1.978512e+01    1.293113e+00
  1.980100e+01    1.306115e+00
  1.981687e+01    1.299623e+00
  1.983275e+01    1.314075e+00
  1.984862e+01    1.319269e+00
  1.986450e+01    1.310053e+00
  1.988037e+01    1.322635e+00
  1.989625e+01    1.326330e+00
  1.991213e+01    1.306080e+00
  1.992800e+01    1.300819e+00
  1.994388e+01    1.284169e+00
  1.995975e+01    1.309916e+00
  1.997563e+01    1.299149e+00
  1.999150e+01    1.278764e+00
  2.000738e+01    1.288244e+00
  2.002325e+01    1.299801e+00
  2.003913e+01    1.298967e+00
  2.005501e+01    1.301781e+00
  2.007088e+01    1.271949e+00
  2.008676e+01    1.276910e+00
  2.010263e+01    1.275164e+00
  2.011851e+01    1.290060e+00
  2.013438e+01    1.281725e+00
  2.015026e+01    1.280831e+00
  2.016614e+01    1.282585e+00
  2.018201e+01    1.302980e+00
  2.019789e+01    1.270397e+00
  2.021376e+01    1.242937e+00
  2.022964e+01    1.250044e+00
  2.024551e+01    1.253029e+00
  2.026139e+01    1.248798e+00
  2.027726e+01    1.264274e+00
  2.029314e+01    1.262340e+00
  2.030902e+01    1.252444e+00
  2.032489e+01    1.247015e+00
  2.034077e+01    1.274284e+00
  2.035664e+01    1.271036e+00
  2.037252e+01    1.260588e+00
  2.038839e+01    1.255498e+00
  2.040427e+01    1.260179e+00
  2.042014e+01    1.269707e+00
  2.043602e+01    1.242520e+00
  2.045190e+01    1.248458e+00
  2.046777e+01    1.249392e+00
  2.048365e+01    1.265262e+00
  2.049952e+01    1.238033e+00
  2.051540e+01    1.248485e+00
  2.053127e+01    1.253198e+00
  2.054715e+01    1.259610e+00
  2.056302e+01    1.252552e+00
  2.057890e+01    1.258076e+00
  2.059478e+01    1.237849e+00
  2.061065e+01    1.240214e+00
  2.062653e+01    1.215418e+00
  2.064240e+01    1.217520e+00
  2.065828e+01    1.214193e+00
  2.067415e+01    1.263062e+00
  2.069003e+01    1.252309e+00
  2.070590e+01    1.229956e+00
  2.072178e+01    1.232162e+00
  2.073766e+01    1.253474e+00
  2.075353e+01    1.255848e+00
  2.076941e+01    1.245612e+00
  2.078528e+01    1.247348e+00
  2.080116e+01    1.242989e+00
  2.081703e+01    1.235577e+00
  2.083291e+01    1.239400e+00
  2.084878e+01    1.246450e+00
  2.086466e+01    1.230502e+00
  2.088054e+01    1.224066e+00
  2.089641e+01    1.224334e+00
  2.091229e+01    1.226193e+00
  2.092816e+01    1.228665e+00
  2.094404e+01    1.233502e+00
  2.095991e+01    1.215435e+00
  2.097579e+01    1.207953e+00
  2.099166e+01    1.215449e+00
  2.100754e+01    1.218887e+00
  2.102342e+01    1.229733e+00
  2.103929e+01    1.242085e+00
  2.105517e+01    1.228191e+00
  2.107104e+01    1.208998e+00
  2.108692e+01    1.240682e+00
  2.110279e+01    1.243403e+00
  2.111867e+01    1.236291e+00
  2.113455e+01    1.225837e+00
  2.115042e+01    1.227639e+00
  2.116630e+01    1.247879e+00
  2.118217e+01    1.247301e+00
  2.119805e+01    1.239788e+00
  2.121392e+01    1.237296e+00
  2.122980e+01    1.239020e+00
  2.124567e+01    1.235583e+00
  2.126155e+01    1.248137e+00
  2.127743e+01    1.273988e+00
  2.129330e+01    1.275358e+00
  2.130918e+01    1.277704e+00
  2.132505e+01    1.278226e+00
  2.134093e+01    1.287521e+00
  2.135680e+01    1.298185e+00
  2.137268e+01    1.297819e+00
  2.138855e+01    1.302754e+00
  2.140443e+01    1.317344e+00
  2.142031e+01    1.334357e+00
  2.143618e+01    1.349672e+00
  2.145206e+01    1.359979e+00
  2.146793e+01    1.386309e+00
  2.148381e+01    1.402272e+00
  2.149968e+01    1.434504e+00
  2.151556e+01    1.485215e+00
  2.153143e+01    1.480190e+00
  2.154731e+01    1.524308e+00
  2.156319e+01    1.587963e+00
  2.157906e+01    1.626892e+00
  2.159494e+01    1.693159e+00
  2.161081e+01    1.770442e+00
  2.162669e+01    1.856784e+00
  2.164256e+01    1.979605e+00
  2.165844e+01    2.140637e+00
  2.167431e+01    2.322775e+00
  2.169019e+01    2.555333e+00
  2.170607e+01    2.801061e+00
  2.172194e+01    3.107564e+00
  2.173782e+01    3.551366e+00
  2.175369e+01    4.057182e+00
  2.176957e+01    4.619475e+00
  2.178544e+01    5.226624e+00
  2.180132e+01    5.895144e+00
  2.181719e+01    6.638838e+00
  2.183307e+01    7.252803e+00
  2.184895e+01    7.875188e+00
  2.186482e+01    8.411467e+00
  2.188070e+01    8.857353e+00
  2.189657e+01    9.043579e+00
  2.191245e+01    8.831205e+00
  2.192832e+01    8.344696e+00
  2.194420e+01    7.591633e+00
  2.196007e+01    6.633995e+00
  2.197595e+01    5.721089e+00
  2.199183e+01    4.891274e+00
  2.200770e+01    4.186258e+00
  2.202358e+01    3.630485e+00
  2.203945e+01    3.206108e+00
  2.205533e+01    2.850078e+00
  2.207120e+01    2.542514e+00
  2.208708e+01    2.284583e+00
  2.210296e+01    2.157046e+00
  2.211883e+01    2.013405e+00
  2.213471e+01    1.870850e+00
  2.215058e+01    1.789055e+00
  2.216646e+01    1.691952e+00
  2.218233e+01    1.607157e+00
  2.219821e+01    1.553500e+00
  2.221408e+01    1.500821e+00
  2.222996e+01    1.462398e+00
  2.224584e+01    1.423654e+00
  2.226171e+01    1.399928e+00
  2.227759e+01    1.363112e+00
  2.229346e+01    1.330456e+00
  2.230934e+01    1.321539e+00
  2.232521e+01    1.283682e+00
  2.234109e+01    1.277391e+00
  2.235696e+01    1.262521e+00
  2.237284e+01    1.234177e+00
  2.238872e+01    1.215493e+00
  2.240459e+01    1.201808e+00
  2.242047e+01    1.196949e+00
  2.243634e+01    1.195981e+00
  2.245222e+01    1.194185e+00
  2.246809e+01    1.153884e+00
  2.248397e+01    1.135325e+00
  2.249984e+01    1.140149e+00
  2.251572e+01    1.140853e+00
  2.253160e+01    1.134267e+00
  2.254747e+01    1.133813e+00
  2.256335e+01    1.148479e+00
  2.257922e+01    1.134512e+00
  2.259510e+01    1.118101e+00
  2.261097e+01    1.105122e+00
  2.262685e+01    1.097903e+00
  2.264272e+01    1.079448e+00
  2.265860e+01    1.099844e+00
  2.267448e+01    1.092056e+00
  2.269035e+01    1.084259e+00
  2.270623e+01    1.067832e+00
  2.272210e+01    1.059371e+00
  2.273798e+01    1.083347e+00
  2.275385e+01    1.063295e+00
  2.276973e+01    1.082459e+00
  2.278560e+01    1.072872e+00
  2.280148e+01    1.073577e+00
  2.281736e+01    1.062545e+00
  2.283323e+01    1.049419e+00
  2.284911e+01    1.018985e+00
  2.286498e+01    1.032076e+00
  2.288086e+01    1.027311e+00
  2.289673e+01    1.036165e+00
  2.291261e+01    1.010903e+00
  2.292848e+01    1.031225e+00
  2.294436e+01    1.046365e+00
  2.296024e+01    1.035992e+00
  2.297611e+01    1.024274e+00
  2.299199e+01    1.034502e+00
  2.300786e+01    1.045576e+00
  2.302374e+01    1.038814e+00
  2.303961e+01    1.022193e+00
  2.305549e+01    1.019259e+00
  2.307137e+01    1.018531e+00
  2.308724e+01    1.006158e+00
  2.310312e+01    9.868337e-01
  2.311899e+01    1.032893e+00
  2.313487e+01    1.023126e+00
  2.315074e+01    1.009190e+00
  2.316662e+01    1.012103e+00
  2.318249e+01    1.010108e+00
  2.319837e+01    9.982120e-01
  2.321425e+01    9.996152e-01
  2.323012e+01    1.008393e+00
  2.324600e+01    1.016744e+00
  2.326187e+01    9.871112e-01
  2.327775e+01    9.757828e-01
  2.329362e+01    9.953890e-01
  2.330950e+01    1.003024e+00
  2.332537e+01    9.976053e-01
  2.334125e+01    9.884584e-01
  2.335713e+01    9.666276e-01
  2.337300e+01    9.796095e-01
  2.338888e+01    9.730015e-01
  2.340475e+01    9.751861e-01
  2.342063e+01    9.815017e-01
  2.343650e+01    9.721349e-01
  2.345238e+01    9.577702e-01
  2.346825e+01    9.675900e-01
  2.348413e+01    9.761439e-01
  2.350001e+01    9.704748e-01
  2.351588e+01    9.678779e-01
  2.353176e+01    9.521851e-01
  2.354763e+01    9.492970e-01
  2.356351e+01    9.739757e-01
  2.357938e+01    9.628847e-01
  2.359526e+01    9.630895e-01
  2.361113e+01    9.653889e-01
  2.362701e+01    9.540544e-01
  2.364289e+01    9.537622e-01
  2.365876e+01    9.342939e-01
  2.367464e+01    9.425184e-01
  2.369051e+01    9.612173e-01
  2.370639e+01    9.618676e-01
  2.372226e+01    9.576522e-01
  2.373814e+01    9.591532e-01
  2.375401e+01    9.542512e-01
  2.376989e+01    9.266161e-01
  2.378577e+01    9.182296e-01
  2.380164e+01    9.550600e-01
  2.381752e+01    9.350137e-01
  2.383339e+01    9.213017e-01
  2.384927e+01    9.125323e-01
  2.386514e+01    9.188366e-01
  2.388102e+01    9.197386e-01
  2.389689e+01    9.114414e-01
  2.391277e+01    8.991660e-01
  2.392865e+01    9.037179e-01
  2.394452e+01    8.945693e-01
  2.396040e+01    8.972057e-01
  2.397627e+01    9.326122e-01
  2.399215e+01    9.225795e-01
  2.400802e+01    9.160061e-01
  2.402390e+01    8.911566e-01
  2.403978e+01    8.784882e-01
  2.405565e+01    8.919880e-01
  2.407153e+01    9.097381e-01
  2.408740e+01    8.891547e-01
  2.410328e+01    8.863145e-01
  2.411915e+01    9.064689e-01
  2.413503e+01    8.848147e-01
  2.415090e+01    8.608958e-01
  2.416678e+01    8.927385e-01
  2.418266e+01    8.835062e-01
  2.419853e+01    8.901315e-01
  2.421441e+01    8.906354e-01
  2.423028e+01    8.885159e-01
  2.424616e+01    8.975623e-01
  2.426203e+01    9.005851e-01
  2.427791e+01    9.049078e-01
  2.429378e+01    8.986983e-01
  2.430966e+01    9.006516e-01
  2.432554e+01    9.097220e-01
  2.434141e+01    8.892166e-01
  2.435729e+01    8.831125e-01
  2.437316e+01    8.961425e-01
  2.438904e+01    8.876443e-01
  2.440491e+01    9.174944e-01
  2.442079e+01    9.077596e-01
  2.443666e+01    8.971861e-01
  2.445254e+01    9.052148e-01
  2.446842e+01    8.980062e-01
  2.448429e+01    8.725475e-01
  2.450017e+01    8.861710e-01
  2.451604e+01    9.084732e-01
  2.453192e+01    8.814290e-01
  2.454779e+01    8.938587e-01
  2.456367e+01    9.018363e-01
  2.457954e+01    9.113343e-01
  2.459542e+01    8.900391e-01
  2.461130e+01    8.833095e-01
  2.462717e+01    8.832346e-01
  2.464305e+01    8.810838e-01
  2.465892e+01    8.785954e-01
  2.467480e+01    8.881723e-01
  2.469067e+01    8.877156e-01
  2.470655e+01    8.955104e-01
  2.472242e+01    9.171410e-01
  2.473830e+01    9.040425e-01
  2.475418e+01    8.933071e-01
  2.477005e+01    8.915096e-01
  2.478593e+01    8.991805e-01
  2.480180e+01    8.940411e-01
  2.481768e+01    8.968861e-01
  2.483355e+01    9.075918e-01
  2.484943e+01    9.115352e-01
  2.486530e+01    9.128343e-01
  2.488118e+01    8.961649e-01
  2.489706e+01    8.916304e-01
  2.491293e+01    8.980487e-01
  2.492881e+01    9.020654e-01
  2.494468e+01    9.033567e-01
  2.496056e+01    8.882536e-01
  2.497643e+01    8.937524e-01
  2.499231e+01    8.945889e-01
  2.500819e+01    9.029517e-01
  2.502406e+01    8.973849e-01
  2.503994e+01    8.812328e-01
  2.505581e+01    8.991477e-01
  2.507169e+01    9.106458e-01
  2.508756e+01    9.040191e-01
  2.510344e+01    9.078428e-01
  2.511931e+01    9.038557e-01
  2.513519e+01    9.172596e-01
  2.515107e+01    9.304113e-01
  2.516694e+01    9.437301e-01
  2.518282e+01    9.240234e-01
  2.519869e+01    9.390923e-01
  2.521457e+01    9.428890e-01
  2.523044e+01    9.382452e-01
  2.524632e+01    9.456529e-01
  2.526219e+01    9.440405e-01
  2.527807e+01    9.492670e-01
  2.529395e+01    9.636037e-01
  2.530982e+01    9.710331e-01
  2.532570e+01    9.607235e-01
  2.534157e+01    9.706598e-01
  2.535745e+01    9.806793e-01
  2.537332e+01    9.940866e-01
  2.538920e+01    1.007984e+00
  2.540507e+01    9.906301e-01
  2.542095e+01    1.011768e+00
  2.543683e+01    1.021610e+00
  2.545270e+01    1.021420e+00
  2.546858e+01    1.036959e+00
  2.548445e+01    1.057508e+00
  2.550033e+01    1.069582e+00
  2.551620e+01    1.078831e+00
  2.553208e+01    1.126993e+00
  2.554795e+01    1.142927e+00
  2.556383e+01    1.149289e+00
  2.557971e+01    1.168131e+00
  2.559558e+01    1.192947e+00
  2.561146e+01    1.241413e+00
  2.562733e+01    1.250064e+00
  2.564321e+01    1.276457e+00
  2.565908e+01    1.359756e+00
  2.567496e+01    1.412230e+00
  2.569083e+01    1.509397e+00
  2.570671e+01    1.622151e+00
  2.572259e+01    1.706001e+00
  2.573846e+01    1.833311e+00
  2.575434e+01    2.045341e+00
  2.577021e+01    2.265277e+00
  2.578609e+01    2.485686e+00
  2.580196e+01    2.814409e+00
  2.581784e+01    3.236316e+00
  2.583371e+01    3.686603e+00
  2.584959e+01    4.195131e+00
  2.586547e+01    4.730178e+00
  2.588134e+01    5.299819e+00
  2.589722e+01    5.890642e+00
  2.591309e+01    6.392616e+00
  2.592897e+01    6.852003e+00
  2.594484e+01    7.137095e+00
  2.596072e+01    7.208459e+00
  2.597660e+01    7.003568e+00
  2.599247e+01    6.652277e+00
  2.600835e+01    6.026963e+00
  2.602422e+01    5.351231e+00
  2.604010e+01    4.657023e+00
  2.605597e+01    4.008704e+00
  2.607185e+01    3.470935e+00
  2.608772e+01    3.021620e+00
  2.610360e+01    2.670007e+00
  2.611948e+01    2.373717e+00
  2.613535e+01    2.124280e+00
  2.615123e+01    1.972781e+00
  2.616710e+01    1.833647e+00
  2.618298e+01    1.712155e+00
  2.619885e+01    1.569328e+00
  2.621473e+01    1.497973e+00
  2.623060e+01    1.410240e+00
  2.624648e+01    1.335241e+00
  2.626236e+01    1.293561e+00
  2.627823e+01    1.257471e+00
  2.629411e+01    1.205447e+00
  2.630998e+01    1.191662e+00
  2.632586e+01    1.158968e+00
  2.634173e+01    1.120526e+00
  2.635761e+01    1.114904e+00
  2.637348e+01    1.090549e+00
  2.638936e+01    1.067664e+00
  2.640524e+01    1.045435e+00
  2.642111e+01    1.051803e+00
  2.643699e+01    1.036171e+00
  2.645286e+01    1.033523e+00
  2.646874e+01    1.009778e+00
  2.648461e+01    9.819630e-01
  2.650049e+01    1.001741e+00
  2.651636e+01    1.011675e+00
  2.653224e+01    1.011010e+00
  2.654812e+01    1.022304e+00
  2.656399e+01    1.018690e+00
  2.657987e+01    9.902577e-01
  2.659574e+01    9.847871e-01
  2.661162e+01    9.670917e-01
  2.662749e+01    9.614136e-01
  2.664337e+01    9.887009e-01
  2.665924e+01    9.897867e-01
  2.667512e+01    9.721946e-01
  2.669100e+01    9.805644e-01
  2.670687e+01    9.861907e-01
  2.672275e+01    9.845247e-01
  2.673862e+01    9.721466e-01
  2.675450e+01    9.781067e-01
  2.677037e+01    9.980993e-01
  2.678625e+01    9.975970e-01
  2.680212e+01    9.830363e-01
  2.681800e+01    9.954352e-01
  2.683388e+01    9.996657e-01
  2.684975e+01    9.850681e-01
  2.686563e+01    9.887228e-01
  2.688150e+01    9.672439e-01
  2.689738e+01    9.893156e-01
  2.691325e+01    1.012176e+00
  2.692913e+01    1.016329e+00
  2.694501e+01    1.009525e+00
  2.696088e+01    1.043597e+00
  2.697676e+01    1.094189e+00
  2.699263e+01    1.091749e+00
  2.700851e+01    1.117343e+00
  2.702438e+01    1.167422e+00
  2.704026e+01    1.204018e+00
  2.705613e+01    1.240035e+00
  2.707201e+01    1.323483e+00
  2.708789e+01    1.438303e+00
  2.710376e+01    1.505752e+00
  2.711964e+01    1.601021e+00
  2.713551e+01    1.748284e+00
  2.715139e+01    1.857059e+00
  2.716726e+01    1.985429e+00
  2.718314e+01    2.098295e+00
  2.719901e+01    2.191429e+00
  2.721489e+01    2.207952e+00
  2.723077e+01    2.178248e+00
  2.724664e+01    2.071316e+00
  2.726252e+01    2.010182e+00
  2.727839e+01    1.869995e+00
  2.729427e+01    1.711362e+00
  2.731014e+01    1.551481e+00
  2.732602e+01    1.458732e+00
  2.734189e+01    1.374165e+00
  2.735777e+01    1.289757e+00
  2.737365e+01    1.228900e+00
  2.738952e+01    1.166077e+00
  2.740540e+01    1.134975e+00
  2.742127e+01    1.093723e+00
  2.743715e+01    1.091130e+00
  2.745302e+01    1.038673e+00
  2.746890e+01    1.017512e+00
  2.748477e+01    1.020550e+00
  2.750065e+01    9.943454e-01
  2.751653e+01    9.654072e-01
  2.753240e+01    9.645550e-01
  2.754828e+01    9.491894e-01
  2.756415e+01    9.385043e-01
  2.758003e+01    9.327753e-01
  2.759590e+01    9.200980e-01
  2.761178e+01    9.463909e-01
  2.762765e+01    9.318863e-01
  2.764353e+01    9.061493e-01
  2.765941e+01    9.118633e-01
  2.767528e+01    9.048775e-01
  2.769116e+01    9.078681e-01
  2.770703e+01    9.214545e-01
  2.772291e+01    8.838599e-01
  2.773878e+01    9.027575e-01
  2.775466e+01    9.053769e-01
  2.777054e+01    9.060655e-01
  2.778641e+01    9.180899e-01
  2.780229e+01    9.152632e-01
  2.781816e+01    8.823572e-01
  2.783404e+01    8.807988e-01
  2.784991e+01    8.770384e-01
  2.786579e+01    8.814598e-01
  2.788166e+01    8.902085e-01
  2.789754e+01    8.742095e-01
  2.791342e+01    8.713205e-01
  2.792929e+01    8.809080e-01
  2.794517e+01    8.647491e-01
  2.796104e+01    8.562951e-01
  2.797692e+01    8.445502e-01
  2.799279e+01    8.730486e-01
  2.800867e+01    8.890774e-01
  2.802454e+01    8.762727e-01
  2.804042e+01    8.726565e-01
  2.805630e+01    8.719801e-01
  2.807217e+01    8.727586e-01
  2.808805e+01    8.772924e-01
  2.810392e+01    8.869404e-01
  2.811980e+01    8.789494e-01
  2.813567e+01    8.707477e-01
  2.815155e+01    8.730352e-01
  2.816742e+01    8.821626e-01
  2.818330e+01    8.581991e-01
  2.819918e+01    8.567049e-01
  2.821505e+01    8.647131e-01
  2.823093e+01    8.824872e-01
  2.824680e+01    8.845499e-01
  2.826268e+01    8.743320e-01
  2.827855e+01    8.570709e-01
  2.829443e+01    8.514386e-01
  2.831030e+01    8.557353e-01
  2.832618e+01    8.553879e-01
  2.834206e+01    8.555519e-01
  2.835793e+01    8.625630e-01
  2.837381e+01    8.677992e-01
  2.838968e+01    8.578121e-01
  2.840556e+01    8.557668e-01
  2.842143e+01    8.705230e-01
  2.843731e+01    8.390123e-01
  2.845318e+01    8.269136e-01
  2.846906e+01    8.426988e-01
  2.848494e+01    8.515408e-01
  2.850081e+01    8.453662e-01
  2.851669e+01    8.600164e-01
  2.853256e+01    8.445622e-01
  2.854844e+01    8.406494e-01
  2.856431e+01    8.230458e-01
  2.858019e+01    8.491016e-01
  2.859606e+01    8.365698e-01
  2.861194e+01    8.281181e-01
  2.862782e+01    8.428669e-01
  2.864369e+01    8.383505e-01
  2.865957e+01    8.423970e-01
  2.867544e+01    8.436957e-01
  2.869132e+01    8.455199e-01
  2.870719e+01    8.338583e-01
  2.872307e+01    8.455910e-01
  2.873895e+01    8.226608e-01
  2.875482e+01    8.264214e-01
  2.877070e+01    8.301738e-01
  2.878657e+01    8.250225e-01
  2.880245e+01    8.221303e-01
  2.881832e+01    8.304476e-01
  2.883420e+01    8.337826e-01
  2.885007e+01    8.770850e-01
  2.886595e+01    8.607740e-01
  2.888183e+01    8.555537e-01
  2.889770e+01    8.325738e-01
  2.891358e+01    8.160185e-01
  2.892945e+01    8.028301e-01
  2.894533e+01    8.005511e-01
  2.896120e+01    8.225892e-01
  2.897708e+01    8.473030e-01
  2.899295e+01    8.203422e-01
  2.900883e+01    8.297088e-01
  2.902471e+01    8.415291e-01
  2.904058e+01    8.129698e-01
  2.905646e+01    8.123685e-01
  2.907233e+01    8.396596e-01
  2.908821e+01    8.509804e-01
  2.910408e+01    8.179590e-01
  2.911996e+01    8.122851e-01
  2.913583e+01    8.225878e-01
  2.915171e+01    8.471303e-01
  2.916759e+01    8.150929e-01
  2.918346e+01    8.324639e-01
  2.919934e+01    8.296396e-01
  2.921521e+01    8.220314e-01
  2.923109e+01    8.266543e-01
  2.924696e+01    8.592973e-01
  2.926284e+01    8.297841e-01
  2.927871e+01    8.108593e-01
  2.929459e+01    8.042382e-01
  2.931047e+01    8.210447e-01
  2.932634e+01    8.220055e-01
  2.934222e+01    8.285573e-01
  2.935809e+01    8.210024e-01
  2.937397e+01    8.512819e-01
  2.938984e+01    8.162025e-01
  2.940572e+01    8.465784e-01
  2.942159e+01    8.196803e-01
  2.943747e+01    7.879410e-01
  2.945335e+01    7.952537e-01
  2.946922e+01    8.069860e-01
  2.948510e+01    8.155348e-01
  2.950097e+01    7.898300e-01
  2.951685e+01    8.047559e-01
  2.953272e+01    8.066040e-01
  2.954860e+01    7.995035e-01
  2.956447e+01    7.943762e-01
  2.958035e+01    8.027924e-01
  2.959623e+01    8.291690e-01
  2.961210e+01    8.127848e-01
  2.962798e+01    8.152357e-01
  2.964385e+01    8.198482e-01
  2.965973e+01    8.048595e-01
  2.967560e+01    7.976471e-01
  2.969148e+01    7.880776e-01
  2.970736e+01    8.171350e-01
  2.972323e+01    8.075778e-01
  2.973911e+01    7.885154e-01
  2.975498e+01    7.953885e-01
  2.977086e+01    7.674540e-01
  2.978673e+01    7.993357e-01
  2.980261e+01    8.057545e-01
  2.981848e+01    8.055785e-01
  2.983436e+01    8.084069e-01
  2.985024e+01    7.972811e-01
  2.986611e+01    7.937949e-01
  2.988199e+01    7.970165e-01
  2.989786e+01    7.979713e-01
  2.991374e+01    8.201479e-01
  2.992961e+01    8.232504e-01
  2.994549e+01    8.089016e-01
  2.996136e+01    7.994854e-01
  2.997724e+01    8.192241e-01
  2.999312e+01    8.158862e-01
  3.000899e+01    8.174102e-01
  3.002487e+01    8.173615e-01
  3.004074e+01    8.025020e-01
  3.005662e+01    8.113297e-01
  3.007249e+01    8.279296e-01
  3.008837e+01    8.259173e-01
  3.010424e+01    8.080462e-01
  3.012012e+01    8.053938e-01
  3.013600e+01    7.938212e-01
  3.015187e+01    7.816318e-01
  3.016775e+01    8.165925e-01
  3.018362e+01    7.950193e-01
  3.019950e+01    7.655599e-01
  3.021537e+01    7.765385e-01
  3.023125e+01    7.768996e-01
  3.024712e+01    7.971867e-01
  3.026300e+01    8.006461e-01
  3.027888e+01    8.024481e-01
  3.029475e+01    7.950075e-01
  3.031063e+01    7.803665e-01
  3.032650e+01    7.965249e-01
  3.034238e+01    7.888633e-01
  3.035825e+01    7.989203e-01
  3.037413e+01    8.055118e-01
  3.039000e+01    7.719072e-01
  3.040588e+01    7.731664e-01
  3.042176e+01    7.939571e-01
  3.043763e+01    7.995691e-01
  3.045351e+01    7.787794e-01
  3.046938e+01    7.882279e-01
  3.048526e+01    7.923262e-01
  3.050113e+01    7.831026e-01
  3.051701e+01    7.998713e-01
  3.053288e+01    8.032076e-01
  3.054876e+01    7.897479e-01
  3.056464e+01    8.032280e-01
  3.058051e+01    8.094894e-01
  3.059639e+01    8.011981e-01
  3.061226e+01    7.974732e-01
  3.062814e+01    7.899876e-01
  3.064401e+01    7.949858e-01
  3.065989e+01    7.661166e-01
  3.067577e+01    7.719896e-01
  3.069164e+01    7.920060e-01
  3.070752e+01    7.871915e-01
  3.072339e+01    7.923297e-01
  3.073927e+01    7.820017e-01
  3.075514e+01    7.876109e-01
  3.077102e+01    7.769605e-01
  3.078689e+01    7.552381e-01
  3.080277e+01    7.698452e-01
  3.081865e+01    7.792913e-01
  3.083452e+01    7.732455e-01
  3.085040e+01    7.807446e-01
  3.086627e+01    7.976272e-01
  3.088215e+01    7.965794e-01
  3.089802e+01    7.720786e-01
  3.091390e+01    7.748526e-01
  3.092977e+01    7.735813e-01
  3.094565e+01    7.950987e-01
  3.096153e+01    7.904871e-01
  3.097740e+01    7.933133e-01
  3.099328e+01    7.947971e-01
  3.100915e+01    8.213290e-01
  3.102503e+01    8.044031e-01
  3.104090e+01    8.142880e-01
  3.105678e+01    8.055605e-01
  3.107265e+01    7.945327e-01
  3.108853e+01    7.825801e-01
  3.110441e+01    7.884357e-01
  3.112028e+01    8.121309e-01
  3.113616e+01    8.036772e-01
  3.115203e+01    7.927647e-01
  3.116791e+01    8.062756e-01
  3.118378e+01    8.103662e-01
  3.119966e+01    8.069676e-01
  3.121553e+01    7.918782e-01
  3.123141e+01    8.030391e-01
  3.124729e+01    8.065762e-01
  3.126316e+01    7.801470e-01
  3.127904e+01    7.801859e-01
  3.129491e+01    7.733513e-01
  3.131079e+01    7.830357e-01
  3.132666e+01    7.959672e-01
  3.134254e+01    8.047139e-01
  3.135841e+01    8.024783e-01
  3.137429e+01    8.170223e-01
  3.139017e+01    8.294106e-01
  3.140604e+01    8.448429e-01
  3.142192e+01    8.292733e-01
  3.143779e+01    8.347509e-01
  3.145367e+01    8.230888e-01
  3.146954e+01    8.134152e-01
  3.148542e+01    8.394654e-01
  3.150129e+01    8.456196e-01
  3.151717e+01    8.218344e-01
  3.153305e+01    8.420144e-01
  3.154892e+01    8.581687e-01
  3.156480e+01    8.682027e-01
  3.158067e+01    8.698339e-01
  3.159655e+01    8.654871e-01
  3.161242e+01    8.886191e-01
  3.162830e+01    9.095397e-01
  3.164418e+01    9.157415e-01
  3.166005e+01    9.394378e-01
  3.167593e+01    9.570116e-01
  3.169180e+01    9.828622e-01
  3.170768e+01    1.018675e+00
  3.172355e+01    1.073781e+00
  3.173943e+01    1.128272e+00
  3.175530e+01    1.184199e+00
  3.177118e+01    1.281623e+00
  3.178706e+01    1.363799e+00
  3.180293e+01    1.451727e+00
  3.181881e+01    1.585177e+00
  3.183468e+01    1.722608e+00
  3.185056e+01    1.863816e+00
  3.186643e+01    1.992116e+00
  3.188231e+01    2.059983e+00
  3.189818e+01    2.107766e+00
  3.191406e+01    2.107231e+00
  3.192994e+01    2.046791e+00
  3.194581e+01    1.968601e+00
  3.196169e+01    1.876287e+00
  3.197756e+01    1.689404e+00
  3.199344e+01    1.569466e+00
  3.200931e+01    1.447102e+00
  3.202519e+01    1.350587e+00
  3.204106e+01    1.271002e+00
  3.205694e+01    1.165931e+00
  3.207282e+01    1.095389e+00
  3.208869e+01    1.053568e+00
  3.210457e+01    1.010414e+00
  3.212044e+01    9.920012e-01
  3.213632e+01    9.496373e-01
  3.215219e+01    9.238081e-01
  3.216807e+01    9.032149e-01
  3.218394e+01    8.938443e-01
  3.219982e+01    8.711882e-01
  3.221570e+01    8.639120e-01
  3.223157e+01    8.300032e-01
  3.224745e+01    8.216827e-01
  3.226332e+01    8.409302e-01
  3.227920e+01    8.075760e-01
  3.229507e+01    8.188224e-01
  3.231095e+01    8.097182e-01
  3.232682e+01    8.152132e-01
  3.234270e+01    7.939310e-01
  3.235858e+01    8.088098e-01
  3.237445e+01    8.019658e-01
  3.239033e+01    8.071287e-01
  3.240620e+01    7.752441e-01
  3.242208e+01    7.849324e-01
  3.243795e+01    8.030328e-01
  3.245383e+01    8.048171e-01
  3.246970e+01    8.113016e-01
  3.248558e+01    7.798479e-01
  3.250146e+01    7.685820e-01
  3.251733e+01    7.838411e-01
  3.253321e+01    7.708186e-01
  3.254908e+01    7.541080e-01
