# == pyFAI calibration ==
# Distance Sample to Detector: 0.3999999939076516 m
# PONI: 9.750e-02, 1.135e-01 m
# Rotations: -0.000175 0.000000 -0.000000 rad
# 
# == Fit2d calibration ==
# Distance Sample-beamCenter: 400.000 mm
# Center: x=1514.000, y=1300.000 pix
# Tilt: 0.010 deg  TiltPlanRot: 0.010 deg
# 
# Detector Detector	 Spline= None	 PixelSize= 7.500e-05, 7.500e-05 m
#    Detector has a mask: False 
#    Detector has a dark current: False 
#    detector has a flat field: False 
# 
# Wavelength: 6.888e-11 m
# Mask applied: user provided
# Dark current applied: False
# Flat field applied: False
# Polarization factor: 0.99
# Normalization factor: 1.0
# --> /home/myspot/data/2024_07_Rosario/Ru-CGO-ex/2024-07-27_003_Ru-CGO-ex_Reaction_dwell_000023_data_000063.dat
#       q_nm^-1             I 
  2.003187e-02    1.424646e-01
  3.590745e-02    1.431819e-01
  5.178302e-02    1.263534e-01
  6.765859e-02    1.977150e-01
  8.353417e-02    3.009889e-01
  9.940974e-02    1.564223e-01
  1.152853e-01    1.454391e-01
  1.311609e-01    8.537076e-02
  1.470365e-01    5.643249e-02
  1.629120e-01    1.325954e-01
  1.787876e-01    1.048040e-01
  1.946632e-01    6.605342e-02
  2.105388e-01    4.489049e-02
  2.264143e-01    4.167344e-02
  2.422899e-01    3.255604e-02
  2.581655e-01    1.099802e-02
  2.740411e-01    3.587550e-02
  2.899166e-01    4.022795e-02
  3.057922e-01    6.347904e-02
  3.216678e-01    3.206594e-02
  3.375433e-01    1.864244e-02
  3.534189e-01    3.128752e-02
  3.692945e-01    2.289164e-02
  3.851701e-01    5.861015e-02
  4.010456e-01    3.350956e-02
  4.169212e-01    5.559614e-02
  4.327968e-01    4.352982e-02
  4.486724e-01    3.557681e-02
  4.645479e-01    4.289914e-02
  4.804235e-01    2.733611e-02
  4.962991e-01    4.040209e-02
  5.121747e-01    5.432399e-02
  5.280502e-01    5.856811e-02
  5.439258e-01    5.874153e-02
  5.598014e-01    5.164305e-02
  5.756770e-01    4.482795e-02
  5.915525e-01    3.224490e-02
  6.074281e-01    4.552411e-02
  6.233037e-01    4.096600e-02
  6.391793e-01    4.053864e-02
  6.550548e-01    5.086466e-02
  6.709304e-01    4.613551e-02
  6.868060e-01    6.104283e-02
  7.026815e-01    4.296610e-02
  7.185571e-01    4.197153e-02
  7.344327e-01    3.684404e-02
  7.503083e-01    5.244859e-02
  7.661838e-01    9.332377e-02
  7.820594e-01    1.563868e-01
  7.979350e-01    2.062866e-01
  8.138106e-01    2.236666e-01
  8.296861e-01    2.696854e-01
  8.455617e-01    3.692192e-01
  8.614373e-01    4.421145e-01
  8.773129e-01    4.421615e-01
  8.931884e-01    5.369512e-01
  9.090640e-01    6.588401e-01
  9.249396e-01    6.395082e-01
  9.408152e-01    7.711248e-01
  9.566907e-01    9.908047e-01
  9.725663e-01    1.115922e+00
  9.884419e-01    1.238213e+00
  1.004317e+00    1.259564e+00
  1.020193e+00    1.359110e+00
  1.036069e+00    1.426323e+00
  1.051944e+00    1.592794e+00
  1.067820e+00    1.528082e+00
  1.083695e+00    1.472775e+00
  1.099571e+00    1.541635e+00
  1.115446e+00    1.553834e+00
  1.131322e+00    1.587575e+00
  1.147198e+00    1.573100e+00
  1.163073e+00    1.542137e+00
  1.178949e+00    1.690661e+00
  1.194824e+00    1.777886e+00
  1.210700e+00    2.024935e+00
  1.226575e+00    2.281764e+00
  1.242451e+00    2.443845e+00
  1.258327e+00    2.413487e+00
  1.274202e+00    2.522881e+00
  1.290078e+00    2.592179e+00
  1.305953e+00    2.663726e+00
  1.321829e+00    2.641219e+00
  1.337705e+00    2.689045e+00
  1.353580e+00    2.726701e+00
  1.369456e+00    2.781814e+00
  1.385331e+00    2.835093e+00
  1.401207e+00    2.840462e+00
  1.417082e+00    2.876579e+00
  1.432958e+00    2.886561e+00
  1.448834e+00    2.837533e+00
  1.464709e+00    2.857142e+00
  1.480585e+00    2.922968e+00
  1.496460e+00    3.058147e+00
  1.512336e+00    3.111529e+00
  1.528211e+00    3.046396e+00
  1.544087e+00    3.146525e+00
  1.559963e+00    3.131426e+00
  1.575838e+00    3.087497e+00
  1.591714e+00    3.247396e+00
  1.607589e+00    3.126126e+00
  1.623465e+00    3.050361e+00
  1.639340e+00    3.057943e+00
  1.655216e+00    3.199914e+00
  1.671092e+00    3.149737e+00
  1.686967e+00    3.153193e+00
  1.702843e+00    3.117064e+00
  1.718718e+00    3.095647e+00
  1.734594e+00    3.061226e+00
  1.750469e+00    3.020133e+00
  1.766345e+00    3.072995e+00
  1.782221e+00    3.104053e+00
  1.798096e+00    3.084762e+00
  1.813972e+00    3.119690e+00
  1.829847e+00    3.084184e+00
  1.845723e+00    3.019694e+00
  1.861598e+00    3.154367e+00
  1.877474e+00    3.112647e+00
  1.893350e+00    3.011731e+00
  1.909225e+00    3.012115e+00
  1.925101e+00    3.107538e+00
  1.940976e+00    3.053899e+00
  1.956852e+00    3.094589e+00
  1.972727e+00    3.131711e+00
  1.988603e+00    3.113086e+00
  2.004479e+00    3.005151e+00
  2.020354e+00    3.051656e+00
  2.036230e+00    3.032888e+00
  2.052105e+00    3.024119e+00
  2.067981e+00    3.047854e+00
  2.083856e+00    3.044291e+00
  2.099732e+00    2.998458e+00
  2.115608e+00    3.156805e+00
  2.131483e+00    3.141594e+00
  2.147359e+00    3.125509e+00
  2.163234e+00    3.127266e+00
  2.179110e+00    3.136364e+00
  2.194985e+00    3.115599e+00
  2.210861e+00    3.063348e+00
  2.226737e+00    3.109652e+00
  2.242612e+00    3.182851e+00
  2.258488e+00    3.202808e+00
  2.274363e+00    3.218169e+00
  2.290239e+00    3.137174e+00
  2.306115e+00    3.114515e+00
  2.321990e+00    3.135340e+00
  2.337866e+00    3.248063e+00
  2.353741e+00    3.178327e+00
  2.369617e+00    3.099719e+00
  2.385492e+00    3.155999e+00
  2.401368e+00    3.096896e+00
  2.417244e+00    3.229415e+00
  2.433119e+00    3.122711e+00
  2.448995e+00    3.092696e+00
  2.464870e+00    3.018399e+00
  2.480746e+00    3.103231e+00
  2.496621e+00    3.134533e+00
  2.512497e+00    3.244515e+00
  2.528373e+00    3.233015e+00
  2.544248e+00    3.197295e+00
  2.560124e+00    3.279372e+00
  2.575999e+00    3.187687e+00
  2.591875e+00    3.241787e+00
  2.607750e+00    3.294842e+00
  2.623626e+00    3.247864e+00
  2.639502e+00    3.253830e+00
  2.655377e+00    3.286241e+00
  2.671253e+00    3.259663e+00
  2.687128e+00    3.277602e+00
  2.703004e+00    3.248702e+00
  2.718879e+00    3.283790e+00
  2.734755e+00    3.372379e+00
  2.750631e+00    3.292557e+00
  2.766506e+00    3.257515e+00
  2.782382e+00    3.276142e+00
  2.798257e+00    3.238196e+00
  2.814133e+00    3.211257e+00
  2.830008e+00    3.237761e+00
  2.845884e+00    3.219156e+00
  2.861760e+00    3.298587e+00
  2.877635e+00    3.270866e+00
  2.893511e+00    3.280490e+00
  2.909386e+00    3.290908e+00
  2.925262e+00    3.333654e+00
  2.941137e+00    3.341916e+00
  2.957013e+00    3.344882e+00
  2.972889e+00    3.282262e+00
  2.988764e+00    3.267677e+00
  3.004640e+00    3.226894e+00
  3.020515e+00    3.273979e+00
  3.036391e+00    3.312566e+00
  3.052266e+00    3.341207e+00
  3.068142e+00    3.414018e+00
  3.084018e+00    3.342869e+00
  3.099893e+00    3.303877e+00
  3.115769e+00    3.478659e+00
  3.131644e+00    3.428448e+00
  3.147520e+00    3.335130e+00
  3.163395e+00    3.384719e+00
  3.179271e+00    3.493229e+00
  3.195147e+00    3.467047e+00
  3.211022e+00    3.372346e+00
  3.226898e+00    3.443719e+00
  3.242773e+00    3.474503e+00
  3.258649e+00    3.494862e+00
  3.274525e+00    3.399624e+00
  3.290400e+00    3.458270e+00
  3.306276e+00    3.444856e+00
  3.322151e+00    3.382436e+00
  3.338027e+00    3.426054e+00
  3.353902e+00    3.469008e+00
  3.369778e+00    3.413556e+00
  3.385654e+00    3.399377e+00
  3.401529e+00    3.451679e+00
  3.417405e+00    3.524729e+00
  3.433280e+00    3.561522e+00
  3.449156e+00    3.503245e+00
  3.465031e+00    3.425209e+00
  3.480907e+00    3.435378e+00
  3.496783e+00    3.456741e+00
  3.512658e+00    3.428534e+00
  3.528534e+00    3.351714e+00
  3.544409e+00    3.446728e+00
  3.560285e+00    3.509578e+00
  3.576160e+00    3.489048e+00
  3.592036e+00    3.451852e+00
  3.607912e+00    3.485492e+00
  3.623787e+00    3.486919e+00
  3.639663e+00    3.575757e+00
  3.655538e+00    3.490867e+00
  3.671414e+00    3.495309e+00
  3.687289e+00    3.536129e+00
  3.703165e+00    3.513252e+00
  3.719041e+00    3.434484e+00
  3.734916e+00    3.473270e+00
  3.750792e+00    3.513714e+00
  3.766667e+00    3.540695e+00
  3.782543e+00    3.529977e+00
  3.798418e+00    3.488386e+00
  3.814294e+00    3.526200e+00
  3.830170e+00    3.548278e+00
  3.846045e+00    3.492108e+00
  3.861921e+00    3.437776e+00
  3.877796e+00    3.518719e+00
  3.893672e+00    3.543517e+00
  3.909547e+00    3.489590e+00
  3.925423e+00    3.439667e+00
  3.941299e+00    3.487419e+00
  3.957174e+00    3.523504e+00
  3.973050e+00    3.632793e+00
  3.988925e+00    3.543686e+00
  4.004801e+00    3.596189e+00
  4.020676e+00    3.553622e+00
  4.036552e+00    3.484879e+00
  4.052428e+00    3.564330e+00
  4.068303e+00    3.572537e+00
  4.084179e+00    3.524850e+00
  4.100054e+00    3.465816e+00
  4.115930e+00    3.428448e+00
  4.131806e+00    3.535086e+00
  4.147681e+00    3.620745e+00
  4.163557e+00    3.547610e+00
  4.179432e+00    3.507454e+00
  4.195308e+00    3.545375e+00
  4.211183e+00    3.497202e+00
  4.227059e+00    3.608242e+00
  4.242935e+00    3.621179e+00
  4.258810e+00    3.562330e+00
  4.274686e+00    3.609317e+00
  4.290561e+00    3.576578e+00
  4.306437e+00    3.607148e+00
  4.322312e+00    3.658670e+00
  4.338188e+00    3.613746e+00
  4.354064e+00    3.595421e+00
  4.369939e+00    3.578670e+00
  4.385815e+00    3.608702e+00
  4.401690e+00    3.686605e+00
  4.417566e+00    3.671115e+00
  4.433441e+00    3.609071e+00
  4.449317e+00    3.676432e+00
  4.465193e+00    3.580278e+00
  4.481068e+00    3.549740e+00
  4.496944e+00    3.640878e+00
  4.512819e+00    3.650484e+00
  4.528695e+00    3.718823e+00
  4.544570e+00    3.584001e+00
  4.560446e+00    3.604493e+00
  4.576322e+00    3.599957e+00
  4.592197e+00    3.529837e+00
  4.608073e+00    3.587825e+00
  4.623948e+00    3.673703e+00
  4.639824e+00    3.635068e+00
  4.655699e+00    3.634247e+00
  4.671575e+00    3.645705e+00
  4.687451e+00    3.625423e+00
  4.703326e+00    3.630781e+00
  4.719202e+00    3.646990e+00
  4.735077e+00    3.656628e+00
  4.750953e+00    3.614863e+00
  4.766828e+00    3.537583e+00
  4.782704e+00    3.568361e+00
  4.798580e+00    3.629665e+00
  4.814455e+00    3.580021e+00
  4.830331e+00    3.632485e+00
  4.846206e+00    3.626656e+00
  4.862082e+00    3.584969e+00
  4.877957e+00    3.560373e+00
  4.893833e+00    3.648040e+00
  4.909709e+00    3.677084e+00
  4.925584e+00    3.621940e+00
  4.941460e+00    3.672985e+00
  4.957335e+00    3.713178e+00
  4.973211e+00    3.660860e+00
  4.989086e+00    3.642324e+00
  5.004962e+00    3.627426e+00
  5.020838e+00    3.641577e+00
  5.036713e+00    3.652047e+00
  5.052589e+00    3.624262e+00
  5.068464e+00    3.631850e+00
  5.084340e+00    3.681110e+00
  5.100216e+00    3.713867e+00
  5.116091e+00    3.743063e+00
  5.131967e+00    3.722867e+00
  5.147842e+00    3.759970e+00
  5.163718e+00    3.726794e+00
  5.179593e+00    3.719465e+00
  5.195469e+00    3.626548e+00
  5.211345e+00    3.604631e+00
  5.227220e+00    3.605092e+00
  5.243096e+00    3.673756e+00
  5.258971e+00    3.679501e+00
  5.274847e+00    3.581585e+00
  5.290722e+00    3.642919e+00
  5.306598e+00    3.627573e+00
  5.322474e+00    3.624693e+00
  5.338349e+00    3.643654e+00
  5.354225e+00    3.646790e+00
  5.370100e+00    3.693798e+00
  5.385976e+00    3.655881e+00
  5.401851e+00    3.635004e+00
  5.417727e+00    3.692593e+00
  5.433603e+00    3.643266e+00
  5.449478e+00    3.624548e+00
  5.465354e+00    3.644266e+00
  5.481229e+00    3.590702e+00
  5.497105e+00    3.616452e+00
  5.512980e+00    3.637355e+00
  5.528856e+00    3.658530e+00
  5.544732e+00    3.584870e+00
  5.560607e+00    3.610863e+00
  5.576483e+00    3.602939e+00
  5.592358e+00    3.596382e+00
  5.608234e+00    3.573006e+00
  5.624109e+00    3.570016e+00
  5.639985e+00    3.542599e+00
  5.655861e+00    3.538631e+00
  5.671736e+00    3.619080e+00
  5.687612e+00    3.575459e+00
  5.703487e+00    3.572773e+00
  5.719363e+00    3.622456e+00
  5.735238e+00    3.580250e+00
  5.751114e+00    3.537921e+00
  5.766990e+00    3.609584e+00
  5.782865e+00    3.569236e+00
  5.798741e+00    3.615211e+00
  5.814616e+00    3.678908e+00
  5.830492e+00    3.538429e+00
  5.846367e+00    3.501621e+00
  5.862243e+00    3.575914e+00
  5.878119e+00    3.579845e+00
  5.893994e+00    3.531258e+00
  5.909870e+00    3.466894e+00
  5.925745e+00    3.506840e+00
  5.941621e+00    3.521916e+00
  5.957497e+00    3.547395e+00
  5.973372e+00    3.570897e+00
  5.989248e+00    3.589064e+00
  6.005123e+00    3.563684e+00
  6.020999e+00    3.580144e+00
  6.036874e+00    3.572184e+00
  6.052750e+00    3.566432e+00
  6.068626e+00    3.606921e+00
  6.084501e+00    3.579106e+00
  6.100377e+00    3.540776e+00
  6.116252e+00    3.645558e+00
  6.132128e+00    3.621085e+00
  6.148003e+00    3.577525e+00
  6.163879e+00    3.554892e+00
  6.179755e+00    3.600189e+00
  6.195630e+00    3.558596e+00
  6.211506e+00    3.605860e+00
  6.227381e+00    3.588875e+00
  6.243257e+00    3.561279e+00
  6.259132e+00    3.594352e+00
  6.275008e+00    3.599248e+00
  6.290884e+00    3.610113e+00
  6.306759e+00    3.592035e+00
  6.322635e+00    3.551491e+00
  6.338510e+00    3.514734e+00
  6.354386e+00    3.545928e+00
  6.370261e+00    3.496824e+00
  6.386137e+00    3.576873e+00
  6.402013e+00    3.604776e+00
  6.417888e+00    3.556047e+00
  6.433764e+00    3.614656e+00
  6.449639e+00    3.612705e+00
  6.465515e+00    3.640815e+00
  6.481390e+00    3.578809e+00
  6.497266e+00    3.575404e+00
  6.513142e+00    3.600633e+00
  6.529017e+00    3.622293e+00
  6.544893e+00    3.596461e+00
  6.560768e+00    3.552330e+00
  6.576644e+00    3.544314e+00
  6.592519e+00    3.558586e+00
  6.608395e+00    3.539330e+00
  6.624271e+00    3.597152e+00
  6.640146e+00    3.672101e+00
  6.656022e+00    3.628020e+00
  6.671897e+00    3.545201e+00
  6.687773e+00    3.594797e+00
  6.703648e+00    3.592540e+00
  6.719524e+00    3.477815e+00
  6.735400e+00    3.602786e+00
  6.751275e+00    3.512515e+00
  6.767151e+00    3.503924e+00
  6.783026e+00    3.553055e+00
  6.798902e+00    3.615498e+00
  6.814777e+00    3.536059e+00
  6.830653e+00    3.544505e+00
  6.846529e+00    3.528863e+00
  6.862404e+00    3.537023e+00
  6.878280e+00    3.541179e+00
  6.894155e+00    3.473643e+00
  6.910031e+00    3.499753e+00
  6.925907e+00    3.553347e+00
  6.941782e+00    3.554915e+00
  6.957658e+00    3.574032e+00
  6.973533e+00    3.604073e+00
  6.989409e+00    3.647970e+00
  7.005284e+00    3.607452e+00
  7.021160e+00    3.569032e+00
  7.037036e+00    3.560014e+00
  7.052911e+00    3.582831e+00
  7.068787e+00    3.503271e+00
  7.084662e+00    3.454980e+00
  7.100538e+00    3.507687e+00
  7.116413e+00    3.524377e+00
  7.132289e+00    3.515505e+00
  7.148165e+00    3.531625e+00
  7.164040e+00    3.547433e+00
  7.179916e+00    3.524388e+00
  7.195791e+00    3.484277e+00
  7.211667e+00    3.577348e+00
  7.227542e+00    3.499690e+00
  7.243418e+00    3.506351e+00
  7.259294e+00    3.480840e+00
  7.275169e+00    3.483636e+00
  7.291045e+00    3.484593e+00
  7.306920e+00    3.483650e+00
  7.322796e+00    3.584119e+00
  7.338671e+00    3.538951e+00
  7.354547e+00    3.483642e+00
  7.370423e+00    3.488723e+00
  7.386298e+00    3.465094e+00
  7.402174e+00    3.491845e+00
  7.418049e+00    3.472759e+00
  7.433925e+00    3.493276e+00
  7.449800e+00    3.510437e+00
  7.465676e+00    3.551204e+00
  7.481552e+00    3.470506e+00
  7.497427e+00    3.468205e+00
  7.513303e+00    3.476848e+00
  7.529178e+00    3.499918e+00
  7.545054e+00    3.460052e+00
  7.560929e+00    3.411980e+00
  7.576805e+00    3.485744e+00
  7.592681e+00    3.483044e+00
  7.608556e+00    3.456598e+00
  7.624432e+00    3.487790e+00
  7.640307e+00    3.456031e+00
  7.656183e+00    3.453902e+00
  7.672058e+00    3.457175e+00
  7.687934e+00    3.431260e+00
  7.703810e+00    3.411729e+00
  7.719685e+00    3.422658e+00
  7.735561e+00    3.478995e+00
  7.751436e+00    3.459859e+00
  7.767312e+00    3.402833e+00
  7.783187e+00    3.394173e+00
  7.799063e+00    3.383549e+00
  7.814939e+00    3.467982e+00
  7.830814e+00    3.457019e+00
  7.846690e+00    3.371762e+00
  7.862565e+00    3.475567e+00
  7.878441e+00    3.418689e+00
  7.894317e+00    3.371613e+00
  7.910192e+00    3.448265e+00
  7.926068e+00    3.468968e+00
  7.941943e+00    3.427282e+00
  7.957819e+00    3.462074e+00
  7.973694e+00    3.442536e+00
  7.989570e+00    3.432165e+00
  8.005446e+00    3.446680e+00
  8.021321e+00    3.430971e+00
  8.037197e+00    3.414670e+00
  8.053072e+00    3.373205e+00
  8.068948e+00    3.436431e+00
  8.084823e+00    3.452375e+00
  8.100699e+00    3.458991e+00
  8.116575e+00    3.419566e+00
  8.132450e+00    3.456368e+00
  8.148326e+00    3.522279e+00
  8.164201e+00    3.493750e+00
  8.180077e+00    3.473587e+00
  8.195952e+00    3.471550e+00
  8.211828e+00    3.472838e+00
  8.227704e+00    3.542268e+00
  8.243579e+00    3.377970e+00
  8.259455e+00    3.377554e+00
  8.275330e+00    3.404782e+00
  8.291206e+00    3.374064e+00
  8.307081e+00    3.450287e+00
  8.322957e+00    3.426044e+00
  8.338833e+00    3.450879e+00
  8.354708e+00    3.412119e+00
  8.370584e+00    3.409785e+00
  8.386459e+00    3.369540e+00
  8.402335e+00    3.384768e+00
  8.418210e+00    3.456507e+00
  8.434086e+00    3.465084e+00
  8.449962e+00    3.407709e+00
  8.465837e+00    3.459665e+00
  8.481713e+00    3.385537e+00
  8.497588e+00    3.370439e+00
  8.513464e+00    3.352239e+00
  8.529339e+00    3.339516e+00
  8.545215e+00    3.403726e+00
  8.561091e+00    3.410778e+00
  8.576966e+00    3.371283e+00
  8.592842e+00    3.391956e+00
  8.608717e+00    3.402160e+00
  8.624593e+00    3.397686e+00
  8.640468e+00    3.380406e+00
  8.656344e+00    3.329355e+00
  8.672220e+00    3.383160e+00
  8.688095e+00    3.421758e+00
  8.703971e+00    3.412147e+00
  8.719846e+00    3.362615e+00
  8.735722e+00    3.321176e+00
  8.751598e+00    3.383666e+00
  8.767473e+00    3.331016e+00
  8.783349e+00    3.302212e+00
  8.799224e+00    3.381850e+00
  8.815100e+00    3.286927e+00
  8.830975e+00    3.279991e+00
  8.846851e+00    3.249827e+00
  8.862727e+00    3.247567e+00
  8.878602e+00    3.363481e+00
  8.894478e+00    3.368279e+00
  8.910353e+00    3.274050e+00
  8.926229e+00    3.256927e+00
  8.942104e+00    3.289484e+00
  8.957980e+00    3.254796e+00
  8.973856e+00    3.268813e+00
  8.989731e+00    3.273593e+00
  9.005607e+00    3.260167e+00
  9.021482e+00    3.271164e+00
  9.037358e+00    3.253525e+00
  9.053233e+00    3.277812e+00
  9.069109e+00    3.311374e+00
  9.084985e+00    3.256582e+00
  9.100860e+00    3.287539e+00
  9.116736e+00    3.316929e+00
  9.132611e+00    3.315582e+00
  9.148487e+00    3.312956e+00
  9.164362e+00    3.284804e+00
  9.180238e+00    3.243421e+00
  9.196114e+00    3.247858e+00
  9.211989e+00    3.276340e+00
  9.227865e+00    3.274616e+00
  9.243740e+00    3.207238e+00
  9.259616e+00    3.268565e+00
  9.275491e+00    3.238196e+00
  9.291367e+00    3.273516e+00
  9.307243e+00    3.276361e+00
  9.323118e+00    3.199893e+00
  9.338994e+00    3.173069e+00
  9.354869e+00    3.217914e+00
  9.370745e+00    3.214786e+00
  9.386620e+00    3.223568e+00
  9.402496e+00    3.257639e+00
  9.418372e+00    3.222334e+00
  9.434247e+00    3.247536e+00
  9.450123e+00    3.238042e+00
  9.465998e+00    3.210418e+00
  9.481874e+00    3.188587e+00
  9.497749e+00    3.200212e+00
  9.513625e+00    3.239116e+00
  9.529501e+00    3.206530e+00
  9.545376e+00    3.143174e+00
  9.561252e+00    3.152876e+00
  9.577127e+00    3.172757e+00
  9.593003e+00    3.217262e+00
  9.608878e+00    3.264961e+00
  9.624754e+00    3.203325e+00
  9.640630e+00    3.192575e+00
  9.656505e+00    3.195634e+00
  9.672381e+00    3.239393e+00
  9.688256e+00    3.246680e+00
  9.704132e+00    3.198567e+00
  9.720008e+00    3.152468e+00
  9.735883e+00    3.187410e+00
  9.751759e+00    3.193869e+00
  9.767634e+00    3.168110e+00
  9.783510e+00    3.131591e+00
  9.799385e+00    3.165921e+00
  9.815261e+00    3.165021e+00
  9.831137e+00    3.127242e+00
  9.847012e+00    3.180613e+00
  9.862888e+00    3.141127e+00
  9.878763e+00    3.155484e+00
  9.894639e+00    3.137085e+00
  9.910514e+00    3.120365e+00
  9.926390e+00    3.130515e+00
  9.942266e+00    3.184186e+00
  9.958141e+00    3.054854e+00
  9.974017e+00    3.109150e+00
  9.989892e+00    3.163390e+00
  1.000577e+01    3.113588e+00
  1.002164e+01    3.117795e+00
  1.003752e+01    3.038856e+00
  1.005339e+01    3.015648e+00
  1.006927e+01    3.060246e+00
  1.008515e+01    3.105819e+00
  1.010102e+01    3.098633e+00
  1.011690e+01    3.098503e+00
  1.013277e+01    3.104472e+00
  1.014865e+01    3.090620e+00
  1.016452e+01    3.105725e+00
  1.018040e+01    3.105165e+00
  1.019627e+01    3.141859e+00
  1.021215e+01    3.097752e+00
  1.022803e+01    3.091685e+00
  1.024390e+01    3.116470e+00
  1.025978e+01    3.143816e+00
  1.027565e+01    3.110506e+00
  1.029153e+01    3.089014e+00
  1.030740e+01    3.043477e+00
  1.032328e+01    3.075647e+00
  1.033915e+01    3.115429e+00
  1.035503e+01    3.088341e+00
  1.037091e+01    3.021457e+00
  1.038678e+01    3.039223e+00
  1.040266e+01    3.069991e+00
  1.041853e+01    3.014020e+00
  1.043441e+01    3.069728e+00
  1.045028e+01    3.070431e+00
  1.046616e+01    3.030632e+00
  1.048204e+01    3.048522e+00
  1.049791e+01    3.064650e+00
  1.051379e+01    3.026588e+00
  1.052966e+01    3.012924e+00
  1.054554e+01    2.973779e+00
  1.056141e+01    3.003326e+00
  1.057729e+01    3.056221e+00
  1.059316e+01    2.974256e+00
  1.060904e+01    2.944236e+00
  1.062492e+01    3.007847e+00
  1.064079e+01    2.985173e+00
  1.065667e+01    2.951565e+00
  1.067254e+01    2.976584e+00
  1.068842e+01    2.997364e+00
  1.070429e+01    3.051887e+00
  1.072017e+01    3.006103e+00
  1.073604e+01    2.962145e+00
  1.075192e+01    2.960273e+00
  1.076780e+01    2.972856e+00
  1.078367e+01    2.999933e+00
  1.079955e+01    2.984158e+00
  1.081542e+01    2.951179e+00
  1.083130e+01    2.962438e+00
  1.084717e+01    2.969846e+00
  1.086305e+01    2.960684e+00
  1.087892e+01    2.942629e+00
  1.089480e+01    2.960610e+00
  1.091068e+01    2.914358e+00
  1.092655e+01    2.911819e+00
  1.094243e+01    2.949644e+00
  1.095830e+01    2.976442e+00
  1.097418e+01    2.985723e+00
  1.099005e+01    2.902822e+00
  1.100593e+01    2.888732e+00
  1.102180e+01    2.901005e+00
  1.103768e+01    2.895586e+00
  1.105356e+01    2.879155e+00
  1.106943e+01    2.949849e+00
  1.108531e+01    2.917502e+00
  1.110118e+01    2.896497e+00
  1.111706e+01    2.916744e+00
  1.113293e+01    2.870932e+00
  1.114881e+01    2.897399e+00
  1.116468e+01    2.904670e+00
  1.118056e+01    2.849568e+00
  1.119644e+01    2.885431e+00
  1.121231e+01    2.867022e+00
  1.122819e+01    2.833067e+00
  1.124406e+01    2.837502e+00
  1.125994e+01    2.868385e+00
  1.127581e+01    2.807892e+00
  1.129169e+01    2.850837e+00
  1.130756e+01    2.821290e+00
  1.132344e+01    2.792162e+00
  1.133932e+01    2.818967e+00
  1.135519e+01    2.859171e+00
  1.137107e+01    2.838778e+00
  1.138694e+01    2.841213e+00
  1.140282e+01    2.822901e+00
  1.141869e+01    2.825767e+00
  1.143457e+01    2.789833e+00
  1.145045e+01    2.851158e+00
  1.146632e+01    2.801671e+00
  1.148220e+01    2.841005e+00
  1.149807e+01    2.793077e+00
  1.151395e+01    2.775243e+00
  1.152982e+01    2.849523e+00
  1.154570e+01    2.818347e+00
  1.156157e+01    2.783120e+00
  1.157745e+01    2.776080e+00
  1.159333e+01    2.800385e+00
  1.160920e+01    2.722269e+00
  1.162508e+01    2.804891e+00
  1.164095e+01    2.823861e+00
  1.165683e+01    2.748035e+00
  1.167270e+01    2.761642e+00
  1.168858e+01    2.719425e+00
  1.170445e+01    2.713192e+00
  1.172033e+01    2.719535e+00
  1.173621e+01    2.703618e+00
  1.175208e+01    2.777016e+00
  1.176796e+01    2.765179e+00
  1.178383e+01    2.735376e+00
  1.179971e+01    2.723511e+00
  1.181558e+01    2.733990e+00
  1.183146e+01    2.765543e+00
  1.184733e+01    2.743455e+00
  1.186321e+01    2.705961e+00
  1.187909e+01    2.735133e+00
  1.189496e+01    2.748055e+00
  1.191084e+01    2.700371e+00
  1.192671e+01    2.720457e+00
  1.194259e+01    2.722770e+00
  1.195846e+01    2.735003e+00
  1.197434e+01    2.722223e+00
  1.199021e+01    2.748787e+00
  1.200609e+01    2.779437e+00
  1.202197e+01    2.738852e+00
  1.203784e+01    2.740909e+00
  1.205372e+01    2.711501e+00
  1.206959e+01    2.716438e+00
  1.208547e+01    2.695421e+00
  1.210134e+01    2.724988e+00
  1.211722e+01    2.744823e+00
  1.213309e+01    2.693830e+00
  1.214897e+01    2.670527e+00
  1.216485e+01    2.702927e+00
  1.218072e+01    2.705521e+00
  1.219660e+01    2.668619e+00
  1.221247e+01    2.655143e+00
  1.222835e+01    2.719391e+00
  1.224422e+01    2.738959e+00
  1.226010e+01    2.670152e+00
  1.227597e+01    2.673969e+00
  1.229185e+01    2.665979e+00
  1.230773e+01    2.701458e+00
  1.232360e+01    2.689591e+00
  1.233948e+01    2.736862e+00
  1.235535e+01    2.731286e+00
  1.237123e+01    2.710314e+00
  1.238710e+01    2.701293e+00
  1.240298e+01    2.751440e+00
  1.241886e+01    2.697246e+00
  1.243473e+01    2.645765e+00
  1.245061e+01    2.680847e+00
  1.246648e+01    2.768934e+00
  1.248236e+01    2.732207e+00
  1.249823e+01    2.722431e+00
  1.251411e+01    2.751005e+00
  1.252998e+01    2.682038e+00
  1.254586e+01    2.712942e+00
  1.256174e+01    2.776629e+00
  1.257761e+01    2.714610e+00
  1.259349e+01    2.740119e+00
  1.260936e+01    2.705613e+00
  1.262524e+01    2.750313e+00
  1.264111e+01    2.779462e+00
  1.265699e+01    2.774683e+00
  1.267286e+01    2.811228e+00
  1.268874e+01    2.789291e+00
  1.270462e+01    2.836689e+00
  1.272049e+01    2.843438e+00
  1.273637e+01    2.855282e+00
  1.275224e+01    2.935550e+00
  1.276812e+01    2.991267e+00
  1.278399e+01    2.982459e+00
  1.279987e+01    2.968573e+00
  1.281574e+01    3.027809e+00
  1.283162e+01    3.098039e+00
  1.284750e+01    3.170410e+00
  1.286337e+01    3.316736e+00
  1.287925e+01    3.414321e+00
  1.289512e+01    3.507441e+00
  1.291100e+01    3.622687e+00
  1.292687e+01    3.862603e+00
  1.294275e+01    4.174458e+00
  1.295862e+01    4.452181e+00
  1.297450e+01    4.825450e+00
  1.299038e+01    5.344604e+00
  1.300625e+01    5.951755e+00
  1.302213e+01    6.758635e+00
  1.303800e+01    7.753069e+00
  1.305388e+01    8.893869e+00
  1.306975e+01    1.029505e+01
  1.308563e+01    1.158438e+01
  1.310150e+01    1.274247e+01
  1.311738e+01    1.398271e+01
  1.313326e+01    1.497002e+01
  1.314913e+01    1.584317e+01
  1.316501e+01    1.646045e+01
  1.318088e+01    1.653192e+01
  1.319676e+01    1.568849e+01
  1.321263e+01    1.438633e+01
  1.322851e+01    1.267705e+01
  1.324438e+01    1.079288e+01
  1.326026e+01    9.124855e+00
  1.327614e+01    7.802278e+00
  1.329201e+01    6.897913e+00
  1.330789e+01    5.987892e+00
  1.332376e+01    5.406613e+00
  1.333964e+01    4.882213e+00
  1.335551e+01    4.449718e+00
  1.337139e+01    4.147054e+00
  1.338727e+01    3.916590e+00
  1.340314e+01    3.649724e+00
  1.341902e+01    3.472922e+00
  1.343489e+01    3.389614e+00
  1.345077e+01    3.293372e+00
  1.346664e+01    3.174278e+00
  1.348252e+01    3.029920e+00
  1.349839e+01    2.945934e+00
  1.351427e+01    2.896399e+00
  1.353015e+01    2.872431e+00
  1.354602e+01    2.830747e+00
  1.356190e+01    2.761441e+00
  1.357777e+01    2.757385e+00
  1.359365e+01    2.699340e+00
  1.360952e+01    2.653593e+00
  1.362540e+01    2.653569e+00
  1.364127e+01    2.675348e+00
  1.365715e+01    2.623120e+00
  1.367303e+01    2.591479e+00
  1.368890e+01    2.583456e+00
  1.370478e+01    2.603269e+00
  1.372065e+01    2.575351e+00
  1.373653e+01    2.489329e+00
  1.375240e+01    2.513436e+00
  1.376828e+01    2.495199e+00
  1.378415e+01    2.525932e+00
  1.380003e+01    2.477179e+00
  1.381591e+01    2.473760e+00
  1.383178e+01    2.458254e+00
  1.384766e+01    2.440713e+00
  1.386353e+01    2.466185e+00
  1.387941e+01    2.431798e+00
  1.389528e+01    2.407692e+00
  1.391116e+01    2.334188e+00
  1.392703e+01    2.370117e+00
  1.394291e+01    2.375998e+00
  1.395879e+01    2.353482e+00
  1.397466e+01    2.352594e+00
  1.399054e+01    2.389200e+00
  1.400641e+01    2.391273e+00
  1.402229e+01    2.363435e+00
  1.403816e+01    2.319790e+00
  1.405404e+01    2.315493e+00
  1.406991e+01    2.349557e+00
  1.408579e+01    2.319903e+00
  1.410167e+01    2.335967e+00
  1.411754e+01    2.371686e+00
  1.413342e+01    2.326766e+00
  1.414929e+01    2.332343e+00
  1.416517e+01    2.323675e+00
  1.418104e+01    2.313669e+00
  1.419692e+01    2.309969e+00
  1.421279e+01    2.293366e+00
  1.422867e+01    2.290135e+00
  1.424455e+01    2.303735e+00
  1.426042e+01    2.336733e+00
  1.427630e+01    2.296883e+00
  1.429217e+01    2.297342e+00
  1.430805e+01    2.238559e+00
  1.432392e+01    2.219968e+00
  1.433980e+01    2.257248e+00
  1.435568e+01    2.276144e+00
  1.437155e+01    2.268928e+00
  1.438743e+01    2.245557e+00
  1.440330e+01    2.256471e+00
  1.441918e+01    2.255571e+00
  1.443505e+01    2.188475e+00
  1.445093e+01    2.242222e+00
  1.446680e+01    2.250098e+00
  1.448268e+01    2.242825e+00
  1.449856e+01    2.232532e+00
  1.451443e+01    2.228557e+00
  1.453031e+01    2.223541e+00
  1.454618e+01    2.216283e+00
  1.456206e+01    2.221126e+00
  1.457793e+01    2.257638e+00
  1.459381e+01    2.233358e+00
  1.460968e+01    2.202901e+00
  1.462556e+01    2.252275e+00
  1.464144e+01    2.238277e+00
  1.465731e+01    2.280883e+00
  1.467319e+01    2.187957e+00
  1.468906e+01    2.214828e+00
  1.470494e+01    2.203719e+00
  1.472081e+01    2.181125e+00
  1.473669e+01    2.165513e+00
  1.475256e+01    2.200118e+00
  1.476844e+01    2.193483e+00
  1.478432e+01    2.198226e+00
  1.480019e+01    2.204957e+00
  1.481607e+01    2.193960e+00
  1.483194e+01    2.198682e+00
  1.484782e+01    2.168634e+00
  1.486369e+01    2.203097e+00
  1.487957e+01    2.210906e+00
  1.489544e+01    2.236730e+00
  1.491132e+01    2.246875e+00
  1.492720e+01    2.264850e+00
  1.494307e+01    2.321238e+00
  1.495895e+01    2.338345e+00
  1.497482e+01    2.355217e+00
  1.499070e+01    2.408739e+00
  1.500657e+01    2.427850e+00
  1.502245e+01    2.534454e+00
  1.503832e+01    2.644225e+00
  1.505420e+01    2.729614e+00
  1.507008e+01    2.803597e+00
  1.508595e+01    3.012647e+00
  1.510183e+01    3.243066e+00
  1.511770e+01    3.488541e+00
  1.513358e+01    3.810732e+00
  1.514945e+01    4.136200e+00
  1.516533e+01    4.510282e+00
  1.518120e+01    4.889749e+00
  1.519708e+01    5.242022e+00
  1.521296e+01    5.449823e+00
  1.522883e+01    5.603074e+00
  1.524471e+01    5.802895e+00
  1.526058e+01    5.852236e+00
  1.527646e+01    5.784473e+00
  1.529233e+01    5.431360e+00
  1.530821e+01    5.095775e+00
  1.532409e+01    4.673819e+00
  1.533996e+01    4.219021e+00
  1.535584e+01    3.808552e+00
  1.537171e+01    3.418318e+00
  1.538759e+01    3.152280e+00
  1.540346e+01    2.939050e+00
  1.541934e+01    2.762632e+00
  1.543521e+01    2.607309e+00
  1.545109e+01    2.501236e+00
  1.546697e+01    2.418644e+00
  1.548284e+01    2.327791e+00
  1.549872e+01    2.270745e+00
  1.551459e+01    2.266476e+00
  1.553047e+01    2.259309e+00
  1.554634e+01    2.208272e+00
  1.556222e+01    2.169591e+00
  1.557809e+01    2.143340e+00
  1.559397e+01    2.108932e+00
  1.560985e+01    2.059945e+00
  1.562572e+01    2.041574e+00
  1.564160e+01    2.054812e+00
  1.565747e+01    2.042821e+00
  1.567335e+01    2.012788e+00
  1.568922e+01    1.986218e+00
  1.570510e+01    1.997270e+00
  1.572097e+01    2.004025e+00
  1.573685e+01    1.967615e+00
  1.575273e+01    1.968902e+00
  1.576860e+01    1.964401e+00
  1.578448e+01    1.968849e+00
  1.580035e+01    1.930238e+00
  1.581623e+01    1.917899e+00
  1.583210e+01    1.919580e+00
  1.584798e+01    1.882319e+00
  1.586385e+01    1.919344e+00
  1.587973e+01    1.922730e+00
  1.589561e+01    1.911213e+00
  1.591148e+01    1.902645e+00
  1.592736e+01    1.918362e+00
  1.594323e+01    1.922351e+00
  1.595911e+01    1.907252e+00
  1.597498e+01    1.916390e+00
  1.599086e+01    1.910824e+00
  1.600673e+01    1.896687e+00
  1.602261e+01    1.881719e+00
  1.603849e+01    1.872452e+00
  1.605436e+01    1.874252e+00
  1.607024e+01    1.889352e+00
  1.608611e+01    1.814512e+00
  1.610199e+01    1.843505e+00
  1.611786e+01    1.855386e+00
  1.613374e+01    1.857347e+00
  1.614961e+01    1.849753e+00
  1.616549e+01    1.800264e+00
  1.618137e+01    1.825681e+00
  1.619724e+01    1.818553e+00
  1.621312e+01    1.825839e+00
  1.622899e+01    1.798693e+00
  1.624487e+01    1.800276e+00
  1.626074e+01    1.826626e+00
  1.627662e+01    1.801967e+00
  1.629250e+01    1.797216e+00
  1.630837e+01    1.825520e+00
  1.632425e+01    1.871360e+00
  1.634012e+01    1.862845e+00
  1.635600e+01    1.818650e+00
  1.637187e+01    1.787927e+00
  1.638775e+01    1.751381e+00
  1.640362e+01    1.744617e+00
  1.641950e+01    1.773240e+00
  1.643538e+01    1.759050e+00
  1.645125e+01    1.764422e+00
  1.646713e+01    1.781116e+00
  1.648300e+01    1.794699e+00
  1.649888e+01    1.760597e+00
  1.651475e+01    1.771861e+00
  1.653063e+01    1.769597e+00
  1.654650e+01    1.759822e+00
  1.656238e+01    1.768022e+00
  1.657826e+01    1.747717e+00
  1.659413e+01    1.751236e+00
  1.661001e+01    1.772224e+00
  1.662588e+01    1.758963e+00
  1.664176e+01    1.749945e+00
  1.665763e+01    1.747463e+00
  1.667351e+01    1.699480e+00
  1.668938e+01    1.687900e+00
  1.670526e+01    1.674192e+00
  1.672114e+01    1.684559e+00
  1.673701e+01    1.698379e+00
  1.675289e+01    1.694940e+00
  1.676876e+01    1.705436e+00
  1.678464e+01    1.670004e+00
  1.680051e+01    1.712742e+00
  1.681639e+01    1.719773e+00
  1.683226e+01    1.702085e+00
  1.684814e+01    1.731886e+00
  1.686402e+01    1.731315e+00
  1.687989e+01    1.704418e+00
  1.689577e+01    1.709419e+00
  1.691164e+01    1.710346e+00
  1.692752e+01    1.695699e+00
  1.694339e+01    1.662484e+00
  1.695927e+01    1.687999e+00
  1.697514e+01    1.679072e+00
  1.699102e+01    1.672239e+00
  1.700690e+01    1.648258e+00
  1.702277e+01    1.671129e+00
  1.703865e+01    1.675070e+00
  1.705452e+01    1.639334e+00
  1.707040e+01    1.676799e+00
  1.708627e+01    1.634671e+00
  1.710215e+01    1.652427e+00
  1.711802e+01    1.660112e+00
  1.713390e+01    1.665272e+00
  1.714978e+01    1.626812e+00
  1.716565e+01    1.642887e+00
  1.718153e+01    1.652205e+00
  1.719740e+01    1.635813e+00
  1.721328e+01    1.655365e+00
  1.722915e+01    1.643331e+00
  1.724503e+01    1.626085e+00
  1.726091e+01    1.636841e+00
  1.727678e+01    1.630552e+00
  1.729266e+01    1.620283e+00
  1.730853e+01    1.621610e+00
  1.732441e+01    1.623614e+00
  1.734028e+01    1.610313e+00
  1.735616e+01    1.586108e+00
  1.737203e+01    1.622563e+00
  1.738791e+01    1.619814e+00
  1.740379e+01    1.606211e+00
  1.741966e+01    1.574486e+00
  1.743554e+01    1.541629e+00
  1.745141e+01    1.552362e+00
  1.746729e+01    1.583386e+00
  1.748316e+01    1.608852e+00
  1.749904e+01    1.573816e+00
  1.751491e+01    1.586624e+00
  1.753079e+01    1.589783e+00
  1.754667e+01    1.558850e+00
  1.756254e+01    1.601526e+00
  1.757842e+01    1.582258e+00
  1.759429e+01    1.575184e+00
  1.761017e+01    1.552776e+00
  1.762604e+01    1.574522e+00
  1.764192e+01    1.574167e+00
  1.765779e+01    1.566041e+00
  1.767367e+01    1.572643e+00
  1.768955e+01    1.539876e+00
  1.770542e+01    1.537053e+00
  1.772130e+01    1.566635e+00
  1.773717e+01    1.572124e+00
  1.775305e+01    1.559633e+00
  1.776892e+01    1.544482e+00
  1.778480e+01    1.547198e+00
  1.780067e+01    1.538945e+00
  1.781655e+01    1.545692e+00
  1.783243e+01    1.524538e+00
  1.784830e+01    1.551487e+00
  1.786418e+01    1.514689e+00
  1.788005e+01    1.502004e+00
  1.789593e+01    1.526590e+00
  1.791180e+01    1.534582e+00
  1.792768e+01    1.503984e+00
  1.794355e+01    1.536337e+00
  1.795943e+01    1.517690e+00
  1.797531e+01    1.513043e+00
  1.799118e+01    1.498142e+00
  1.800706e+01    1.503863e+00
  1.802293e+01    1.511482e+00
  1.803881e+01    1.493182e+00
  1.805468e+01    1.518150e+00
  1.807056e+01    1.546374e+00
  1.808643e+01    1.512440e+00
  1.810231e+01    1.509687e+00
  1.811819e+01    1.494078e+00
  1.813406e+01    1.489254e+00
  1.814994e+01    1.482302e+00
  1.816581e+01    1.499090e+00
  1.818169e+01    1.459261e+00
  1.819756e+01    1.458022e+00
  1.821344e+01    1.470219e+00
  1.822932e+01    1.454512e+00
  1.824519e+01    1.468504e+00
  1.826107e+01    1.467521e+00
  1.827694e+01    1.480365e+00
  1.829282e+01    1.474751e+00
  1.830869e+01    1.442556e+00
  1.832457e+01    1.449087e+00
  1.834044e+01    1.475799e+00
  1.835632e+01    1.477709e+00
  1.837220e+01    1.487447e+00
  1.838807e+01    1.453433e+00
  1.840395e+01    1.453634e+00
  1.841982e+01    1.461744e+00
  1.843570e+01    1.463934e+00
  1.845157e+01    1.451137e+00
  1.846745e+01    1.467480e+00
  1.848332e+01    1.441598e+00
  1.849920e+01    1.453043e+00
  1.851508e+01    1.459118e+00
  1.853095e+01    1.467077e+00
  1.854683e+01    1.466314e+00
  1.856270e+01    1.452198e+00
  1.857858e+01    1.449881e+00
  1.859445e+01    1.450115e+00
  1.861033e+01    1.431548e+00
  1.862620e+01    1.409828e+00
  1.864208e+01    1.396031e+00
  1.865796e+01    1.399071e+00
  1.867383e+01    1.425872e+00
  1.868971e+01    1.425521e+00
  1.870558e+01    1.401474e+00
  1.872146e+01    1.393509e+00
  1.873733e+01    1.413757e+00
  1.875321e+01    1.425184e+00
  1.876908e+01    1.448982e+00
  1.878496e+01    1.441512e+00
  1.880084e+01    1.404992e+00
  1.881671e+01    1.400343e+00
  1.883259e+01    1.416249e+00
  1.884846e+01    1.401958e+00
  1.886434e+01    1.411975e+00
  1.888021e+01    1.411981e+00
  1.889609e+01    1.390603e+00
  1.891196e+01    1.370913e+00
  1.892784e+01    1.368879e+00
  1.894372e+01    1.402817e+00
  1.895959e+01    1.377091e+00
  1.897547e+01    1.357654e+00
  1.899134e+01    1.391163e+00
  1.900722e+01    1.391262e+00
  1.902309e+01    1.357361e+00
  1.903897e+01    1.383903e+00
  1.905484e+01    1.412209e+00
  1.907072e+01    1.379097e+00
  1.908660e+01    1.387474e+00
  1.910247e+01    1.372700e+00
  1.911835e+01    1.366963e+00
  1.913422e+01    1.358759e+00
  1.915010e+01    1.363951e+00
  1.916597e+01    1.357205e+00
  1.918185e+01    1.362841e+00
  1.919773e+01    1.397045e+00
  1.921360e+01    1.377774e+00
  1.922948e+01    1.370232e+00
  1.924535e+01    1.356306e+00
  1.926123e+01    1.372490e+00
  1.927710e+01    1.358578e+00
  1.929298e+01    1.350961e+00
  1.930885e+01    1.359296e+00
  1.932473e+01    1.343345e+00
  1.934061e+01    1.339086e+00
  1.935648e+01    1.352015e+00
  1.937236e+01    1.366882e+00
  1.938823e+01    1.340303e+00
  1.940411e+01    1.343680e+00
  1.941998e+01    1.339796e+00
  1.943586e+01    1.335580e+00
  1.945173e+01    1.347916e+00
  1.946761e+01    1.328629e+00
  1.948349e+01    1.329330e+00
  1.949936e+01    1.346972e+00
  1.951524e+01    1.333696e+00
  1.953111e+01    1.299265e+00
  1.954699e+01    1.295426e+00
  1.956286e+01    1.327470e+00
  1.957874e+01    1.304626e+00
  1.959461e+01    1.304929e+00
  1.961049e+01    1.330223e+00
  1.962637e+01    1.317074e+00
  1.964224e+01    1.292670e+00
  1.965812e+01    1.327015e+00
  1.967399e+01    1.310136e+00
  1.968987e+01    1.306889e+00
  1.970574e+01    1.275075e+00
  1.972162e+01    1.291618e+00
  1.973749e+01    1.295283e+00
  1.975337e+01    1.308824e+00
  1.976925e+01    1.302014e+00
  1.978512e+01    1.304605e+00
  1.980100e+01    1.286481e+00
  1.981687e+01    1.298306e+00
  1.983275e+01    1.321324e+00
  1.984862e+01    1.306127e+00
  1.986450e+01    1.289968e+00
  1.988037e+01    1.301447e+00
  1.989625e+01    1.297631e+00
  1.991213e+01    1.279161e+00
  1.992800e+01    1.293924e+00
  1.994388e+01    1.289829e+00
  1.995975e+01    1.276285e+00
  1.997563e+01    1.272025e+00
  1.999150e+01    1.280652e+00
  2.000738e+01    1.286576e+00
  2.002325e+01    1.292773e+00
  2.003913e+01    1.297717e+00
  2.005501e+01    1.299112e+00
  2.007088e+01    1.260151e+00
  2.008676e+01    1.279798e+00
  2.010263e+01    1.269875e+00
  2.011851e+01    1.305203e+00
  2.013438e+01    1.288778e+00
  2.015026e+01    1.287708e+00
  2.016614e+01    1.280964e+00
  2.018201e+01    1.275808e+00
  2.019789e+01    1.263427e+00
  2.021376e+01    1.235129e+00
  2.022964e+01    1.269762e+00
  2.024551e+01    1.252056e+00
  2.026139e+01    1.251544e+00
  2.027726e+01    1.244658e+00
  2.029314e+01    1.259941e+00
  2.030902e+01    1.294925e+00
  2.032489e+01    1.290511e+00
  2.034077e+01    1.257579e+00
  2.035664e+01    1.266163e+00
  2.037252e+01    1.271391e+00
  2.038839e+01    1.263103e+00
  2.040427e+01    1.252688e+00
  2.042014e+01    1.250395e+00
  2.043602e+01    1.241138e+00
  2.045190e+01    1.229102e+00
  2.046777e+01    1.238369e+00
  2.048365e+01    1.242285e+00
  2.049952e+01    1.240299e+00
  2.051540e+01    1.239851e+00
  2.053127e+01    1.263633e+00
  2.054715e+01    1.237900e+00
  2.056302e+01    1.240492e+00
  2.057890e+01    1.240175e+00
  2.059478e+01    1.238817e+00
  2.061065e+01    1.234941e+00
  2.062653e+01    1.236798e+00
  2.064240e+01    1.254613e+00
  2.065828e+01    1.270460e+00
  2.067415e+01    1.251136e+00
  2.069003e+01    1.225350e+00
  2.070590e+01    1.220616e+00
  2.072178e+01    1.243460e+00
  2.073766e+01    1.250195e+00
  2.075353e+01    1.236998e+00
  2.076941e+01    1.228546e+00
  2.078528e+01    1.209797e+00
  2.080116e+01    1.219747e+00
  2.081703e+01    1.232613e+00
  2.083291e+01    1.221787e+00
  2.084878e+01    1.217751e+00
  2.086466e+01    1.217013e+00
  2.088054e+01    1.245385e+00
  2.089641e+01    1.241695e+00
  2.091229e+01    1.217136e+00
  2.092816e+01    1.237559e+00
  2.094404e+01    1.244798e+00
  2.095991e+01    1.226095e+00
  2.097579e+01    1.230379e+00
  2.099166e+01    1.230476e+00
  2.100754e+01    1.210346e+00
  2.102342e+01    1.226445e+00
  2.103929e+01    1.226003e+00
  2.105517e+01    1.244938e+00
  2.107104e+01    1.214605e+00
  2.108692e+01    1.209697e+00
  2.110279e+01    1.241875e+00
  2.111867e+01    1.243272e+00
  2.113455e+01    1.232865e+00
  2.115042e+01    1.226511e+00
  2.116630e+01    1.230690e+00
  2.118217e+01    1.226159e+00
  2.119805e+01    1.227048e+00
  2.121392e+01    1.253470e+00
  2.122980e+01    1.254055e+00
  2.124567e+01    1.264401e+00
  2.126155e+01    1.248173e+00
  2.127743e+01    1.241245e+00
  2.129330e+01    1.250189e+00
  2.130918e+01    1.267076e+00
  2.132505e+01    1.278947e+00
  2.134093e+01    1.270016e+00
  2.135680e+01    1.286129e+00
  2.137268e+01    1.284090e+00
  2.138855e+01    1.293451e+00
  2.140443e+01    1.321494e+00
  2.142031e+01    1.338020e+00
  2.143618e+01    1.348603e+00
  2.145206e+01    1.359227e+00
  2.146793e+01    1.390183e+00
  2.148381e+01    1.406897e+00
  2.149968e+01    1.416476e+00
  2.151556e+01    1.430636e+00
  2.153143e+01    1.502791e+00
  2.154731e+01    1.524324e+00
  2.156319e+01    1.540199e+00
  2.157906e+01    1.588671e+00
  2.159494e+01    1.687999e+00
  2.161081e+01    1.782079e+00
  2.162669e+01    1.880588e+00
  2.164256e+01    1.985288e+00
  2.165844e+01    2.129110e+00
  2.167431e+01    2.319333e+00
  2.169019e+01    2.523614e+00
  2.170607e+01    2.785625e+00
  2.172194e+01    3.164307e+00
  2.173782e+01    3.536480e+00
  2.175369e+01    4.017942e+00
  2.176957e+01    4.612016e+00
  2.178544e+01    5.260829e+00
  2.180132e+01    5.907369e+00
  2.181719e+01    6.539744e+00
  2.183307e+01    7.223719e+00
  2.184895e+01    7.836951e+00
  2.186482e+01    8.442192e+00
  2.188070e+01    8.881874e+00
  2.189657e+01    8.980484e+00
  2.191245e+01    8.739982e+00
  2.192832e+01    8.270273e+00
  2.194420e+01    7.536689e+00
  2.196007e+01    6.570603e+00
  2.197595e+01    5.643873e+00
  2.199183e+01    4.840794e+00
  2.200770e+01    4.169302e+00
  2.202358e+01    3.635353e+00
  2.203945e+01    3.217848e+00
  2.205533e+01    2.835908e+00
  2.207120e+01    2.569484e+00
  2.208708e+01    2.339605e+00
  2.210296e+01    2.109382e+00
  2.211883e+01    1.991482e+00
  2.213471e+01    1.836362e+00
  2.215058e+01    1.766548e+00
  2.216646e+01    1.687929e+00
  2.218233e+01    1.592416e+00
  2.219821e+01    1.538860e+00
  2.221408e+01    1.532791e+00
  2.222996e+01    1.458691e+00
  2.224584e+01    1.398798e+00
  2.226171e+01    1.396080e+00
  2.227759e+01    1.357684e+00
  2.229346e+01    1.331523e+00
  2.230934e+01    1.301112e+00
  2.232521e+01    1.271898e+00
  2.234109e+01    1.271697e+00
  2.235696e+01    1.262104e+00
  2.237284e+01    1.263729e+00
  2.238872e+01    1.221635e+00
  2.240459e+01    1.213295e+00
  2.242047e+01    1.193306e+00
  2.243634e+01    1.179844e+00
  2.245222e+01    1.163653e+00
  2.246809e+01    1.160980e+00
  2.248397e+01    1.155574e+00
  2.249984e+01    1.150221e+00
  2.251572e+01    1.146024e+00
  2.253160e+01    1.159500e+00
  2.254747e+01    1.130996e+00
  2.256335e+01    1.124338e+00
  2.257922e+01    1.127657e+00
  2.259510e+01    1.106977e+00
  2.261097e+01    1.101490e+00
  2.262685e+01    1.095939e+00
  2.264272e+01    1.098200e+00
  2.265860e+01    1.100990e+00
  2.267448e+01    1.091415e+00
  2.269035e+01    1.072936e+00
  2.270623e+01    1.084059e+00
  2.272210e+01    1.084754e+00
  2.273798e+01    1.060521e+00
  2.275385e+01    1.051365e+00
  2.276973e+01    1.064784e+00
  2.278560e+01    1.041007e+00
  2.280148e+01    1.064360e+00
  2.281736e+01    1.057278e+00
  2.283323e+01    1.039788e+00
  2.284911e+01    1.049298e+00
  2.286498e+01    1.042435e+00
  2.288086e+01    1.038343e+00
  2.289673e+01    1.023188e+00
  2.291261e+01    1.035010e+00
  2.292848e+01    1.035693e+00
  2.294436e+01    1.028000e+00
  2.296024e+01    1.016720e+00
  2.297611e+01    1.035418e+00
  2.299199e+01    1.021896e+00
  2.300786e+01    1.024568e+00
  2.302374e+01    1.021473e+00
  2.303961e+01    1.028608e+00
  2.305549e+01    1.022719e+00
  2.307137e+01    1.012017e+00
  2.308724e+01    1.012128e+00
  2.310312e+01    1.023341e+00
  2.311899e+01    1.007902e+00
  2.313487e+01    9.988176e-01
  2.315074e+01    1.010051e+00
  2.316662e+01    9.972164e-01
  2.318249e+01    1.002178e+00
  2.319837e+01    1.002644e+00
  2.321425e+01    1.009385e+00
  2.323012e+01    9.863394e-01
  2.324600e+01    9.743991e-01
  2.326187e+01    9.934201e-01
  2.327775e+01    9.789242e-01
  2.329362e+01    9.777959e-01
  2.330950e+01    9.791561e-01
  2.332537e+01    1.000057e+00
  2.334125e+01    9.979488e-01
  2.335713e+01    9.856747e-01
  2.337300e+01    9.706337e-01
  2.338888e+01    9.714993e-01
  2.340475e+01    9.772198e-01
  2.342063e+01    9.842229e-01
  2.343650e+01    9.720213e-01
  2.345238e+01    9.488645e-01
  2.346825e+01    9.346128e-01
  2.348413e+01    9.171968e-01
  2.350001e+01    9.553702e-01
  2.351588e+01    9.708980e-01
  2.353176e+01    9.633072e-01
  2.354763e+01    9.608644e-01
  2.356351e+01    9.490299e-01
  2.357938e+01    9.526708e-01
  2.359526e+01    9.442462e-01
  2.361113e+01    9.583795e-01
  2.362701e+01    9.761038e-01
  2.364289e+01    9.646679e-01
  2.365876e+01    9.478728e-01
  2.367464e+01    9.891514e-01
  2.369051e+01    9.661077e-01
  2.370639e+01    9.450462e-01
  2.372226e+01    9.353076e-01
  2.373814e+01    9.665853e-01
  2.375401e+01    9.286524e-01
  2.376989e+01    9.421595e-01
  2.378577e+01    9.468962e-01
  2.380164e+01    9.233320e-01
  2.381752e+01    9.059267e-01
  2.383339e+01    9.088860e-01
  2.384927e+01    9.157924e-01
  2.386514e+01    9.235564e-01
  2.388102e+01    9.132522e-01
  2.389689e+01    9.147877e-01
  2.391277e+01    9.262710e-01
  2.392865e+01    9.210896e-01
  2.394452e+01    8.777052e-01
  2.396040e+01    8.873405e-01
  2.397627e+01    8.847130e-01
  2.399215e+01    9.071689e-01
  2.400802e+01    9.086442e-01
  2.402390e+01    9.039247e-01
  2.403978e+01    8.931400e-01
  2.405565e+01    8.822811e-01
  2.407153e+01    8.924081e-01
  2.408740e+01    9.056106e-01
  2.410328e+01    9.014453e-01
  2.411915e+01    9.307791e-01
  2.413503e+01    8.955848e-01
  2.415090e+01    8.957395e-01
  2.416678e+01    8.893172e-01
  2.418266e+01    8.596486e-01
  2.419853e+01    8.756041e-01
  2.421441e+01    8.645752e-01
  2.423028e+01    8.741831e-01
  2.424616e+01    8.734698e-01
  2.426203e+01    8.993280e-01
  2.427791e+01    8.838930e-01
  2.429378e+01    8.729255e-01
  2.430966e+01    9.012269e-01
  2.432554e+01    9.189768e-01
  2.434141e+01    9.035279e-01
  2.435729e+01    9.019992e-01
  2.437316e+01    8.873432e-01
  2.438904e+01    9.004169e-01
  2.440491e+01    8.864193e-01
  2.442079e+01    9.021602e-01
  2.443666e+01    8.740168e-01
  2.445254e+01    8.840641e-01
  2.446842e+01    8.721920e-01
  2.448429e+01    8.946674e-01
  2.450017e+01    8.869771e-01
  2.451604e+01    8.910588e-01
  2.453192e+01    8.892534e-01
  2.454779e+01    8.803763e-01
  2.456367e+01    8.760746e-01
  2.457954e+01    8.950670e-01
  2.459542e+01    9.088231e-01
  2.461130e+01    8.947914e-01
  2.462717e+01    8.763070e-01
  2.464305e+01    8.830571e-01
  2.465892e+01    8.723251e-01
  2.467480e+01    8.804974e-01
  2.469067e+01    8.905232e-01
  2.470655e+01    8.747305e-01
  2.472242e+01    9.059317e-01
  2.473830e+01    9.093808e-01
  2.475418e+01    8.820485e-01
  2.477005e+01    8.805953e-01
  2.478593e+01    8.678470e-01
  2.480180e+01    8.877081e-01
  2.481768e+01    8.962300e-01
  2.483355e+01    8.798053e-01
  2.484943e+01    8.844560e-01
  2.486530e+01    8.637482e-01
  2.488118e+01    8.751553e-01
  2.489706e+01    8.896379e-01
  2.491293e+01    8.911747e-01
  2.492881e+01    9.000936e-01
  2.494468e+01    8.949945e-01
  2.496056e+01    9.043459e-01
  2.497643e+01    9.154677e-01
  2.499231e+01    9.168916e-01
  2.500819e+01    9.114956e-01
  2.502406e+01    9.095219e-01
  2.503994e+01    9.131268e-01
  2.505581e+01    8.932589e-01
  2.507169e+01    9.321586e-01
  2.508756e+01    9.059293e-01
  2.510344e+01    9.026175e-01
  2.511931e+01    8.986595e-01
  2.513519e+01    9.141212e-01
  2.515107e+01    9.075768e-01
  2.516694e+01    9.166411e-01
  2.518282e+01    9.314616e-01
  2.519869e+01    9.451805e-01
  2.521457e+01    9.336898e-01
  2.523044e+01    9.197029e-01
  2.524632e+01    9.366528e-01
  2.526219e+01    9.473280e-01
  2.527807e+01    9.585099e-01
  2.529395e+01    9.476326e-01
  2.530982e+01    9.702694e-01
  2.532570e+01    9.661130e-01
  2.534157e+01    9.731166e-01
  2.535745e+01    1.000075e+00
  2.537332e+01    1.004113e+00
  2.538920e+01    9.895331e-01
  2.540507e+01    9.763955e-01
  2.542095e+01    9.853953e-01
  2.543683e+01    1.004230e+00
  2.545270e+01    1.014906e+00
  2.546858e+01    1.033971e+00
  2.548445e+01    1.057977e+00
  2.550033e+01    1.060336e+00
  2.551620e+01    1.062743e+00
  2.553208e+01    1.107007e+00
  2.554795e+01    1.120358e+00
  2.556383e+01    1.143305e+00
  2.557971e+01    1.163774e+00
  2.559558e+01    1.190422e+00
  2.561146e+01    1.209462e+00
  2.562733e+01    1.270657e+00
  2.564321e+01    1.302806e+00
  2.565908e+01    1.357347e+00
  2.567496e+01    1.400875e+00
  2.569083e+01    1.482365e+00
  2.570671e+01    1.605302e+00
  2.572259e+01    1.715469e+00
  2.573846e+01    1.865150e+00
  2.575434e+01    2.052993e+00
  2.577021e+01    2.255933e+00
  2.578609e+01    2.490706e+00
  2.580196e+01    2.827919e+00
  2.581784e+01    3.190376e+00
  2.583371e+01    3.632869e+00
  2.584959e+01    4.189929e+00
  2.586547e+01    4.730034e+00
  2.588134e+01    5.339288e+00
  2.589722e+01    5.878702e+00
  2.591309e+01    6.386487e+00
  2.592897e+01    6.838936e+00
  2.594484e+01    7.137573e+00
  2.596072e+01    7.141771e+00
  2.597660e+01    7.028682e+00
  2.599247e+01    6.597636e+00
  2.600835e+01    5.976591e+00
  2.602422e+01    5.263568e+00
  2.604010e+01    4.598390e+00
  2.605597e+01    3.995179e+00
  2.607185e+01    3.412850e+00
  2.608772e+01    2.957209e+00
  2.610360e+01    2.656852e+00
  2.611948e+01    2.393153e+00
  2.613535e+01    2.133163e+00
  2.615123e+01    1.961497e+00
  2.616710e+01    1.808160e+00
  2.618298e+01    1.683324e+00
  2.619885e+01    1.556567e+00
  2.621473e+01    1.483299e+00
  2.623060e+01    1.408159e+00
  2.624648e+01    1.352003e+00
  2.626236e+01    1.306680e+00
  2.627823e+01    1.245251e+00
  2.629411e+01    1.212647e+00
  2.630998e+01    1.188244e+00
  2.632586e+01    1.155019e+00
  2.634173e+01    1.134321e+00
  2.635761e+01    1.137486e+00
  2.637348e+01    1.091594e+00
  2.638936e+01    1.055559e+00
  2.640524e+01    1.050964e+00
  2.642111e+01    1.061337e+00
  2.643699e+01    1.059151e+00
  2.645286e+01    1.027449e+00
  2.646874e+01    1.034349e+00
  2.648461e+01    1.031721e+00
  2.650049e+01    1.020902e+00
  2.651636e+01    1.003605e+00
  2.653224e+01    9.958887e-01
  2.654812e+01    9.998862e-01
  2.656399e+01    1.004193e+00
  2.657987e+01    1.002451e+00
  2.659574e+01    9.782106e-01
  2.661162e+01    9.697211e-01
  2.662749e+01    9.822345e-01
  2.664337e+01    1.004285e+00
  2.665924e+01    9.761494e-01
  2.667512e+01    9.735526e-01
  2.669100e+01    9.798560e-01
  2.670687e+01    9.855481e-01
  2.672275e+01    9.885267e-01
  2.673862e+01    9.672112e-01
  2.675450e+01    9.611010e-01
  2.677037e+01    9.807447e-01
  2.678625e+01    9.561474e-01
  2.680212e+01    9.638476e-01
  2.681800e+01    9.670331e-01
  2.683388e+01    9.629500e-01
  2.684975e+01    9.779130e-01
  2.686563e+01    9.933614e-01
  2.688150e+01    9.927412e-01
  2.689738e+01    1.018240e+00
  2.691325e+01    1.008160e+00
  2.692913e+01    1.017210e+00
  2.694501e+01    1.031551e+00
  2.696088e+01    1.055901e+00
  2.697676e+01    1.063123e+00
  2.699263e+01    1.099053e+00
  2.700851e+01    1.138933e+00
  2.702438e+01    1.189772e+00
  2.704026e+01    1.204859e+00
  2.705613e+01    1.251210e+00
  2.707201e+01    1.317588e+00
  2.708789e+01    1.389493e+00
  2.710376e+01    1.486492e+00
  2.711964e+01    1.603209e+00
  2.713551e+01    1.725573e+00
  2.715139e+01    1.863932e+00
  2.716726e+01    1.964216e+00
  2.718314e+01    2.054931e+00
  2.719901e+01    2.129532e+00
  2.721489e+01    2.165660e+00
  2.723077e+01    2.155647e+00
  2.724664e+01    2.087651e+00
  2.726252e+01    1.987884e+00
  2.727839e+01    1.856414e+00
  2.729427e+01    1.714190e+00
  2.731014e+01    1.565983e+00
  2.732602e+01    1.460125e+00
  2.734189e+01    1.360529e+00
  2.735777e+01    1.271952e+00
  2.737365e+01    1.208640e+00
  2.738952e+01    1.167777e+00
  2.740540e+01    1.109149e+00
  2.742127e+01    1.097686e+00
  2.743715e+01    1.068758e+00
  2.745302e+01    1.037015e+00
  2.746890e+01    1.003978e+00
  2.748477e+01    9.842982e-01
  2.750065e+01    9.799798e-01
  2.751653e+01    9.670502e-01
  2.753240e+01    9.645349e-01
  2.754828e+01    9.399191e-01
  2.756415e+01    9.353560e-01
  2.758003e+01    9.283389e-01
  2.759590e+01    9.344310e-01
  2.761178e+01    9.290268e-01
  2.762765e+01    9.393889e-01
  2.764353e+01    9.256505e-01
  2.765941e+01    9.166726e-01
  2.767528e+01    8.897460e-01
  2.769116e+01    8.876098e-01
  2.770703e+01    9.049960e-01
  2.772291e+01    9.115046e-01
  2.773878e+01    9.158603e-01
  2.775466e+01    9.066525e-01
  2.777054e+01    8.926754e-01
  2.778641e+01    8.770344e-01
  2.780229e+01    8.954461e-01
  2.781816e+01    8.941891e-01
  2.783404e+01    8.885732e-01
  2.784991e+01    8.703801e-01
  2.786579e+01    8.812271e-01
  2.788166e+01    8.673319e-01
  2.789754e+01    8.712993e-01
  2.791342e+01    8.815939e-01
  2.792929e+01    8.799246e-01
  2.794517e+01    8.612804e-01
  2.796104e+01    8.591548e-01
  2.797692e+01    8.687257e-01
  2.799279e+01    8.619463e-01
  2.800867e+01    8.606616e-01
  2.802454e+01    8.553298e-01
  2.804042e+01    8.490931e-01
  2.805630e+01    8.428097e-01
  2.807217e+01    8.527946e-01
  2.808805e+01    8.616679e-01
  2.810392e+01    8.657163e-01
  2.811980e+01    8.548368e-01
  2.813567e+01    8.468708e-01
  2.815155e+01    8.316861e-01
  2.816742e+01    8.484333e-01
  2.818330e+01    8.605344e-01
  2.819918e+01    8.735369e-01
  2.821505e+01    8.555099e-01
  2.823093e+01    8.507772e-01
  2.824680e+01    8.355667e-01
  2.826268e+01    8.633310e-01
  2.827855e+01    8.590462e-01
  2.829443e+01    8.475714e-01
  2.831030e+01    8.381332e-01
  2.832618e+01    8.587164e-01
  2.834206e+01    8.440173e-01
  2.835793e+01    8.401803e-01
  2.837381e+01    8.396154e-01
  2.838968e+01    8.434798e-01
  2.840556e+01    8.404775e-01
  2.842143e+01    8.532916e-01
  2.843731e+01    8.441073e-01
  2.845318e+01    8.317740e-01
  2.846906e+01    8.413462e-01
  2.848494e+01    8.460889e-01
  2.850081e+01    8.499008e-01
  2.851669e+01    8.264289e-01
  2.853256e+01    8.374036e-01
  2.854844e+01    8.589826e-01
  2.856431e+01    8.492548e-01
  2.858019e+01    8.099934e-01
  2.859606e+01    8.069448e-01
  2.861194e+01    8.280774e-01
  2.862782e+01    8.136368e-01
  2.864369e+01    8.183770e-01
  2.865957e+01    8.189589e-01
  2.867544e+01    8.532721e-01
  2.869132e+01    8.364851e-01
  2.870719e+01    8.410690e-01
  2.872307e+01    8.353480e-01
  2.873895e+01    8.335627e-01
  2.875482e+01    8.479347e-01
  2.877070e+01    8.412613e-01
  2.878657e+01    8.348972e-01
  2.880245e+01    8.499786e-01
  2.881832e+01    8.492758e-01
  2.883420e+01    8.414112e-01
  2.885007e+01    8.134923e-01
  2.886595e+01    8.182371e-01
  2.888183e+01    8.298516e-01
  2.889770e+01    8.312947e-01
  2.891358e+01    8.466588e-01
  2.892945e+01    8.280631e-01
  2.894533e+01    8.189127e-01
  2.896120e+01    8.017786e-01
  2.897708e+01    8.166910e-01
  2.899295e+01    8.267194e-01
  2.900883e+01    8.239665e-01
  2.902471e+01    8.301113e-01
  2.904058e+01    8.036087e-01
  2.905646e+01    8.305264e-01
  2.907233e+01    8.186610e-01
  2.908821e+01    8.167041e-01
  2.910408e+01    8.057338e-01
  2.911996e+01    7.943253e-01
  2.913583e+01    8.032897e-01
  2.915171e+01    8.084943e-01
  2.916759e+01    7.941910e-01
  2.918346e+01    8.082470e-01
  2.919934e+01    8.275082e-01
  2.921521e+01    8.217993e-01
  2.923109e+01    8.145773e-01
  2.924696e+01    7.990810e-01
  2.926284e+01    8.144763e-01
  2.927871e+01    8.159310e-01
  2.929459e+01    8.110572e-01
  2.931047e+01    8.051664e-01
  2.932634e+01    8.096955e-01
  2.934222e+01    8.113980e-01
  2.935809e+01    8.067463e-01
  2.937397e+01    8.296603e-01
  2.938984e+01    8.167210e-01
  2.940572e+01    8.170608e-01
  2.942159e+01    7.908351e-01
  2.943747e+01    7.928110e-01
  2.945335e+01    8.027682e-01
  2.946922e+01    8.239189e-01
  2.948510e+01    8.176093e-01
  2.950097e+01    8.010913e-01
  2.951685e+01    7.949674e-01
  2.953272e+01    8.002008e-01
  2.954860e+01    7.949241e-01
  2.956447e+01    8.124529e-01
  2.958035e+01    7.840318e-01
  2.959623e+01    8.044760e-01
  2.961210e+01    7.967019e-01
  2.962798e+01    7.825547e-01
  2.964385e+01    8.031065e-01
  2.965973e+01    7.995850e-01
  2.967560e+01    7.984122e-01
  2.969148e+01    7.818719e-01
  2.970736e+01    7.878016e-01
  2.972323e+01    7.926301e-01
  2.973911e+01    8.038966e-01
  2.975498e+01    8.055523e-01
  2.977086e+01    8.052808e-01
  2.978673e+01    8.071464e-01
  2.980261e+01    7.999026e-01
  2.981848e+01    8.074346e-01
  2.983436e+01    7.995592e-01
  2.985024e+01    7.945111e-01
  2.986611e+01    7.861759e-01
  2.988199e+01    8.021349e-01
  2.989786e+01    7.948419e-01
  2.991374e+01    8.024240e-01
  2.992961e+01    7.851505e-01
  2.994549e+01    8.015144e-01
  2.996136e+01    8.056844e-01
  2.997724e+01    8.123206e-01
  2.999312e+01    8.193288e-01
  3.000899e+01    8.124677e-01
  3.002487e+01    8.018124e-01
  3.004074e+01    7.979393e-01
  3.005662e+01    7.979245e-01
  3.007249e+01    8.119115e-01
  3.008837e+01    8.109387e-01
  3.010424e+01    7.940105e-01
  3.012012e+01    8.030579e-01
  3.013600e+01    7.953773e-01
  3.015187e+01    7.767711e-01
  3.016775e+01    7.859776e-01
  3.018362e+01    8.053729e-01
  3.019950e+01    7.960029e-01
  3.021537e+01    7.697269e-01
  3.023125e+01    7.944537e-01
  3.024712e+01    7.703964e-01
  3.026300e+01    7.774132e-01
  3.027888e+01    7.778627e-01
  3.029475e+01    7.865944e-01
  3.031063e+01    7.798345e-01
  3.032650e+01    8.019521e-01
  3.034238e+01    8.112242e-01
  3.035825e+01    7.825170e-01
  3.037413e+01    7.971905e-01
  3.039000e+01    7.884026e-01
  3.040588e+01    7.830973e-01
  3.042176e+01    7.767732e-01
  3.043763e+01    7.938102e-01
  3.045351e+01    7.860672e-01
  3.046938e+01    7.924159e-01
  3.048526e+01    7.897094e-01
  3.050113e+01    7.758322e-01
  3.051701e+01    8.050923e-01
  3.053288e+01    7.730920e-01
  3.054876e+01    7.701169e-01
  3.056464e+01    7.827464e-01
  3.058051e+01    7.762455e-01
  3.059639e+01    7.683830e-01
  3.061226e+01    7.795547e-01
  3.062814e+01    7.716258e-01
  3.064401e+01    8.043020e-01
  3.065989e+01    8.001405e-01
  3.067577e+01    8.028480e-01
  3.069164e+01    7.883288e-01
  3.070752e+01    7.834650e-01
  3.072339e+01    7.816064e-01
  3.073927e+01    7.826042e-01
  3.075514e+01    7.904489e-01
  3.077102e+01    7.929926e-01
  3.078689e+01    7.775006e-01
  3.080277e+01    8.005263e-01
  3.081865e+01    7.915555e-01
  3.083452e+01    7.761424e-01
  3.085040e+01    7.839666e-01
  3.086627e+01    7.781731e-01
  3.088215e+01    7.858101e-01
  3.089802e+01    7.930513e-01
  3.091390e+01    7.686104e-01
  3.092977e+01    7.790403e-01
  3.094565e+01    7.845883e-01
  3.096153e+01    7.852882e-01
  3.097740e+01    7.785987e-01
  3.099328e+01    7.823390e-01
  3.100915e+01    7.968029e-01
  3.102503e+01    7.924189e-01
  3.104090e+01    7.950660e-01
  3.105678e+01    7.805731e-01
  3.107265e+01    7.740455e-01
  3.108853e+01    7.770556e-01
  3.110441e+01    7.830451e-01
  3.112028e+01    7.968780e-01
  3.113616e+01    7.884247e-01
  3.115203e+01    7.664916e-01
  3.116791e+01    7.815181e-01
  3.118378e+01    7.866387e-01
  3.119966e+01    7.937393e-01
  3.121553e+01    7.874169e-01
  3.123141e+01    8.078142e-01
  3.124729e+01    7.923081e-01
  3.126316e+01    7.939010e-01
  3.127904e+01    8.073003e-01
  3.129491e+01    7.863414e-01
  3.131079e+01    7.779374e-01
  3.132666e+01    7.835006e-01
  3.134254e+01    7.956273e-01
  3.135841e+01    8.060941e-01
  3.137429e+01    8.128061e-01
  3.139017e+01    7.890055e-01
  3.140604e+01    8.049241e-01
  3.142192e+01    8.097838e-01
  3.143779e+01    8.131540e-01
  3.145367e+01    8.291322e-01
  3.146954e+01    8.433098e-01
  3.148542e+01    8.419796e-01
  3.150129e+01    8.403095e-01
  3.151717e+01    8.403727e-01
  3.153305e+01    8.419868e-01
  3.154892e+01    8.324227e-01
  3.156480e+01    8.428030e-01
  3.158067e+01    8.719146e-01
  3.159655e+01    8.669507e-01
  3.161242e+01    8.788129e-01
  3.162830e+01    9.078783e-01
  3.164418e+01    9.212369e-01
  3.166005e+01    9.173543e-01
  3.167593e+01    9.549432e-01
  3.169180e+01    9.680332e-01
  3.170768e+01    9.996157e-01
  3.172355e+01    1.058729e+00
  3.173943e+01    1.106877e+00
  3.175530e+01    1.169842e+00
  3.177118e+01    1.254401e+00
  3.178706e+01    1.336859e+00
  3.180293e+01    1.485360e+00
  3.181881e+01    1.554662e+00
  3.183468e+01    1.715405e+00
  3.185056e+01    1.871156e+00
  3.186643e+01    1.957380e+00
  3.188231e+01    2.036690e+00
  3.189818e+01    2.089926e+00
  3.191406e+01    2.103548e+00
  3.192994e+01    2.031585e+00
  3.194581e+01    1.974587e+00
  3.196169e+01    1.845218e+00
  3.197756e+01    1.685546e+00
  3.199344e+01    1.577619e+00
  3.200931e+01    1.451753e+00
  3.202519e+01    1.337383e+00
  3.204106e+01    1.219001e+00
  3.205694e+01    1.125680e+00
  3.207282e+01    1.085723e+00
  3.208869e+01    1.031730e+00
  3.210457e+01    9.979663e-01
  3.212044e+01    9.821530e-01
  3.213632e+01    9.243089e-01
  3.215219e+01    9.273320e-01
  3.216807e+01    8.940989e-01
  3.218394e+01    8.860658e-01
  3.219982e+01    8.677081e-01
  3.221570e+01    8.386697e-01
  3.223157e+01    8.331384e-01
  3.224745e+01    8.246586e-01
  3.226332e+01    8.324857e-01
  3.227920e+01    8.399358e-01
  3.229507e+01    8.235757e-01
  3.231095e+01    8.163500e-01
  3.232682e+01    8.095465e-01
  3.234270e+01    8.154390e-01
  3.235858e+01    8.134052e-01
  3.237445e+01    8.100632e-01
  3.239033e+01    7.952856e-01
  3.240620e+01    7.759233e-01
  3.242208e+01    7.877413e-01
  3.243795e+01    7.853123e-01
  3.245383e+01    7.910988e-01
  3.246970e+01    8.029435e-01
  3.248558e+01    7.911167e-01
  3.250146e+01    7.730118e-01
  3.251733e+01    7.578416e-01
  3.253321e+01    7.768965e-01
  3.254908e+01    7.655079e-01
