# == pyFAI calibration ==
# Distance Sample to Detector: 0.3999999939076516 m
# PONI: 9.750e-02, 1.135e-01 m
# Rotations: -0.000175 0.000000 -0.000000 rad
# 
# == Fit2d calibration ==
# Distance Sample-beamCenter: 400.000 mm
# Center: x=1514.000, y=1300.000 pix
# Tilt: 0.010 deg  TiltPlanRot: 0.010 deg
# 
# Detector Detector	 Spline= None	 PixelSize= 7.500e-05, 7.500e-05 m
#    Detector has a mask: False 
#    Detector has a dark current: False 
#    detector has a flat field: False 
# 
# Wavelength: 6.888e-11 m
# Mask applied: user provided
# Dark current applied: False
# Flat field applied: False
# Polarization factor: 0.99
# Normalization factor: 1.0
# --> /home/myspot/data/2024_07_Rosario/Ru-CGO-ex/2024-07-27_003_Ru-CGO-ex_Reaction_dwell_000023_data_000098.dat
#       q_nm^-1             I 
  2.003187e-02    0.000000e+00
  3.590745e-02    1.774775e-01
  5.178302e-02    2.688038e-01
  6.765859e-02    1.814592e-01
  8.353417e-02    1.545487e-01
  9.940974e-02    7.825556e-02
  1.152853e-01    3.773214e-02
  1.311609e-01    4.444229e-02
  1.470365e-01    7.725076e-02
  1.629120e-01    4.513822e-02
  1.787876e-01    2.786847e-02
  1.946632e-01    3.505622e-03
  2.105388e-01    1.407113e-02
  2.264143e-01    1.577760e-02
  2.422899e-01    4.948013e-02
  2.581655e-01    5.071781e-02
  2.740411e-01    4.990095e-02
  2.899166e-01    4.853386e-02
  3.057922e-01    5.704523e-02
  3.216678e-01    5.585589e-02
  3.375433e-01    4.319317e-02
  3.534189e-01    2.446596e-02
  3.692945e-01    3.093580e-02
  3.851701e-01    7.974774e-03
  4.010456e-01    2.671904e-02
  4.169212e-01    4.817894e-02
  4.327968e-01    2.012150e-02
  4.486724e-01    5.057758e-02
  4.645479e-01    3.478895e-02
  4.804235e-01    2.414457e-02
  4.962991e-01    2.581719e-02
  5.121747e-01    2.105870e-02
  5.280502e-01    2.194926e-02
  5.439258e-01    4.852316e-02
  5.598014e-01    3.091957e-02
  5.756770e-01    4.102192e-02
  5.915525e-01    4.624626e-02
  6.074281e-01    3.831513e-02
  6.233037e-01    2.227066e-02
  6.391793e-01    3.496750e-02
  6.550548e-01    3.160364e-02
  6.709304e-01    3.542723e-02
  6.868060e-01    5.608593e-02
  7.026815e-01    3.723636e-02
  7.185571e-01    2.940869e-02
  7.344327e-01    3.953521e-02
  7.503083e-01    7.691498e-02
  7.661838e-01    9.897749e-02
  7.820594e-01    1.307767e-01
  7.979350e-01    1.507209e-01
  8.138106e-01    2.311846e-01
  8.296861e-01    3.337824e-01
  8.455617e-01    3.581915e-01
  8.614373e-01    4.328719e-01
  8.773129e-01    5.183973e-01
  8.931884e-01    5.400137e-01
  9.090640e-01    6.714201e-01
  9.249396e-01    6.938097e-01
  9.408152e-01    8.188443e-01
  9.566907e-01    8.795412e-01
  9.725663e-01    1.052700e+00
  9.884419e-01    1.199478e+00
  1.004317e+00    1.245388e+00
  1.020193e+00    1.262218e+00
  1.036069e+00    1.371032e+00
  1.051944e+00    1.401522e+00
  1.067820e+00    1.401193e+00
  1.083695e+00    1.493720e+00
  1.099571e+00    1.703741e+00
  1.115446e+00    1.717879e+00
  1.131322e+00    1.685111e+00
  1.147198e+00    1.761103e+00
  1.163073e+00    1.811202e+00
  1.178949e+00    1.668866e+00
  1.194824e+00    1.635377e+00
  1.210700e+00    2.045861e+00
  1.226575e+00    2.271903e+00
  1.242451e+00    2.391521e+00
  1.258327e+00    2.472438e+00
  1.274202e+00    2.572737e+00
  1.290078e+00    2.635727e+00
  1.305953e+00    2.695451e+00
  1.321829e+00    2.712133e+00
  1.337705e+00    2.806745e+00
  1.353580e+00    2.739100e+00
  1.369456e+00    2.827789e+00
  1.385331e+00    2.807867e+00
  1.401207e+00    2.800831e+00
  1.417082e+00    2.798703e+00
  1.432958e+00    2.825587e+00
  1.448834e+00    2.878801e+00
  1.464709e+00    2.958278e+00
  1.480585e+00    2.952881e+00
  1.496460e+00    3.082525e+00
  1.512336e+00    3.089424e+00
  1.528211e+00    3.120927e+00
  1.544087e+00    3.147359e+00
  1.559963e+00    3.107630e+00
  1.575838e+00    3.125344e+00
  1.591714e+00    3.129122e+00
  1.607589e+00    3.092543e+00
  1.623465e+00    3.194335e+00
  1.639340e+00    3.113384e+00
  1.655216e+00    2.957514e+00
  1.671092e+00    3.080540e+00
  1.686967e+00    3.041400e+00
  1.702843e+00    2.957385e+00
  1.718718e+00    2.964983e+00
  1.734594e+00    3.148345e+00
  1.750469e+00    3.121974e+00
  1.766345e+00    3.096185e+00
  1.782221e+00    3.204131e+00
  1.798096e+00    3.160252e+00
  1.813972e+00    2.993249e+00
  1.829847e+00    3.144473e+00
  1.845723e+00    3.177998e+00
  1.861598e+00    3.077411e+00
  1.877474e+00    3.078444e+00
  1.893350e+00    3.025600e+00
  1.909225e+00    2.981349e+00
  1.925101e+00    3.039537e+00
  1.940976e+00    2.997231e+00
  1.956852e+00    3.033314e+00
  1.972727e+00    2.954669e+00
  1.988603e+00    3.059756e+00
  2.004479e+00    3.051173e+00
  2.020354e+00    3.047414e+00
  2.036230e+00    3.076930e+00
  2.052105e+00    3.031003e+00
  2.067981e+00    3.070090e+00
  2.083856e+00    3.060451e+00
  2.099732e+00    2.997133e+00
  2.115608e+00    3.114271e+00
  2.131483e+00    3.114497e+00
  2.147359e+00    3.172877e+00
  2.163234e+00    3.119879e+00
  2.179110e+00    2.990345e+00
  2.194985e+00    3.153172e+00
  2.210861e+00    3.117992e+00
  2.226737e+00    3.133392e+00
  2.242612e+00    3.139886e+00
  2.258488e+00    3.214470e+00
  2.274363e+00    3.048512e+00
  2.290239e+00    3.142874e+00
  2.306115e+00    3.170559e+00
  2.321990e+00    3.117334e+00
  2.337866e+00    3.079365e+00
  2.353741e+00    3.128079e+00
  2.369617e+00    3.063908e+00
  2.385492e+00    3.128636e+00
  2.401368e+00    3.105598e+00
  2.417244e+00    3.194201e+00
  2.433119e+00    3.233466e+00
  2.448995e+00    3.176447e+00
  2.464870e+00    3.086360e+00
  2.480746e+00    3.218167e+00
  2.496621e+00    3.306327e+00
  2.512497e+00    3.197953e+00
  2.528373e+00    3.075530e+00
  2.544248e+00    3.096062e+00
  2.560124e+00    3.249089e+00
  2.575999e+00    3.285582e+00
  2.591875e+00    3.239740e+00
  2.607750e+00    3.172812e+00
  2.623626e+00    3.194597e+00
  2.639502e+00    3.251532e+00
  2.655377e+00    3.235132e+00
  2.671253e+00    3.249229e+00
  2.687128e+00    3.218499e+00
  2.703004e+00    3.226732e+00
  2.718879e+00    3.230144e+00
  2.734755e+00    3.255015e+00
  2.750631e+00    3.290076e+00
  2.766506e+00    3.324886e+00
  2.782382e+00    3.341180e+00
  2.798257e+00    3.178023e+00
  2.814133e+00    3.081693e+00
  2.830008e+00    3.175829e+00
  2.845884e+00    3.288796e+00
  2.861760e+00    3.260838e+00
  2.877635e+00    3.260577e+00
  2.893511e+00    3.322100e+00
  2.909386e+00    3.417040e+00
  2.925262e+00    3.436213e+00
  2.941137e+00    3.310076e+00
  2.957013e+00    3.296931e+00
  2.972889e+00    3.371448e+00
  2.988764e+00    3.330505e+00
  3.004640e+00    3.279857e+00
  3.020515e+00    3.340973e+00
  3.036391e+00    3.381774e+00
  3.052266e+00    3.249079e+00
  3.068142e+00    3.403211e+00
  3.084018e+00    3.414896e+00
  3.099893e+00    3.333516e+00
  3.115769e+00    3.405653e+00
  3.131644e+00    3.340116e+00
  3.147520e+00    3.302495e+00
  3.163395e+00    3.294607e+00
  3.179271e+00    3.296275e+00
  3.195147e+00    3.402531e+00
  3.211022e+00    3.415917e+00
  3.226898e+00    3.406244e+00
  3.242773e+00    3.398252e+00
  3.258649e+00    3.391869e+00
  3.274525e+00    3.255292e+00
  3.290400e+00    3.300767e+00
  3.306276e+00    3.451777e+00
  3.322151e+00    3.507947e+00
  3.338027e+00    3.424947e+00
  3.353902e+00    3.456206e+00
  3.369778e+00    3.495480e+00
  3.385654e+00    3.462378e+00
  3.401529e+00    3.461275e+00
  3.417405e+00    3.387636e+00
  3.433280e+00    3.288356e+00
  3.449156e+00    3.393718e+00
  3.465031e+00    3.348151e+00
  3.480907e+00    3.411280e+00
  3.496783e+00    3.476321e+00
  3.512658e+00    3.492774e+00
  3.528534e+00    3.494991e+00
  3.544409e+00    3.515118e+00
  3.560285e+00    3.497907e+00
  3.576160e+00    3.530036e+00
  3.592036e+00    3.465177e+00
  3.607912e+00    3.375115e+00
  3.623787e+00    3.415343e+00
  3.639663e+00    3.414725e+00
  3.655538e+00    3.426511e+00
  3.671414e+00    3.403227e+00
  3.687289e+00    3.496558e+00
  3.703165e+00    3.593604e+00
  3.719041e+00    3.519510e+00
  3.734916e+00    3.567086e+00
  3.750792e+00    3.571438e+00
  3.766667e+00    3.511997e+00
  3.782543e+00    3.469627e+00
  3.798418e+00    3.495893e+00
  3.814294e+00    3.527434e+00
  3.830170e+00    3.480767e+00
  3.846045e+00    3.498778e+00
  3.861921e+00    3.505312e+00
  3.877796e+00    3.523235e+00
  3.893672e+00    3.585778e+00
  3.909547e+00    3.632404e+00
  3.925423e+00    3.639541e+00
  3.941299e+00    3.620442e+00
  3.957174e+00    3.570345e+00
  3.973050e+00    3.496933e+00
  3.988925e+00    3.479521e+00
  4.004801e+00    3.492454e+00
  4.020676e+00    3.472176e+00
  4.036552e+00    3.533300e+00
  4.052428e+00    3.486494e+00
  4.068303e+00    3.434361e+00
  4.084179e+00    3.458495e+00
  4.100054e+00    3.491379e+00
  4.115930e+00    3.549934e+00
  4.131806e+00    3.601869e+00
  4.147681e+00    3.557474e+00
  4.163557e+00    3.498747e+00
  4.179432e+00    3.512091e+00
  4.195308e+00    3.381122e+00
  4.211183e+00    3.500741e+00
  4.227059e+00    3.624170e+00
  4.242935e+00    3.504517e+00
  4.258810e+00    3.486155e+00
  4.274686e+00    3.552844e+00
  4.290561e+00    3.472871e+00
  4.306437e+00    3.595461e+00
  4.322312e+00    3.567757e+00
  4.338188e+00    3.570856e+00
  4.354064e+00    3.577898e+00
  4.369939e+00    3.526254e+00
  4.385815e+00    3.555160e+00
  4.401690e+00    3.537176e+00
  4.417566e+00    3.612952e+00
  4.433441e+00    3.553338e+00
  4.449317e+00    3.582162e+00
  4.465193e+00    3.631621e+00
  4.481068e+00    3.531638e+00
  4.496944e+00    3.644490e+00
  4.512819e+00    3.676303e+00
  4.528695e+00    3.676619e+00
  4.544570e+00    3.639326e+00
  4.560446e+00    3.522250e+00
  4.576322e+00    3.519935e+00
  4.592197e+00    3.526511e+00
  4.608073e+00    3.557105e+00
  4.623948e+00    3.632618e+00
  4.639824e+00    3.612410e+00
  4.655699e+00    3.587902e+00
  4.671575e+00    3.588386e+00
  4.687451e+00    3.671330e+00
  4.703326e+00    3.673377e+00
  4.719202e+00    3.598744e+00
  4.735077e+00    3.595185e+00
  4.750953e+00    3.600530e+00
  4.766828e+00    3.600223e+00
  4.782704e+00    3.667015e+00
  4.798580e+00    3.666497e+00
  4.814455e+00    3.587870e+00
  4.830331e+00    3.606941e+00
  4.846206e+00    3.615520e+00
  4.862082e+00    3.575314e+00
  4.877957e+00    3.655569e+00
  4.893833e+00    3.723328e+00
  4.909709e+00    3.689514e+00
  4.925584e+00    3.677308e+00
  4.941460e+00    3.638197e+00
  4.957335e+00    3.580897e+00
  4.973211e+00    3.693486e+00
  4.989086e+00    3.683706e+00
  5.004962e+00    3.716782e+00
  5.020838e+00    3.679748e+00
  5.036713e+00    3.636308e+00
  5.052589e+00    3.610364e+00
  5.068464e+00    3.595537e+00
  5.084340e+00    3.597796e+00
  5.100216e+00    3.672429e+00
  5.116091e+00    3.714450e+00
  5.131967e+00    3.671725e+00
  5.147842e+00    3.623484e+00
  5.163718e+00    3.690047e+00
  5.179593e+00    3.636683e+00
  5.195469e+00    3.627893e+00
  5.211345e+00    3.642411e+00
  5.227220e+00    3.610218e+00
  5.243096e+00    3.684629e+00
  5.258971e+00    3.575584e+00
  5.274847e+00    3.594389e+00
  5.290722e+00    3.614513e+00
  5.306598e+00    3.637995e+00
  5.322474e+00    3.642174e+00
  5.338349e+00    3.719307e+00
  5.354225e+00    3.702214e+00
  5.370100e+00    3.667600e+00
  5.385976e+00    3.682873e+00
  5.401851e+00    3.605208e+00
  5.417727e+00    3.625598e+00
  5.433603e+00    3.582370e+00
  5.449478e+00    3.664902e+00
  5.465354e+00    3.701919e+00
  5.481229e+00    3.619612e+00
  5.497105e+00    3.534776e+00
  5.512980e+00    3.570220e+00
  5.528856e+00    3.619946e+00
  5.544732e+00    3.617832e+00
  5.560607e+00    3.576009e+00
  5.576483e+00    3.580550e+00
  5.592358e+00    3.558851e+00
  5.608234e+00    3.609444e+00
  5.624109e+00    3.568316e+00
  5.639985e+00    3.556806e+00
  5.655861e+00    3.606172e+00
  5.671736e+00    3.664145e+00
  5.687612e+00    3.656251e+00
  5.703487e+00    3.594924e+00
  5.719363e+00    3.545077e+00
  5.735238e+00    3.544949e+00
  5.751114e+00    3.595306e+00
  5.766990e+00    3.558862e+00
  5.782865e+00    3.432355e+00
  5.798741e+00    3.486361e+00
  5.814616e+00    3.561527e+00
  5.830492e+00    3.465219e+00
  5.846367e+00    3.462017e+00
  5.862243e+00    3.480308e+00
  5.878119e+00    3.544339e+00
  5.893994e+00    3.523246e+00
  5.909870e+00    3.643905e+00
  5.925745e+00    3.646466e+00
  5.941621e+00    3.480211e+00
  5.957497e+00    3.507354e+00
  5.973372e+00    3.518793e+00
  5.989248e+00    3.486406e+00
  6.005123e+00    3.550306e+00
  6.020999e+00    3.562023e+00
  6.036874e+00    3.548057e+00
  6.052750e+00    3.577576e+00
  6.068626e+00    3.601242e+00
  6.084501e+00    3.591135e+00
  6.100377e+00    3.550132e+00
  6.116252e+00    3.529987e+00
  6.132128e+00    3.546614e+00
  6.148003e+00    3.584702e+00
  6.163879e+00    3.575678e+00
  6.179755e+00    3.562115e+00
  6.195630e+00    3.573686e+00
  6.211506e+00    3.635320e+00
  6.227381e+00    3.610723e+00
  6.243257e+00    3.614424e+00
  6.259132e+00    3.546139e+00
  6.275008e+00    3.501690e+00
  6.290884e+00    3.546304e+00
  6.306759e+00    3.641700e+00
  6.322635e+00    3.501565e+00
  6.338510e+00    3.502178e+00
  6.354386e+00    3.508579e+00
  6.370261e+00    3.515874e+00
  6.386137e+00    3.552087e+00
  6.402013e+00    3.530322e+00
  6.417888e+00    3.443780e+00
  6.433764e+00    3.345383e+00
  6.449639e+00    3.412219e+00
  6.465515e+00    3.538376e+00
  6.481390e+00    3.556647e+00
  6.497266e+00    3.475195e+00
  6.513142e+00    3.512209e+00
  6.529017e+00    3.563914e+00
  6.544893e+00    3.583200e+00
  6.560768e+00    3.600077e+00
  6.576644e+00    3.523015e+00
  6.592519e+00    3.537024e+00
  6.608395e+00    3.537333e+00
  6.624271e+00    3.592086e+00
  6.640146e+00    3.543634e+00
  6.656022e+00    3.514854e+00
  6.671897e+00    3.670888e+00
  6.687773e+00    3.602070e+00
  6.703648e+00    3.546986e+00
  6.719524e+00    3.502588e+00
  6.735400e+00    3.576462e+00
  6.751275e+00    3.571336e+00
  6.767151e+00    3.576189e+00
  6.783026e+00    3.496442e+00
  6.798902e+00    3.496312e+00
  6.814777e+00    3.527617e+00
  6.830653e+00    3.544857e+00
  6.846529e+00    3.438259e+00
  6.862404e+00    3.559399e+00
  6.878280e+00    3.604092e+00
  6.894155e+00    3.555626e+00
  6.910031e+00    3.538224e+00
  6.925907e+00    3.523045e+00
  6.941782e+00    3.542057e+00
  6.957658e+00    3.593022e+00
  6.973533e+00    3.633559e+00
  6.989409e+00    3.528268e+00
  7.005284e+00    3.519761e+00
  7.021160e+00    3.484250e+00
  7.037036e+00    3.562927e+00
  7.052911e+00    3.645470e+00
  7.068787e+00    3.478577e+00
  7.084662e+00    3.460891e+00
  7.100538e+00    3.536074e+00
  7.116413e+00    3.479063e+00
  7.132289e+00    3.526540e+00
  7.148165e+00    3.485664e+00
  7.164040e+00    3.455621e+00
  7.179916e+00    3.440362e+00
  7.195791e+00    3.433622e+00
  7.211667e+00    3.555628e+00
  7.227542e+00    3.477824e+00
  7.243418e+00    3.485063e+00
  7.259294e+00    3.527201e+00
  7.275169e+00    3.548050e+00
  7.291045e+00    3.524584e+00
  7.306920e+00    3.447546e+00
  7.322796e+00    3.438182e+00
  7.338671e+00    3.517657e+00
  7.354547e+00    3.494733e+00
  7.370423e+00    3.484180e+00
  7.386298e+00    3.444250e+00
  7.402174e+00    3.439432e+00
  7.418049e+00    3.500181e+00
  7.433925e+00    3.468124e+00
  7.449800e+00    3.482067e+00
  7.465676e+00    3.472713e+00
  7.481552e+00    3.390378e+00
  7.497427e+00    3.506065e+00
  7.513303e+00    3.416150e+00
  7.529178e+00    3.461252e+00
  7.545054e+00    3.527706e+00
  7.560929e+00    3.549982e+00
  7.576805e+00    3.430234e+00
  7.592681e+00    3.472639e+00
  7.608556e+00    3.479024e+00
  7.624432e+00    3.527487e+00
  7.640307e+00    3.486004e+00
  7.656183e+00    3.452267e+00
  7.672058e+00    3.470970e+00
  7.687934e+00    3.432869e+00
  7.703810e+00    3.456465e+00
  7.719685e+00    3.478048e+00
  7.735561e+00    3.441648e+00
  7.751436e+00    3.371161e+00
  7.767312e+00    3.443135e+00
  7.783187e+00    3.452168e+00
  7.799063e+00    3.427287e+00
  7.814939e+00    3.524807e+00
  7.830814e+00    3.498289e+00
  7.846690e+00    3.378345e+00
  7.862565e+00    3.436821e+00
  7.878441e+00    3.463693e+00
  7.894317e+00    3.436796e+00
  7.910192e+00    3.437715e+00
  7.926068e+00    3.411671e+00
  7.941943e+00    3.426661e+00
  7.957819e+00    3.379189e+00
  7.973694e+00    3.398741e+00
  7.989570e+00    3.501651e+00
  8.005446e+00    3.465213e+00
  8.021321e+00    3.450624e+00
  8.037197e+00    3.384756e+00
  8.053072e+00    3.381192e+00
  8.068948e+00    3.358283e+00
  8.084823e+00    3.402382e+00
  8.100699e+00    3.456964e+00
  8.116575e+00    3.388245e+00
  8.132450e+00    3.406581e+00
  8.148326e+00    3.401156e+00
  8.164201e+00    3.429964e+00
  8.180077e+00    3.490911e+00
  8.195952e+00    3.448521e+00
  8.211828e+00    3.534609e+00
  8.227704e+00    3.532619e+00
  8.243579e+00    3.489141e+00
  8.259455e+00    3.455016e+00
  8.275330e+00    3.417123e+00
  8.291206e+00    3.458606e+00
  8.307081e+00    3.431030e+00
  8.322957e+00    3.366003e+00
  8.338833e+00    3.391100e+00
  8.354708e+00    3.478616e+00
  8.370584e+00    3.444573e+00
  8.386459e+00    3.416856e+00
  8.402335e+00    3.358965e+00
  8.418210e+00    3.310885e+00
  8.434086e+00    3.324909e+00
  8.449962e+00    3.342080e+00
  8.465837e+00    3.366383e+00
  8.481713e+00    3.412842e+00
  8.497588e+00    3.433585e+00
  8.513464e+00    3.409345e+00
  8.529339e+00    3.296018e+00
  8.545215e+00    3.288973e+00
  8.561091e+00    3.350756e+00
  8.576966e+00    3.375956e+00
  8.592842e+00    3.398619e+00
  8.608717e+00    3.328342e+00
  8.624593e+00    3.345646e+00
  8.640468e+00    3.326185e+00
  8.656344e+00    3.406142e+00
  8.672220e+00    3.365250e+00
  8.688095e+00    3.369499e+00
  8.703971e+00    3.334494e+00
  8.719846e+00    3.312580e+00
  8.735722e+00    3.335888e+00
  8.751598e+00    3.346591e+00
  8.767473e+00    3.367664e+00
  8.783349e+00    3.370479e+00
  8.799224e+00    3.327537e+00
  8.815100e+00    3.319796e+00
  8.830975e+00    3.369275e+00
  8.846851e+00    3.340620e+00
  8.862727e+00    3.266346e+00
  8.878602e+00    3.336550e+00
  8.894478e+00    3.359750e+00
  8.910353e+00    3.338917e+00
  8.926229e+00    3.317667e+00
  8.942104e+00    3.332818e+00
  8.957980e+00    3.304838e+00
  8.973856e+00    3.249361e+00
  8.989731e+00    3.244515e+00
  9.005607e+00    3.317845e+00
  9.021482e+00    3.292607e+00
  9.037358e+00    3.336740e+00
  9.053233e+00    3.330341e+00
  9.069109e+00    3.258007e+00
  9.084985e+00    3.270053e+00
  9.100860e+00    3.290362e+00
  9.116736e+00    3.276262e+00
  9.132611e+00    3.261631e+00
  9.148487e+00    3.314241e+00
  9.164362e+00    3.281925e+00
  9.180238e+00    3.180647e+00
  9.196114e+00    3.214275e+00
  9.211989e+00    3.251563e+00
  9.227865e+00    3.216609e+00
  9.243740e+00    3.279133e+00
  9.259616e+00    3.213769e+00
  9.275491e+00    3.194769e+00
  9.291367e+00    3.153786e+00
  9.307243e+00    3.188769e+00
  9.323118e+00    3.244002e+00
  9.338994e+00    3.279962e+00
  9.354869e+00    3.242093e+00
  9.370745e+00    3.270238e+00
  9.386620e+00    3.297165e+00
  9.402496e+00    3.239790e+00
  9.418372e+00    3.232370e+00
  9.434247e+00    3.207812e+00
  9.450123e+00    3.175477e+00
  9.465998e+00    3.208785e+00
  9.481874e+00    3.261680e+00
  9.497749e+00    3.260282e+00
  9.513625e+00    3.260436e+00
  9.529501e+00    3.221463e+00
  9.545376e+00    3.229014e+00
  9.561252e+00    3.206540e+00
  9.577127e+00    3.211935e+00
  9.593003e+00    3.209227e+00
  9.608878e+00    3.208120e+00
  9.624754e+00    3.203119e+00
  9.640630e+00    3.180959e+00
  9.656505e+00    3.167719e+00
  9.672381e+00    3.154112e+00
  9.688256e+00    3.190593e+00
  9.704132e+00    3.129062e+00
  9.720008e+00    3.189601e+00
  9.735883e+00    3.145970e+00
  9.751759e+00    3.149140e+00
  9.767634e+00    3.161891e+00
  9.783510e+00    3.111654e+00
  9.799385e+00    3.103547e+00
  9.815261e+00    3.156788e+00
  9.831137e+00    3.172565e+00
  9.847012e+00    3.167796e+00
  9.862888e+00    3.185949e+00
  9.878763e+00    3.126790e+00
  9.894639e+00    3.090263e+00
  9.910514e+00    3.140449e+00
  9.926390e+00    3.112620e+00
  9.942266e+00    3.066311e+00
  9.958141e+00    3.039630e+00
  9.974017e+00    3.144628e+00
  9.989892e+00    3.078610e+00
  1.000577e+01    3.074019e+00
  1.002164e+01    3.085273e+00
  1.003752e+01    3.062046e+00
  1.005339e+01    3.097646e+00
  1.006927e+01    3.101836e+00
  1.008515e+01    3.035923e+00
  1.010102e+01    3.074101e+00
  1.011690e+01    3.082688e+00
  1.013277e+01    3.096577e+00
  1.014865e+01    3.091808e+00
  1.016452e+01    3.081013e+00
  1.018040e+01    3.051503e+00
  1.019627e+01    3.050216e+00
  1.021215e+01    3.050603e+00
  1.022803e+01    3.059985e+00
  1.024390e+01    3.112978e+00
  1.025978e+01    3.051639e+00
  1.027565e+01    3.089316e+00
  1.029153e+01    3.044345e+00
  1.030740e+01    3.021005e+00
  1.032328e+01    3.030091e+00
  1.033915e+01    3.022143e+00
  1.035503e+01    3.030207e+00
  1.037091e+01    3.013004e+00
  1.038678e+01    2.982714e+00
  1.040266e+01    3.007264e+00
  1.041853e+01    3.060639e+00
  1.043441e+01    3.040533e+00
  1.045028e+01    3.002619e+00
  1.046616e+01    3.032851e+00
  1.048204e+01    2.990069e+00
  1.049791e+01    3.061041e+00
  1.051379e+01    3.039306e+00
  1.052966e+01    3.002547e+00
  1.054554e+01    2.977717e+00
  1.056141e+01    2.979769e+00
  1.057729e+01    2.991874e+00
  1.059316e+01    2.968814e+00
  1.060904e+01    3.030165e+00
  1.062492e+01    2.990321e+00
  1.064079e+01    2.910404e+00
  1.065667e+01    2.952887e+00
  1.067254e+01    2.962532e+00
  1.068842e+01    2.948431e+00
  1.070429e+01    2.955775e+00
  1.072017e+01    2.974935e+00
  1.073604e+01    2.968024e+00
  1.075192e+01    3.006851e+00
  1.076780e+01    2.990892e+00
  1.078367e+01    2.882955e+00
  1.079955e+01    2.916850e+00
  1.081542e+01    2.976756e+00
  1.083130e+01    2.915449e+00
  1.084717e+01    2.933546e+00
  1.086305e+01    2.912389e+00
  1.087892e+01    2.934091e+00
  1.089480e+01    2.967518e+00
  1.091068e+01    2.938720e+00
  1.092655e+01    2.906968e+00
  1.094243e+01    2.947623e+00
  1.095830e+01    2.924624e+00
  1.097418e+01    2.870002e+00
  1.099005e+01    2.860926e+00
  1.100593e+01    2.836702e+00
  1.102180e+01    2.847775e+00
  1.103768e+01    2.840853e+00
  1.105356e+01    2.856126e+00
  1.106943e+01    2.868877e+00
  1.108531e+01    2.892429e+00
  1.110118e+01    2.885689e+00
  1.111706e+01    2.861494e+00
  1.113293e+01    2.925401e+00
  1.114881e+01    2.914579e+00
  1.116468e+01    2.875563e+00
  1.118056e+01    2.843284e+00
  1.119644e+01    2.886198e+00
  1.121231e+01    2.898565e+00
  1.122819e+01    2.827897e+00
  1.124406e+01    2.884979e+00
  1.125994e+01    2.857318e+00
  1.127581e+01    2.839751e+00
  1.129169e+01    2.811091e+00
  1.130756e+01    2.834885e+00
  1.132344e+01    2.860156e+00
  1.133932e+01    2.765809e+00
  1.135519e+01    2.759592e+00
  1.137107e+01    2.804610e+00
  1.138694e+01    2.805127e+00
  1.140282e+01    2.886456e+00
  1.141869e+01    2.819203e+00
  1.143457e+01    2.802289e+00
  1.145045e+01    2.857156e+00
  1.146632e+01    2.820868e+00
  1.148220e+01    2.825680e+00
  1.149807e+01    2.839965e+00
  1.151395e+01    2.854536e+00
  1.152982e+01    2.779755e+00
  1.154570e+01    2.767604e+00
  1.156157e+01    2.782337e+00
  1.157745e+01    2.803166e+00
  1.159333e+01    2.812754e+00
  1.160920e+01    2.825179e+00
  1.162508e+01    2.825806e+00
  1.164095e+01    2.799684e+00
  1.165683e+01    2.795248e+00
  1.167270e+01    2.820594e+00
  1.168858e+01    2.776958e+00
  1.170445e+01    2.781767e+00
  1.172033e+01    2.779841e+00
  1.173621e+01    2.735589e+00
  1.175208e+01    2.735670e+00
  1.176796e+01    2.774534e+00
  1.178383e+01    2.770876e+00
  1.179971e+01    2.722679e+00
  1.181558e+01    2.725839e+00
  1.183146e+01    2.709520e+00
  1.184733e+01    2.672170e+00
  1.186321e+01    2.708065e+00
  1.187909e+01    2.726063e+00
  1.189496e+01    2.766928e+00
  1.191084e+01    2.763276e+00
  1.192671e+01    2.742253e+00
  1.194259e+01    2.730363e+00
  1.195846e+01    2.725353e+00
  1.197434e+01    2.684982e+00
  1.199021e+01    2.725727e+00
  1.200609e+01    2.712506e+00
  1.202197e+01    2.674033e+00
  1.203784e+01    2.712360e+00
  1.205372e+01    2.728094e+00
  1.206959e+01    2.729184e+00
  1.208547e+01    2.723720e+00
  1.210134e+01    2.733642e+00
  1.211722e+01    2.707773e+00
  1.213309e+01    2.711669e+00
  1.214897e+01    2.736906e+00
  1.216485e+01    2.712319e+00
  1.218072e+01    2.688336e+00
  1.219660e+01    2.682117e+00
  1.221247e+01    2.717107e+00
  1.222835e+01    2.678826e+00
  1.224422e+01    2.709598e+00
  1.226010e+01    2.746409e+00
  1.227597e+01    2.695750e+00
  1.229185e+01    2.661525e+00
  1.230773e+01    2.652163e+00
  1.232360e+01    2.674010e+00
  1.233948e+01    2.679828e+00
  1.235535e+01    2.687854e+00
  1.237123e+01    2.685490e+00
  1.238710e+01    2.690779e+00
  1.240298e+01    2.654222e+00
  1.241886e+01    2.716095e+00
  1.243473e+01    2.688283e+00
  1.245061e+01    2.694813e+00
  1.246648e+01    2.700040e+00
  1.248236e+01    2.736856e+00
  1.249823e+01    2.745044e+00
  1.251411e+01    2.676080e+00
  1.252998e+01    2.667600e+00
  1.254586e+01    2.683737e+00
  1.256174e+01    2.729037e+00
  1.257761e+01    2.717159e+00
  1.259349e+01    2.709185e+00
  1.260936e+01    2.715376e+00
  1.262524e+01    2.763930e+00
  1.264111e+01    2.788529e+00
  1.265699e+01    2.742357e+00
  1.267286e+01    2.750501e+00
  1.268874e+01    2.820212e+00
  1.270462e+01    2.818392e+00
  1.272049e+01    2.831969e+00
  1.273637e+01    2.854194e+00
  1.275224e+01    2.875092e+00
  1.276812e+01    2.883699e+00
  1.278399e+01    2.933733e+00
  1.279987e+01    2.982130e+00
  1.281574e+01    3.023550e+00
  1.283162e+01    3.108239e+00
  1.284750e+01    3.182936e+00
  1.286337e+01    3.271569e+00
  1.287925e+01    3.380716e+00
  1.289512e+01    3.503411e+00
  1.291100e+01    3.648206e+00
  1.292687e+01    3.811901e+00
  1.294275e+01    4.041490e+00
  1.295862e+01    4.381077e+00
  1.297450e+01    4.773602e+00
  1.299038e+01    5.295148e+00
  1.300625e+01    5.875052e+00
  1.302213e+01    6.711873e+00
  1.303800e+01    7.739684e+00
  1.305388e+01    8.880046e+00
  1.306975e+01    1.011447e+01
  1.308563e+01    1.140308e+01
  1.310150e+01    1.256123e+01
  1.311738e+01    1.365796e+01
  1.313326e+01    1.472646e+01
  1.314913e+01    1.561512e+01
  1.316501e+01    1.636595e+01
  1.318088e+01    1.634656e+01
  1.319676e+01    1.561760e+01
  1.321263e+01    1.435137e+01
  1.322851e+01    1.262502e+01
  1.324438e+01    1.070870e+01
  1.326026e+01    9.186783e+00
  1.327614e+01    7.853670e+00
  1.329201e+01    6.801174e+00
  1.330789e+01    5.952833e+00
  1.332376e+01    5.340031e+00
  1.333964e+01    4.837531e+00
  1.335551e+01    4.423424e+00
  1.337139e+01    4.115243e+00
  1.338727e+01    3.898064e+00
  1.340314e+01    3.628831e+00
  1.341902e+01    3.510058e+00
  1.343489e+01    3.386796e+00
  1.345077e+01    3.236312e+00
  1.346664e+01    3.124353e+00
  1.348252e+01    3.079940e+00
  1.349839e+01    2.984480e+00
  1.351427e+01    2.955657e+00
  1.353015e+01    2.860528e+00
  1.354602e+01    2.776234e+00
  1.356190e+01    2.752595e+00
  1.357777e+01    2.750015e+00
  1.359365e+01    2.711770e+00
  1.360952e+01    2.686099e+00
  1.362540e+01    2.696351e+00
  1.364127e+01    2.664801e+00
  1.365715e+01    2.623022e+00
  1.367303e+01    2.591053e+00
  1.368890e+01    2.546572e+00
  1.370478e+01    2.550913e+00
  1.372065e+01    2.516233e+00
  1.373653e+01    2.480253e+00
  1.375240e+01    2.504050e+00
  1.376828e+01    2.489455e+00
  1.378415e+01    2.514457e+00
  1.380003e+01    2.508111e+00
  1.381591e+01    2.459389e+00
  1.383178e+01    2.434963e+00
  1.384766e+01    2.427706e+00
  1.386353e+01    2.419039e+00
  1.387941e+01    2.428006e+00
  1.389528e+01    2.419585e+00
  1.391116e+01    2.429069e+00
  1.392703e+01    2.392992e+00
  1.394291e+01    2.388246e+00
  1.395879e+01    2.392523e+00
  1.397466e+01    2.344896e+00
  1.399054e+01    2.356914e+00
  1.400641e+01    2.339345e+00
  1.402229e+01    2.318444e+00
  1.403816e+01    2.330482e+00
  1.405404e+01    2.324118e+00
  1.406991e+01    2.310673e+00
  1.408579e+01    2.308077e+00
  1.410167e+01    2.330946e+00
  1.411754e+01    2.328218e+00
  1.413342e+01    2.328290e+00
  1.414929e+01    2.312727e+00
  1.416517e+01    2.336703e+00
  1.418104e+01    2.349033e+00
  1.419692e+01    2.307025e+00
  1.421279e+01    2.282319e+00
  1.422867e+01    2.286748e+00
  1.424455e+01    2.265629e+00
  1.426042e+01    2.269594e+00
  1.427630e+01    2.284138e+00
  1.429217e+01    2.269547e+00
  1.430805e+01    2.268543e+00
  1.432392e+01    2.298476e+00
  1.433980e+01    2.305926e+00
  1.435568e+01    2.290070e+00
  1.437155e+01    2.296148e+00
  1.438743e+01    2.268038e+00
  1.440330e+01    2.238334e+00
  1.441918e+01    2.259711e+00
  1.443505e+01    2.284172e+00
  1.445093e+01    2.312540e+00
  1.446680e+01    2.232422e+00
  1.448268e+01    2.203852e+00
  1.449856e+01    2.220323e+00
  1.451443e+01    2.227489e+00
  1.453031e+01    2.242289e+00
  1.454618e+01    2.244868e+00
  1.456206e+01    2.221236e+00
  1.457793e+01    2.247879e+00
  1.459381e+01    2.215065e+00
  1.460968e+01    2.215107e+00
  1.462556e+01    2.212741e+00
  1.464144e+01    2.225812e+00
  1.465731e+01    2.193736e+00
  1.467319e+01    2.153632e+00
  1.468906e+01    2.196176e+00
  1.470494e+01    2.178230e+00
  1.472081e+01    2.174145e+00
  1.473669e+01    2.181604e+00
  1.475256e+01    2.194512e+00
  1.476844e+01    2.221122e+00
  1.478432e+01    2.205329e+00
  1.480019e+01    2.199456e+00
  1.481607e+01    2.182936e+00
  1.483194e+01    2.188565e+00
  1.484782e+01    2.213308e+00
  1.486369e+01    2.240301e+00
  1.487957e+01    2.226326e+00
  1.489544e+01    2.251907e+00
  1.491132e+01    2.253438e+00
  1.492720e+01    2.281336e+00
  1.494307e+01    2.278717e+00
  1.495895e+01    2.296655e+00
  1.497482e+01    2.336804e+00
  1.499070e+01    2.364219e+00
  1.500657e+01    2.386931e+00
  1.502245e+01    2.499009e+00
  1.503832e+01    2.592093e+00
  1.505420e+01    2.643836e+00
  1.507008e+01    2.810852e+00
  1.508595e+01    3.064715e+00
  1.510183e+01    3.186485e+00
  1.511770e+01    3.419748e+00
  1.513358e+01    3.740442e+00
  1.514945e+01    4.128132e+00
  1.516533e+01    4.482821e+00
  1.518120e+01    4.882885e+00
  1.519708e+01    5.205724e+00
  1.521296e+01    5.379138e+00
  1.522883e+01    5.598446e+00
  1.524471e+01    5.810593e+00
  1.526058e+01    5.797681e+00
  1.527646e+01    5.741087e+00
  1.529233e+01    5.522172e+00
  1.530821e+01    5.137015e+00
  1.532409e+01    4.700206e+00
  1.533996e+01    4.220133e+00
  1.535584e+01    3.737756e+00
  1.537171e+01    3.394427e+00
  1.538759e+01    3.146682e+00
  1.540346e+01    2.900083e+00
  1.541934e+01    2.779347e+00
  1.543521e+01    2.625063e+00
  1.545109e+01    2.517391e+00
  1.546697e+01    2.451498e+00
  1.548284e+01    2.340592e+00
  1.549872e+01    2.296322e+00
  1.551459e+01    2.257206e+00
  1.553047e+01    2.203090e+00
  1.554634e+01    2.201214e+00
  1.556222e+01    2.156881e+00
  1.557809e+01    2.102977e+00
  1.559397e+01    2.107710e+00
  1.560985e+01    2.113019e+00
  1.562572e+01    2.029729e+00
  1.564160e+01    2.004256e+00
  1.565747e+01    2.051763e+00
  1.567335e+01    2.046689e+00
  1.568922e+01    2.018752e+00
  1.570510e+01    2.003995e+00
  1.572097e+01    2.037771e+00
  1.573685e+01    2.030290e+00
  1.575273e+01    1.973601e+00
  1.576860e+01    1.937199e+00
  1.578448e+01    1.930058e+00
  1.580035e+01    1.931570e+00
  1.581623e+01    1.890205e+00
  1.583210e+01    1.928099e+00
  1.584798e+01    1.919598e+00
  1.586385e+01    1.917825e+00
  1.587973e+01    1.912046e+00
  1.589561e+01    1.921228e+00
  1.591148e+01    1.909630e+00
  1.592736e+01    1.907366e+00
  1.594323e+01    1.920290e+00
  1.595911e+01    1.890026e+00
  1.597498e+01    1.899760e+00
  1.599086e+01    1.923908e+00
  1.600673e+01    1.866712e+00
  1.602261e+01    1.879578e+00
  1.603849e+01    1.892036e+00
  1.605436e+01    1.862551e+00
  1.607024e+01    1.822077e+00
  1.608611e+01    1.821411e+00
  1.610199e+01    1.835597e+00
  1.611786e+01    1.859646e+00
  1.613374e+01    1.828383e+00
  1.614961e+01    1.818528e+00
  1.616549e+01    1.823931e+00
  1.618137e+01    1.802889e+00
  1.619724e+01    1.809485e+00
  1.621312e+01    1.829032e+00
  1.622899e+01    1.811653e+00
  1.624487e+01    1.814490e+00
  1.626074e+01    1.795011e+00
  1.627662e+01    1.797725e+00
  1.629250e+01    1.817552e+00
  1.630837e+01    1.819311e+00
  1.632425e+01    1.786328e+00
  1.634012e+01    1.794332e+00
  1.635600e+01    1.790489e+00
  1.637187e+01    1.778571e+00
  1.638775e+01    1.801698e+00
  1.640362e+01    1.766452e+00
  1.641950e+01    1.761762e+00
  1.643538e+01    1.762216e+00
  1.645125e+01    1.774251e+00
  1.646713e+01    1.798667e+00
  1.648300e+01    1.799796e+00
  1.649888e+01    1.783983e+00
  1.651475e+01    1.740536e+00
  1.653063e+01    1.738813e+00
  1.654650e+01    1.765007e+00
  1.656238e+01    1.757720e+00
  1.657826e+01    1.761887e+00
  1.659413e+01    1.767036e+00
  1.661001e+01    1.739984e+00
  1.662588e+01    1.709323e+00
  1.664176e+01    1.728058e+00
  1.665763e+01    1.762559e+00
  1.667351e+01    1.772916e+00
  1.668938e+01    1.749308e+00
  1.670526e+01    1.719391e+00
  1.672114e+01    1.732630e+00
  1.673701e+01    1.723711e+00
  1.675289e+01    1.702421e+00
  1.676876e+01    1.712861e+00
  1.678464e+01    1.733169e+00
  1.680051e+01    1.701835e+00
  1.681639e+01    1.714872e+00
  1.683226e+01    1.705113e+00
  1.684814e+01    1.707979e+00
  1.686402e+01    1.713088e+00
  1.687989e+01    1.696511e+00
  1.689577e+01    1.708290e+00
  1.691164e+01    1.679160e+00
  1.692752e+01    1.679161e+00
  1.694339e+01    1.660121e+00
  1.695927e+01    1.685599e+00
  1.697514e+01    1.663373e+00
  1.699102e+01    1.662985e+00
  1.700690e+01    1.667172e+00
  1.702277e+01    1.657841e+00
  1.703865e+01    1.664977e+00
  1.705452e+01    1.666162e+00
  1.707040e+01    1.651460e+00
  1.708627e+01    1.652843e+00
  1.710215e+01    1.690789e+00
  1.711802e+01    1.654493e+00
  1.713390e+01    1.661604e+00
  1.714978e+01    1.652224e+00
  1.716565e+01    1.641162e+00
  1.718153e+01    1.666667e+00
  1.719740e+01    1.618524e+00
  1.721328e+01    1.601854e+00
  1.722915e+01    1.602186e+00
  1.724503e+01    1.609494e+00
  1.726091e+01    1.644248e+00
  1.727678e+01    1.603888e+00
  1.729266e+01    1.595096e+00
  1.730853e+01    1.613364e+00
  1.732441e+01    1.581758e+00
  1.734028e+01    1.605569e+00
  1.735616e+01    1.626544e+00
  1.737203e+01    1.599761e+00
  1.738791e+01    1.558518e+00
  1.740379e+01    1.552224e+00
  1.741966e+01    1.584139e+00
  1.743554e+01    1.600834e+00
  1.745141e+01    1.590852e+00
  1.746729e+01    1.595003e+00
  1.748316e+01    1.578289e+00
  1.749904e+01    1.572258e+00
  1.751491e+01    1.600725e+00
  1.753079e+01    1.582483e+00
  1.754667e+01    1.588137e+00
  1.756254e+01    1.568169e+00
  1.757842e+01    1.569326e+00
  1.759429e+01    1.568799e+00
  1.761017e+01    1.553306e+00
  1.762604e+01    1.566829e+00
  1.764192e+01    1.568417e+00
  1.765779e+01    1.595551e+00
  1.767367e+01    1.593079e+00
  1.768955e+01    1.587795e+00
  1.770542e+01    1.592147e+00
  1.772130e+01    1.567847e+00
  1.773717e+01    1.557243e+00
  1.775305e+01    1.557237e+00
  1.776892e+01    1.578123e+00
  1.778480e+01    1.579636e+00
  1.780067e+01    1.547758e+00
  1.781655e+01    1.510191e+00
  1.783243e+01    1.524101e+00
  1.784830e+01    1.561269e+00
  1.786418e+01    1.499092e+00
  1.788005e+01    1.506854e+00
  1.789593e+01    1.517964e+00
  1.791180e+01    1.519319e+00
  1.792768e+01    1.536886e+00
  1.794355e+01    1.543088e+00
  1.795943e+01    1.522508e+00
  1.797531e+01    1.505979e+00
  1.799118e+01    1.473614e+00
  1.800706e+01    1.473172e+00
  1.802293e+01    1.516645e+00
  1.803881e+01    1.507011e+00
  1.805468e+01    1.524658e+00
  1.807056e+01    1.518041e+00
  1.808643e+01    1.514829e+00
  1.810231e+01    1.514482e+00
  1.811819e+01    1.463850e+00
  1.813406e+01    1.507157e+00
  1.814994e+01    1.500075e+00
  1.816581e+01    1.512523e+00
  1.818169e+01    1.515513e+00
  1.819756e+01    1.473542e+00
  1.821344e+01    1.496089e+00
  1.822932e+01    1.457473e+00
  1.824519e+01    1.462577e+00
  1.826107e+01    1.492188e+00
  1.827694e+01    1.504679e+00
  1.829282e+01    1.502579e+00
  1.830869e+01    1.480378e+00
  1.832457e+01    1.464346e+00
  1.834044e+01    1.472306e+00
  1.835632e+01    1.472245e+00
  1.837220e+01    1.443033e+00
  1.838807e+01    1.437809e+00
  1.840395e+01    1.420061e+00
  1.841982e+01    1.454048e+00
  1.843570e+01    1.447009e+00
  1.845157e+01    1.447817e+00
  1.846745e+01    1.456056e+00
  1.848332e+01    1.459971e+00
  1.849920e+01    1.459910e+00
  1.851508e+01    1.446907e+00
  1.853095e+01    1.430411e+00
  1.854683e+01    1.441257e+00
  1.856270e+01    1.412207e+00
  1.857858e+01    1.432169e+00
  1.859445e+01    1.434060e+00
  1.861033e+01    1.436038e+00
  1.862620e+01    1.414517e+00
  1.864208e+01    1.407655e+00
  1.865796e+01    1.402131e+00
  1.867383e+01    1.415744e+00
  1.868971e+01    1.440015e+00
  1.870558e+01    1.428283e+00
  1.872146e+01    1.427656e+00
  1.873733e+01    1.439757e+00
  1.875321e+01    1.417484e+00
  1.876908e+01    1.413144e+00
  1.878496e+01    1.424697e+00
  1.880084e+01    1.423312e+00
  1.881671e+01    1.431281e+00
  1.883259e+01    1.408502e+00
  1.884846e+01    1.392285e+00
  1.886434e+01    1.388233e+00
  1.888021e+01    1.383854e+00
  1.889609e+01    1.387566e+00
  1.891196e+01    1.405722e+00
  1.892784e+01    1.397870e+00
  1.894372e+01    1.382199e+00
  1.895959e+01    1.378966e+00
  1.897547e+01    1.389230e+00
  1.899134e+01    1.394480e+00
  1.900722e+01    1.375667e+00
  1.902309e+01    1.369383e+00
  1.903897e+01    1.418372e+00
  1.905484e+01    1.391388e+00
  1.907072e+01    1.380547e+00
  1.908660e+01    1.371761e+00
  1.910247e+01    1.380741e+00
  1.911835e+01    1.354441e+00
  1.913422e+01    1.363562e+00
  1.915010e+01    1.354232e+00
  1.916597e+01    1.360127e+00
  1.918185e+01    1.370695e+00
  1.919773e+01    1.351266e+00
  1.921360e+01    1.341791e+00
  1.922948e+01    1.347130e+00
  1.924535e+01    1.354633e+00
  1.926123e+01    1.391362e+00
  1.927710e+01    1.353866e+00
  1.929298e+01    1.385330e+00
  1.930885e+01    1.371909e+00
  1.932473e+01    1.365470e+00
  1.934061e+01    1.349353e+00
  1.935648e+01    1.334381e+00
  1.937236e+01    1.348072e+00
  1.938823e+01    1.353757e+00
  1.940411e+01    1.360578e+00
  1.941998e+01    1.368821e+00
  1.943586e+01    1.357712e+00
  1.945173e+01    1.313497e+00
  1.946761e+01    1.335857e+00
  1.948349e+01    1.360157e+00
  1.949936e+01    1.351241e+00
  1.951524e+01    1.331502e+00
  1.953111e+01    1.308271e+00
  1.954699e+01    1.343890e+00
  1.956286e+01    1.341567e+00
  1.957874e+01    1.319520e+00
  1.959461e+01    1.298081e+00
  1.961049e+01    1.304600e+00
  1.962637e+01    1.311470e+00
  1.964224e+01    1.310444e+00
  1.965812e+01    1.327265e+00
  1.967399e+01    1.327589e+00
  1.968987e+01    1.324331e+00
  1.970574e+01    1.317477e+00
  1.972162e+01    1.302827e+00
  1.973749e+01    1.324690e+00
  1.975337e+01    1.314423e+00
  1.976925e+01    1.314121e+00
  1.978512e+01    1.295534e+00
  1.980100e+01    1.288961e+00
  1.981687e+01    1.274980e+00
  1.983275e+01    1.284104e+00
  1.984862e+01    1.280271e+00
  1.986450e+01    1.276605e+00
  1.988037e+01    1.286073e+00
  1.989625e+01    1.294647e+00
  1.991213e+01    1.304822e+00
  1.992800e+01    1.292557e+00
  1.994388e+01    1.284627e+00
  1.995975e+01    1.270365e+00
  1.997563e+01    1.310391e+00
  1.999150e+01    1.309886e+00
  2.000738e+01    1.298360e+00
  2.002325e+01    1.282634e+00
  2.003913e+01    1.305085e+00
  2.005501e+01    1.318130e+00
  2.007088e+01    1.298666e+00
  2.008676e+01    1.274710e+00
  2.010263e+01    1.267409e+00
  2.011851e+01    1.279067e+00
  2.013438e+01    1.276279e+00
  2.015026e+01    1.263401e+00
  2.016614e+01    1.267081e+00
  2.018201e+01    1.265277e+00
  2.019789e+01    1.251987e+00
  2.021376e+01    1.256206e+00
  2.022964e+01    1.271927e+00
  2.024551e+01    1.271510e+00
  2.026139e+01    1.262346e+00
  2.027726e+01    1.253186e+00
  2.029314e+01    1.271457e+00
  2.030902e+01    1.296910e+00
  2.032489e+01    1.277229e+00
  2.034077e+01    1.243976e+00
  2.035664e+01    1.225914e+00
  2.037252e+01    1.267521e+00
  2.038839e+01    1.270204e+00
  2.040427e+01    1.252167e+00
  2.042014e+01    1.247496e+00
  2.043602e+01    1.234971e+00
  2.045190e+01    1.249888e+00
  2.046777e+01    1.227256e+00
  2.048365e+01    1.235330e+00
  2.049952e+01    1.266628e+00
  2.051540e+01    1.228268e+00
  2.053127e+01    1.204776e+00
  2.054715e+01    1.226720e+00
  2.056302e+01    1.244154e+00
  2.057890e+01    1.219730e+00
  2.059478e+01    1.233343e+00
  2.061065e+01    1.235512e+00
  2.062653e+01    1.215586e+00
  2.064240e+01    1.212029e+00
  2.065828e+01    1.214644e+00
  2.067415e+01    1.227240e+00
  2.069003e+01    1.212384e+00
  2.070590e+01    1.207266e+00
  2.072178e+01    1.230653e+00
  2.073766e+01    1.216133e+00
  2.075353e+01    1.201083e+00
  2.076941e+01    1.232021e+00
  2.078528e+01    1.234059e+00
  2.080116e+01    1.210687e+00
  2.081703e+01    1.214701e+00
  2.083291e+01    1.242920e+00
  2.084878e+01    1.245198e+00
  2.086466e+01    1.246741e+00
  2.088054e+01    1.211338e+00
  2.089641e+01    1.216251e+00
  2.091229e+01    1.243572e+00
  2.092816e+01    1.231074e+00
  2.094404e+01    1.200703e+00
  2.095991e+01    1.215790e+00
  2.097579e+01    1.198363e+00
  2.099166e+01    1.216567e+00
  2.100754e+01    1.216824e+00
  2.102342e+01    1.209265e+00
  2.103929e+01    1.213197e+00
  2.105517e+01    1.223757e+00
  2.107104e+01    1.224692e+00
  2.108692e+01    1.203342e+00
  2.110279e+01    1.202080e+00
  2.111867e+01    1.203291e+00
  2.113455e+01    1.232442e+00
  2.115042e+01    1.229756e+00
  2.116630e+01    1.220979e+00
  2.118217e+01    1.230846e+00
  2.119805e+01    1.224622e+00
  2.121392e+01    1.225238e+00
  2.122980e+01    1.235273e+00
  2.124567e+01    1.254467e+00
  2.126155e+01    1.257805e+00
  2.127743e+01    1.256358e+00
  2.129330e+01    1.257086e+00
  2.130918e+01    1.262586e+00
  2.132505e+01    1.255187e+00
  2.134093e+01    1.283972e+00
  2.135680e+01    1.283354e+00
  2.137268e+01    1.274748e+00
  2.138855e+01    1.298885e+00
  2.140443e+01    1.312557e+00
  2.142031e+01    1.345254e+00
  2.143618e+01    1.344776e+00
  2.145206e+01    1.359175e+00
  2.146793e+01    1.382218e+00
  2.148381e+01    1.426142e+00
  2.149968e+01    1.433246e+00
  2.151556e+01    1.454324e+00
  2.153143e+01    1.492385e+00
  2.154731e+01    1.515864e+00
  2.156319e+01    1.545846e+00
  2.157906e+01    1.593470e+00
  2.159494e+01    1.661901e+00
  2.161081e+01    1.772014e+00
  2.162669e+01    1.853936e+00
  2.164256e+01    1.968144e+00
  2.165844e+01    2.125543e+00
  2.167431e+01    2.299968e+00
  2.169019e+01    2.493907e+00
  2.170607e+01    2.769192e+00
  2.172194e+01    3.089834e+00
  2.173782e+01    3.483737e+00
  2.175369e+01    3.984403e+00
  2.176957e+01    4.534421e+00
  2.178544e+01    5.113608e+00
  2.180132e+01    5.786500e+00
  2.181719e+01    6.442319e+00
  2.183307e+01    7.170097e+00
  2.184895e+01    7.821287e+00
  2.186482e+01    8.345134e+00
  2.188070e+01    8.715633e+00
  2.189657e+01    8.918821e+00
  2.191245e+01    8.814013e+00
  2.192832e+01    8.209782e+00
  2.194420e+01    7.520905e+00
  2.196007e+01    6.607157e+00
  2.197595e+01    5.697168e+00
  2.199183e+01    4.893149e+00
  2.200770e+01    4.189206e+00
  2.202358e+01    3.621527e+00
  2.203945e+01    3.192332e+00
  2.205533e+01    2.829431e+00
  2.207120e+01    2.575130e+00
  2.208708e+01    2.383365e+00
  2.210296e+01    2.171798e+00
  2.211883e+01    1.984967e+00
  2.213471e+01    1.872322e+00
  2.215058e+01    1.770331e+00
  2.216646e+01    1.706189e+00
  2.218233e+01    1.617223e+00
  2.219821e+01    1.538037e+00
  2.221408e+01    1.476331e+00
  2.222996e+01    1.440769e+00
  2.224584e+01    1.418402e+00
  2.226171e+01    1.391818e+00
  2.227759e+01    1.337701e+00
  2.229346e+01    1.304225e+00
  2.230934e+01    1.306054e+00
  2.232521e+01    1.270866e+00
  2.234109e+01    1.239621e+00
  2.235696e+01    1.249639e+00
  2.237284e+01    1.239094e+00
  2.238872e+01    1.217779e+00
  2.240459e+01    1.223988e+00
  2.242047e+01    1.212968e+00
  2.243634e+01    1.175032e+00
  2.245222e+01    1.144642e+00
  2.246809e+01    1.161180e+00
  2.248397e+01    1.153165e+00
  2.249984e+01    1.144162e+00
  2.251572e+01    1.141779e+00
  2.253160e+01    1.155789e+00
  2.254747e+01    1.125273e+00
  2.256335e+01    1.124565e+00
  2.257922e+01    1.105714e+00
  2.259510e+01    1.114762e+00
  2.261097e+01    1.090796e+00
  2.262685e+01    1.079496e+00
  2.264272e+01    1.084442e+00
  2.265860e+01    1.067923e+00
  2.267448e+01    1.082606e+00
  2.269035e+01    1.089947e+00
  2.270623e+01    1.078884e+00
  2.272210e+01    1.068363e+00
  2.273798e+01    1.061397e+00
  2.275385e+01    1.069348e+00
  2.276973e+01    1.057012e+00
  2.278560e+01    1.063686e+00
  2.280148e+01    1.046514e+00
  2.281736e+01    1.032388e+00
  2.283323e+01    1.037107e+00
  2.284911e+01    1.049027e+00
  2.286498e+01    1.046666e+00
  2.288086e+01    1.037028e+00
  2.289673e+01    1.048898e+00
  2.291261e+01    1.039090e+00
  2.292848e+01    1.051632e+00
  2.294436e+01    1.034388e+00
  2.296024e+01    1.020532e+00
  2.297611e+01    1.024203e+00
  2.299199e+01    1.024712e+00
  2.300786e+01    1.006365e+00
  2.302374e+01    1.021950e+00
  2.303961e+01    1.023600e+00
  2.305549e+01    1.025250e+00
  2.307137e+01    1.003887e+00
  2.308724e+01    9.933677e-01
  2.310312e+01    9.947044e-01
  2.311899e+01    9.904599e-01
  2.313487e+01    1.014852e+00
  2.315074e+01    1.004453e+00
  2.316662e+01    9.807148e-01
  2.318249e+01    9.766594e-01
  2.319837e+01    9.957864e-01
  2.321425e+01    9.966570e-01
  2.323012e+01    9.795234e-01
  2.324600e+01    9.877319e-01
  2.326187e+01    1.014971e+00
  2.327775e+01    1.009817e+00
  2.329362e+01    9.835097e-01
  2.330950e+01    9.641977e-01
  2.332537e+01    9.498441e-01
  2.334125e+01    9.783125e-01
  2.335713e+01    9.735025e-01
  2.337300e+01    9.689517e-01
  2.338888e+01    9.854287e-01
  2.340475e+01    9.575469e-01
  2.342063e+01    9.715945e-01
  2.343650e+01    9.795924e-01
  2.345238e+01    9.622285e-01
  2.346825e+01    9.763314e-01
  2.348413e+01    9.681090e-01
  2.350001e+01    9.813169e-01
  2.351588e+01    9.736192e-01
  2.353176e+01    9.610312e-01
  2.354763e+01    9.374974e-01
  2.356351e+01    9.340634e-01
  2.357938e+01    9.579718e-01
  2.359526e+01    9.660162e-01
  2.361113e+01    9.766595e-01
  2.362701e+01    9.568361e-01
  2.364289e+01    9.562522e-01
  2.365876e+01    9.395755e-01
  2.367464e+01    9.620547e-01
  2.369051e+01    9.631897e-01
  2.370639e+01    9.545350e-01
  2.372226e+01    9.352474e-01
  2.373814e+01    9.328358e-01
  2.375401e+01    9.291985e-01
  2.376989e+01    9.452867e-01
  2.378577e+01    9.339333e-01
  2.380164e+01    9.257419e-01
  2.381752e+01    9.049778e-01
  2.383339e+01    9.222555e-01
  2.384927e+01    9.123555e-01
  2.386514e+01    9.019641e-01
  2.388102e+01    9.016643e-01
  2.389689e+01    9.119369e-01
  2.391277e+01    9.125009e-01
  2.392865e+01    9.357213e-01
  2.394452e+01    9.180447e-01
  2.396040e+01    8.995706e-01
  2.397627e+01    8.956950e-01
  2.399215e+01    8.699805e-01
  2.400802e+01    8.856158e-01
  2.402390e+01    9.072238e-01
  2.403978e+01    9.036504e-01
  2.405565e+01    9.023729e-01
  2.407153e+01    8.985491e-01
  2.408740e+01    8.789417e-01
  2.410328e+01    8.913907e-01
  2.411915e+01    8.933911e-01
  2.413503e+01    8.655914e-01
  2.415090e+01    8.711479e-01
  2.416678e+01    8.623639e-01
  2.418266e+01    8.811837e-01
  2.419853e+01    8.863745e-01
  2.421441e+01    8.672470e-01
  2.423028e+01    8.807387e-01
  2.424616e+01    8.805570e-01
  2.426203e+01    8.930255e-01
  2.427791e+01    9.095122e-01
  2.429378e+01    9.033880e-01
  2.430966e+01    8.639885e-01
  2.432554e+01    8.863725e-01
  2.434141e+01    9.010574e-01
  2.435729e+01    8.868631e-01
  2.437316e+01    9.014794e-01
  2.438904e+01    9.040638e-01
  2.440491e+01    8.926412e-01
  2.442079e+01    9.046870e-01
  2.443666e+01    9.091268e-01
  2.445254e+01    8.971673e-01
  2.446842e+01    8.929113e-01
  2.448429e+01    8.711325e-01
  2.450017e+01    8.841310e-01
  2.451604e+01    8.804668e-01
  2.453192e+01    8.986245e-01
  2.454779e+01    8.976980e-01
  2.456367e+01    8.836505e-01
  2.457954e+01    8.879232e-01
  2.459542e+01    8.903775e-01
  2.461130e+01    8.787105e-01
  2.462717e+01    8.867267e-01
  2.464305e+01    8.892731e-01
  2.465892e+01    8.872293e-01
  2.467480e+01    8.835403e-01
  2.469067e+01    8.759678e-01
  2.470655e+01    9.065783e-01
  2.472242e+01    8.997944e-01
  2.473830e+01    8.949311e-01
  2.475418e+01    8.763359e-01
  2.477005e+01    8.903885e-01
  2.478593e+01    9.165270e-01
  2.480180e+01    8.934951e-01
  2.481768e+01    8.749005e-01
  2.483355e+01    8.915951e-01
  2.484943e+01    8.852867e-01
  2.486530e+01    8.863189e-01
  2.488118e+01    8.894359e-01
  2.489706e+01    8.755127e-01
  2.491293e+01    8.890804e-01
  2.492881e+01    8.993658e-01
  2.494468e+01    8.782103e-01
  2.496056e+01    8.837683e-01
  2.497643e+01    8.730867e-01
  2.499231e+01    8.726219e-01
  2.500819e+01    8.964223e-01
  2.502406e+01    8.912909e-01
  2.503994e+01    8.939173e-01
  2.505581e+01    9.105914e-01
  2.507169e+01    9.142942e-01
  2.508756e+01    9.032035e-01
  2.510344e+01    8.966078e-01
  2.511931e+01    9.136869e-01
  2.513519e+01    9.262451e-01
  2.515107e+01    9.081106e-01
  2.516694e+01    9.212941e-01
  2.518282e+01    9.275106e-01
  2.519869e+01    9.190734e-01
  2.521457e+01    9.180818e-01
  2.523044e+01    9.077026e-01
  2.524632e+01    9.271092e-01
  2.526219e+01    9.478413e-01
  2.527807e+01    9.126748e-01
  2.529395e+01    9.299629e-01
  2.530982e+01    9.513302e-01
  2.532570e+01    9.569404e-01
  2.534157e+01    9.685053e-01
  2.535745e+01    9.543365e-01
  2.537332e+01    9.752045e-01
  2.538920e+01    9.831167e-01
  2.540507e+01    9.972008e-01
  2.542095e+01    9.981444e-01
  2.543683e+01    1.001285e+00
  2.545270e+01    1.006504e+00
  2.546858e+01    1.022137e+00
  2.548445e+01    1.031929e+00
  2.550033e+01    1.083046e+00
  2.551620e+01    1.087011e+00
  2.553208e+01    1.090033e+00
  2.554795e+01    1.096907e+00
  2.556383e+01    1.113798e+00
  2.557971e+01    1.140968e+00
  2.559558e+01    1.180399e+00
  2.561146e+01    1.211170e+00
  2.562733e+01    1.242374e+00
  2.564321e+01    1.278023e+00
  2.565908e+01    1.338740e+00
  2.567496e+01    1.425362e+00
  2.569083e+01    1.488704e+00
  2.570671e+01    1.561395e+00
  2.572259e+01    1.691353e+00
  2.573846e+01    1.795997e+00
  2.575434e+01    1.994341e+00
  2.577021e+01    2.231243e+00
  2.578609e+01    2.446354e+00
  2.580196e+01    2.730117e+00
  2.581784e+01    3.122629e+00
  2.583371e+01    3.606895e+00
  2.584959e+01    4.134130e+00
  2.586547e+01    4.629726e+00
  2.588134e+01    5.247394e+00
  2.589722e+01    5.728811e+00
  2.591309e+01    6.294757e+00
  2.592897e+01    6.707939e+00
  2.594484e+01    6.975018e+00
  2.596072e+01    7.092549e+00
  2.597660e+01    6.992354e+00
  2.599247e+01    6.566904e+00
  2.600835e+01    6.042284e+00
  2.602422e+01    5.349717e+00
  2.604010e+01    4.630630e+00
  2.605597e+01    3.988324e+00
  2.607185e+01    3.481847e+00
  2.608772e+01    2.992609e+00
  2.610360e+01    2.662982e+00
  2.611948e+01    2.395435e+00
  2.613535e+01    2.154155e+00
  2.615123e+01    1.965082e+00
  2.616710e+01    1.807076e+00
  2.618298e+01    1.664029e+00
  2.619885e+01    1.564077e+00
  2.621473e+01    1.474318e+00
  2.623060e+01    1.424035e+00
  2.624648e+01    1.369184e+00
  2.626236e+01    1.327730e+00
  2.627823e+01    1.248946e+00
  2.629411e+01    1.192003e+00
  2.630998e+01    1.203512e+00
  2.632586e+01    1.178755e+00
  2.634173e+01    1.139459e+00
  2.635761e+01    1.102306e+00
  2.637348e+01    1.076972e+00
  2.638936e+01    1.086870e+00
  2.640524e+01    1.057624e+00
  2.642111e+01    1.056180e+00
  2.643699e+01    1.029935e+00
  2.645286e+01    1.035636e+00
  2.646874e+01    1.031561e+00
  2.648461e+01    1.013498e+00
  2.650049e+01    1.013142e+00
  2.651636e+01    1.007171e+00
  2.653224e+01    1.013290e+00
  2.654812e+01    1.001150e+00
  2.656399e+01    9.923189e-01
  2.657987e+01    9.834515e-01
  2.659574e+01    9.850320e-01
  2.661162e+01    9.916375e-01
  2.662749e+01    9.859579e-01
  2.664337e+01    9.740884e-01
  2.665924e+01    9.866280e-01
  2.667512e+01    9.769149e-01
  2.669100e+01    9.750830e-01
  2.670687e+01    9.730002e-01
  2.672275e+01    9.793410e-01
  2.673862e+01    9.836335e-01
  2.675450e+01    9.747795e-01
  2.677037e+01    9.836959e-01
  2.678625e+01    9.997361e-01
  2.680212e+01    9.785576e-01
  2.681800e+01    9.717802e-01
  2.683388e+01    9.627647e-01
  2.684975e+01    9.983862e-01
  2.686563e+01    1.012222e+00
  2.688150e+01    9.906431e-01
  2.689738e+01    1.012307e+00
  2.691325e+01    1.023752e+00
  2.692913e+01    1.019855e+00
  2.694501e+01    1.024953e+00
  2.696088e+01    1.028824e+00
  2.697676e+01    1.041718e+00
  2.699263e+01    1.076683e+00
  2.700851e+01    1.113607e+00
  2.702438e+01    1.166985e+00
  2.704026e+01    1.187633e+00
  2.705613e+01    1.222199e+00
  2.707201e+01    1.315565e+00
  2.708789e+01    1.408286e+00
  2.710376e+01    1.483527e+00
  2.711964e+01    1.610387e+00
  2.713551e+01    1.718067e+00
  2.715139e+01    1.812618e+00
  2.716726e+01    1.942178e+00
  2.718314e+01    2.056018e+00
  2.719901e+01    2.126484e+00
  2.721489e+01    2.166860e+00
  2.723077e+01    2.147795e+00
  2.724664e+01    2.083375e+00
  2.726252e+01    1.953709e+00
  2.727839e+01    1.826980e+00
  2.729427e+01    1.708648e+00
  2.731014e+01    1.590711e+00
  2.732602e+01    1.467067e+00
  2.734189e+01    1.340217e+00
  2.735777e+01    1.287932e+00
  2.737365e+01    1.236784e+00
  2.738952e+01    1.186568e+00
  2.740540e+01    1.139030e+00
  2.742127e+01    1.098270e+00
  2.743715e+01    1.084796e+00
  2.745302e+01    1.031525e+00
  2.746890e+01    1.023755e+00
  2.748477e+01    1.008386e+00
  2.750065e+01    9.796973e-01
  2.751653e+01    9.788655e-01
  2.753240e+01    9.656319e-01
  2.754828e+01    9.720857e-01
  2.756415e+01    9.743357e-01
  2.758003e+01    9.436433e-01
  2.759590e+01    9.382233e-01
  2.761178e+01    9.311028e-01
  2.762765e+01    9.110723e-01
  2.764353e+01    9.158224e-01
  2.765941e+01    9.025694e-01
  2.767528e+01    9.290094e-01
  2.769116e+01    9.295673e-01
  2.770703e+01    9.201726e-01
  2.772291e+01    9.161812e-01
  2.773878e+01    9.120643e-01
  2.775466e+01    9.020485e-01
  2.777054e+01    9.124296e-01
  2.778641e+01    8.702140e-01
  2.780229e+01    8.795083e-01
  2.781816e+01    9.005019e-01
  2.783404e+01    8.837990e-01
  2.784991e+01    8.643818e-01
  2.786579e+01    8.604429e-01
  2.788166e+01    8.674483e-01
  2.789754e+01    8.877459e-01
  2.791342e+01    8.740324e-01
  2.792929e+01    8.806528e-01
  2.794517e+01    8.656649e-01
  2.796104e+01    8.629642e-01
  2.797692e+01    8.545028e-01
  2.799279e+01    8.632997e-01
  2.800867e+01    8.791612e-01
  2.802454e+01    8.698359e-01
  2.804042e+01    8.617114e-01
  2.805630e+01    8.679605e-01
  2.807217e+01    8.727894e-01
  2.808805e+01    8.424459e-01
  2.810392e+01    8.575372e-01
  2.811980e+01    8.456705e-01
  2.813567e+01    8.556342e-01
  2.815155e+01    8.795043e-01
  2.816742e+01    8.468599e-01
  2.818330e+01    8.591350e-01
  2.819918e+01    8.484885e-01
  2.821505e+01    8.340236e-01
  2.823093e+01    8.490628e-01
  2.824680e+01    8.546078e-01
  2.826268e+01    8.639653e-01
  2.827855e+01    8.546337e-01
  2.829443e+01    8.598852e-01
  2.831030e+01    8.775409e-01
  2.832618e+01    8.553241e-01
  2.834206e+01    8.615547e-01
  2.835793e+01    8.559431e-01
  2.837381e+01    8.750412e-01
  2.838968e+01    8.569256e-01
  2.840556e+01    8.403841e-01
  2.842143e+01    8.512012e-01
  2.843731e+01    8.447458e-01
  2.845318e+01    8.363053e-01
  2.846906e+01    8.300962e-01
  2.848494e+01    8.485084e-01
  2.850081e+01    8.554428e-01
  2.851669e+01    8.684638e-01
  2.853256e+01    8.686075e-01
  2.854844e+01    8.458153e-01
  2.856431e+01    8.230335e-01
  2.858019e+01    8.235018e-01
  2.859606e+01    8.437460e-01
  2.861194e+01    8.561634e-01
  2.862782e+01    8.410603e-01
  2.864369e+01    8.378766e-01
  2.865957e+01    8.309392e-01
  2.867544e+01    8.204357e-01
  2.869132e+01    8.324357e-01
  2.870719e+01    8.393775e-01
  2.872307e+01    8.380917e-01
  2.873895e+01    8.425504e-01
  2.875482e+01    8.271002e-01
  2.877070e+01    8.026853e-01
  2.878657e+01    8.125299e-01
  2.880245e+01    8.099625e-01
  2.881832e+01    8.281208e-01
  2.883420e+01    8.396949e-01
  2.885007e+01    8.426751e-01
  2.886595e+01    8.314449e-01
  2.888183e+01    8.258135e-01
  2.889770e+01    8.260452e-01
  2.891358e+01    8.178385e-01
  2.892945e+01    8.232061e-01
  2.894533e+01    8.066449e-01
  2.896120e+01    8.082895e-01
  2.897708e+01    8.260472e-01
  2.899295e+01    8.183616e-01
  2.900883e+01    8.176058e-01
  2.902471e+01    8.181334e-01
  2.904058e+01    7.953534e-01
  2.905646e+01    8.074749e-01
  2.907233e+01    8.205839e-01
  2.908821e+01    8.101405e-01
  2.910408e+01    8.176356e-01
  2.911996e+01    8.108596e-01
  2.913583e+01    7.814820e-01
  2.915171e+01    7.769639e-01
  2.916759e+01    8.236836e-01
  2.918346e+01    8.166493e-01
  2.919934e+01    7.998962e-01
  2.921521e+01    8.246430e-01
  2.923109e+01    8.391742e-01
  2.924696e+01    8.272321e-01
  2.926284e+01    8.036128e-01
  2.927871e+01    8.114659e-01
  2.929459e+01    7.999822e-01
  2.931047e+01    8.144525e-01
  2.932634e+01    7.992294e-01
  2.934222e+01    8.122237e-01
  2.935809e+01    8.183397e-01
  2.937397e+01    8.328376e-01
  2.938984e+01    8.048816e-01
  2.940572e+01    7.958350e-01
  2.942159e+01    8.028286e-01
  2.943747e+01    8.146749e-01
  2.945335e+01    8.049163e-01
  2.946922e+01    8.069351e-01
  2.948510e+01    7.984782e-01
  2.950097e+01    8.156435e-01
  2.951685e+01    8.103317e-01
  2.953272e+01    8.046276e-01
  2.954860e+01    7.795296e-01
  2.956447e+01    7.792390e-01
  2.958035e+01    7.826605e-01
  2.959623e+01    7.844363e-01
  2.961210e+01    7.932790e-01
  2.962798e+01    8.066660e-01
  2.964385e+01    8.003632e-01
  2.965973e+01    7.905557e-01
  2.967560e+01    8.085091e-01
  2.969148e+01    8.033727e-01
  2.970736e+01    8.033371e-01
  2.972323e+01    7.981531e-01
  2.973911e+01    8.005298e-01
  2.975498e+01    7.993444e-01
  2.977086e+01    7.997077e-01
  2.978673e+01    7.868172e-01
  2.980261e+01    7.833995e-01
  2.981848e+01    7.942559e-01
  2.983436e+01    7.974497e-01
  2.985024e+01    7.956946e-01
  2.986611e+01    8.015976e-01
  2.988199e+01    8.026540e-01
  2.989786e+01    8.085216e-01
  2.991374e+01    8.021885e-01
  2.992961e+01    7.833350e-01
  2.994549e+01    7.782749e-01
  2.996136e+01    8.080327e-01
  2.997724e+01    8.037100e-01
  2.999312e+01    7.881965e-01
  3.000899e+01    8.027022e-01
  3.002487e+01    8.041392e-01
  3.004074e+01    8.055017e-01
  3.005662e+01    8.037841e-01
  3.007249e+01    7.995650e-01
  3.008837e+01    8.028339e-01
  3.010424e+01    8.151379e-01
  3.012012e+01    7.998312e-01
  3.013600e+01    8.034892e-01
  3.015187e+01    7.911242e-01
  3.016775e+01    7.848842e-01
  3.018362e+01    7.859208e-01
  3.019950e+01    7.907491e-01
  3.021537e+01    8.055043e-01
  3.023125e+01    7.913234e-01
  3.024712e+01    7.838668e-01
  3.026300e+01    7.632613e-01
  3.027888e+01    7.792724e-01
  3.029475e+01    7.772016e-01
  3.031063e+01    7.820415e-01
  3.032650e+01    7.783523e-01
  3.034238e+01    8.015460e-01
  3.035825e+01    7.878520e-01
  3.037413e+01    7.740846e-01
  3.039000e+01    7.637822e-01
  3.040588e+01    7.970712e-01
  3.042176e+01    8.116747e-01
  3.043763e+01    7.871628e-01
  3.045351e+01    7.659629e-01
  3.046938e+01    7.703366e-01
  3.048526e+01    7.810173e-01
  3.050113e+01    7.819991e-01
  3.051701e+01    8.038762e-01
  3.053288e+01    7.831644e-01
  3.054876e+01    7.807513e-01
  3.056464e+01    7.717620e-01
  3.058051e+01    7.829762e-01
  3.059639e+01    8.075515e-01
  3.061226e+01    7.736399e-01
  3.062814e+01    7.452484e-01
  3.064401e+01    7.807583e-01
  3.065989e+01    7.948022e-01
  3.067577e+01    7.888896e-01
  3.069164e+01    7.735515e-01
  3.070752e+01    7.854305e-01
  3.072339e+01    7.683811e-01
  3.073927e+01    8.013504e-01
  3.075514e+01    7.745003e-01
  3.077102e+01    7.681850e-01
  3.078689e+01    7.692142e-01
  3.080277e+01    7.644861e-01
  3.081865e+01    7.586661e-01
  3.083452e+01    7.747307e-01
  3.085040e+01    7.759193e-01
  3.086627e+01    7.514145e-01
  3.088215e+01    7.756919e-01
  3.089802e+01    7.962981e-01
  3.091390e+01    7.924069e-01
  3.092977e+01    7.973547e-01
  3.094565e+01    7.932518e-01
  3.096153e+01    7.805377e-01
  3.097740e+01    7.627571e-01
  3.099328e+01    7.756874e-01
  3.100915e+01    7.824073e-01
  3.102503e+01    7.856024e-01
  3.104090e+01    7.725381e-01
  3.105678e+01    7.667642e-01
  3.107265e+01    7.576514e-01
  3.108853e+01    7.626107e-01
  3.110441e+01    7.905955e-01
  3.112028e+01    7.956026e-01
  3.113616e+01    7.749850e-01
  3.115203e+01    7.755383e-01
  3.116791e+01    7.915271e-01
  3.118378e+01    7.957912e-01
  3.119966e+01    7.982808e-01
  3.121553e+01    7.779922e-01
  3.123141e+01    7.702067e-01
  3.124729e+01    8.021656e-01
  3.126316e+01    7.943243e-01
  3.127904e+01    8.076022e-01
  3.129491e+01    7.948470e-01
  3.131079e+01    7.912351e-01
  3.132666e+01    7.746425e-01
  3.134254e+01    7.876350e-01
  3.135841e+01    8.031433e-01
  3.137429e+01    8.068545e-01
  3.139017e+01    7.995027e-01
  3.140604e+01    7.947064e-01
  3.142192e+01    8.349031e-01
  3.143779e+01    8.206571e-01
  3.145367e+01    8.085930e-01
  3.146954e+01    8.292004e-01
  3.148542e+01    8.111112e-01
  3.150129e+01    8.155668e-01
  3.151717e+01    8.334843e-01
  3.153305e+01    8.520378e-01
  3.154892e+01    8.547756e-01
  3.156480e+01    8.443716e-01
  3.158067e+01    8.601587e-01
  3.159655e+01    8.628359e-01
  3.161242e+01    8.801063e-01
  3.162830e+01    8.791054e-01
  3.164418e+01    9.132301e-01
  3.166005e+01    9.618091e-01
  3.167593e+01    9.837707e-01
  3.169180e+01    9.930383e-01
  3.170768e+01    1.005875e+00
  3.172355e+01    1.038365e+00
  3.173943e+01    1.127795e+00
  3.175530e+01    1.165596e+00
  3.177118e+01    1.281661e+00
  3.178706e+01    1.346527e+00
  3.180293e+01    1.436916e+00
  3.181881e+01    1.545884e+00
  3.183468e+01    1.705973e+00
  3.185056e+01    1.799795e+00
  3.186643e+01    1.908953e+00
  3.188231e+01    2.006072e+00
  3.189818e+01    2.102088e+00
  3.191406e+01    2.078753e+00
  3.192994e+01    2.017391e+00
  3.194581e+01    1.940016e+00
  3.196169e+01    1.824159e+00
  3.197756e+01    1.682154e+00
  3.199344e+01    1.553839e+00
  3.200931e+01    1.414448e+00
  3.202519e+01    1.341430e+00
  3.204106e+01    1.231941e+00
  3.205694e+01    1.177097e+00
  3.207282e+01    1.114767e+00
  3.208869e+01    1.051905e+00
  3.210457e+01    1.005708e+00
  3.212044e+01    9.785581e-01
  3.213632e+01    9.278037e-01
  3.215219e+01    9.200570e-01
  3.216807e+01    8.862480e-01
  3.218394e+01    8.875723e-01
  3.219982e+01    8.574477e-01
  3.221570e+01    8.369338e-01
  3.223157e+01    8.390238e-01
  3.224745e+01    8.456284e-01
  3.226332e+01    8.494163e-01
  3.227920e+01    8.091993e-01
  3.229507e+01    8.200536e-01
  3.231095e+01    8.512754e-01
  3.232682e+01    8.554147e-01
  3.234270e+01    8.274519e-01
  3.235858e+01    7.915812e-01
  3.237445e+01    7.958870e-01
  3.239033e+01    7.956028e-01
  3.240620e+01    7.820198e-01
  3.242208e+01    7.897674e-01
  3.243795e+01    7.950639e-01
  3.245383e+01    8.054435e-01
  3.246970e+01    7.867382e-01
  3.248558e+01    7.867861e-01
  3.250146e+01    7.711962e-01
  3.251733e+01    7.815379e-01
  3.253321e+01    8.007880e-01
  3.254908e+01    7.715911e-01
