# == pyFAI calibration ==
# Distance Sample to Detector: 0.3999999939076516 m
# PONI: 9.750e-02, 1.135e-01 m
# Rotations: -0.000175 0.000000 -0.000000 rad
# 
# == Fit2d calibration ==
# Distance Sample-beamCenter: 400.000 mm
# Center: x=1514.000, y=1300.000 pix
# Tilt: 0.010 deg  TiltPlanRot: 0.010 deg
# 
# Detector Detector	 Spline= None	 PixelSize= 7.500e-05, 7.500e-05 m
#    Detector has a mask: False 
#    Detector has a dark current: False 
#    detector has a flat field: False 
# 
# Wavelength: 6.888e-11 m
# Mask applied: user provided
# Dark current applied: False
# Flat field applied: False
# Polarization factor: 0.99
# Normalization factor: 1.0
# --> /home/myspot/data/2024_07_Rosario/Ru-CGO-ex/2024-07-27_003_Ru-CGO-ex_Reaction_dwell_000023_data_000145.dat
#       q_nm^-1             I 
  2.003187e-02    0.000000e+00
  3.590745e-02    7.159096e-02
  5.178302e-02    4.982497e-02
  6.765859e-02    1.362419e-01
  8.353417e-02    2.126570e-01
  9.940974e-02    1.060959e-01
  1.152853e-01    4.213094e-02
  1.311609e-01    1.990194e-02
  1.470365e-01    5.832120e-02
  1.629120e-01    6.926907e-02
  1.787876e-01    6.419682e-02
  1.946632e-01    1.020094e-02
  2.105388e-01    2.519253e-02
  2.264143e-01    2.974681e-02
  2.422899e-01    4.819090e-02
  2.581655e-01    5.439617e-02
  2.740411e-01    4.311404e-02
  2.899166e-01    3.307148e-02
  3.057922e-01    4.234447e-02
  3.216678e-01    5.507847e-02
  3.375433e-01    6.105019e-02
  3.534189e-01    4.113056e-02
  3.692945e-01    2.219377e-02
  3.851701e-01    6.556320e-02
  4.010456e-01    6.614130e-02
  4.169212e-01    4.989084e-02
  4.327968e-01    2.550022e-02
  4.486724e-01    2.593680e-02
  4.645479e-01    3.074816e-02
  4.804235e-01    4.242535e-02
  4.962991e-01    6.058082e-02
  5.121747e-01    4.284287e-02
  5.280502e-01    4.662376e-02
  5.439258e-01    4.004145e-02
  5.598014e-01    3.379163e-02
  5.756770e-01    6.656250e-02
  5.915525e-01    6.717641e-02
  6.074281e-01    4.004573e-02
  6.233037e-01    3.343573e-02
  6.391793e-01    4.630470e-02
  6.550548e-01    5.208983e-02
  6.709304e-01    4.192980e-02
  6.868060e-01    2.962699e-02
  7.026815e-01    2.571328e-02
  7.185571e-01    5.430843e-02
  7.344327e-01    8.059639e-02
  7.503083e-01    7.311239e-02
  7.661838e-01    1.005737e-01
  7.820594e-01    1.355073e-01
  7.979350e-01    1.690657e-01
  8.138106e-01    1.868762e-01
  8.296861e-01    3.248288e-01
  8.455617e-01    4.239556e-01
  8.614373e-01    4.020705e-01
  8.773129e-01    4.763272e-01
  8.931884e-01    5.865731e-01
  9.090640e-01    6.165053e-01
  9.249396e-01    6.740383e-01
  9.408152e-01    8.647515e-01
  9.566907e-01    9.981163e-01
  9.725663e-01    1.065102e+00
  9.884419e-01    1.086949e+00
  1.004317e+00    1.037481e+00
  1.020193e+00    1.143173e+00
  1.036069e+00    1.413669e+00
  1.051944e+00    1.466491e+00
  1.067820e+00    1.555787e+00
  1.083695e+00    1.565390e+00
  1.099571e+00    1.468113e+00
  1.115446e+00    1.480556e+00
  1.131322e+00    1.454212e+00
  1.147198e+00    1.587032e+00
  1.163073e+00    1.646787e+00
  1.178949e+00    1.657633e+00
  1.194824e+00    1.762888e+00
  1.210700e+00    1.999029e+00
  1.226575e+00    2.235262e+00
  1.242451e+00    2.436591e+00
  1.258327e+00    2.309145e+00
  1.274202e+00    2.523984e+00
  1.290078e+00    2.642665e+00
  1.305953e+00    2.763922e+00
  1.321829e+00    2.795563e+00
  1.337705e+00    2.720312e+00
  1.353580e+00    2.829908e+00
  1.369456e+00    2.847222e+00
  1.385331e+00    2.909514e+00
  1.401207e+00    2.963587e+00
  1.417082e+00    2.756830e+00
  1.432958e+00    2.735760e+00
  1.448834e+00    2.851813e+00
  1.464709e+00    2.961922e+00
  1.480585e+00    3.123298e+00
  1.496460e+00    3.068871e+00
  1.512336e+00    3.124397e+00
  1.528211e+00    3.260543e+00
  1.544087e+00    3.225170e+00
  1.559963e+00    3.184056e+00
  1.575838e+00    3.226901e+00
  1.591714e+00    3.217644e+00
  1.607589e+00    3.170527e+00
  1.623465e+00    3.158589e+00
  1.639340e+00    3.124470e+00
  1.655216e+00    3.193595e+00
  1.671092e+00    3.282652e+00
  1.686967e+00    3.095692e+00
  1.702843e+00    3.129092e+00
  1.718718e+00    3.075382e+00
  1.734594e+00    3.013198e+00
  1.750469e+00    3.055744e+00
  1.766345e+00    3.131702e+00
  1.782221e+00    3.044627e+00
  1.798096e+00    3.004539e+00
  1.813972e+00    3.034219e+00
  1.829847e+00    3.076933e+00
  1.845723e+00    3.056346e+00
  1.861598e+00    2.949372e+00
  1.877474e+00    3.026003e+00
  1.893350e+00    3.126358e+00
  1.909225e+00    3.138184e+00
  1.925101e+00    3.069183e+00
  1.940976e+00    3.166962e+00
  1.956852e+00    3.026670e+00
  1.972727e+00    2.970876e+00
  1.988603e+00    3.149263e+00
  2.004479e+00    3.046046e+00
  2.020354e+00    3.039360e+00
  2.036230e+00    3.098669e+00
  2.052105e+00    3.041403e+00
  2.067981e+00    2.967419e+00
  2.083856e+00    3.098589e+00
  2.099732e+00    3.129272e+00
  2.115608e+00    3.125187e+00
  2.131483e+00    3.035314e+00
  2.147359e+00    3.111500e+00
  2.163234e+00    3.066286e+00
  2.179110e+00    3.104002e+00
  2.194985e+00    3.121180e+00
  2.210861e+00    3.118880e+00
  2.226737e+00    3.043087e+00
  2.242612e+00    3.134352e+00
  2.258488e+00    3.081204e+00
  2.274363e+00    3.143822e+00
  2.290239e+00    2.997382e+00
  2.306115e+00    2.993734e+00
  2.321990e+00    3.090787e+00
  2.337866e+00    3.071187e+00
  2.353741e+00    3.129867e+00
  2.369617e+00    3.078294e+00
  2.385492e+00    3.037924e+00
  2.401368e+00    3.104168e+00
  2.417244e+00    3.183840e+00
  2.433119e+00    3.255821e+00
  2.448995e+00    3.183224e+00
  2.464870e+00    3.007161e+00
  2.480746e+00    3.079951e+00
  2.496621e+00    3.047262e+00
  2.512497e+00    3.127767e+00
  2.528373e+00    3.302343e+00
  2.544248e+00    3.262351e+00
  2.560124e+00    3.221541e+00
  2.575999e+00    3.172302e+00
  2.591875e+00    3.237292e+00
  2.607750e+00    3.195185e+00
  2.623626e+00    3.213017e+00
  2.639502e+00    3.135452e+00
  2.655377e+00    3.137249e+00
  2.671253e+00    3.260539e+00
  2.687128e+00    3.280328e+00
  2.703004e+00    3.187067e+00
  2.718879e+00    3.265622e+00
  2.734755e+00    3.266401e+00
  2.750631e+00    3.172420e+00
  2.766506e+00    3.176985e+00
  2.782382e+00    3.233971e+00
  2.798257e+00    3.245691e+00
  2.814133e+00    3.133742e+00
  2.830008e+00    3.197411e+00
  2.845884e+00    3.262596e+00
  2.861760e+00    3.253772e+00
  2.877635e+00    3.206010e+00
  2.893511e+00    3.282954e+00
  2.909386e+00    3.232308e+00
  2.925262e+00    3.308969e+00
  2.941137e+00    3.360573e+00
  2.957013e+00    3.334207e+00
  2.972889e+00    3.361960e+00
  2.988764e+00    3.399546e+00
  3.004640e+00    3.415161e+00
  3.020515e+00    3.371862e+00
  3.036391e+00    3.408437e+00
  3.052266e+00    3.380737e+00
  3.068142e+00    3.339460e+00
  3.084018e+00    3.371039e+00
  3.099893e+00    3.407085e+00
  3.115769e+00    3.409353e+00
  3.131644e+00    3.404835e+00
  3.147520e+00    3.342856e+00
  3.163395e+00    3.358389e+00
  3.179271e+00    3.324724e+00
  3.195147e+00    3.454362e+00
  3.211022e+00    3.446975e+00
  3.226898e+00    3.306931e+00
  3.242773e+00    3.341511e+00
  3.258649e+00    3.434138e+00
  3.274525e+00    3.359867e+00
  3.290400e+00    3.379313e+00
  3.306276e+00    3.308041e+00
  3.322151e+00    3.340563e+00
  3.338027e+00    3.364218e+00
  3.353902e+00    3.464347e+00
  3.369778e+00    3.373150e+00
  3.385654e+00    3.304025e+00
  3.401529e+00    3.423773e+00
  3.417405e+00    3.569093e+00
  3.433280e+00    3.481004e+00
  3.449156e+00    3.446444e+00
  3.465031e+00    3.470080e+00
  3.480907e+00    3.512300e+00
  3.496783e+00    3.399663e+00
  3.512658e+00    3.403758e+00
  3.528534e+00    3.450827e+00
  3.544409e+00    3.425527e+00
  3.560285e+00    3.469470e+00
  3.576160e+00    3.428405e+00
  3.592036e+00    3.466864e+00
  3.607912e+00    3.437722e+00
  3.623787e+00    3.492853e+00
  3.639663e+00    3.503817e+00
  3.655538e+00    3.433245e+00
  3.671414e+00    3.421411e+00
  3.687289e+00    3.396373e+00
  3.703165e+00    3.408992e+00
  3.719041e+00    3.402635e+00
  3.734916e+00    3.457588e+00
  3.750792e+00    3.453089e+00
  3.766667e+00    3.426920e+00
  3.782543e+00    3.408764e+00
  3.798418e+00    3.418920e+00
  3.814294e+00    3.532587e+00
  3.830170e+00    3.540038e+00
  3.846045e+00    3.473379e+00
  3.861921e+00    3.503160e+00
  3.877796e+00    3.603990e+00
  3.893672e+00    3.454857e+00
  3.909547e+00    3.488232e+00
  3.925423e+00    3.519595e+00
  3.941299e+00    3.384184e+00
  3.957174e+00    3.463987e+00
  3.973050e+00    3.490113e+00
  3.988925e+00    3.482199e+00
  4.004801e+00    3.537382e+00
  4.020676e+00    3.562007e+00
  4.036552e+00    3.513109e+00
  4.052428e+00    3.538106e+00
  4.068303e+00    3.518325e+00
  4.084179e+00    3.546632e+00
  4.100054e+00    3.536274e+00
  4.115930e+00    3.505737e+00
  4.131806e+00    3.469205e+00
  4.147681e+00    3.430938e+00
  4.163557e+00    3.472911e+00
  4.179432e+00    3.479076e+00
  4.195308e+00    3.551788e+00
  4.211183e+00    3.597332e+00
  4.227059e+00    3.577988e+00
  4.242935e+00    3.585191e+00
  4.258810e+00    3.603454e+00
  4.274686e+00    3.611509e+00
  4.290561e+00    3.514309e+00
  4.306437e+00    3.550993e+00
  4.322312e+00    3.585494e+00
  4.338188e+00    3.525945e+00
  4.354064e+00    3.445102e+00
  4.369939e+00    3.524902e+00
  4.385815e+00    3.519162e+00
  4.401690e+00    3.475671e+00
  4.417566e+00    3.545413e+00
  4.433441e+00    3.572301e+00
  4.449317e+00    3.612967e+00
  4.465193e+00    3.641223e+00
  4.481068e+00    3.551042e+00
  4.496944e+00    3.590950e+00
  4.512819e+00    3.603141e+00
  4.528695e+00    3.627368e+00
  4.544570e+00    3.587080e+00
  4.560446e+00    3.606001e+00
  4.576322e+00    3.573254e+00
  4.592197e+00    3.576047e+00
  4.608073e+00    3.501309e+00
  4.623948e+00    3.529272e+00
  4.639824e+00    3.542034e+00
  4.655699e+00    3.601314e+00
  4.671575e+00    3.551745e+00
  4.687451e+00    3.620797e+00
  4.703326e+00    3.577822e+00
  4.719202e+00    3.602165e+00
  4.735077e+00    3.639047e+00
  4.750953e+00    3.636732e+00
  4.766828e+00    3.618154e+00
  4.782704e+00    3.603902e+00
  4.798580e+00    3.660915e+00
  4.814455e+00    3.630921e+00
  4.830331e+00    3.629891e+00
  4.846206e+00    3.607902e+00
  4.862082e+00    3.594963e+00
  4.877957e+00    3.560692e+00
  4.893833e+00    3.577881e+00
  4.909709e+00    3.676087e+00
  4.925584e+00    3.647893e+00
  4.941460e+00    3.651908e+00
  4.957335e+00    3.672601e+00
  4.973211e+00    3.638403e+00
  4.989086e+00    3.538428e+00
  5.004962e+00    3.660066e+00
  5.020838e+00    3.746763e+00
  5.036713e+00    3.707898e+00
  5.052589e+00    3.687795e+00
  5.068464e+00    3.712287e+00
  5.084340e+00    3.664025e+00
  5.100216e+00    3.665555e+00
  5.116091e+00    3.628585e+00
  5.131967e+00    3.661596e+00
  5.147842e+00    3.695167e+00
  5.163718e+00    3.661039e+00
  5.179593e+00    3.629912e+00
  5.195469e+00    3.671168e+00
  5.211345e+00    3.749578e+00
  5.227220e+00    3.746550e+00
  5.243096e+00    3.661570e+00
  5.258971e+00    3.620183e+00
  5.274847e+00    3.666330e+00
  5.290722e+00    3.610868e+00
  5.306598e+00    3.628760e+00
  5.322474e+00    3.695730e+00
  5.338349e+00    3.709689e+00
  5.354225e+00    3.611680e+00
  5.370100e+00    3.656488e+00
  5.385976e+00    3.666063e+00
  5.401851e+00    3.671408e+00
  5.417727e+00    3.639876e+00
  5.433603e+00    3.672486e+00
  5.449478e+00    3.621667e+00
  5.465354e+00    3.553375e+00
  5.481229e+00    3.596481e+00
  5.497105e+00    3.641096e+00
  5.512980e+00    3.623407e+00
  5.528856e+00    3.536190e+00
  5.544732e+00    3.535686e+00
  5.560607e+00    3.640357e+00
  5.576483e+00    3.663759e+00
  5.592358e+00    3.510639e+00
  5.608234e+00    3.487471e+00
  5.624109e+00    3.533484e+00
  5.639985e+00    3.543497e+00
  5.655861e+00    3.547289e+00
  5.671736e+00    3.576529e+00
  5.687612e+00    3.514966e+00
  5.703487e+00    3.583011e+00
  5.719363e+00    3.676577e+00
  5.735238e+00    3.600769e+00
  5.751114e+00    3.529919e+00
  5.766990e+00    3.577976e+00
  5.782865e+00    3.537738e+00
  5.798741e+00    3.517281e+00
  5.814616e+00    3.594528e+00
  5.830492e+00    3.627364e+00
  5.846367e+00    3.541198e+00
  5.862243e+00    3.569762e+00
  5.878119e+00    3.576704e+00
  5.893994e+00    3.593343e+00
  5.909870e+00    3.585478e+00
  5.925745e+00    3.501995e+00
  5.941621e+00    3.514607e+00
  5.957497e+00    3.563365e+00
  5.973372e+00    3.646519e+00
  5.989248e+00    3.554546e+00
  6.005123e+00    3.486296e+00
  6.020999e+00    3.477391e+00
  6.036874e+00    3.521364e+00
  6.052750e+00    3.585964e+00
  6.068626e+00    3.578857e+00
  6.084501e+00    3.603552e+00
  6.100377e+00    3.654127e+00
  6.116252e+00    3.666691e+00
  6.132128e+00    3.642423e+00
  6.148003e+00    3.631613e+00
  6.163879e+00    3.606662e+00
  6.179755e+00    3.631815e+00
  6.195630e+00    3.607997e+00
  6.211506e+00    3.575367e+00
  6.227381e+00    3.521404e+00
  6.243257e+00    3.549992e+00
  6.259132e+00    3.550978e+00
  6.275008e+00    3.519223e+00
  6.290884e+00    3.575022e+00
  6.306759e+00    3.657870e+00
  6.322635e+00    3.587813e+00
  6.338510e+00    3.542597e+00
  6.354386e+00    3.475161e+00
  6.370261e+00    3.502256e+00
  6.386137e+00    3.590192e+00
  6.402013e+00    3.507331e+00
  6.417888e+00    3.523158e+00
  6.433764e+00    3.544461e+00
  6.449639e+00    3.541544e+00
  6.465515e+00    3.549279e+00
  6.481390e+00    3.460825e+00
  6.497266e+00    3.525279e+00
  6.513142e+00    3.567681e+00
  6.529017e+00    3.530638e+00
  6.544893e+00    3.578126e+00
  6.560768e+00    3.518900e+00
  6.576644e+00    3.477239e+00
  6.592519e+00    3.543461e+00
  6.608395e+00    3.588599e+00
  6.624271e+00    3.550436e+00
  6.640146e+00    3.507007e+00
  6.656022e+00    3.553993e+00
  6.671897e+00    3.607066e+00
  6.687773e+00    3.616154e+00
  6.703648e+00    3.594255e+00
  6.719524e+00    3.549082e+00
  6.735400e+00    3.531495e+00
  6.751275e+00    3.487407e+00
  6.767151e+00    3.567390e+00
  6.783026e+00    3.619246e+00
  6.798902e+00    3.501343e+00
  6.814777e+00    3.504498e+00
  6.830653e+00    3.591663e+00
  6.846529e+00    3.573932e+00
  6.862404e+00    3.555596e+00
  6.878280e+00    3.506108e+00
  6.894155e+00    3.471312e+00
  6.910031e+00    3.495740e+00
  6.925907e+00    3.533296e+00
  6.941782e+00    3.567150e+00
  6.957658e+00    3.511751e+00
  6.973533e+00    3.536932e+00
  6.989409e+00    3.562355e+00
  7.005284e+00    3.536580e+00
  7.021160e+00    3.618540e+00
  7.037036e+00    3.439397e+00
  7.052911e+00    3.468855e+00
  7.068787e+00    3.493676e+00
  7.084662e+00    3.484815e+00
  7.100538e+00    3.502893e+00
  7.116413e+00    3.516857e+00
  7.132289e+00    3.578087e+00
  7.148165e+00    3.602197e+00
  7.164040e+00    3.545406e+00
  7.179916e+00    3.544263e+00
  7.195791e+00    3.487601e+00
  7.211667e+00    3.484720e+00
  7.227542e+00    3.548242e+00
  7.243418e+00    3.544030e+00
  7.259294e+00    3.449764e+00
  7.275169e+00    3.490701e+00
  7.291045e+00    3.511369e+00
  7.306920e+00    3.476207e+00
  7.322796e+00    3.506746e+00
  7.338671e+00    3.502478e+00
  7.354547e+00    3.515625e+00
  7.370423e+00    3.523598e+00
  7.386298e+00    3.489868e+00
  7.402174e+00    3.522587e+00
  7.418049e+00    3.480813e+00
  7.433925e+00    3.465171e+00
  7.449800e+00    3.445164e+00
  7.465676e+00    3.502077e+00
  7.481552e+00    3.487312e+00
  7.497427e+00    3.455575e+00
  7.513303e+00    3.467293e+00
  7.529178e+00    3.479611e+00
  7.545054e+00    3.524271e+00
  7.560929e+00    3.528510e+00
  7.576805e+00    3.458642e+00
  7.592681e+00    3.482514e+00
  7.608556e+00    3.414145e+00
  7.624432e+00    3.474627e+00
  7.640307e+00    3.449315e+00
  7.656183e+00    3.500475e+00
  7.672058e+00    3.441193e+00
  7.687934e+00    3.431777e+00
  7.703810e+00    3.430890e+00
  7.719685e+00    3.425213e+00
  7.735561e+00    3.480656e+00
  7.751436e+00    3.474693e+00
  7.767312e+00    3.418158e+00
  7.783187e+00    3.389766e+00
  7.799063e+00    3.473099e+00
  7.814939e+00    3.492873e+00
  7.830814e+00    3.443600e+00
  7.846690e+00    3.436701e+00
  7.862565e+00    3.360728e+00
  7.878441e+00    3.391476e+00
  7.894317e+00    3.422623e+00
  7.910192e+00    3.447454e+00
  7.926068e+00    3.418180e+00
  7.941943e+00    3.469676e+00
  7.957819e+00    3.480644e+00
  7.973694e+00    3.465857e+00
  7.989570e+00    3.439780e+00
  8.005446e+00    3.427342e+00
  8.021321e+00    3.472631e+00
  8.037197e+00    3.457998e+00
  8.053072e+00    3.414169e+00
  8.068948e+00    3.436383e+00
  8.084823e+00    3.376487e+00
  8.100699e+00    3.376760e+00
  8.116575e+00    3.405268e+00
  8.132450e+00    3.421240e+00
  8.148326e+00    3.458757e+00
  8.164201e+00    3.541480e+00
  8.180077e+00    3.487815e+00
  8.195952e+00    3.462539e+00
  8.211828e+00    3.409571e+00
  8.227704e+00    3.432067e+00
  8.243579e+00    3.416163e+00
  8.259455e+00    3.458460e+00
  8.275330e+00    3.383873e+00
  8.291206e+00    3.324070e+00
  8.307081e+00    3.342079e+00
  8.322957e+00    3.378210e+00
  8.338833e+00    3.471538e+00
  8.354708e+00    3.400422e+00
  8.370584e+00    3.406388e+00
  8.386459e+00    3.415668e+00
  8.402335e+00    3.386764e+00
  8.418210e+00    3.367814e+00
  8.434086e+00    3.418353e+00
  8.449962e+00    3.377587e+00
  8.465837e+00    3.333805e+00
  8.481713e+00    3.367870e+00
  8.497588e+00    3.313349e+00
  8.513464e+00    3.371282e+00
  8.529339e+00    3.380089e+00
  8.545215e+00    3.350269e+00
  8.561091e+00    3.348339e+00
  8.576966e+00    3.358576e+00
  8.592842e+00    3.411805e+00
  8.608717e+00    3.378615e+00
  8.624593e+00    3.401184e+00
  8.640468e+00    3.369839e+00
  8.656344e+00    3.397375e+00
  8.672220e+00    3.374894e+00
  8.688095e+00    3.295962e+00
  8.703971e+00    3.331948e+00
  8.719846e+00    3.370891e+00
  8.735722e+00    3.328231e+00
  8.751598e+00    3.315245e+00
  8.767473e+00    3.343245e+00
  8.783349e+00    3.317441e+00
  8.799224e+00    3.314613e+00
  8.815100e+00    3.324616e+00
  8.830975e+00    3.299025e+00
  8.846851e+00    3.280908e+00
  8.862727e+00    3.299783e+00
  8.878602e+00    3.261921e+00
  8.894478e+00    3.294521e+00
  8.910353e+00    3.249410e+00
  8.926229e+00    3.260695e+00
  8.942104e+00    3.307694e+00
  8.957980e+00    3.341672e+00
  8.973856e+00    3.289164e+00
  8.989731e+00    3.330470e+00
  9.005607e+00    3.345165e+00
  9.021482e+00    3.265743e+00
  9.037358e+00    3.301405e+00
  9.053233e+00    3.340550e+00
  9.069109e+00    3.314812e+00
  9.084985e+00    3.265145e+00
  9.100860e+00    3.266253e+00
  9.116736e+00    3.285725e+00
  9.132611e+00    3.282723e+00
  9.148487e+00    3.303001e+00
  9.164362e+00    3.268820e+00
  9.180238e+00    3.241853e+00
  9.196114e+00    3.202851e+00
  9.211989e+00    3.286044e+00
  9.227865e+00    3.302387e+00
  9.243740e+00    3.246964e+00
  9.259616e+00    3.213013e+00
  9.275491e+00    3.227916e+00
  9.291367e+00    3.247436e+00
  9.307243e+00    3.174025e+00
  9.323118e+00    3.170246e+00
  9.338994e+00    3.171889e+00
  9.354869e+00    3.159287e+00
  9.370745e+00    3.252683e+00
  9.386620e+00    3.260886e+00
  9.402496e+00    3.256796e+00
  9.418372e+00    3.255011e+00
  9.434247e+00    3.216652e+00
  9.450123e+00    3.203984e+00
  9.465998e+00    3.246040e+00
  9.481874e+00    3.221347e+00
  9.497749e+00    3.198897e+00
  9.513625e+00    3.259547e+00
  9.529501e+00    3.251218e+00
  9.545376e+00    3.220378e+00
  9.561252e+00    3.255693e+00
  9.577127e+00    3.240543e+00
  9.593003e+00    3.239043e+00
  9.608878e+00    3.194707e+00
  9.624754e+00    3.256249e+00
  9.640630e+00    3.210779e+00
  9.656505e+00    3.140432e+00
  9.672381e+00    3.146088e+00
  9.688256e+00    3.096435e+00
  9.704132e+00    3.176998e+00
  9.720008e+00    3.219522e+00
  9.735883e+00    3.179572e+00
  9.751759e+00    3.168940e+00
  9.767634e+00    3.139936e+00
  9.783510e+00    3.157391e+00
  9.799385e+00    3.078366e+00
  9.815261e+00    3.123599e+00
  9.831137e+00    3.103826e+00
  9.847012e+00    3.121626e+00
  9.862888e+00    3.121308e+00
  9.878763e+00    3.136027e+00
  9.894639e+00    3.101061e+00
  9.910514e+00    3.132929e+00
  9.926390e+00    3.074193e+00
  9.942266e+00    3.122073e+00
  9.958141e+00    3.127187e+00
  9.974017e+00    3.091507e+00
  9.989892e+00    3.166312e+00
  1.000577e+01    3.189231e+00
  1.002164e+01    3.122885e+00
  1.003752e+01    3.152291e+00
  1.005339e+01    3.131869e+00
  1.006927e+01    3.111867e+00
  1.008515e+01    3.165924e+00
  1.010102e+01    3.126878e+00
  1.011690e+01    3.086127e+00
  1.013277e+01    3.145236e+00
  1.014865e+01    3.136633e+00
  1.016452e+01    3.088316e+00
  1.018040e+01    3.076230e+00
  1.019627e+01    3.026383e+00
  1.021215e+01    3.070335e+00
  1.022803e+01    3.096784e+00
  1.024390e+01    3.066537e+00
  1.025978e+01    3.056425e+00
  1.027565e+01    3.027458e+00
  1.029153e+01    3.006670e+00
  1.030740e+01    3.010028e+00
  1.032328e+01    3.017263e+00
  1.033915e+01    3.039903e+00
  1.035503e+01    3.048539e+00
  1.037091e+01    3.035020e+00
  1.038678e+01    3.073687e+00
  1.040266e+01    3.072884e+00
  1.041853e+01    3.064380e+00
  1.043441e+01    3.007221e+00
  1.045028e+01    3.021677e+00
  1.046616e+01    3.001192e+00
  1.048204e+01    3.017244e+00
  1.049791e+01    3.005633e+00
  1.051379e+01    2.994929e+00
  1.052966e+01    2.996509e+00
  1.054554e+01    2.958319e+00
  1.056141e+01    2.929284e+00
  1.057729e+01    2.953755e+00
  1.059316e+01    2.961671e+00
  1.060904e+01    2.983788e+00
  1.062492e+01    2.994909e+00
  1.064079e+01    3.004096e+00
  1.065667e+01    3.015690e+00
  1.067254e+01    3.014808e+00
  1.068842e+01    2.956778e+00
  1.070429e+01    3.002336e+00
  1.072017e+01    2.969144e+00
  1.073604e+01    2.937556e+00
  1.075192e+01    2.956112e+00
  1.076780e+01    2.961862e+00
  1.078367e+01    2.966958e+00
  1.079955e+01    2.963658e+00
  1.081542e+01    2.927679e+00
  1.083130e+01    2.928074e+00
  1.084717e+01    2.941689e+00
  1.086305e+01    2.949721e+00
  1.087892e+01    2.913503e+00
  1.089480e+01    2.895712e+00
  1.091068e+01    2.893015e+00
  1.092655e+01    2.926821e+00
  1.094243e+01    2.911844e+00
  1.095830e+01    2.954426e+00
  1.097418e+01    2.927445e+00
  1.099005e+01    2.906349e+00
  1.100593e+01    2.901217e+00
  1.102180e+01    2.859500e+00
  1.103768e+01    2.908993e+00
  1.105356e+01    2.869090e+00
  1.106943e+01    2.863849e+00
  1.108531e+01    2.925711e+00
  1.110118e+01    2.919281e+00
  1.111706e+01    2.894278e+00
  1.113293e+01    2.899616e+00
  1.114881e+01    2.854407e+00
  1.116468e+01    2.891626e+00
  1.118056e+01    2.876743e+00
  1.119644e+01    2.930569e+00
  1.121231e+01    2.908852e+00
  1.122819e+01    2.870984e+00
  1.124406e+01    2.873734e+00
  1.125994e+01    2.838805e+00
  1.127581e+01    2.865207e+00
  1.129169e+01    2.840506e+00
  1.130756e+01    2.846179e+00
  1.132344e+01    2.861419e+00
  1.133932e+01    2.843838e+00
  1.135519e+01    2.832002e+00
  1.137107e+01    2.800500e+00
  1.138694e+01    2.831634e+00
  1.140282e+01    2.841352e+00
  1.141869e+01    2.818205e+00
  1.143457e+01    2.806839e+00
  1.145045e+01    2.799358e+00
  1.146632e+01    2.839936e+00
  1.148220e+01    2.800824e+00
  1.149807e+01    2.839433e+00
  1.151395e+01    2.819755e+00
  1.152982e+01    2.766983e+00
  1.154570e+01    2.769070e+00
  1.156157e+01    2.748689e+00
  1.157745e+01    2.765519e+00
  1.159333e+01    2.719386e+00
  1.160920e+01    2.710749e+00
  1.162508e+01    2.766945e+00
  1.164095e+01    2.778091e+00
  1.165683e+01    2.781885e+00
  1.167270e+01    2.784961e+00
  1.168858e+01    2.770279e+00
  1.170445e+01    2.756975e+00
  1.172033e+01    2.766310e+00
  1.173621e+01    2.731740e+00
  1.175208e+01    2.709196e+00
  1.176796e+01    2.721421e+00
  1.178383e+01    2.719390e+00
  1.179971e+01    2.755416e+00
  1.181558e+01    2.765469e+00
  1.183146e+01    2.745799e+00
  1.184733e+01    2.747895e+00
  1.186321e+01    2.707809e+00
  1.187909e+01    2.677745e+00
  1.189496e+01    2.725195e+00
  1.191084e+01    2.716136e+00
  1.192671e+01    2.739921e+00
  1.194259e+01    2.724582e+00
  1.195846e+01    2.754359e+00
  1.197434e+01    2.719591e+00
  1.199021e+01    2.747621e+00
  1.200609e+01    2.749877e+00
  1.202197e+01    2.748489e+00
  1.203784e+01    2.682896e+00
  1.205372e+01    2.693904e+00
  1.206959e+01    2.681678e+00
  1.208547e+01    2.680261e+00
  1.210134e+01    2.696130e+00
  1.211722e+01    2.705244e+00
  1.213309e+01    2.723687e+00
  1.214897e+01    2.681156e+00
  1.216485e+01    2.661981e+00
  1.218072e+01    2.701720e+00
  1.219660e+01    2.700513e+00
  1.221247e+01    2.703536e+00
  1.222835e+01    2.726893e+00
  1.224422e+01    2.725391e+00
  1.226010e+01    2.684552e+00
  1.227597e+01    2.671887e+00
  1.229185e+01    2.686920e+00
  1.230773e+01    2.662583e+00
  1.232360e+01    2.677754e+00
  1.233948e+01    2.732392e+00
  1.235535e+01    2.706964e+00
  1.237123e+01    2.686146e+00
  1.238710e+01    2.706375e+00
  1.240298e+01    2.668046e+00
  1.241886e+01    2.667615e+00
  1.243473e+01    2.696025e+00
  1.245061e+01    2.677681e+00
  1.246648e+01    2.679506e+00
  1.248236e+01    2.723293e+00
  1.249823e+01    2.762217e+00
  1.251411e+01    2.732123e+00
  1.252998e+01    2.734172e+00
  1.254586e+01    2.733614e+00
  1.256174e+01    2.675790e+00
  1.257761e+01    2.769085e+00
  1.259349e+01    2.779200e+00
  1.260936e+01    2.759934e+00
  1.262524e+01    2.749646e+00
  1.264111e+01    2.756608e+00
  1.265699e+01    2.726311e+00
  1.267286e+01    2.764927e+00
  1.268874e+01    2.788619e+00
  1.270462e+01    2.792704e+00
  1.272049e+01    2.847383e+00
  1.273637e+01    2.852246e+00
  1.275224e+01    2.908512e+00
  1.276812e+01    2.942770e+00
  1.278399e+01    2.970119e+00
  1.279987e+01    2.975682e+00
  1.281574e+01    3.025182e+00
  1.283162e+01    3.103089e+00
  1.284750e+01    3.207563e+00
  1.286337e+01    3.240231e+00
  1.287925e+01    3.327938e+00
  1.289512e+01    3.518816e+00
  1.291100e+01    3.626783e+00
  1.292687e+01    3.809146e+00
  1.294275e+01    4.054396e+00
  1.295862e+01    4.380254e+00
  1.297450e+01    4.706591e+00
  1.299038e+01    5.165289e+00
  1.300625e+01    5.815824e+00
  1.302213e+01    6.604648e+00
  1.303800e+01    7.605588e+00
  1.305388e+01    8.834789e+00
  1.306975e+01    1.021528e+01
  1.308563e+01    1.141812e+01
  1.310150e+01    1.272727e+01
  1.311738e+01    1.369797e+01
  1.313326e+01    1.463315e+01
  1.314913e+01    1.549960e+01
  1.316501e+01    1.605920e+01
  1.318088e+01    1.625719e+01
  1.319676e+01    1.565986e+01
  1.321263e+01    1.419590e+01
  1.322851e+01    1.245051e+01
  1.324438e+01    1.068106e+01
  1.326026e+01    9.104280e+00
  1.327614e+01    7.758796e+00
  1.329201e+01    6.691377e+00
  1.330789e+01    5.948159e+00
  1.332376e+01    5.339810e+00
  1.333964e+01    4.804037e+00
  1.335551e+01    4.428451e+00
  1.337139e+01    4.043443e+00
  1.338727e+01    3.847915e+00
  1.340314e+01    3.705185e+00
  1.341902e+01    3.490734e+00
  1.343489e+01    3.352653e+00
  1.345077e+01    3.214743e+00
  1.346664e+01    3.121694e+00
  1.348252e+01    2.999529e+00
  1.349839e+01    2.945087e+00
  1.351427e+01    2.936660e+00
  1.353015e+01    2.897966e+00
  1.354602e+01    2.805452e+00
  1.356190e+01    2.754167e+00
  1.357777e+01    2.689335e+00
  1.359365e+01    2.704234e+00
  1.360952e+01    2.684577e+00
  1.362540e+01    2.685497e+00
  1.364127e+01    2.648720e+00
  1.365715e+01    2.619684e+00
  1.367303e+01    2.583173e+00
  1.368890e+01    2.545413e+00
  1.370478e+01    2.561175e+00
  1.372065e+01    2.531417e+00
  1.373653e+01    2.531010e+00
  1.375240e+01    2.514110e+00
  1.376828e+01    2.517594e+00
  1.378415e+01    2.465536e+00
  1.380003e+01    2.464336e+00
  1.381591e+01    2.457744e+00
  1.383178e+01    2.445003e+00
  1.384766e+01    2.422737e+00
  1.386353e+01    2.412263e+00
  1.387941e+01    2.409061e+00
  1.389528e+01    2.449081e+00
  1.391116e+01    2.456487e+00
  1.392703e+01    2.413458e+00
  1.394291e+01    2.377752e+00
  1.395879e+01    2.359650e+00
  1.397466e+01    2.328438e+00
  1.399054e+01    2.342774e+00
  1.400641e+01    2.366498e+00
  1.402229e+01    2.335390e+00
  1.403816e+01    2.304874e+00
  1.405404e+01    2.331398e+00
  1.406991e+01    2.372129e+00
  1.408579e+01    2.361210e+00
  1.410167e+01    2.309435e+00
  1.411754e+01    2.326070e+00
  1.413342e+01    2.336236e+00
  1.414929e+01    2.320039e+00
  1.416517e+01    2.310435e+00
  1.418104e+01    2.332978e+00
  1.419692e+01    2.325349e+00
  1.421279e+01    2.381036e+00
  1.422867e+01    2.309614e+00
  1.424455e+01    2.252906e+00
  1.426042e+01    2.246787e+00
  1.427630e+01    2.243640e+00
  1.429217e+01    2.274608e+00
  1.430805e+01    2.279980e+00
  1.432392e+01    2.256730e+00
  1.433980e+01    2.226766e+00
  1.435568e+01    2.216473e+00
  1.437155e+01    2.241287e+00
  1.438743e+01    2.242645e+00
  1.440330e+01    2.251473e+00
  1.441918e+01    2.208050e+00
  1.443505e+01    2.206425e+00
  1.445093e+01    2.199279e+00
  1.446680e+01    2.204215e+00
  1.448268e+01    2.251304e+00
  1.449856e+01    2.277965e+00
  1.451443e+01    2.235381e+00
  1.453031e+01    2.215601e+00
  1.454618e+01    2.211846e+00
  1.456206e+01    2.188022e+00
  1.457793e+01    2.194892e+00
  1.459381e+01    2.242368e+00
  1.460968e+01    2.244658e+00
  1.462556e+01    2.220975e+00
  1.464144e+01    2.261321e+00
  1.465731e+01    2.220219e+00
  1.467319e+01    2.210730e+00
  1.468906e+01    2.174479e+00
  1.470494e+01    2.158946e+00
  1.472081e+01    2.220218e+00
  1.473669e+01    2.231746e+00
  1.475256e+01    2.179948e+00
  1.476844e+01    2.172287e+00
  1.478432e+01    2.221164e+00
  1.480019e+01    2.193097e+00
  1.481607e+01    2.243282e+00
  1.483194e+01    2.236053e+00
  1.484782e+01    2.234747e+00
  1.486369e+01    2.204204e+00
  1.487957e+01    2.190685e+00
  1.489544e+01    2.241280e+00
  1.491132e+01    2.240935e+00
  1.492720e+01    2.290946e+00
  1.494307e+01    2.317341e+00
  1.495895e+01    2.348529e+00
  1.497482e+01    2.377160e+00
  1.499070e+01    2.438841e+00
  1.500657e+01    2.437578e+00
  1.502245e+01    2.493984e+00
  1.503832e+01    2.590034e+00
  1.505420e+01    2.679101e+00
  1.507008e+01    2.834403e+00
  1.508595e+01    2.993294e+00
  1.510183e+01    3.228788e+00
  1.511770e+01    3.457624e+00
  1.513358e+01    3.842965e+00
  1.514945e+01    4.208642e+00
  1.516533e+01    4.498318e+00
  1.518120e+01    4.838583e+00
  1.519708e+01    5.122794e+00
  1.521296e+01    5.326179e+00
  1.522883e+01    5.616642e+00
  1.524471e+01    5.704592e+00
  1.526058e+01    5.750912e+00
  1.527646e+01    5.659959e+00
  1.529233e+01    5.434929e+00
  1.530821e+01    5.109805e+00
  1.532409e+01    4.655169e+00
  1.533996e+01    4.185331e+00
  1.535584e+01    3.799649e+00
  1.537171e+01    3.424629e+00
  1.538759e+01    3.134457e+00
  1.540346e+01    2.928399e+00
  1.541934e+01    2.732974e+00
  1.543521e+01    2.577317e+00
  1.545109e+01    2.492133e+00
  1.546697e+01    2.385186e+00
  1.548284e+01    2.382732e+00
  1.549872e+01    2.316854e+00
  1.551459e+01    2.251066e+00
  1.553047e+01    2.213551e+00
  1.554634e+01    2.182273e+00
  1.556222e+01    2.138943e+00
  1.557809e+01    2.085708e+00
  1.559397e+01    2.096789e+00
  1.560985e+01    2.121348e+00
  1.562572e+01    2.071387e+00
  1.564160e+01    1.995379e+00
  1.565747e+01    1.999081e+00
  1.567335e+01    2.006560e+00
  1.568922e+01    1.989253e+00
  1.570510e+01    2.007705e+00
  1.572097e+01    1.974884e+00
  1.573685e+01    1.954523e+00
  1.575273e+01    1.940453e+00
  1.576860e+01    1.937754e+00
  1.578448e+01    1.946737e+00
  1.580035e+01    1.939077e+00
  1.581623e+01    1.970634e+00
  1.583210e+01    1.932832e+00
  1.584798e+01    1.921601e+00
  1.586385e+01    1.935979e+00
  1.587973e+01    1.909972e+00
  1.589561e+01    1.863195e+00
  1.591148e+01    1.915024e+00
  1.592736e+01    1.906867e+00
  1.594323e+01    1.886853e+00
  1.595911e+01    1.893826e+00
  1.597498e+01    1.903265e+00
  1.599086e+01    1.886286e+00
  1.600673e+01    1.894569e+00
  1.602261e+01    1.855294e+00
  1.603849e+01    1.816851e+00
  1.605436e+01    1.884487e+00
  1.607024e+01    1.873884e+00
  1.608611e+01    1.872084e+00
  1.610199e+01    1.844964e+00
  1.611786e+01    1.840553e+00
  1.613374e+01    1.842532e+00
  1.614961e+01    1.862349e+00
  1.616549e+01    1.830709e+00
  1.618137e+01    1.817336e+00
  1.619724e+01    1.822779e+00
  1.621312e+01    1.845690e+00
  1.622899e+01    1.814746e+00
  1.624487e+01    1.827000e+00
  1.626074e+01    1.792107e+00
  1.627662e+01    1.784999e+00
  1.629250e+01    1.781643e+00
  1.630837e+01    1.796085e+00
  1.632425e+01    1.782508e+00
  1.634012e+01    1.783104e+00
  1.635600e+01    1.750849e+00
  1.637187e+01    1.751573e+00
  1.638775e+01    1.802734e+00
  1.640362e+01    1.771313e+00
  1.641950e+01    1.756737e+00
  1.643538e+01    1.775881e+00
  1.645125e+01    1.779477e+00
  1.646713e+01    1.772184e+00
  1.648300e+01    1.789752e+00
  1.649888e+01    1.784848e+00
  1.651475e+01    1.764422e+00
  1.653063e+01    1.785845e+00
  1.654650e+01    1.721076e+00
  1.656238e+01    1.732563e+00
  1.657826e+01    1.773805e+00
  1.659413e+01    1.782148e+00
  1.661001e+01    1.768510e+00
  1.662588e+01    1.739812e+00
  1.664176e+01    1.701604e+00
  1.665763e+01    1.725917e+00
  1.667351e+01    1.746499e+00
  1.668938e+01    1.739137e+00
  1.670526e+01    1.724649e+00
  1.672114e+01    1.741908e+00
  1.673701e+01    1.736658e+00
  1.675289e+01    1.741485e+00
  1.676876e+01    1.712639e+00
  1.678464e+01    1.686574e+00
  1.680051e+01    1.686608e+00
  1.681639e+01    1.721697e+00
  1.683226e+01    1.687939e+00
  1.684814e+01    1.662554e+00
  1.686402e+01    1.669289e+00
  1.687989e+01    1.688055e+00
  1.689577e+01    1.691197e+00
  1.691164e+01    1.680622e+00
  1.692752e+01    1.652362e+00
  1.694339e+01    1.671046e+00
  1.695927e+01    1.670644e+00
  1.697514e+01    1.665018e+00
  1.699102e+01    1.675857e+00
  1.700690e+01    1.661846e+00
  1.702277e+01    1.645744e+00
  1.703865e+01    1.635344e+00
  1.705452e+01    1.621437e+00
  1.707040e+01    1.638693e+00
  1.708627e+01    1.651839e+00
  1.710215e+01    1.649999e+00
  1.711802e+01    1.641302e+00
  1.713390e+01    1.652596e+00
  1.714978e+01    1.637645e+00
  1.716565e+01    1.645451e+00
  1.718153e+01    1.659762e+00
  1.719740e+01    1.637585e+00
  1.721328e+01    1.618421e+00
  1.722915e+01    1.591722e+00
  1.724503e+01    1.611502e+00
  1.726091e+01    1.611446e+00
  1.727678e+01    1.598165e+00
  1.729266e+01    1.592196e+00
  1.730853e+01    1.609694e+00
  1.732441e+01    1.627455e+00
  1.734028e+01    1.637327e+00
  1.735616e+01    1.606801e+00
  1.737203e+01    1.616811e+00
  1.738791e+01    1.606177e+00
  1.740379e+01    1.580011e+00
  1.741966e+01    1.600764e+00
  1.743554e+01    1.599068e+00
  1.745141e+01    1.597964e+00
  1.746729e+01    1.576104e+00
  1.748316e+01    1.561114e+00
  1.749904e+01    1.572642e+00
  1.751491e+01    1.592625e+00
  1.753079e+01    1.591414e+00
  1.754667e+01    1.596535e+00
  1.756254e+01    1.559001e+00
  1.757842e+01    1.548856e+00
  1.759429e+01    1.584674e+00
  1.761017e+01    1.586801e+00
  1.762604e+01    1.571709e+00
  1.764192e+01    1.577294e+00
  1.765779e+01    1.587420e+00
  1.767367e+01    1.556680e+00
  1.768955e+01    1.532387e+00
  1.770542e+01    1.547521e+00
  1.772130e+01    1.551702e+00
  1.773717e+01    1.541823e+00
  1.775305e+01    1.538416e+00
  1.776892e+01    1.552931e+00
  1.778480e+01    1.544992e+00
  1.780067e+01    1.540194e+00
  1.781655e+01    1.538787e+00
  1.783243e+01    1.540126e+00
  1.784830e+01    1.535100e+00
  1.786418e+01    1.530588e+00
  1.788005e+01    1.529983e+00
  1.789593e+01    1.517217e+00
  1.791180e+01    1.515353e+00
  1.792768e+01    1.512955e+00
  1.794355e+01    1.504838e+00
  1.795943e+01    1.500274e+00
  1.797531e+01    1.533363e+00
  1.799118e+01    1.541359e+00
  1.800706e+01    1.506035e+00
  1.802293e+01    1.462366e+00
  1.803881e+01    1.494370e+00
  1.805468e+01    1.499917e+00
  1.807056e+01    1.472565e+00
  1.808643e+01    1.475098e+00
  1.810231e+01    1.507206e+00
  1.811819e+01    1.473312e+00
  1.813406e+01    1.467971e+00
  1.814994e+01    1.463570e+00
  1.816581e+01    1.457097e+00
  1.818169e+01    1.490446e+00
  1.819756e+01    1.479234e+00
  1.821344e+01    1.482218e+00
  1.822932e+01    1.493028e+00
  1.824519e+01    1.469281e+00
  1.826107e+01    1.485850e+00
  1.827694e+01    1.487114e+00
  1.829282e+01    1.450907e+00
  1.830869e+01    1.445000e+00
  1.832457e+01    1.470277e+00
  1.834044e+01    1.454076e+00
  1.835632e+01    1.446379e+00
  1.837220e+01    1.430242e+00
  1.838807e+01    1.448207e+00
  1.840395e+01    1.463573e+00
  1.841982e+01    1.456237e+00
  1.843570e+01    1.462952e+00
  1.845157e+01    1.456772e+00
  1.846745e+01    1.456195e+00
  1.848332e+01    1.466958e+00
  1.849920e+01    1.459356e+00
  1.851508e+01    1.439291e+00
  1.853095e+01    1.442072e+00
  1.854683e+01    1.438085e+00
  1.856270e+01    1.434847e+00
  1.857858e+01    1.441479e+00
  1.859445e+01    1.428999e+00
  1.861033e+01    1.418264e+00
  1.862620e+01    1.427075e+00
  1.864208e+01    1.419405e+00
  1.865796e+01    1.416734e+00
  1.867383e+01    1.445149e+00
  1.868971e+01    1.404689e+00
  1.870558e+01    1.417006e+00
  1.872146e+01    1.434013e+00
  1.873733e+01    1.436502e+00
  1.875321e+01    1.425626e+00
  1.876908e+01    1.396416e+00
  1.878496e+01    1.402162e+00
  1.880084e+01    1.412157e+00
  1.881671e+01    1.419959e+00
  1.883259e+01    1.396955e+00
  1.884846e+01    1.413035e+00
  1.886434e+01    1.421564e+00
  1.888021e+01    1.408341e+00
  1.889609e+01    1.385240e+00
  1.891196e+01    1.407741e+00
  1.892784e+01    1.412327e+00
  1.894372e+01    1.382513e+00
  1.895959e+01    1.388428e+00
  1.897547e+01    1.384458e+00
  1.899134e+01    1.393051e+00
  1.900722e+01    1.387562e+00
  1.902309e+01    1.384782e+00
  1.903897e+01    1.363346e+00
  1.905484e+01    1.377742e+00
  1.907072e+01    1.377505e+00
  1.908660e+01    1.393209e+00
  1.910247e+01    1.388361e+00
  1.911835e+01    1.373246e+00
  1.913422e+01    1.369425e+00
  1.915010e+01    1.380112e+00
  1.916597e+01    1.386732e+00
  1.918185e+01    1.391301e+00
  1.919773e+01    1.355612e+00
  1.921360e+01    1.353010e+00
  1.922948e+01    1.339845e+00
  1.924535e+01    1.319681e+00
  1.926123e+01    1.329668e+00
  1.927710e+01    1.381174e+00
  1.929298e+01    1.374654e+00
  1.930885e+01    1.340801e+00
  1.932473e+01    1.329710e+00
  1.934061e+01    1.361556e+00
  1.935648e+01    1.349236e+00
  1.937236e+01    1.347239e+00
  1.938823e+01    1.338268e+00
  1.940411e+01    1.321885e+00
  1.941998e+01    1.340924e+00
  1.943586e+01    1.359556e+00
  1.945173e+01    1.306142e+00
  1.946761e+01    1.314548e+00
  1.948349e+01    1.329382e+00
  1.949936e+01    1.296262e+00
  1.951524e+01    1.331014e+00
  1.953111e+01    1.334747e+00
  1.954699e+01    1.335065e+00
  1.956286e+01    1.328052e+00
  1.957874e+01    1.349319e+00
  1.959461e+01    1.324050e+00
  1.961049e+01    1.324469e+00
  1.962637e+01    1.295832e+00
  1.964224e+01    1.292648e+00
  1.965812e+01    1.297480e+00
  1.967399e+01    1.311837e+00
  1.968987e+01    1.328509e+00
  1.970574e+01    1.329474e+00
  1.972162e+01    1.294498e+00
  1.973749e+01    1.305682e+00
  1.975337e+01    1.318431e+00
  1.976925e+01    1.295892e+00
  1.978512e+01    1.307841e+00
  1.980100e+01    1.287165e+00
  1.981687e+01    1.267959e+00
  1.983275e+01    1.300504e+00
  1.984862e+01    1.294376e+00
  1.986450e+01    1.299415e+00
  1.988037e+01    1.295285e+00
  1.989625e+01    1.264149e+00
  1.991213e+01    1.256592e+00
  1.992800e+01    1.269418e+00
  1.994388e+01    1.271985e+00
  1.995975e+01    1.276096e+00
  1.997563e+01    1.295984e+00
  1.999150e+01    1.298890e+00
  2.000738e+01    1.279196e+00
  2.002325e+01    1.248339e+00
  2.003913e+01    1.258147e+00
  2.005501e+01    1.264994e+00
  2.007088e+01    1.261797e+00
  2.008676e+01    1.302337e+00
  2.010263e+01    1.277166e+00
  2.011851e+01    1.282463e+00
  2.013438e+01    1.256101e+00
  2.015026e+01    1.274408e+00
  2.016614e+01    1.275734e+00
  2.018201e+01    1.286144e+00
  2.019789e+01    1.273396e+00
  2.021376e+01    1.272463e+00
  2.022964e+01    1.250387e+00
  2.024551e+01    1.240755e+00
  2.026139e+01    1.259179e+00
  2.027726e+01    1.255460e+00
  2.029314e+01    1.246839e+00
  2.030902e+01    1.242701e+00
  2.032489e+01    1.243375e+00
  2.034077e+01    1.253196e+00
  2.035664e+01    1.250069e+00
  2.037252e+01    1.250653e+00
  2.038839e+01    1.249241e+00
  2.040427e+01    1.266162e+00
  2.042014e+01    1.248852e+00
  2.043602e+01    1.261949e+00
  2.045190e+01    1.268281e+00
  2.046777e+01    1.258343e+00
  2.048365e+01    1.209978e+00
  2.049952e+01    1.243295e+00
  2.051540e+01    1.256597e+00
  2.053127e+01    1.254864e+00
  2.054715e+01    1.252590e+00
  2.056302e+01    1.242997e+00
  2.057890e+01    1.217547e+00
  2.059478e+01    1.219499e+00
  2.061065e+01    1.228145e+00
  2.062653e+01    1.237311e+00
  2.064240e+01    1.220758e+00
  2.065828e+01    1.212210e+00
  2.067415e+01    1.205340e+00
  2.069003e+01    1.209912e+00
  2.070590e+01    1.208676e+00
  2.072178e+01    1.215956e+00
  2.073766e+01    1.235552e+00
  2.075353e+01    1.253307e+00
  2.076941e+01    1.220884e+00
  2.078528e+01    1.225901e+00
  2.080116e+01    1.234101e+00
  2.081703e+01    1.247000e+00
  2.083291e+01    1.221736e+00
  2.084878e+01    1.234296e+00
  2.086466e+01    1.278040e+00
  2.088054e+01    1.230444e+00
  2.089641e+01    1.227766e+00
  2.091229e+01    1.228272e+00
  2.092816e+01    1.248873e+00
  2.094404e+01    1.235231e+00
  2.095991e+01    1.238281e+00
  2.097579e+01    1.258631e+00
  2.099166e+01    1.252817e+00
  2.100754e+01    1.235928e+00
  2.102342e+01    1.224778e+00
  2.103929e+01    1.211137e+00
  2.105517e+01    1.230728e+00
  2.107104e+01    1.218594e+00
  2.108692e+01    1.224578e+00
  2.110279e+01    1.216571e+00
  2.111867e+01    1.221047e+00
  2.113455e+01    1.232016e+00
  2.115042e+01    1.255062e+00
  2.116630e+01    1.239932e+00
  2.118217e+01    1.213112e+00
  2.119805e+01    1.205988e+00
  2.121392e+01    1.250310e+00
  2.122980e+01    1.245878e+00
  2.124567e+01    1.265386e+00
  2.126155e+01    1.252806e+00
  2.127743e+01    1.259342e+00
  2.129330e+01    1.237997e+00
  2.130918e+01    1.245133e+00
  2.132505e+01    1.248697e+00
  2.134093e+01    1.277740e+00
  2.135680e+01    1.298363e+00
  2.137268e+01    1.306267e+00
  2.138855e+01    1.311006e+00
  2.140443e+01    1.315402e+00
  2.142031e+01    1.339962e+00
  2.143618e+01    1.319684e+00
  2.145206e+01    1.350601e+00
  2.146793e+01    1.360230e+00
  2.148381e+01    1.376571e+00
  2.149968e+01    1.415215e+00
  2.151556e+01    1.430723e+00
  2.153143e+01    1.450005e+00
  2.154731e+01    1.508917e+00
  2.156319e+01    1.559164e+00
  2.157906e+01    1.616478e+00
  2.159494e+01    1.694437e+00
  2.161081e+01    1.774968e+00
  2.162669e+01    1.852708e+00
  2.164256e+01    1.937671e+00
  2.165844e+01    2.090584e+00
  2.167431e+01    2.269661e+00
  2.169019e+01    2.492651e+00
  2.170607e+01    2.761495e+00
  2.172194e+01    3.089381e+00
  2.173782e+01    3.530089e+00
  2.175369e+01    4.024148e+00
  2.176957e+01    4.577634e+00
  2.178544e+01    5.189806e+00
  2.180132e+01    5.762529e+00
  2.181719e+01    6.437455e+00
  2.183307e+01    7.145505e+00
  2.184895e+01    7.768229e+00
  2.186482e+01    8.297985e+00
  2.188070e+01    8.689523e+00
  2.189657e+01    8.851510e+00
  2.191245e+01    8.735515e+00
  2.192832e+01    8.252863e+00
  2.194420e+01    7.497890e+00
  2.196007e+01    6.595049e+00
  2.197595e+01    5.673290e+00
  2.199183e+01    4.855033e+00
  2.200770e+01    4.196770e+00
  2.202358e+01    3.661574e+00
  2.203945e+01    3.198766e+00
  2.205533e+01    2.825635e+00
  2.207120e+01    2.564739e+00
  2.208708e+01    2.323835e+00
  2.210296e+01    2.157823e+00
  2.211883e+01    1.971215e+00
  2.213471e+01    1.878033e+00
  2.215058e+01    1.800146e+00
  2.216646e+01    1.711834e+00
  2.218233e+01    1.591380e+00
  2.219821e+01    1.536649e+00
  2.221408e+01    1.495088e+00
  2.222996e+01    1.459491e+00
  2.224584e+01    1.430073e+00
  2.226171e+01    1.381790e+00
  2.227759e+01    1.337793e+00
  2.229346e+01    1.316821e+00
  2.230934e+01    1.282076e+00
  2.232521e+01    1.282424e+00
  2.234109e+01    1.269955e+00
  2.235696e+01    1.225738e+00
  2.237284e+01    1.204485e+00
  2.238872e+01    1.227319e+00
  2.240459e+01    1.204705e+00
  2.242047e+01    1.206398e+00
  2.243634e+01    1.166128e+00
  2.245222e+01    1.150240e+00
  2.246809e+01    1.161604e+00
  2.248397e+01    1.169087e+00
  2.249984e+01    1.150922e+00
  2.251572e+01    1.144375e+00
  2.253160e+01    1.127067e+00
  2.254747e+01    1.120189e+00
  2.256335e+01    1.128432e+00
  2.257922e+01    1.108886e+00
  2.259510e+01    1.089768e+00
  2.261097e+01    1.101941e+00
  2.262685e+01    1.101616e+00
  2.264272e+01    1.119115e+00
  2.265860e+01    1.102063e+00
  2.267448e+01    1.104767e+00
  2.269035e+01    1.080674e+00
  2.270623e+01    1.065833e+00
  2.272210e+01    1.061168e+00
  2.273798e+01    1.053393e+00
  2.275385e+01    1.076989e+00
  2.276973e+01    1.061991e+00
  2.278560e+01    1.052101e+00
  2.280148e+01    1.051170e+00
  2.281736e+01    1.048005e+00
  2.283323e+01    1.027462e+00
  2.284911e+01    1.022405e+00
  2.286498e+01    1.040362e+00
  2.288086e+01    1.027591e+00
  2.289673e+01    1.034023e+00
  2.291261e+01    1.026028e+00
  2.292848e+01    1.046746e+00
  2.294436e+01    1.037035e+00
  2.296024e+01    1.034678e+00
  2.297611e+01    1.019095e+00
  2.299199e+01    1.007712e+00
  2.300786e+01    1.000171e+00
  2.302374e+01    1.027573e+00
  2.303961e+01    1.002233e+00
  2.305549e+01    9.996365e-01
  2.307137e+01    1.018487e+00
  2.308724e+01    1.020656e+00
  2.310312e+01    1.020696e+00
  2.311899e+01    9.872712e-01
  2.313487e+01    9.835106e-01
  2.315074e+01    9.985956e-01
  2.316662e+01    1.000542e+00
  2.318249e+01    9.716129e-01
  2.319837e+01    9.976149e-01
  2.321425e+01    1.014187e+00
  2.323012e+01    1.009720e+00
  2.324600e+01    9.939456e-01
  2.326187e+01    9.884629e-01
  2.327775e+01    9.762455e-01
  2.329362e+01    1.001294e+00
  2.330950e+01    9.961528e-01
  2.332537e+01    9.922788e-01
  2.334125e+01    9.922132e-01
  2.335713e+01    9.790948e-01
  2.337300e+01    9.771023e-01
  2.338888e+01    9.672430e-01
  2.340475e+01    9.800999e-01
  2.342063e+01    9.749086e-01
  2.343650e+01    9.761176e-01
  2.345238e+01    9.572813e-01
  2.346825e+01    9.611743e-01
  2.348413e+01    9.953556e-01
  2.350001e+01    9.863997e-01
  2.351588e+01    9.767485e-01
  2.353176e+01    9.723470e-01
  2.354763e+01    9.581536e-01
  2.356351e+01    9.491189e-01
  2.357938e+01    9.677218e-01
  2.359526e+01    9.667940e-01
  2.361113e+01    9.495915e-01
  2.362701e+01    9.556288e-01
  2.364289e+01    9.456437e-01
  2.365876e+01    9.350613e-01
  2.367464e+01    9.402063e-01
  2.369051e+01    9.441130e-01
  2.370639e+01    9.317989e-01
  2.372226e+01    9.285023e-01
  2.373814e+01    9.255416e-01
  2.375401e+01    9.226933e-01
  2.376989e+01    9.000134e-01
  2.378577e+01    9.236066e-01
  2.380164e+01    9.297420e-01
  2.381752e+01    9.351951e-01
  2.383339e+01    9.354458e-01
  2.384927e+01    9.240612e-01
  2.386514e+01    9.271148e-01
  2.388102e+01    9.204327e-01
  2.389689e+01    9.166878e-01
  2.391277e+01    9.082788e-01
  2.392865e+01    8.869790e-01
  2.394452e+01    8.906738e-01
  2.396040e+01    8.995129e-01
  2.397627e+01    8.852078e-01
  2.399215e+01    8.881795e-01
  2.400802e+01    8.801624e-01
  2.402390e+01    8.707742e-01
  2.403978e+01    8.813288e-01
  2.405565e+01    8.985887e-01
  2.407153e+01    9.135027e-01
  2.408740e+01    8.839661e-01
  2.410328e+01    8.919055e-01
  2.411915e+01    8.891400e-01
  2.413503e+01    8.852629e-01
  2.415090e+01    8.908375e-01
  2.416678e+01    8.687885e-01
  2.418266e+01    8.716496e-01
  2.419853e+01    8.787178e-01
  2.421441e+01    8.686990e-01
  2.423028e+01    8.679015e-01
  2.424616e+01    8.692720e-01
  2.426203e+01    8.767065e-01
  2.427791e+01    8.796272e-01
  2.429378e+01    8.784782e-01
  2.430966e+01    8.819255e-01
  2.432554e+01    8.808735e-01
  2.434141e+01    8.950373e-01
  2.435729e+01    8.867532e-01
  2.437316e+01    9.036421e-01
  2.438904e+01    8.844594e-01
  2.440491e+01    8.893048e-01
  2.442079e+01    8.929827e-01
  2.443666e+01    8.959321e-01
  2.445254e+01    9.265879e-01
  2.446842e+01    9.139557e-01
  2.448429e+01    8.853585e-01
  2.450017e+01    8.719487e-01
  2.451604e+01    8.831734e-01
  2.453192e+01    9.016010e-01
  2.454779e+01    8.908725e-01
  2.456367e+01    8.876942e-01
  2.457954e+01    8.912446e-01
  2.459542e+01    8.958909e-01
  2.461130e+01    8.730270e-01
  2.462717e+01    8.839943e-01
  2.464305e+01    8.842878e-01
  2.465892e+01    8.988941e-01
  2.467480e+01    8.880388e-01
  2.469067e+01    8.881858e-01
  2.470655e+01    8.885595e-01
  2.472242e+01    8.906565e-01
  2.473830e+01    8.933012e-01
  2.475418e+01    8.728722e-01
  2.477005e+01    8.698235e-01
  2.478593e+01    8.831925e-01
  2.480180e+01    9.007338e-01
  2.481768e+01    8.957714e-01
  2.483355e+01    8.814537e-01
  2.484943e+01    9.011642e-01
  2.486530e+01    8.850717e-01
  2.488118e+01    8.852081e-01
  2.489706e+01    8.896027e-01
  2.491293e+01    8.897236e-01
  2.492881e+01    8.822471e-01
  2.494468e+01    8.822726e-01
  2.496056e+01    8.837723e-01
  2.497643e+01    9.045286e-01
  2.499231e+01    8.978814e-01
  2.500819e+01    9.042180e-01
  2.502406e+01    8.917211e-01
  2.503994e+01    8.625659e-01
  2.505581e+01    8.865487e-01
  2.507169e+01    9.037955e-01
  2.508756e+01    8.974032e-01
  2.510344e+01    8.974839e-01
  2.511931e+01    9.160795e-01
  2.513519e+01    9.271835e-01
  2.515107e+01    9.079258e-01
  2.516694e+01    9.021398e-01
  2.518282e+01    8.941834e-01
  2.519869e+01    9.254379e-01
  2.521457e+01    9.331355e-01
  2.523044e+01    9.458415e-01
  2.524632e+01    9.468811e-01
  2.526219e+01    9.489350e-01
  2.527807e+01    9.460322e-01
  2.529395e+01    9.593248e-01
  2.530982e+01    9.613320e-01
  2.532570e+01    9.641894e-01
  2.534157e+01    9.545009e-01
  2.535745e+01    9.612983e-01
  2.537332e+01    9.819769e-01
  2.538920e+01    9.962290e-01
  2.540507e+01    1.005220e+00
  2.542095e+01    1.012083e+00
  2.543683e+01    1.027180e+00
  2.545270e+01    1.016873e+00
  2.546858e+01    9.952013e-01
  2.548445e+01    1.040450e+00
  2.550033e+01    1.055832e+00
  2.551620e+01    1.065990e+00
  2.553208e+01    1.079794e+00
  2.554795e+01    1.082261e+00
  2.556383e+01    1.110208e+00
  2.557971e+01    1.158744e+00
  2.559558e+01    1.194503e+00
  2.561146e+01    1.185045e+00
  2.562733e+01    1.236142e+00
  2.564321e+01    1.294410e+00
  2.565908e+01    1.354021e+00
  2.567496e+01    1.429002e+00
  2.569083e+01    1.477071e+00
  2.570671e+01    1.564532e+00
  2.572259e+01    1.703699e+00
  2.573846e+01    1.827639e+00
  2.575434e+01    1.992271e+00
  2.577021e+01    2.216748e+00
  2.578609e+01    2.468088e+00
  2.580196e+01    2.811722e+00
  2.581784e+01    3.161588e+00
  2.583371e+01    3.586955e+00
  2.584959e+01    4.079709e+00
  2.586547e+01    4.615547e+00
  2.588134e+01    5.200073e+00
  2.589722e+01    5.795834e+00
  2.591309e+01    6.311219e+00
  2.592897e+01    6.716304e+00
  2.594484e+01    7.000817e+00
  2.596072e+01    7.060196e+00
  2.597660e+01    6.985782e+00
  2.599247e+01    6.588476e+00
  2.600835e+01    6.030380e+00
  2.602422e+01    5.318933e+00
  2.604010e+01    4.595104e+00
  2.605597e+01    3.964916e+00
  2.607185e+01    3.408738e+00
  2.608772e+01    2.953293e+00
  2.610360e+01    2.595330e+00
  2.611948e+01    2.353899e+00
  2.613535e+01    2.151058e+00
  2.615123e+01    1.959967e+00
  2.616710e+01    1.790227e+00
  2.618298e+01    1.685433e+00
  2.619885e+01    1.599076e+00
  2.621473e+01    1.476187e+00
  2.623060e+01    1.413830e+00
  2.624648e+01    1.334410e+00
  2.626236e+01    1.283895e+00
  2.627823e+01    1.249066e+00
  2.629411e+01    1.221739e+00
  2.630998e+01    1.186009e+00
  2.632586e+01    1.133808e+00
  2.634173e+01    1.119323e+00
  2.635761e+01    1.103909e+00
  2.637348e+01    1.079272e+00
  2.638936e+01    1.080391e+00
  2.640524e+01    1.059703e+00
  2.642111e+01    1.062616e+00
  2.643699e+01    1.023670e+00
  2.645286e+01    1.025055e+00
  2.646874e+01    1.031804e+00
  2.648461e+01    1.018234e+00
  2.650049e+01    1.000647e+00
  2.651636e+01    1.009336e+00
  2.653224e+01    9.918468e-01
  2.654812e+01    9.877383e-01
  2.656399e+01    1.007299e+00
  2.657987e+01    9.889007e-01
  2.659574e+01    9.957907e-01
  2.661162e+01    9.884042e-01
  2.662749e+01    9.872920e-01
  2.664337e+01    9.884322e-01
  2.665924e+01    9.537877e-01
  2.667512e+01    9.572595e-01
  2.669100e+01    9.776800e-01
  2.670687e+01    9.535626e-01
  2.672275e+01    9.593539e-01
  2.673862e+01    9.520574e-01
  2.675450e+01    9.529899e-01
  2.677037e+01    9.585034e-01
  2.678625e+01    9.794672e-01
  2.680212e+01    9.738412e-01
  2.681800e+01    9.659627e-01
  2.683388e+01    9.808387e-01
  2.684975e+01    9.916863e-01
  2.686563e+01    9.883382e-01
  2.688150e+01    9.693690e-01
  2.689738e+01    9.916330e-01
  2.691325e+01    1.013898e+00
  2.692913e+01    1.017047e+00
  2.694501e+01    1.021364e+00
  2.696088e+01    1.032923e+00
  2.697676e+01    1.041872e+00
  2.699263e+01    1.075269e+00
  2.700851e+01    1.111190e+00
  2.702438e+01    1.134915e+00
  2.704026e+01    1.171957e+00
  2.705613e+01    1.254905e+00
  2.707201e+01    1.311770e+00
  2.708789e+01    1.386081e+00
  2.710376e+01    1.475763e+00
  2.711964e+01    1.574832e+00
  2.713551e+01    1.690331e+00
  2.715139e+01    1.845145e+00
  2.716726e+01    1.956268e+00
  2.718314e+01    2.073015e+00
  2.719901e+01    2.157400e+00
  2.721489e+01    2.171304e+00
  2.723077e+01    2.136607e+00
  2.724664e+01    2.096691e+00
  2.726252e+01    1.961039e+00
  2.727839e+01    1.828871e+00
  2.729427e+01    1.701052e+00
  2.731014e+01    1.548479e+00
  2.732602e+01    1.446898e+00
  2.734189e+01    1.368892e+00
  2.735777e+01    1.287451e+00
  2.737365e+01    1.220806e+00
  2.738952e+01    1.172451e+00
  2.740540e+01    1.118523e+00
  2.742127e+01    1.116130e+00
  2.743715e+01    1.072733e+00
  2.745302e+01    1.031321e+00
  2.746890e+01    1.009796e+00
  2.748477e+01    1.007423e+00
  2.750065e+01    9.945618e-01
  2.751653e+01    9.614380e-01
  2.753240e+01    9.722625e-01
  2.754828e+01    9.592308e-01
  2.756415e+01    9.527243e-01
  2.758003e+01    9.339525e-01
  2.759590e+01    9.200835e-01
  2.761178e+01    9.286345e-01
  2.762765e+01    9.303927e-01
  2.764353e+01    9.116660e-01
  2.765941e+01    9.145111e-01
  2.767528e+01    8.912355e-01
  2.769116e+01    9.106849e-01
  2.770703e+01    8.985558e-01
  2.772291e+01    8.984188e-01
  2.773878e+01    8.690841e-01
  2.775466e+01    8.852015e-01
  2.777054e+01    8.886175e-01
  2.778641e+01    8.666126e-01
  2.780229e+01    8.781768e-01
  2.781816e+01    8.800696e-01
  2.783404e+01    8.794212e-01
  2.784991e+01    8.670666e-01
  2.786579e+01    8.869237e-01
  2.788166e+01    8.779376e-01
  2.789754e+01    8.702847e-01
  2.791342e+01    8.875971e-01
  2.792929e+01    8.923673e-01
  2.794517e+01    8.824126e-01
  2.796104e+01    8.886406e-01
  2.797692e+01    8.832865e-01
  2.799279e+01    8.696442e-01
  2.800867e+01    8.825859e-01
  2.802454e+01    8.806161e-01
  2.804042e+01    8.544696e-01
  2.805630e+01    8.571584e-01
  2.807217e+01    8.646760e-01
  2.808805e+01    8.572524e-01
  2.810392e+01    8.738759e-01
  2.811980e+01    8.574077e-01
  2.813567e+01    8.494181e-01
  2.815155e+01    8.634290e-01
  2.816742e+01    8.661610e-01
  2.818330e+01    8.419852e-01
  2.819918e+01    8.596456e-01
  2.821505e+01    8.684708e-01
  2.823093e+01    8.398491e-01
  2.824680e+01    8.363967e-01
  2.826268e+01    8.165290e-01
  2.827855e+01    8.313789e-01
  2.829443e+01    8.440751e-01
  2.831030e+01    8.416452e-01
  2.832618e+01    8.343701e-01
  2.834206e+01    8.350386e-01
  2.835793e+01    8.422189e-01
  2.837381e+01    8.644947e-01
  2.838968e+01    8.507888e-01
  2.840556e+01    8.475543e-01
  2.842143e+01    8.384048e-01
  2.843731e+01    8.430063e-01
  2.845318e+01    8.286487e-01
  2.846906e+01    8.223810e-01
  2.848494e+01    8.189729e-01
  2.850081e+01    8.038899e-01
  2.851669e+01    8.301802e-01
  2.853256e+01    8.356274e-01
  2.854844e+01    8.330286e-01
  2.856431e+01    8.338311e-01
  2.858019e+01    8.292265e-01
  2.859606e+01    8.359365e-01
  2.861194e+01    8.389611e-01
  2.862782e+01    8.243266e-01
  2.864369e+01    8.104250e-01
  2.865957e+01    8.293284e-01
  2.867544e+01    8.234572e-01
  2.869132e+01    8.225238e-01
  2.870719e+01    8.385548e-01
  2.872307e+01    8.321386e-01
  2.873895e+01    8.223565e-01
  2.875482e+01    8.076720e-01
  2.877070e+01    8.019218e-01
  2.878657e+01    7.962627e-01
  2.880245e+01    8.181931e-01
  2.881832e+01    8.135520e-01
  2.883420e+01    8.075462e-01
  2.885007e+01    8.250862e-01
  2.886595e+01    8.268448e-01
  2.888183e+01    8.244693e-01
  2.889770e+01    8.251255e-01
  2.891358e+01    8.234579e-01
  2.892945e+01    8.370095e-01
  2.894533e+01    8.298507e-01
  2.896120e+01    7.984325e-01
  2.897708e+01    7.867430e-01
  2.899295e+01    8.339603e-01
  2.900883e+01    8.346829e-01
  2.902471e+01    8.038296e-01
  2.904058e+01    8.016781e-01
  2.905646e+01    7.988449e-01
  2.907233e+01    8.112929e-01
  2.908821e+01    8.130719e-01
  2.910408e+01    7.914667e-01
  2.911996e+01    8.101194e-01
  2.913583e+01    8.243755e-01
  2.915171e+01    8.288975e-01
  2.916759e+01    8.078558e-01
  2.918346e+01    8.197958e-01
  2.919934e+01    8.071171e-01
  2.921521e+01    8.061578e-01
  2.923109e+01    8.173696e-01
  2.924696e+01    7.898925e-01
  2.926284e+01    7.987869e-01
  2.927871e+01    8.163810e-01
  2.929459e+01    8.006520e-01
  2.931047e+01    7.881882e-01
  2.932634e+01    8.164740e-01
  2.934222e+01    8.157479e-01
  2.935809e+01    8.109350e-01
  2.937397e+01    8.016667e-01
  2.938984e+01    8.001190e-01
  2.940572e+01    7.853443e-01
  2.942159e+01    7.882990e-01
  2.943747e+01    7.788507e-01
  2.945335e+01    8.013768e-01
  2.946922e+01    8.121244e-01
  2.948510e+01    8.151723e-01
  2.950097e+01    8.081300e-01
  2.951685e+01    7.997615e-01
  2.953272e+01    7.898258e-01
  2.954860e+01    7.840955e-01
  2.956447e+01    7.783947e-01
  2.958035e+01    8.111020e-01
  2.959623e+01    8.083554e-01
  2.961210e+01    7.904208e-01
  2.962798e+01    8.061240e-01
  2.964385e+01    8.178976e-01
  2.965973e+01    8.100888e-01
  2.967560e+01    8.009220e-01
  2.969148e+01    8.045915e-01
  2.970736e+01    7.986941e-01
  2.972323e+01    7.833238e-01
  2.973911e+01    7.929492e-01
  2.975498e+01    7.942848e-01
  2.977086e+01    7.977166e-01
  2.978673e+01    7.956875e-01
  2.980261e+01    7.857293e-01
  2.981848e+01    7.933807e-01
  2.983436e+01    7.810200e-01
  2.985024e+01    7.887077e-01
  2.986611e+01    8.003594e-01
  2.988199e+01    7.778192e-01
  2.989786e+01    7.678806e-01
  2.991374e+01    7.894140e-01
  2.992961e+01    7.853878e-01
  2.994549e+01    7.771832e-01
  2.996136e+01    8.040995e-01
  2.997724e+01    7.696593e-01
  2.999312e+01    7.809259e-01
  3.000899e+01    7.907329e-01
  3.002487e+01    7.993477e-01
  3.004074e+01    8.050942e-01
  3.005662e+01    7.928740e-01
  3.007249e+01    7.962959e-01
  3.008837e+01    8.097569e-01
  3.010424e+01    8.066260e-01
  3.012012e+01    7.944883e-01
  3.013600e+01    8.128663e-01
  3.015187e+01    7.802355e-01
  3.016775e+01    7.597564e-01
  3.018362e+01    7.419922e-01
  3.019950e+01    7.658371e-01
  3.021537e+01    7.785143e-01
  3.023125e+01    7.899024e-01
  3.024712e+01    7.879413e-01
  3.026300e+01    7.835027e-01
  3.027888e+01    7.762762e-01
  3.029475e+01    7.859457e-01
  3.031063e+01    7.876133e-01
  3.032650e+01    7.712699e-01
  3.034238e+01    8.017378e-01
  3.035825e+01    7.951354e-01
  3.037413e+01    7.962549e-01
  3.039000e+01    7.982353e-01
  3.040588e+01    7.775133e-01
  3.042176e+01    7.716341e-01
  3.043763e+01    7.923713e-01
  3.045351e+01    7.949154e-01
  3.046938e+01    7.931778e-01
  3.048526e+01    7.975681e-01
  3.050113e+01    7.899649e-01
  3.051701e+01    7.758930e-01
  3.053288e+01    7.804227e-01
  3.054876e+01    7.852066e-01
  3.056464e+01    7.881912e-01
  3.058051e+01    7.689173e-01
  3.059639e+01    7.680435e-01
  3.061226e+01    7.777756e-01
  3.062814e+01    7.682549e-01
  3.064401e+01    7.811405e-01
  3.065989e+01    7.625822e-01
  3.067577e+01    7.900735e-01
  3.069164e+01    7.995874e-01
  3.070752e+01    8.088116e-01
  3.072339e+01    8.029726e-01
  3.073927e+01    7.977847e-01
  3.075514e+01    7.983401e-01
  3.077102e+01    7.968663e-01
  3.078689e+01    8.050188e-01
  3.080277e+01    7.811844e-01
  3.081865e+01    7.923942e-01
  3.083452e+01    7.882807e-01
  3.085040e+01    7.873045e-01
  3.086627e+01    7.727261e-01
  3.088215e+01    7.608466e-01
  3.089802e+01    7.908559e-01
  3.091390e+01    7.907097e-01
  3.092977e+01    7.876737e-01
  3.094565e+01    7.781793e-01
  3.096153e+01    7.900776e-01
  3.097740e+01    7.873342e-01
  3.099328e+01    7.702594e-01
  3.100915e+01    7.820545e-01
  3.102503e+01    7.831832e-01
  3.104090e+01    7.774426e-01
  3.105678e+01    7.668327e-01
  3.107265e+01    7.940692e-01
  3.108853e+01    7.812513e-01
  3.110441e+01    7.903935e-01
  3.112028e+01    7.973446e-01
  3.113616e+01    7.761638e-01
  3.115203e+01    7.805176e-01
  3.116791e+01    7.990022e-01
  3.118378e+01    7.831796e-01
  3.119966e+01    7.854949e-01
  3.121553e+01    7.920166e-01
  3.123141e+01    7.990071e-01
  3.124729e+01    7.988511e-01
  3.126316e+01    8.129879e-01
  3.127904e+01    8.051381e-01
  3.129491e+01    8.128750e-01
  3.131079e+01    7.929337e-01
  3.132666e+01    7.923251e-01
  3.134254e+01    8.105256e-01
  3.135841e+01    8.093483e-01
  3.137429e+01    7.995513e-01
  3.139017e+01    7.716191e-01
  3.140604e+01    7.832731e-01
  3.142192e+01    7.954721e-01
  3.143779e+01    8.177680e-01
  3.145367e+01    8.176829e-01
  3.146954e+01    8.337524e-01
  3.148542e+01    8.438539e-01
  3.150129e+01    8.392915e-01
  3.151717e+01    8.224616e-01
  3.153305e+01    8.251547e-01
  3.154892e+01    8.597056e-01
  3.156480e+01    8.342786e-01
  3.158067e+01    8.417503e-01
  3.159655e+01    8.474909e-01
  3.161242e+01    8.732646e-01
  3.162830e+01    9.108508e-01
  3.164418e+01    9.100245e-01
  3.166005e+01    9.373019e-01
  3.167593e+01    9.485936e-01
  3.169180e+01    1.004859e+00
  3.170768e+01    1.038023e+00
  3.172355e+01    1.077444e+00
  3.173943e+01    1.126644e+00
  3.175530e+01    1.192929e+00
  3.177118e+01    1.249862e+00
  3.178706e+01    1.342279e+00
  3.180293e+01    1.418081e+00
  3.181881e+01    1.554349e+00
  3.183468e+01    1.703357e+00
  3.185056e+01    1.837268e+00
  3.186643e+01    1.918988e+00
  3.188231e+01    2.028103e+00
  3.189818e+01    2.026706e+00
  3.191406e+01    2.025596e+00
  3.192994e+01    1.993606e+00
  3.194581e+01    1.936319e+00
  3.196169e+01    1.851575e+00
  3.197756e+01    1.685302e+00
  3.199344e+01    1.534633e+00
  3.200931e+01    1.403117e+00
  3.202519e+01    1.298668e+00
  3.204106e+01    1.251023e+00
  3.205694e+01    1.158952e+00
  3.207282e+01    1.085794e+00
  3.208869e+01    1.016906e+00
  3.210457e+01    9.978743e-01
  3.212044e+01    9.721042e-01
  3.213632e+01    9.423294e-01
  3.215219e+01    8.994079e-01
  3.216807e+01    9.064338e-01
  3.218394e+01    8.894868e-01
  3.219982e+01    8.574758e-01
  3.221570e+01    8.471830e-01
  3.223157e+01    8.659313e-01
  3.224745e+01    8.381783e-01
  3.226332e+01    8.262931e-01
  3.227920e+01    8.111978e-01
  3.229507e+01    7.969895e-01
  3.231095e+01    8.087119e-01
  3.232682e+01    7.978034e-01
  3.234270e+01    7.968473e-01
  3.235858e+01    7.945166e-01
  3.237445e+01    8.045189e-01
  3.239033e+01    7.778466e-01
  3.240620e+01    7.627537e-01
  3.242208e+01    7.501251e-01
  3.243795e+01    7.660533e-01
  3.245383e+01    7.895373e-01
  3.246970e+01    8.242105e-01
  3.248558e+01    7.980992e-01
  3.250146e+01    7.761959e-01
  3.251733e+01    7.449348e-01
  3.253321e+01    7.594877e-01
  3.254908e+01    7.771437e-01
