# == pyFAI calibration ==
# Distance Sample to Detector: 0.3999999939076516 m
# PONI: 9.750e-02, 1.135e-01 m
# Rotations: -0.000175 0.000000 -0.000000 rad
# 
# == Fit2d calibration ==
# Distance Sample-beamCenter: 400.000 mm
# Center: x=1514.000, y=1300.000 pix
# Tilt: 0.010 deg  TiltPlanRot: 0.010 deg
# 
# Detector Detector	 Spline= None	 PixelSize= 7.500e-05, 7.500e-05 m
#    Detector has a mask: False 
#    Detector has a dark current: False 
#    detector has a flat field: False 
# 
# Wavelength: 6.888e-11 m
# Mask applied: user provided
# Dark current applied: False
# Flat field applied: False
# Polarization factor: 0.99
# Normalization factor: 1.0
# --> /home/myspot/data/2024_07_Rosario/Ru-CGO-ex/2024-07-27_003_Ru-CGO-ex_Reaction_dwell_000023_data_000103.dat
#       q_nm^-1             I 
  2.003187e-02    0.000000e+00
  3.590745e-02    7.159255e-02
  5.178302e-02    4.982381e-02
  6.765859e-02    1.986207e-02
  8.353417e-02    1.657635e-01
  9.940974e-02    1.152836e-01
  1.152853e-01    4.113681e-02
  1.311609e-01    7.764133e-02
  1.470365e-01    1.031231e-01
  1.629120e-01    7.136276e-02
  1.787876e-01    3.283278e-02
  1.946632e-01    4.019167e-02
  2.105388e-01    1.415737e-02
  2.264143e-01    4.758141e-02
  2.422899e-01    2.394964e-02
  2.581655e-01    2.060056e-02
  2.740411e-01    3.632056e-02
  2.899166e-01    2.608456e-02
  3.057922e-01    7.814834e-02
  3.216678e-01    4.516580e-02
  3.375433e-01    3.172446e-02
  3.534189e-01    2.829147e-02
  3.692945e-01    7.034408e-02
  3.851701e-01    4.897127e-02
  4.010456e-01    4.202034e-02
  4.169212e-01    1.947589e-02
  4.327968e-01    2.399279e-02
  4.486724e-01    1.464342e-02
  4.645479e-01    4.180089e-02
  4.804235e-01    4.345616e-02
  4.962991e-01    2.546745e-02
  5.121747e-01    4.505467e-02
  5.280502e-01    7.146315e-02
  5.439258e-01    4.533702e-02
  5.598014e-01    4.905928e-02
  5.756770e-01    3.627113e-02
  5.915525e-01    4.482172e-02
  6.074281e-01    4.467152e-02
  6.233037e-01    5.008537e-02
  6.391793e-01    6.271937e-02
  6.550548e-01    4.971315e-02
  6.709304e-01    4.703693e-02
  6.868060e-01    4.747520e-02
  7.026815e-01    3.977460e-02
  7.185571e-01    4.890536e-02
  7.344327e-01    4.852589e-02
  7.503083e-01    3.515683e-02
  7.661838e-01    7.463036e-02
  7.820594e-01    8.938801e-02
  7.979350e-01    1.363195e-01
  8.138106e-01    2.005300e-01
  8.296861e-01    2.959882e-01
  8.455617e-01    3.445966e-01
  8.614373e-01    3.892893e-01
  8.773129e-01    4.975991e-01
  8.931884e-01    5.858316e-01
  9.090640e-01    7.257219e-01
  9.249396e-01    7.487378e-01
  9.408152e-01    7.800285e-01
  9.566907e-01    9.064909e-01
  9.725663e-01    1.093068e+00
  9.884419e-01    1.166885e+00
  1.004317e+00    1.175456e+00
  1.020193e+00    1.289057e+00
  1.036069e+00    1.353656e+00
  1.051944e+00    1.356821e+00
  1.067820e+00    1.409735e+00
  1.083695e+00    1.440492e+00
  1.099571e+00    1.476032e+00
  1.115446e+00    1.572611e+00
  1.131322e+00    1.599133e+00
  1.147198e+00    1.611585e+00
  1.163073e+00    1.694550e+00
  1.178949e+00    1.589881e+00
  1.194824e+00    1.662652e+00
  1.210700e+00    1.952722e+00
  1.226575e+00    2.303211e+00
  1.242451e+00    2.403381e+00
  1.258327e+00    2.485218e+00
  1.274202e+00    2.476676e+00
  1.290078e+00    2.573915e+00
  1.305953e+00    2.762652e+00
  1.321829e+00    2.800349e+00
  1.337705e+00    2.785457e+00
  1.353580e+00    2.835231e+00
  1.369456e+00    2.847461e+00
  1.385331e+00    2.877019e+00
  1.401207e+00    2.894784e+00
  1.417082e+00    2.928407e+00
  1.432958e+00    2.966735e+00
  1.448834e+00    2.903316e+00
  1.464709e+00    2.941998e+00
  1.480585e+00    3.065200e+00
  1.496460e+00    3.071073e+00
  1.512336e+00    3.210540e+00
  1.528211e+00    3.314652e+00
  1.544087e+00    3.319058e+00
  1.559963e+00    3.212134e+00
  1.575838e+00    3.224133e+00
  1.591714e+00    3.177967e+00
  1.607589e+00    3.115020e+00
  1.623465e+00    3.113819e+00
  1.639340e+00    3.177591e+00
  1.655216e+00    3.098565e+00
  1.671092e+00    3.102838e+00
  1.686967e+00    3.128625e+00
  1.702843e+00    3.081539e+00
  1.718718e+00    3.129370e+00
  1.734594e+00    3.133313e+00
  1.750469e+00    3.209835e+00
  1.766345e+00    3.180620e+00
  1.782221e+00    3.049927e+00
  1.798096e+00    3.045997e+00
  1.813972e+00    2.990522e+00
  1.829847e+00    3.131778e+00
  1.845723e+00    3.082682e+00
  1.861598e+00    3.129247e+00
  1.877474e+00    3.137099e+00
  1.893350e+00    3.055424e+00
  1.909225e+00    3.043208e+00
  1.925101e+00    3.159094e+00
  1.940976e+00    3.156951e+00
  1.956852e+00    3.060865e+00
  1.972727e+00    3.099565e+00
  1.988603e+00    3.079474e+00
  2.004479e+00    3.154147e+00
  2.020354e+00    3.085596e+00
  2.036230e+00    2.934924e+00
  2.052105e+00    3.050129e+00
  2.067981e+00    3.047345e+00
  2.083856e+00    3.051584e+00
  2.099732e+00    3.028810e+00
  2.115608e+00    2.980616e+00
  2.131483e+00    3.045480e+00
  2.147359e+00    3.074381e+00
  2.163234e+00    3.246851e+00
  2.179110e+00    3.139609e+00
  2.194985e+00    3.163571e+00
  2.210861e+00    3.092498e+00
  2.226737e+00    3.091968e+00
  2.242612e+00    3.067234e+00
  2.258488e+00    3.131453e+00
  2.274363e+00    3.268345e+00
  2.290239e+00    3.188281e+00
  2.306115e+00    3.150354e+00
  2.321990e+00    3.151120e+00
  2.337866e+00    3.232688e+00
  2.353741e+00    3.190484e+00
  2.369617e+00    3.214215e+00
  2.385492e+00    3.262372e+00
  2.401368e+00    3.129646e+00
  2.417244e+00    3.139269e+00
  2.433119e+00    3.242247e+00
  2.448995e+00    3.182943e+00
  2.464870e+00    3.211441e+00
  2.480746e+00    3.233329e+00
  2.496621e+00    3.281955e+00
  2.512497e+00    3.248443e+00
  2.528373e+00    3.140758e+00
  2.544248e+00    3.131323e+00
  2.560124e+00    3.174232e+00
  2.575999e+00    3.137058e+00
  2.591875e+00    3.146316e+00
  2.607750e+00    3.150736e+00
  2.623626e+00    3.181524e+00
  2.639502e+00    3.165883e+00
  2.655377e+00    3.197898e+00
  2.671253e+00    3.217564e+00
  2.687128e+00    3.289848e+00
  2.703004e+00    3.335975e+00
  2.718879e+00    3.285295e+00
  2.734755e+00    3.210449e+00
  2.750631e+00    3.296908e+00
  2.766506e+00    3.326561e+00
  2.782382e+00    3.318359e+00
  2.798257e+00    3.323708e+00
  2.814133e+00    3.361901e+00
  2.830008e+00    3.333739e+00
  2.845884e+00    3.300609e+00
  2.861760e+00    3.306655e+00
  2.877635e+00    3.269856e+00
  2.893511e+00    3.265190e+00
  2.909386e+00    3.340674e+00
  2.925262e+00    3.255229e+00
  2.941137e+00    3.307902e+00
  2.957013e+00    3.445723e+00
  2.972889e+00    3.391839e+00
  2.988764e+00    3.300900e+00
  3.004640e+00    3.317206e+00
  3.020515e+00    3.354977e+00
  3.036391e+00    3.372225e+00
  3.052266e+00    3.268464e+00
  3.068142e+00    3.313913e+00
  3.084018e+00    3.393492e+00
  3.099893e+00    3.412136e+00
  3.115769e+00    3.502613e+00
  3.131644e+00    3.464949e+00
  3.147520e+00    3.415509e+00
  3.163395e+00    3.410675e+00
  3.179271e+00    3.463753e+00
  3.195147e+00    3.406227e+00
  3.211022e+00    3.358292e+00
  3.226898e+00    3.415370e+00
  3.242773e+00    3.439176e+00
  3.258649e+00    3.460974e+00
  3.274525e+00    3.381549e+00
  3.290400e+00    3.412985e+00
  3.306276e+00    3.488482e+00
  3.322151e+00    3.503957e+00
  3.338027e+00    3.477773e+00
  3.353902e+00    3.318018e+00
  3.369778e+00    3.331648e+00
  3.385654e+00    3.451761e+00
  3.401529e+00    3.472836e+00
  3.417405e+00    3.464707e+00
  3.433280e+00    3.485798e+00
  3.449156e+00    3.449444e+00
  3.465031e+00    3.430216e+00
  3.480907e+00    3.276827e+00
  3.496783e+00    3.316076e+00
  3.512658e+00    3.402034e+00
  3.528534e+00    3.400815e+00
  3.544409e+00    3.375611e+00
  3.560285e+00    3.438939e+00
  3.576160e+00    3.534465e+00
  3.592036e+00    3.470742e+00
  3.607912e+00    3.441576e+00
  3.623787e+00    3.403747e+00
  3.639663e+00    3.495824e+00
  3.655538e+00    3.540769e+00
  3.671414e+00    3.534461e+00
  3.687289e+00    3.522221e+00
  3.703165e+00    3.532892e+00
  3.719041e+00    3.481011e+00
  3.734916e+00    3.548323e+00
  3.750792e+00    3.513805e+00
  3.766667e+00    3.479889e+00
  3.782543e+00    3.521621e+00
  3.798418e+00    3.470103e+00
  3.814294e+00    3.442466e+00
  3.830170e+00    3.444897e+00
  3.846045e+00    3.414318e+00
  3.861921e+00    3.514107e+00
  3.877796e+00    3.523108e+00
  3.893672e+00    3.537541e+00
  3.909547e+00    3.483146e+00
  3.925423e+00    3.491845e+00
  3.941299e+00    3.528484e+00
  3.957174e+00    3.600653e+00
  3.973050e+00    3.574090e+00
  3.988925e+00    3.450229e+00
  4.004801e+00    3.543894e+00
  4.020676e+00    3.500913e+00
  4.036552e+00    3.487594e+00
  4.052428e+00    3.547134e+00
  4.068303e+00    3.412188e+00
  4.084179e+00    3.432548e+00
  4.100054e+00    3.511910e+00
  4.115930e+00    3.553957e+00
  4.131806e+00    3.546057e+00
  4.147681e+00    3.530282e+00
  4.163557e+00    3.490031e+00
  4.179432e+00    3.490056e+00
  4.195308e+00    3.487076e+00
  4.211183e+00    3.594624e+00
  4.227059e+00    3.616182e+00
  4.242935e+00    3.579817e+00
  4.258810e+00    3.549693e+00
  4.274686e+00    3.548714e+00
  4.290561e+00    3.454763e+00
  4.306437e+00    3.436191e+00
  4.322312e+00    3.557253e+00
  4.338188e+00    3.632396e+00
  4.354064e+00    3.606612e+00
  4.369939e+00    3.562416e+00
  4.385815e+00    3.620674e+00
  4.401690e+00    3.598973e+00
  4.417566e+00    3.672758e+00
  4.433441e+00    3.679129e+00
  4.449317e+00    3.621076e+00
  4.465193e+00    3.660277e+00
  4.481068e+00    3.612343e+00
  4.496944e+00    3.482644e+00
  4.512819e+00    3.601760e+00
  4.528695e+00    3.610984e+00
  4.544570e+00    3.600122e+00
  4.560446e+00    3.576365e+00
  4.576322e+00    3.582727e+00
  4.592197e+00    3.675538e+00
  4.608073e+00    3.644533e+00
  4.623948e+00    3.603638e+00
  4.639824e+00    3.620789e+00
  4.655699e+00    3.648147e+00
  4.671575e+00    3.707675e+00
  4.687451e+00    3.687036e+00
  4.703326e+00    3.615102e+00
  4.719202e+00    3.565200e+00
  4.735077e+00    3.591539e+00
  4.750953e+00    3.665041e+00
  4.766828e+00    3.615226e+00
  4.782704e+00    3.618204e+00
  4.798580e+00    3.609699e+00
  4.814455e+00    3.596642e+00
  4.830331e+00    3.656585e+00
  4.846206e+00    3.676714e+00
  4.862082e+00    3.600141e+00
  4.877957e+00    3.635556e+00
  4.893833e+00    3.718227e+00
  4.909709e+00    3.710740e+00
  4.925584e+00    3.562198e+00
  4.941460e+00    3.629079e+00
  4.957335e+00    3.612041e+00
  4.973211e+00    3.619620e+00
  4.989086e+00    3.704941e+00
  5.004962e+00    3.681611e+00
  5.020838e+00    3.708164e+00
  5.036713e+00    3.657020e+00
  5.052589e+00    3.667515e+00
  5.068464e+00    3.700304e+00
  5.084340e+00    3.666804e+00
  5.100216e+00    3.647444e+00
  5.116091e+00    3.689770e+00
  5.131967e+00    3.698193e+00
  5.147842e+00    3.633159e+00
  5.163718e+00    3.553168e+00
  5.179593e+00    3.532072e+00
  5.195469e+00    3.665711e+00
  5.211345e+00    3.751670e+00
  5.227220e+00    3.697178e+00
  5.243096e+00    3.687475e+00
  5.258971e+00    3.679928e+00
  5.274847e+00    3.619093e+00
  5.290722e+00    3.610466e+00
  5.306598e+00    3.679962e+00
  5.322474e+00    3.698899e+00
  5.338349e+00    3.718524e+00
  5.354225e+00    3.660419e+00
  5.370100e+00    3.597324e+00
  5.385976e+00    3.659384e+00
  5.401851e+00    3.635221e+00
  5.417727e+00    3.672086e+00
  5.433603e+00    3.623036e+00
  5.449478e+00    3.603520e+00
  5.465354e+00    3.548680e+00
  5.481229e+00    3.567567e+00
  5.497105e+00    3.628488e+00
  5.512980e+00    3.616873e+00
  5.528856e+00    3.640314e+00
  5.544732e+00    3.662855e+00
  5.560607e+00    3.584324e+00
  5.576483e+00    3.562914e+00
  5.592358e+00    3.530598e+00
  5.608234e+00    3.571240e+00
  5.624109e+00    3.615686e+00
  5.639985e+00    3.618321e+00
  5.655861e+00    3.584636e+00
  5.671736e+00    3.596371e+00
  5.687612e+00    3.561549e+00
  5.703487e+00    3.548611e+00
  5.719363e+00    3.583365e+00
  5.735238e+00    3.631906e+00
  5.751114e+00    3.643323e+00
  5.766990e+00    3.597222e+00
  5.782865e+00    3.633755e+00
  5.798741e+00    3.599205e+00
  5.814616e+00    3.488180e+00
  5.830492e+00    3.476870e+00
  5.846367e+00    3.526284e+00
  5.862243e+00    3.494326e+00
  5.878119e+00    3.455023e+00
  5.893994e+00    3.514832e+00
  5.909870e+00    3.582583e+00
  5.925745e+00    3.551552e+00
  5.941621e+00    3.498279e+00
  5.957497e+00    3.507714e+00
  5.973372e+00    3.557971e+00
  5.989248e+00    3.559961e+00
  6.005123e+00    3.492823e+00
  6.020999e+00    3.561657e+00
  6.036874e+00    3.537063e+00
  6.052750e+00    3.546725e+00
  6.068626e+00    3.599895e+00
  6.084501e+00    3.639481e+00
  6.100377e+00    3.669983e+00
  6.116252e+00    3.688761e+00
  6.132128e+00    3.607905e+00
  6.148003e+00    3.578486e+00
  6.163879e+00    3.503720e+00
  6.179755e+00    3.567820e+00
  6.195630e+00    3.585876e+00
  6.211506e+00    3.618386e+00
  6.227381e+00    3.540404e+00
  6.243257e+00    3.621428e+00
  6.259132e+00    3.617869e+00
  6.275008e+00    3.643738e+00
  6.290884e+00    3.606895e+00
  6.306759e+00    3.520433e+00
  6.322635e+00    3.552752e+00
  6.338510e+00    3.540433e+00
  6.354386e+00    3.595050e+00
  6.370261e+00    3.555925e+00
  6.386137e+00    3.580637e+00
  6.402013e+00    3.592290e+00
  6.417888e+00    3.662117e+00
  6.433764e+00    3.577066e+00
  6.449639e+00    3.593064e+00
  6.465515e+00    3.632716e+00
  6.481390e+00    3.646302e+00
  6.497266e+00    3.655183e+00
  6.513142e+00    3.584573e+00
  6.529017e+00    3.532787e+00
  6.544893e+00    3.507119e+00
  6.560768e+00    3.636140e+00
  6.576644e+00    3.619772e+00
  6.592519e+00    3.552276e+00
  6.608395e+00    3.528383e+00
  6.624271e+00    3.556666e+00
  6.640146e+00    3.528116e+00
  6.656022e+00    3.530686e+00
  6.671897e+00    3.587018e+00
  6.687773e+00    3.561441e+00
  6.703648e+00    3.552079e+00
  6.719524e+00    3.553371e+00
  6.735400e+00    3.582031e+00
  6.751275e+00    3.617832e+00
  6.767151e+00    3.591319e+00
  6.783026e+00    3.601012e+00
  6.798902e+00    3.549459e+00
  6.814777e+00    3.548347e+00
  6.830653e+00    3.607646e+00
  6.846529e+00    3.486788e+00
  6.862404e+00    3.507292e+00
  6.878280e+00    3.564099e+00
  6.894155e+00    3.609929e+00
  6.910031e+00    3.570454e+00
  6.925907e+00    3.573681e+00
  6.941782e+00    3.608138e+00
  6.957658e+00    3.510049e+00
  6.973533e+00    3.544599e+00
  6.989409e+00    3.598141e+00
  7.005284e+00    3.562141e+00
  7.021160e+00    3.561704e+00
  7.037036e+00    3.568363e+00
  7.052911e+00    3.530407e+00
  7.068787e+00    3.511622e+00
  7.084662e+00    3.515161e+00
  7.100538e+00    3.542699e+00
  7.116413e+00    3.528623e+00
  7.132289e+00    3.485921e+00
  7.148165e+00    3.451144e+00
  7.164040e+00    3.620181e+00
  7.179916e+00    3.596921e+00
  7.195791e+00    3.485604e+00
  7.211667e+00    3.540855e+00
  7.227542e+00    3.546072e+00
  7.243418e+00    3.474568e+00
  7.259294e+00    3.543446e+00
  7.275169e+00    3.622063e+00
  7.291045e+00    3.487806e+00
  7.306920e+00    3.489937e+00
  7.322796e+00    3.567299e+00
  7.338671e+00    3.505502e+00
  7.354547e+00    3.507013e+00
  7.370423e+00    3.476256e+00
  7.386298e+00    3.457767e+00
  7.402174e+00    3.526000e+00
  7.418049e+00    3.487437e+00
  7.433925e+00    3.498749e+00
  7.449800e+00    3.470561e+00
  7.465676e+00    3.570524e+00
  7.481552e+00    3.532635e+00
  7.497427e+00    3.431625e+00
  7.513303e+00    3.473567e+00
  7.529178e+00    3.451874e+00
  7.545054e+00    3.399792e+00
  7.560929e+00    3.423574e+00
  7.576805e+00    3.361004e+00
  7.592681e+00    3.389941e+00
  7.608556e+00    3.482955e+00
  7.624432e+00    3.535450e+00
  7.640307e+00    3.544534e+00
  7.656183e+00    3.477419e+00
  7.672058e+00    3.435876e+00
  7.687934e+00    3.423148e+00
  7.703810e+00    3.456129e+00
  7.719685e+00    3.439319e+00
  7.735561e+00    3.470655e+00
  7.751436e+00    3.480769e+00
  7.767312e+00    3.443764e+00
  7.783187e+00    3.468513e+00
  7.799063e+00    3.449140e+00
  7.814939e+00    3.475679e+00
  7.830814e+00    3.487800e+00
  7.846690e+00    3.463190e+00
  7.862565e+00    3.418183e+00
  7.878441e+00    3.425256e+00
  7.894317e+00    3.455548e+00
  7.910192e+00    3.444175e+00
  7.926068e+00    3.378338e+00
  7.941943e+00    3.417768e+00
  7.957819e+00    3.407496e+00
  7.973694e+00    3.429196e+00
  7.989570e+00    3.466863e+00
  8.005446e+00    3.440090e+00
  8.021321e+00    3.433617e+00
  8.037197e+00    3.456321e+00
  8.053072e+00    3.423744e+00
  8.068948e+00    3.352781e+00
  8.084823e+00    3.365240e+00
  8.100699e+00    3.389938e+00
  8.116575e+00    3.439303e+00
  8.132450e+00    3.545852e+00
  8.148326e+00    3.449747e+00
  8.164201e+00    3.475762e+00
  8.180077e+00    3.464936e+00
  8.195952e+00    3.439704e+00
  8.211828e+00    3.478595e+00
  8.227704e+00    3.521359e+00
  8.243579e+00    3.479822e+00
  8.259455e+00    3.433477e+00
  8.275330e+00    3.373939e+00
  8.291206e+00    3.355486e+00
  8.307081e+00    3.334797e+00
  8.322957e+00    3.375527e+00
  8.338833e+00    3.412735e+00
  8.354708e+00    3.399242e+00
  8.370584e+00    3.378714e+00
  8.386459e+00    3.360806e+00
  8.402335e+00    3.299169e+00
  8.418210e+00    3.328131e+00
  8.434086e+00    3.337488e+00
  8.449962e+00    3.380702e+00
  8.465837e+00    3.481684e+00
  8.481713e+00    3.424506e+00
  8.497588e+00    3.348429e+00
  8.513464e+00    3.369837e+00
  8.529339e+00    3.395384e+00
  8.545215e+00    3.372600e+00
  8.561091e+00    3.339578e+00
  8.576966e+00    3.331640e+00
  8.592842e+00    3.404249e+00
  8.608717e+00    3.420354e+00
  8.624593e+00    3.356760e+00
  8.640468e+00    3.365113e+00
  8.656344e+00    3.388560e+00
  8.672220e+00    3.357532e+00
  8.688095e+00    3.377027e+00
  8.703971e+00    3.326024e+00
  8.719846e+00    3.363854e+00
  8.735722e+00    3.354681e+00
  8.751598e+00    3.339788e+00
  8.767473e+00    3.388220e+00
  8.783349e+00    3.341896e+00
  8.799224e+00    3.350280e+00
  8.815100e+00    3.345294e+00
  8.830975e+00    3.308336e+00
  8.846851e+00    3.278100e+00
  8.862727e+00    3.327474e+00
  8.878602e+00    3.359254e+00
  8.894478e+00    3.380959e+00
  8.910353e+00    3.311154e+00
  8.926229e+00    3.280085e+00
  8.942104e+00    3.303480e+00
  8.957980e+00    3.310252e+00
  8.973856e+00    3.277007e+00
  8.989731e+00    3.323248e+00
  9.005607e+00    3.358154e+00
  9.021482e+00    3.241701e+00
  9.037358e+00    3.223521e+00
  9.053233e+00    3.248346e+00
  9.069109e+00    3.273732e+00
  9.084985e+00    3.243516e+00
  9.100860e+00    3.258340e+00
  9.116736e+00    3.270314e+00
  9.132611e+00    3.193470e+00
  9.148487e+00    3.232658e+00
  9.164362e+00    3.246465e+00
  9.180238e+00    3.271369e+00
  9.196114e+00    3.232185e+00
  9.211989e+00    3.265300e+00
  9.227865e+00    3.242165e+00
  9.243740e+00    3.248224e+00
  9.259616e+00    3.254559e+00
  9.275491e+00    3.252064e+00
  9.291367e+00    3.246020e+00
  9.307243e+00    3.257413e+00
  9.323118e+00    3.221098e+00
  9.338994e+00    3.199571e+00
  9.354869e+00    3.197418e+00
  9.370745e+00    3.219201e+00
  9.386620e+00    3.193921e+00
  9.402496e+00    3.224538e+00
  9.418372e+00    3.170891e+00
  9.434247e+00    3.173716e+00
  9.450123e+00    3.188594e+00
  9.465998e+00    3.212490e+00
  9.481874e+00    3.246298e+00
  9.497749e+00    3.309673e+00
  9.513625e+00    3.254574e+00
  9.529501e+00    3.226305e+00
  9.545376e+00    3.258756e+00
  9.561252e+00    3.230333e+00
  9.577127e+00    3.231384e+00
  9.593003e+00    3.264998e+00
  9.608878e+00    3.197111e+00
  9.624754e+00    3.195501e+00
  9.640630e+00    3.209751e+00
  9.656505e+00    3.207016e+00
  9.672381e+00    3.219124e+00
  9.688256e+00    3.229151e+00
  9.704132e+00    3.191696e+00
  9.720008e+00    3.160339e+00
  9.735883e+00    3.181935e+00
  9.751759e+00    3.152997e+00
  9.767634e+00    3.148582e+00
  9.783510e+00    3.167424e+00
  9.799385e+00    3.206472e+00
  9.815261e+00    3.130022e+00
  9.831137e+00    3.097985e+00
  9.847012e+00    3.111338e+00
  9.862888e+00    3.168825e+00
  9.878763e+00    3.219923e+00
  9.894639e+00    3.085481e+00
  9.910514e+00    3.063765e+00
  9.926390e+00    3.111866e+00
  9.942266e+00    3.111959e+00
  9.958141e+00    3.107157e+00
  9.974017e+00    3.136091e+00
  9.989892e+00    3.107573e+00
  1.000577e+01    3.102774e+00
  1.002164e+01    3.149781e+00
  1.003752e+01    3.128031e+00
  1.005339e+01    3.084281e+00
  1.006927e+01    3.141982e+00
  1.008515e+01    3.130178e+00
  1.010102e+01    3.097964e+00
  1.011690e+01    3.095877e+00
  1.013277e+01    3.046527e+00
  1.014865e+01    3.077338e+00
  1.016452e+01    3.079796e+00
  1.018040e+01    3.071000e+00
  1.019627e+01    3.104938e+00
  1.021215e+01    3.091115e+00
  1.022803e+01    3.119439e+00
  1.024390e+01    3.029830e+00
  1.025978e+01    3.024730e+00
  1.027565e+01    3.048546e+00
  1.029153e+01    3.065134e+00
  1.030740e+01    3.062862e+00
  1.032328e+01    3.022628e+00
  1.033915e+01    3.025976e+00
  1.035503e+01    3.047854e+00
  1.037091e+01    3.032135e+00
  1.038678e+01    3.036604e+00
  1.040266e+01    3.026885e+00
  1.041853e+01    3.059766e+00
  1.043441e+01    2.989006e+00
  1.045028e+01    2.969128e+00
  1.046616e+01    3.032821e+00
  1.048204e+01    3.020916e+00
  1.049791e+01    3.003780e+00
  1.051379e+01    2.994076e+00
  1.052966e+01    2.937907e+00
  1.054554e+01    3.004884e+00
  1.056141e+01    3.060584e+00
  1.057729e+01    2.983531e+00
  1.059316e+01    2.993139e+00
  1.060904e+01    2.983324e+00
  1.062492e+01    2.857365e+00
  1.064079e+01    2.947118e+00
  1.065667e+01    2.972944e+00
  1.067254e+01    2.956401e+00
  1.068842e+01    2.945568e+00
  1.070429e+01    2.946175e+00
  1.072017e+01    2.982255e+00
  1.073604e+01    2.966341e+00
  1.075192e+01    2.985561e+00
  1.076780e+01    2.978526e+00
  1.078367e+01    2.958528e+00
  1.079955e+01    2.995507e+00
  1.081542e+01    2.960324e+00
  1.083130e+01    2.950895e+00
  1.084717e+01    2.988311e+00
  1.086305e+01    2.931430e+00
  1.087892e+01    2.929155e+00
  1.089480e+01    2.934766e+00
  1.091068e+01    2.979621e+00
  1.092655e+01    2.963070e+00
  1.094243e+01    2.971148e+00
  1.095830e+01    2.958753e+00
  1.097418e+01    2.952856e+00
  1.099005e+01    2.953467e+00
  1.100593e+01    2.930245e+00
  1.102180e+01    2.913263e+00
  1.103768e+01    2.932089e+00
  1.105356e+01    2.910043e+00
  1.106943e+01    2.885689e+00
  1.108531e+01    2.843463e+00
  1.110118e+01    2.867269e+00
  1.111706e+01    2.884077e+00
  1.113293e+01    2.904706e+00
  1.114881e+01    2.846581e+00
  1.116468e+01    2.875773e+00
  1.118056e+01    2.869767e+00
  1.119644e+01    2.867040e+00
  1.121231e+01    2.853427e+00
  1.122819e+01    2.895071e+00
  1.124406e+01    2.872999e+00
  1.125994e+01    2.846797e+00
  1.127581e+01    2.788588e+00
  1.129169e+01    2.821596e+00
  1.130756e+01    2.857397e+00
  1.132344e+01    2.828061e+00
  1.133932e+01    2.833792e+00
  1.135519e+01    2.805182e+00
  1.137107e+01    2.798202e+00
  1.138694e+01    2.793275e+00
  1.140282e+01    2.828774e+00
  1.141869e+01    2.856836e+00
  1.143457e+01    2.799685e+00
  1.145045e+01    2.844928e+00
  1.146632e+01    2.861093e+00
  1.148220e+01    2.828014e+00
  1.149807e+01    2.815298e+00
  1.151395e+01    2.801375e+00
  1.152982e+01    2.723028e+00
  1.154570e+01    2.745840e+00
  1.156157e+01    2.717219e+00
  1.157745e+01    2.796664e+00
  1.159333e+01    2.791112e+00
  1.160920e+01    2.734203e+00
  1.162508e+01    2.718857e+00
  1.164095e+01    2.777473e+00
  1.165683e+01    2.825533e+00
  1.167270e+01    2.783028e+00
  1.168858e+01    2.810144e+00
  1.170445e+01    2.824848e+00
  1.172033e+01    2.796355e+00
  1.173621e+01    2.750820e+00
  1.175208e+01    2.732122e+00
  1.176796e+01    2.761530e+00
  1.178383e+01    2.779175e+00
  1.179971e+01    2.752133e+00
  1.181558e+01    2.721689e+00
  1.183146e+01    2.726667e+00
  1.184733e+01    2.756591e+00
  1.186321e+01    2.725110e+00
  1.187909e+01    2.753314e+00
  1.189496e+01    2.750253e+00
  1.191084e+01    2.723464e+00
  1.192671e+01    2.729338e+00
  1.194259e+01    2.702917e+00
  1.195846e+01    2.692323e+00
  1.197434e+01    2.741299e+00
  1.199021e+01    2.718084e+00
  1.200609e+01    2.699999e+00
  1.202197e+01    2.692922e+00
  1.203784e+01    2.692045e+00
  1.205372e+01    2.639459e+00
  1.206959e+01    2.694147e+00
  1.208547e+01    2.734618e+00
  1.210134e+01    2.760141e+00
  1.211722e+01    2.709668e+00
  1.213309e+01    2.672652e+00
  1.214897e+01    2.668254e+00
  1.216485e+01    2.713998e+00
  1.218072e+01    2.725338e+00
  1.219660e+01    2.727304e+00
  1.221247e+01    2.714720e+00
  1.222835e+01    2.736361e+00
  1.224422e+01    2.718235e+00
  1.226010e+01    2.669714e+00
  1.227597e+01    2.660292e+00
  1.229185e+01    2.676883e+00
  1.230773e+01    2.724556e+00
  1.232360e+01    2.769558e+00
  1.233948e+01    2.680467e+00
  1.235535e+01    2.720158e+00
  1.237123e+01    2.738472e+00
  1.238710e+01    2.710093e+00
  1.240298e+01    2.690676e+00
  1.241886e+01    2.722303e+00
  1.243473e+01    2.732741e+00
  1.245061e+01    2.690685e+00
  1.246648e+01    2.655862e+00
  1.248236e+01    2.740150e+00
  1.249823e+01    2.716774e+00
  1.251411e+01    2.715196e+00
  1.252998e+01    2.741772e+00
  1.254586e+01    2.738870e+00
  1.256174e+01    2.727350e+00
  1.257761e+01    2.772847e+00
  1.259349e+01    2.777094e+00
  1.260936e+01    2.735374e+00
  1.262524e+01    2.736941e+00
  1.264111e+01    2.742626e+00
  1.265699e+01    2.787500e+00
  1.267286e+01    2.806758e+00
  1.268874e+01    2.816617e+00
  1.270462e+01    2.842803e+00
  1.272049e+01    2.874647e+00
  1.273637e+01    2.851587e+00
  1.275224e+01    2.873237e+00
  1.276812e+01    2.956177e+00
  1.278399e+01    3.005847e+00
  1.279987e+01    3.024468e+00
  1.281574e+01    3.051608e+00
  1.283162e+01    3.106151e+00
  1.284750e+01    3.170604e+00
  1.286337e+01    3.227274e+00
  1.287925e+01    3.332967e+00
  1.289512e+01    3.525969e+00
  1.291100e+01    3.658574e+00
  1.292687e+01    3.875671e+00
  1.294275e+01    4.093117e+00
  1.295862e+01    4.401764e+00
  1.297450e+01    4.807727e+00
  1.299038e+01    5.239641e+00
  1.300625e+01    5.908075e+00
  1.302213e+01    6.742296e+00
  1.303800e+01    7.716953e+00
  1.305388e+01    8.901780e+00
  1.306975e+01    1.017719e+01
  1.308563e+01    1.146174e+01
  1.310150e+01    1.262340e+01
  1.311738e+01    1.378234e+01
  1.313326e+01    1.484237e+01
  1.314913e+01    1.575104e+01
  1.316501e+01    1.627598e+01
  1.318088e+01    1.635947e+01
  1.319676e+01    1.575188e+01
  1.321263e+01    1.427295e+01
  1.322851e+01    1.256010e+01
  1.324438e+01    1.077230e+01
  1.326026e+01    9.098487e+00
  1.327614e+01    7.860698e+00
  1.329201e+01    6.731936e+00
  1.330789e+01    5.879969e+00
  1.332376e+01    5.325646e+00
  1.333964e+01    4.874572e+00
  1.335551e+01    4.439321e+00
  1.337139e+01    4.158514e+00
  1.338727e+01    3.942201e+00
  1.340314e+01    3.606553e+00
  1.341902e+01    3.441458e+00
  1.343489e+01    3.392472e+00
  1.345077e+01    3.255914e+00
  1.346664e+01    3.110511e+00
  1.348252e+01    3.023946e+00
  1.349839e+01    2.990979e+00
  1.351427e+01    2.904531e+00
  1.353015e+01    2.868174e+00
  1.354602e+01    2.852785e+00
  1.356190e+01    2.794956e+00
  1.357777e+01    2.754830e+00
  1.359365e+01    2.754636e+00
  1.360952e+01    2.677824e+00
  1.362540e+01    2.657381e+00
  1.364127e+01    2.649764e+00
  1.365715e+01    2.588735e+00
  1.367303e+01    2.589715e+00
  1.368890e+01    2.605203e+00
  1.370478e+01    2.572454e+00
  1.372065e+01    2.562377e+00
  1.373653e+01    2.539511e+00
  1.375240e+01    2.517006e+00
  1.376828e+01    2.472582e+00
  1.378415e+01    2.464174e+00
  1.380003e+01    2.524323e+00
  1.381591e+01    2.458316e+00
  1.383178e+01    2.455196e+00
  1.384766e+01    2.457062e+00
  1.386353e+01    2.434176e+00
  1.387941e+01    2.421875e+00
  1.389528e+01    2.426294e+00
  1.391116e+01    2.402853e+00
  1.392703e+01    2.388911e+00
  1.394291e+01    2.376841e+00
  1.395879e+01    2.398165e+00
  1.397466e+01    2.390206e+00
  1.399054e+01    2.393549e+00
  1.400641e+01    2.355492e+00
  1.402229e+01    2.359638e+00
  1.403816e+01    2.363721e+00
  1.405404e+01    2.323801e+00
  1.406991e+01    2.336318e+00
  1.408579e+01    2.345540e+00
  1.410167e+01    2.301855e+00
  1.411754e+01    2.322210e+00
  1.413342e+01    2.331522e+00
  1.414929e+01    2.306202e+00
  1.416517e+01    2.361649e+00
  1.418104e+01    2.336010e+00
  1.419692e+01    2.313252e+00
  1.421279e+01    2.252398e+00
  1.422867e+01    2.274069e+00
  1.424455e+01    2.258581e+00
  1.426042e+01    2.274011e+00
  1.427630e+01    2.298292e+00
  1.429217e+01    2.313989e+00
  1.430805e+01    2.271302e+00
  1.432392e+01    2.295417e+00
  1.433980e+01    2.283556e+00
  1.435568e+01    2.289905e+00
  1.437155e+01    2.264836e+00
  1.438743e+01    2.234702e+00
  1.440330e+01    2.212929e+00
  1.441918e+01    2.234028e+00
  1.443505e+01    2.238721e+00
  1.445093e+01    2.236477e+00
  1.446680e+01    2.250069e+00
  1.448268e+01    2.238789e+00
  1.449856e+01    2.235360e+00
  1.451443e+01    2.214298e+00
  1.453031e+01    2.234225e+00
  1.454618e+01    2.232652e+00
  1.456206e+01    2.200685e+00
  1.457793e+01    2.235238e+00
  1.459381e+01    2.247359e+00
  1.460968e+01    2.239592e+00
  1.462556e+01    2.234414e+00
  1.464144e+01    2.245036e+00
  1.465731e+01    2.264388e+00
  1.467319e+01    2.227806e+00
  1.468906e+01    2.197044e+00
  1.470494e+01    2.198814e+00
  1.472081e+01    2.201878e+00
  1.473669e+01    2.189820e+00
  1.475256e+01    2.212723e+00
  1.476844e+01    2.186675e+00
  1.478432e+01    2.215831e+00
  1.480019e+01    2.205483e+00
  1.481607e+01    2.232141e+00
  1.483194e+01    2.222309e+00
  1.484782e+01    2.216592e+00
  1.486369e+01    2.246526e+00
  1.487957e+01    2.254129e+00
  1.489544e+01    2.261646e+00
  1.491132e+01    2.195035e+00
  1.492720e+01    2.263847e+00
  1.494307e+01    2.289638e+00
  1.495895e+01    2.346724e+00
  1.497482e+01    2.386177e+00
  1.499070e+01    2.381889e+00
  1.500657e+01    2.422127e+00
  1.502245e+01    2.504900e+00
  1.503832e+01    2.595068e+00
  1.505420e+01    2.688488e+00
  1.507008e+01    2.849133e+00
  1.508595e+01    2.969406e+00
  1.510183e+01    3.191573e+00
  1.511770e+01    3.531864e+00
  1.513358e+01    3.813326e+00
  1.514945e+01    4.176749e+00
  1.516533e+01    4.530394e+00
  1.518120e+01    4.838144e+00
  1.519708e+01    5.155385e+00
  1.521296e+01    5.406661e+00
  1.522883e+01    5.585705e+00
  1.524471e+01    5.764285e+00
  1.526058e+01    5.814897e+00
  1.527646e+01    5.748219e+00
  1.529233e+01    5.499810e+00
  1.530821e+01    5.150352e+00
  1.532409e+01    4.656318e+00
  1.533996e+01    4.212578e+00
  1.535584e+01    3.861830e+00
  1.537171e+01    3.497008e+00
  1.538759e+01    3.191622e+00
  1.540346e+01    2.995065e+00
  1.541934e+01    2.743798e+00
  1.543521e+01    2.585834e+00
  1.545109e+01    2.509077e+00
  1.546697e+01    2.423029e+00
  1.548284e+01    2.336731e+00
  1.549872e+01    2.305413e+00
  1.551459e+01    2.293337e+00
  1.553047e+01    2.217551e+00
  1.554634e+01    2.187276e+00
  1.556222e+01    2.131742e+00
  1.557809e+01    2.103653e+00
  1.559397e+01    2.077715e+00
  1.560985e+01    2.092597e+00
  1.562572e+01    2.085086e+00
  1.564160e+01    2.067245e+00
  1.565747e+01    2.036966e+00
  1.567335e+01    2.008730e+00
  1.568922e+01    2.015203e+00
  1.570510e+01    2.027203e+00
  1.572097e+01    2.023928e+00
  1.573685e+01    1.991664e+00
  1.575273e+01    1.985496e+00
  1.576860e+01    1.928136e+00
  1.578448e+01    1.909597e+00
  1.580035e+01    1.968882e+00
  1.581623e+01    1.959540e+00
  1.583210e+01    1.970509e+00
  1.584798e+01    1.935702e+00
  1.586385e+01    1.919841e+00
  1.587973e+01    1.930967e+00
  1.589561e+01    1.943985e+00
  1.591148e+01    1.915422e+00
  1.592736e+01    1.874575e+00
  1.594323e+01    1.864013e+00
  1.595911e+01    1.856929e+00
  1.597498e+01    1.878497e+00
  1.599086e+01    1.877045e+00
  1.600673e+01    1.891347e+00
  1.602261e+01    1.915810e+00
  1.603849e+01    1.908664e+00
  1.605436e+01    1.813455e+00
  1.607024e+01    1.816373e+00
  1.608611e+01    1.846672e+00
  1.610199e+01    1.829921e+00
  1.611786e+01    1.853778e+00
  1.613374e+01    1.816480e+00
  1.614961e+01    1.807929e+00
  1.616549e+01    1.833868e+00
  1.618137e+01    1.818065e+00
  1.619724e+01    1.843274e+00
  1.621312e+01    1.849417e+00
  1.622899e+01    1.835367e+00
  1.624487e+01    1.799315e+00
  1.626074e+01    1.812381e+00
  1.627662e+01    1.799625e+00
  1.629250e+01    1.780997e+00
  1.630837e+01    1.794881e+00
  1.632425e+01    1.787441e+00
  1.634012e+01    1.779538e+00
  1.635600e+01    1.789247e+00
  1.637187e+01    1.793662e+00
  1.638775e+01    1.790455e+00
  1.640362e+01    1.771687e+00
  1.641950e+01    1.782214e+00
  1.643538e+01    1.789512e+00
  1.645125e+01    1.763421e+00
  1.646713e+01    1.769529e+00
  1.648300e+01    1.763642e+00
  1.649888e+01    1.759788e+00
  1.651475e+01    1.767459e+00
  1.653063e+01    1.769027e+00
  1.654650e+01    1.749708e+00
  1.656238e+01    1.764439e+00
  1.657826e+01    1.776664e+00
  1.659413e+01    1.741202e+00
  1.661001e+01    1.727150e+00
  1.662588e+01    1.730369e+00
  1.664176e+01    1.754084e+00
  1.665763e+01    1.743144e+00
  1.667351e+01    1.728171e+00
  1.668938e+01    1.733704e+00
  1.670526e+01    1.737628e+00
  1.672114e+01    1.735962e+00
  1.673701e+01    1.696707e+00
  1.675289e+01    1.694770e+00
  1.676876e+01    1.721145e+00
  1.678464e+01    1.717471e+00
  1.680051e+01    1.697969e+00
  1.681639e+01    1.725857e+00
  1.683226e+01    1.686742e+00
  1.684814e+01    1.692419e+00
  1.686402e+01    1.696709e+00
  1.687989e+01    1.685773e+00
  1.689577e+01    1.707144e+00
  1.691164e+01    1.710836e+00
  1.692752e+01    1.698171e+00
  1.694339e+01    1.669035e+00
  1.695927e+01    1.650792e+00
  1.697514e+01    1.666530e+00
  1.699102e+01    1.669247e+00
  1.700690e+01    1.683098e+00
  1.702277e+01    1.660551e+00
  1.703865e+01    1.661337e+00
  1.705452e+01    1.658780e+00
  1.707040e+01    1.635026e+00
  1.708627e+01    1.629856e+00
  1.710215e+01    1.649226e+00
  1.711802e+01    1.622622e+00
  1.713390e+01    1.621048e+00
  1.714978e+01    1.647362e+00
  1.716565e+01    1.648817e+00
  1.718153e+01    1.639833e+00
  1.719740e+01    1.630884e+00
  1.721328e+01    1.613637e+00
  1.722915e+01    1.638691e+00
  1.724503e+01    1.656773e+00
  1.726091e+01    1.648955e+00
  1.727678e+01    1.637217e+00
  1.729266e+01    1.617910e+00
  1.730853e+01    1.615241e+00
  1.732441e+01    1.597566e+00
  1.734028e+01    1.612189e+00
  1.735616e+01    1.639558e+00
  1.737203e+01    1.625523e+00
  1.738791e+01    1.627070e+00
  1.740379e+01    1.603936e+00
  1.741966e+01    1.613346e+00
  1.743554e+01    1.615943e+00
  1.745141e+01    1.606771e+00
  1.746729e+01    1.628010e+00
  1.748316e+01    1.605909e+00
  1.749904e+01    1.589962e+00
  1.751491e+01    1.594350e+00
  1.753079e+01    1.602160e+00
  1.754667e+01    1.586019e+00
  1.756254e+01    1.576928e+00
  1.757842e+01    1.558898e+00
  1.759429e+01    1.564350e+00
  1.761017e+01    1.570027e+00
  1.762604e+01    1.583982e+00
  1.764192e+01    1.561417e+00
  1.765779e+01    1.579213e+00
  1.767367e+01    1.566546e+00
  1.768955e+01    1.578031e+00
  1.770542e+01    1.553091e+00
  1.772130e+01    1.558039e+00
  1.773717e+01    1.563323e+00
  1.775305e+01    1.557246e+00
  1.776892e+01    1.550412e+00
  1.778480e+01    1.560506e+00
  1.780067e+01    1.563852e+00
  1.781655e+01    1.537643e+00
  1.783243e+01    1.522961e+00
  1.784830e+01    1.530005e+00
  1.786418e+01    1.535877e+00
  1.788005e+01    1.515650e+00
  1.789593e+01    1.526906e+00
  1.791180e+01    1.524127e+00
  1.792768e+01    1.509589e+00
  1.794355e+01    1.531608e+00
  1.795943e+01    1.498246e+00
  1.797531e+01    1.507167e+00
  1.799118e+01    1.510755e+00
  1.800706e+01    1.498094e+00
  1.802293e+01    1.514973e+00
  1.803881e+01    1.515495e+00
  1.805468e+01    1.515092e+00
  1.807056e+01    1.464616e+00
  1.808643e+01    1.506876e+00
  1.810231e+01    1.492473e+00
  1.811819e+01    1.508225e+00
  1.813406e+01    1.492910e+00
  1.814994e+01    1.488215e+00
  1.816581e+01    1.506901e+00
  1.818169e+01    1.504410e+00
  1.819756e+01    1.497035e+00
  1.821344e+01    1.504705e+00
  1.822932e+01    1.496608e+00
  1.824519e+01    1.485221e+00
  1.826107e+01    1.469811e+00
  1.827694e+01    1.479184e+00
  1.829282e+01    1.483813e+00
  1.830869e+01    1.488522e+00
  1.832457e+01    1.471374e+00
  1.834044e+01    1.484923e+00
  1.835632e+01    1.472604e+00
  1.837220e+01    1.475970e+00
  1.838807e+01    1.464609e+00
  1.840395e+01    1.479525e+00
  1.841982e+01    1.478512e+00
  1.843570e+01    1.480616e+00
  1.845157e+01    1.491181e+00
  1.846745e+01    1.490251e+00
  1.848332e+01    1.479051e+00
  1.849920e+01    1.473927e+00
  1.851508e+01    1.457912e+00
  1.853095e+01    1.426214e+00
  1.854683e+01    1.424271e+00
  1.856270e+01    1.461125e+00
  1.857858e+01    1.457965e+00
  1.859445e+01    1.432720e+00
  1.861033e+01    1.437458e+00
  1.862620e+01    1.431673e+00
  1.864208e+01    1.433125e+00
  1.865796e+01    1.443040e+00
  1.867383e+01    1.418824e+00
  1.868971e+01    1.396345e+00
  1.870558e+01    1.415235e+00
  1.872146e+01    1.426702e+00
  1.873733e+01    1.421310e+00
  1.875321e+01    1.405640e+00
  1.876908e+01    1.409338e+00
  1.878496e+01    1.415764e+00
  1.880084e+01    1.402965e+00
  1.881671e+01    1.397365e+00
  1.883259e+01    1.376205e+00
  1.884846e+01    1.388013e+00
  1.886434e+01    1.397470e+00
  1.888021e+01    1.423177e+00
  1.889609e+01    1.421962e+00
  1.891196e+01    1.399867e+00
  1.892784e+01    1.379542e+00
  1.894372e+01    1.401465e+00
  1.895959e+01    1.421285e+00
  1.897547e+01    1.418208e+00
  1.899134e+01    1.393109e+00
  1.900722e+01    1.386383e+00
  1.902309e+01    1.381354e+00
  1.903897e+01    1.392166e+00
  1.905484e+01    1.388782e+00
  1.907072e+01    1.386246e+00
  1.908660e+01    1.402873e+00
  1.910247e+01    1.375680e+00
  1.911835e+01    1.391629e+00
  1.913422e+01    1.395209e+00
  1.915010e+01    1.374776e+00
  1.916597e+01    1.374385e+00
  1.918185e+01    1.361061e+00
  1.919773e+01    1.343006e+00
  1.921360e+01    1.357794e+00
  1.922948e+01    1.361650e+00
  1.924535e+01    1.392865e+00
  1.926123e+01    1.372489e+00
  1.927710e+01    1.356648e+00
  1.929298e+01    1.303168e+00
  1.930885e+01    1.347708e+00
  1.932473e+01    1.366695e+00
  1.934061e+01    1.362921e+00
  1.935648e+01    1.352107e+00
  1.937236e+01    1.360909e+00
  1.938823e+01    1.378756e+00
  1.940411e+01    1.369182e+00
  1.941998e+01    1.341902e+00
  1.943586e+01    1.351269e+00
  1.945173e+01    1.335997e+00
  1.946761e+01    1.349453e+00
  1.948349e+01    1.355105e+00
  1.949936e+01    1.331120e+00
  1.951524e+01    1.335421e+00
  1.953111e+01    1.366016e+00
  1.954699e+01    1.343471e+00
  1.956286e+01    1.312989e+00
  1.957874e+01    1.317312e+00
  1.959461e+01    1.330370e+00
  1.961049e+01    1.322108e+00
  1.962637e+01    1.320899e+00
  1.964224e+01    1.320955e+00
  1.965812e+01    1.317590e+00
  1.967399e+01    1.318223e+00
  1.968987e+01    1.290048e+00
  1.970574e+01    1.290096e+00
  1.972162e+01    1.309695e+00
  1.973749e+01    1.310905e+00
  1.975337e+01    1.329894e+00
  1.976925e+01    1.323365e+00
  1.978512e+01    1.312038e+00
  1.980100e+01    1.288327e+00
  1.981687e+01    1.291023e+00
  1.983275e+01    1.284577e+00
  1.984862e+01    1.295436e+00
  1.986450e+01    1.289477e+00
  1.988037e+01    1.294482e+00
  1.989625e+01    1.265658e+00
  1.991213e+01    1.285940e+00
  1.992800e+01    1.302018e+00
  1.994388e+01    1.291605e+00
  1.995975e+01    1.298307e+00
  1.997563e+01    1.288380e+00
  1.999150e+01    1.290798e+00
  2.000738e+01    1.294561e+00
  2.002325e+01    1.287164e+00
  2.003913e+01    1.298938e+00
  2.005501e+01    1.300244e+00
  2.007088e+01    1.285202e+00
  2.008676e+01    1.276816e+00
  2.010263e+01    1.290785e+00
  2.011851e+01    1.264796e+00
  2.013438e+01    1.252680e+00
  2.015026e+01    1.252395e+00
  2.016614e+01    1.288546e+00
  2.018201e+01    1.286364e+00
  2.019789e+01    1.274146e+00
  2.021376e+01    1.266271e+00
  2.022964e+01    1.296968e+00
  2.024551e+01    1.255142e+00
  2.026139e+01    1.271282e+00
  2.027726e+01    1.270567e+00
  2.029314e+01    1.247192e+00
  2.030902e+01    1.250164e+00
  2.032489e+01    1.248084e+00
  2.034077e+01    1.275223e+00
  2.035664e+01    1.277990e+00
  2.037252e+01    1.255848e+00
  2.038839e+01    1.242645e+00
  2.040427e+01    1.228170e+00
  2.042014e+01    1.221702e+00
  2.043602e+01    1.256111e+00
  2.045190e+01    1.242291e+00
  2.046777e+01    1.230401e+00
  2.048365e+01    1.232551e+00
  2.049952e+01    1.248532e+00
  2.051540e+01    1.239704e+00
  2.053127e+01    1.235386e+00
  2.054715e+01    1.224316e+00
  2.056302e+01    1.221495e+00
  2.057890e+01    1.213115e+00
  2.059478e+01    1.220229e+00
  2.061065e+01    1.221692e+00
  2.062653e+01    1.231319e+00
  2.064240e+01    1.233482e+00
  2.065828e+01    1.246948e+00
  2.067415e+01    1.231005e+00
  2.069003e+01    1.227685e+00
  2.070590e+01    1.241764e+00
  2.072178e+01    1.251445e+00
  2.073766e+01    1.240869e+00
  2.075353e+01    1.238194e+00
  2.076941e+01    1.222744e+00
  2.078528e+01    1.224630e+00
  2.080116e+01    1.232797e+00
  2.081703e+01    1.262977e+00
  2.083291e+01    1.223867e+00
  2.084878e+01    1.240474e+00
  2.086466e+01    1.253609e+00
  2.088054e+01    1.245456e+00
  2.089641e+01    1.221609e+00
  2.091229e+01    1.220418e+00
  2.092816e+01    1.237051e+00
  2.094404e+01    1.206761e+00
  2.095991e+01    1.210020e+00
  2.097579e+01    1.197103e+00
  2.099166e+01    1.206948e+00
  2.100754e+01    1.248139e+00
  2.102342e+01    1.239696e+00
  2.103929e+01    1.240985e+00
  2.105517e+01    1.229577e+00
  2.107104e+01    1.232446e+00
  2.108692e+01    1.198939e+00
  2.110279e+01    1.216227e+00
  2.111867e+01    1.213455e+00
  2.113455e+01    1.240661e+00
  2.115042e+01    1.232346e+00
  2.116630e+01    1.231914e+00
  2.118217e+01    1.224144e+00
  2.119805e+01    1.237742e+00
  2.121392e+01    1.243263e+00
  2.122980e+01    1.242774e+00
  2.124567e+01    1.264475e+00
  2.126155e+01    1.248623e+00
  2.127743e+01    1.237212e+00
  2.129330e+01    1.234888e+00
  2.130918e+01    1.225891e+00
  2.132505e+01    1.242540e+00
  2.134093e+01    1.291023e+00
  2.135680e+01    1.285868e+00
  2.137268e+01    1.271375e+00
  2.138855e+01    1.284396e+00
  2.140443e+01    1.307689e+00
  2.142031e+01    1.320091e+00
  2.143618e+01    1.357453e+00
  2.145206e+01    1.349521e+00
  2.146793e+01    1.371189e+00
  2.148381e+01    1.386436e+00
  2.149968e+01    1.423761e+00
  2.151556e+01    1.453143e+00
  2.153143e+01    1.493837e+00
  2.154731e+01    1.521517e+00
  2.156319e+01    1.556745e+00
  2.157906e+01    1.611630e+00
  2.159494e+01    1.690530e+00
  2.161081e+01    1.760411e+00
  2.162669e+01    1.862319e+00
  2.164256e+01    1.951133e+00
  2.165844e+01    2.082604e+00
  2.167431e+01    2.298524e+00
  2.169019e+01    2.521283e+00
  2.170607e+01    2.744267e+00
  2.172194e+01    3.119409e+00
  2.173782e+01    3.542026e+00
  2.175369e+01    4.016026e+00
  2.176957e+01    4.571331e+00
  2.178544e+01    5.190601e+00
  2.180132e+01    5.853133e+00
  2.181719e+01    6.570880e+00
  2.183307e+01    7.285123e+00
  2.184895e+01    7.808513e+00
  2.186482e+01    8.373370e+00
  2.188070e+01    8.805829e+00
  2.189657e+01    8.944257e+00
  2.191245e+01    8.789417e+00
  2.192832e+01    8.262825e+00
  2.194420e+01    7.484375e+00
  2.196007e+01    6.601248e+00
  2.197595e+01    5.723303e+00
  2.199183e+01    4.884623e+00
  2.200770e+01    4.198430e+00
  2.202358e+01    3.606749e+00
  2.203945e+01    3.152073e+00
  2.205533e+01    2.835449e+00
  2.207120e+01    2.576497e+00
  2.208708e+01    2.331698e+00
  2.210296e+01    2.139517e+00
  2.211883e+01    1.993664e+00
  2.213471e+01    1.867193e+00
  2.215058e+01    1.751971e+00
  2.216646e+01    1.690810e+00
  2.218233e+01    1.617111e+00
  2.219821e+01    1.546025e+00
  2.221408e+01    1.499030e+00
  2.222996e+01    1.470506e+00
  2.224584e+01    1.432943e+00
  2.226171e+01    1.382242e+00
  2.227759e+01    1.350170e+00
  2.229346e+01    1.352682e+00
  2.230934e+01    1.320950e+00
  2.232521e+01    1.272563e+00
  2.234109e+01    1.248842e+00
  2.235696e+01    1.236381e+00
  2.237284e+01    1.250835e+00
  2.238872e+01    1.240111e+00
  2.240459e+01    1.228649e+00
  2.242047e+01    1.191496e+00
  2.243634e+01    1.183254e+00
  2.245222e+01    1.167681e+00
  2.246809e+01    1.164503e+00
  2.248397e+01    1.126933e+00
  2.249984e+01    1.127217e+00
  2.251572e+01    1.139193e+00
  2.253160e+01    1.134941e+00
  2.254747e+01    1.144423e+00
  2.256335e+01    1.132708e+00
  2.257922e+01    1.130929e+00
  2.259510e+01    1.126055e+00
  2.261097e+01    1.097420e+00
  2.262685e+01    1.111608e+00
  2.264272e+01    1.106819e+00
  2.265860e+01    1.088495e+00
  2.267448e+01    1.107576e+00
  2.269035e+01    1.094822e+00
  2.270623e+01    1.071350e+00
  2.272210e+01    1.086115e+00
  2.273798e+01    1.082690e+00
  2.275385e+01    1.074451e+00
  2.276973e+01    1.081292e+00
  2.278560e+01    1.072722e+00
  2.280148e+01    1.062518e+00
  2.281736e+01    1.052936e+00
  2.283323e+01    1.050232e+00
  2.284911e+01    1.048861e+00
  2.286498e+01    1.045929e+00
  2.288086e+01    1.047831e+00
  2.289673e+01    1.046250e+00
  2.291261e+01    1.052588e+00
  2.292848e+01    1.058360e+00
  2.294436e+01    1.049219e+00
  2.296024e+01    1.010656e+00
  2.297611e+01    1.023762e+00
  2.299199e+01    1.010361e+00
  2.300786e+01    1.023778e+00
  2.302374e+01    1.040030e+00
  2.303961e+01    1.019958e+00
  2.305549e+01    1.010439e+00
  2.307137e+01    1.019585e+00
  2.308724e+01    1.009713e+00
  2.310312e+01    1.007476e+00
  2.311899e+01    1.023189e+00
  2.313487e+01    1.014588e+00
  2.315074e+01    9.902101e-01
  2.316662e+01    9.961397e-01
  2.318249e+01    9.907312e-01
  2.319837e+01    9.957803e-01
  2.321425e+01    9.869692e-01
  2.323012e+01    9.986430e-01
  2.324600e+01    9.843013e-01
  2.326187e+01    9.902194e-01
  2.327775e+01    9.969932e-01
  2.329362e+01    1.006607e+00
  2.330950e+01    9.839442e-01
  2.332537e+01    9.698322e-01
  2.334125e+01    9.784183e-01
  2.335713e+01    1.002003e+00
  2.337300e+01    9.782986e-01
  2.338888e+01    9.645895e-01
  2.340475e+01    9.729998e-01
  2.342063e+01    9.759933e-01
  2.343650e+01    9.898489e-01
  2.345238e+01    9.824317e-01
  2.346825e+01    9.615803e-01
  2.348413e+01    9.776132e-01
  2.350001e+01    9.674567e-01
  2.351588e+01    9.644462e-01
  2.353176e+01    9.673825e-01
  2.354763e+01    9.556499e-01
  2.356351e+01    9.435736e-01
  2.357938e+01    9.713341e-01
  2.359526e+01    9.592689e-01
  2.361113e+01    9.750109e-01
  2.362701e+01    9.783188e-01
  2.364289e+01    9.576149e-01
  2.365876e+01    9.606776e-01
  2.367464e+01    9.512841e-01
  2.369051e+01    9.432448e-01
  2.370639e+01    9.331101e-01
  2.372226e+01    9.332671e-01
  2.373814e+01    9.310569e-01
  2.375401e+01    9.138137e-01
  2.376989e+01    9.034908e-01
  2.378577e+01    9.105815e-01
  2.380164e+01    9.132864e-01
  2.381752e+01    9.179081e-01
  2.383339e+01    9.078946e-01
  2.384927e+01    9.196478e-01
  2.386514e+01    9.267095e-01
  2.388102e+01    9.218665e-01
  2.389689e+01    9.144010e-01
  2.391277e+01    9.194084e-01
  2.392865e+01    9.202095e-01
  2.394452e+01    9.012033e-01
  2.396040e+01    8.994311e-01
  2.397627e+01    9.196512e-01
  2.399215e+01    9.097958e-01
  2.400802e+01    8.805960e-01
  2.402390e+01    8.941999e-01
  2.403978e+01    9.012376e-01
  2.405565e+01    9.124170e-01
  2.407153e+01    9.050022e-01
  2.408740e+01    8.918604e-01
  2.410328e+01    8.760167e-01
  2.411915e+01    8.795883e-01
  2.413503e+01    8.943300e-01
  2.415090e+01    8.939683e-01
  2.416678e+01    9.013004e-01
  2.418266e+01    8.864836e-01
  2.419853e+01    8.828279e-01
  2.421441e+01    8.599022e-01
  2.423028e+01    8.906807e-01
  2.424616e+01    8.815090e-01
  2.426203e+01    8.648207e-01
  2.427791e+01    8.755332e-01
  2.429378e+01    8.955002e-01
  2.430966e+01    9.044565e-01
  2.432554e+01    9.002368e-01
  2.434141e+01    8.998277e-01
  2.435729e+01    9.074892e-01
  2.437316e+01    8.940408e-01
  2.438904e+01    9.009698e-01
  2.440491e+01    8.912095e-01
  2.442079e+01    8.960595e-01
  2.443666e+01    9.218780e-01
  2.445254e+01    9.026871e-01
  2.446842e+01    8.796440e-01
  2.448429e+01    8.804749e-01
  2.450017e+01    9.080216e-01
  2.451604e+01    9.145188e-01
  2.453192e+01    8.916207e-01
  2.454779e+01    8.883245e-01
  2.456367e+01    9.058235e-01
  2.457954e+01    8.797204e-01
  2.459542e+01    9.010435e-01
  2.461130e+01    8.700944e-01
  2.462717e+01    8.866507e-01
  2.464305e+01    8.952691e-01
  2.465892e+01    8.807179e-01
  2.467480e+01    8.817194e-01
  2.469067e+01    8.936028e-01
  2.470655e+01    8.806822e-01
  2.472242e+01    8.982717e-01
  2.473830e+01    8.889622e-01
  2.475418e+01    8.794802e-01
  2.477005e+01    8.832306e-01
  2.478593e+01    8.744267e-01
  2.480180e+01    8.822879e-01
  2.481768e+01    8.816706e-01
  2.483355e+01    8.850332e-01
  2.484943e+01    8.631060e-01
  2.486530e+01    8.856184e-01
  2.488118e+01    9.038230e-01
  2.489706e+01    8.958235e-01
  2.491293e+01    8.936844e-01
  2.492881e+01    9.029028e-01
  2.494468e+01    9.107735e-01
  2.496056e+01    8.759832e-01
  2.497643e+01    8.831244e-01
  2.499231e+01    9.020447e-01
  2.500819e+01    9.104582e-01
  2.502406e+01    8.869002e-01
  2.503994e+01    8.987619e-01
  2.505581e+01    9.071591e-01
  2.507169e+01    9.053659e-01
  2.508756e+01    9.194945e-01
  2.510344e+01    9.114211e-01
  2.511931e+01    9.213055e-01
  2.513519e+01    9.096435e-01
  2.515107e+01    9.226645e-01
  2.516694e+01    9.072632e-01
  2.518282e+01    9.219997e-01
  2.519869e+01    9.497059e-01
  2.521457e+01    9.493135e-01
  2.523044e+01    9.338102e-01
  2.524632e+01    9.350679e-01
  2.526219e+01    9.486458e-01
  2.527807e+01    9.516908e-01
  2.529395e+01    9.506320e-01
  2.530982e+01    9.420969e-01
  2.532570e+01    9.734107e-01
  2.534157e+01    9.733717e-01
  2.535745e+01    9.706315e-01
  2.537332e+01    9.853134e-01
  2.538920e+01    9.870200e-01
  2.540507e+01    9.932536e-01
  2.542095e+01    1.015501e+00
  2.543683e+01    1.012666e+00
  2.545270e+01    1.013262e+00
  2.546858e+01    1.030378e+00
  2.548445e+01    1.055831e+00
  2.550033e+01    1.043361e+00
  2.551620e+01    1.069546e+00
  2.553208e+01    1.084692e+00
  2.554795e+01    1.121313e+00
  2.556383e+01    1.165309e+00
  2.557971e+01    1.192950e+00
  2.559558e+01    1.194683e+00
  2.561146e+01    1.218106e+00
  2.562733e+01    1.270600e+00
  2.564321e+01    1.323738e+00
  2.565908e+01    1.349153e+00
  2.567496e+01    1.407909e+00
  2.569083e+01    1.518960e+00
  2.570671e+01    1.619631e+00
  2.572259e+01    1.704275e+00
  2.573846e+01    1.828321e+00
  2.575434e+01    2.026105e+00
  2.577021e+01    2.213559e+00
  2.578609e+01    2.492157e+00
  2.580196e+01    2.820677e+00
  2.581784e+01    3.203757e+00
  2.583371e+01    3.635782e+00
  2.584959e+01    4.102746e+00
  2.586547e+01    4.694885e+00
  2.588134e+01    5.250945e+00
  2.589722e+01    5.849895e+00
  2.591309e+01    6.354316e+00
  2.592897e+01    6.789534e+00
  2.594484e+01    7.099881e+00
  2.596072e+01    7.135064e+00
  2.597660e+01    6.947229e+00
  2.599247e+01    6.551332e+00
  2.600835e+01    5.971078e+00
  2.602422e+01    5.305623e+00
  2.604010e+01    4.602746e+00
  2.605597e+01    3.965360e+00
  2.607185e+01    3.456109e+00
  2.608772e+01    3.038114e+00
  2.610360e+01    2.689887e+00
  2.611948e+01    2.382767e+00
  2.613535e+01    2.137177e+00
  2.615123e+01    1.944300e+00
  2.616710e+01    1.823055e+00
  2.618298e+01    1.683443e+00
  2.619885e+01    1.587434e+00
  2.621473e+01    1.497997e+00
  2.623060e+01    1.411378e+00
  2.624648e+01    1.345168e+00
  2.626236e+01    1.302626e+00
  2.627823e+01    1.243340e+00
  2.629411e+01    1.215009e+00
  2.630998e+01    1.207425e+00
  2.632586e+01    1.180284e+00
  2.634173e+01    1.111576e+00
  2.635761e+01    1.096791e+00
  2.637348e+01    1.077847e+00
  2.638936e+01    1.075184e+00
  2.640524e+01    1.068392e+00
  2.642111e+01    1.055628e+00
  2.643699e+01    1.044010e+00
  2.645286e+01    1.044495e+00
  2.646874e+01    1.036177e+00
  2.648461e+01    1.013854e+00
  2.650049e+01    1.034471e+00
  2.651636e+01    1.013890e+00
  2.653224e+01    9.792023e-01
  2.654812e+01    9.894132e-01
  2.656399e+01    1.021703e+00
  2.657987e+01    9.871512e-01
  2.659574e+01    9.846070e-01
  2.661162e+01    9.998704e-01
  2.662749e+01    9.768052e-01
  2.664337e+01    9.418247e-01
  2.665924e+01    9.670554e-01
  2.667512e+01    9.893643e-01
  2.669100e+01    9.994225e-01
  2.670687e+01    9.726994e-01
  2.672275e+01    9.437933e-01
  2.673862e+01    9.662254e-01
  2.675450e+01    9.769652e-01
  2.677037e+01    9.733428e-01
  2.678625e+01    9.606169e-01
  2.680212e+01    9.793813e-01
  2.681800e+01    9.932949e-01
  2.683388e+01    9.939653e-01
  2.684975e+01    9.952632e-01
  2.686563e+01    9.987353e-01
  2.688150e+01    9.872570e-01
  2.689738e+01    9.830921e-01
  2.691325e+01    9.820551e-01
  2.692913e+01    1.018014e+00
  2.694501e+01    1.043375e+00
  2.696088e+01    1.047725e+00
  2.697676e+01    1.048662e+00
  2.699263e+01    1.086293e+00
  2.700851e+01    1.114552e+00
  2.702438e+01    1.143601e+00
  2.704026e+01    1.185751e+00
  2.705613e+01    1.238103e+00
  2.707201e+01    1.322633e+00
  2.708789e+01    1.381009e+00
  2.710376e+01    1.479990e+00
  2.711964e+01    1.612086e+00
  2.713551e+01    1.731782e+00
  2.715139e+01    1.849551e+00
  2.716726e+01    1.992230e+00
  2.718314e+01    2.098585e+00
  2.719901e+01    2.124676e+00
  2.721489e+01    2.136329e+00
  2.723077e+01    2.146356e+00
  2.724664e+01    2.107276e+00
  2.726252e+01    1.971569e+00
  2.727839e+01    1.843487e+00
  2.729427e+01    1.700658e+00
  2.731014e+01    1.568211e+00
  2.732602e+01    1.478862e+00
  2.734189e+01    1.371842e+00
  2.735777e+01    1.276013e+00
  2.737365e+01    1.226946e+00
  2.738952e+01    1.186810e+00
  2.740540e+01    1.133133e+00
  2.742127e+01    1.085498e+00
  2.743715e+01    1.059606e+00
  2.745302e+01    1.024121e+00
  2.746890e+01    1.023461e+00
  2.748477e+01    1.027470e+00
  2.750065e+01    1.025187e+00
  2.751653e+01    9.957341e-01
  2.753240e+01    9.809456e-01
  2.754828e+01    9.752816e-01
  2.756415e+01    9.697114e-01
  2.758003e+01    9.371127e-01
  2.759590e+01    9.436570e-01
  2.761178e+01    9.413001e-01
  2.762765e+01    9.248379e-01
  2.764353e+01    9.206868e-01
  2.765941e+01    9.235768e-01
  2.767528e+01    9.354941e-01
  2.769116e+01    9.215611e-01
  2.770703e+01    9.030658e-01
  2.772291e+01    9.068972e-01
  2.773878e+01    8.948747e-01
  2.775466e+01    9.239383e-01
  2.777054e+01    9.237983e-01
  2.778641e+01    9.248743e-01
  2.780229e+01    9.045808e-01
  2.781816e+01    8.852715e-01
  2.783404e+01    8.989376e-01
  2.784991e+01    8.661788e-01
  2.786579e+01    8.898055e-01
  2.788166e+01    9.155025e-01
  2.789754e+01    9.050876e-01
  2.791342e+01    8.823389e-01
  2.792929e+01    8.680983e-01
  2.794517e+01    8.849491e-01
  2.796104e+01    8.775911e-01
  2.797692e+01    8.558257e-01
  2.799279e+01    8.303414e-01
  2.800867e+01    8.465881e-01
  2.802454e+01    8.730394e-01
  2.804042e+01    8.758444e-01
  2.805630e+01    8.799710e-01
  2.807217e+01    8.705944e-01
  2.808805e+01    8.458797e-01
  2.810392e+01    8.281164e-01
  2.811980e+01    8.617882e-01
  2.813567e+01    8.732786e-01
  2.815155e+01    8.575079e-01
  2.816742e+01    8.498979e-01
  2.818330e+01    8.714654e-01
  2.819918e+01    8.793483e-01
  2.821505e+01    8.496931e-01
  2.823093e+01    8.600915e-01
  2.824680e+01    8.577969e-01
  2.826268e+01    8.521980e-01
  2.827855e+01    8.623046e-01
  2.829443e+01    8.398536e-01
  2.831030e+01    8.293071e-01
  2.832618e+01    8.580664e-01
  2.834206e+01    8.553154e-01
  2.835793e+01    8.547693e-01
  2.837381e+01    8.440915e-01
  2.838968e+01    8.386691e-01
  2.840556e+01    8.348880e-01
  2.842143e+01    8.375396e-01
  2.843731e+01    8.412135e-01
  2.845318e+01    8.486380e-01
  2.846906e+01    8.498839e-01
  2.848494e+01    8.462815e-01
  2.850081e+01    8.462393e-01
  2.851669e+01    8.367767e-01
  2.853256e+01    8.294050e-01
  2.854844e+01    8.361198e-01
  2.856431e+01    8.355898e-01
  2.858019e+01    8.348057e-01
  2.859606e+01    8.341314e-01
  2.861194e+01    8.278190e-01
  2.862782e+01    8.335585e-01
  2.864369e+01    8.522204e-01
  2.865957e+01    8.328632e-01
  2.867544e+01    8.280734e-01
  2.869132e+01    8.403574e-01
  2.870719e+01    8.490556e-01
  2.872307e+01    8.437175e-01
  2.873895e+01    8.283871e-01
  2.875482e+01    8.216071e-01
  2.877070e+01    8.355511e-01
  2.878657e+01    8.297892e-01
  2.880245e+01    8.209903e-01
  2.881832e+01    8.160883e-01
  2.883420e+01    8.143309e-01
  2.885007e+01    8.089882e-01
  2.886595e+01    7.905186e-01
  2.888183e+01    8.183630e-01
  2.889770e+01    8.303072e-01
  2.891358e+01    8.190849e-01
  2.892945e+01    8.257304e-01
  2.894533e+01    8.145341e-01
  2.896120e+01    8.350628e-01
  2.897708e+01    8.284301e-01
  2.899295e+01    8.112257e-01
  2.900883e+01    8.248744e-01
  2.902471e+01    8.284516e-01
  2.904058e+01    8.259798e-01
  2.905646e+01    8.171073e-01
  2.907233e+01    8.177933e-01
  2.908821e+01    7.930734e-01
  2.910408e+01    8.154461e-01
  2.911996e+01    8.134025e-01
  2.913583e+01    8.096778e-01
  2.915171e+01    8.096524e-01
  2.916759e+01    7.955847e-01
  2.918346e+01    8.137582e-01
  2.919934e+01    8.188044e-01
  2.921521e+01    8.107063e-01
  2.923109e+01    8.115941e-01
  2.924696e+01    8.438208e-01
  2.926284e+01    8.247909e-01
  2.927871e+01    8.255689e-01
  2.929459e+01    8.004604e-01
  2.931047e+01    8.190341e-01
  2.932634e+01    8.281931e-01
  2.934222e+01    7.966917e-01
  2.935809e+01    8.208622e-01
  2.937397e+01    8.221140e-01
  2.938984e+01    8.055036e-01
  2.940572e+01    8.058401e-01
  2.942159e+01    7.995989e-01
  2.943747e+01    7.930189e-01
  2.945335e+01    8.089903e-01
  2.946922e+01    7.995844e-01
  2.948510e+01    8.103204e-01
  2.950097e+01    8.082925e-01
  2.951685e+01    7.949994e-01
  2.953272e+01    8.242928e-01
  2.954860e+01    8.209696e-01
  2.956447e+01    8.186140e-01
  2.958035e+01    7.989018e-01
  2.959623e+01    8.178851e-01
  2.961210e+01    8.224877e-01
  2.962798e+01    8.075572e-01
  2.964385e+01    7.959623e-01
  2.965973e+01    7.833979e-01
  2.967560e+01    8.087279e-01
  2.969148e+01    8.143827e-01
  2.970736e+01    7.937771e-01
  2.972323e+01    8.042085e-01
  2.973911e+01    7.835618e-01
  2.975498e+01    7.771065e-01
  2.977086e+01    7.899032e-01
  2.978673e+01    7.982053e-01
  2.980261e+01    7.877383e-01
  2.981848e+01    7.876208e-01
  2.983436e+01    8.073187e-01
  2.985024e+01    8.153862e-01
  2.986611e+01    7.885036e-01
  2.988199e+01    7.935213e-01
  2.989786e+01    7.940912e-01
  2.991374e+01    8.004599e-01
  2.992961e+01    8.098550e-01
  2.994549e+01    7.971814e-01
  2.996136e+01    8.023336e-01
  2.997724e+01    8.211923e-01
  2.999312e+01    8.075041e-01
  3.000899e+01    7.938291e-01
  3.002487e+01    8.076049e-01
  3.004074e+01    8.171805e-01
  3.005662e+01    8.167008e-01
  3.007249e+01    8.145902e-01
  3.008837e+01    8.301902e-01
  3.010424e+01    8.236427e-01
  3.012012e+01    8.171241e-01
  3.013600e+01    8.109240e-01
  3.015187e+01    8.035369e-01
  3.016775e+01    7.987109e-01
  3.018362e+01    8.003116e-01
  3.019950e+01    7.893892e-01
  3.021537e+01    7.867174e-01
  3.023125e+01    7.843941e-01
  3.024712e+01    7.867640e-01
  3.026300e+01    8.036349e-01
  3.027888e+01    7.927331e-01
  3.029475e+01    8.072274e-01
  3.031063e+01    8.024445e-01
  3.032650e+01    7.974864e-01
  3.034238e+01    7.765947e-01
  3.035825e+01    7.869552e-01
  3.037413e+01    7.957653e-01
  3.039000e+01    8.034110e-01
  3.040588e+01    7.923230e-01
  3.042176e+01    7.812163e-01
  3.043763e+01    7.779021e-01
  3.045351e+01    7.631811e-01
  3.046938e+01    7.891076e-01
  3.048526e+01    7.976572e-01
  3.050113e+01    7.862633e-01
  3.051701e+01    7.737893e-01
  3.053288e+01    7.776853e-01
  3.054876e+01    7.938988e-01
  3.056464e+01    7.704792e-01
  3.058051e+01    7.957833e-01
  3.059639e+01    8.090529e-01
  3.061226e+01    7.864308e-01
  3.062814e+01    7.951829e-01
  3.064401e+01    7.943143e-01
  3.065989e+01    7.858860e-01
  3.067577e+01    7.674294e-01
  3.069164e+01    7.788850e-01
  3.070752e+01    8.016741e-01
  3.072339e+01    7.862964e-01
  3.073927e+01    7.627979e-01
  3.075514e+01    7.881907e-01
  3.077102e+01    7.827121e-01
  3.078689e+01    7.697920e-01
  3.080277e+01    7.715735e-01
  3.081865e+01    7.926902e-01
  3.083452e+01    7.881938e-01
  3.085040e+01    7.765126e-01
  3.086627e+01    7.890158e-01
  3.088215e+01    8.035508e-01
  3.089802e+01    7.845732e-01
  3.091390e+01    7.783265e-01
  3.092977e+01    7.907168e-01
  3.094565e+01    7.763181e-01
  3.096153e+01    7.715901e-01
  3.097740e+01    7.943647e-01
  3.099328e+01    8.005840e-01
  3.100915e+01    7.816958e-01
  3.102503e+01    7.728426e-01
  3.104090e+01    7.759562e-01
  3.105678e+01    7.722921e-01
  3.107265e+01    7.938846e-01
  3.108853e+01    7.890105e-01
  3.110441e+01    7.787289e-01
  3.112028e+01    7.899783e-01
  3.113616e+01    7.951698e-01
  3.115203e+01    7.834984e-01
  3.116791e+01    8.074372e-01
  3.118378e+01    8.175775e-01
  3.119966e+01    8.058529e-01
  3.121553e+01    8.122074e-01
  3.123141e+01    8.112830e-01
  3.124729e+01    8.144020e-01
  3.126316e+01    7.829015e-01
  3.127904e+01    8.080338e-01
  3.129491e+01    8.188660e-01
  3.131079e+01    8.179013e-01
  3.132666e+01    8.071482e-01
  3.134254e+01    7.929631e-01
  3.135841e+01    7.835332e-01
  3.137429e+01    8.107032e-01
  3.139017e+01    8.262591e-01
  3.140604e+01    7.831540e-01
  3.142192e+01    7.914134e-01
  3.143779e+01    8.081496e-01
  3.145367e+01    8.386945e-01
  3.146954e+01    8.198982e-01
  3.148542e+01    8.026537e-01
  3.150129e+01    8.171881e-01
  3.151717e+01    8.209683e-01
  3.153305e+01    8.306582e-01
  3.154892e+01    8.529434e-01
  3.156480e+01    8.585727e-01
  3.158067e+01    8.832169e-01
  3.159655e+01    8.706609e-01
  3.161242e+01    8.817900e-01
  3.162830e+01    9.091128e-01
  3.164418e+01    9.183128e-01
  3.166005e+01    9.528465e-01
  3.167593e+01    9.743597e-01
  3.169180e+01    1.004444e+00
  3.170768e+01    1.002959e+00
  3.172355e+01    1.053454e+00
  3.173943e+01    1.104650e+00
  3.175530e+01    1.164359e+00
  3.177118e+01    1.251675e+00
  3.178706e+01    1.356616e+00
  3.180293e+01    1.448192e+00
  3.181881e+01    1.566259e+00
  3.183468e+01    1.712283e+00
  3.185056e+01    1.850097e+00
  3.186643e+01    1.971783e+00
  3.188231e+01    2.016594e+00
  3.189818e+01    2.061511e+00
  3.191406e+01    2.062860e+00
  3.192994e+01    2.061567e+00
  3.194581e+01    1.953318e+00
  3.196169e+01    1.806976e+00
  3.197756e+01    1.675166e+00
  3.199344e+01    1.563155e+00
  3.200931e+01    1.438967e+00
  3.202519e+01    1.347571e+00
  3.204106e+01    1.242356e+00
  3.205694e+01    1.159993e+00
  3.207282e+01    1.099969e+00
  3.208869e+01    1.057519e+00
  3.210457e+01    1.004733e+00
  3.212044e+01    9.674304e-01
  3.213632e+01    9.379801e-01
  3.215219e+01    9.071211e-01
  3.216807e+01    9.124188e-01
  3.218394e+01    8.674579e-01
  3.219982e+01    8.676518e-01
  3.221570e+01    8.497818e-01
  3.223157e+01    8.573458e-01
  3.224745e+01    8.335013e-01
  3.226332e+01    8.038387e-01
  3.227920e+01    8.175129e-01
  3.229507e+01    8.166617e-01
  3.231095e+01    7.956565e-01
  3.232682e+01    8.086957e-01
  3.234270e+01    7.965916e-01
  3.235858e+01    7.997134e-01
  3.237445e+01    7.776508e-01
  3.239033e+01    8.156330e-01
  3.240620e+01    7.959077e-01
  3.242208e+01    7.957998e-01
  3.243795e+01    7.971513e-01
  3.245383e+01    7.854479e-01
  3.246970e+01    7.590232e-01
  3.248558e+01    7.691758e-01
  3.250146e+01    7.446811e-01
  3.251733e+01    7.513276e-01
  3.253321e+01    7.707584e-01
  3.254908e+01    7.639282e-01
