# == pyFAI calibration ==
# Distance Sample to Detector: 0.3999999939076516 m
# PONI: 9.750e-02, 1.135e-01 m
# Rotations: -0.000175 0.000000 -0.000000 rad
# 
# == Fit2d calibration ==
# Distance Sample-beamCenter: 400.000 mm
# Center: x=1514.000, y=1300.000 pix
# Tilt: 0.010 deg  TiltPlanRot: 0.010 deg
# 
# Detector Detector	 Spline= None	 PixelSize= 7.500e-05, 7.500e-05 m
#    Detector has a mask: False 
#    Detector has a dark current: False 
#    detector has a flat field: False 
# 
# Wavelength: 6.888e-11 m
# Mask applied: user provided
# Dark current applied: False
# Flat field applied: False
# Polarization factor: 0.99
# Normalization factor: 1.0
# --> /home/myspot/data/2024_07_Rosario/Ru-CGO-ex/2024-07-27_003_Ru-CGO-ex_Reaction_dwell_000023_data_000105.dat
#       q_nm^-1             I 
  2.003187e-02    2.226973e-02
  3.590745e-02    1.261590e-01
  5.178302e-02    8.769654e-02
  6.765859e-02    3.651140e-02
  8.353417e-02    1.279637e-01
  9.940974e-02    2.059362e-01
  1.152853e-01    5.547349e-02
  1.311609e-01    3.343998e-02
  1.470365e-01    3.665998e-03
  1.629120e-01    0.000000e+00
  1.787876e-01    3.895421e-02
  1.946632e-01    2.257920e-02
  2.105388e-01    1.407218e-02
  2.264143e-01    1.972597e-02
  2.422899e-01    2.210628e-02
  2.581655e-01    1.541775e-02
  2.740411e-01    4.037010e-03
  2.899166e-01    3.431540e-02
  3.057922e-01    4.934780e-02
  3.216678e-01    3.517902e-02
  3.375433e-01    5.483211e-02
  3.534189e-01    7.897501e-02
  3.692945e-01    9.504748e-02
  3.851701e-01    3.963794e-02
  4.010456e-01    6.612618e-02
  4.169212e-01    8.542974e-02
  4.327968e-01    3.603531e-02
  4.486724e-01    4.855688e-02
  4.645479e-01    5.199990e-02
  4.804235e-01    5.221508e-02
  4.962991e-01    4.123636e-02
  5.121747e-01    2.708136e-02
  5.280502e-01    6.280950e-02
  5.439258e-01    4.517109e-02
  5.598014e-01    2.853131e-02
  5.756770e-01    4.456270e-02
  5.915525e-01    6.070777e-02
  6.074281e-01    5.369281e-02
  6.233037e-01    5.958580e-02
  6.391793e-01    5.144325e-02
  6.550548e-01    3.358040e-02
  6.709304e-01    3.719816e-02
  6.868060e-01    3.920851e-02
  7.026815e-01    4.786184e-02
  7.185571e-01    4.768826e-02
  7.344327e-01    3.679448e-02
  7.503083e-01    3.570095e-02
  7.661838e-01    6.095202e-02
  7.820594e-01    1.246597e-01
  7.979350e-01    1.500080e-01
  8.138106e-01    2.356351e-01
  8.296861e-01    2.594931e-01
  8.455617e-01    3.117923e-01
  8.614373e-01    3.870828e-01
  8.773129e-01    4.896031e-01
  8.931884e-01    5.456417e-01
  9.090640e-01    6.535230e-01
  9.249396e-01    7.799804e-01
  9.408152e-01    8.628799e-01
  9.566907e-01    9.782149e-01
  9.725663e-01    9.860620e-01
  9.884419e-01    1.094662e+00
  1.004317e+00    1.192878e+00
  1.020193e+00    1.277320e+00
  1.036069e+00    1.340051e+00
  1.051944e+00    1.389382e+00
  1.067820e+00    1.459714e+00
  1.083695e+00    1.551021e+00
  1.099571e+00    1.514323e+00
  1.115446e+00    1.485325e+00
  1.131322e+00    1.578902e+00
  1.147198e+00    1.627450e+00
  1.163073e+00    1.642174e+00
  1.178949e+00    1.675674e+00
  1.194824e+00    1.930927e+00
  1.210700e+00    2.001419e+00
  1.226575e+00    2.172607e+00
  1.242451e+00    2.403716e+00
  1.258327e+00    2.549049e+00
  1.274202e+00    2.592663e+00
  1.290078e+00    2.744623e+00
  1.305953e+00    2.859369e+00
  1.321829e+00    2.851760e+00
  1.337705e+00    2.783996e+00
  1.353580e+00    2.778066e+00
  1.369456e+00    2.826244e+00
  1.385331e+00    2.931723e+00
  1.401207e+00    2.900519e+00
  1.417082e+00    2.912795e+00
  1.432958e+00    2.901563e+00
  1.448834e+00    2.898097e+00
  1.464709e+00    3.032670e+00
  1.480585e+00    3.082438e+00
  1.496460e+00    3.057467e+00
  1.512336e+00    3.112093e+00
  1.528211e+00    3.128851e+00
  1.544087e+00    3.268260e+00
  1.559963e+00    3.261566e+00
  1.575838e+00    3.186423e+00
  1.591714e+00    2.988860e+00
  1.607589e+00    3.101533e+00
  1.623465e+00    3.114711e+00
  1.639340e+00    3.072188e+00
  1.655216e+00    3.087879e+00
  1.671092e+00    3.150370e+00
  1.686967e+00    3.133568e+00
  1.702843e+00    3.124803e+00
  1.718718e+00    3.002759e+00
  1.734594e+00    3.098658e+00
  1.750469e+00    3.032985e+00
  1.766345e+00    2.851453e+00
  1.782221e+00    2.926284e+00
  1.798096e+00    3.024948e+00
  1.813972e+00    2.969269e+00
  1.829847e+00    3.133412e+00
  1.845723e+00    3.136117e+00
  1.861598e+00    3.160523e+00
  1.877474e+00    3.079121e+00
  1.893350e+00    2.989552e+00
  1.909225e+00    3.048579e+00
  1.925101e+00    3.124376e+00
  1.940976e+00    3.067669e+00
  1.956852e+00    3.138598e+00
  1.972727e+00    3.087874e+00
  1.988603e+00    3.056267e+00
  2.004479e+00    3.157508e+00
  2.020354e+00    3.362225e+00
  2.036230e+00    3.141113e+00
  2.052105e+00    3.036000e+00
  2.067981e+00    3.068793e+00
  2.083856e+00    3.140943e+00
  2.099732e+00    3.079530e+00
  2.115608e+00    3.063822e+00
  2.131483e+00    2.981508e+00
  2.147359e+00    3.073250e+00
  2.163234e+00    3.139190e+00
  2.179110e+00    3.121886e+00
  2.194985e+00    3.072636e+00
  2.210861e+00    3.149289e+00
  2.226737e+00    3.209097e+00
  2.242612e+00    3.172899e+00
  2.258488e+00    3.094951e+00
  2.274363e+00    3.136250e+00
  2.290239e+00    3.134270e+00
  2.306115e+00    3.100143e+00
  2.321990e+00    3.035788e+00
  2.337866e+00    3.071265e+00
  2.353741e+00    3.192248e+00
  2.369617e+00    3.110979e+00
  2.385492e+00    3.146334e+00
  2.401368e+00    3.066578e+00
  2.417244e+00    3.172527e+00
  2.433119e+00    3.141984e+00
  2.448995e+00    3.131165e+00
  2.464870e+00    3.109887e+00
  2.480746e+00    3.160505e+00
  2.496621e+00    3.212620e+00
  2.512497e+00    3.184942e+00
  2.528373e+00    3.231001e+00
  2.544248e+00    3.124420e+00
  2.560124e+00    3.128039e+00
  2.575999e+00    3.254878e+00
  2.591875e+00    3.192529e+00
  2.607750e+00    3.156245e+00
  2.623626e+00    3.211266e+00
  2.639502e+00    3.294925e+00
  2.655377e+00    3.360854e+00
  2.671253e+00    3.273984e+00
  2.687128e+00    3.173762e+00
  2.703004e+00    3.287207e+00
  2.718879e+00    3.219578e+00
  2.734755e+00    3.179874e+00
  2.750631e+00    3.291942e+00
  2.766506e+00    3.320013e+00
  2.782382e+00    3.271704e+00
  2.798257e+00    3.366397e+00
  2.814133e+00    3.351709e+00
  2.830008e+00    3.310848e+00
  2.845884e+00    3.357594e+00
  2.861760e+00    3.393215e+00
  2.877635e+00    3.399043e+00
  2.893511e+00    3.381160e+00
  2.909386e+00    3.237671e+00
  2.925262e+00    3.271036e+00
  2.941137e+00    3.400106e+00
  2.957013e+00    3.327201e+00
  2.972889e+00    3.343284e+00
  2.988764e+00    3.331322e+00
  3.004640e+00    3.362616e+00
  3.020515e+00    3.396390e+00
  3.036391e+00    3.391756e+00
  3.052266e+00    3.329854e+00
  3.068142e+00    3.294167e+00
  3.084018e+00    3.460296e+00
  3.099893e+00    3.410247e+00
  3.115769e+00    3.330097e+00
  3.131644e+00    3.321727e+00
  3.147520e+00    3.399605e+00
  3.163395e+00    3.487929e+00
  3.179271e+00    3.384408e+00
  3.195147e+00    3.348302e+00
  3.211022e+00    3.390753e+00
  3.226898e+00    3.353610e+00
  3.242773e+00    3.293915e+00
  3.258649e+00    3.419470e+00
  3.274525e+00    3.466743e+00
  3.290400e+00    3.377127e+00
  3.306276e+00    3.347595e+00
  3.322151e+00    3.525688e+00
  3.338027e+00    3.541927e+00
  3.353902e+00    3.448947e+00
  3.369778e+00    3.367646e+00
  3.385654e+00    3.477513e+00
  3.401529e+00    3.442137e+00
  3.417405e+00    3.446866e+00
  3.433280e+00    3.514337e+00
  3.449156e+00    3.489986e+00
  3.465031e+00    3.435664e+00
  3.480907e+00    3.509026e+00
  3.496783e+00    3.535804e+00
  3.512658e+00    3.508609e+00
  3.528534e+00    3.489945e+00
  3.544409e+00    3.579243e+00
  3.560285e+00    3.515368e+00
  3.576160e+00    3.540406e+00
  3.592036e+00    3.606006e+00
  3.607912e+00    3.587891e+00
  3.623787e+00    3.449294e+00
  3.639663e+00    3.452783e+00
  3.655538e+00    3.461980e+00
  3.671414e+00    3.566824e+00
  3.687289e+00    3.531850e+00
  3.703165e+00    3.514045e+00
  3.719041e+00    3.451777e+00
  3.734916e+00    3.518353e+00
  3.750792e+00    3.506213e+00
  3.766667e+00    3.544568e+00
  3.782543e+00    3.501114e+00
  3.798418e+00    3.479186e+00
  3.814294e+00    3.396202e+00
  3.830170e+00    3.422851e+00
  3.846045e+00    3.497394e+00
  3.861921e+00    3.491256e+00
  3.877796e+00    3.498728e+00
  3.893672e+00    3.507181e+00
  3.909547e+00    3.546793e+00
  3.925423e+00    3.564020e+00
  3.941299e+00    3.530225e+00
  3.957174e+00    3.460377e+00
  3.973050e+00    3.510355e+00
  3.988925e+00    3.584109e+00
  4.004801e+00    3.593099e+00
  4.020676e+00    3.508956e+00
  4.036552e+00    3.439289e+00
  4.052428e+00    3.517740e+00
  4.068303e+00    3.585339e+00
  4.084179e+00    3.570055e+00
  4.100054e+00    3.617580e+00
  4.115930e+00    3.512332e+00
  4.131806e+00    3.520788e+00
  4.147681e+00    3.548276e+00
  4.163557e+00    3.538485e+00
  4.179432e+00    3.603822e+00
  4.195308e+00    3.590336e+00
  4.211183e+00    3.530233e+00
  4.227059e+00    3.486263e+00
  4.242935e+00    3.542274e+00
  4.258810e+00    3.545577e+00
  4.274686e+00    3.594291e+00
  4.290561e+00    3.598577e+00
  4.306437e+00    3.605239e+00
  4.322312e+00    3.635168e+00
  4.338188e+00    3.579765e+00
  4.354064e+00    3.636696e+00
  4.369939e+00    3.572358e+00
  4.385815e+00    3.537770e+00
  4.401690e+00    3.565181e+00
  4.417566e+00    3.510548e+00
  4.433441e+00    3.521943e+00
  4.449317e+00    3.553595e+00
  4.465193e+00    3.648698e+00
  4.481068e+00    3.620447e+00
  4.496944e+00    3.607161e+00
  4.512819e+00    3.679904e+00
  4.528695e+00    3.666673e+00
  4.544570e+00    3.617310e+00
  4.560446e+00    3.679414e+00
  4.576322e+00    3.618577e+00
  4.592197e+00    3.552697e+00
  4.608073e+00    3.563599e+00
  4.623948e+00    3.611523e+00
  4.639824e+00    3.597077e+00
  4.655699e+00    3.539637e+00
  4.671575e+00    3.628353e+00
  4.687451e+00    3.645450e+00
  4.703326e+00    3.745861e+00
  4.719202e+00    3.697778e+00
  4.735077e+00    3.614570e+00
  4.750953e+00    3.671960e+00
  4.766828e+00    3.690431e+00
  4.782704e+00    3.570002e+00
  4.798580e+00    3.633871e+00
  4.814455e+00    3.580287e+00
  4.830331e+00    3.594598e+00
  4.846206e+00    3.736432e+00
  4.862082e+00    3.629048e+00
  4.877957e+00    3.630220e+00
  4.893833e+00    3.643679e+00
  4.909709e+00    3.633591e+00
  4.925584e+00    3.663710e+00
  4.941460e+00    3.658643e+00
  4.957335e+00    3.655041e+00
  4.973211e+00    3.575790e+00
  4.989086e+00    3.629184e+00
  5.004962e+00    3.631155e+00
  5.020838e+00    3.633319e+00
  5.036713e+00    3.698382e+00
  5.052589e+00    3.701504e+00
  5.068464e+00    3.634047e+00
  5.084340e+00    3.616464e+00
  5.100216e+00    3.645981e+00
  5.116091e+00    3.704065e+00
  5.131967e+00    3.749698e+00
  5.147842e+00    3.798318e+00
  5.163718e+00    3.691773e+00
  5.179593e+00    3.614413e+00
  5.195469e+00    3.662905e+00
  5.211345e+00    3.638532e+00
  5.227220e+00    3.665718e+00
  5.243096e+00    3.690031e+00
  5.258971e+00    3.670944e+00
  5.274847e+00    3.682929e+00
  5.290722e+00    3.689528e+00
  5.306598e+00    3.698453e+00
  5.322474e+00    3.660370e+00
  5.338349e+00    3.738974e+00
  5.354225e+00    3.619467e+00
  5.370100e+00    3.643809e+00
  5.385976e+00    3.637114e+00
  5.401851e+00    3.688474e+00
  5.417727e+00    3.695725e+00
  5.433603e+00    3.597249e+00
  5.449478e+00    3.576735e+00
  5.465354e+00    3.674452e+00
  5.481229e+00    3.549704e+00
  5.497105e+00    3.488214e+00
  5.512980e+00    3.639134e+00
  5.528856e+00    3.643087e+00
  5.544732e+00    3.547712e+00
  5.560607e+00    3.503743e+00
  5.576483e+00    3.528134e+00
  5.592358e+00    3.679673e+00
  5.608234e+00    3.742567e+00
  5.624109e+00    3.675459e+00
  5.639985e+00    3.664266e+00
  5.655861e+00    3.611886e+00
  5.671736e+00    3.543239e+00
  5.687612e+00    3.554461e+00
  5.703487e+00    3.547913e+00
  5.719363e+00    3.572867e+00
  5.735238e+00    3.552863e+00
  5.751114e+00    3.566097e+00
  5.766990e+00    3.556875e+00
  5.782865e+00    3.551064e+00
  5.798741e+00    3.618471e+00
  5.814616e+00    3.627928e+00
  5.830492e+00    3.522530e+00
  5.846367e+00    3.527949e+00
  5.862243e+00    3.498568e+00
  5.878119e+00    3.483560e+00
  5.893994e+00    3.500795e+00
  5.909870e+00    3.516636e+00
  5.925745e+00    3.575156e+00
  5.941621e+00    3.595996e+00
  5.957497e+00    3.618411e+00
  5.973372e+00    3.604785e+00
  5.989248e+00    3.581404e+00
  6.005123e+00    3.524666e+00
  6.020999e+00    3.472185e+00
  6.036874e+00    3.515712e+00
  6.052750e+00    3.554171e+00
  6.068626e+00    3.611215e+00
  6.084501e+00    3.674080e+00
  6.100377e+00    3.688928e+00
  6.116252e+00    3.668583e+00
  6.132128e+00    3.558065e+00
  6.148003e+00    3.540840e+00
  6.163879e+00    3.584470e+00
  6.179755e+00    3.633329e+00
  6.195630e+00    3.590629e+00
  6.211506e+00    3.627649e+00
  6.227381e+00    3.672967e+00
  6.243257e+00    3.572065e+00
  6.259132e+00    3.572988e+00
  6.275008e+00    3.575161e+00
  6.290884e+00    3.586128e+00
  6.306759e+00    3.631480e+00
  6.322635e+00    3.605425e+00
  6.338510e+00    3.543987e+00
  6.354386e+00    3.545744e+00
  6.370261e+00    3.550505e+00
  6.386137e+00    3.597639e+00
  6.402013e+00    3.565331e+00
  6.417888e+00    3.553592e+00
  6.433764e+00    3.453328e+00
  6.449639e+00    3.524744e+00
  6.465515e+00    3.619559e+00
  6.481390e+00    3.533453e+00
  6.497266e+00    3.479926e+00
  6.513142e+00    3.467200e+00
  6.529017e+00    3.463276e+00
  6.544893e+00    3.535000e+00
  6.560768e+00    3.601946e+00
  6.576644e+00    3.527904e+00
  6.592519e+00    3.494224e+00
  6.608395e+00    3.584780e+00
  6.624271e+00    3.517610e+00
  6.640146e+00    3.454658e+00
  6.656022e+00    3.540834e+00
  6.671897e+00    3.557998e+00
  6.687773e+00    3.604742e+00
  6.703648e+00    3.626014e+00
  6.719524e+00    3.538497e+00
  6.735400e+00    3.523672e+00
  6.751275e+00    3.496640e+00
  6.767151e+00    3.612384e+00
  6.783026e+00    3.544045e+00
  6.798902e+00    3.525678e+00
  6.814777e+00    3.539310e+00
  6.830653e+00    3.527686e+00
  6.846529e+00    3.572291e+00
  6.862404e+00    3.481550e+00
  6.878280e+00    3.517350e+00
  6.894155e+00    3.554851e+00
  6.910031e+00    3.575337e+00
  6.925907e+00    3.533823e+00
  6.941782e+00    3.454256e+00
  6.957658e+00    3.520888e+00
  6.973533e+00    3.631434e+00
  6.989409e+00    3.544547e+00
  7.005284e+00    3.523604e+00
  7.021160e+00    3.500825e+00
  7.037036e+00    3.437223e+00
  7.052911e+00    3.487183e+00
  7.068787e+00    3.605513e+00
  7.084662e+00    3.482150e+00
  7.100538e+00    3.529655e+00
  7.116413e+00    3.526542e+00
  7.132289e+00    3.513400e+00
  7.148165e+00    3.543196e+00
  7.164040e+00    3.558515e+00
  7.179916e+00    3.473441e+00
  7.195791e+00    3.512999e+00
  7.211667e+00    3.525734e+00
  7.227542e+00    3.540486e+00
  7.243418e+00    3.534738e+00
  7.259294e+00    3.544393e+00
  7.275169e+00    3.564469e+00
  7.291045e+00    3.540806e+00
  7.306920e+00    3.557801e+00
  7.322796e+00    3.563275e+00
  7.338671e+00    3.510761e+00
  7.354547e+00    3.485480e+00
  7.370423e+00    3.489904e+00
  7.386298e+00    3.521035e+00
  7.402174e+00    3.504570e+00
  7.418049e+00    3.496775e+00
  7.433925e+00    3.559267e+00
  7.449800e+00    3.547343e+00
  7.465676e+00    3.474108e+00
  7.481552e+00    3.467798e+00
  7.497427e+00    3.505285e+00
  7.513303e+00    3.448234e+00
  7.529178e+00    3.463940e+00
  7.545054e+00    3.486345e+00
  7.560929e+00    3.515224e+00
  7.576805e+00    3.507069e+00
  7.592681e+00    3.518873e+00
  7.608556e+00    3.504342e+00
  7.624432e+00    3.435083e+00
  7.640307e+00    3.489696e+00
  7.656183e+00    3.436174e+00
  7.672058e+00    3.434981e+00
  7.687934e+00    3.493340e+00
  7.703810e+00    3.412391e+00
  7.719685e+00    3.450120e+00
  7.735561e+00    3.519115e+00
  7.751436e+00    3.465810e+00
  7.767312e+00    3.429253e+00
  7.783187e+00    3.467663e+00
  7.799063e+00    3.500674e+00
  7.814939e+00    3.531729e+00
  7.830814e+00    3.468328e+00
  7.846690e+00    3.436069e+00
  7.862565e+00    3.447689e+00
  7.878441e+00    3.478333e+00
  7.894317e+00    3.393996e+00
  7.910192e+00    3.421604e+00
  7.926068e+00    3.460189e+00
  7.941943e+00    3.412036e+00
  7.957819e+00    3.468794e+00
  7.973694e+00    3.495486e+00
  7.989570e+00    3.453772e+00
  8.005446e+00    3.369085e+00
  8.021321e+00    3.375277e+00
  8.037197e+00    3.383971e+00
  8.053072e+00    3.365098e+00
  8.068948e+00    3.397159e+00
  8.084823e+00    3.394070e+00
  8.100699e+00    3.485652e+00
  8.116575e+00    3.448367e+00
  8.132450e+00    3.426143e+00
  8.148326e+00    3.460644e+00
  8.164201e+00    3.486161e+00
  8.180077e+00    3.511863e+00
  8.195952e+00    3.533394e+00
  8.211828e+00    3.537146e+00
  8.227704e+00    3.479770e+00
  8.243579e+00    3.464319e+00
  8.259455e+00    3.393150e+00
  8.275330e+00    3.366848e+00
  8.291206e+00    3.400485e+00
  8.307081e+00    3.389574e+00
  8.322957e+00    3.351160e+00
  8.338833e+00    3.368787e+00
  8.354708e+00    3.380726e+00
  8.370584e+00    3.355540e+00
  8.386459e+00    3.391166e+00
  8.402335e+00    3.391100e+00
  8.418210e+00    3.334559e+00
  8.434086e+00    3.325019e+00
  8.449962e+00    3.410373e+00
  8.465837e+00    3.392646e+00
  8.481713e+00    3.359544e+00
  8.497588e+00    3.374394e+00
  8.513464e+00    3.295907e+00
  8.529339e+00    3.338477e+00
  8.545215e+00    3.365404e+00
  8.561091e+00    3.409052e+00
  8.576966e+00    3.357401e+00
  8.592842e+00    3.417349e+00
  8.608717e+00    3.366765e+00
  8.624593e+00    3.267095e+00
  8.640468e+00    3.302215e+00
  8.656344e+00    3.252406e+00
  8.672220e+00    3.289414e+00
  8.688095e+00    3.354462e+00
  8.703971e+00    3.389736e+00
  8.719846e+00    3.323815e+00
  8.735722e+00    3.301301e+00
  8.751598e+00    3.324152e+00
  8.767473e+00    3.326821e+00
  8.783349e+00    3.370350e+00
  8.799224e+00    3.345922e+00
  8.815100e+00    3.289492e+00
  8.830975e+00    3.334646e+00
  8.846851e+00    3.312543e+00
  8.862727e+00    3.284141e+00
  8.878602e+00    3.299490e+00
  8.894478e+00    3.346596e+00
  8.910353e+00    3.315530e+00
  8.926229e+00    3.229391e+00
  8.942104e+00    3.246730e+00
  8.957980e+00    3.290291e+00
  8.973856e+00    3.273311e+00
  8.989731e+00    3.307952e+00
  9.005607e+00    3.334254e+00
  9.021482e+00    3.317354e+00
  9.037358e+00    3.271918e+00
  9.053233e+00    3.264300e+00
  9.069109e+00    3.326247e+00
  9.084985e+00    3.333587e+00
  9.100860e+00    3.284988e+00
  9.116736e+00    3.251904e+00
  9.132611e+00    3.266612e+00
  9.148487e+00    3.258461e+00
  9.164362e+00    3.220146e+00
  9.180238e+00    3.248809e+00
  9.196114e+00    3.249875e+00
  9.211989e+00    3.294799e+00
  9.227865e+00    3.329186e+00
  9.243740e+00    3.270862e+00
  9.259616e+00    3.218185e+00
  9.275491e+00    3.220585e+00
  9.291367e+00    3.211331e+00
  9.307243e+00    3.223624e+00
  9.323118e+00    3.211894e+00
  9.338994e+00    3.242978e+00
  9.354869e+00    3.216222e+00
  9.370745e+00    3.207761e+00
  9.386620e+00    3.210793e+00
  9.402496e+00    3.254863e+00
  9.418372e+00    3.225158e+00
  9.434247e+00    3.239757e+00
  9.450123e+00    3.180073e+00
  9.465998e+00    3.206517e+00
  9.481874e+00    3.235898e+00
  9.497749e+00    3.247026e+00
  9.513625e+00    3.200189e+00
  9.529501e+00    3.148435e+00
  9.545376e+00    3.209504e+00
  9.561252e+00    3.190022e+00
  9.577127e+00    3.153340e+00
  9.593003e+00    3.186573e+00
  9.608878e+00    3.191487e+00
  9.624754e+00    3.148825e+00
  9.640630e+00    3.209627e+00
  9.656505e+00    3.195591e+00
  9.672381e+00    3.138385e+00
  9.688256e+00    3.192286e+00
  9.704132e+00    3.202368e+00
  9.720008e+00    3.183062e+00
  9.735883e+00    3.199224e+00
  9.751759e+00    3.203908e+00
  9.767634e+00    3.181991e+00
  9.783510e+00    3.191945e+00
  9.799385e+00    3.130820e+00
  9.815261e+00    3.125112e+00
  9.831137e+00    3.166783e+00
  9.847012e+00    3.144918e+00
  9.862888e+00    3.101604e+00
  9.878763e+00    3.130892e+00
  9.894639e+00    3.091992e+00
  9.910514e+00    3.124964e+00
  9.926390e+00    3.111425e+00
  9.942266e+00    3.150540e+00
  9.958141e+00    3.189271e+00
  9.974017e+00    3.184950e+00
  9.989892e+00    3.187535e+00
  1.000577e+01    3.183682e+00
  1.002164e+01    3.113257e+00
  1.003752e+01    3.123683e+00
  1.005339e+01    3.121649e+00
  1.006927e+01    3.099103e+00
  1.008515e+01    3.159652e+00
  1.010102e+01    3.108030e+00
  1.011690e+01    3.058005e+00
  1.013277e+01    3.138269e+00
  1.014865e+01    3.093041e+00
  1.016452e+01    3.069166e+00
  1.018040e+01    3.111427e+00
  1.019627e+01    3.080277e+00
  1.021215e+01    3.102450e+00
  1.022803e+01    3.051503e+00
  1.024390e+01    3.052490e+00
  1.025978e+01    3.100396e+00
  1.027565e+01    3.121696e+00
  1.029153e+01    3.050101e+00
  1.030740e+01    3.101272e+00
  1.032328e+01    3.076852e+00
  1.033915e+01    3.098201e+00
  1.035503e+01    3.027092e+00
  1.037091e+01    3.012374e+00
  1.038678e+01    3.059377e+00
  1.040266e+01    3.055347e+00
  1.041853e+01    3.053716e+00
  1.043441e+01    3.040881e+00
  1.045028e+01    3.057686e+00
  1.046616e+01    2.998516e+00
  1.048204e+01    3.003555e+00
  1.049791e+01    3.061608e+00
  1.051379e+01    3.063727e+00
  1.052966e+01    3.015552e+00
  1.054554e+01    2.963511e+00
  1.056141e+01    2.978057e+00
  1.057729e+01    2.981979e+00
  1.059316e+01    2.968719e+00
  1.060904e+01    2.968147e+00
  1.062492e+01    2.955585e+00
  1.064079e+01    3.012925e+00
  1.065667e+01    2.981528e+00
  1.067254e+01    2.942449e+00
  1.068842e+01    2.997988e+00
  1.070429e+01    2.962036e+00
  1.072017e+01    2.953429e+00
  1.073604e+01    2.907303e+00
  1.075192e+01    2.924126e+00
  1.076780e+01    2.966066e+00
  1.078367e+01    2.992611e+00
  1.079955e+01    2.955313e+00
  1.081542e+01    2.969155e+00
  1.083130e+01    3.007150e+00
  1.084717e+01    2.931743e+00
  1.086305e+01    2.931919e+00
  1.087892e+01    2.997145e+00
  1.089480e+01    2.991094e+00
  1.091068e+01    2.957984e+00
  1.092655e+01    2.959362e+00
  1.094243e+01    2.873088e+00
  1.095830e+01    2.862262e+00
  1.097418e+01    2.857325e+00
  1.099005e+01    2.878405e+00
  1.100593e+01    2.889803e+00
  1.102180e+01    2.887133e+00
  1.103768e+01    2.868248e+00
  1.105356e+01    2.922124e+00
  1.106943e+01    2.908372e+00
  1.108531e+01    2.890901e+00
  1.110118e+01    2.878873e+00
  1.111706e+01    2.855918e+00
  1.113293e+01    2.876553e+00
  1.114881e+01    2.877510e+00
  1.116468e+01    2.843690e+00
  1.118056e+01    2.832567e+00
  1.119644e+01    2.860195e+00
  1.121231e+01    2.851910e+00
  1.122819e+01    2.867474e+00
  1.124406e+01    2.906046e+00
  1.125994e+01    2.909639e+00
  1.127581e+01    2.825932e+00
  1.129169e+01    2.771204e+00
  1.130756e+01    2.833382e+00
  1.132344e+01    2.847994e+00
  1.133932e+01    2.845608e+00
  1.135519e+01    2.851972e+00
  1.137107e+01    2.836660e+00
  1.138694e+01    2.842939e+00
  1.140282e+01    2.828079e+00
  1.141869e+01    2.849002e+00
  1.143457e+01    2.816170e+00
  1.145045e+01    2.835489e+00
  1.146632e+01    2.835109e+00
  1.148220e+01    2.844129e+00
  1.149807e+01    2.797544e+00
  1.151395e+01    2.780715e+00
  1.152982e+01    2.823955e+00
  1.154570e+01    2.781193e+00
  1.156157e+01    2.785197e+00
  1.157745e+01    2.796207e+00
  1.159333e+01    2.756126e+00
  1.160920e+01    2.787505e+00
  1.162508e+01    2.780770e+00
  1.164095e+01    2.800692e+00
  1.165683e+01    2.815636e+00
  1.167270e+01    2.780039e+00
  1.168858e+01    2.756821e+00
  1.170445e+01    2.754868e+00
  1.172033e+01    2.777774e+00
  1.173621e+01    2.747780e+00
  1.175208e+01    2.758323e+00
  1.176796e+01    2.775519e+00
  1.178383e+01    2.738389e+00
  1.179971e+01    2.746929e+00
  1.181558e+01    2.748253e+00
  1.183146e+01    2.711738e+00
  1.184733e+01    2.752403e+00
  1.186321e+01    2.778214e+00
  1.187909e+01    2.704489e+00
  1.189496e+01    2.691287e+00
  1.191084e+01    2.748615e+00
  1.192671e+01    2.741185e+00
  1.194259e+01    2.755027e+00
  1.195846e+01    2.729715e+00
  1.197434e+01    2.691809e+00
  1.199021e+01    2.688955e+00
  1.200609e+01    2.676435e+00
  1.202197e+01    2.693965e+00
  1.203784e+01    2.676864e+00
  1.205372e+01    2.704253e+00
  1.206959e+01    2.730834e+00
  1.208547e+01    2.722788e+00
  1.210134e+01    2.733196e+00
  1.211722e+01    2.680393e+00
  1.213309e+01    2.666111e+00
  1.214897e+01    2.714107e+00
  1.216485e+01    2.727737e+00
  1.218072e+01    2.737096e+00
  1.219660e+01    2.705338e+00
  1.221247e+01    2.659601e+00
  1.222835e+01    2.703961e+00
  1.224422e+01    2.707341e+00
  1.226010e+01    2.730252e+00
  1.227597e+01    2.703217e+00
  1.229185e+01    2.694878e+00
  1.230773e+01    2.699363e+00
  1.232360e+01    2.675023e+00
  1.233948e+01    2.697583e+00
  1.235535e+01    2.682765e+00
  1.237123e+01    2.676016e+00
  1.238710e+01    2.638171e+00
  1.240298e+01    2.659404e+00
  1.241886e+01    2.696402e+00
  1.243473e+01    2.699084e+00
  1.245061e+01    2.678216e+00
  1.246648e+01    2.714156e+00
  1.248236e+01    2.758021e+00
  1.249823e+01    2.712314e+00
  1.251411e+01    2.733216e+00
  1.252998e+01    2.713067e+00
  1.254586e+01    2.724442e+00
  1.256174e+01    2.729959e+00
  1.257761e+01    2.711163e+00
  1.259349e+01    2.737737e+00
  1.260936e+01    2.750484e+00
  1.262524e+01    2.762084e+00
  1.264111e+01    2.774923e+00
  1.265699e+01    2.776900e+00
  1.267286e+01    2.788365e+00
  1.268874e+01    2.840845e+00
  1.270462e+01    2.847614e+00
  1.272049e+01    2.883588e+00
  1.273637e+01    2.880482e+00
  1.275224e+01    2.901365e+00
  1.276812e+01    2.976226e+00
  1.278399e+01    3.006202e+00
  1.279987e+01    2.996472e+00
  1.281574e+01    3.015094e+00
  1.283162e+01    3.084270e+00
  1.284750e+01    3.215030e+00
  1.286337e+01    3.330498e+00
  1.287925e+01    3.396263e+00
  1.289512e+01    3.506300e+00
  1.291100e+01    3.639835e+00
  1.292687e+01    3.812543e+00
  1.294275e+01    4.093521e+00
  1.295862e+01    4.441250e+00
  1.297450e+01    4.802143e+00
  1.299038e+01    5.347977e+00
  1.300625e+01    5.906411e+00
  1.302213e+01    6.735810e+00
  1.303800e+01    7.821524e+00
  1.305388e+01    9.026687e+00
  1.306975e+01    1.038111e+01
  1.308563e+01    1.161377e+01
  1.310150e+01    1.285496e+01
  1.311738e+01    1.389118e+01
  1.313326e+01    1.497873e+01
  1.314913e+01    1.582977e+01
  1.316501e+01    1.636713e+01
  1.318088e+01    1.633900e+01
  1.319676e+01    1.566696e+01
  1.321263e+01    1.431153e+01
  1.322851e+01    1.244396e+01
  1.324438e+01    1.058688e+01
  1.326026e+01    9.014060e+00
  1.327614e+01    7.746727e+00
  1.329201e+01    6.694844e+00
  1.330789e+01    5.940889e+00
  1.332376e+01    5.341359e+00
  1.333964e+01    4.766588e+00
  1.335551e+01    4.405197e+00
  1.337139e+01    4.149013e+00
  1.338727e+01    3.857859e+00
  1.340314e+01    3.639800e+00
  1.341902e+01    3.505312e+00
  1.343489e+01    3.340622e+00
  1.345077e+01    3.202351e+00
  1.346664e+01    3.135403e+00
  1.348252e+01    3.065325e+00
  1.349839e+01    2.951388e+00
  1.351427e+01    2.955557e+00
  1.353015e+01    2.880866e+00
  1.354602e+01    2.813703e+00
  1.356190e+01    2.742790e+00
  1.357777e+01    2.728635e+00
  1.359365e+01    2.728651e+00
  1.360952e+01    2.700358e+00
  1.362540e+01    2.642286e+00
  1.364127e+01    2.651032e+00
  1.365715e+01    2.598896e+00
  1.367303e+01    2.622228e+00
  1.368890e+01    2.615327e+00
  1.370478e+01    2.553241e+00
  1.372065e+01    2.503491e+00
  1.373653e+01    2.456417e+00
  1.375240e+01    2.492153e+00
  1.376828e+01    2.454150e+00
  1.378415e+01    2.433239e+00
  1.380003e+01    2.473388e+00
  1.381591e+01    2.464480e+00
  1.383178e+01    2.434787e+00
  1.384766e+01    2.458541e+00
  1.386353e+01    2.454976e+00
  1.387941e+01    2.416993e+00
  1.389528e+01    2.380475e+00
  1.391116e+01    2.377289e+00
  1.392703e+01    2.386266e+00
  1.394291e+01    2.397876e+00
  1.395879e+01    2.392407e+00
  1.397466e+01    2.420226e+00
  1.399054e+01    2.352755e+00
  1.400641e+01    2.330936e+00
  1.402229e+01    2.318949e+00
  1.403816e+01    2.338169e+00
  1.405404e+01    2.355369e+00
  1.406991e+01    2.327883e+00
  1.408579e+01    2.297268e+00
  1.410167e+01    2.322872e+00
  1.411754e+01    2.346030e+00
  1.413342e+01    2.310166e+00
  1.414929e+01    2.314815e+00
  1.416517e+01    2.349988e+00
  1.418104e+01    2.332167e+00
  1.419692e+01    2.280609e+00
  1.421279e+01    2.288140e+00
  1.422867e+01    2.281667e+00
  1.424455e+01    2.248730e+00
  1.426042e+01    2.279183e+00
  1.427630e+01    2.285064e+00
  1.429217e+01    2.298984e+00
  1.430805e+01    2.271785e+00
  1.432392e+01    2.276807e+00
  1.433980e+01    2.271292e+00
  1.435568e+01    2.255495e+00
  1.437155e+01    2.248659e+00
  1.438743e+01    2.229897e+00
  1.440330e+01    2.243456e+00
  1.441918e+01    2.285302e+00
  1.443505e+01    2.248241e+00
  1.445093e+01    2.222980e+00
  1.446680e+01    2.221814e+00
  1.448268e+01    2.230625e+00
  1.449856e+01    2.219238e+00
  1.451443e+01    2.202461e+00
  1.453031e+01    2.222850e+00
  1.454618e+01    2.217609e+00
  1.456206e+01    2.201172e+00
  1.457793e+01    2.185896e+00
  1.459381e+01    2.237419e+00
  1.460968e+01    2.225173e+00
  1.462556e+01    2.251805e+00
  1.464144e+01    2.228814e+00
  1.465731e+01    2.233371e+00
  1.467319e+01    2.230067e+00
  1.468906e+01    2.210991e+00
  1.470494e+01    2.188900e+00
  1.472081e+01    2.204448e+00
  1.473669e+01    2.171984e+00
  1.475256e+01    2.158787e+00
  1.476844e+01    2.193094e+00
  1.478432e+01    2.226305e+00
  1.480019e+01    2.257977e+00
  1.481607e+01    2.198826e+00
  1.483194e+01    2.193610e+00
  1.484782e+01    2.215671e+00
  1.486369e+01    2.221702e+00
  1.487957e+01    2.175359e+00
  1.489544e+01    2.220169e+00
  1.491132e+01    2.307513e+00
  1.492720e+01    2.286215e+00
  1.494307e+01    2.303676e+00
  1.495895e+01    2.347775e+00
  1.497482e+01    2.349458e+00
  1.499070e+01    2.381576e+00
  1.500657e+01    2.409370e+00
  1.502245e+01    2.521902e+00
  1.503832e+01    2.621338e+00
  1.505420e+01    2.724868e+00
  1.507008e+01    2.783871e+00
  1.508595e+01    2.971847e+00
  1.510183e+01    3.192718e+00
  1.511770e+01    3.471023e+00
  1.513358e+01    3.862351e+00
  1.514945e+01    4.187288e+00
  1.516533e+01    4.571354e+00
  1.518120e+01    4.906187e+00
  1.519708e+01    5.156102e+00
  1.521296e+01    5.317518e+00
  1.522883e+01    5.597182e+00
  1.524471e+01    5.829694e+00
  1.526058e+01    5.852962e+00
  1.527646e+01    5.733525e+00
  1.529233e+01    5.471844e+00
  1.530821e+01    5.060843e+00
  1.532409e+01    4.646359e+00
  1.533996e+01    4.211743e+00
  1.535584e+01    3.789972e+00
  1.537171e+01    3.379977e+00
  1.538759e+01    3.139956e+00
  1.540346e+01    2.974846e+00
  1.541934e+01    2.744945e+00
  1.543521e+01    2.626573e+00
  1.545109e+01    2.504241e+00
  1.546697e+01    2.401114e+00
  1.548284e+01    2.351849e+00
  1.549872e+01    2.331249e+00
  1.551459e+01    2.251166e+00
  1.553047e+01    2.173657e+00
  1.554634e+01    2.181271e+00
  1.556222e+01    2.113377e+00
  1.557809e+01    2.116260e+00
  1.559397e+01    2.080511e+00
  1.560985e+01    2.089679e+00
  1.562572e+01    2.045269e+00
  1.564160e+01    2.055458e+00
  1.565747e+01    2.035581e+00
  1.567335e+01    2.024091e+00
  1.568922e+01    2.043401e+00
  1.570510e+01    2.021414e+00
  1.572097e+01    1.965351e+00
  1.573685e+01    1.967636e+00
  1.575273e+01    1.974305e+00
  1.576860e+01    1.989106e+00
  1.578448e+01    1.952686e+00
  1.580035e+01    1.927452e+00
  1.581623e+01    1.942394e+00
  1.583210e+01    1.952272e+00
  1.584798e+01    1.947808e+00
  1.586385e+01    1.910282e+00
  1.587973e+01    1.938240e+00
  1.589561e+01    1.934291e+00
  1.591148e+01    1.865871e+00
  1.592736e+01    1.875569e+00
  1.594323e+01    1.891429e+00
  1.595911e+01    1.913310e+00
  1.597498e+01    1.915741e+00
  1.599086e+01    1.884414e+00
  1.600673e+01    1.866419e+00
  1.602261e+01    1.870801e+00
  1.603849e+01    1.846224e+00
  1.605436e+01    1.876999e+00
  1.607024e+01    1.859830e+00
  1.608611e+01    1.855865e+00
  1.610199e+01    1.861553e+00
  1.611786e+01    1.858860e+00
  1.613374e+01    1.882480e+00
  1.614961e+01    1.876978e+00
  1.616549e+01    1.882629e+00
  1.618137e+01    1.818989e+00
  1.619724e+01    1.798838e+00
  1.621312e+01    1.795939e+00
  1.622899e+01    1.787681e+00
  1.624487e+01    1.772210e+00
  1.626074e+01    1.794074e+00
  1.627662e+01    1.811209e+00
  1.629250e+01    1.799818e+00
  1.630837e+01    1.791720e+00
  1.632425e+01    1.784073e+00
  1.634012e+01    1.808663e+00
  1.635600e+01    1.871927e+00
  1.637187e+01    1.866673e+00
  1.638775e+01    1.791560e+00
  1.640362e+01    1.804780e+00
  1.641950e+01    1.762108e+00
  1.643538e+01    1.781170e+00
  1.645125e+01    1.762136e+00
  1.646713e+01    1.754950e+00
  1.648300e+01    1.773049e+00
  1.649888e+01    1.767670e+00
  1.651475e+01    1.787440e+00
  1.653063e+01    1.755542e+00
  1.654650e+01    1.732450e+00
  1.656238e+01    1.730525e+00
  1.657826e+01    1.757230e+00
  1.659413e+01    1.769101e+00
  1.661001e+01    1.722722e+00
  1.662588e+01    1.718251e+00
  1.664176e+01    1.702702e+00
  1.665763e+01    1.729197e+00
  1.667351e+01    1.760297e+00
  1.668938e+01    1.761573e+00
  1.670526e+01    1.730582e+00
  1.672114e+01    1.715541e+00
  1.673701e+01    1.737349e+00
  1.675289e+01    1.741246e+00
  1.676876e+01    1.738993e+00
  1.678464e+01    1.727668e+00
  1.680051e+01    1.727020e+00
  1.681639e+01    1.700572e+00
  1.683226e+01    1.717216e+00
  1.684814e+01    1.684070e+00
  1.686402e+01    1.710302e+00
  1.687989e+01    1.689721e+00
  1.689577e+01    1.704496e+00
  1.691164e+01    1.691875e+00
  1.692752e+01    1.685497e+00
  1.694339e+01    1.696903e+00
  1.695927e+01    1.683067e+00
  1.697514e+01    1.650678e+00
  1.699102e+01    1.624634e+00
  1.700690e+01    1.631086e+00
  1.702277e+01    1.650939e+00
  1.703865e+01    1.673827e+00
  1.705452e+01    1.673337e+00
  1.707040e+01    1.633205e+00
  1.708627e+01    1.654611e+00
  1.710215e+01    1.646250e+00
  1.711802e+01    1.621343e+00
  1.713390e+01    1.637711e+00
  1.714978e+01    1.668359e+00
  1.716565e+01    1.624850e+00
  1.718153e+01    1.608520e+00
  1.719740e+01    1.612992e+00
  1.721328e+01    1.593345e+00
  1.722915e+01    1.624612e+00
  1.724503e+01    1.634397e+00
  1.726091e+01    1.620094e+00
  1.727678e+01    1.639303e+00
  1.729266e+01    1.636475e+00
  1.730853e+01    1.644895e+00
  1.732441e+01    1.621559e+00
  1.734028e+01    1.597818e+00
  1.735616e+01    1.585657e+00
  1.737203e+01    1.596166e+00
  1.738791e+01    1.607472e+00
  1.740379e+01    1.606503e+00
  1.741966e+01    1.614265e+00
  1.743554e+01    1.600125e+00
  1.745141e+01    1.600700e+00
  1.746729e+01    1.616860e+00
  1.748316e+01    1.613175e+00
  1.749904e+01    1.600137e+00
  1.751491e+01    1.605655e+00
  1.753079e+01    1.590101e+00
  1.754667e+01    1.587458e+00
  1.756254e+01    1.609872e+00
  1.757842e+01    1.572644e+00
  1.759429e+01    1.567258e+00
  1.761017e+01    1.603024e+00
  1.762604e+01    1.608389e+00
  1.764192e+01    1.595431e+00
  1.765779e+01    1.579474e+00
  1.767367e+01    1.579199e+00
  1.768955e+01    1.572033e+00
  1.770542e+01    1.547537e+00
  1.772130e+01    1.566496e+00
  1.773717e+01    1.563925e+00
  1.775305e+01    1.572473e+00
  1.776892e+01    1.549475e+00
  1.778480e+01    1.544684e+00
  1.780067e+01    1.525523e+00
  1.781655e+01    1.545544e+00
  1.783243e+01    1.528950e+00
  1.784830e+01    1.519877e+00
  1.786418e+01    1.529879e+00
  1.788005e+01    1.553509e+00
  1.789593e+01    1.538054e+00
  1.791180e+01    1.555088e+00
  1.792768e+01    1.525534e+00
  1.794355e+01    1.509030e+00
  1.795943e+01    1.505308e+00
  1.797531e+01    1.515329e+00
  1.799118e+01    1.512503e+00
  1.800706e+01    1.520578e+00
  1.802293e+01    1.490119e+00
  1.803881e+01    1.507042e+00
  1.805468e+01    1.537188e+00
  1.807056e+01    1.511507e+00
  1.808643e+01    1.490951e+00
  1.810231e+01    1.496518e+00
  1.811819e+01    1.490749e+00
  1.813406e+01    1.484250e+00
  1.814994e+01    1.483113e+00
  1.816581e+01    1.510796e+00
  1.818169e+01    1.499465e+00
  1.819756e+01    1.483572e+00
  1.821344e+01    1.463145e+00
  1.822932e+01    1.473041e+00
  1.824519e+01    1.460915e+00
  1.826107e+01    1.482061e+00
  1.827694e+01    1.490185e+00
  1.829282e+01    1.490629e+00
  1.830869e+01    1.503202e+00
  1.832457e+01    1.485406e+00
  1.834044e+01    1.468638e+00
  1.835632e+01    1.446953e+00
  1.837220e+01    1.473204e+00
  1.838807e+01    1.497557e+00
  1.840395e+01    1.469684e+00
  1.841982e+01    1.430338e+00
  1.843570e+01    1.434731e+00
  1.845157e+01    1.444951e+00
  1.846745e+01    1.433598e+00
  1.848332e+01    1.412745e+00
  1.849920e+01    1.418090e+00
  1.851508e+01    1.435640e+00
  1.853095e+01    1.447508e+00
  1.854683e+01    1.449208e+00
  1.856270e+01    1.459651e+00
  1.857858e+01    1.452640e+00
  1.859445e+01    1.452159e+00
  1.861033e+01    1.414575e+00
  1.862620e+01    1.454235e+00
  1.864208e+01    1.460679e+00
  1.865796e+01    1.439601e+00
  1.867383e+01    1.440224e+00
  1.868971e+01    1.430061e+00
  1.870558e+01    1.420465e+00
  1.872146e+01    1.423015e+00
  1.873733e+01    1.414307e+00
  1.875321e+01    1.400974e+00
  1.876908e+01    1.408870e+00
  1.878496e+01    1.419282e+00
  1.880084e+01    1.399365e+00
  1.881671e+01    1.417246e+00
  1.883259e+01    1.418748e+00
  1.884846e+01    1.399506e+00
  1.886434e+01    1.396395e+00
  1.888021e+01    1.424994e+00
  1.889609e+01    1.417463e+00
  1.891196e+01    1.362456e+00
  1.892784e+01    1.365949e+00
  1.894372e+01    1.369923e+00
  1.895959e+01    1.384470e+00
  1.897547e+01    1.393113e+00
  1.899134e+01    1.378351e+00
  1.900722e+01    1.366134e+00
  1.902309e+01    1.382516e+00
  1.903897e+01    1.374653e+00
  1.905484e+01    1.384823e+00
  1.907072e+01    1.379793e+00
  1.908660e+01    1.357923e+00
  1.910247e+01    1.376679e+00
  1.911835e+01    1.380570e+00
  1.913422e+01    1.384053e+00
  1.915010e+01    1.407087e+00
  1.916597e+01    1.364153e+00
  1.918185e+01    1.355587e+00
  1.919773e+01    1.365591e+00
  1.921360e+01    1.379425e+00
  1.922948e+01    1.379622e+00
  1.924535e+01    1.379806e+00
  1.926123e+01    1.351808e+00
  1.927710e+01    1.344278e+00
  1.929298e+01    1.353552e+00
  1.930885e+01    1.353543e+00
  1.932473e+01    1.351423e+00
  1.934061e+01    1.349259e+00
  1.935648e+01    1.340791e+00
  1.937236e+01    1.340070e+00
  1.938823e+01    1.340620e+00
  1.940411e+01    1.339444e+00
  1.941998e+01    1.343299e+00
  1.943586e+01    1.343802e+00
  1.945173e+01    1.346377e+00
  1.946761e+01    1.331987e+00
  1.948349e+01    1.352441e+00
  1.949936e+01    1.358770e+00
  1.951524e+01    1.346830e+00
  1.953111e+01    1.331110e+00
  1.954699e+01    1.315737e+00
  1.956286e+01    1.300575e+00
  1.957874e+01    1.337861e+00
  1.959461e+01    1.331325e+00
  1.961049e+01    1.312025e+00
  1.962637e+01    1.321952e+00
  1.964224e+01    1.330474e+00
  1.965812e+01    1.296443e+00
  1.967399e+01    1.283574e+00
  1.968987e+01    1.335172e+00
  1.970574e+01    1.308318e+00
  1.972162e+01    1.307429e+00
  1.973749e+01    1.315158e+00
  1.975337e+01    1.314440e+00
  1.976925e+01    1.286370e+00
  1.978512e+01    1.290102e+00
  1.980100e+01    1.299698e+00
  1.981687e+01    1.300978e+00
  1.983275e+01    1.292696e+00
  1.984862e+01    1.289864e+00
  1.986450e+01    1.293244e+00
  1.988037e+01    1.316468e+00
  1.989625e+01    1.309346e+00
  1.991213e+01    1.286511e+00
  1.992800e+01    1.285601e+00
  1.994388e+01    1.297801e+00
  1.995975e+01    1.294970e+00
  1.997563e+01    1.309009e+00
  1.999150e+01    1.298523e+00
  2.000738e+01    1.308235e+00
  2.002325e+01    1.285986e+00
  2.003913e+01    1.296661e+00
  2.005501e+01    1.312111e+00
  2.007088e+01    1.289525e+00
  2.008676e+01    1.271284e+00
  2.010263e+01    1.264945e+00
  2.011851e+01    1.275184e+00
  2.013438e+01    1.269210e+00
  2.015026e+01    1.250274e+00
  2.016614e+01    1.267795e+00
  2.018201e+01    1.290356e+00
  2.019789e+01    1.295036e+00
  2.021376e+01    1.258355e+00
  2.022964e+01    1.230314e+00
  2.024551e+01    1.246259e+00
  2.026139e+01    1.266142e+00
  2.027726e+01    1.263580e+00
  2.029314e+01    1.245044e+00
  2.030902e+01    1.238003e+00
  2.032489e+01    1.241970e+00
  2.034077e+01    1.243687e+00
  2.035664e+01    1.258038e+00
  2.037252e+01    1.261501e+00
  2.038839e+01    1.286359e+00
  2.040427e+01    1.277162e+00
  2.042014e+01    1.276054e+00
  2.043602e+01    1.240705e+00
  2.045190e+01    1.254248e+00
  2.046777e+01    1.249245e+00
  2.048365e+01    1.245551e+00
  2.049952e+01    1.268288e+00
  2.051540e+01    1.248647e+00
  2.053127e+01    1.266346e+00
  2.054715e+01    1.254362e+00
  2.056302e+01    1.228719e+00
  2.057890e+01    1.238340e+00
  2.059478e+01    1.224883e+00
  2.061065e+01    1.233562e+00
  2.062653e+01    1.273912e+00
  2.064240e+01    1.240184e+00
  2.065828e+01    1.242721e+00
  2.067415e+01    1.239829e+00
  2.069003e+01    1.235478e+00
  2.070590e+01    1.233695e+00
  2.072178e+01    1.221287e+00
  2.073766e+01    1.240761e+00
  2.075353e+01    1.237038e+00
  2.076941e+01    1.221733e+00
  2.078528e+01    1.227864e+00
  2.080116e+01    1.236502e+00
  2.081703e+01    1.209958e+00
  2.083291e+01    1.221347e+00
  2.084878e+01    1.230120e+00
  2.086466e+01    1.218808e+00
  2.088054e+01    1.218876e+00
  2.089641e+01    1.235440e+00
  2.091229e+01    1.228272e+00
  2.092816e+01    1.230036e+00
  2.094404e+01    1.236408e+00
  2.095991e+01    1.231357e+00
  2.097579e+01    1.219986e+00
  2.099166e+01    1.222675e+00
  2.100754e+01    1.217628e+00
  2.102342e+01    1.245428e+00
  2.103929e+01    1.263375e+00
  2.105517e+01    1.237215e+00
  2.107104e+01    1.226185e+00
  2.108692e+01    1.234950e+00
  2.110279e+01    1.237814e+00
  2.111867e+01    1.232723e+00
  2.113455e+01    1.208388e+00
  2.115042e+01    1.214304e+00
  2.116630e+01    1.216641e+00
  2.118217e+01    1.208591e+00
  2.119805e+01    1.265296e+00
  2.121392e+01    1.277114e+00
  2.122980e+01    1.253978e+00
  2.124567e+01    1.270205e+00
  2.126155e+01    1.263752e+00
  2.127743e+01    1.266067e+00
  2.129330e+01    1.262816e+00
  2.130918e+01    1.264622e+00
  2.132505e+01    1.295560e+00
  2.134093e+01    1.274679e+00
  2.135680e+01    1.260733e+00
  2.137268e+01    1.273503e+00
  2.138855e+01    1.305898e+00
  2.140443e+01    1.325033e+00
  2.142031e+01    1.305881e+00
  2.143618e+01    1.339758e+00
  2.145206e+01    1.345883e+00
  2.146793e+01    1.370593e+00
  2.148381e+01    1.379341e+00
  2.149968e+01    1.411209e+00
  2.151556e+01    1.457780e+00
  2.153143e+01    1.474829e+00
  2.154731e+01    1.535225e+00
  2.156319e+01    1.564000e+00
  2.157906e+01    1.615219e+00
  2.159494e+01    1.699445e+00
  2.161081e+01    1.805633e+00
  2.162669e+01    1.870213e+00
  2.164256e+01    1.966760e+00
  2.165844e+01    2.161070e+00
  2.167431e+01    2.351803e+00
  2.169019e+01    2.560969e+00
  2.170607e+01    2.788558e+00
  2.172194e+01    3.132730e+00
  2.173782e+01    3.608583e+00
  2.175369e+01    4.110095e+00
  2.176957e+01    4.662367e+00
  2.178544e+01    5.286702e+00
  2.180132e+01    5.921006e+00
  2.181719e+01    6.524272e+00
  2.183307e+01    7.238231e+00
  2.184895e+01    7.888109e+00
  2.186482e+01    8.415327e+00
  2.188070e+01    8.807845e+00
  2.189657e+01    8.884003e+00
  2.191245e+01    8.726214e+00
  2.192832e+01    8.151711e+00
  2.194420e+01    7.404696e+00
  2.196007e+01    6.516958e+00
  2.197595e+01    5.621844e+00
  2.199183e+01    4.789180e+00
  2.200770e+01    4.114772e+00
  2.202358e+01    3.572695e+00
  2.203945e+01    3.158706e+00
  2.205533e+01    2.804246e+00
  2.207120e+01    2.538713e+00
  2.208708e+01    2.305422e+00
  2.210296e+01    2.147045e+00
  2.211883e+01    1.980560e+00
  2.213471e+01    1.857588e+00
  2.215058e+01    1.767099e+00
  2.216646e+01    1.697896e+00
  2.218233e+01    1.587956e+00
  2.219821e+01    1.518919e+00
  2.221408e+01    1.497004e+00
  2.222996e+01    1.470815e+00
  2.224584e+01    1.397333e+00
  2.226171e+01    1.400920e+00
  2.227759e+01    1.363320e+00
  2.229346e+01    1.304943e+00
  2.230934e+01    1.305104e+00
  2.232521e+01    1.278067e+00
  2.234109e+01    1.270409e+00
  2.235696e+01    1.252965e+00
  2.237284e+01    1.247020e+00
  2.238872e+01    1.221693e+00
  2.240459e+01    1.210513e+00
  2.242047e+01    1.205595e+00
  2.243634e+01    1.196829e+00
  2.245222e+01    1.190881e+00
  2.246809e+01    1.150550e+00
  2.248397e+01    1.162959e+00
  2.249984e+01    1.150818e+00
  2.251572e+01    1.141661e+00
  2.253160e+01    1.145613e+00
  2.254747e+01    1.123197e+00
  2.256335e+01    1.138286e+00
  2.257922e+01    1.120577e+00
  2.259510e+01    1.109378e+00
  2.261097e+01    1.115572e+00
  2.262685e+01    1.088372e+00
  2.264272e+01    1.085306e+00
  2.265860e+01    1.060740e+00
  2.267448e+01    1.059888e+00
  2.269035e+01    1.094325e+00
  2.270623e+01    1.088316e+00
  2.272210e+01    1.077777e+00
  2.273798e+01    1.072364e+00
  2.275385e+01    1.072794e+00
  2.276973e+01    1.054561e+00
  2.278560e+01    1.054097e+00
  2.280148e+01    1.063289e+00
  2.281736e+01    1.037574e+00
  2.283323e+01    1.073884e+00
  2.284911e+01    1.055028e+00
  2.286498e+01    1.046666e+00
  2.288086e+01    1.056242e+00
  2.289673e+01    1.078056e+00
  2.291261e+01    1.052979e+00
  2.292848e+01    1.039973e+00
  2.294436e+01    1.018986e+00
  2.296024e+01    1.033573e+00
  2.297611e+01    1.028446e+00
  2.299199e+01    1.018158e+00
  2.300786e+01    1.026165e+00
  2.302374e+01    1.023718e+00
  2.303961e+01    1.038450e+00
  2.305549e+01    1.026529e+00
  2.307137e+01    1.031443e+00
  2.308724e+01    1.013722e+00
  2.310312e+01    9.952848e-01
  2.311899e+01    9.985708e-01
  2.313487e+01    1.009986e+00
  2.315074e+01    1.009355e+00
  2.316662e+01    1.002274e+00
  2.318249e+01    9.862927e-01
  2.319837e+01    9.793016e-01
  2.321425e+01    9.987492e-01
  2.323012e+01    9.865783e-01
  2.324600e+01    9.758502e-01
  2.326187e+01    9.988255e-01
  2.327775e+01    1.002646e+00
  2.329362e+01    9.657455e-01
  2.330950e+01    9.647852e-01
  2.332537e+01    9.717383e-01
  2.334125e+01    9.758004e-01
  2.335713e+01    9.779540e-01
  2.337300e+01    9.774467e-01
  2.338888e+01    9.772433e-01
  2.340475e+01    9.856238e-01
  2.342063e+01    9.866862e-01
  2.343650e+01    9.591961e-01
  2.345238e+01    9.562263e-01
  2.346825e+01    9.355279e-01
  2.348413e+01    9.439205e-01
  2.350001e+01    9.650691e-01
  2.351588e+01    9.555858e-01
  2.353176e+01    9.469002e-01
  2.354763e+01    9.480995e-01
  2.356351e+01    9.635813e-01
  2.357938e+01    9.619203e-01
  2.359526e+01    9.602857e-01
  2.361113e+01    9.436753e-01
  2.362701e+01    9.567451e-01
  2.364289e+01    9.670869e-01
  2.365876e+01    9.848183e-01
  2.367464e+01    9.738675e-01
  2.369051e+01    9.204201e-01
  2.370639e+01    9.308649e-01
  2.372226e+01    9.418532e-01
  2.373814e+01    9.348326e-01
  2.375401e+01    9.414269e-01
  2.376989e+01    9.483378e-01
  2.378577e+01    9.263281e-01
  2.380164e+01    9.346718e-01
  2.381752e+01    9.221821e-01
  2.383339e+01    9.173251e-01
  2.384927e+01    9.201893e-01
  2.386514e+01    9.346802e-01
  2.388102e+01    9.509905e-01
  2.389689e+01    9.189714e-01
  2.391277e+01    9.012287e-01
  2.392865e+01    9.432012e-01
  2.394452e+01    9.100268e-01
  2.396040e+01    8.966185e-01
  2.397627e+01    9.098675e-01
  2.399215e+01    8.843711e-01
  2.400802e+01    8.922311e-01
  2.402390e+01    8.900097e-01
  2.403978e+01    8.874270e-01
  2.405565e+01    8.891639e-01
  2.407153e+01    9.005046e-01
  2.408740e+01    8.785997e-01
  2.410328e+01    9.090154e-01
  2.411915e+01    8.870075e-01
  2.413503e+01    8.821626e-01
  2.415090e+01    9.004458e-01
  2.416678e+01    8.938617e-01
  2.418266e+01    8.941261e-01
  2.419853e+01    9.025792e-01
  2.421441e+01    8.912999e-01
  2.423028e+01    8.471517e-01
  2.424616e+01    8.667464e-01
  2.426203e+01    9.095075e-01
  2.427791e+01    8.964956e-01
  2.429378e+01    9.001832e-01
  2.430966e+01    8.849936e-01
  2.432554e+01    8.758153e-01
  2.434141e+01    8.983717e-01
  2.435729e+01    9.113506e-01
  2.437316e+01    9.074508e-01
  2.438904e+01    8.973301e-01
  2.440491e+01    9.027975e-01
  2.442079e+01    9.043181e-01
  2.443666e+01    8.815421e-01
  2.445254e+01    9.010324e-01
  2.446842e+01    8.977008e-01
  2.448429e+01    9.094078e-01
  2.450017e+01    9.195928e-01
  2.451604e+01    8.962716e-01
  2.453192e+01    8.913848e-01
  2.454779e+01    9.006889e-01
  2.456367e+01    9.090427e-01
  2.457954e+01    8.777591e-01
  2.459542e+01    8.977551e-01
  2.461130e+01    9.036146e-01
  2.462717e+01    9.027225e-01
  2.464305e+01    8.963994e-01
  2.465892e+01    9.071546e-01
  2.467480e+01    8.991578e-01
  2.469067e+01    8.939701e-01
  2.470655e+01    8.919854e-01
  2.472242e+01    8.793317e-01
  2.473830e+01    8.775335e-01
  2.475418e+01    9.048198e-01
  2.477005e+01    9.039287e-01
  2.478593e+01    8.820395e-01
  2.480180e+01    8.753472e-01
  2.481768e+01    8.981751e-01
  2.483355e+01    8.986870e-01
  2.484943e+01    8.979707e-01
  2.486530e+01    8.953636e-01
  2.488118e+01    9.184036e-01
  2.489706e+01    8.923717e-01
  2.491293e+01    8.812498e-01
  2.492881e+01    8.926474e-01
  2.494468e+01    9.010957e-01
  2.496056e+01    8.984492e-01
  2.497643e+01    8.940104e-01
  2.499231e+01    9.086648e-01
  2.500819e+01    8.955665e-01
  2.502406e+01    8.916118e-01
  2.503994e+01    9.085913e-01
  2.505581e+01    9.002944e-01
  2.507169e+01    9.013832e-01
  2.508756e+01    8.907803e-01
  2.510344e+01    9.033580e-01
  2.511931e+01    9.012509e-01
  2.513519e+01    8.851291e-01
  2.515107e+01    9.127702e-01
  2.516694e+01    9.371742e-01
  2.518282e+01    9.126871e-01
  2.519869e+01    9.183245e-01
  2.521457e+01    9.158621e-01
  2.523044e+01    9.311907e-01
  2.524632e+01    9.301175e-01
  2.526219e+01    9.509162e-01
  2.527807e+01    9.537200e-01
  2.529395e+01    9.635851e-01
  2.530982e+01    9.492930e-01
  2.532570e+01    9.628041e-01
  2.534157e+01    9.793281e-01
  2.535745e+01    9.782879e-01
  2.537332e+01    9.839694e-01
  2.538920e+01    1.015149e+00
  2.540507e+01    9.959992e-01
  2.542095e+01    9.829227e-01
  2.543683e+01    9.890193e-01
  2.545270e+01    1.022619e+00
  2.546858e+01    1.026718e+00
  2.548445e+01    1.059433e+00
  2.550033e+01    1.085234e+00
  2.551620e+01    1.082898e+00
  2.553208e+01    1.085469e+00
  2.554795e+01    1.114877e+00
  2.556383e+01    1.147288e+00
  2.557971e+01    1.145715e+00
  2.559558e+01    1.198387e+00
  2.561146e+01    1.237541e+00
  2.562733e+01    1.280151e+00
  2.564321e+01    1.294089e+00
  2.565908e+01    1.367947e+00
  2.567496e+01    1.436393e+00
  2.569083e+01    1.530003e+00
  2.570671e+01    1.637482e+00
  2.572259e+01    1.717643e+00
  2.573846e+01    1.853826e+00
  2.575434e+01    2.049518e+00
  2.577021e+01    2.244119e+00
  2.578609e+01    2.521072e+00
  2.580196e+01    2.861964e+00
  2.581784e+01    3.248376e+00
  2.583371e+01    3.702507e+00
  2.584959e+01    4.222255e+00
  2.586547e+01    4.757503e+00
  2.588134e+01    5.307640e+00
  2.589722e+01    5.911177e+00
  2.591309e+01    6.480497e+00
  2.592897e+01    6.863253e+00
  2.594484e+01    7.075430e+00
  2.596072e+01    7.115669e+00
  2.597660e+01    6.917927e+00
  2.599247e+01    6.459934e+00
  2.600835e+01    5.861758e+00
  2.602422e+01    5.198438e+00
  2.604010e+01    4.503074e+00
  2.605597e+01    3.894324e+00
  2.607185e+01    3.376825e+00
  2.608772e+01    2.950205e+00
  2.610360e+01    2.616536e+00
  2.611948e+01    2.334661e+00
  2.613535e+01    2.106530e+00
  2.615123e+01    1.924216e+00
  2.616710e+01    1.772550e+00
  2.618298e+01    1.647859e+00
  2.619885e+01    1.578461e+00
  2.621473e+01    1.497914e+00
  2.623060e+01    1.420912e+00
  2.624648e+01    1.340922e+00
  2.626236e+01    1.279873e+00
  2.627823e+01    1.231573e+00
  2.629411e+01    1.195713e+00
  2.630998e+01    1.175320e+00
  2.632586e+01    1.157579e+00
  2.634173e+01    1.117837e+00
  2.635761e+01    1.101436e+00
  2.637348e+01    1.088000e+00
  2.638936e+01    1.080781e+00
  2.640524e+01    1.081418e+00
  2.642111e+01    1.039649e+00
  2.643699e+01    1.036215e+00
  2.645286e+01    1.053073e+00
  2.646874e+01    1.037872e+00
  2.648461e+01    1.039127e+00
  2.650049e+01    1.014550e+00
  2.651636e+01    9.943277e-01
  2.653224e+01    9.878926e-01
  2.654812e+01    1.002540e+00
  2.656399e+01    1.012320e+00
  2.657987e+01    1.007731e+00
  2.659574e+01    1.004168e+00
  2.661162e+01    9.949368e-01
  2.662749e+01    9.658232e-01
  2.664337e+01    9.636335e-01
  2.665924e+01    9.449380e-01
  2.667512e+01    9.541765e-01
  2.669100e+01    9.758719e-01
  2.670687e+01    9.793397e-01
  2.672275e+01    9.918455e-01
  2.673862e+01    1.003614e+00
  2.675450e+01    9.932456e-01
  2.677037e+01    9.767196e-01
  2.678625e+01    9.711096e-01
  2.680212e+01    9.854411e-01
  2.681800e+01    9.896958e-01
  2.683388e+01    1.000579e+00
  2.684975e+01    1.007514e+00
  2.686563e+01    9.886249e-01
  2.688150e+01    9.753335e-01
  2.689738e+01    9.919205e-01
  2.691325e+01    1.008528e+00
  2.692913e+01    1.022987e+00
  2.694501e+01    1.024352e+00
  2.696088e+01    1.050789e+00
  2.697676e+01    1.053654e+00
  2.699263e+01    1.094617e+00
  2.700851e+01    1.138338e+00
  2.702438e+01    1.173620e+00
  2.704026e+01    1.203720e+00
  2.705613e+01    1.248279e+00
  2.707201e+01    1.322133e+00
  2.708789e+01    1.420531e+00
  2.710376e+01    1.548972e+00
  2.711964e+01    1.616231e+00
  2.713551e+01    1.733227e+00
  2.715139e+01    1.858702e+00
  2.716726e+01    1.990660e+00
  2.718314e+01    2.045477e+00
  2.719901e+01    2.140415e+00
  2.721489e+01    2.153939e+00
  2.723077e+01    2.142365e+00
  2.724664e+01    2.053994e+00
  2.726252e+01    1.948764e+00
  2.727839e+01    1.826655e+00
  2.729427e+01    1.672118e+00
  2.731014e+01    1.535731e+00
  2.732602e+01    1.438280e+00
  2.734189e+01    1.361451e+00
  2.735777e+01    1.266413e+00
  2.737365e+01    1.195868e+00
  2.738952e+01    1.167459e+00
  2.740540e+01    1.128448e+00
  2.742127e+01    1.093083e+00
  2.743715e+01    1.073525e+00
  2.745302e+01    1.028698e+00
  2.746890e+01    1.022003e+00
  2.748477e+01    9.908388e-01
  2.750065e+01    9.949901e-01
  2.751653e+01    9.694126e-01
  2.753240e+01    9.551148e-01
  2.754828e+01    9.432698e-01
  2.756415e+01    9.429543e-01
  2.758003e+01    9.508129e-01
  2.759590e+01    9.451542e-01
  2.761178e+01    9.315623e-01
  2.762765e+01    9.046085e-01
  2.764353e+01    9.266894e-01
  2.765941e+01    9.187903e-01
  2.767528e+01    9.197133e-01
  2.769116e+01    9.147351e-01
  2.770703e+01    9.089386e-01
  2.772291e+01    8.993036e-01
  2.773878e+01    9.159036e-01
  2.775466e+01    9.213796e-01
  2.777054e+01    9.099316e-01
  2.778641e+01    9.042203e-01
  2.780229e+01    8.875394e-01
  2.781816e+01    8.678998e-01
  2.783404e+01    8.872477e-01
  2.784991e+01    9.171695e-01
  2.786579e+01    9.096941e-01
  2.788166e+01    8.753049e-01
  2.789754e+01    8.717550e-01
  2.791342e+01    8.901749e-01
  2.792929e+01    8.897220e-01
  2.794517e+01    8.803523e-01
  2.796104e+01    8.706381e-01
  2.797692e+01    8.580436e-01
  2.799279e+01    8.453711e-01
  2.800867e+01    8.664811e-01
  2.802454e+01    8.644490e-01
  2.804042e+01    8.649964e-01
  2.805630e+01    8.563374e-01
  2.807217e+01    8.506118e-01
  2.808805e+01    8.641128e-01
  2.810392e+01    8.604488e-01
  2.811980e+01    8.402383e-01
  2.813567e+01    8.593672e-01
  2.815155e+01    8.658925e-01
  2.816742e+01    8.377494e-01
  2.818330e+01    8.622295e-01
  2.819918e+01    8.704634e-01
  2.821505e+01    8.557876e-01
  2.823093e+01    8.460408e-01
  2.824680e+01    8.382118e-01
  2.826268e+01    8.349349e-01
  2.827855e+01    8.400520e-01
  2.829443e+01    8.522652e-01
  2.831030e+01    8.751184e-01
  2.832618e+01    8.582830e-01
  2.834206e+01    8.381401e-01
  2.835793e+01    8.592600e-01
  2.837381e+01    8.541090e-01
  2.838968e+01    8.245536e-01
  2.840556e+01    8.426073e-01
  2.842143e+01    8.654008e-01
  2.843731e+01    8.574708e-01
  2.845318e+01    8.396786e-01
  2.846906e+01    8.266543e-01
  2.848494e+01    8.188795e-01
  2.850081e+01    8.259658e-01
  2.851669e+01    8.534313e-01
  2.853256e+01    8.504554e-01
  2.854844e+01    8.529252e-01
  2.856431e+01    8.450153e-01
  2.858019e+01    8.379230e-01
  2.859606e+01    8.253532e-01
  2.861194e+01    8.235494e-01
  2.862782e+01    8.346567e-01
  2.864369e+01    8.415852e-01
  2.865957e+01    8.334587e-01
  2.867544e+01    8.328189e-01
  2.869132e+01    8.152391e-01
  2.870719e+01    8.481604e-01
  2.872307e+01    8.629188e-01
  2.873895e+01    8.466520e-01
  2.875482e+01    8.359733e-01
  2.877070e+01    8.369390e-01
  2.878657e+01    8.413506e-01
  2.880245e+01    8.148028e-01
  2.881832e+01    8.455740e-01
  2.883420e+01    8.448066e-01
  2.885007e+01    8.502899e-01
  2.886595e+01    8.492501e-01
  2.888183e+01    8.189395e-01
  2.889770e+01    8.119937e-01
  2.891358e+01    8.183724e-01
  2.892945e+01    8.309077e-01
  2.894533e+01    8.335853e-01
  2.896120e+01    8.256492e-01
  2.897708e+01    8.157909e-01
  2.899295e+01    8.209077e-01
  2.900883e+01    8.244656e-01
  2.902471e+01    8.209612e-01
  2.904058e+01    7.987381e-01
  2.905646e+01    7.989588e-01
  2.907233e+01    7.948741e-01
  2.908821e+01    8.178288e-01
  2.910408e+01    8.180293e-01
  2.911996e+01    8.009549e-01
  2.913583e+01    8.128510e-01
  2.915171e+01    8.253116e-01
  2.916759e+01    8.243796e-01
  2.918346e+01    8.015139e-01
  2.919934e+01    8.038481e-01
  2.921521e+01    8.128267e-01
  2.923109e+01    8.163861e-01
  2.924696e+01    8.054591e-01
  2.926284e+01    8.252104e-01
  2.927871e+01    8.241205e-01
  2.929459e+01    8.323346e-01
  2.931047e+01    8.229422e-01
  2.932634e+01    8.105946e-01
  2.934222e+01    8.131104e-01
  2.935809e+01    8.012044e-01
  2.937397e+01    8.108990e-01
  2.938984e+01    7.954999e-01
  2.940572e+01    7.998252e-01
  2.942159e+01    8.015840e-01
  2.943747e+01    7.827227e-01
  2.945335e+01    7.973546e-01
  2.946922e+01    8.053978e-01
  2.948510e+01    8.072393e-01
  2.950097e+01    8.121516e-01
  2.951685e+01    8.098345e-01
  2.953272e+01    8.246126e-01
  2.954860e+01    8.196535e-01
  2.956447e+01    8.031054e-01
  2.958035e+01    7.938303e-01
  2.959623e+01    8.027067e-01
  2.961210e+01    8.066170e-01
  2.962798e+01    8.082785e-01
  2.964385e+01    8.011131e-01
  2.965973e+01    7.917300e-01
  2.967560e+01    7.976217e-01
  2.969148e+01    8.044307e-01
  2.970736e+01    8.195893e-01
  2.972323e+01    7.987157e-01
  2.973911e+01    8.050205e-01
  2.975498e+01    8.010184e-01
  2.977086e+01    8.084919e-01
  2.978673e+01    8.136137e-01
  2.980261e+01    7.705204e-01
  2.981848e+01    7.767481e-01
  2.983436e+01    7.798335e-01
  2.985024e+01    7.854409e-01
  2.986611e+01    8.023361e-01
  2.988199e+01    8.037810e-01
  2.989786e+01    8.038020e-01
  2.991374e+01    7.912837e-01
  2.992961e+01    8.171221e-01
  2.994549e+01    8.133487e-01
  2.996136e+01    8.043249e-01
  2.997724e+01    8.149515e-01
  2.999312e+01    7.930178e-01
  3.000899e+01    7.939978e-01
  3.002487e+01    7.892043e-01
  3.004074e+01    7.801991e-01
  3.005662e+01    7.894641e-01
  3.007249e+01    8.070956e-01
  3.008837e+01    7.973108e-01
  3.010424e+01    8.032778e-01
  3.012012e+01    8.052061e-01
  3.013600e+01    7.880821e-01
  3.015187e+01    7.903479e-01
  3.016775e+01    7.802472e-01
  3.018362e+01    7.886448e-01
  3.019950e+01    7.897400e-01
  3.021537e+01    7.849212e-01
  3.023125e+01    7.729251e-01
  3.024712e+01    7.790323e-01
  3.026300e+01    7.660756e-01
  3.027888e+01    7.943302e-01
  3.029475e+01    8.036315e-01
  3.031063e+01    7.988889e-01
  3.032650e+01    8.075979e-01
  3.034238e+01    7.892614e-01
  3.035825e+01    7.946274e-01
  3.037413e+01    7.908291e-01
  3.039000e+01    7.755153e-01
  3.040588e+01    7.918710e-01
  3.042176e+01    8.020209e-01
  3.043763e+01    7.898201e-01
  3.045351e+01    7.915654e-01
  3.046938e+01    7.877736e-01
  3.048526e+01    7.838795e-01
  3.050113e+01    7.749273e-01
  3.051701e+01    7.573395e-01
  3.053288e+01    7.899789e-01
  3.054876e+01    7.747598e-01
  3.056464e+01    7.669287e-01
  3.058051e+01    7.868028e-01
  3.059639e+01    7.881255e-01
  3.061226e+01    8.016481e-01
  3.062814e+01    7.885329e-01
  3.064401e+01    7.810360e-01
  3.065989e+01    7.955481e-01
  3.067577e+01    7.911966e-01
  3.069164e+01    8.025821e-01
  3.070752e+01    7.774702e-01
  3.072339e+01    7.874479e-01
  3.073927e+01    7.768491e-01
  3.075514e+01    7.695152e-01
  3.077102e+01    7.793975e-01
  3.078689e+01    7.751698e-01
  3.080277e+01    7.594519e-01
  3.081865e+01    7.830570e-01
  3.083452e+01    7.883364e-01
  3.085040e+01    8.050283e-01
  3.086627e+01    8.069271e-01
  3.088215e+01    7.932827e-01
  3.089802e+01    7.925437e-01
  3.091390e+01    7.789774e-01
  3.092977e+01    7.847601e-01
  3.094565e+01    8.120587e-01
  3.096153e+01    8.086182e-01
  3.097740e+01    7.903224e-01
  3.099328e+01    7.753593e-01
  3.100915e+01    7.751927e-01
  3.102503e+01    7.737324e-01
  3.104090e+01    7.916075e-01
  3.105678e+01    7.874908e-01
  3.107265e+01    7.774106e-01
  3.108853e+01    7.998776e-01
  3.110441e+01    7.800111e-01
  3.112028e+01    7.928079e-01
  3.113616e+01    7.664816e-01
  3.115203e+01    7.823713e-01
  3.116791e+01    7.974056e-01
  3.118378e+01    8.102240e-01
  3.119966e+01    7.967913e-01
  3.121553e+01    7.901021e-01
  3.123141e+01    8.027819e-01
  3.124729e+01    7.979336e-01
  3.126316e+01    8.229350e-01
  3.127904e+01    8.069947e-01
  3.129491e+01    8.074320e-01
  3.131079e+01    8.035379e-01
  3.132666e+01    7.840634e-01
  3.134254e+01    8.090982e-01
  3.135841e+01    8.011906e-01
  3.137429e+01    8.039900e-01
  3.139017e+01    8.045232e-01
  3.140604e+01    8.119473e-01
  3.142192e+01    8.202760e-01
  3.143779e+01    8.159065e-01
  3.145367e+01    8.365390e-01
  3.146954e+01    8.285690e-01
  3.148542e+01    8.195087e-01
  3.150129e+01    8.510324e-01
  3.151717e+01    8.846672e-01
  3.153305e+01    8.385485e-01
  3.154892e+01    8.423433e-01
  3.156480e+01    8.693643e-01
  3.158067e+01    8.852247e-01
  3.159655e+01    8.933080e-01
  3.161242e+01    8.819975e-01
  3.162830e+01    8.959710e-01
  3.164418e+01    9.350734e-01
  3.166005e+01    9.565649e-01
  3.167593e+01    9.661576e-01
  3.169180e+01    9.787335e-01
  3.170768e+01    1.025168e+00
  3.172355e+01    1.082448e+00
  3.173943e+01    1.118653e+00
  3.175530e+01    1.198976e+00
  3.177118e+01    1.269524e+00
  3.178706e+01    1.365864e+00
  3.180293e+01    1.477947e+00
  3.181881e+01    1.610238e+00
  3.183468e+01    1.746434e+00
  3.185056e+01    1.872239e+00
  3.186643e+01    1.970939e+00
  3.188231e+01    2.039312e+00
  3.189818e+01    2.086492e+00
  3.191406e+01    2.121691e+00
  3.192994e+01    2.029298e+00
  3.194581e+01    1.915124e+00
  3.196169e+01    1.799057e+00
  3.197756e+01    1.665275e+00
  3.199344e+01    1.538901e+00
  3.200931e+01    1.388523e+00
  3.202519e+01    1.285309e+00
  3.204106e+01    1.240273e+00
  3.205694e+01    1.148919e+00
  3.207282e+01    1.090375e+00
  3.208869e+01    1.029044e+00
  3.210457e+01    9.944124e-01
  3.212044e+01    9.682623e-01
  3.213632e+01    9.369013e-01
  3.215219e+01    9.199653e-01
  3.216807e+01    9.081884e-01
  3.218394e+01    8.785309e-01
  3.219982e+01    8.418466e-01
  3.221570e+01    8.494682e-01
  3.223157e+01    8.609074e-01
  3.224745e+01    8.575719e-01
  3.226332e+01    8.395132e-01
  3.227920e+01    8.319068e-01
  3.229507e+01    8.034182e-01
  3.231095e+01    7.837249e-01
  3.232682e+01    7.775333e-01
  3.234270e+01    7.881233e-01
  3.235858e+01    7.852661e-01
  3.237445e+01    8.258629e-01
  3.239033e+01    8.219534e-01
  3.240620e+01    7.900732e-01
  3.242208e+01    7.595549e-01
  3.243795e+01    7.712593e-01
  3.245383e+01    7.590157e-01
  3.246970e+01    7.646923e-01
  3.248558e+01    7.763849e-01
  3.250146e+01    7.811584e-01
  3.251733e+01    7.709169e-01
  3.253321e+01    7.777998e-01
  3.254908e+01    7.879252e-01
