# == pyFAI calibration ==
# Distance Sample to Detector: 0.3999999939076516 m
# PONI: 9.750e-02, 1.135e-01 m
# Rotations: -0.000175 0.000000 -0.000000 rad
# 
# == Fit2d calibration ==
# Distance Sample-beamCenter: 400.000 mm
# Center: x=1514.000, y=1300.000 pix
# Tilt: 0.010 deg  TiltPlanRot: 0.010 deg
# 
# Detector Detector	 Spline= None	 PixelSize= 7.500e-05, 7.500e-05 m
#    Detector has a mask: False 
#    Detector has a dark current: False 
#    detector has a flat field: False 
# 
# Wavelength: 6.888e-11 m
# Mask applied: user provided
# Dark current applied: False
# Flat field applied: False
# Polarization factor: 0.99
# Normalization factor: 1.0
# --> /home/myspot/data/2024_07_Rosario/Ru-CGO-ex/2024-07-27_003_Ru-CGO-ex_Reaction_dwell_000023_data_000078.dat
#       q_nm^-1             I 
  2.003187e-02    1.542450e-01
  3.590745e-02    1.284296e-01
  5.178302e-02    1.210483e-01
  6.765859e-02    1.420664e-01
  8.353417e-02    4.168332e-02
  9.940974e-02    1.076358e-01
  1.152853e-01    1.117364e-01
  1.311609e-01    4.954506e-02
  1.470365e-01    2.972645e-02
  1.629120e-01    9.534026e-03
  1.787876e-01    0.000000e+00
  1.946632e-01    3.307113e-03
  2.105388e-01    1.930963e-02
  2.264143e-01    3.836435e-02
  2.422899e-01    6.655949e-02
  2.581655e-01    3.230507e-02
  2.740411e-01    4.074235e-02
  2.899166e-01    1.424155e-02
  3.057922e-01    2.347126e-02
  3.216678e-01    2.859433e-02
  3.375433e-01    2.766260e-02
  3.534189e-01    4.130320e-02
  3.692945e-01    3.281293e-02
  3.851701e-01    3.585166e-02
  4.010456e-01    4.160582e-02
  4.169212e-01    8.332479e-02
  4.327968e-01    5.225352e-02
  4.486724e-01    3.933499e-02
  4.645479e-01    1.734507e-02
  4.804235e-01    1.202799e-02
  4.962991e-01    3.114011e-02
  5.121747e-01    3.466481e-02
  5.280502e-01    4.183657e-02
  5.439258e-01    4.095182e-02
  5.598014e-01    4.319280e-02
  5.756770e-01    2.316649e-02
  5.915525e-01    2.089982e-02
  6.074281e-01    2.916075e-02
  6.233037e-01    3.486059e-02
  6.391793e-01    6.326535e-02
  6.550548e-01    7.217221e-02
  6.709304e-01    5.726940e-02
  6.868060e-01    4.112958e-02
  7.026815e-01    1.588176e-02
  7.185571e-01    2.751649e-02
  7.344327e-01    6.151377e-02
  7.503083e-01    6.966449e-02
  7.661838e-01    9.723486e-02
  7.820594e-01    1.349787e-01
  7.979350e-01    1.549453e-01
  8.138106e-01    2.321500e-01
  8.296861e-01    3.213706e-01
  8.455617e-01    3.911201e-01
  8.614373e-01    4.091663e-01
  8.773129e-01    5.366255e-01
  8.931884e-01    6.685663e-01
  9.090640e-01    7.383173e-01
  9.249396e-01    7.972528e-01
  9.408152e-01    8.415857e-01
  9.566907e-01    8.916512e-01
  9.725663e-01    9.525515e-01
  9.884419e-01    1.063782e+00
  1.004317e+00    1.306393e+00
  1.020193e+00    1.442891e+00
  1.036069e+00    1.370672e+00
  1.051944e+00    1.313703e+00
  1.067820e+00    1.452027e+00
  1.083695e+00    1.575287e+00
  1.099571e+00    1.625708e+00
  1.115446e+00    1.721008e+00
  1.131322e+00    1.582376e+00
  1.147198e+00    1.592165e+00
  1.163073e+00    1.629639e+00
  1.178949e+00    1.561308e+00
  1.194824e+00    1.809440e+00
  1.210700e+00    2.079274e+00
  1.226575e+00    2.214452e+00
  1.242451e+00    2.445164e+00
  1.258327e+00    2.407742e+00
  1.274202e+00    2.433311e+00
  1.290078e+00    2.517166e+00
  1.305953e+00    2.617010e+00
  1.321829e+00    2.670660e+00
  1.337705e+00    2.754613e+00
  1.353580e+00    2.836877e+00
  1.369456e+00    2.886224e+00
  1.385331e+00    2.874788e+00
  1.401207e+00    2.916050e+00
  1.417082e+00    2.953811e+00
  1.432958e+00    2.901074e+00
  1.448834e+00    2.968090e+00
  1.464709e+00    3.131984e+00
  1.480585e+00    3.146915e+00
  1.496460e+00    3.139716e+00
  1.512336e+00    3.214349e+00
  1.528211e+00    3.269670e+00
  1.544087e+00    3.219266e+00
  1.559963e+00    3.240316e+00
  1.575838e+00    3.320895e+00
  1.591714e+00    3.094844e+00
  1.607589e+00    3.238137e+00
  1.623465e+00    3.312301e+00
  1.639340e+00    3.112007e+00
  1.655216e+00    3.139382e+00
  1.671092e+00    3.163130e+00
  1.686967e+00    3.175771e+00
  1.702843e+00    3.031240e+00
  1.718718e+00    3.075860e+00
  1.734594e+00    3.156808e+00
  1.750469e+00    3.192763e+00
  1.766345e+00    3.051918e+00
  1.782221e+00    3.114242e+00
  1.798096e+00    3.174771e+00
  1.813972e+00    3.208996e+00
  1.829847e+00    3.100751e+00
  1.845723e+00    3.067090e+00
  1.861598e+00    3.018530e+00
  1.877474e+00    3.034374e+00
  1.893350e+00    2.950785e+00
  1.909225e+00    3.052255e+00
  1.925101e+00    3.054598e+00
  1.940976e+00    3.092048e+00
  1.956852e+00    3.128034e+00
  1.972727e+00    3.160132e+00
  1.988603e+00    3.074603e+00
  2.004479e+00    3.169019e+00
  2.020354e+00    3.132017e+00
  2.036230e+00    3.187084e+00
  2.052105e+00    3.171442e+00
  2.067981e+00    3.126176e+00
  2.083856e+00    3.085121e+00
  2.099732e+00    3.111869e+00
  2.115608e+00    3.153547e+00
  2.131483e+00    3.161730e+00
  2.147359e+00    3.036492e+00
  2.163234e+00    3.030425e+00
  2.179110e+00    3.105175e+00
  2.194985e+00    3.122623e+00
  2.210861e+00    3.178427e+00
  2.226737e+00    2.919279e+00
  2.242612e+00    3.011301e+00
  2.258488e+00    3.279289e+00
  2.274363e+00    3.148862e+00
  2.290239e+00    3.079901e+00
  2.306115e+00    3.195758e+00
  2.321990e+00    3.237194e+00
  2.337866e+00    3.179924e+00
  2.353741e+00    3.185049e+00
  2.369617e+00    3.247792e+00
  2.385492e+00    3.225068e+00
  2.401368e+00    3.133185e+00
  2.417244e+00    3.141096e+00
  2.433119e+00    3.241272e+00
  2.448995e+00    3.294101e+00
  2.464870e+00    3.219775e+00
  2.480746e+00    3.266581e+00
  2.496621e+00    3.177455e+00
  2.512497e+00    3.163860e+00
  2.528373e+00    3.132389e+00
  2.544248e+00    3.255867e+00
  2.560124e+00    3.301888e+00
  2.575999e+00    3.238837e+00
  2.591875e+00    3.286188e+00
  2.607750e+00    3.144629e+00
  2.623626e+00    3.200952e+00
  2.639502e+00    3.317451e+00
  2.655377e+00    3.237769e+00
  2.671253e+00    3.297947e+00
  2.687128e+00    3.311968e+00
  2.703004e+00    3.332043e+00
  2.718879e+00    3.349892e+00
  2.734755e+00    3.287141e+00
  2.750631e+00    3.223622e+00
  2.766506e+00    3.299042e+00
  2.782382e+00    3.294937e+00
  2.798257e+00    3.247586e+00
  2.814133e+00    3.328130e+00
  2.830008e+00    3.281318e+00
  2.845884e+00    3.247435e+00
  2.861760e+00    3.314131e+00
  2.877635e+00    3.344660e+00
  2.893511e+00    3.294570e+00
  2.909386e+00    3.322199e+00
  2.925262e+00    3.419825e+00
  2.941137e+00    3.428240e+00
  2.957013e+00    3.401347e+00
  2.972889e+00    3.319688e+00
  2.988764e+00    3.453013e+00
  3.004640e+00    3.390815e+00
  3.020515e+00    3.311992e+00
  3.036391e+00    3.336971e+00
  3.052266e+00    3.335705e+00
  3.068142e+00    3.333938e+00
  3.084018e+00    3.406119e+00
  3.099893e+00    3.366430e+00
  3.115769e+00    3.431404e+00
  3.131644e+00    3.431670e+00
  3.147520e+00    3.332463e+00
  3.163395e+00    3.304837e+00
  3.179271e+00    3.433023e+00
  3.195147e+00    3.467745e+00
  3.211022e+00    3.403146e+00
  3.226898e+00    3.356729e+00
  3.242773e+00    3.421843e+00
  3.258649e+00    3.454119e+00
  3.274525e+00    3.531470e+00
  3.290400e+00    3.504912e+00
  3.306276e+00    3.504796e+00
  3.322151e+00    3.482949e+00
  3.338027e+00    3.398886e+00
  3.353902e+00    3.426294e+00
  3.369778e+00    3.455587e+00
  3.385654e+00    3.427615e+00
  3.401529e+00    3.437603e+00
  3.417405e+00    3.450766e+00
  3.433280e+00    3.572107e+00
  3.449156e+00    3.522448e+00
  3.465031e+00    3.421392e+00
  3.480907e+00    3.417642e+00
  3.496783e+00    3.390543e+00
  3.512658e+00    3.470622e+00
  3.528534e+00    3.446659e+00
  3.544409e+00    3.436685e+00
  3.560285e+00    3.515237e+00
  3.576160e+00    3.469137e+00
  3.592036e+00    3.479636e+00
  3.607912e+00    3.467079e+00
  3.623787e+00    3.445656e+00
  3.639663e+00    3.481814e+00
  3.655538e+00    3.490328e+00
  3.671414e+00    3.508642e+00
  3.687289e+00    3.487200e+00
  3.703165e+00    3.462036e+00
  3.719041e+00    3.371881e+00
  3.734916e+00    3.367332e+00
  3.750792e+00    3.381647e+00
  3.766667e+00    3.440169e+00
  3.782543e+00    3.478087e+00
  3.798418e+00    3.419311e+00
  3.814294e+00    3.474452e+00
  3.830170e+00    3.569916e+00
  3.846045e+00    3.465758e+00
  3.861921e+00    3.468215e+00
  3.877796e+00    3.524414e+00
  3.893672e+00    3.535835e+00
  3.909547e+00    3.528889e+00
  3.925423e+00    3.581683e+00
  3.941299e+00    3.540068e+00
  3.957174e+00    3.566098e+00
  3.973050e+00    3.608763e+00
  3.988925e+00    3.652126e+00
  4.004801e+00    3.720652e+00
  4.020676e+00    3.672970e+00
  4.036552e+00    3.586692e+00
  4.052428e+00    3.592655e+00
  4.068303e+00    3.537304e+00
  4.084179e+00    3.530396e+00
  4.100054e+00    3.552050e+00
  4.115930e+00    3.585512e+00
  4.131806e+00    3.510550e+00
  4.147681e+00    3.575108e+00
  4.163557e+00    3.613531e+00
  4.179432e+00    3.642183e+00
  4.195308e+00    3.581673e+00
  4.211183e+00    3.536791e+00
  4.227059e+00    3.519408e+00
  4.242935e+00    3.589462e+00
  4.258810e+00    3.544598e+00
  4.274686e+00    3.562940e+00
  4.290561e+00    3.564744e+00
  4.306437e+00    3.624494e+00
  4.322312e+00    3.591468e+00
  4.338188e+00    3.595090e+00
  4.354064e+00    3.626546e+00
  4.369939e+00    3.600180e+00
  4.385815e+00    3.596225e+00
  4.401690e+00    3.524912e+00
  4.417566e+00    3.551954e+00
  4.433441e+00    3.733223e+00
  4.449317e+00    3.609971e+00
  4.465193e+00    3.579954e+00
  4.481068e+00    3.636910e+00
  4.496944e+00    3.625382e+00
  4.512819e+00    3.452202e+00
  4.528695e+00    3.497064e+00
  4.544570e+00    3.614609e+00
  4.560446e+00    3.565019e+00
  4.576322e+00    3.567018e+00
  4.592197e+00    3.626418e+00
  4.608073e+00    3.579667e+00
  4.623948e+00    3.596035e+00
  4.639824e+00    3.640496e+00
  4.655699e+00    3.607475e+00
  4.671575e+00    3.607288e+00
  4.687451e+00    3.593142e+00
  4.703326e+00    3.598827e+00
  4.719202e+00    3.620178e+00
  4.735077e+00    3.663537e+00
  4.750953e+00    3.689633e+00
  4.766828e+00    3.587374e+00
  4.782704e+00    3.664752e+00
  4.798580e+00    3.691799e+00
  4.814455e+00    3.713428e+00
  4.830331e+00    3.654831e+00
  4.846206e+00    3.607803e+00
  4.862082e+00    3.764340e+00
  4.877957e+00    3.665470e+00
  4.893833e+00    3.613936e+00
  4.909709e+00    3.667209e+00
  4.925584e+00    3.692090e+00
  4.941460e+00    3.620148e+00
  4.957335e+00    3.637677e+00
  4.973211e+00    3.615243e+00
  4.989086e+00    3.693857e+00
  5.004962e+00    3.708605e+00
  5.020838e+00    3.727394e+00
  5.036713e+00    3.687455e+00
  5.052589e+00    3.701412e+00
  5.068464e+00    3.637871e+00
  5.084340e+00    3.550163e+00
  5.100216e+00    3.597880e+00
  5.116091e+00    3.691737e+00
  5.131967e+00    3.673408e+00
  5.147842e+00    3.670252e+00
  5.163718e+00    3.692339e+00
  5.179593e+00    3.660299e+00
  5.195469e+00    3.599960e+00
  5.211345e+00    3.698671e+00
  5.227220e+00    3.652249e+00
  5.243096e+00    3.621532e+00
  5.258971e+00    3.600121e+00
  5.274847e+00    3.638891e+00
  5.290722e+00    3.667688e+00
  5.306598e+00    3.708920e+00
  5.322474e+00    3.639863e+00
  5.338349e+00    3.600146e+00
  5.354225e+00    3.647918e+00
  5.370100e+00    3.746495e+00
  5.385976e+00    3.599173e+00
  5.401851e+00    3.659561e+00
  5.417727e+00    3.718023e+00
  5.433603e+00    3.661724e+00
  5.449478e+00    3.656256e+00
  5.465354e+00    3.606879e+00
  5.481229e+00    3.660279e+00
  5.497105e+00    3.655326e+00
  5.512980e+00    3.646246e+00
  5.528856e+00    3.633248e+00
  5.544732e+00    3.621032e+00
  5.560607e+00    3.636045e+00
  5.576483e+00    3.573795e+00
  5.592358e+00    3.569414e+00
  5.608234e+00    3.555821e+00
  5.624109e+00    3.561309e+00
  5.639985e+00    3.555233e+00
  5.655861e+00    3.569808e+00
  5.671736e+00    3.643247e+00
  5.687612e+00    3.685747e+00
  5.703487e+00    3.647145e+00
  5.719363e+00    3.651992e+00
  5.735238e+00    3.635552e+00
  5.751114e+00    3.601331e+00
  5.766990e+00    3.586217e+00
  5.782865e+00    3.570110e+00
  5.798741e+00    3.488497e+00
  5.814616e+00    3.485217e+00
  5.830492e+00    3.555951e+00
  5.846367e+00    3.588135e+00
  5.862243e+00    3.589086e+00
  5.878119e+00    3.514360e+00
  5.893994e+00    3.560285e+00
  5.909870e+00    3.627550e+00
  5.925745e+00    3.643652e+00
  5.941621e+00    3.617239e+00
  5.957497e+00    3.600979e+00
  5.973372e+00    3.540976e+00
  5.989248e+00    3.544770e+00
  6.005123e+00    3.512990e+00
  6.020999e+00    3.510568e+00
  6.036874e+00    3.553978e+00
  6.052750e+00    3.506790e+00
  6.068626e+00    3.579459e+00
  6.084501e+00    3.534708e+00
  6.100377e+00    3.571999e+00
  6.116252e+00    3.623143e+00
  6.132128e+00    3.563674e+00
  6.148003e+00    3.571155e+00
  6.163879e+00    3.591674e+00
  6.179755e+00    3.536148e+00
  6.195630e+00    3.557472e+00
  6.211506e+00    3.635066e+00
  6.227381e+00    3.566788e+00
  6.243257e+00    3.570274e+00
  6.259132e+00    3.618740e+00
  6.275008e+00    3.558759e+00
  6.290884e+00    3.577717e+00
  6.306759e+00    3.514123e+00
  6.322635e+00    3.507299e+00
  6.338510e+00    3.500069e+00
  6.354386e+00    3.596332e+00
  6.370261e+00    3.536286e+00
  6.386137e+00    3.532494e+00
  6.402013e+00    3.518556e+00
  6.417888e+00    3.494728e+00
  6.433764e+00    3.544619e+00
  6.449639e+00    3.537531e+00
  6.465515e+00    3.542043e+00
  6.481390e+00    3.598479e+00
  6.497266e+00    3.626248e+00
  6.513142e+00    3.604010e+00
  6.529017e+00    3.539031e+00
  6.544893e+00    3.582822e+00
  6.560768e+00    3.565105e+00
  6.576644e+00    3.593153e+00
  6.592519e+00    3.598711e+00
  6.608395e+00    3.588539e+00
  6.624271e+00    3.636284e+00
  6.640146e+00    3.600203e+00
  6.656022e+00    3.561335e+00
  6.671897e+00    3.562090e+00
  6.687773e+00    3.564009e+00
  6.703648e+00    3.549107e+00
  6.719524e+00    3.483625e+00
  6.735400e+00    3.467224e+00
  6.751275e+00    3.598488e+00
  6.767151e+00    3.604505e+00
  6.783026e+00    3.517599e+00
  6.798902e+00    3.551198e+00
  6.814777e+00    3.562976e+00
  6.830653e+00    3.517005e+00
  6.846529e+00    3.474976e+00
  6.862404e+00    3.574450e+00
  6.878280e+00    3.537061e+00
  6.894155e+00    3.506412e+00
  6.910031e+00    3.599555e+00
  6.925907e+00    3.512784e+00
  6.941782e+00    3.506917e+00
  6.957658e+00    3.524535e+00
  6.973533e+00    3.541276e+00
  6.989409e+00    3.571640e+00
  7.005284e+00    3.559881e+00
  7.021160e+00    3.555187e+00
  7.037036e+00    3.501337e+00
  7.052911e+00    3.468105e+00
  7.068787e+00    3.514542e+00
  7.084662e+00    3.559744e+00
  7.100538e+00    3.514823e+00
  7.116413e+00    3.507805e+00
  7.132289e+00    3.535481e+00
  7.148165e+00    3.540294e+00
  7.164040e+00    3.555610e+00
  7.179916e+00    3.496757e+00
  7.195791e+00    3.511678e+00
  7.211667e+00    3.545438e+00
  7.227542e+00    3.583709e+00
  7.243418e+00    3.476256e+00
  7.259294e+00    3.442577e+00
  7.275169e+00    3.508729e+00
  7.291045e+00    3.538236e+00
  7.306920e+00    3.543423e+00
  7.322796e+00    3.543451e+00
  7.338671e+00    3.557207e+00
  7.354547e+00    3.491695e+00
  7.370423e+00    3.472335e+00
  7.386298e+00    3.538449e+00
  7.402174e+00    3.575290e+00
  7.418049e+00    3.549684e+00
  7.433925e+00    3.461665e+00
  7.449800e+00    3.487782e+00
  7.465676e+00    3.510238e+00
  7.481552e+00    3.450407e+00
  7.497427e+00    3.471979e+00
  7.513303e+00    3.505021e+00
  7.529178e+00    3.465168e+00
  7.545054e+00    3.475073e+00
  7.560929e+00    3.469694e+00
  7.576805e+00    3.404715e+00
  7.592681e+00    3.494138e+00
  7.608556e+00    3.463964e+00
  7.624432e+00    3.387149e+00
  7.640307e+00    3.448191e+00
  7.656183e+00    3.500800e+00
  7.672058e+00    3.542439e+00
  7.687934e+00    3.532680e+00
  7.703810e+00    3.512239e+00
  7.719685e+00    3.522090e+00
  7.735561e+00    3.450973e+00
  7.751436e+00    3.452790e+00
  7.767312e+00    3.490879e+00
  7.783187e+00    3.512507e+00
  7.799063e+00    3.455832e+00
  7.814939e+00    3.445692e+00
  7.830814e+00    3.476637e+00
  7.846690e+00    3.453909e+00
  7.862565e+00    3.409365e+00
  7.878441e+00    3.411505e+00
  7.894317e+00    3.467873e+00
  7.910192e+00    3.501228e+00
  7.926068e+00    3.453866e+00
  7.941943e+00    3.378618e+00
  7.957819e+00    3.423701e+00
  7.973694e+00    3.379380e+00
  7.989570e+00    3.416292e+00
  8.005446e+00    3.432412e+00
  8.021321e+00    3.492976e+00
  8.037197e+00    3.506346e+00
  8.053072e+00    3.466432e+00
  8.068948e+00    3.463977e+00
  8.084823e+00    3.478647e+00
  8.100699e+00    3.471052e+00
  8.116575e+00    3.469987e+00
  8.132450e+00    3.499032e+00
  8.148326e+00    3.507923e+00
  8.164201e+00    3.475062e+00
  8.180077e+00    3.451813e+00
  8.195952e+00    3.450065e+00
  8.211828e+00    3.514590e+00
  8.227704e+00    3.571702e+00
  8.243579e+00    3.493895e+00
  8.259455e+00    3.455380e+00
  8.275330e+00    3.538471e+00
  8.291206e+00    3.451668e+00
  8.307081e+00    3.410518e+00
  8.322957e+00    3.487154e+00
  8.338833e+00    3.465625e+00
  8.354708e+00    3.417739e+00
  8.370584e+00    3.421423e+00
  8.386459e+00    3.472045e+00
  8.402335e+00    3.486586e+00
  8.418210e+00    3.410883e+00
  8.434086e+00    3.398284e+00
  8.449962e+00    3.399134e+00
  8.465837e+00    3.394917e+00
  8.481713e+00    3.378241e+00
  8.497588e+00    3.377222e+00
  8.513464e+00    3.396586e+00
  8.529339e+00    3.359103e+00
  8.545215e+00    3.427663e+00
  8.561091e+00    3.449444e+00
  8.576966e+00    3.406566e+00
  8.592842e+00    3.359128e+00
  8.608717e+00    3.341859e+00
  8.624593e+00    3.364166e+00
  8.640468e+00    3.345147e+00
  8.656344e+00    3.289797e+00
  8.672220e+00    3.337159e+00
  8.688095e+00    3.349694e+00
  8.703971e+00    3.341569e+00
  8.719846e+00    3.378499e+00
  8.735722e+00    3.391570e+00
  8.751598e+00    3.369219e+00
  8.767473e+00    3.368381e+00
  8.783349e+00    3.387006e+00
  8.799224e+00    3.327967e+00
  8.815100e+00    3.320769e+00
  8.830975e+00    3.295391e+00
  8.846851e+00    3.259907e+00
  8.862727e+00    3.260165e+00
  8.878602e+00    3.268453e+00
  8.894478e+00    3.253555e+00
  8.910353e+00    3.287948e+00
  8.926229e+00    3.324718e+00
  8.942104e+00    3.330292e+00
  8.957980e+00    3.300253e+00
  8.973856e+00    3.296959e+00
  8.989731e+00    3.313474e+00
  9.005607e+00    3.302308e+00
  9.021482e+00    3.258656e+00
  9.037358e+00    3.294007e+00
  9.053233e+00    3.334604e+00
  9.069109e+00    3.348078e+00
  9.084985e+00    3.321948e+00
  9.100860e+00    3.293264e+00
  9.116736e+00    3.277062e+00
  9.132611e+00    3.268819e+00
  9.148487e+00    3.233977e+00
  9.164362e+00    3.297235e+00
  9.180238e+00    3.301062e+00
  9.196114e+00    3.246478e+00
  9.211989e+00    3.255896e+00
  9.227865e+00    3.222743e+00
  9.243740e+00    3.203820e+00
  9.259616e+00    3.220485e+00
  9.275491e+00    3.245055e+00
  9.291367e+00    3.229202e+00
  9.307243e+00    3.211359e+00
  9.323118e+00    3.231212e+00
  9.338994e+00    3.250836e+00
  9.354869e+00    3.274616e+00
  9.370745e+00    3.257978e+00
  9.386620e+00    3.243803e+00
  9.402496e+00    3.264229e+00
  9.418372e+00    3.229256e+00
  9.434247e+00    3.226264e+00
  9.450123e+00    3.229302e+00
  9.465998e+00    3.245487e+00
  9.481874e+00    3.248562e+00
  9.497749e+00    3.232744e+00
  9.513625e+00    3.229259e+00
  9.529501e+00    3.230451e+00
  9.545376e+00    3.257652e+00
  9.561252e+00    3.244043e+00
  9.577127e+00    3.219573e+00
  9.593003e+00    3.240847e+00
  9.608878e+00    3.240998e+00
  9.624754e+00    3.205614e+00
  9.640630e+00    3.165150e+00
  9.656505e+00    3.155312e+00
  9.672381e+00    3.176211e+00
  9.688256e+00    3.166553e+00
  9.704132e+00    3.188349e+00
  9.720008e+00    3.153782e+00
  9.735883e+00    3.153518e+00
  9.751759e+00    3.181810e+00
  9.767634e+00    3.254025e+00
  9.783510e+00    3.242196e+00
  9.799385e+00    3.160098e+00
  9.815261e+00    3.128809e+00
  9.831137e+00    3.042733e+00
  9.847012e+00    3.056069e+00
  9.862888e+00    3.141618e+00
  9.878763e+00    3.140544e+00
  9.894639e+00    3.180319e+00
  9.910514e+00    3.156581e+00
  9.926390e+00    3.160389e+00
  9.942266e+00    3.146790e+00
  9.958141e+00    3.138493e+00
  9.974017e+00    3.101233e+00
  9.989892e+00    3.106064e+00
  1.000577e+01    3.182624e+00
  1.002164e+01    3.119111e+00
  1.003752e+01    3.126820e+00
  1.005339e+01    3.145429e+00
  1.006927e+01    3.109267e+00
  1.008515e+01    3.101809e+00
  1.010102e+01    3.140452e+00
  1.011690e+01    3.043233e+00
  1.013277e+01    3.070217e+00
  1.014865e+01    3.108029e+00
  1.016452e+01    3.053202e+00
  1.018040e+01    3.096155e+00
  1.019627e+01    3.081025e+00
  1.021215e+01    3.052464e+00
  1.022803e+01    3.073693e+00
  1.024390e+01    3.113319e+00
  1.025978e+01    3.081823e+00
  1.027565e+01    3.109614e+00
  1.029153e+01    3.115533e+00
  1.030740e+01    3.122263e+00
  1.032328e+01    3.097612e+00
  1.033915e+01    3.057214e+00
  1.035503e+01    3.055249e+00
  1.037091e+01    3.029574e+00
  1.038678e+01    3.040440e+00
  1.040266e+01    3.072029e+00
  1.041853e+01    3.083957e+00
  1.043441e+01    3.064461e+00
  1.045028e+01    3.063555e+00
  1.046616e+01    3.034255e+00
  1.048204e+01    3.056206e+00
  1.049791e+01    3.057908e+00
  1.051379e+01    2.995395e+00
  1.052966e+01    2.999640e+00
  1.054554e+01    3.035496e+00
  1.056141e+01    2.980077e+00
  1.057729e+01    3.015298e+00
  1.059316e+01    2.992873e+00
  1.060904e+01    2.997478e+00
  1.062492e+01    2.999192e+00
  1.064079e+01    2.995550e+00
  1.065667e+01    2.939821e+00
  1.067254e+01    2.960348e+00
  1.068842e+01    3.016968e+00
  1.070429e+01    2.969116e+00
  1.072017e+01    2.992624e+00
  1.073604e+01    2.974511e+00
  1.075192e+01    2.956913e+00
  1.076780e+01    2.920476e+00
  1.078367e+01    2.932445e+00
  1.079955e+01    2.889590e+00
  1.081542e+01    2.922478e+00
  1.083130e+01    2.953765e+00
  1.084717e+01    3.016655e+00
  1.086305e+01    2.976358e+00
  1.087892e+01    2.986679e+00
  1.089480e+01    2.995225e+00
  1.091068e+01    2.974834e+00
  1.092655e+01    2.934919e+00
  1.094243e+01    2.939891e+00
  1.095830e+01    2.930152e+00
  1.097418e+01    2.930159e+00
  1.099005e+01    2.860516e+00
  1.100593e+01    2.865272e+00
  1.102180e+01    2.898150e+00
  1.103768e+01    2.868325e+00
  1.105356e+01    2.856446e+00
  1.106943e+01    2.887037e+00
  1.108531e+01    2.871600e+00
  1.110118e+01    2.921654e+00
  1.111706e+01    2.919404e+00
  1.113293e+01    2.896489e+00
  1.114881e+01    2.857639e+00
  1.116468e+01    2.847742e+00
  1.118056e+01    2.876946e+00
  1.119644e+01    2.929892e+00
  1.121231e+01    2.865741e+00
  1.122819e+01    2.876691e+00
  1.124406e+01    2.896610e+00
  1.125994e+01    2.862829e+00
  1.127581e+01    2.891350e+00
  1.129169e+01    2.846521e+00
  1.130756e+01    2.829933e+00
  1.132344e+01    2.851945e+00
  1.133932e+01    2.847860e+00
  1.135519e+01    2.839522e+00
  1.137107e+01    2.812299e+00
  1.138694e+01    2.772977e+00
  1.140282e+01    2.850100e+00
  1.141869e+01    2.859970e+00
  1.143457e+01    2.903440e+00
  1.145045e+01    2.886448e+00
  1.146632e+01    2.838759e+00
  1.148220e+01    2.817200e+00
  1.149807e+01    2.832366e+00
  1.151395e+01    2.824661e+00
  1.152982e+01    2.851243e+00
  1.154570e+01    2.846288e+00
  1.156157e+01    2.812944e+00
  1.157745e+01    2.806334e+00
  1.159333e+01    2.782347e+00
  1.160920e+01    2.767797e+00
  1.162508e+01    2.821317e+00
  1.164095e+01    2.802619e+00
  1.165683e+01    2.789889e+00
  1.167270e+01    2.771607e+00
  1.168858e+01    2.746826e+00
  1.170445e+01    2.772162e+00
  1.172033e+01    2.797504e+00
  1.173621e+01    2.757301e+00
  1.175208e+01    2.766393e+00
  1.176796e+01    2.732486e+00
  1.178383e+01    2.724194e+00
  1.179971e+01    2.731107e+00
  1.181558e+01    2.721782e+00
  1.183146e+01    2.776552e+00
  1.184733e+01    2.773208e+00
  1.186321e+01    2.763526e+00
  1.187909e+01    2.710591e+00
  1.189496e+01    2.739765e+00
  1.191084e+01    2.760899e+00
  1.192671e+01    2.742509e+00
  1.194259e+01    2.733435e+00
  1.195846e+01    2.718102e+00
  1.197434e+01    2.728723e+00
  1.199021e+01    2.661039e+00
  1.200609e+01    2.712291e+00
  1.202197e+01    2.693955e+00
  1.203784e+01    2.703371e+00
  1.205372e+01    2.701632e+00
  1.206959e+01    2.758805e+00
  1.208547e+01    2.767212e+00
  1.210134e+01    2.764650e+00
  1.211722e+01    2.746490e+00
  1.213309e+01    2.718719e+00
  1.214897e+01    2.727683e+00
  1.216485e+01    2.674495e+00
  1.218072e+01    2.696876e+00
  1.219660e+01    2.741903e+00
  1.221247e+01    2.698637e+00
  1.222835e+01    2.717391e+00
  1.224422e+01    2.717189e+00
  1.226010e+01    2.707476e+00
  1.227597e+01    2.724592e+00
  1.229185e+01    2.690757e+00
  1.230773e+01    2.673738e+00
  1.232360e+01    2.648426e+00
  1.233948e+01    2.684192e+00
  1.235535e+01    2.689108e+00
  1.237123e+01    2.708679e+00
  1.238710e+01    2.722664e+00
  1.240298e+01    2.694174e+00
  1.241886e+01    2.670377e+00
  1.243473e+01    2.633558e+00
  1.245061e+01    2.727061e+00
  1.246648e+01    2.717757e+00
  1.248236e+01    2.753161e+00
  1.249823e+01    2.725853e+00
  1.251411e+01    2.696550e+00
  1.252998e+01    2.703382e+00
  1.254586e+01    2.674906e+00
  1.256174e+01    2.682504e+00
  1.257761e+01    2.715568e+00
  1.259349e+01    2.731675e+00
  1.260936e+01    2.719971e+00
  1.262524e+01    2.814031e+00
  1.264111e+01    2.784903e+00
  1.265699e+01    2.774445e+00
  1.267286e+01    2.788635e+00
  1.268874e+01    2.832320e+00
  1.270462e+01    2.889826e+00
  1.272049e+01    2.922851e+00
  1.273637e+01    2.903516e+00
  1.275224e+01    2.884554e+00
  1.276812e+01    2.921791e+00
  1.278399e+01    2.964312e+00
  1.279987e+01    3.041460e+00
  1.281574e+01    3.103014e+00
  1.283162e+01    3.137653e+00
  1.284750e+01    3.188382e+00
  1.286337e+01    3.306792e+00
  1.287925e+01    3.348564e+00
  1.289512e+01    3.462190e+00
  1.291100e+01    3.706618e+00
  1.292687e+01    3.859207e+00
  1.294275e+01    4.102273e+00
  1.295862e+01    4.453931e+00
  1.297450e+01    4.854689e+00
  1.299038e+01    5.286773e+00
  1.300625e+01    5.941482e+00
  1.302213e+01    6.788285e+00
  1.303800e+01    7.766846e+00
  1.305388e+01    9.013955e+00
  1.306975e+01    1.035779e+01
  1.308563e+01    1.154824e+01
  1.310150e+01    1.283683e+01
  1.311738e+01    1.390300e+01
  1.313326e+01    1.490456e+01
  1.314913e+01    1.584487e+01
  1.316501e+01    1.646374e+01
  1.318088e+01    1.659998e+01
  1.319676e+01    1.579233e+01
  1.321263e+01    1.443251e+01
  1.322851e+01    1.267122e+01
  1.324438e+01    1.075934e+01
  1.326026e+01    9.053576e+00
  1.327614e+01    7.835152e+00
  1.329201e+01    6.853445e+00
  1.330789e+01    6.036998e+00
  1.332376e+01    5.352296e+00
  1.333964e+01    4.860570e+00
  1.335551e+01    4.479201e+00
  1.337139e+01    4.131842e+00
  1.338727e+01    3.878186e+00
  1.340314e+01    3.687932e+00
  1.341902e+01    3.496161e+00
  1.343489e+01    3.397634e+00
  1.345077e+01    3.284073e+00
  1.346664e+01    3.098903e+00
  1.348252e+01    3.086482e+00
  1.349839e+01    3.032102e+00
  1.351427e+01    2.960756e+00
  1.353015e+01    2.925409e+00
  1.354602e+01    2.892299e+00
  1.356190e+01    2.815908e+00
  1.357777e+01    2.746498e+00
  1.359365e+01    2.726199e+00
  1.360952e+01    2.646056e+00
  1.362540e+01    2.598668e+00
  1.364127e+01    2.620443e+00
  1.365715e+01    2.668214e+00
  1.367303e+01    2.616638e+00
  1.368890e+01    2.574990e+00
  1.370478e+01    2.573175e+00
  1.372065e+01    2.585881e+00
  1.373653e+01    2.566992e+00
  1.375240e+01    2.521303e+00
  1.376828e+01    2.456129e+00
  1.378415e+01    2.451675e+00
  1.380003e+01    2.504897e+00
  1.381591e+01    2.498394e+00
  1.383178e+01    2.447113e+00
  1.384766e+01    2.438415e+00
  1.386353e+01    2.402548e+00
  1.387941e+01    2.399697e+00
  1.389528e+01    2.408371e+00
  1.391116e+01    2.417454e+00
  1.392703e+01    2.430400e+00
  1.394291e+01    2.419013e+00
  1.395879e+01    2.423902e+00
  1.397466e+01    2.401062e+00
  1.399054e+01    2.407640e+00
  1.400641e+01    2.365873e+00
  1.402229e+01    2.342590e+00
  1.403816e+01    2.362562e+00
  1.405404e+01    2.344206e+00
  1.406991e+01    2.348855e+00
  1.408579e+01    2.328887e+00
  1.410167e+01    2.348633e+00
  1.411754e+01    2.351209e+00
  1.413342e+01    2.325985e+00
  1.414929e+01    2.292160e+00
  1.416517e+01    2.328538e+00
  1.418104e+01    2.299464e+00
  1.419692e+01    2.340982e+00
  1.421279e+01    2.302977e+00
  1.422867e+01    2.336284e+00
  1.424455e+01    2.277138e+00
  1.426042e+01    2.313290e+00
  1.427630e+01    2.305143e+00
  1.429217e+01    2.300551e+00
  1.430805e+01    2.268230e+00
  1.432392e+01    2.293038e+00
  1.433980e+01    2.261272e+00
  1.435568e+01    2.233166e+00
  1.437155e+01    2.252845e+00
  1.438743e+01    2.251315e+00
  1.440330e+01    2.218404e+00
  1.441918e+01    2.254509e+00
  1.443505e+01    2.252029e+00
  1.445093e+01    2.262635e+00
  1.446680e+01    2.262209e+00
  1.448268e+01    2.216712e+00
  1.449856e+01    2.200663e+00
  1.451443e+01    2.213654e+00
  1.453031e+01    2.198188e+00
  1.454618e+01    2.234341e+00
  1.456206e+01    2.253440e+00
  1.457793e+01    2.223700e+00
  1.459381e+01    2.207737e+00
  1.460968e+01    2.208436e+00
  1.462556e+01    2.214657e+00
  1.464144e+01    2.243108e+00
  1.465731e+01    2.265173e+00
  1.467319e+01    2.245081e+00
  1.468906e+01    2.211679e+00
  1.470494e+01    2.189916e+00
  1.472081e+01    2.201207e+00
  1.473669e+01    2.199902e+00
  1.475256e+01    2.165479e+00
  1.476844e+01    2.203111e+00
  1.478432e+01    2.236938e+00
  1.480019e+01    2.228624e+00
  1.481607e+01    2.251309e+00
  1.483194e+01    2.226377e+00
  1.484782e+01    2.213096e+00
  1.486369e+01    2.231875e+00
  1.487957e+01    2.237416e+00
  1.489544e+01    2.258932e+00
  1.491132e+01    2.252127e+00
  1.492720e+01    2.259738e+00
  1.494307e+01    2.336012e+00
  1.495895e+01    2.344497e+00
  1.497482e+01    2.363449e+00
  1.499070e+01    2.380810e+00
  1.500657e+01    2.466844e+00
  1.502245e+01    2.532070e+00
  1.503832e+01    2.624712e+00
  1.505420e+01    2.729415e+00
  1.507008e+01    2.862211e+00
  1.508595e+01    2.999917e+00
  1.510183e+01    3.255951e+00
  1.511770e+01    3.552743e+00
  1.513358e+01    3.834547e+00
  1.514945e+01    4.153005e+00
  1.516533e+01    4.538999e+00
  1.518120e+01    4.944342e+00
  1.519708e+01    5.269886e+00
  1.521296e+01    5.519745e+00
  1.522883e+01    5.684708e+00
  1.524471e+01    5.820689e+00
  1.526058e+01    5.863237e+00
  1.527646e+01    5.745836e+00
  1.529233e+01    5.505440e+00
  1.530821e+01    5.153614e+00
  1.532409e+01    4.652769e+00
  1.533996e+01    4.204034e+00
  1.535584e+01    3.816552e+00
  1.537171e+01    3.469462e+00
  1.538759e+01    3.162425e+00
  1.540346e+01    2.973549e+00
  1.541934e+01    2.782123e+00
  1.543521e+01    2.685721e+00
  1.545109e+01    2.605773e+00
  1.546697e+01    2.488375e+00
  1.548284e+01    2.393015e+00
  1.549872e+01    2.347603e+00
  1.551459e+01    2.293388e+00
  1.553047e+01    2.240857e+00
  1.554634e+01    2.218007e+00
  1.556222e+01    2.196868e+00
  1.557809e+01    2.132483e+00
  1.559397e+01    2.115912e+00
  1.560985e+01    2.119225e+00
  1.562572e+01    2.091747e+00
  1.564160e+01    2.037091e+00
  1.565747e+01    2.040191e+00
  1.567335e+01    2.043001e+00
  1.568922e+01    1.999291e+00
  1.570510e+01    1.991188e+00
  1.572097e+01    1.997928e+00
  1.573685e+01    1.978028e+00
  1.575273e+01    1.988527e+00
  1.576860e+01    1.980475e+00
  1.578448e+01    1.983371e+00
  1.580035e+01    1.945566e+00
  1.581623e+01    1.937239e+00
  1.583210e+01    1.949330e+00
  1.584798e+01    1.909510e+00
  1.586385e+01    1.900382e+00
  1.587973e+01    1.907430e+00
  1.589561e+01    1.948271e+00
  1.591148e+01    1.891074e+00
  1.592736e+01    1.893524e+00
  1.594323e+01    1.903144e+00
  1.595911e+01    1.878847e+00
  1.597498e+01    1.890903e+00
  1.599086e+01    1.921815e+00
  1.600673e+01    1.925120e+00
  1.602261e+01    1.851377e+00
  1.603849e+01    1.850778e+00
  1.605436e+01    1.890110e+00
  1.607024e+01    1.859599e+00
  1.608611e+01    1.870044e+00
  1.610199e+01    1.872728e+00
  1.611786e+01    1.842059e+00
  1.613374e+01    1.835955e+00
  1.614961e+01    1.864418e+00
  1.616549e+01    1.860544e+00
  1.618137e+01    1.863873e+00
  1.619724e+01    1.842452e+00
  1.621312e+01    1.841525e+00
  1.622899e+01    1.862334e+00
  1.624487e+01    1.813194e+00
  1.626074e+01    1.808409e+00
  1.627662e+01    1.822240e+00
  1.629250e+01    1.788471e+00
  1.630837e+01    1.809133e+00
  1.632425e+01    1.811505e+00
  1.634012e+01    1.825344e+00
  1.635600e+01    1.809507e+00
  1.637187e+01    1.765822e+00
  1.638775e+01    1.774188e+00
  1.640362e+01    1.796399e+00
  1.641950e+01    1.786432e+00
  1.643538e+01    1.768435e+00
  1.645125e+01    1.785224e+00
  1.646713e+01    1.778326e+00
  1.648300e+01    1.780530e+00
  1.649888e+01    1.774810e+00
  1.651475e+01    1.777587e+00
  1.653063e+01    1.777404e+00
  1.654650e+01    1.754976e+00
  1.656238e+01    1.776332e+00
  1.657826e+01    1.755890e+00
  1.659413e+01    1.759194e+00
  1.661001e+01    1.714266e+00
  1.662588e+01    1.729263e+00
  1.664176e+01    1.740900e+00
  1.665763e+01    1.731843e+00
  1.667351e+01    1.731239e+00
  1.668938e+01    1.727512e+00
  1.670526e+01    1.739591e+00
  1.672114e+01    1.736341e+00
  1.673701e+01    1.723987e+00
  1.675289e+01    1.717939e+00
  1.676876e+01    1.699766e+00
  1.678464e+01    1.699037e+00
  1.680051e+01    1.751016e+00
  1.681639e+01    1.756395e+00
  1.683226e+01    1.730865e+00
  1.684814e+01    1.689891e+00
  1.686402e+01    1.715530e+00
  1.687989e+01    1.723966e+00
  1.689577e+01    1.687844e+00
  1.691164e+01    1.687708e+00
  1.692752e+01    1.704930e+00
  1.694339e+01    1.699787e+00
  1.695927e+01    1.686028e+00
  1.697514e+01    1.664866e+00
  1.699102e+01    1.641159e+00
  1.700690e+01    1.684295e+00
  1.702277e+01    1.688740e+00
  1.703865e+01    1.677621e+00
  1.705452e+01    1.668668e+00
  1.707040e+01    1.658406e+00
  1.708627e+01    1.662052e+00
  1.710215e+01    1.668574e+00
  1.711802e+01    1.644411e+00
  1.713390e+01    1.652443e+00
  1.714978e+01    1.666119e+00
  1.716565e+01    1.685962e+00
  1.718153e+01    1.641922e+00
  1.719740e+01    1.626636e+00
  1.721328e+01    1.648236e+00
  1.722915e+01    1.651101e+00
  1.724503e+01    1.645423e+00
  1.726091e+01    1.636703e+00
  1.727678e+01    1.635437e+00
  1.729266e+01    1.599363e+00
  1.730853e+01    1.611148e+00
  1.732441e+01    1.623363e+00
  1.734028e+01    1.620059e+00
  1.735616e+01    1.606639e+00
  1.737203e+01    1.594907e+00
  1.738791e+01    1.614606e+00
  1.740379e+01    1.614987e+00
  1.741966e+01    1.624135e+00
  1.743554e+01    1.585620e+00
  1.745141e+01    1.602748e+00
  1.746729e+01    1.589535e+00
  1.748316e+01    1.587205e+00
  1.749904e+01    1.579663e+00
  1.751491e+01    1.574188e+00
  1.753079e+01    1.556565e+00
  1.754667e+01    1.562922e+00
  1.756254e+01    1.572653e+00
  1.757842e+01    1.577474e+00
  1.759429e+01    1.569444e+00
  1.761017e+01    1.587399e+00
  1.762604e+01    1.573282e+00
  1.764192e+01    1.553457e+00
  1.765779e+01    1.570098e+00
  1.767367e+01    1.573766e+00
  1.768955e+01    1.583853e+00
  1.770542e+01    1.572632e+00
  1.772130e+01    1.545438e+00
  1.773717e+01    1.541202e+00
  1.775305e+01    1.584683e+00
  1.776892e+01    1.570749e+00
  1.778480e+01    1.530520e+00
  1.780067e+01    1.525311e+00
  1.781655e+01    1.532885e+00
  1.783243e+01    1.555171e+00
  1.784830e+01    1.502657e+00
  1.786418e+01    1.531377e+00
  1.788005e+01    1.533942e+00
  1.789593e+01    1.532070e+00
  1.791180e+01    1.538288e+00
  1.792768e+01    1.507616e+00
  1.794355e+01    1.526813e+00
  1.795943e+01    1.540083e+00
  1.797531e+01    1.542627e+00
  1.799118e+01    1.552667e+00
  1.800706e+01    1.529717e+00
  1.802293e+01    1.529768e+00
  1.803881e+01    1.519378e+00
  1.805468e+01    1.515642e+00
  1.807056e+01    1.507152e+00
  1.808643e+01    1.520661e+00
  1.810231e+01    1.497822e+00
  1.811819e+01    1.499246e+00
  1.813406e+01    1.489854e+00
  1.814994e+01    1.509966e+00
  1.816581e+01    1.522979e+00
  1.818169e+01    1.521790e+00
  1.819756e+01    1.500211e+00
  1.821344e+01    1.499069e+00
  1.822932e+01    1.492788e+00
  1.824519e+01    1.492103e+00
  1.826107e+01    1.539268e+00
  1.827694e+01    1.505129e+00
  1.829282e+01    1.483931e+00
  1.830869e+01    1.474028e+00
  1.832457e+01    1.475425e+00
  1.834044e+01    1.456543e+00
  1.835632e+01    1.439721e+00
  1.837220e+01    1.470358e+00
  1.838807e+01    1.462132e+00
  1.840395e+01    1.482366e+00
  1.841982e+01    1.482575e+00
  1.843570e+01    1.447431e+00
  1.845157e+01    1.483223e+00
  1.846745e+01    1.461319e+00
  1.848332e+01    1.451431e+00
  1.849920e+01    1.466345e+00
  1.851508e+01    1.442714e+00
  1.853095e+01    1.426534e+00
  1.854683e+01    1.415051e+00
  1.856270e+01    1.434117e+00
  1.857858e+01    1.458578e+00
  1.859445e+01    1.416072e+00
  1.861033e+01    1.436193e+00
  1.862620e+01    1.454198e+00
  1.864208e+01    1.429975e+00
  1.865796e+01    1.422807e+00
  1.867383e+01    1.417290e+00
  1.868971e+01    1.453244e+00
  1.870558e+01    1.446923e+00
  1.872146e+01    1.435649e+00
  1.873733e+01    1.414318e+00
  1.875321e+01    1.409649e+00
  1.876908e+01    1.428375e+00
  1.878496e+01    1.439420e+00
  1.880084e+01    1.447210e+00
  1.881671e+01    1.447180e+00
  1.883259e+01    1.423798e+00
  1.884846e+01    1.419920e+00
  1.886434e+01    1.400989e+00
  1.888021e+01    1.379895e+00
  1.889609e+01    1.360756e+00
  1.891196e+01    1.371059e+00
  1.892784e+01    1.405302e+00
  1.894372e+01    1.409721e+00
  1.895959e+01    1.402801e+00
  1.897547e+01    1.406381e+00
  1.899134e+01    1.363005e+00
  1.900722e+01    1.384566e+00
  1.902309e+01    1.402421e+00
  1.903897e+01    1.384400e+00
  1.905484e+01    1.376406e+00
  1.907072e+01    1.414543e+00
  1.908660e+01    1.415693e+00
  1.910247e+01    1.372291e+00
  1.911835e+01    1.371752e+00
  1.913422e+01    1.368700e+00
  1.915010e+01    1.368946e+00
  1.916597e+01    1.405558e+00
  1.918185e+01    1.380991e+00
  1.919773e+01    1.365667e+00
  1.921360e+01    1.372112e+00
  1.922948e+01    1.375153e+00
  1.924535e+01    1.386826e+00
  1.926123e+01    1.395243e+00
  1.927710e+01    1.392168e+00
  1.929298e+01    1.377319e+00
  1.930885e+01    1.394922e+00
  1.932473e+01    1.388177e+00
  1.934061e+01    1.369254e+00
  1.935648e+01    1.355437e+00
  1.937236e+01    1.350134e+00
  1.938823e+01    1.367551e+00
  1.940411e+01    1.356195e+00
  1.941998e+01    1.350559e+00
  1.943586e+01    1.336222e+00
  1.945173e+01    1.347464e+00
  1.946761e+01    1.355837e+00
  1.948349e+01    1.354674e+00
  1.949936e+01    1.336842e+00
  1.951524e+01    1.352153e+00
  1.953111e+01    1.350776e+00
  1.954699e+01    1.352513e+00
  1.956286e+01    1.335631e+00
  1.957874e+01    1.313109e+00
  1.959461e+01    1.318446e+00
  1.961049e+01    1.306839e+00
  1.962637e+01    1.310168e+00
  1.964224e+01    1.317184e+00
  1.965812e+01    1.321272e+00
  1.967399e+01    1.342726e+00
  1.968987e+01    1.337407e+00
  1.970574e+01    1.313668e+00
  1.972162e+01    1.287978e+00
  1.973749e+01    1.288959e+00
  1.975337e+01    1.309100e+00
  1.976925e+01    1.311307e+00
  1.978512e+01    1.293094e+00
  1.980100e+01    1.313546e+00
  1.981687e+01    1.336321e+00
  1.983275e+01    1.322650e+00
  1.984862e+01    1.308264e+00
  1.986450e+01    1.307320e+00
  1.988037e+01    1.291622e+00
  1.989625e+01    1.266791e+00
  1.991213e+01    1.283026e+00
  1.992800e+01    1.299788e+00
  1.994388e+01    1.295093e+00
  1.995975e+01    1.293756e+00
  1.997563e+01    1.305954e+00
  1.999150e+01    1.282367e+00
  2.000738e+01    1.267819e+00
  2.002325e+01    1.289339e+00
  2.003913e+01    1.270688e+00
  2.005501e+01    1.263277e+00
  2.007088e+01    1.279618e+00
  2.008676e+01    1.300533e+00
  2.010263e+01    1.267910e+00
  2.011851e+01    1.268285e+00
  2.013438e+01    1.282835e+00
  2.015026e+01    1.279509e+00
  2.016614e+01    1.265260e+00
  2.018201e+01    1.267079e+00
  2.019789e+01    1.252253e+00
  2.021376e+01    1.240371e+00
  2.022964e+01    1.259629e+00
  2.024551e+01    1.278045e+00
  2.026139e+01    1.257365e+00
  2.027726e+01    1.260196e+00
  2.029314e+01    1.265941e+00
  2.030902e+01    1.279953e+00
  2.032489e+01    1.256375e+00
  2.034077e+01    1.278429e+00
  2.035664e+01    1.266066e+00
  2.037252e+01    1.257833e+00
  2.038839e+01    1.258060e+00
  2.040427e+01    1.254818e+00
  2.042014e+01    1.256485e+00
  2.043602e+01    1.237115e+00
  2.045190e+01    1.231950e+00
  2.046777e+01    1.232198e+00
  2.048365e+01    1.260397e+00
  2.049952e+01    1.266323e+00
  2.051540e+01    1.268976e+00
  2.053127e+01    1.222212e+00
  2.054715e+01    1.235155e+00
  2.056302e+01    1.251219e+00
  2.057890e+01    1.257073e+00
  2.059478e+01    1.249524e+00
  2.061065e+01    1.275862e+00
  2.062653e+01    1.282267e+00
  2.064240e+01    1.235048e+00
  2.065828e+01    1.230204e+00
  2.067415e+01    1.252291e+00
  2.069003e+01    1.235666e+00
  2.070590e+01    1.218769e+00
  2.072178e+01    1.214998e+00
  2.073766e+01    1.242763e+00
  2.075353e+01    1.252385e+00
  2.076941e+01    1.255358e+00
  2.078528e+01    1.239300e+00
  2.080116e+01    1.215197e+00
  2.081703e+01    1.243191e+00
  2.083291e+01    1.250566e+00
  2.084878e+01    1.230742e+00
  2.086466e+01    1.209675e+00
  2.088054e+01    1.214874e+00
  2.089641e+01    1.230465e+00
  2.091229e+01    1.236418e+00
  2.092816e+01    1.210587e+00
  2.094404e+01    1.224006e+00
  2.095991e+01    1.236838e+00
  2.097579e+01    1.241879e+00
  2.099166e+01    1.239947e+00
  2.100754e+01    1.211464e+00
  2.102342e+01    1.230913e+00
  2.103929e+01    1.252619e+00
  2.105517e+01    1.237036e+00
  2.107104e+01    1.221660e+00
  2.108692e+01    1.231561e+00
  2.110279e+01    1.260195e+00
  2.111867e+01    1.241101e+00
  2.113455e+01    1.220421e+00
  2.115042e+01    1.212051e+00
  2.116630e+01    1.229619e+00
  2.118217e+01    1.237095e+00
  2.119805e+01    1.236930e+00
  2.121392e+01    1.268691e+00
  2.122980e+01    1.286148e+00
  2.124567e+01    1.269878e+00
  2.126155e+01    1.277223e+00
  2.127743e+01    1.252506e+00
  2.129330e+01    1.267766e+00
  2.130918e+01    1.262639e+00
  2.132505e+01    1.289042e+00
  2.134093e+01    1.278369e+00
  2.135680e+01    1.281255e+00
  2.137268e+01    1.290561e+00
  2.138855e+01    1.308674e+00
  2.140443e+01    1.329857e+00
  2.142031e+01    1.334527e+00
  2.143618e+01    1.361876e+00
  2.145206e+01    1.354795e+00
  2.146793e+01    1.396779e+00
  2.148381e+01    1.393604e+00
  2.149968e+01    1.402224e+00
  2.151556e+01    1.455990e+00
  2.153143e+01    1.504864e+00
  2.154731e+01    1.509100e+00
  2.156319e+01    1.539764e+00
  2.157906e+01    1.618001e+00
  2.159494e+01    1.697585e+00
  2.161081e+01    1.784639e+00
  2.162669e+01    1.886324e+00
  2.164256e+01    1.970297e+00
  2.165844e+01    2.125498e+00
  2.167431e+01    2.317136e+00
  2.169019e+01    2.503162e+00
  2.170607e+01    2.780133e+00
  2.172194e+01    3.129998e+00
  2.173782e+01    3.538758e+00
  2.175369e+01    4.150846e+00
  2.176957e+01    4.638258e+00
  2.178544e+01    5.251857e+00
  2.180132e+01    5.930582e+00
  2.181719e+01    6.574491e+00
  2.183307e+01    7.261614e+00
  2.184895e+01    7.937397e+00
  2.186482e+01    8.480827e+00
  2.188070e+01    8.855848e+00
  2.189657e+01    9.006275e+00
  2.191245e+01    8.804527e+00
  2.192832e+01    8.297354e+00
  2.194420e+01    7.603061e+00
  2.196007e+01    6.666656e+00
  2.197595e+01    5.732573e+00
  2.199183e+01    4.899157e+00
  2.200770e+01    4.237703e+00
  2.202358e+01    3.627301e+00
  2.203945e+01    3.204139e+00
  2.205533e+01    2.883928e+00
  2.207120e+01    2.590819e+00
  2.208708e+01    2.333946e+00
  2.210296e+01    2.101689e+00
  2.211883e+01    1.966841e+00
  2.213471e+01    1.915944e+00
  2.215058e+01    1.797208e+00
  2.216646e+01    1.729359e+00
  2.218233e+01    1.644926e+00
  2.219821e+01    1.587060e+00
  2.221408e+01    1.516768e+00
  2.222996e+01    1.449023e+00
  2.224584e+01    1.417246e+00
  2.226171e+01    1.406713e+00
  2.227759e+01    1.359353e+00
  2.229346e+01    1.331741e+00
  2.230934e+01    1.280913e+00
  2.232521e+01    1.251531e+00
  2.234109e+01    1.260117e+00
  2.235696e+01    1.232503e+00
  2.237284e+01    1.221828e+00
  2.238872e+01    1.220628e+00
  2.240459e+01    1.209973e+00
  2.242047e+01    1.190145e+00
  2.243634e+01    1.178088e+00
  2.245222e+01    1.171841e+00
  2.246809e+01    1.188411e+00
  2.248397e+01    1.175660e+00
  2.249984e+01    1.159624e+00
  2.251572e+01    1.146324e+00
  2.253160e+01    1.141714e+00
  2.254747e+01    1.106204e+00
  2.256335e+01    1.137740e+00
  2.257922e+01    1.117625e+00
  2.259510e+01    1.102666e+00
  2.261097e+01    1.096165e+00
  2.262685e+01    1.080061e+00
  2.264272e+01    1.094935e+00
  2.265860e+01    1.103357e+00
  2.267448e+01    1.101415e+00
  2.269035e+01    1.085985e+00
  2.270623e+01    1.077726e+00
  2.272210e+01    1.069012e+00
  2.273798e+01    1.063216e+00
  2.275385e+01    1.078018e+00
  2.276973e+01    1.080198e+00
  2.278560e+01    1.077445e+00
  2.280148e+01    1.064485e+00
  2.281736e+01    1.073308e+00
  2.283323e+01    1.074239e+00
  2.284911e+01    1.063821e+00
  2.286498e+01    1.082185e+00
  2.288086e+01    1.072716e+00
  2.289673e+01    1.069910e+00
  2.291261e+01    1.051132e+00
  2.292848e+01    1.040932e+00
  2.294436e+01    1.047387e+00
  2.296024e+01    1.039917e+00
  2.297611e+01    1.035781e+00
  2.299199e+01    1.039389e+00
  2.300786e+01    1.031480e+00
  2.302374e+01    1.043854e+00
  2.303961e+01    1.036744e+00
  2.305549e+01    1.014578e+00
  2.307137e+01    9.987663e-01
  2.308724e+01    1.011779e+00
  2.310312e+01    1.006991e+00
  2.311899e+01    1.011047e+00
  2.313487e+01    1.013245e+00
  2.315074e+01    9.894375e-01
  2.316662e+01    9.956239e-01
  2.318249e+01    1.012066e+00
  2.319837e+01    9.934490e-01
  2.321425e+01    9.788668e-01
  2.323012e+01    9.901185e-01
  2.324600e+01    9.888852e-01
  2.326187e+01    9.945804e-01
  2.327775e+01    9.894339e-01
  2.329362e+01    9.752821e-01
  2.330950e+01    9.870574e-01
  2.332537e+01    9.908698e-01
  2.334125e+01    9.777582e-01
  2.335713e+01    9.762251e-01
  2.337300e+01    9.670587e-01
  2.338888e+01    9.622287e-01
  2.340475e+01    9.734741e-01
  2.342063e+01    9.756202e-01
  2.343650e+01    9.575144e-01
  2.345238e+01    9.621857e-01
  2.346825e+01    9.820650e-01
  2.348413e+01    9.589311e-01
  2.350001e+01    9.671304e-01
  2.351588e+01    9.925464e-01
  2.353176e+01    9.773632e-01
  2.354763e+01    9.572347e-01
  2.356351e+01    9.591760e-01
  2.357938e+01    9.763980e-01
  2.359526e+01    9.699660e-01
  2.361113e+01    9.677545e-01
  2.362701e+01    9.599279e-01
  2.364289e+01    9.642258e-01
  2.365876e+01    9.501097e-01
  2.367464e+01    9.667913e-01
  2.369051e+01    9.690346e-01
  2.370639e+01    9.408161e-01
  2.372226e+01    9.214656e-01
  2.373814e+01    9.182371e-01
  2.375401e+01    9.452639e-01
  2.376989e+01    9.441179e-01
  2.378577e+01    9.331856e-01
  2.380164e+01    9.428746e-01
  2.381752e+01    9.237044e-01
  2.383339e+01    9.091341e-01
  2.384927e+01    9.443138e-01
  2.386514e+01    9.291579e-01
  2.388102e+01    9.157300e-01
  2.389689e+01    9.067845e-01
  2.391277e+01    9.093020e-01
  2.392865e+01    9.133327e-01
  2.394452e+01    9.033435e-01
  2.396040e+01    9.036169e-01
  2.397627e+01    9.015345e-01
  2.399215e+01    9.034181e-01
  2.400802e+01    9.126439e-01
  2.402390e+01    9.091130e-01
  2.403978e+01    9.206124e-01
  2.405565e+01    9.180982e-01
  2.407153e+01    8.898014e-01
  2.408740e+01    8.798745e-01
  2.410328e+01    8.775446e-01
  2.411915e+01    8.574418e-01
  2.413503e+01    8.816688e-01
  2.415090e+01    8.848636e-01
  2.416678e+01    8.737355e-01
  2.418266e+01    8.889798e-01
  2.419853e+01    8.770480e-01
  2.421441e+01    8.619023e-01
  2.423028e+01    8.946347e-01
  2.424616e+01    8.891522e-01
  2.426203e+01    9.092820e-01
  2.427791e+01    9.028276e-01
  2.429378e+01    9.074630e-01
  2.430966e+01    8.793265e-01
  2.432554e+01    8.737226e-01
  2.434141e+01    9.089618e-01
  2.435729e+01    9.002572e-01
  2.437316e+01    8.923767e-01
  2.438904e+01    9.084889e-01
  2.440491e+01    8.999873e-01
  2.442079e+01    8.959795e-01
  2.443666e+01    8.960216e-01
  2.445254e+01    8.832889e-01
  2.446842e+01    9.037802e-01
  2.448429e+01    8.791306e-01
  2.450017e+01    8.903458e-01
  2.451604e+01    8.924113e-01
  2.453192e+01    8.748662e-01
  2.454779e+01    8.909586e-01
  2.456367e+01    9.020752e-01
  2.457954e+01    8.823476e-01
  2.459542e+01    8.805147e-01
  2.461130e+01    8.733202e-01
  2.462717e+01    8.843641e-01
  2.464305e+01    8.960392e-01
  2.465892e+01    9.040280e-01
  2.467480e+01    9.245778e-01
  2.469067e+01    9.214395e-01
  2.470655e+01    9.122006e-01
  2.472242e+01    9.072894e-01
  2.473830e+01    9.005213e-01
  2.475418e+01    9.046873e-01
  2.477005e+01    9.035131e-01
  2.478593e+01    8.856930e-01
  2.480180e+01    9.013873e-01
  2.481768e+01    8.960270e-01
  2.483355e+01    8.888894e-01
  2.484943e+01    9.062642e-01
  2.486530e+01    8.984023e-01
  2.488118e+01    8.952258e-01
  2.489706e+01    9.048042e-01
  2.491293e+01    8.948699e-01
  2.492881e+01    9.049298e-01
  2.494468e+01    9.080856e-01
  2.496056e+01    9.000472e-01
  2.497643e+01    8.977625e-01
  2.499231e+01    8.890939e-01
  2.500819e+01    8.913766e-01
  2.502406e+01    9.054061e-01
  2.503994e+01    9.184551e-01
  2.505581e+01    9.056334e-01
  2.507169e+01    9.023035e-01
  2.508756e+01    8.868545e-01
  2.510344e+01    8.980827e-01
  2.511931e+01    8.983269e-01
  2.513519e+01    9.193169e-01
  2.515107e+01    9.284770e-01
  2.516694e+01    9.223328e-01
  2.518282e+01    9.163479e-01
  2.519869e+01    9.253114e-01
  2.521457e+01    9.205512e-01
  2.523044e+01    9.378176e-01
  2.524632e+01    9.262141e-01
  2.526219e+01    9.253596e-01
  2.527807e+01    9.432309e-01
  2.529395e+01    9.458352e-01
  2.530982e+01    9.573405e-01
  2.532570e+01    9.533982e-01
  2.534157e+01    9.617755e-01
  2.535745e+01    9.703376e-01
  2.537332e+01    9.719458e-01
  2.538920e+01    9.865369e-01
  2.540507e+01    9.879683e-01
  2.542095e+01    9.898037e-01
  2.543683e+01    1.019723e+00
  2.545270e+01    1.020188e+00
  2.546858e+01    1.023640e+00
  2.548445e+01    1.029665e+00
  2.550033e+01    1.045791e+00
  2.551620e+01    1.068497e+00
  2.553208e+01    1.081677e+00
  2.554795e+01    1.110661e+00
  2.556383e+01    1.137446e+00
  2.557971e+01    1.170977e+00
  2.559558e+01    1.186051e+00
  2.561146e+01    1.237652e+00
  2.562733e+01    1.287632e+00
  2.564321e+01    1.343826e+00
  2.565908e+01    1.370890e+00
  2.567496e+01    1.435376e+00
  2.569083e+01    1.504794e+00
  2.570671e+01    1.596252e+00
  2.572259e+01    1.732294e+00
  2.573846e+01    1.872297e+00
  2.575434e+01    2.015451e+00
  2.577021e+01    2.255254e+00
  2.578609e+01    2.495985e+00
  2.580196e+01    2.849417e+00
  2.581784e+01    3.266777e+00
  2.583371e+01    3.701332e+00
  2.584959e+01    4.220680e+00
  2.586547e+01    4.755402e+00
  2.588134e+01    5.317133e+00
  2.589722e+01    5.885128e+00
  2.591309e+01    6.398700e+00
  2.592897e+01    6.841344e+00
  2.594484e+01    7.144494e+00
  2.596072e+01    7.174619e+00
  2.597660e+01    7.021608e+00
  2.599247e+01    6.602893e+00
  2.600835e+01    6.037498e+00
  2.602422e+01    5.375952e+00
  2.604010e+01    4.621775e+00
  2.605597e+01    4.003800e+00
  2.607185e+01    3.468140e+00
  2.608772e+01    3.022351e+00
  2.610360e+01    2.653490e+00
  2.611948e+01    2.353346e+00
  2.613535e+01    2.143028e+00
  2.615123e+01    1.965335e+00
  2.616710e+01    1.800794e+00
  2.618298e+01    1.663874e+00
  2.619885e+01    1.588946e+00
  2.621473e+01    1.506292e+00
  2.623060e+01    1.434837e+00
  2.624648e+01    1.352413e+00
  2.626236e+01    1.290355e+00
  2.627823e+01    1.241258e+00
  2.629411e+01    1.207242e+00
  2.630998e+01    1.164687e+00
  2.632586e+01    1.154817e+00
  2.634173e+01    1.129752e+00
  2.635761e+01    1.114023e+00
  2.637348e+01    1.085594e+00
  2.638936e+01    1.071270e+00
  2.640524e+01    1.036712e+00
  2.642111e+01    1.028455e+00
  2.643699e+01    1.045635e+00
  2.645286e+01    1.047869e+00
  2.646874e+01    1.037915e+00
  2.648461e+01    1.014841e+00
  2.650049e+01    1.013469e+00
  2.651636e+01    1.036448e+00
  2.653224e+01    1.020233e+00
  2.654812e+01    9.939947e-01
  2.656399e+01    1.005380e+00
  2.657987e+01    9.708716e-01
  2.659574e+01    9.821991e-01
  2.661162e+01    9.899644e-01
  2.662749e+01    9.794672e-01
  2.664337e+01    9.863675e-01
  2.665924e+01    1.004224e+00
  2.667512e+01    9.955777e-01
  2.669100e+01    9.894389e-01
  2.670687e+01    9.977028e-01
  2.672275e+01    9.775408e-01
  2.673862e+01    9.810700e-01
  2.675450e+01    9.885277e-01
  2.677037e+01    9.897550e-01
  2.678625e+01    9.828600e-01
  2.680212e+01    9.721815e-01
  2.681800e+01    9.927010e-01
  2.683388e+01    9.837604e-01
  2.684975e+01    9.744408e-01
  2.686563e+01    9.922377e-01
  2.688150e+01    9.924651e-01
  2.689738e+01    9.903297e-01
  2.691325e+01    1.020955e+00
  2.692913e+01    1.020860e+00
  2.694501e+01    1.024689e+00
  2.696088e+01    1.047641e+00
  2.697676e+01    1.082050e+00
  2.699263e+01    1.104226e+00
  2.700851e+01    1.104352e+00
  2.702438e+01    1.138174e+00
  2.704026e+01    1.175630e+00
  2.705613e+01    1.251220e+00
  2.707201e+01    1.332345e+00
  2.708789e+01    1.406879e+00
  2.710376e+01    1.506313e+00
  2.711964e+01    1.619358e+00
  2.713551e+01    1.762919e+00
  2.715139e+01    1.913024e+00
  2.716726e+01    1.996543e+00
  2.718314e+01    2.107096e+00
  2.719901e+01    2.157587e+00
  2.721489e+01    2.203135e+00
  2.723077e+01    2.172390e+00
  2.724664e+01    2.104300e+00
  2.726252e+01    1.959977e+00
  2.727839e+01    1.815968e+00
  2.729427e+01    1.726515e+00
  2.731014e+01    1.574948e+00
  2.732602e+01    1.452857e+00
  2.734189e+01    1.365929e+00
  2.735777e+01    1.266783e+00
  2.737365e+01    1.213551e+00
  2.738952e+01    1.154975e+00
  2.740540e+01    1.142079e+00
  2.742127e+01    1.100606e+00
  2.743715e+01    1.076165e+00
  2.745302e+01    1.048970e+00
  2.746890e+01    1.022308e+00
  2.748477e+01    1.021114e+00
  2.750065e+01    1.004457e+00
  2.751653e+01    9.871463e-01
  2.753240e+01    9.647098e-01
  2.754828e+01    9.537828e-01
  2.756415e+01    9.398660e-01
  2.758003e+01    9.478129e-01
  2.759590e+01    9.573829e-01
  2.761178e+01    9.459378e-01
  2.762765e+01    9.277532e-01
  2.764353e+01    9.357632e-01
  2.765941e+01    9.339972e-01
  2.767528e+01    9.278260e-01
  2.769116e+01    9.080707e-01
  2.770703e+01    8.986733e-01
  2.772291e+01    9.225232e-01
  2.773878e+01    9.303417e-01
  2.775466e+01    9.258716e-01
  2.777054e+01    9.015661e-01
  2.778641e+01    8.724219e-01
  2.780229e+01    8.830306e-01
  2.781816e+01    8.959814e-01
  2.783404e+01    8.855407e-01
  2.784991e+01    8.777381e-01
  2.786579e+01    8.854864e-01
  2.788166e+01    8.890381e-01
  2.789754e+01    8.929124e-01
  2.791342e+01    8.771676e-01
  2.792929e+01    8.861644e-01
  2.794517e+01    8.822253e-01
  2.796104e+01    8.474962e-01
  2.797692e+01    8.806331e-01
  2.799279e+01    8.853534e-01
  2.800867e+01    8.684999e-01
  2.802454e+01    8.737811e-01
  2.804042e+01    8.762092e-01
  2.805630e+01    8.554955e-01
  2.807217e+01    8.751425e-01
  2.808805e+01    8.674348e-01
  2.810392e+01    8.766583e-01
  2.811980e+01    8.774566e-01
  2.813567e+01    8.540891e-01
  2.815155e+01    8.660159e-01
  2.816742e+01    8.748839e-01
  2.818330e+01    8.487764e-01
  2.819918e+01    8.589448e-01
  2.821505e+01    8.615673e-01
  2.823093e+01    8.797927e-01
  2.824680e+01    8.701721e-01
  2.826268e+01    8.441513e-01
  2.827855e+01    8.614385e-01
  2.829443e+01    8.477954e-01
  2.831030e+01    8.480234e-01
  2.832618e+01    8.809488e-01
  2.834206e+01    8.528886e-01
  2.835793e+01    8.616733e-01
  2.837381e+01    8.520750e-01
  2.838968e+01    8.475910e-01
  2.840556e+01    8.476554e-01
  2.842143e+01    8.502776e-01
  2.843731e+01    8.571180e-01
  2.845318e+01    8.300127e-01
  2.846906e+01    8.149617e-01
  2.848494e+01    8.220204e-01
  2.850081e+01    8.483038e-01
  2.851669e+01    8.573146e-01
  2.853256e+01    8.553363e-01
  2.854844e+01    8.510202e-01
  2.856431e+01    8.384591e-01
  2.858019e+01    8.565751e-01
  2.859606e+01    8.472896e-01
  2.861194e+01    8.529229e-01
  2.862782e+01    8.206105e-01
  2.864369e+01    8.097077e-01
  2.865957e+01    8.318686e-01
  2.867544e+01    8.373380e-01
  2.869132e+01    8.438256e-01
  2.870719e+01    8.404257e-01
  2.872307e+01    8.299036e-01
  2.873895e+01    8.443521e-01
  2.875482e+01    8.396199e-01
  2.877070e+01    8.491679e-01
  2.878657e+01    8.449765e-01
  2.880245e+01    8.215215e-01
  2.881832e+01    8.056536e-01
  2.883420e+01    8.178436e-01
  2.885007e+01    8.513392e-01
  2.886595e+01    8.338221e-01
  2.888183e+01    8.179091e-01
  2.889770e+01    8.052756e-01
  2.891358e+01    8.331421e-01
  2.892945e+01    8.176144e-01
  2.894533e+01    8.226698e-01
  2.896120e+01    8.210863e-01
  2.897708e+01    8.359712e-01
  2.899295e+01    8.294687e-01
  2.900883e+01    8.275361e-01
  2.902471e+01    8.142580e-01
  2.904058e+01    8.175898e-01
  2.905646e+01    8.184381e-01
  2.907233e+01    8.246476e-01
  2.908821e+01    8.117561e-01
  2.910408e+01    8.236614e-01
  2.911996e+01    8.405339e-01
  2.913583e+01    8.294896e-01
  2.915171e+01    8.017627e-01
  2.916759e+01    8.063748e-01
  2.918346e+01    8.452918e-01
  2.919934e+01    8.167713e-01
  2.921521e+01    8.253321e-01
  2.923109e+01    8.198123e-01
  2.924696e+01    8.096451e-01
  2.926284e+01    8.076774e-01
  2.927871e+01    8.155738e-01
  2.929459e+01    8.306471e-01
  2.931047e+01    8.133835e-01
  2.932634e+01    8.220760e-01
  2.934222e+01    8.125404e-01
  2.935809e+01    8.155828e-01
  2.937397e+01    8.071280e-01
  2.938984e+01    7.948301e-01
  2.940572e+01    8.238574e-01
  2.942159e+01    8.268740e-01
  2.943747e+01    8.092728e-01
  2.945335e+01    8.072350e-01
  2.946922e+01    8.067647e-01
  2.948510e+01    8.032172e-01
  2.950097e+01    8.103665e-01
  2.951685e+01    8.142027e-01
  2.953272e+01    7.910711e-01
  2.954860e+01    7.990261e-01
  2.956447e+01    7.975667e-01
  2.958035e+01    7.994750e-01
  2.959623e+01    8.012571e-01
  2.961210e+01    8.226988e-01
  2.962798e+01    7.914955e-01
  2.964385e+01    7.902210e-01
  2.965973e+01    7.899798e-01
  2.967560e+01    8.001856e-01
  2.969148e+01    8.257788e-01
  2.970736e+01    8.268847e-01
  2.972323e+01    8.230995e-01
  2.973911e+01    8.234550e-01
  2.975498e+01    7.978415e-01
  2.977086e+01    8.155947e-01
  2.978673e+01    8.077216e-01
  2.980261e+01    7.975560e-01
  2.981848e+01    8.021972e-01
  2.983436e+01    8.052155e-01
  2.985024e+01    7.934554e-01
  2.986611e+01    8.028714e-01
  2.988199e+01    8.064924e-01
  2.989786e+01    8.044766e-01
  2.991374e+01    7.932262e-01
  2.992961e+01    7.999029e-01
  2.994549e+01    8.073196e-01
  2.996136e+01    8.021381e-01
  2.997724e+01    8.023407e-01
  2.999312e+01    8.117579e-01
  3.000899e+01    8.169711e-01
  3.002487e+01    7.981312e-01
  3.004074e+01    8.054303e-01
  3.005662e+01    8.280621e-01
  3.007249e+01    8.403172e-01
  3.008837e+01    8.456622e-01
  3.010424e+01    8.366171e-01
  3.012012e+01    8.223829e-01
  3.013600e+01    7.908460e-01
  3.015187e+01    7.945011e-01
  3.016775e+01    8.064723e-01
  3.018362e+01    7.937739e-01
  3.019950e+01    7.871478e-01
  3.021537e+01    7.951059e-01
  3.023125e+01    7.901706e-01
  3.024712e+01    7.957136e-01
  3.026300e+01    7.793593e-01
  3.027888e+01    7.786955e-01
  3.029475e+01    7.987823e-01
  3.031063e+01    7.877111e-01
  3.032650e+01    7.939302e-01
  3.034238e+01    7.770666e-01
  3.035825e+01    8.027862e-01
  3.037413e+01    7.600929e-01
  3.039000e+01    7.732642e-01
  3.040588e+01    7.890341e-01
  3.042176e+01    7.844096e-01
  3.043763e+01    8.010775e-01
  3.045351e+01    7.891436e-01
  3.046938e+01    7.963685e-01
  3.048526e+01    7.858980e-01
  3.050113e+01    7.893313e-01
  3.051701e+01    7.852999e-01
  3.053288e+01    7.874962e-01
  3.054876e+01    7.496146e-01
  3.056464e+01    7.733755e-01
  3.058051e+01    7.715227e-01
  3.059639e+01    7.759091e-01
  3.061226e+01    7.854182e-01
  3.062814e+01    7.741984e-01
  3.064401e+01    7.985912e-01
  3.065989e+01    8.001453e-01
  3.067577e+01    8.225719e-01
  3.069164e+01    7.898757e-01
  3.070752e+01    7.802292e-01
  3.072339e+01    7.969068e-01
  3.073927e+01    7.963769e-01
  3.075514e+01    7.773514e-01
  3.077102e+01    7.597382e-01
  3.078689e+01    7.771387e-01
  3.080277e+01    7.810156e-01
  3.081865e+01    7.868760e-01
  3.083452e+01    7.906753e-01
  3.085040e+01    7.678416e-01
  3.086627e+01    7.778059e-01
  3.088215e+01    7.985642e-01
  3.089802e+01    8.000996e-01
  3.091390e+01    7.882266e-01
  3.092977e+01    7.904851e-01
  3.094565e+01    7.874467e-01
  3.096153e+01    8.025638e-01
  3.097740e+01    8.019315e-01
  3.099328e+01    7.755258e-01
  3.100915e+01    7.788318e-01
  3.102503e+01    7.944304e-01
  3.104090e+01    8.026279e-01
  3.105678e+01    7.846913e-01
  3.107265e+01    7.979060e-01
  3.108853e+01    7.931030e-01
  3.110441e+01    7.883976e-01
  3.112028e+01    8.056576e-01
  3.113616e+01    8.039289e-01
  3.115203e+01    8.091713e-01
  3.116791e+01    7.866055e-01
  3.118378e+01    7.810630e-01
  3.119966e+01    7.886520e-01
  3.121553e+01    7.836894e-01
  3.123141e+01    8.024838e-01
  3.124729e+01    8.017513e-01
  3.126316e+01    8.093851e-01
  3.127904e+01    7.952484e-01
  3.129491e+01    7.874305e-01
  3.131079e+01    7.955245e-01
  3.132666e+01    7.910340e-01
  3.134254e+01    8.010440e-01
  3.135841e+01    8.349754e-01
  3.137429e+01    8.190580e-01
  3.139017e+01    7.828765e-01
  3.140604e+01    8.126796e-01
  3.142192e+01    8.146401e-01
  3.143779e+01    8.398713e-01
  3.145367e+01    8.546156e-01
  3.146954e+01    8.551993e-01
  3.148542e+01    8.362104e-01
  3.150129e+01    8.346348e-01
  3.151717e+01    8.474188e-01
  3.153305e+01    8.500504e-01
  3.154892e+01    8.383800e-01
  3.156480e+01    8.665090e-01
  3.158067e+01    8.918943e-01
  3.159655e+01    8.796466e-01
  3.161242e+01    8.747135e-01
  3.162830e+01    8.978568e-01
  3.164418e+01    9.424654e-01
  3.166005e+01    9.552529e-01
  3.167593e+01    9.730259e-01
  3.169180e+01    1.001199e+00
  3.170768e+01    1.017544e+00
  3.172355e+01    1.052006e+00
  3.173943e+01    1.095983e+00
  3.175530e+01    1.196400e+00
  3.177118e+01    1.256119e+00
  3.178706e+01    1.371168e+00
  3.180293e+01    1.504349e+00
  3.181881e+01    1.630782e+00
  3.183468e+01    1.722664e+00
  3.185056e+01    1.854872e+00
  3.186643e+01    1.962796e+00
  3.188231e+01    2.068594e+00
  3.189818e+01    2.127037e+00
  3.191406e+01    2.128745e+00
  3.192994e+01    2.054615e+00
  3.194581e+01    1.968566e+00
  3.196169e+01    1.840008e+00
  3.197756e+01    1.683621e+00
  3.199344e+01    1.555278e+00
  3.200931e+01    1.441173e+00
  3.202519e+01    1.327235e+00
  3.204106e+01    1.230845e+00
  3.205694e+01    1.152997e+00
  3.207282e+01    1.108217e+00
  3.208869e+01    1.061322e+00
  3.210457e+01    1.014416e+00
  3.212044e+01    9.945301e-01
  3.213632e+01    9.546646e-01
  3.215219e+01    9.400975e-01
  3.216807e+01    9.064453e-01
  3.218394e+01    8.572766e-01
  3.219982e+01    8.604403e-01
  3.221570e+01    8.667313e-01
  3.223157e+01    8.511667e-01
  3.224745e+01    8.444924e-01
  3.226332e+01    8.376226e-01
  3.227920e+01    8.465948e-01
  3.229507e+01    8.316987e-01
  3.231095e+01    8.087605e-01
  3.232682e+01    8.150825e-01
  3.234270e+01    8.131375e-01
  3.235858e+01    8.067957e-01
  3.237445e+01    7.986589e-01
  3.239033e+01    7.942954e-01
  3.240620e+01    8.131627e-01
  3.242208e+01    8.186700e-01
  3.243795e+01    8.037226e-01
  3.245383e+01    7.996852e-01
  3.246970e+01    7.649937e-01
  3.248558e+01    7.641929e-01
  3.250146e+01    7.734767e-01
  3.251733e+01    7.636698e-01
  3.253321e+01    7.699645e-01
  3.254908e+01    7.812049e-01
