# == pyFAI calibration ==
# Distance Sample to Detector: 0.3999999939076516 m
# PONI: 9.750e-02, 1.135e-01 m
# Rotations: -0.000175 0.000000 -0.000000 rad
# 
# == Fit2d calibration ==
# Distance Sample-beamCenter: 400.000 mm
# Center: x=1514.000, y=1300.000 pix
# Tilt: 0.010 deg  TiltPlanRot: 0.010 deg
# 
# Detector Detector	 Spline= None	 PixelSize= 7.500e-05, 7.500e-05 m
#    Detector has a mask: False 
#    Detector has a dark current: False 
#    detector has a flat field: False 
# 
# Wavelength: 6.888e-11 m
# Mask applied: user provided
# Dark current applied: False
# Flat field applied: False
# Polarization factor: 0.99
# Normalization factor: 1.0
# --> /home/myspot/data/2024_07_Rosario/Ru-CGO-ex/2024-07-27_003_Ru-CGO-ex_Reaction_dwell_000023_data_000076.dat
#       q_nm^-1             I 
  2.003187e-02    0.000000e+00
  3.590745e-02    3.427850e-02
  5.178302e-02    1.487068e-01
  6.765859e-02    2.737332e-01
  8.353417e-02    1.810757e-01
  9.940974e-02    9.480314e-02
  1.152853e-01    1.340982e-01
  1.311609e-01    1.349541e-01
  1.470365e-01    5.030771e-02
  1.629120e-01    3.763083e-02
  1.787876e-01    6.376900e-02
  1.946632e-01    6.966415e-02
  2.105388e-01    4.318176e-02
  2.264143e-01    4.404071e-02
  2.422899e-01    6.001493e-02
  2.581655e-01    6.079765e-02
  2.740411e-01    3.599870e-02
  2.899166e-01    3.839260e-02
  3.057922e-01    3.485728e-02
  3.216678e-01    7.132435e-02
  3.375433e-01    5.239173e-02
  3.534189e-01    1.268351e-02
  3.692945e-01    2.004253e-02
  3.851701e-01    3.949135e-02
  4.010456e-01    3.421103e-02
  4.169212e-01    4.750556e-02
  4.327968e-01    3.738332e-02
  4.486724e-01    1.468025e-02
  4.645479e-01    1.871636e-02
  4.804235e-01    5.127877e-02
  4.962991e-01    5.060185e-02
  5.121747e-01    3.020313e-02
  5.280502e-01    4.275527e-02
  5.439258e-01    2.880125e-02
  5.598014e-01    2.401315e-02
  5.756770e-01    2.460982e-02
  5.915525e-01    3.309609e-02
  6.074281e-01    2.812096e-02
  6.233037e-01    3.051198e-02
  6.391793e-01    2.490807e-02
  6.550548e-01    3.456549e-02
  6.709304e-01    3.533571e-02
  6.868060e-01    2.740252e-02
  7.026815e-01    3.997860e-02
  7.185571e-01    4.454053e-02
  7.344327e-01    5.905894e-02
  7.503083e-01    6.326824e-02
  7.661838e-01    6.652126e-02
  7.820594e-01    1.125499e-01
  7.979350e-01    1.474085e-01
  8.138106e-01    2.200142e-01
  8.296861e-01    2.994417e-01
  8.455617e-01    3.176999e-01
  8.614373e-01    4.276949e-01
  8.773129e-01    5.182217e-01
  8.931884e-01    5.998658e-01
  9.090640e-01    7.248278e-01
  9.249396e-01    7.692996e-01
  9.408152e-01    8.853298e-01
  9.566907e-01    1.057851e+00
  9.725663e-01    1.063597e+00
  9.884419e-01    1.135371e+00
  1.004317e+00    1.228020e+00
  1.020193e+00    1.280390e+00
  1.036069e+00    1.306867e+00
  1.051944e+00    1.380527e+00
  1.067820e+00    1.388175e+00
  1.083695e+00    1.441039e+00
  1.099571e+00    1.411557e+00
  1.115446e+00    1.455225e+00
  1.131322e+00    1.582570e+00
  1.147198e+00    1.563363e+00
  1.163073e+00    1.651639e+00
  1.178949e+00    1.730766e+00
  1.194824e+00    1.764166e+00
  1.210700e+00    2.066229e+00
  1.226575e+00    2.309490e+00
  1.242451e+00    2.551631e+00
  1.258327e+00    2.504294e+00
  1.274202e+00    2.655480e+00
  1.290078e+00    2.564501e+00
  1.305953e+00    2.617151e+00
  1.321829e+00    2.740900e+00
  1.337705e+00    2.564150e+00
  1.353580e+00    2.732830e+00
  1.369456e+00    2.905906e+00
  1.385331e+00    2.949671e+00
  1.401207e+00    2.946996e+00
  1.417082e+00    2.956151e+00
  1.432958e+00    2.960655e+00
  1.448834e+00    3.018225e+00
  1.464709e+00    3.120539e+00
  1.480585e+00    3.083771e+00
  1.496460e+00    3.174070e+00
  1.512336e+00    3.047869e+00
  1.528211e+00    3.257738e+00
  1.544087e+00    3.254030e+00
  1.559963e+00    3.184673e+00
  1.575838e+00    3.129312e+00
  1.591714e+00    3.392719e+00
  1.607589e+00    3.284005e+00
  1.623465e+00    3.139562e+00
  1.639340e+00    3.138690e+00
  1.655216e+00    3.126641e+00
  1.671092e+00    3.128551e+00
  1.686967e+00    3.130801e+00
  1.702843e+00    3.203057e+00
  1.718718e+00    3.150857e+00
  1.734594e+00    3.156199e+00
  1.750469e+00    3.184011e+00
  1.766345e+00    3.170270e+00
  1.782221e+00    3.269188e+00
  1.798096e+00    3.306163e+00
  1.813972e+00    3.123284e+00
  1.829847e+00    2.982905e+00
  1.845723e+00    2.920748e+00
  1.861598e+00    2.996032e+00
  1.877474e+00    3.075549e+00
  1.893350e+00    3.198116e+00
  1.909225e+00    3.124572e+00
  1.925101e+00    3.151468e+00
  1.940976e+00    3.051227e+00
  1.956852e+00    3.006979e+00
  1.972727e+00    3.077463e+00
  1.988603e+00    3.126700e+00
  2.004479e+00    3.147038e+00
  2.020354e+00    3.107859e+00
  2.036230e+00    3.094487e+00
  2.052105e+00    3.114950e+00
  2.067981e+00    3.097247e+00
  2.083856e+00    3.073190e+00
  2.099732e+00    3.127230e+00
  2.115608e+00    3.221086e+00
  2.131483e+00    3.202717e+00
  2.147359e+00    3.106129e+00
  2.163234e+00    3.144428e+00
  2.179110e+00    3.119003e+00
  2.194985e+00    3.120594e+00
  2.210861e+00    3.062932e+00
  2.226737e+00    3.128562e+00
  2.242612e+00    3.199986e+00
  2.258488e+00    3.275061e+00
  2.274363e+00    3.185333e+00
  2.290239e+00    3.054912e+00
  2.306115e+00    3.201007e+00
  2.321990e+00    3.195436e+00
  2.337866e+00    3.206829e+00
  2.353741e+00    3.250092e+00
  2.369617e+00    3.211547e+00
  2.385492e+00    3.141154e+00
  2.401368e+00    3.099642e+00
  2.417244e+00    3.290304e+00
  2.433119e+00    3.320842e+00
  2.448995e+00    3.236595e+00
  2.464870e+00    3.204231e+00
  2.480746e+00    3.212120e+00
  2.496621e+00    3.268301e+00
  2.512497e+00    3.383904e+00
  2.528373e+00    3.288970e+00
  2.544248e+00    3.256372e+00
  2.560124e+00    3.221384e+00
  2.575999e+00    3.263192e+00
  2.591875e+00    3.298753e+00
  2.607750e+00    3.224410e+00
  2.623626e+00    3.258496e+00
  2.639502e+00    3.296037e+00
  2.655377e+00    3.256341e+00
  2.671253e+00    3.273158e+00
  2.687128e+00    3.241903e+00
  2.703004e+00    3.331562e+00
  2.718879e+00    3.392661e+00
  2.734755e+00    3.318790e+00
  2.750631e+00    3.257937e+00
  2.766506e+00    3.273648e+00
  2.782382e+00    3.304883e+00
  2.798257e+00    3.364385e+00
  2.814133e+00    3.340863e+00
  2.830008e+00    3.343993e+00
  2.845884e+00    3.360054e+00
  2.861760e+00    3.322332e+00
  2.877635e+00    3.326173e+00
  2.893511e+00    3.252334e+00
  2.909386e+00    3.301283e+00
  2.925262e+00    3.273367e+00
  2.941137e+00    3.317534e+00
  2.957013e+00    3.316125e+00
  2.972889e+00    3.324124e+00
  2.988764e+00    3.320651e+00
  3.004640e+00    3.355579e+00
  3.020515e+00    3.250580e+00
  3.036391e+00    3.422346e+00
  3.052266e+00    3.370583e+00
  3.068142e+00    3.344326e+00
  3.084018e+00    3.409911e+00
  3.099893e+00    3.282957e+00
  3.115769e+00    3.313706e+00
  3.131644e+00    3.426896e+00
  3.147520e+00    3.467284e+00
  3.163395e+00    3.426320e+00
  3.179271e+00    3.401721e+00
  3.195147e+00    3.298097e+00
  3.211022e+00    3.346291e+00
  3.226898e+00    3.424437e+00
  3.242773e+00    3.378851e+00
  3.258649e+00    3.503025e+00
  3.274525e+00    3.438169e+00
  3.290400e+00    3.459476e+00
  3.306276e+00    3.378037e+00
  3.322151e+00    3.465346e+00
  3.338027e+00    3.514994e+00
  3.353902e+00    3.515225e+00
  3.369778e+00    3.411730e+00
  3.385654e+00    3.402844e+00
  3.401529e+00    3.382201e+00
  3.417405e+00    3.402486e+00
  3.433280e+00    3.493762e+00
  3.449156e+00    3.559523e+00
  3.465031e+00    3.475274e+00
  3.480907e+00    3.497614e+00
  3.496783e+00    3.474763e+00
  3.512658e+00    3.481021e+00
  3.528534e+00    3.417067e+00
  3.544409e+00    3.485691e+00
  3.560285e+00    3.468908e+00
  3.576160e+00    3.459061e+00
  3.592036e+00    3.461870e+00
  3.607912e+00    3.461259e+00
  3.623787e+00    3.396495e+00
  3.639663e+00    3.448049e+00
  3.655538e+00    3.452992e+00
  3.671414e+00    3.405362e+00
  3.687289e+00    3.461318e+00
  3.703165e+00    3.467846e+00
  3.719041e+00    3.523923e+00
  3.734916e+00    3.514678e+00
  3.750792e+00    3.520331e+00
  3.766667e+00    3.442053e+00
  3.782543e+00    3.463106e+00
  3.798418e+00    3.414804e+00
  3.814294e+00    3.478283e+00
  3.830170e+00    3.555130e+00
  3.846045e+00    3.402890e+00
  3.861921e+00    3.510120e+00
  3.877796e+00    3.611440e+00
  3.893672e+00    3.640850e+00
  3.909547e+00    3.581001e+00
  3.925423e+00    3.536039e+00
  3.941299e+00    3.440800e+00
  3.957174e+00    3.460767e+00
  3.973050e+00    3.518549e+00
  3.988925e+00    3.516262e+00
  4.004801e+00    3.558076e+00
  4.020676e+00    3.622591e+00
  4.036552e+00    3.571541e+00
  4.052428e+00    3.539871e+00
  4.068303e+00    3.544011e+00
  4.084179e+00    3.577980e+00
  4.100054e+00    3.613284e+00
  4.115930e+00    3.604023e+00
  4.131806e+00    3.551922e+00
  4.147681e+00    3.587362e+00
  4.163557e+00    3.698216e+00
  4.179432e+00    3.634418e+00
  4.195308e+00    3.534920e+00
  4.211183e+00    3.517844e+00
  4.227059e+00    3.534980e+00
  4.242935e+00    3.575629e+00
  4.258810e+00    3.482106e+00
  4.274686e+00    3.507244e+00
  4.290561e+00    3.541387e+00
  4.306437e+00    3.619487e+00
  4.322312e+00    3.620954e+00
  4.338188e+00    3.604016e+00
  4.354064e+00    3.563215e+00
  4.369939e+00    3.515805e+00
  4.385815e+00    3.656510e+00
  4.401690e+00    3.734330e+00
  4.417566e+00    3.635693e+00
  4.433441e+00    3.590746e+00
  4.449317e+00    3.531700e+00
  4.465193e+00    3.706391e+00
  4.481068e+00    3.767833e+00
  4.496944e+00    3.622745e+00
  4.512819e+00    3.625119e+00
  4.528695e+00    3.620792e+00
  4.544570e+00    3.569577e+00
  4.560446e+00    3.586390e+00
  4.576322e+00    3.603529e+00
  4.592197e+00    3.600005e+00
  4.608073e+00    3.597900e+00
  4.623948e+00    3.592584e+00
  4.639824e+00    3.608728e+00
  4.655699e+00    3.591173e+00
  4.671575e+00    3.516467e+00
  4.687451e+00    3.577470e+00
  4.703326e+00    3.621769e+00
  4.719202e+00    3.597773e+00
  4.735077e+00    3.621644e+00
  4.750953e+00    3.736984e+00
  4.766828e+00    3.631308e+00
  4.782704e+00    3.585841e+00
  4.798580e+00    3.593102e+00
  4.814455e+00    3.599663e+00
  4.830331e+00    3.663280e+00
  4.846206e+00    3.647080e+00
  4.862082e+00    3.603519e+00
  4.877957e+00    3.660077e+00
  4.893833e+00    3.666969e+00
  4.909709e+00    3.626688e+00
  4.925584e+00    3.592764e+00
  4.941460e+00    3.587143e+00
  4.957335e+00    3.636115e+00
  4.973211e+00    3.630137e+00
  4.989086e+00    3.730502e+00
  5.004962e+00    3.740393e+00
  5.020838e+00    3.668436e+00
  5.036713e+00    3.663877e+00
  5.052589e+00    3.600717e+00
  5.068464e+00    3.598957e+00
  5.084340e+00    3.626395e+00
  5.100216e+00    3.690291e+00
  5.116091e+00    3.680761e+00
  5.131967e+00    3.685411e+00
  5.147842e+00    3.712099e+00
  5.163718e+00    3.664451e+00
  5.179593e+00    3.636009e+00
  5.195469e+00    3.656808e+00
  5.211345e+00    3.735375e+00
  5.227220e+00    3.594272e+00
  5.243096e+00    3.641454e+00
  5.258971e+00    3.661888e+00
  5.274847e+00    3.624848e+00
  5.290722e+00    3.604176e+00
  5.306598e+00    3.643247e+00
  5.322474e+00    3.663668e+00
  5.338349e+00    3.673814e+00
  5.354225e+00    3.700715e+00
  5.370100e+00    3.662556e+00
  5.385976e+00    3.651268e+00
  5.401851e+00    3.664085e+00
  5.417727e+00    3.754375e+00
  5.433603e+00    3.662467e+00
  5.449478e+00    3.523279e+00
  5.465354e+00    3.529687e+00
  5.481229e+00    3.667894e+00
  5.497105e+00    3.680163e+00
  5.512980e+00    3.620360e+00
  5.528856e+00    3.596331e+00
  5.544732e+00    3.631749e+00
  5.560607e+00    3.701523e+00
  5.576483e+00    3.624881e+00
  5.592358e+00    3.574214e+00
  5.608234e+00    3.647118e+00
  5.624109e+00    3.594046e+00
  5.639985e+00    3.535057e+00
  5.655861e+00    3.560906e+00
  5.671736e+00    3.580097e+00
  5.687612e+00    3.599930e+00
  5.703487e+00    3.696643e+00
  5.719363e+00    3.665963e+00
  5.735238e+00    3.556386e+00
  5.751114e+00    3.507340e+00
  5.766990e+00    3.509961e+00
  5.782865e+00    3.560319e+00
  5.798741e+00    3.567414e+00
  5.814616e+00    3.537199e+00
  5.830492e+00    3.522771e+00
  5.846367e+00    3.567240e+00
  5.862243e+00    3.584656e+00
  5.878119e+00    3.551636e+00
  5.893994e+00    3.593002e+00
  5.909870e+00    3.629779e+00
  5.925745e+00    3.624203e+00
  5.941621e+00    3.666859e+00
  5.957497e+00    3.595320e+00
  5.973372e+00    3.556702e+00
  5.989248e+00    3.588458e+00
  6.005123e+00    3.640459e+00
  6.020999e+00    3.531817e+00
  6.036874e+00    3.492639e+00
  6.052750e+00    3.554994e+00
  6.068626e+00    3.479186e+00
  6.084501e+00    3.595560e+00
  6.100377e+00    3.611453e+00
  6.116252e+00    3.683166e+00
  6.132128e+00    3.725059e+00
  6.148003e+00    3.584985e+00
  6.163879e+00    3.630032e+00
  6.179755e+00    3.620957e+00
  6.195630e+00    3.714118e+00
  6.211506e+00    3.664829e+00
  6.227381e+00    3.587888e+00
  6.243257e+00    3.538201e+00
  6.259132e+00    3.462429e+00
  6.275008e+00    3.520118e+00
  6.290884e+00    3.526339e+00
  6.306759e+00    3.581414e+00
  6.322635e+00    3.615735e+00
  6.338510e+00    3.542207e+00
  6.354386e+00    3.535934e+00
  6.370261e+00    3.614882e+00
  6.386137e+00    3.619535e+00
  6.402013e+00    3.584285e+00
  6.417888e+00    3.565901e+00
  6.433764e+00    3.537673e+00
  6.449639e+00    3.607609e+00
  6.465515e+00    3.597680e+00
  6.481390e+00    3.590326e+00
  6.497266e+00    3.556901e+00
  6.513142e+00    3.554085e+00
  6.529017e+00    3.533695e+00
  6.544893e+00    3.630248e+00
  6.560768e+00    3.616425e+00
  6.576644e+00    3.532709e+00
  6.592519e+00    3.522222e+00
  6.608395e+00    3.514659e+00
  6.624271e+00    3.519185e+00
  6.640146e+00    3.563783e+00
  6.656022e+00    3.546603e+00
  6.671897e+00    3.492655e+00
  6.687773e+00    3.596968e+00
  6.703648e+00    3.617112e+00
  6.719524e+00    3.567989e+00
  6.735400e+00    3.534619e+00
  6.751275e+00    3.542007e+00
  6.767151e+00    3.590616e+00
  6.783026e+00    3.515908e+00
  6.798902e+00    3.587686e+00
  6.814777e+00    3.658183e+00
  6.830653e+00    3.636910e+00
  6.846529e+00    3.624720e+00
  6.862404e+00    3.557344e+00
  6.878280e+00    3.565884e+00
  6.894155e+00    3.591734e+00
  6.910031e+00    3.573696e+00
  6.925907e+00    3.573533e+00
  6.941782e+00    3.533109e+00
  6.957658e+00    3.533061e+00
  6.973533e+00    3.525654e+00
  6.989409e+00    3.614058e+00
  7.005284e+00    3.552714e+00
  7.021160e+00    3.536495e+00
  7.037036e+00    3.552562e+00
  7.052911e+00    3.564810e+00
  7.068787e+00    3.488514e+00
  7.084662e+00    3.512922e+00
  7.100538e+00    3.511689e+00
  7.116413e+00    3.536565e+00
  7.132289e+00    3.531662e+00
  7.148165e+00    3.507295e+00
  7.164040e+00    3.521882e+00
  7.179916e+00    3.543141e+00
  7.195791e+00    3.555156e+00
  7.211667e+00    3.496841e+00
  7.227542e+00    3.499343e+00
  7.243418e+00    3.519032e+00
  7.259294e+00    3.536988e+00
  7.275169e+00    3.574925e+00
  7.291045e+00    3.562999e+00
  7.306920e+00    3.512254e+00
  7.322796e+00    3.541494e+00
  7.338671e+00    3.557548e+00
  7.354547e+00    3.519465e+00
  7.370423e+00    3.507614e+00
  7.386298e+00    3.513497e+00
  7.402174e+00    3.511249e+00
  7.418049e+00    3.453790e+00
  7.433925e+00    3.438974e+00
  7.449800e+00    3.494525e+00
  7.465676e+00    3.462228e+00
  7.481552e+00    3.441544e+00
  7.497427e+00    3.449267e+00
  7.513303e+00    3.484366e+00
  7.529178e+00    3.506730e+00
  7.545054e+00    3.420050e+00
  7.560929e+00    3.472587e+00
  7.576805e+00    3.544775e+00
  7.592681e+00    3.549741e+00
  7.608556e+00    3.574374e+00
  7.624432e+00    3.500949e+00
  7.640307e+00    3.548299e+00
  7.656183e+00    3.509675e+00
  7.672058e+00    3.457779e+00
  7.687934e+00    3.465956e+00
  7.703810e+00    3.414351e+00
  7.719685e+00    3.446727e+00
  7.735561e+00    3.438869e+00
  7.751436e+00    3.460361e+00
  7.767312e+00    3.474952e+00
  7.783187e+00    3.465282e+00
  7.799063e+00    3.493680e+00
  7.814939e+00    3.509593e+00
  7.830814e+00    3.456117e+00
  7.846690e+00    3.447143e+00
  7.862565e+00    3.432670e+00
  7.878441e+00    3.386496e+00
  7.894317e+00    3.430490e+00
  7.910192e+00    3.453071e+00
  7.926068e+00    3.491415e+00
  7.941943e+00    3.427692e+00
  7.957819e+00    3.481990e+00
  7.973694e+00    3.416856e+00
  7.989570e+00    3.431714e+00
  8.005446e+00    3.429235e+00
  8.021321e+00    3.440598e+00
  8.037197e+00    3.410358e+00
  8.053072e+00    3.349272e+00
  8.068948e+00    3.431242e+00
  8.084823e+00    3.433283e+00
  8.100699e+00    3.502299e+00
  8.116575e+00    3.559734e+00
  8.132450e+00    3.517962e+00
  8.148326e+00    3.449048e+00
  8.164201e+00    3.420412e+00
  8.180077e+00    3.489198e+00
  8.195952e+00    3.555843e+00
  8.211828e+00    3.492084e+00
  8.227704e+00    3.457444e+00
  8.243579e+00    3.449457e+00
  8.259455e+00    3.435502e+00
  8.275330e+00    3.431475e+00
  8.291206e+00    3.425951e+00
  8.307081e+00    3.359143e+00
  8.322957e+00    3.417514e+00
  8.338833e+00    3.467653e+00
  8.354708e+00    3.421660e+00
  8.370584e+00    3.439647e+00
  8.386459e+00    3.452466e+00
  8.402335e+00    3.402640e+00
  8.418210e+00    3.355973e+00
  8.434086e+00    3.341906e+00
  8.449962e+00    3.404855e+00
  8.465837e+00    3.454695e+00
  8.481713e+00    3.409588e+00
  8.497588e+00    3.341119e+00
  8.513464e+00    3.332429e+00
  8.529339e+00    3.334894e+00
  8.545215e+00    3.332900e+00
  8.561091e+00    3.402894e+00
  8.576966e+00    3.392983e+00
  8.592842e+00    3.343735e+00
  8.608717e+00    3.355157e+00
  8.624593e+00    3.409006e+00
  8.640468e+00    3.395490e+00
  8.656344e+00    3.374172e+00
  8.672220e+00    3.379992e+00
  8.688095e+00    3.411948e+00
  8.703971e+00    3.330899e+00
  8.719846e+00    3.323537e+00
  8.735722e+00    3.326243e+00
  8.751598e+00    3.319371e+00
  8.767473e+00    3.342864e+00
  8.783349e+00    3.337721e+00
  8.799224e+00    3.332380e+00
  8.815100e+00    3.321720e+00
  8.830975e+00    3.336498e+00
  8.846851e+00    3.321618e+00
  8.862727e+00    3.293603e+00
  8.878602e+00    3.286560e+00
  8.894478e+00    3.285901e+00
  8.910353e+00    3.360156e+00
  8.926229e+00    3.330632e+00
  8.942104e+00    3.326581e+00
  8.957980e+00    3.290777e+00
  8.973856e+00    3.302583e+00
  8.989731e+00    3.361251e+00
  9.005607e+00    3.304734e+00
  9.021482e+00    3.309016e+00
  9.037358e+00    3.276212e+00
  9.053233e+00    3.216171e+00
  9.069109e+00    3.249737e+00
  9.084985e+00    3.287369e+00
  9.100860e+00    3.331661e+00
  9.116736e+00    3.304360e+00
  9.132611e+00    3.311680e+00
  9.148487e+00    3.276383e+00
  9.164362e+00    3.229863e+00
  9.180238e+00    3.279079e+00
  9.196114e+00    3.261269e+00
  9.211989e+00    3.273436e+00
  9.227865e+00    3.247636e+00
  9.243740e+00    3.226395e+00
  9.259616e+00    3.294545e+00
  9.275491e+00    3.304251e+00
  9.291367e+00    3.274358e+00
  9.307243e+00    3.256821e+00
  9.323118e+00    3.269818e+00
  9.338994e+00    3.229769e+00
  9.354869e+00    3.232102e+00
  9.370745e+00    3.212764e+00
  9.386620e+00    3.211007e+00
  9.402496e+00    3.181818e+00
  9.418372e+00    3.233801e+00
  9.434247e+00    3.189689e+00
  9.450123e+00    3.254523e+00
  9.465998e+00    3.251592e+00
  9.481874e+00    3.143134e+00
  9.497749e+00    3.168353e+00
  9.513625e+00    3.181863e+00
  9.529501e+00    3.148789e+00
  9.545376e+00    3.191763e+00
  9.561252e+00    3.239818e+00
  9.577127e+00    3.243617e+00
  9.593003e+00    3.193850e+00
  9.608878e+00    3.234158e+00
  9.624754e+00    3.224943e+00
  9.640630e+00    3.199148e+00
  9.656505e+00    3.227592e+00
  9.672381e+00    3.232615e+00
  9.688256e+00    3.170521e+00
  9.704132e+00    3.165864e+00
  9.720008e+00    3.195231e+00
  9.735883e+00    3.223675e+00
  9.751759e+00    3.221067e+00
  9.767634e+00    3.229218e+00
  9.783510e+00    3.197335e+00
  9.799385e+00    3.099356e+00
  9.815261e+00    3.123537e+00
  9.831137e+00    3.119906e+00
  9.847012e+00    3.153620e+00
  9.862888e+00    3.191854e+00
  9.878763e+00    3.116939e+00
  9.894639e+00    3.100792e+00
  9.910514e+00    3.151233e+00
  9.926390e+00    3.125361e+00
  9.942266e+00    3.094406e+00
  9.958141e+00    3.150843e+00
  9.974017e+00    3.163895e+00
  9.989892e+00    3.113214e+00
  1.000577e+01    3.102331e+00
  1.002164e+01    3.136793e+00
  1.003752e+01    3.182721e+00
  1.005339e+01    3.174806e+00
  1.006927e+01    3.136581e+00
  1.008515e+01    3.101442e+00
  1.010102e+01    3.152458e+00
  1.011690e+01    3.103597e+00
  1.013277e+01    3.125569e+00
  1.014865e+01    3.073476e+00
  1.016452e+01    3.058724e+00
  1.018040e+01    3.083000e+00
  1.019627e+01    3.118018e+00
  1.021215e+01    3.062990e+00
  1.022803e+01    3.056341e+00
  1.024390e+01    3.084227e+00
  1.025978e+01    3.130502e+00
  1.027565e+01    3.125732e+00
  1.029153e+01    3.074147e+00
  1.030740e+01    3.079717e+00
  1.032328e+01    3.078798e+00
  1.033915e+01    3.062532e+00
  1.035503e+01    3.053655e+00
  1.037091e+01    3.009770e+00
  1.038678e+01    3.015554e+00
  1.040266e+01    3.041204e+00
  1.041853e+01    3.021178e+00
  1.043441e+01    3.056417e+00
  1.045028e+01    3.004580e+00
  1.046616e+01    3.025457e+00
  1.048204e+01    3.019307e+00
  1.049791e+01    3.015354e+00
  1.051379e+01    3.019126e+00
  1.052966e+01    3.023207e+00
  1.054554e+01    3.062127e+00
  1.056141e+01    2.958632e+00
  1.057729e+01    2.931577e+00
  1.059316e+01    3.007415e+00
  1.060904e+01    2.979375e+00
  1.062492e+01    2.985500e+00
  1.064079e+01    3.020697e+00
  1.065667e+01    3.018797e+00
  1.067254e+01    3.000811e+00
  1.068842e+01    2.978158e+00
  1.070429e+01    3.004991e+00
  1.072017e+01    2.931920e+00
  1.073604e+01    2.929183e+00
  1.075192e+01    2.999307e+00
  1.076780e+01    2.937168e+00
  1.078367e+01    2.924923e+00
  1.079955e+01    2.980047e+00
  1.081542e+01    2.950888e+00
  1.083130e+01    2.966496e+00
  1.084717e+01    2.949167e+00
  1.086305e+01    2.961378e+00
  1.087892e+01    2.984490e+00
  1.089480e+01    2.984498e+00
  1.091068e+01    2.961173e+00
  1.092655e+01    2.953284e+00
  1.094243e+01    2.924566e+00
  1.095830e+01    2.941173e+00
  1.097418e+01    2.977723e+00
  1.099005e+01    2.950327e+00
  1.100593e+01    2.895843e+00
  1.102180e+01    2.917024e+00
  1.103768e+01    2.922645e+00
  1.105356e+01    2.849406e+00
  1.106943e+01    2.819044e+00
  1.108531e+01    2.877388e+00
  1.110118e+01    2.870982e+00
  1.111706e+01    2.842625e+00
  1.113293e+01    2.874310e+00
  1.114881e+01    2.896358e+00
  1.116468e+01    2.869632e+00
  1.118056e+01    2.873011e+00
  1.119644e+01    2.858114e+00
  1.121231e+01    2.879083e+00
  1.122819e+01    2.911014e+00
  1.124406e+01    2.893493e+00
  1.125994e+01    2.871485e+00
  1.127581e+01    2.871078e+00
  1.129169e+01    2.868940e+00
  1.130756e+01    2.847900e+00
  1.132344e+01    2.832085e+00
  1.133932e+01    2.836779e+00
  1.135519e+01    2.820966e+00
  1.137107e+01    2.838381e+00
  1.138694e+01    2.826743e+00
  1.140282e+01    2.832181e+00
  1.141869e+01    2.825399e+00
  1.143457e+01    2.794714e+00
  1.145045e+01    2.778439e+00
  1.146632e+01    2.798371e+00
  1.148220e+01    2.825928e+00
  1.149807e+01    2.796726e+00
  1.151395e+01    2.798001e+00
  1.152982e+01    2.824726e+00
  1.154570e+01    2.804745e+00
  1.156157e+01    2.778324e+00
  1.157745e+01    2.796432e+00
  1.159333e+01    2.782449e+00
  1.160920e+01    2.772628e+00
  1.162508e+01    2.796215e+00
  1.164095e+01    2.766338e+00
  1.165683e+01    2.755513e+00
  1.167270e+01    2.782422e+00
  1.168858e+01    2.811796e+00
  1.170445e+01    2.744075e+00
  1.172033e+01    2.737519e+00
  1.173621e+01    2.770516e+00
  1.175208e+01    2.771364e+00
  1.176796e+01    2.773340e+00
  1.178383e+01    2.717806e+00
  1.179971e+01    2.775322e+00
  1.181558e+01    2.775171e+00
  1.183146e+01    2.755720e+00
  1.184733e+01    2.760591e+00
  1.186321e+01    2.751295e+00
  1.187909e+01    2.759267e+00
  1.189496e+01    2.742870e+00
  1.191084e+01    2.769559e+00
  1.192671e+01    2.799071e+00
  1.194259e+01    2.739239e+00
  1.195846e+01    2.689599e+00
  1.197434e+01    2.727916e+00
  1.199021e+01    2.768004e+00
  1.200609e+01    2.707207e+00
  1.202197e+01    2.696235e+00
  1.203784e+01    2.702077e+00
  1.205372e+01    2.724040e+00
  1.206959e+01    2.694776e+00
  1.208547e+01    2.715977e+00
  1.210134e+01    2.693304e+00
  1.211722e+01    2.696521e+00
  1.213309e+01    2.700853e+00
  1.214897e+01    2.702513e+00
  1.216485e+01    2.748120e+00
  1.218072e+01    2.725745e+00
  1.219660e+01    2.694381e+00
  1.221247e+01    2.696014e+00
  1.222835e+01    2.674570e+00
  1.224422e+01    2.666027e+00
  1.226010e+01    2.674354e+00
  1.227597e+01    2.745314e+00
  1.229185e+01    2.734341e+00
  1.230773e+01    2.748037e+00
  1.232360e+01    2.699716e+00
  1.233948e+01    2.675368e+00
  1.235535e+01    2.698032e+00
  1.237123e+01    2.765827e+00
  1.238710e+01    2.751179e+00
  1.240298e+01    2.703269e+00
  1.241886e+01    2.668018e+00
  1.243473e+01    2.661933e+00
  1.245061e+01    2.719341e+00
  1.246648e+01    2.723778e+00
  1.248236e+01    2.686346e+00
  1.249823e+01    2.693495e+00
  1.251411e+01    2.709335e+00
  1.252998e+01    2.704673e+00
  1.254586e+01    2.706323e+00
  1.256174e+01    2.739636e+00
  1.257761e+01    2.762382e+00
  1.259349e+01    2.757761e+00
  1.260936e+01    2.800470e+00
  1.262524e+01    2.729080e+00
  1.264111e+01    2.732793e+00
  1.265699e+01    2.768887e+00
  1.267286e+01    2.799746e+00
  1.268874e+01    2.822197e+00
  1.270462e+01    2.821070e+00
  1.272049e+01    2.862738e+00
  1.273637e+01    2.917977e+00
  1.275224e+01    2.960869e+00
  1.276812e+01    2.942167e+00
  1.278399e+01    2.957179e+00
  1.279987e+01    3.034772e+00
  1.281574e+01    3.104727e+00
  1.283162e+01    3.146575e+00
  1.284750e+01    3.226688e+00
  1.286337e+01    3.284623e+00
  1.287925e+01    3.358812e+00
  1.289512e+01    3.484379e+00
  1.291100e+01    3.721915e+00
  1.292687e+01    3.880134e+00
  1.294275e+01    4.119083e+00
  1.295862e+01    4.429534e+00
  1.297450e+01    4.872676e+00
  1.299038e+01    5.337774e+00
  1.300625e+01    6.043160e+00
  1.302213e+01    6.835502e+00
  1.303800e+01    7.879305e+00
  1.305388e+01    9.058365e+00
  1.306975e+01    1.037571e+01
  1.308563e+01    1.185350e+01
  1.310150e+01    1.303145e+01
  1.311738e+01    1.406983e+01
  1.313326e+01    1.506656e+01
  1.314913e+01    1.592942e+01
  1.316501e+01    1.665247e+01
  1.318088e+01    1.655186e+01
  1.319676e+01    1.567283e+01
  1.321263e+01    1.435386e+01
  1.322851e+01    1.255245e+01
  1.324438e+01    1.067292e+01
  1.326026e+01    9.060608e+00
  1.327614e+01    7.789182e+00
  1.329201e+01    6.726935e+00
  1.330789e+01    5.933169e+00
  1.332376e+01    5.350646e+00
  1.333964e+01    4.889431e+00
  1.335551e+01    4.438916e+00
  1.337139e+01    4.112576e+00
  1.338727e+01    3.884781e+00
  1.340314e+01    3.659911e+00
  1.341902e+01    3.486188e+00
  1.343489e+01    3.339298e+00
  1.345077e+01    3.227298e+00
  1.346664e+01    3.159047e+00
  1.348252e+01    3.090131e+00
  1.349839e+01    2.947407e+00
  1.351427e+01    2.936635e+00
  1.353015e+01    2.887808e+00
  1.354602e+01    2.788548e+00
  1.356190e+01    2.725431e+00
  1.357777e+01    2.699304e+00
  1.359365e+01    2.688161e+00
  1.360952e+01    2.730177e+00
  1.362540e+01    2.701031e+00
  1.364127e+01    2.652226e+00
  1.365715e+01    2.601039e+00
  1.367303e+01    2.616799e+00
  1.368890e+01    2.576710e+00
  1.370478e+01    2.576741e+00
  1.372065e+01    2.534770e+00
  1.373653e+01    2.502122e+00
  1.375240e+01    2.503200e+00
  1.376828e+01    2.503782e+00
  1.378415e+01    2.481035e+00
  1.380003e+01    2.484815e+00
  1.381591e+01    2.484642e+00
  1.383178e+01    2.471059e+00
  1.384766e+01    2.460836e+00
  1.386353e+01    2.458664e+00
  1.387941e+01    2.439013e+00
  1.389528e+01    2.382676e+00
  1.391116e+01    2.410113e+00
  1.392703e+01    2.444700e+00
  1.394291e+01    2.452690e+00
  1.395879e+01    2.450169e+00
  1.397466e+01    2.419156e+00
  1.399054e+01    2.418989e+00
  1.400641e+01    2.408060e+00
  1.402229e+01    2.348366e+00
  1.403816e+01    2.330763e+00
  1.405404e+01    2.338200e+00
  1.406991e+01    2.353536e+00
  1.408579e+01    2.370764e+00
  1.410167e+01    2.381079e+00
  1.411754e+01    2.328833e+00
  1.413342e+01    2.305695e+00
  1.414929e+01    2.298643e+00
  1.416517e+01    2.334004e+00
  1.418104e+01    2.306643e+00
  1.419692e+01    2.309413e+00
  1.421279e+01    2.286435e+00
  1.422867e+01    2.317381e+00
  1.424455e+01    2.322063e+00
  1.426042e+01    2.315666e+00
  1.427630e+01    2.252238e+00
  1.429217e+01    2.254767e+00
  1.430805e+01    2.294410e+00
  1.432392e+01    2.267401e+00
  1.433980e+01    2.292473e+00
  1.435568e+01    2.274916e+00
  1.437155e+01    2.217730e+00
  1.438743e+01    2.276048e+00
  1.440330e+01    2.270856e+00
  1.441918e+01    2.239617e+00
  1.443505e+01    2.265250e+00
  1.445093e+01    2.238049e+00
  1.446680e+01    2.223717e+00
  1.448268e+01    2.244031e+00
  1.449856e+01    2.233341e+00
  1.451443e+01    2.239943e+00
  1.453031e+01    2.255599e+00
  1.454618e+01    2.222900e+00
  1.456206e+01    2.238298e+00
  1.457793e+01    2.250173e+00
  1.459381e+01    2.240001e+00
  1.460968e+01    2.191205e+00
  1.462556e+01    2.167367e+00
  1.464144e+01    2.221230e+00
  1.465731e+01    2.186507e+00
  1.467319e+01    2.232896e+00
  1.468906e+01    2.231751e+00
  1.470494e+01    2.201437e+00
  1.472081e+01    2.155087e+00
  1.473669e+01    2.186244e+00
  1.475256e+01    2.232695e+00
  1.476844e+01    2.234695e+00
  1.478432e+01    2.219110e+00
  1.480019e+01    2.178377e+00
  1.481607e+01    2.203612e+00
  1.483194e+01    2.218324e+00
  1.484782e+01    2.212449e+00
  1.486369e+01    2.197747e+00
  1.487957e+01    2.229187e+00
  1.489544e+01    2.208367e+00
  1.491132e+01    2.222661e+00
  1.492720e+01    2.290965e+00
  1.494307e+01    2.338065e+00
  1.495895e+01    2.383946e+00
  1.497482e+01    2.348551e+00
  1.499070e+01    2.408257e+00
  1.500657e+01    2.473089e+00
  1.502245e+01    2.547789e+00
  1.503832e+01    2.615236e+00
  1.505420e+01    2.697287e+00
  1.507008e+01    2.849896e+00
  1.508595e+01    3.024292e+00
  1.510183e+01    3.233706e+00
  1.511770e+01    3.504468e+00
  1.513358e+01    3.890374e+00
  1.514945e+01    4.219316e+00
  1.516533e+01    4.604987e+00
  1.518120e+01    4.990218e+00
  1.519708e+01    5.228206e+00
  1.521296e+01    5.489606e+00
  1.522883e+01    5.601039e+00
  1.524471e+01    5.836170e+00
  1.526058e+01    5.818929e+00
  1.527646e+01    5.704259e+00
  1.529233e+01    5.478830e+00
  1.530821e+01    5.172673e+00
  1.532409e+01    4.609072e+00
  1.533996e+01    4.160957e+00
  1.535584e+01    3.763517e+00
  1.537171e+01    3.380893e+00
  1.538759e+01    3.139837e+00
  1.540346e+01    2.942194e+00
  1.541934e+01    2.803316e+00
  1.543521e+01    2.636842e+00
  1.545109e+01    2.511271e+00
  1.546697e+01    2.496512e+00
  1.548284e+01    2.401554e+00
  1.549872e+01    2.271347e+00
  1.551459e+01    2.234631e+00
  1.553047e+01    2.222719e+00
  1.554634e+01    2.175886e+00
  1.556222e+01    2.104920e+00
  1.557809e+01    2.109778e+00
  1.559397e+01    2.125397e+00
  1.560985e+01    2.123784e+00
  1.562572e+01    2.142134e+00
  1.564160e+01    2.080682e+00
  1.565747e+01    2.053766e+00
  1.567335e+01    2.026452e+00
  1.568922e+01    2.038126e+00
  1.570510e+01    2.036277e+00
  1.572097e+01    1.979744e+00
  1.573685e+01    1.962412e+00
  1.575273e+01    1.984877e+00
  1.576860e+01    1.969584e+00
  1.578448e+01    1.936781e+00
  1.580035e+01    1.923201e+00
  1.581623e+01    1.961376e+00
  1.583210e+01    1.947821e+00
  1.584798e+01    1.935559e+00
  1.586385e+01    1.916372e+00
  1.587973e+01    1.942699e+00
  1.589561e+01    1.891308e+00
  1.591148e+01    1.914697e+00
  1.592736e+01    1.945755e+00
  1.594323e+01    1.904359e+00
  1.595911e+01    1.879559e+00
  1.597498e+01    1.851635e+00
  1.599086e+01    1.842888e+00
  1.600673e+01    1.885771e+00
  1.602261e+01    1.894064e+00
  1.603849e+01    1.885399e+00
  1.605436e+01    1.869472e+00
  1.607024e+01    1.851864e+00
  1.608611e+01    1.888231e+00
  1.610199e+01    1.864151e+00
  1.611786e+01    1.826865e+00
  1.613374e+01    1.839367e+00
  1.614961e+01    1.837493e+00
  1.616549e+01    1.839781e+00
  1.618137e+01    1.875139e+00
  1.619724e+01    1.847989e+00
  1.621312e+01    1.855099e+00
  1.622899e+01    1.832561e+00
  1.624487e+01    1.845270e+00
  1.626074e+01    1.843816e+00
  1.627662e+01    1.831920e+00
  1.629250e+01    1.797603e+00
  1.630837e+01    1.824553e+00
  1.632425e+01    1.824618e+00
  1.634012e+01    1.812333e+00
  1.635600e+01    1.775563e+00
  1.637187e+01    1.776613e+00
  1.638775e+01    1.814693e+00
  1.640362e+01    1.772887e+00
  1.641950e+01    1.785891e+00
  1.643538e+01    1.797368e+00
  1.645125e+01    1.783738e+00
  1.646713e+01    1.761884e+00
  1.648300e+01    1.757975e+00
  1.649888e+01    1.784002e+00
  1.651475e+01    1.789905e+00
  1.653063e+01    1.763615e+00
  1.654650e+01    1.709842e+00
  1.656238e+01    1.715635e+00
  1.657826e+01    1.754456e+00
  1.659413e+01    1.753133e+00
  1.661001e+01    1.747029e+00
  1.662588e+01    1.757622e+00
  1.664176e+01    1.709059e+00
  1.665763e+01    1.726267e+00
  1.667351e+01    1.732754e+00
  1.668938e+01    1.743074e+00
  1.670526e+01    1.720001e+00
  1.672114e+01    1.711566e+00
  1.673701e+01    1.734123e+00
  1.675289e+01    1.762959e+00
  1.676876e+01    1.726674e+00
  1.678464e+01    1.729250e+00
  1.680051e+01    1.732979e+00
  1.681639e+01    1.721234e+00
  1.683226e+01    1.716882e+00
  1.684814e+01    1.704213e+00
  1.686402e+01    1.641546e+00
  1.687989e+01    1.652709e+00
  1.689577e+01    1.670352e+00
  1.691164e+01    1.691635e+00
  1.692752e+01    1.708954e+00
  1.694339e+01    1.692671e+00
  1.695927e+01    1.664505e+00
  1.697514e+01    1.654272e+00
  1.699102e+01    1.680640e+00
  1.700690e+01    1.689626e+00
  1.702277e+01    1.653598e+00
  1.703865e+01    1.653770e+00
  1.705452e+01    1.683708e+00
  1.707040e+01    1.687322e+00
  1.708627e+01    1.699482e+00
  1.710215e+01    1.671176e+00
  1.711802e+01    1.672880e+00
  1.713390e+01    1.660597e+00
  1.714978e+01    1.655003e+00
  1.716565e+01    1.672291e+00
  1.718153e+01    1.675050e+00
  1.719740e+01    1.655514e+00
  1.721328e+01    1.628967e+00
  1.722915e+01    1.594711e+00
  1.724503e+01    1.625968e+00
  1.726091e+01    1.640470e+00
  1.727678e+01    1.650623e+00
  1.729266e+01    1.640760e+00
  1.730853e+01    1.636254e+00
  1.732441e+01    1.606233e+00
  1.734028e+01    1.587591e+00
  1.735616e+01    1.580267e+00
  1.737203e+01    1.601771e+00
  1.738791e+01    1.596683e+00
  1.740379e+01    1.603465e+00
  1.741966e+01    1.619155e+00
  1.743554e+01    1.629278e+00
  1.745141e+01    1.627810e+00
  1.746729e+01    1.618153e+00
  1.748316e+01    1.610276e+00
  1.749904e+01    1.563570e+00
  1.751491e+01    1.601900e+00
  1.753079e+01    1.627180e+00
  1.754667e+01    1.591983e+00
  1.756254e+01    1.568459e+00
  1.757842e+01    1.594857e+00
  1.759429e+01    1.577542e+00
  1.761017e+01    1.599454e+00
  1.762604e+01    1.571018e+00
  1.764192e+01    1.578512e+00
  1.765779e+01    1.582343e+00
  1.767367e+01    1.562328e+00
  1.768955e+01    1.546083e+00
  1.770542e+01    1.548656e+00
  1.772130e+01    1.565036e+00
  1.773717e+01    1.563536e+00
  1.775305e+01    1.578651e+00
  1.776892e+01    1.589595e+00
  1.778480e+01    1.532410e+00
  1.780067e+01    1.536613e+00
  1.781655e+01    1.566116e+00
  1.783243e+01    1.562058e+00
  1.784830e+01    1.516835e+00
  1.786418e+01    1.515852e+00
  1.788005e+01    1.550901e+00
  1.789593e+01    1.547053e+00
  1.791180e+01    1.533762e+00
  1.792768e+01    1.533522e+00
  1.794355e+01    1.547185e+00
  1.795943e+01    1.530134e+00
  1.797531e+01    1.510617e+00
  1.799118e+01    1.513474e+00
  1.800706e+01    1.531516e+00
  1.802293e+01    1.530090e+00
  1.803881e+01    1.486889e+00
  1.805468e+01    1.481396e+00
  1.807056e+01    1.509795e+00
  1.808643e+01    1.512133e+00
  1.810231e+01    1.455384e+00
  1.811819e+01    1.517557e+00
  1.813406e+01    1.533438e+00
  1.814994e+01    1.491707e+00
  1.816581e+01    1.498812e+00
  1.818169e+01    1.521518e+00
  1.819756e+01    1.508109e+00
  1.821344e+01    1.497605e+00
  1.822932e+01    1.518136e+00
  1.824519e+01    1.499404e+00
  1.826107e+01    1.475579e+00
  1.827694e+01    1.487160e+00
  1.829282e+01    1.496112e+00
  1.830869e+01    1.504706e+00
  1.832457e+01    1.465480e+00
  1.834044e+01    1.474118e+00
  1.835632e+01    1.451978e+00
  1.837220e+01    1.404483e+00
  1.838807e+01    1.443338e+00
  1.840395e+01    1.483388e+00
  1.841982e+01    1.472503e+00
  1.843570e+01    1.431363e+00
  1.845157e+01    1.449850e+00
  1.846745e+01    1.453680e+00
  1.848332e+01    1.449914e+00
  1.849920e+01    1.436341e+00
  1.851508e+01    1.421122e+00
  1.853095e+01    1.436318e+00
  1.854683e+01    1.454024e+00
  1.856270e+01    1.450382e+00
  1.857858e+01    1.451720e+00
  1.859445e+01    1.457448e+00
  1.861033e+01    1.436877e+00
  1.862620e+01    1.408466e+00
  1.864208e+01    1.405509e+00
  1.865796e+01    1.416447e+00
  1.867383e+01    1.422579e+00
  1.868971e+01    1.419042e+00
  1.870558e+01    1.410125e+00
  1.872146e+01    1.406811e+00
  1.873733e+01    1.385754e+00
  1.875321e+01    1.409950e+00
  1.876908e+01    1.424048e+00
  1.878496e+01    1.417532e+00
  1.880084e+01    1.398438e+00
  1.881671e+01    1.415459e+00
  1.883259e+01    1.431207e+00
  1.884846e+01    1.396780e+00
  1.886434e+01    1.393958e+00
  1.888021e+01    1.376795e+00
  1.889609e+01    1.399195e+00
  1.891196e+01    1.418502e+00
  1.892784e+01    1.413668e+00
  1.894372e+01    1.393207e+00
  1.895959e+01    1.397855e+00
  1.897547e+01    1.417738e+00
  1.899134e+01    1.398098e+00
  1.900722e+01    1.365761e+00
  1.902309e+01    1.393980e+00
  1.903897e+01    1.397380e+00
  1.905484e+01    1.343251e+00
  1.907072e+01    1.364524e+00
  1.908660e+01    1.396717e+00
  1.910247e+01    1.380163e+00
  1.911835e+01    1.362007e+00
  1.913422e+01    1.371525e+00
  1.915010e+01    1.378650e+00
  1.916597e+01    1.381571e+00
  1.918185e+01    1.383565e+00
  1.919773e+01    1.384047e+00
  1.921360e+01    1.397249e+00
  1.922948e+01    1.372814e+00
  1.924535e+01    1.392646e+00
  1.926123e+01    1.390369e+00
  1.927710e+01    1.355444e+00
  1.929298e+01    1.329096e+00
  1.930885e+01    1.356770e+00
  1.932473e+01    1.355182e+00
  1.934061e+01    1.356192e+00
  1.935648e+01    1.346363e+00
  1.937236e+01    1.343254e+00
  1.938823e+01    1.344445e+00
  1.940411e+01    1.359730e+00
  1.941998e+01    1.344735e+00
  1.943586e+01    1.340994e+00
  1.945173e+01    1.347735e+00
  1.946761e+01    1.355850e+00
  1.948349e+01    1.340537e+00
  1.949936e+01    1.357914e+00
  1.951524e+01    1.311704e+00
  1.953111e+01    1.314843e+00
  1.954699e+01    1.314648e+00
  1.956286e+01    1.303266e+00
  1.957874e+01    1.315394e+00
  1.959461e+01    1.311247e+00
  1.961049e+01    1.319548e+00
  1.962637e+01    1.311640e+00
  1.964224e+01    1.320972e+00
  1.965812e+01    1.304291e+00
  1.967399e+01    1.295119e+00
  1.968987e+01    1.327966e+00
  1.970574e+01    1.334374e+00
  1.972162e+01    1.300333e+00
  1.973749e+01    1.325347e+00
  1.975337e+01    1.323811e+00
  1.976925e+01    1.313430e+00
  1.978512e+01    1.285686e+00
  1.980100e+01    1.317901e+00
  1.981687e+01    1.299476e+00
  1.983275e+01    1.299208e+00
  1.984862e+01    1.306247e+00
  1.986450e+01    1.294462e+00
  1.988037e+01    1.294508e+00
  1.989625e+01    1.305073e+00
  1.991213e+01    1.293935e+00
  1.992800e+01    1.304091e+00
  1.994388e+01    1.312301e+00
  1.995975e+01    1.310879e+00
  1.997563e+01    1.295646e+00
  1.999150e+01    1.287886e+00
  2.000738e+01    1.279794e+00
  2.002325e+01    1.287297e+00
  2.003913e+01    1.270185e+00
  2.005501e+01    1.271757e+00
  2.007088e+01    1.273726e+00
  2.008676e+01    1.275558e+00
  2.010263e+01    1.267210e+00
  2.011851e+01    1.260835e+00
  2.013438e+01    1.277506e+00
  2.015026e+01    1.248612e+00
  2.016614e+01    1.255683e+00
  2.018201e+01    1.266715e+00
  2.019789e+01    1.274947e+00
  2.021376e+01    1.252897e+00
  2.022964e+01    1.257100e+00
  2.024551e+01    1.263430e+00
  2.026139e+01    1.240718e+00
  2.027726e+01    1.250493e+00
  2.029314e+01    1.242076e+00
  2.030902e+01    1.249564e+00
  2.032489e+01    1.251234e+00
  2.034077e+01    1.249273e+00
  2.035664e+01    1.254723e+00
  2.037252e+01    1.234671e+00
  2.038839e+01    1.243682e+00
  2.040427e+01    1.265149e+00
  2.042014e+01    1.242872e+00
  2.043602e+01    1.231814e+00
  2.045190e+01    1.242185e+00
  2.046777e+01    1.247003e+00
  2.048365e+01    1.250125e+00
  2.049952e+01    1.248240e+00
  2.051540e+01    1.245410e+00
  2.053127e+01    1.258072e+00
  2.054715e+01    1.238539e+00
  2.056302e+01    1.232146e+00
  2.057890e+01    1.255536e+00
  2.059478e+01    1.257391e+00
  2.061065e+01    1.251195e+00
  2.062653e+01    1.225944e+00
  2.064240e+01    1.229563e+00
  2.065828e+01    1.233939e+00
  2.067415e+01    1.246103e+00
  2.069003e+01    1.248823e+00
  2.070590e+01    1.246280e+00
  2.072178e+01    1.237653e+00
  2.073766e+01    1.225453e+00
  2.075353e+01    1.226817e+00
  2.076941e+01    1.218747e+00
  2.078528e+01    1.218809e+00
  2.080116e+01    1.224615e+00
  2.081703e+01    1.240997e+00
  2.083291e+01    1.223701e+00
  2.084878e+01    1.241987e+00
  2.086466e+01    1.226694e+00
  2.088054e+01    1.225771e+00
  2.089641e+01    1.235713e+00
  2.091229e+01    1.236513e+00
  2.092816e+01    1.223756e+00
  2.094404e+01    1.232490e+00
  2.095991e+01    1.230390e+00
  2.097579e+01    1.227060e+00
  2.099166e+01    1.235501e+00
  2.100754e+01    1.231983e+00
  2.102342e+01    1.231683e+00
  2.103929e+01    1.232557e+00
  2.105517e+01    1.218528e+00
  2.107104e+01    1.207198e+00
  2.108692e+01    1.226581e+00
  2.110279e+01    1.238061e+00
  2.111867e+01    1.216313e+00
  2.113455e+01    1.219916e+00
  2.115042e+01    1.244306e+00
  2.116630e+01    1.267741e+00
  2.118217e+01    1.249561e+00
  2.119805e+01    1.238427e+00
  2.121392e+01    1.239799e+00
  2.122980e+01    1.245996e+00
  2.124567e+01    1.258814e+00
  2.126155e+01    1.254099e+00
  2.127743e+01    1.270996e+00
  2.129330e+01    1.265497e+00
  2.130918e+01    1.260663e+00
  2.132505e+01    1.275468e+00
  2.134093e+01    1.302201e+00
  2.135680e+01    1.312639e+00
  2.137268e+01    1.315064e+00
  2.138855e+01    1.317908e+00
  2.140443e+01    1.320569e+00
  2.142031e+01    1.344056e+00
  2.143618e+01    1.359856e+00
  2.145206e+01    1.367824e+00
  2.146793e+01    1.396129e+00
  2.148381e+01    1.401581e+00
  2.149968e+01    1.415968e+00
  2.151556e+01    1.447500e+00
  2.153143e+01    1.503684e+00
  2.154731e+01    1.535588e+00
  2.156319e+01    1.593527e+00
  2.157906e+01    1.650933e+00
  2.159494e+01    1.710118e+00
  2.161081e+01    1.780929e+00
  2.162669e+01    1.914621e+00
  2.164256e+01    2.011895e+00
  2.165844e+01    2.139033e+00
  2.167431e+01    2.325110e+00
  2.169019e+01    2.559866e+00
  2.170607e+01    2.793020e+00
  2.172194e+01    3.197713e+00
  2.173782e+01    3.648192e+00
  2.175369e+01    4.194861e+00
  2.176957e+01    4.739555e+00
  2.178544e+01    5.322718e+00
  2.180132e+01    6.018327e+00
  2.181719e+01    6.691144e+00
  2.183307e+01    7.403858e+00
  2.184895e+01    7.993205e+00
  2.186482e+01    8.517253e+00
  2.188070e+01    8.849133e+00
  2.189657e+01    8.964458e+00
  2.191245e+01    8.752443e+00
  2.192832e+01    8.245176e+00
  2.194420e+01    7.468624e+00
  2.196007e+01    6.548825e+00
  2.197595e+01    5.626245e+00
  2.199183e+01    4.844903e+00
  2.200770e+01    4.182562e+00
  2.202358e+01    3.588147e+00
  2.203945e+01    3.158946e+00
  2.205533e+01    2.839608e+00
  2.207120e+01    2.561155e+00
  2.208708e+01    2.333332e+00
  2.210296e+01    2.174150e+00
  2.211883e+01    2.014084e+00
  2.213471e+01    1.869881e+00
  2.215058e+01    1.737282e+00
  2.216646e+01    1.660196e+00
  2.218233e+01    1.610364e+00
  2.219821e+01    1.541401e+00
  2.221408e+01    1.482069e+00
  2.222996e+01    1.425025e+00
  2.224584e+01    1.393413e+00
  2.226171e+01    1.375483e+00
  2.227759e+01    1.349265e+00
  2.229346e+01    1.349650e+00
  2.230934e+01    1.340715e+00
  2.232521e+01    1.299997e+00
  2.234109e+01    1.293331e+00
  2.235696e+01    1.265966e+00
  2.237284e+01    1.236070e+00
  2.238872e+01    1.232222e+00
  2.240459e+01    1.227572e+00
  2.242047e+01    1.189530e+00
  2.243634e+01    1.178169e+00
  2.245222e+01    1.187826e+00
  2.246809e+01    1.163487e+00
  2.248397e+01    1.173711e+00
  2.249984e+01    1.168595e+00
  2.251572e+01    1.162814e+00
  2.253160e+01    1.147609e+00
  2.254747e+01    1.130453e+00
  2.256335e+01    1.111144e+00
  2.257922e+01    1.101794e+00
  2.259510e+01    1.096539e+00
  2.261097e+01    1.109561e+00
  2.262685e+01    1.114460e+00
  2.264272e+01    1.100761e+00
  2.265860e+01    1.104455e+00
  2.267448e+01    1.101100e+00
  2.269035e+01    1.106367e+00
  2.270623e+01    1.110233e+00
  2.272210e+01    1.084219e+00
  2.273798e+01    1.066221e+00
  2.275385e+01    1.076145e+00
  2.276973e+01    1.074578e+00
  2.278560e+01    1.076079e+00
  2.280148e+01    1.081401e+00
  2.281736e+01    1.062450e+00
  2.283323e+01    1.068835e+00
  2.284911e+01    1.065353e+00
  2.286498e+01    1.037263e+00
  2.288086e+01    1.059871e+00
  2.289673e+01    1.069743e+00
  2.291261e+01    1.050088e+00
  2.292848e+01    1.051291e+00
  2.294436e+01    1.025336e+00
  2.296024e+01    1.028073e+00
  2.297611e+01    1.023305e+00
  2.299199e+01    1.034796e+00
  2.300786e+01    1.032386e+00
  2.302374e+01    1.008394e+00
  2.303961e+01    1.018771e+00
  2.305549e+01    1.020991e+00
  2.307137e+01    1.012863e+00
  2.308724e+01    1.018691e+00
  2.310312e+01    1.006448e+00
  2.311899e+01    1.013518e+00
  2.313487e+01    1.007242e+00
  2.315074e+01    1.006609e+00
  2.316662e+01    9.879369e-01
  2.318249e+01    9.779858e-01
  2.319837e+01    9.755565e-01
  2.321425e+01    1.004214e+00
  2.323012e+01    1.005839e+00
  2.324600e+01    9.912985e-01
  2.326187e+01    9.798864e-01
  2.327775e+01    9.873940e-01
  2.329362e+01    9.858603e-01
  2.330950e+01    9.914469e-01
  2.332537e+01    9.848422e-01
  2.334125e+01    9.917338e-01
  2.335713e+01    9.963452e-01
  2.337300e+01    9.987048e-01
  2.338888e+01    9.778603e-01
  2.340475e+01    9.813856e-01
  2.342063e+01    9.766212e-01
  2.343650e+01    9.578471e-01
  2.345238e+01    9.645280e-01
  2.346825e+01    9.606394e-01
  2.348413e+01    9.762287e-01
  2.350001e+01    9.554745e-01
  2.351588e+01    9.603106e-01
  2.353176e+01    9.680193e-01
  2.354763e+01    9.762308e-01
  2.356351e+01    9.668555e-01
  2.357938e+01    9.785164e-01
  2.359526e+01    9.623247e-01
  2.361113e+01    9.600609e-01
  2.362701e+01    9.737123e-01
  2.364289e+01    9.587376e-01
  2.365876e+01    9.551851e-01
  2.367464e+01    9.433118e-01
  2.369051e+01    9.578783e-01
  2.370639e+01    9.462362e-01
  2.372226e+01    9.314438e-01
  2.373814e+01    9.209369e-01
  2.375401e+01    9.345764e-01
  2.376989e+01    9.436129e-01
  2.378577e+01    9.249530e-01
  2.380164e+01    9.219195e-01
  2.381752e+01    9.139593e-01
  2.383339e+01    9.130300e-01
  2.384927e+01    9.050474e-01
  2.386514e+01    8.809415e-01
  2.388102e+01    9.097782e-01
  2.389689e+01    9.083667e-01
  2.391277e+01    9.121469e-01
  2.392865e+01    9.096866e-01
  2.394452e+01    8.935875e-01
  2.396040e+01    9.082914e-01
  2.397627e+01    9.032656e-01
  2.399215e+01    8.966208e-01
  2.400802e+01    8.761716e-01
  2.402390e+01    8.814465e-01
  2.403978e+01    8.699286e-01
  2.405565e+01    8.637248e-01
  2.407153e+01    8.862938e-01
  2.408740e+01    8.976394e-01
  2.410328e+01    8.891485e-01
  2.411915e+01    9.069189e-01
  2.413503e+01    9.165584e-01
  2.415090e+01    9.008248e-01
  2.416678e+01    8.844824e-01
  2.418266e+01    8.826238e-01
  2.419853e+01    8.758767e-01
  2.421441e+01    8.961635e-01
  2.423028e+01    9.101344e-01
  2.424616e+01    8.747104e-01
  2.426203e+01    8.876333e-01
  2.427791e+01    8.843749e-01
  2.429378e+01    8.947408e-01
  2.430966e+01    8.926296e-01
  2.432554e+01    8.990536e-01
  2.434141e+01    8.899127e-01
  2.435729e+01    8.988985e-01
  2.437316e+01    8.845217e-01
  2.438904e+01    8.962489e-01
  2.440491e+01    9.010764e-01
  2.442079e+01    9.164236e-01
  2.443666e+01    9.077033e-01
  2.445254e+01    8.938124e-01
  2.446842e+01    8.960684e-01
  2.448429e+01    9.016840e-01
  2.450017e+01    9.059626e-01
  2.451604e+01    9.055143e-01
  2.453192e+01    9.163817e-01
  2.454779e+01    9.245091e-01
  2.456367e+01    8.801435e-01
  2.457954e+01    8.832793e-01
  2.459542e+01    8.890095e-01
  2.461130e+01    8.951692e-01
  2.462717e+01    9.002595e-01
  2.464305e+01    9.246140e-01
  2.465892e+01    8.957415e-01
  2.467480e+01    8.977183e-01
  2.469067e+01    8.908217e-01
  2.470655e+01    8.887461e-01
  2.472242e+01    8.909435e-01
  2.473830e+01    9.082646e-01
  2.475418e+01    9.004102e-01
  2.477005e+01    8.842838e-01
  2.478593e+01    8.845340e-01
  2.480180e+01    8.870509e-01
  2.481768e+01    8.903589e-01
  2.483355e+01    8.751777e-01
  2.484943e+01    8.854846e-01
  2.486530e+01    9.033549e-01
  2.488118e+01    8.900301e-01
  2.489706e+01    8.957455e-01
  2.491293e+01    8.955853e-01
  2.492881e+01    8.917663e-01
  2.494468e+01    9.020330e-01
  2.496056e+01    9.065769e-01
  2.497643e+01    8.976387e-01
  2.499231e+01    9.008977e-01
  2.500819e+01    9.205239e-01
  2.502406e+01    9.151688e-01
  2.503994e+01    9.144894e-01
  2.505581e+01    9.140973e-01
  2.507169e+01    9.014853e-01
  2.508756e+01    8.966158e-01
  2.510344e+01    9.155625e-01
  2.511931e+01    9.266295e-01
  2.513519e+01    9.190145e-01
  2.515107e+01    9.077892e-01
  2.516694e+01    9.110852e-01
  2.518282e+01    9.153220e-01
  2.519869e+01    9.136730e-01
  2.521457e+01    9.272674e-01
  2.523044e+01    9.346802e-01
  2.524632e+01    9.496595e-01
  2.526219e+01    9.353083e-01
  2.527807e+01    9.268247e-01
  2.529395e+01    9.485975e-01
  2.530982e+01    9.745169e-01
  2.532570e+01    9.793479e-01
  2.534157e+01    9.647083e-01
  2.535745e+01    9.614438e-01
  2.537332e+01    9.835716e-01
  2.538920e+01    1.005410e+00
  2.540507e+01    9.930871e-01
  2.542095e+01    1.013774e+00
  2.543683e+01    1.015536e+00
  2.545270e+01    1.030350e+00
  2.546858e+01    1.031045e+00
  2.548445e+01    1.051928e+00
  2.550033e+01    1.068449e+00
  2.551620e+01    1.077803e+00
  2.553208e+01    1.100997e+00
  2.554795e+01    1.109507e+00
  2.556383e+01    1.136967e+00
  2.557971e+01    1.167918e+00
  2.559558e+01    1.184432e+00
  2.561146e+01    1.220535e+00
  2.562733e+01    1.273723e+00
  2.564321e+01    1.322330e+00
  2.565908e+01    1.378272e+00
  2.567496e+01    1.452389e+00
  2.569083e+01    1.526543e+00
  2.570671e+01    1.630729e+00
  2.572259e+01    1.744860e+00
  2.573846e+01    1.892213e+00
  2.575434e+01    2.065225e+00
  2.577021e+01    2.282557e+00
  2.578609e+01    2.572461e+00
  2.580196e+01    2.890147e+00
  2.581784e+01    3.254697e+00
  2.583371e+01    3.769930e+00
  2.584959e+01    4.261031e+00
  2.586547e+01    4.805129e+00
  2.588134e+01    5.382849e+00
  2.589722e+01    5.953805e+00
  2.591309e+01    6.493398e+00
  2.592897e+01    6.917636e+00
  2.594484e+01    7.239233e+00
  2.596072e+01    7.194965e+00
  2.597660e+01    6.970738e+00
  2.599247e+01    6.540545e+00
  2.600835e+01    5.905283e+00
  2.602422e+01    5.207827e+00
  2.604010e+01    4.544001e+00
  2.605597e+01    3.929675e+00
  2.607185e+01    3.376799e+00
  2.608772e+01    2.942023e+00
  2.610360e+01    2.599573e+00
  2.611948e+01    2.343872e+00
  2.613535e+01    2.098829e+00
  2.615123e+01    1.916745e+00
  2.616710e+01    1.784229e+00
  2.618298e+01    1.652222e+00
  2.619885e+01    1.563456e+00
  2.621473e+01    1.495624e+00
  2.623060e+01    1.409483e+00
  2.624648e+01    1.353799e+00
  2.626236e+01    1.305760e+00
  2.627823e+01    1.242622e+00
  2.629411e+01    1.201746e+00
  2.630998e+01    1.177770e+00
  2.632586e+01    1.136899e+00
  2.634173e+01    1.107493e+00
  2.635761e+01    1.101922e+00
  2.637348e+01    1.082534e+00
  2.638936e+01    1.077222e+00
  2.640524e+01    1.062712e+00
  2.642111e+01    1.042028e+00
  2.643699e+01    1.035724e+00
  2.645286e+01    1.028717e+00
  2.646874e+01    1.038996e+00
  2.648461e+01    1.041313e+00
  2.650049e+01    1.024152e+00
  2.651636e+01    1.010541e+00
  2.653224e+01    1.005727e+00
  2.654812e+01    1.000325e+00
  2.656399e+01    1.001125e+00
  2.657987e+01    1.007326e+00
  2.659574e+01    9.980215e-01
  2.661162e+01    9.735911e-01
  2.662749e+01    9.776736e-01
  2.664337e+01    1.006676e+00
  2.665924e+01    9.937076e-01
  2.667512e+01    9.681366e-01
  2.669100e+01    9.711701e-01
  2.670687e+01    9.717866e-01
  2.672275e+01    9.928662e-01
  2.673862e+01    9.591148e-01
  2.675450e+01    9.580683e-01
  2.677037e+01    9.678684e-01
  2.678625e+01    9.908109e-01
  2.680212e+01    1.001406e+00
  2.681800e+01    9.854829e-01
  2.683388e+01    9.686906e-01
  2.684975e+01    9.711018e-01
  2.686563e+01    9.785802e-01
  2.688150e+01    1.002668e+00
  2.689738e+01    1.009890e+00
  2.691325e+01    1.026495e+00
  2.692913e+01    1.032230e+00
  2.694501e+01    1.038723e+00
  2.696088e+01    1.050522e+00
  2.697676e+01    1.072519e+00
  2.699263e+01    1.096048e+00
  2.700851e+01    1.114092e+00
  2.702438e+01    1.157371e+00
  2.704026e+01    1.208663e+00
  2.705613e+01    1.265427e+00
  2.707201e+01    1.359598e+00
  2.708789e+01    1.444798e+00
  2.710376e+01    1.535411e+00
  2.711964e+01    1.632494e+00
  2.713551e+01    1.751234e+00
  2.715139e+01    1.907633e+00
  2.716726e+01    2.018362e+00
  2.718314e+01    2.087737e+00
  2.719901e+01    2.157169e+00
  2.721489e+01    2.169563e+00
  2.723077e+01    2.159190e+00
  2.724664e+01    2.093381e+00
  2.726252e+01    1.979932e+00
  2.727839e+01    1.862386e+00
  2.729427e+01    1.695771e+00
  2.731014e+01    1.559670e+00
  2.732602e+01    1.465871e+00
  2.734189e+01    1.387914e+00
  2.735777e+01    1.301720e+00
  2.737365e+01    1.214422e+00
  2.738952e+01    1.149156e+00
  2.740540e+01    1.129579e+00
  2.742127e+01    1.098026e+00
  2.743715e+01    1.055454e+00
  2.745302e+01    1.039212e+00
  2.746890e+01    1.011808e+00
  2.748477e+01    1.012759e+00
  2.750065e+01    1.013972e+00
  2.751653e+01    9.906093e-01
  2.753240e+01    9.567752e-01
  2.754828e+01    9.666972e-01
  2.756415e+01    9.794123e-01
  2.758003e+01    9.454281e-01
  2.759590e+01    9.284000e-01
  2.761178e+01    9.469542e-01
  2.762765e+01    9.318501e-01
  2.764353e+01    9.256417e-01
  2.765941e+01    9.224898e-01
  2.767528e+01    9.211029e-01
  2.769116e+01    8.872793e-01
  2.770703e+01    8.984836e-01
  2.772291e+01    9.150776e-01
  2.773878e+01    9.000733e-01
  2.775466e+01    8.831906e-01
  2.777054e+01    8.808215e-01
  2.778641e+01    8.789811e-01
  2.780229e+01    8.914855e-01
  2.781816e+01    9.232023e-01
  2.783404e+01    9.115860e-01
  2.784991e+01    8.987952e-01
  2.786579e+01    8.877169e-01
  2.788166e+01    8.835728e-01
  2.789754e+01    8.717471e-01
  2.791342e+01    8.998733e-01
  2.792929e+01    9.153758e-01
  2.794517e+01    9.030122e-01
  2.796104e+01    8.639964e-01
  2.797692e+01    8.707284e-01
  2.799279e+01    8.677740e-01
  2.800867e+01    8.538963e-01
  2.802454e+01    8.640001e-01
  2.804042e+01    8.816351e-01
  2.805630e+01    8.730217e-01
  2.807217e+01    8.796205e-01
  2.808805e+01    8.635612e-01
  2.810392e+01    8.606144e-01
  2.811980e+01    8.492498e-01
  2.813567e+01    8.484144e-01
  2.815155e+01    8.613415e-01
  2.816742e+01    8.591641e-01
  2.818330e+01    8.686860e-01
  2.819918e+01    8.662094e-01
  2.821505e+01    8.414963e-01
  2.823093e+01    8.618839e-01
  2.824680e+01    8.643571e-01
  2.826268e+01    8.592063e-01
  2.827855e+01    8.760620e-01
  2.829443e+01    8.758398e-01
  2.831030e+01    8.463110e-01
  2.832618e+01    8.399569e-01
  2.834206e+01    8.355504e-01
  2.835793e+01    8.476451e-01
  2.837381e+01    8.487430e-01
  2.838968e+01    8.712756e-01
  2.840556e+01    8.897247e-01
  2.842143e+01    8.729625e-01
  2.843731e+01    8.403081e-01
  2.845318e+01    8.761491e-01
  2.846906e+01    8.554007e-01
  2.848494e+01    8.442994e-01
  2.850081e+01    8.463188e-01
  2.851669e+01    8.462672e-01
  2.853256e+01    8.084425e-01
  2.854844e+01    8.386919e-01
  2.856431e+01    8.497550e-01
  2.858019e+01    8.230696e-01
  2.859606e+01    8.340815e-01
  2.861194e+01    8.546944e-01
  2.862782e+01    8.380840e-01
  2.864369e+01    8.449662e-01
  2.865957e+01    8.388126e-01
  2.867544e+01    8.336482e-01
  2.869132e+01    8.416011e-01
  2.870719e+01    8.162934e-01
  2.872307e+01    8.252695e-01
  2.873895e+01    8.499787e-01
  2.875482e+01    8.443389e-01
  2.877070e+01    8.150932e-01
  2.878657e+01    8.177653e-01
  2.880245e+01    8.395478e-01
  2.881832e+01    8.331798e-01
  2.883420e+01    8.345013e-01
  2.885007e+01    8.441307e-01
  2.886595e+01    8.344434e-01
  2.888183e+01    8.456546e-01
  2.889770e+01    8.327683e-01
  2.891358e+01    8.163345e-01
  2.892945e+01    7.932719e-01
  2.894533e+01    8.238059e-01
  2.896120e+01    8.383557e-01
  2.897708e+01    8.137978e-01
  2.899295e+01    8.131612e-01
  2.900883e+01    8.070617e-01
  2.902471e+01    8.044581e-01
  2.904058e+01    8.372770e-01
  2.905646e+01    8.259780e-01
  2.907233e+01    8.209861e-01
  2.908821e+01    8.114309e-01
  2.910408e+01    8.209909e-01
  2.911996e+01    8.359538e-01
  2.913583e+01    8.081823e-01
  2.915171e+01    7.991514e-01
  2.916759e+01    8.235463e-01
  2.918346e+01    8.075886e-01
  2.919934e+01    8.132892e-01
  2.921521e+01    8.029495e-01
  2.923109e+01    8.134201e-01
  2.924696e+01    8.071182e-01
  2.926284e+01    8.057382e-01
  2.927871e+01    8.050794e-01
  2.929459e+01    8.105224e-01
  2.931047e+01    8.132167e-01
  2.932634e+01    7.901523e-01
  2.934222e+01    8.017129e-01
  2.935809e+01    8.221391e-01
  2.937397e+01    8.369998e-01
  2.938984e+01    8.202808e-01
  2.940572e+01    8.234528e-01
  2.942159e+01    8.111714e-01
  2.943747e+01    7.917559e-01
  2.945335e+01    7.991180e-01
  2.946922e+01    8.119004e-01
  2.948510e+01    8.167871e-01
  2.950097e+01    8.025764e-01
  2.951685e+01    8.032995e-01
  2.953272e+01    8.100717e-01
  2.954860e+01    8.035536e-01
  2.956447e+01    7.880701e-01
  2.958035e+01    8.103857e-01
  2.959623e+01    8.171272e-01
  2.961210e+01    8.110800e-01
  2.962798e+01    8.322638e-01
  2.964385e+01    8.213617e-01
  2.965973e+01    7.931638e-01
  2.967560e+01    8.058345e-01
  2.969148e+01    8.036917e-01
  2.970736e+01    8.131896e-01
  2.972323e+01    8.137189e-01
  2.973911e+01    8.112871e-01
  2.975498e+01    7.791607e-01
  2.977086e+01    8.095560e-01
  2.978673e+01    8.097849e-01
  2.980261e+01    7.938207e-01
  2.981848e+01    8.073003e-01
  2.983436e+01    8.201492e-01
  2.985024e+01    8.125622e-01
  2.986611e+01    8.084881e-01
  2.988199e+01    8.158774e-01
  2.989786e+01    8.105999e-01
  2.991374e+01    7.963135e-01
  2.992961e+01    8.132119e-01
  2.994549e+01    8.043345e-01
  2.996136e+01    8.042436e-01
  2.997724e+01    8.118019e-01
  2.999312e+01    8.320231e-01
  3.000899e+01    8.134554e-01
  3.002487e+01    8.157974e-01
  3.004074e+01    8.172116e-01
  3.005662e+01    8.102080e-01
  3.007249e+01    8.055906e-01
  3.008837e+01    8.090130e-01
  3.010424e+01    8.043802e-01
  3.012012e+01    7.983701e-01
  3.013600e+01    7.993783e-01
  3.015187e+01    7.855680e-01
  3.016775e+01    8.014034e-01
  3.018362e+01    7.806997e-01
  3.019950e+01    7.615532e-01
  3.021537e+01    7.936299e-01
  3.023125e+01    7.711989e-01
  3.024712e+01    7.880626e-01
  3.026300e+01    7.979079e-01
  3.027888e+01    7.672756e-01
  3.029475e+01    7.901478e-01
  3.031063e+01    8.180142e-01
  3.032650e+01    7.959669e-01
  3.034238e+01    7.906222e-01
  3.035825e+01    7.714928e-01
  3.037413e+01    7.738774e-01
  3.039000e+01    7.914240e-01
  3.040588e+01    8.030117e-01
  3.042176e+01    7.973393e-01
  3.043763e+01    8.038278e-01
  3.045351e+01    7.888169e-01
  3.046938e+01    7.836815e-01
  3.048526e+01    7.904735e-01
  3.050113e+01    7.742323e-01
  3.051701e+01    7.814008e-01
  3.053288e+01    7.910303e-01
  3.054876e+01    7.939538e-01
  3.056464e+01    7.937006e-01
  3.058051e+01    8.077587e-01
  3.059639e+01    8.142460e-01
  3.061226e+01    8.010739e-01
  3.062814e+01    7.628118e-01
  3.064401e+01    7.802394e-01
  3.065989e+01    7.937791e-01
  3.067577e+01    7.777144e-01
  3.069164e+01    7.631457e-01
  3.070752e+01    7.722198e-01
  3.072339e+01    7.883939e-01
  3.073927e+01    7.895783e-01
  3.075514e+01    7.943410e-01
  3.077102e+01    7.763565e-01
  3.078689e+01    7.816713e-01
  3.080277e+01    7.768807e-01
  3.081865e+01    7.924434e-01
  3.083452e+01    7.912906e-01
  3.085040e+01    8.002616e-01
  3.086627e+01    7.914075e-01
  3.088215e+01    7.857322e-01
  3.089802e+01    7.871801e-01
  3.091390e+01    7.934651e-01
  3.092977e+01    8.100619e-01
  3.094565e+01    8.354830e-01
  3.096153e+01    8.055230e-01
  3.097740e+01    7.780131e-01
  3.099328e+01    7.833908e-01
  3.100915e+01    7.906937e-01
  3.102503e+01    7.980211e-01
  3.104090e+01    7.999430e-01
  3.105678e+01    7.897176e-01
  3.107265e+01    7.895587e-01
  3.108853e+01    8.116024e-01
  3.110441e+01    8.002984e-01
  3.112028e+01    8.067400e-01
  3.113616e+01    7.985789e-01
  3.115203e+01    7.975439e-01
  3.116791e+01    8.122672e-01
  3.118378e+01    8.071705e-01
  3.119966e+01    8.011645e-01
  3.121553e+01    8.092043e-01
  3.123141e+01    8.172826e-01
  3.124729e+01    8.040980e-01
  3.126316e+01    8.093522e-01
  3.127904e+01    8.102077e-01
  3.129491e+01    7.975770e-01
  3.131079e+01    7.969307e-01
  3.132666e+01    7.998671e-01
  3.134254e+01    8.297532e-01
  3.135841e+01    8.350289e-01
  3.137429e+01    8.221742e-01
  3.139017e+01    8.089697e-01
  3.140604e+01    8.124019e-01
  3.142192e+01    8.061935e-01
  3.143779e+01    8.091188e-01
  3.145367e+01    8.067142e-01
  3.146954e+01    8.063602e-01
  3.148542e+01    8.266726e-01
  3.150129e+01    8.295668e-01
  3.151717e+01    8.453045e-01
  3.153305e+01    8.416402e-01
  3.154892e+01    8.509985e-01
  3.156480e+01    8.634432e-01
  3.158067e+01    8.837690e-01
  3.159655e+01    8.914583e-01
  3.161242e+01    8.971636e-01
  3.162830e+01    9.139653e-01
  3.164418e+01    9.312527e-01
  3.166005e+01    9.624816e-01
  3.167593e+01    9.785179e-01
  3.169180e+01    1.011572e+00
  3.170768e+01    1.031284e+00
  3.172355e+01    1.072790e+00
  3.173943e+01    1.121785e+00
  3.175530e+01    1.206872e+00
  3.177118e+01    1.268293e+00
  3.178706e+01    1.353777e+00
  3.180293e+01    1.483274e+00
  3.181881e+01    1.622709e+00
  3.183468e+01    1.746074e+00
  3.185056e+01    1.901666e+00
  3.186643e+01    1.990645e+00
  3.188231e+01    2.038993e+00
  3.189818e+01    2.151409e+00
  3.191406e+01    2.119084e+00
  3.192994e+01    2.051186e+00
  3.194581e+01    1.941769e+00
  3.196169e+01    1.812770e+00
  3.197756e+01    1.647686e+00
  3.199344e+01    1.506297e+00
  3.200931e+01    1.383368e+00
  3.202519e+01    1.330539e+00
  3.204106e+01    1.249308e+00
  3.205694e+01    1.168839e+00
  3.207282e+01    1.109586e+00
  3.208869e+01    1.034281e+00
  3.210457e+01    1.006255e+00
  3.212044e+01    9.909038e-01
  3.213632e+01    9.318329e-01
  3.215219e+01    8.940305e-01
  3.216807e+01    8.923104e-01
  3.218394e+01    8.839381e-01
  3.219982e+01    8.728091e-01
  3.221570e+01    8.605639e-01
  3.223157e+01    8.280308e-01
  3.224745e+01    8.406655e-01
  3.226332e+01    8.191691e-01
  3.227920e+01    8.152308e-01
  3.229507e+01    8.023912e-01
  3.231095e+01    8.260361e-01
  3.232682e+01    8.039321e-01
  3.234270e+01    8.179078e-01
  3.235858e+01    8.145399e-01
  3.237445e+01    8.192626e-01
  3.239033e+01    8.133199e-01
  3.240620e+01    8.158704e-01
  3.242208e+01    8.114273e-01
  3.243795e+01    7.959420e-01
  3.245383e+01    7.737679e-01
  3.246970e+01    7.683074e-01
  3.248558e+01    7.672135e-01
  3.250146e+01    8.014048e-01
  3.251733e+01    7.862059e-01
  3.253321e+01    8.014418e-01
  3.254908e+01    7.797087e-01
