# == pyFAI calibration ==
# Distance Sample to Detector: 0.3999999939076516 m
# PONI: 9.750e-02, 1.135e-01 m
# Rotations: -0.000175 0.000000 -0.000000 rad
# 
# == Fit2d calibration ==
# Distance Sample-beamCenter: 400.000 mm
# Center: x=1514.000, y=1300.000 pix
# Tilt: 0.010 deg  TiltPlanRot: 0.010 deg
# 
# Detector Detector	 Spline= None	 PixelSize= 7.500e-05, 7.500e-05 m
#    Detector has a mask: False 
#    Detector has a dark current: False 
#    detector has a flat field: False 
# 
# Wavelength: 6.888e-11 m
# Mask applied: user provided
# Dark current applied: False
# Flat field applied: False
# Polarization factor: 0.99
# Normalization factor: 1.0
# --> /home/myspot/data/2024_07_Rosario/Ru-CGO-ex/2024-07-27_003_Ru-CGO-ex_Reaction_dwell_000023_data_000029.dat
#       q_nm^-1             I 
  2.003187e-02    0.000000e+00
  3.590745e-02    0.000000e+00
  5.178302e-02    7.388627e-02
  6.765859e-02    1.513583e-01
  8.353417e-02    1.464303e-01
  9.940974e-02    1.068430e-01
  1.152853e-01    1.067366e-01
  1.311609e-01    3.206104e-02
  1.470365e-01    1.243953e-02
  1.629120e-01    2.226640e-03
  1.787876e-01    2.316917e-02
  1.946632e-01    6.247012e-02
  2.105388e-01    4.922966e-02
  2.264143e-01    2.422865e-02
  2.422899e-01    9.744860e-02
  2.581655e-01    1.505472e-01
  2.740411e-01    5.851344e-02
  2.899166e-01    3.635740e-02
  3.057922e-01    6.385603e-02
  3.216678e-01    6.458714e-02
  3.375433e-01    3.942188e-02
  3.534189e-01    5.220026e-02
  3.692945e-01    5.180494e-02
  3.851701e-01    6.533600e-02
  4.010456e-01    2.664895e-02
  4.169212e-01    4.521732e-02
  4.327968e-01    5.103075e-02
  4.486724e-01    3.877351e-02
  4.645479e-01    4.591545e-02
  4.804235e-01    4.367134e-02
  4.962991e-01    5.397689e-02
  5.121747e-01    6.497359e-02
  5.280502e-01    4.713197e-02
  5.439258e-01    3.914056e-02
  5.598014e-01    2.514874e-02
  5.756770e-01    1.420166e-02
  5.915525e-01    1.722471e-02
  6.074281e-01    2.674752e-02
  6.233037e-01    4.058331e-02
  6.391793e-01    4.307874e-02
  6.550548e-01    3.633980e-02
  6.709304e-01    3.591542e-02
  6.868060e-01    3.642951e-02
  7.026815e-01    3.964427e-02
  7.185571e-01    1.683694e-02
  7.344327e-01    3.868376e-02
  7.503083e-01    5.612620e-02
  7.661838e-01    5.981169e-02
  7.820594e-01    1.395678e-01
  7.979350e-01    1.920386e-01
  8.138106e-01    2.336105e-01
  8.296861e-01    2.503094e-01
  8.455617e-01    3.327040e-01
  8.614373e-01    4.766800e-01
  8.773129e-01    5.434291e-01
  8.931884e-01    5.637770e-01
  9.090640e-01    5.834662e-01
  9.249396e-01    6.493813e-01
  9.408152e-01    7.326260e-01
  9.566907e-01    8.604778e-01
  9.725663e-01    1.016577e+00
  9.884419e-01    1.120264e+00
  1.004317e+00    1.219993e+00
  1.020193e+00    1.259109e+00
  1.036069e+00    1.313888e+00
  1.051944e+00    1.410761e+00
  1.067820e+00    1.482341e+00
  1.083695e+00    1.464999e+00
  1.099571e+00    1.572469e+00
  1.115446e+00    1.504994e+00
  1.131322e+00    1.661262e+00
  1.147198e+00    1.671124e+00
  1.163073e+00    1.592121e+00
  1.178949e+00    1.650031e+00
  1.194824e+00    1.852409e+00
  1.210700e+00    2.040896e+00
  1.226575e+00    2.158394e+00
  1.242451e+00    2.442725e+00
  1.258327e+00    2.343283e+00
  1.274202e+00    2.562135e+00
  1.290078e+00    2.567379e+00
  1.305953e+00    2.701885e+00
  1.321829e+00    2.669538e+00
  1.337705e+00    2.615325e+00
  1.353580e+00    2.709868e+00
  1.369456e+00    2.692635e+00
  1.385331e+00    2.783757e+00
  1.401207e+00    2.796286e+00
  1.417082e+00    2.799782e+00
  1.432958e+00    2.950735e+00
  1.448834e+00    2.988133e+00
  1.464709e+00    2.949533e+00
  1.480585e+00    2.968008e+00
  1.496460e+00    3.019230e+00
  1.512336e+00    3.156817e+00
  1.528211e+00    3.102205e+00
  1.544087e+00    3.256169e+00
  1.559963e+00    3.304293e+00
  1.575838e+00    3.201615e+00
  1.591714e+00    3.072913e+00
  1.607589e+00    3.214444e+00
  1.623465e+00    3.263566e+00
  1.639340e+00    3.111895e+00
  1.655216e+00    3.100179e+00
  1.671092e+00    3.134242e+00
  1.686967e+00    3.034214e+00
  1.702843e+00    3.095936e+00
  1.718718e+00    3.101264e+00
  1.734594e+00    2.946167e+00
  1.750469e+00    3.046921e+00
  1.766345e+00    3.065370e+00
  1.782221e+00    3.102934e+00
  1.798096e+00    3.092391e+00
  1.813972e+00    2.978086e+00
  1.829847e+00    3.027555e+00
  1.845723e+00    3.047064e+00
  1.861598e+00    3.083886e+00
  1.877474e+00    3.254105e+00
  1.893350e+00    3.198353e+00
  1.909225e+00    3.146775e+00
  1.925101e+00    3.035560e+00
  1.940976e+00    3.028370e+00
  1.956852e+00    3.032979e+00
  1.972727e+00    2.998272e+00
  1.988603e+00    3.057163e+00
  2.004479e+00    3.086306e+00
  2.020354e+00    3.184083e+00
  2.036230e+00    3.125900e+00
  2.052105e+00    3.064443e+00
  2.067981e+00    3.101398e+00
  2.083856e+00    3.097276e+00
  2.099732e+00    3.111260e+00
  2.115608e+00    3.082531e+00
  2.131483e+00    3.036863e+00
  2.147359e+00    3.061599e+00
  2.163234e+00    3.068870e+00
  2.179110e+00    3.055187e+00
  2.194985e+00    3.037891e+00
  2.210861e+00    3.068403e+00
  2.226737e+00    3.230505e+00
  2.242612e+00    3.228858e+00
  2.258488e+00    3.174643e+00
  2.274363e+00    3.089139e+00
  2.290239e+00    3.113553e+00
  2.306115e+00    3.095237e+00
  2.321990e+00    3.222184e+00
  2.337866e+00    3.178315e+00
  2.353741e+00    3.162520e+00
  2.369617e+00    3.129081e+00
  2.385492e+00    3.059461e+00
  2.401368e+00    3.093110e+00
  2.417244e+00    3.106791e+00
  2.433119e+00    3.119998e+00
  2.448995e+00    3.184896e+00
  2.464870e+00    3.156661e+00
  2.480746e+00    3.133136e+00
  2.496621e+00    3.204307e+00
  2.512497e+00    3.325633e+00
  2.528373e+00    3.287270e+00
  2.544248e+00    3.193607e+00
  2.560124e+00    3.172495e+00
  2.575999e+00    3.182725e+00
  2.591875e+00    3.228180e+00
  2.607750e+00    3.163358e+00
  2.623626e+00    3.176880e+00
  2.639502e+00    3.206707e+00
  2.655377e+00    3.341317e+00
  2.671253e+00    3.410237e+00
  2.687128e+00    3.241737e+00
  2.703004e+00    3.144708e+00
  2.718879e+00    3.222644e+00
  2.734755e+00    3.179877e+00
  2.750631e+00    3.214197e+00
  2.766506e+00    3.248626e+00
  2.782382e+00    3.291164e+00
  2.798257e+00    3.235543e+00
  2.814133e+00    3.267609e+00
  2.830008e+00    3.347318e+00
  2.845884e+00    3.339994e+00
  2.861760e+00    3.293953e+00
  2.877635e+00    3.356006e+00
  2.893511e+00    3.358555e+00
  2.909386e+00    3.346220e+00
  2.925262e+00    3.377778e+00
  2.941137e+00    3.333402e+00
  2.957013e+00    3.346459e+00
  2.972889e+00    3.342622e+00
  2.988764e+00    3.327871e+00
  3.004640e+00    3.317908e+00
  3.020515e+00    3.339443e+00
  3.036391e+00    3.375159e+00
  3.052266e+00    3.391135e+00
  3.068142e+00    3.414308e+00
  3.084018e+00    3.372984e+00
  3.099893e+00    3.355790e+00
  3.115769e+00    3.424937e+00
  3.131644e+00    3.450738e+00
  3.147520e+00    3.480324e+00
  3.163395e+00    3.457059e+00
  3.179271e+00    3.452931e+00
  3.195147e+00    3.376805e+00
  3.211022e+00    3.327782e+00
  3.226898e+00    3.410226e+00
  3.242773e+00    3.439719e+00
  3.258649e+00    3.480163e+00
  3.274525e+00    3.338489e+00
  3.290400e+00    3.410736e+00
  3.306276e+00    3.442961e+00
  3.322151e+00    3.245086e+00
  3.338027e+00    3.328871e+00
  3.353902e+00    3.435456e+00
  3.369778e+00    3.481331e+00
  3.385654e+00    3.409938e+00
  3.401529e+00    3.492344e+00
  3.417405e+00    3.456891e+00
  3.433280e+00    3.413278e+00
  3.449156e+00    3.381662e+00
  3.465031e+00    3.460878e+00
  3.480907e+00    3.553998e+00
  3.496783e+00    3.445805e+00
  3.512658e+00    3.510002e+00
  3.528534e+00    3.497315e+00
  3.544409e+00    3.518426e+00
  3.560285e+00    3.499376e+00
  3.576160e+00    3.517699e+00
  3.592036e+00    3.486759e+00
  3.607912e+00    3.480567e+00
  3.623787e+00    3.508139e+00
  3.639663e+00    3.553533e+00
  3.655538e+00    3.500420e+00
  3.671414e+00    3.430937e+00
  3.687289e+00    3.489408e+00
  3.703165e+00    3.496579e+00
  3.719041e+00    3.595531e+00
  3.734916e+00    3.542572e+00
  3.750792e+00    3.484272e+00
  3.766667e+00    3.529735e+00
  3.782543e+00    3.554418e+00
  3.798418e+00    3.618428e+00
  3.814294e+00    3.546231e+00
  3.830170e+00    3.457631e+00
  3.846045e+00    3.389847e+00
  3.861921e+00    3.391882e+00
  3.877796e+00    3.411803e+00
  3.893672e+00    3.466377e+00
  3.909547e+00    3.561515e+00
  3.925423e+00    3.666660e+00
  3.941299e+00    3.555291e+00
  3.957174e+00    3.497766e+00
  3.973050e+00    3.500424e+00
  3.988925e+00    3.517196e+00
  4.004801e+00    3.538403e+00
  4.020676e+00    3.571540e+00
  4.036552e+00    3.517376e+00
  4.052428e+00    3.518501e+00
  4.068303e+00    3.579993e+00
  4.084179e+00    3.430039e+00
  4.100054e+00    3.512888e+00
  4.115930e+00    3.514464e+00
  4.131806e+00    3.550640e+00
  4.147681e+00    3.534927e+00
  4.163557e+00    3.568426e+00
  4.179432e+00    3.566106e+00
  4.195308e+00    3.598733e+00
  4.211183e+00    3.561412e+00
  4.227059e+00    3.520823e+00
  4.242935e+00    3.586294e+00
  4.258810e+00    3.669087e+00
  4.274686e+00    3.581178e+00
  4.290561e+00    3.555587e+00
  4.306437e+00    3.603506e+00
  4.322312e+00    3.593944e+00
  4.338188e+00    3.561242e+00
  4.354064e+00    3.567660e+00
  4.369939e+00    3.621978e+00
  4.385815e+00    3.563482e+00
  4.401690e+00    3.573424e+00
  4.417566e+00    3.571476e+00
  4.433441e+00    3.560179e+00
  4.449317e+00    3.592009e+00
  4.465193e+00    3.659432e+00
  4.481068e+00    3.577524e+00
  4.496944e+00    3.544670e+00
  4.512819e+00    3.580144e+00
  4.528695e+00    3.580017e+00
  4.544570e+00    3.687940e+00
  4.560446e+00    3.613236e+00
  4.576322e+00    3.511469e+00
  4.592197e+00    3.536019e+00
  4.608073e+00    3.605429e+00
  4.623948e+00    3.516313e+00
  4.639824e+00    3.533527e+00
  4.655699e+00    3.552824e+00
  4.671575e+00    3.598920e+00
  4.687451e+00    3.608659e+00
  4.703326e+00    3.622054e+00
  4.719202e+00    3.666793e+00
  4.735077e+00    3.629129e+00
  4.750953e+00    3.589547e+00
  4.766828e+00    3.633613e+00
  4.782704e+00    3.669172e+00
  4.798580e+00    3.631164e+00
  4.814455e+00    3.620663e+00
  4.830331e+00    3.582987e+00
  4.846206e+00    3.691655e+00
  4.862082e+00    3.715283e+00
  4.877957e+00    3.607527e+00
  4.893833e+00    3.708830e+00
  4.909709e+00    3.584511e+00
  4.925584e+00    3.628632e+00
  4.941460e+00    3.635611e+00
  4.957335e+00    3.646688e+00
  4.973211e+00    3.688330e+00
  4.989086e+00    3.690416e+00
  5.004962e+00    3.682136e+00
  5.020838e+00    3.662161e+00
  5.036713e+00    3.606624e+00
  5.052589e+00    3.595591e+00
  5.068464e+00    3.721619e+00
  5.084340e+00    3.641375e+00
  5.100216e+00    3.602512e+00
  5.116091e+00    3.645779e+00
  5.131967e+00    3.746689e+00
  5.147842e+00    3.712253e+00
  5.163718e+00    3.705785e+00
  5.179593e+00    3.680776e+00
  5.195469e+00    3.556943e+00
  5.211345e+00    3.634352e+00
  5.227220e+00    3.694274e+00
  5.243096e+00    3.715708e+00
  5.258971e+00    3.711373e+00
  5.274847e+00    3.668108e+00
  5.290722e+00    3.694611e+00
  5.306598e+00    3.609562e+00
  5.322474e+00    3.591385e+00
  5.338349e+00    3.656029e+00
  5.354225e+00    3.633312e+00
  5.370100e+00    3.728560e+00
  5.385976e+00    3.680226e+00
  5.401851e+00    3.633427e+00
  5.417727e+00    3.612739e+00
  5.433603e+00    3.552212e+00
  5.449478e+00    3.546788e+00
  5.465354e+00    3.672235e+00
  5.481229e+00    3.700455e+00
  5.497105e+00    3.668658e+00
  5.512980e+00    3.593682e+00
  5.528856e+00    3.565655e+00
  5.544732e+00    3.506818e+00
  5.560607e+00    3.589415e+00
  5.576483e+00    3.650839e+00
  5.592358e+00    3.624231e+00
  5.608234e+00    3.584892e+00
  5.624109e+00    3.643868e+00
  5.639985e+00    3.547935e+00
  5.655861e+00    3.511395e+00
  5.671736e+00    3.617727e+00
  5.687612e+00    3.609041e+00
  5.703487e+00    3.588546e+00
  5.719363e+00    3.552182e+00
  5.735238e+00    3.576244e+00
  5.751114e+00    3.603015e+00
  5.766990e+00    3.573048e+00
  5.782865e+00    3.587126e+00
  5.798741e+00    3.573579e+00
  5.814616e+00    3.563124e+00
  5.830492e+00    3.575191e+00
  5.846367e+00    3.471134e+00
  5.862243e+00    3.498512e+00
  5.878119e+00    3.590332e+00
  5.893994e+00    3.502175e+00
  5.909870e+00    3.495928e+00
  5.925745e+00    3.562594e+00
  5.941621e+00    3.553818e+00
  5.957497e+00    3.621443e+00
  5.973372e+00    3.622209e+00
  5.989248e+00    3.579036e+00
  6.005123e+00    3.505851e+00
  6.020999e+00    3.519742e+00
  6.036874e+00    3.584922e+00
  6.052750e+00    3.586113e+00
  6.068626e+00    3.647560e+00
  6.084501e+00    3.609932e+00
  6.100377e+00    3.575439e+00
  6.116252e+00    3.520289e+00
  6.132128e+00    3.581778e+00
  6.148003e+00    3.586499e+00
  6.163879e+00    3.561461e+00
  6.179755e+00    3.571321e+00
  6.195630e+00    3.566405e+00
  6.211506e+00    3.550752e+00
  6.227381e+00    3.605514e+00
  6.243257e+00    3.588480e+00
  6.259132e+00    3.616179e+00
  6.275008e+00    3.585780e+00
  6.290884e+00    3.557265e+00
  6.306759e+00    3.473964e+00
  6.322635e+00    3.447406e+00
  6.338510e+00    3.536373e+00
  6.354386e+00    3.615535e+00
  6.370261e+00    3.512938e+00
  6.386137e+00    3.515749e+00
  6.402013e+00    3.595703e+00
  6.417888e+00    3.539909e+00
  6.433764e+00    3.545125e+00
  6.449639e+00    3.531046e+00
  6.465515e+00    3.568837e+00
  6.481390e+00    3.532983e+00
  6.497266e+00    3.583430e+00
  6.513142e+00    3.543058e+00
  6.529017e+00    3.547367e+00
  6.544893e+00    3.527766e+00
  6.560768e+00    3.514233e+00
  6.576644e+00    3.525289e+00
  6.592519e+00    3.570650e+00
  6.608395e+00    3.577142e+00
  6.624271e+00    3.584344e+00
  6.640146e+00    3.531641e+00
  6.656022e+00    3.563653e+00
  6.671897e+00    3.577541e+00
  6.687773e+00    3.531881e+00
  6.703648e+00    3.570628e+00
  6.719524e+00    3.565254e+00
  6.735400e+00    3.531462e+00
  6.751275e+00    3.595528e+00
  6.767151e+00    3.535551e+00
  6.783026e+00    3.437813e+00
  6.798902e+00    3.548465e+00
  6.814777e+00    3.559898e+00
  6.830653e+00    3.515574e+00
  6.846529e+00    3.536055e+00
  6.862404e+00    3.552381e+00
  6.878280e+00    3.457315e+00
  6.894155e+00    3.450261e+00
  6.910031e+00    3.502691e+00
  6.925907e+00    3.535202e+00
  6.941782e+00    3.489506e+00
  6.957658e+00    3.504481e+00
  6.973533e+00    3.562800e+00
  6.989409e+00    3.546210e+00
  7.005284e+00    3.505898e+00
  7.021160e+00    3.509737e+00
  7.037036e+00    3.571670e+00
  7.052911e+00    3.546753e+00
  7.068787e+00    3.439715e+00
  7.084662e+00    3.553930e+00
  7.100538e+00    3.533167e+00
  7.116413e+00    3.465969e+00
  7.132289e+00    3.466723e+00
  7.148165e+00    3.525552e+00
  7.164040e+00    3.560490e+00
  7.179916e+00    3.505816e+00
  7.195791e+00    3.568678e+00
  7.211667e+00    3.550003e+00
  7.227542e+00    3.510175e+00
  7.243418e+00    3.523926e+00
  7.259294e+00    3.514451e+00
  7.275169e+00    3.521321e+00
  7.291045e+00    3.582471e+00
  7.306920e+00    3.534394e+00
  7.322796e+00    3.542701e+00
  7.338671e+00    3.534271e+00
  7.354547e+00    3.593368e+00
  7.370423e+00    3.518463e+00
  7.386298e+00    3.522604e+00
  7.402174e+00    3.572684e+00
  7.418049e+00    3.563462e+00
  7.433925e+00    3.468222e+00
  7.449800e+00    3.421109e+00
  7.465676e+00    3.480327e+00
  7.481552e+00    3.523826e+00
  7.497427e+00    3.434856e+00
  7.513303e+00    3.464962e+00
  7.529178e+00    3.526273e+00
  7.545054e+00    3.541685e+00
  7.560929e+00    3.543936e+00
  7.576805e+00    3.491543e+00
  7.592681e+00    3.487856e+00
  7.608556e+00    3.436244e+00
  7.624432e+00    3.399144e+00
  7.640307e+00    3.456609e+00
  7.656183e+00    3.467020e+00
  7.672058e+00    3.476626e+00
  7.687934e+00    3.489474e+00
  7.703810e+00    3.429668e+00
  7.719685e+00    3.455117e+00
  7.735561e+00    3.452128e+00
  7.751436e+00    3.455328e+00
  7.767312e+00    3.437285e+00
  7.783187e+00    3.445708e+00
  7.799063e+00    3.414153e+00
  7.814939e+00    3.485746e+00
  7.830814e+00    3.446364e+00
  7.846690e+00    3.411180e+00
  7.862565e+00    3.391715e+00
  7.878441e+00    3.413131e+00
  7.894317e+00    3.402087e+00
  7.910192e+00    3.367105e+00
  7.926068e+00    3.428179e+00
  7.941943e+00    3.477436e+00
  7.957819e+00    3.483204e+00
  7.973694e+00    3.421977e+00
  7.989570e+00    3.386145e+00
  8.005446e+00    3.422346e+00
  8.021321e+00    3.425714e+00
  8.037197e+00    3.415787e+00
  8.053072e+00    3.418423e+00
  8.068948e+00    3.372311e+00
  8.084823e+00    3.442323e+00
  8.100699e+00    3.470685e+00
  8.116575e+00    3.426533e+00
  8.132450e+00    3.457443e+00
  8.148326e+00    3.510504e+00
  8.164201e+00    3.539593e+00
  8.180077e+00    3.476883e+00
  8.195952e+00    3.431676e+00
  8.211828e+00    3.520337e+00
  8.227704e+00    3.533929e+00
  8.243579e+00    3.512392e+00
  8.259455e+00    3.415717e+00
  8.275330e+00    3.422394e+00
  8.291206e+00    3.428782e+00
  8.307081e+00    3.427521e+00
  8.322957e+00    3.404474e+00
  8.338833e+00    3.452343e+00
  8.354708e+00    3.391906e+00
  8.370584e+00    3.368227e+00
  8.386459e+00    3.336367e+00
  8.402335e+00    3.356943e+00
  8.418210e+00    3.372532e+00
  8.434086e+00    3.452417e+00
  8.449962e+00    3.393943e+00
  8.465837e+00    3.372551e+00
  8.481713e+00    3.386360e+00
  8.497588e+00    3.379293e+00
  8.513464e+00    3.313989e+00
  8.529339e+00    3.330280e+00
  8.545215e+00    3.370025e+00
  8.561091e+00    3.430363e+00
  8.576966e+00    3.437412e+00
  8.592842e+00    3.370275e+00
  8.608717e+00    3.349737e+00
  8.624593e+00    3.346318e+00
  8.640468e+00    3.333846e+00
  8.656344e+00    3.353620e+00
  8.672220e+00    3.303307e+00
  8.688095e+00    3.265235e+00
  8.703971e+00    3.334942e+00
  8.719846e+00    3.415842e+00
  8.735722e+00    3.419799e+00
  8.751598e+00    3.347060e+00
  8.767473e+00    3.301546e+00
  8.783349e+00    3.349180e+00
  8.799224e+00    3.315558e+00
  8.815100e+00    3.275542e+00
  8.830975e+00    3.282718e+00
  8.846851e+00    3.289781e+00
  8.862727e+00    3.269316e+00
  8.878602e+00    3.260608e+00
  8.894478e+00    3.253334e+00
  8.910353e+00    3.257896e+00
  8.926229e+00    3.281054e+00
  8.942104e+00    3.333226e+00
  8.957980e+00    3.353715e+00
  8.973856e+00    3.312353e+00
  8.989731e+00    3.214712e+00
  9.005607e+00    3.293310e+00
  9.021482e+00    3.307089e+00
  9.037358e+00    3.287932e+00
  9.053233e+00    3.320507e+00
  9.069109e+00    3.315687e+00
  9.084985e+00    3.261398e+00
  9.100860e+00    3.253266e+00
  9.116736e+00    3.279452e+00
  9.132611e+00    3.259600e+00
  9.148487e+00    3.240586e+00
  9.164362e+00    3.234387e+00
  9.180238e+00    3.183982e+00
  9.196114e+00    3.286909e+00
  9.211989e+00    3.325593e+00
  9.227865e+00    3.221193e+00
  9.243740e+00    3.215083e+00
  9.259616e+00    3.239241e+00
  9.275491e+00    3.336901e+00
  9.291367e+00    3.282553e+00
  9.307243e+00    3.212297e+00
  9.323118e+00    3.222443e+00
  9.338994e+00    3.234510e+00
  9.354869e+00    3.231829e+00
  9.370745e+00    3.274778e+00
  9.386620e+00    3.290182e+00
  9.402496e+00    3.241134e+00
  9.418372e+00    3.217476e+00
  9.434247e+00    3.239778e+00
  9.450123e+00    3.198112e+00
  9.465998e+00    3.276085e+00
  9.481874e+00    3.306067e+00
  9.497749e+00    3.244321e+00
  9.513625e+00    3.241248e+00
  9.529501e+00    3.246283e+00
  9.545376e+00    3.237574e+00
  9.561252e+00    3.267664e+00
  9.577127e+00    3.252351e+00
  9.593003e+00    3.172713e+00
  9.608878e+00    3.227201e+00
  9.624754e+00    3.291731e+00
  9.640630e+00    3.247430e+00
  9.656505e+00    3.255722e+00
  9.672381e+00    3.220317e+00
  9.688256e+00    3.192630e+00
  9.704132e+00    3.211859e+00
  9.720008e+00    3.145963e+00
  9.735883e+00    3.199476e+00
  9.751759e+00    3.209845e+00
  9.767634e+00    3.230126e+00
  9.783510e+00    3.165882e+00
  9.799385e+00    3.086037e+00
  9.815261e+00    3.137174e+00
  9.831137e+00    3.162053e+00
  9.847012e+00    3.138514e+00
  9.862888e+00    3.134737e+00
  9.878763e+00    3.151419e+00
  9.894639e+00    3.153922e+00
  9.910514e+00    3.173899e+00
  9.926390e+00    3.136594e+00
  9.942266e+00    3.100590e+00
  9.958141e+00    3.164371e+00
  9.974017e+00    3.144785e+00
  9.989892e+00    3.147259e+00
  1.000577e+01    3.164721e+00
  1.002164e+01    3.110289e+00
  1.003752e+01    3.130679e+00
  1.005339e+01    3.095159e+00
  1.006927e+01    3.100521e+00
  1.008515e+01    3.108467e+00
  1.010102e+01    2.988706e+00
  1.011690e+01    2.999661e+00
  1.013277e+01    3.110926e+00
  1.014865e+01    3.130670e+00
  1.016452e+01    3.119066e+00
  1.018040e+01    3.099496e+00
  1.019627e+01    3.047781e+00
  1.021215e+01    3.067350e+00
  1.022803e+01    3.088244e+00
  1.024390e+01    3.093251e+00
  1.025978e+01    3.117161e+00
  1.027565e+01    3.082791e+00
  1.029153e+01    3.107194e+00
  1.030740e+01    3.086482e+00
  1.032328e+01    3.089993e+00
  1.033915e+01    3.069564e+00
  1.035503e+01    3.046768e+00
  1.037091e+01    3.028014e+00
  1.038678e+01    3.053573e+00
  1.040266e+01    3.014575e+00
  1.041853e+01    3.052968e+00
  1.043441e+01    3.080752e+00
  1.045028e+01    3.071915e+00
  1.046616e+01    3.021342e+00
  1.048204e+01    3.051065e+00
  1.049791e+01    3.061215e+00
  1.051379e+01    3.019631e+00
  1.052966e+01    2.984598e+00
  1.054554e+01    3.002185e+00
  1.056141e+01    2.957351e+00
  1.057729e+01    2.968442e+00
  1.059316e+01    3.033621e+00
  1.060904e+01    3.013367e+00
  1.062492e+01    2.985933e+00
  1.064079e+01    3.016672e+00
  1.065667e+01    2.962385e+00
  1.067254e+01    2.984281e+00
  1.068842e+01    2.995215e+00
  1.070429e+01    2.956136e+00
  1.072017e+01    2.961637e+00
  1.073604e+01    2.972941e+00
  1.075192e+01    2.990146e+00
  1.076780e+01    2.943411e+00
  1.078367e+01    2.970603e+00
  1.079955e+01    2.999631e+00
  1.081542e+01    2.913285e+00
  1.083130e+01    2.934849e+00
  1.084717e+01    2.923115e+00
  1.086305e+01    2.981187e+00
  1.087892e+01    2.955149e+00
  1.089480e+01    2.955890e+00
  1.091068e+01    2.975888e+00
  1.092655e+01    2.982078e+00
  1.094243e+01    2.976132e+00
  1.095830e+01    2.918272e+00
  1.097418e+01    2.905308e+00
  1.099005e+01    2.894626e+00
  1.100593e+01    2.899745e+00
  1.102180e+01    2.953304e+00
  1.103768e+01    2.915763e+00
  1.105356e+01    2.902523e+00
  1.106943e+01    2.908205e+00
  1.108531e+01    2.871325e+00
  1.110118e+01    2.837667e+00
  1.111706e+01    2.832547e+00
  1.113293e+01    2.817498e+00
  1.114881e+01    2.896998e+00
  1.116468e+01    2.886412e+00
  1.118056e+01    2.846725e+00
  1.119644e+01    2.851913e+00
  1.121231e+01    2.918841e+00
  1.122819e+01    2.882222e+00
  1.124406e+01    2.794764e+00
  1.125994e+01    2.814424e+00
  1.127581e+01    2.848434e+00
  1.129169e+01    2.862279e+00
  1.130756e+01    2.805007e+00
  1.132344e+01    2.828043e+00
  1.133932e+01    2.830455e+00
  1.135519e+01    2.821792e+00
  1.137107e+01    2.863472e+00
  1.138694e+01    2.837152e+00
  1.140282e+01    2.823243e+00
  1.141869e+01    2.828933e+00
  1.143457e+01    2.866547e+00
  1.145045e+01    2.859375e+00
  1.146632e+01    2.812070e+00
  1.148220e+01    2.788818e+00
  1.149807e+01    2.767690e+00
  1.151395e+01    2.796996e+00
  1.152982e+01    2.771871e+00
  1.154570e+01    2.761689e+00
  1.156157e+01    2.779452e+00
  1.157745e+01    2.725479e+00
  1.159333e+01    2.763381e+00
  1.160920e+01    2.786369e+00
  1.162508e+01    2.787016e+00
  1.164095e+01    2.795777e+00
  1.165683e+01    2.798945e+00
  1.167270e+01    2.799789e+00
  1.168858e+01    2.798764e+00
  1.170445e+01    2.792352e+00
  1.172033e+01    2.757145e+00
  1.173621e+01    2.795697e+00
  1.175208e+01    2.778899e+00
  1.176796e+01    2.767957e+00
  1.178383e+01    2.783571e+00
  1.179971e+01    2.747051e+00
  1.181558e+01    2.742112e+00
  1.183146e+01    2.719842e+00
  1.184733e+01    2.755424e+00
  1.186321e+01    2.758671e+00
  1.187909e+01    2.774414e+00
  1.189496e+01    2.760243e+00
  1.191084e+01    2.695223e+00
  1.192671e+01    2.725219e+00
  1.194259e+01    2.746100e+00
  1.195846e+01    2.744251e+00
  1.197434e+01    2.755056e+00
  1.199021e+01    2.722981e+00
  1.200609e+01    2.718536e+00
  1.202197e+01    2.721361e+00
  1.203784e+01    2.677917e+00
  1.205372e+01    2.725348e+00
  1.206959e+01    2.736627e+00
  1.208547e+01    2.703291e+00
  1.210134e+01    2.702627e+00
  1.211722e+01    2.762431e+00
  1.213309e+01    2.752931e+00
  1.214897e+01    2.689339e+00
  1.216485e+01    2.678165e+00
  1.218072e+01    2.711911e+00
  1.219660e+01    2.654863e+00
  1.221247e+01    2.692277e+00
  1.222835e+01    2.706429e+00
  1.224422e+01    2.705560e+00
  1.226010e+01    2.723022e+00
  1.227597e+01    2.728385e+00
  1.229185e+01    2.680385e+00
  1.230773e+01    2.686317e+00
  1.232360e+01    2.711516e+00
  1.233948e+01    2.633071e+00
  1.235535e+01    2.745696e+00
  1.237123e+01    2.725114e+00
  1.238710e+01    2.708851e+00
  1.240298e+01    2.744520e+00
  1.241886e+01    2.723779e+00
  1.243473e+01    2.707736e+00
  1.245061e+01    2.715997e+00
  1.246648e+01    2.705895e+00
  1.248236e+01    2.717408e+00
  1.249823e+01    2.732690e+00
  1.251411e+01    2.757019e+00
  1.252998e+01    2.742972e+00
  1.254586e+01    2.734503e+00
  1.256174e+01    2.774530e+00
  1.257761e+01    2.739570e+00
  1.259349e+01    2.717447e+00
  1.260936e+01    2.725775e+00
  1.262524e+01    2.742851e+00
  1.264111e+01    2.793751e+00
  1.265699e+01    2.824189e+00
  1.267286e+01    2.802799e+00
  1.268874e+01    2.803543e+00
  1.270462e+01    2.857733e+00
  1.272049e+01    2.855604e+00
  1.273637e+01    2.892715e+00
  1.275224e+01    2.892534e+00
  1.276812e+01    2.923589e+00
  1.278399e+01    2.990595e+00
  1.279987e+01    3.008481e+00
  1.281574e+01    3.024918e+00
  1.283162e+01    3.108051e+00
  1.284750e+01    3.160340e+00
  1.286337e+01    3.256718e+00
  1.287925e+01    3.379035e+00
  1.289512e+01    3.488655e+00
  1.291100e+01    3.701257e+00
  1.292687e+01    3.963663e+00
  1.294275e+01    4.140812e+00
  1.295862e+01    4.390065e+00
  1.297450e+01    4.852370e+00
  1.299038e+01    5.337405e+00
  1.300625e+01    5.996027e+00
  1.302213e+01    6.782940e+00
  1.303800e+01    7.878377e+00
  1.305388e+01    9.025463e+00
  1.306975e+01    1.021013e+01
  1.308563e+01    1.158375e+01
  1.310150e+01    1.272320e+01
  1.311738e+01    1.383967e+01
  1.313326e+01    1.500556e+01
  1.314913e+01    1.597049e+01
  1.316501e+01    1.644642e+01
  1.318088e+01    1.639094e+01
  1.319676e+01    1.576896e+01
  1.321263e+01    1.426004e+01
  1.322851e+01    1.259646e+01
  1.324438e+01    1.071559e+01
  1.326026e+01    9.101515e+00
  1.327614e+01    7.779100e+00
  1.329201e+01    6.710413e+00
  1.330789e+01    5.935735e+00
  1.332376e+01    5.338360e+00
  1.333964e+01    4.858802e+00
  1.335551e+01    4.471910e+00
  1.337139e+01    4.108718e+00
  1.338727e+01    3.822691e+00
  1.340314e+01    3.690080e+00
  1.341902e+01    3.532937e+00
  1.343489e+01    3.331246e+00
  1.345077e+01    3.214460e+00
  1.346664e+01    3.141560e+00
  1.348252e+01    3.020773e+00
  1.349839e+01    2.986945e+00
  1.351427e+01    2.902929e+00
  1.353015e+01    2.875615e+00
  1.354602e+01    2.831567e+00
  1.356190e+01    2.773059e+00
  1.357777e+01    2.761123e+00
  1.359365e+01    2.752820e+00
  1.360952e+01    2.742241e+00
  1.362540e+01    2.650583e+00
  1.364127e+01    2.617992e+00
  1.365715e+01    2.558583e+00
  1.367303e+01    2.589078e+00
  1.368890e+01    2.573172e+00
  1.370478e+01    2.558594e+00
  1.372065e+01    2.540187e+00
  1.373653e+01    2.493786e+00
  1.375240e+01    2.501601e+00
  1.376828e+01    2.533358e+00
  1.378415e+01    2.542443e+00
  1.380003e+01    2.473446e+00
  1.381591e+01    2.456278e+00
  1.383178e+01    2.448631e+00
  1.384766e+01    2.458472e+00
  1.386353e+01    2.423640e+00
  1.387941e+01    2.457622e+00
  1.389528e+01    2.449128e+00
  1.391116e+01    2.422411e+00
  1.392703e+01    2.444952e+00
  1.394291e+01    2.443919e+00
  1.395879e+01    2.400581e+00
  1.397466e+01    2.411155e+00
  1.399054e+01    2.358384e+00
  1.400641e+01    2.360400e+00
  1.402229e+01    2.401366e+00
  1.403816e+01    2.390599e+00
  1.405404e+01    2.328958e+00
  1.406991e+01    2.328673e+00
  1.408579e+01    2.336803e+00
  1.410167e+01    2.364307e+00
  1.411754e+01    2.344046e+00
  1.413342e+01    2.302909e+00
  1.414929e+01    2.319475e+00
  1.416517e+01    2.320053e+00
  1.418104e+01    2.301787e+00
  1.419692e+01    2.287870e+00
  1.421279e+01    2.279600e+00
  1.422867e+01    2.279602e+00
  1.424455e+01    2.254668e+00
  1.426042e+01    2.278409e+00
  1.427630e+01    2.237419e+00
  1.429217e+01    2.236999e+00
  1.430805e+01    2.282578e+00
  1.432392e+01    2.289075e+00
  1.433980e+01    2.273407e+00
  1.435568e+01    2.282112e+00
  1.437155e+01    2.265056e+00
  1.438743e+01    2.203394e+00
  1.440330e+01    2.245455e+00
  1.441918e+01    2.246567e+00
  1.443505e+01    2.268859e+00
  1.445093e+01    2.213847e+00
  1.446680e+01    2.238495e+00
  1.448268e+01    2.241787e+00
  1.449856e+01    2.227075e+00
  1.451443e+01    2.248779e+00
  1.453031e+01    2.240700e+00
  1.454618e+01    2.276483e+00
  1.456206e+01    2.271236e+00
  1.457793e+01    2.228491e+00
  1.459381e+01    2.229483e+00
  1.460968e+01    2.204814e+00
  1.462556e+01    2.225176e+00
  1.464144e+01    2.254230e+00
  1.465731e+01    2.283134e+00
  1.467319e+01    2.207294e+00
  1.468906e+01    2.184177e+00
  1.470494e+01    2.202451e+00
  1.472081e+01    2.215798e+00
  1.473669e+01    2.217129e+00
  1.475256e+01    2.232567e+00
  1.476844e+01    2.203717e+00
  1.478432e+01    2.157200e+00
  1.480019e+01    2.163945e+00
  1.481607e+01    2.210878e+00
  1.483194e+01    2.209471e+00
  1.484782e+01    2.204446e+00
  1.486369e+01    2.188192e+00
  1.487957e+01    2.256440e+00
  1.489544e+01    2.268266e+00
  1.491132e+01    2.294467e+00
  1.492720e+01    2.298167e+00
  1.494307e+01    2.262869e+00
  1.495895e+01    2.313680e+00
  1.497482e+01    2.367504e+00
  1.499070e+01    2.367700e+00
  1.500657e+01    2.442282e+00
  1.502245e+01    2.504349e+00
  1.503832e+01    2.588130e+00
  1.505420e+01    2.705154e+00
  1.507008e+01    2.832478e+00
  1.508595e+01    3.007723e+00
  1.510183e+01    3.188026e+00
  1.511770e+01    3.456197e+00
  1.513358e+01    3.869250e+00
  1.514945e+01    4.224856e+00
  1.516533e+01    4.546974e+00
  1.518120e+01    4.889453e+00
  1.519708e+01    5.238131e+00
  1.521296e+01    5.439669e+00
  1.522883e+01    5.628555e+00
  1.524471e+01    5.770525e+00
  1.526058e+01    5.851890e+00
  1.527646e+01    5.711068e+00
  1.529233e+01    5.452581e+00
  1.530821e+01    5.129159e+00
  1.532409e+01    4.695477e+00
  1.533996e+01    4.185071e+00
  1.535584e+01    3.797069e+00
  1.537171e+01    3.432705e+00
  1.538759e+01    3.151147e+00
  1.540346e+01    2.934376e+00
  1.541934e+01    2.781728e+00
  1.543521e+01    2.626425e+00
  1.545109e+01    2.519288e+00
  1.546697e+01    2.429490e+00
  1.548284e+01    2.360760e+00
  1.549872e+01    2.287380e+00
  1.551459e+01    2.251970e+00
  1.553047e+01    2.212329e+00
  1.554634e+01    2.172392e+00
  1.556222e+01    2.149539e+00
  1.557809e+01    2.170963e+00
  1.559397e+01    2.123588e+00
  1.560985e+01    2.092915e+00
  1.562572e+01    2.038643e+00
  1.564160e+01    2.059577e+00
  1.565747e+01    2.050074e+00
  1.567335e+01    2.045594e+00
  1.568922e+01    2.038296e+00
  1.570510e+01    2.028898e+00
  1.572097e+01    2.002195e+00
  1.573685e+01    1.980781e+00
  1.575273e+01    1.962939e+00
  1.576860e+01    1.924084e+00
  1.578448e+01    1.942277e+00
  1.580035e+01    1.962197e+00
  1.581623e+01    1.929134e+00
  1.583210e+01    1.894623e+00
  1.584798e+01    1.921097e+00
  1.586385e+01    1.954008e+00
  1.587973e+01    1.931088e+00
  1.589561e+01    1.883449e+00
  1.591148e+01    1.861084e+00
  1.592736e+01    1.856681e+00
  1.594323e+01    1.837833e+00
  1.595911e+01    1.870561e+00
  1.597498e+01    1.882633e+00
  1.599086e+01    1.877812e+00
  1.600673e+01    1.880631e+00
  1.602261e+01    1.880054e+00
  1.603849e+01    1.862599e+00
  1.605436e+01    1.880229e+00
  1.607024e+01    1.848524e+00
  1.608611e+01    1.841471e+00
  1.610199e+01    1.856384e+00
  1.611786e+01    1.852294e+00
  1.613374e+01    1.828678e+00
  1.614961e+01    1.838865e+00
  1.616549e+01    1.875460e+00
  1.618137e+01    1.819586e+00
  1.619724e+01    1.802900e+00
  1.621312e+01    1.819550e+00
  1.622899e+01    1.804036e+00
  1.624487e+01    1.808345e+00
  1.626074e+01    1.803279e+00
  1.627662e+01    1.774161e+00
  1.629250e+01    1.782279e+00
  1.630837e+01    1.776813e+00
  1.632425e+01    1.789705e+00
  1.634012e+01    1.821678e+00
  1.635600e+01    1.830246e+00
  1.637187e+01    1.810609e+00
  1.638775e+01    1.779766e+00
  1.640362e+01    1.765819e+00
  1.641950e+01    1.763999e+00
  1.643538e+01    1.762104e+00
  1.645125e+01    1.774168e+00
  1.646713e+01    1.781557e+00
  1.648300e+01    1.740419e+00
  1.649888e+01    1.782318e+00
  1.651475e+01    1.791005e+00
  1.653063e+01    1.766387e+00
  1.654650e+01    1.753076e+00
  1.656238e+01    1.725180e+00
  1.657826e+01    1.727445e+00
  1.659413e+01    1.768104e+00
  1.661001e+01    1.755341e+00
  1.662588e+01    1.735630e+00
  1.664176e+01    1.713347e+00
  1.665763e+01    1.710313e+00
  1.667351e+01    1.710847e+00
  1.668938e+01    1.735176e+00
  1.670526e+01    1.724631e+00
  1.672114e+01    1.726577e+00
  1.673701e+01    1.711489e+00
  1.675289e+01    1.732526e+00
  1.676876e+01    1.721368e+00
  1.678464e+01    1.724665e+00
  1.680051e+01    1.725876e+00
  1.681639e+01    1.715356e+00
  1.683226e+01    1.711046e+00
  1.684814e+01    1.713519e+00
  1.686402e+01    1.677094e+00
  1.687989e+01    1.661503e+00
  1.689577e+01    1.726346e+00
  1.691164e+01    1.674356e+00
  1.692752e+01    1.680230e+00
  1.694339e+01    1.657948e+00
  1.695927e+01    1.660796e+00
  1.697514e+01    1.668214e+00
  1.699102e+01    1.693101e+00
  1.700690e+01    1.686513e+00
  1.702277e+01    1.669391e+00
  1.703865e+01    1.679107e+00
  1.705452e+01    1.670796e+00
  1.707040e+01    1.636489e+00
  1.708627e+01    1.661519e+00
  1.710215e+01    1.655159e+00
  1.711802e+01    1.664490e+00
  1.713390e+01    1.651422e+00
  1.714978e+01    1.647902e+00
  1.716565e+01    1.648445e+00
  1.718153e+01    1.652046e+00
  1.719740e+01    1.630553e+00
  1.721328e+01    1.629409e+00
  1.722915e+01    1.636885e+00
  1.724503e+01    1.622442e+00
  1.726091e+01    1.612763e+00
  1.727678e+01    1.638558e+00
  1.729266e+01    1.609772e+00
  1.730853e+01    1.609966e+00
  1.732441e+01    1.606811e+00
  1.734028e+01    1.609675e+00
  1.735616e+01    1.623298e+00
  1.737203e+01    1.610759e+00
  1.738791e+01    1.591526e+00
  1.740379e+01    1.619973e+00
  1.741966e+01    1.597430e+00
  1.743554e+01    1.594563e+00
  1.745141e+01    1.579668e+00
  1.746729e+01    1.597411e+00
  1.748316e+01    1.616120e+00
  1.749904e+01    1.610128e+00
  1.751491e+01    1.591409e+00
  1.753079e+01    1.576842e+00
  1.754667e+01    1.561936e+00
  1.756254e+01    1.550169e+00
  1.757842e+01    1.585148e+00
  1.759429e+01    1.577751e+00
  1.761017e+01    1.560529e+00
  1.762604e+01    1.562223e+00
  1.764192e+01    1.588090e+00
  1.765779e+01    1.586820e+00
  1.767367e+01    1.564814e+00
  1.768955e+01    1.575039e+00
  1.770542e+01    1.572035e+00
  1.772130e+01    1.588669e+00
  1.773717e+01    1.582235e+00
  1.775305e+01    1.573890e+00
  1.776892e+01    1.566476e+00
  1.778480e+01    1.590207e+00
  1.780067e+01    1.578940e+00
  1.781655e+01    1.567514e+00
  1.783243e+01    1.562468e+00
  1.784830e+01    1.544898e+00
  1.786418e+01    1.529248e+00
  1.788005e+01    1.512870e+00
  1.789593e+01    1.526620e+00
  1.791180e+01    1.512069e+00
  1.792768e+01    1.495581e+00
  1.794355e+01    1.514916e+00
  1.795943e+01    1.514852e+00
  1.797531e+01    1.493010e+00
  1.799118e+01    1.504241e+00
  1.800706e+01    1.516374e+00
  1.802293e+01    1.493656e+00
  1.803881e+01    1.499346e+00
  1.805468e+01    1.510410e+00
  1.807056e+01    1.519999e+00
  1.808643e+01    1.489308e+00
  1.810231e+01    1.477346e+00
  1.811819e+01    1.489000e+00
  1.813406e+01    1.477276e+00
  1.814994e+01    1.512873e+00
  1.816581e+01    1.529676e+00
  1.818169e+01    1.475855e+00
  1.819756e+01    1.487425e+00
  1.821344e+01    1.487677e+00
  1.822932e+01    1.511551e+00
  1.824519e+01    1.502133e+00
  1.826107e+01    1.486106e+00
  1.827694e+01    1.484372e+00
  1.829282e+01    1.476181e+00
  1.830869e+01    1.471740e+00
  1.832457e+01    1.477697e+00
  1.834044e+01    1.456417e+00
  1.835632e+01    1.439519e+00
  1.837220e+01    1.478338e+00
  1.838807e+01    1.469606e+00
  1.840395e+01    1.477381e+00
  1.841982e+01    1.469450e+00
  1.843570e+01    1.463342e+00
  1.845157e+01    1.477276e+00
  1.846745e+01    1.460903e+00
  1.848332e+01    1.429188e+00
  1.849920e+01    1.439097e+00
  1.851508e+01    1.475122e+00
  1.853095e+01    1.486107e+00
  1.854683e+01    1.428360e+00
  1.856270e+01    1.419656e+00
  1.857858e+01    1.437972e+00
  1.859445e+01    1.449799e+00
  1.861033e+01    1.409195e+00
  1.862620e+01    1.422203e+00
  1.864208e+01    1.444672e+00
  1.865796e+01    1.436164e+00
  1.867383e+01    1.425670e+00
  1.868971e+01    1.403061e+00
  1.870558e+01    1.421374e+00
  1.872146e+01    1.442997e+00
  1.873733e+01    1.421669e+00
  1.875321e+01    1.411064e+00
  1.876908e+01    1.424458e+00
  1.878496e+01    1.409506e+00
  1.880084e+01    1.405630e+00
  1.881671e+01    1.405044e+00
  1.883259e+01    1.410895e+00
  1.884846e+01    1.420887e+00
  1.886434e+01    1.415210e+00
  1.888021e+01    1.390207e+00
  1.889609e+01    1.403564e+00
  1.891196e+01    1.410156e+00
  1.892784e+01    1.411797e+00
  1.894372e+01    1.425044e+00
  1.895959e+01    1.411020e+00
  1.897547e+01    1.395544e+00
  1.899134e+01    1.369296e+00
  1.900722e+01    1.374604e+00
  1.902309e+01    1.389046e+00
  1.903897e+01    1.378685e+00
  1.905484e+01    1.370553e+00
  1.907072e+01    1.405273e+00
  1.908660e+01    1.385579e+00
  1.910247e+01    1.386011e+00
  1.911835e+01    1.362053e+00
  1.913422e+01    1.357805e+00
  1.915010e+01    1.363458e+00
  1.916597e+01    1.363920e+00
  1.918185e+01    1.362906e+00
  1.919773e+01    1.350782e+00
  1.921360e+01    1.377568e+00
  1.922948e+01    1.385275e+00
  1.924535e+01    1.350479e+00
  1.926123e+01    1.341344e+00
  1.927710e+01    1.376676e+00
  1.929298e+01    1.364701e+00
  1.930885e+01    1.349584e+00
  1.932473e+01    1.343423e+00
  1.934061e+01    1.370543e+00
  1.935648e+01    1.370753e+00
  1.937236e+01    1.368519e+00
  1.938823e+01    1.369486e+00
  1.940411e+01    1.367810e+00
  1.941998e+01    1.364709e+00
  1.943586e+01    1.364830e+00
  1.945173e+01    1.373709e+00
  1.946761e+01    1.326684e+00
  1.948349e+01    1.338547e+00
  1.949936e+01    1.333621e+00
  1.951524e+01    1.289580e+00
  1.953111e+01    1.296641e+00
  1.954699e+01    1.302738e+00
  1.956286e+01    1.319522e+00
  1.957874e+01    1.324982e+00
  1.959461e+01    1.330817e+00
  1.961049e+01    1.340902e+00
  1.962637e+01    1.305594e+00
  1.964224e+01    1.287241e+00
  1.965812e+01    1.326583e+00
  1.967399e+01    1.309201e+00
  1.968987e+01    1.301627e+00
  1.970574e+01    1.273872e+00
  1.972162e+01    1.307412e+00
  1.973749e+01    1.328654e+00
  1.975337e+01    1.320149e+00
  1.976925e+01    1.309671e+00
  1.978512e+01    1.303227e+00
  1.980100e+01    1.296417e+00
  1.981687e+01    1.284088e+00
  1.983275e+01    1.291770e+00
  1.984862e+01    1.293236e+00
  1.986450e+01    1.286984e+00
  1.988037e+01    1.250981e+00
  1.989625e+01    1.268262e+00
  1.991213e+01    1.280357e+00
  1.992800e+01    1.270029e+00
  1.994388e+01    1.255504e+00
  1.995975e+01    1.272381e+00
  1.997563e+01    1.316141e+00
  1.999150e+01    1.295772e+00
  2.000738e+01    1.294820e+00
  2.002325e+01    1.281163e+00
  2.003913e+01    1.273253e+00
  2.005501e+01    1.284682e+00
  2.007088e+01    1.287474e+00
  2.008676e+01    1.300100e+00
  2.010263e+01    1.276176e+00
  2.011851e+01    1.281345e+00
  2.013438e+01    1.264849e+00
  2.015026e+01    1.261146e+00
  2.016614e+01    1.269871e+00
  2.018201e+01    1.283357e+00
  2.019789e+01    1.283295e+00
  2.021376e+01    1.280161e+00
  2.022964e+01    1.264315e+00
  2.024551e+01    1.272079e+00
  2.026139e+01    1.273909e+00
  2.027726e+01    1.248167e+00
  2.029314e+01    1.260662e+00
  2.030902e+01    1.245039e+00
  2.032489e+01    1.262742e+00
  2.034077e+01    1.266965e+00
  2.035664e+01    1.247705e+00
  2.037252e+01    1.233711e+00
  2.038839e+01    1.264219e+00
  2.040427e+01    1.271561e+00
  2.042014e+01    1.259829e+00
  2.043602e+01    1.239847e+00
  2.045190e+01    1.230560e+00
  2.046777e+01    1.266268e+00
  2.048365e+01    1.252700e+00
  2.049952e+01    1.227480e+00
  2.051540e+01    1.230565e+00
  2.053127e+01    1.221350e+00
  2.054715e+01    1.225113e+00
  2.056302e+01    1.228310e+00
  2.057890e+01    1.235001e+00
  2.059478e+01    1.222054e+00
  2.061065e+01    1.230275e+00
  2.062653e+01    1.236793e+00
  2.064240e+01    1.247420e+00
  2.065828e+01    1.236976e+00
  2.067415e+01    1.262491e+00
  2.069003e+01    1.225467e+00
  2.070590e+01    1.223984e+00
  2.072178e+01    1.217512e+00
  2.073766e+01    1.231740e+00
  2.075353e+01    1.242431e+00
  2.076941e+01    1.240152e+00
  2.078528e+01    1.226594e+00
  2.080116e+01    1.225610e+00
  2.081703e+01    1.236849e+00
  2.083291e+01    1.228430e+00
  2.084878e+01    1.210934e+00
  2.086466e+01    1.228509e+00
  2.088054e+01    1.244139e+00
  2.089641e+01    1.227235e+00
  2.091229e+01    1.227999e+00
  2.092816e+01    1.234145e+00
  2.094404e+01    1.251393e+00
  2.095991e+01    1.233461e+00
  2.097579e+01    1.223531e+00
  2.099166e+01    1.218119e+00
  2.100754e+01    1.220755e+00
  2.102342e+01    1.232364e+00
  2.103929e+01    1.246820e+00
  2.105517e+01    1.241689e+00
  2.107104e+01    1.230836e+00
  2.108692e+01    1.222999e+00
  2.110279e+01    1.243499e+00
  2.111867e+01    1.247637e+00
  2.113455e+01    1.256453e+00
  2.115042e+01    1.245939e+00
  2.116630e+01    1.249668e+00
  2.118217e+01    1.248274e+00
  2.119805e+01    1.244616e+00
  2.121392e+01    1.235988e+00
  2.122980e+01    1.238140e+00
  2.124567e+01    1.255023e+00
  2.126155e+01    1.248999e+00
  2.127743e+01    1.264792e+00
  2.129330e+01    1.260046e+00
  2.130918e+01    1.255477e+00
  2.132505e+01    1.288599e+00
  2.134093e+01    1.288867e+00
  2.135680e+01    1.288144e+00
  2.137268e+01    1.301262e+00
  2.138855e+01    1.306520e+00
  2.140443e+01    1.309896e+00
  2.142031e+01    1.324070e+00
  2.143618e+01    1.320543e+00
  2.145206e+01    1.353323e+00
  2.146793e+01    1.361153e+00
  2.148381e+01    1.403212e+00
  2.149968e+01    1.443556e+00
  2.151556e+01    1.454726e+00
  2.153143e+01    1.496958e+00
  2.154731e+01    1.517976e+00
  2.156319e+01    1.578889e+00
  2.157906e+01    1.610907e+00
  2.159494e+01    1.685051e+00
  2.161081e+01    1.786646e+00
  2.162669e+01    1.891229e+00
  2.164256e+01    2.004143e+00
  2.165844e+01    2.149636e+00
  2.167431e+01    2.294924e+00
  2.169019e+01    2.544510e+00
  2.170607e+01    2.798809e+00
  2.172194e+01    3.152442e+00
  2.173782e+01    3.627417e+00
  2.175369e+01    4.099808e+00
  2.176957e+01    4.622451e+00
  2.178544e+01    5.230002e+00
  2.180132e+01    5.935326e+00
  2.181719e+01    6.641490e+00
  2.183307e+01    7.232712e+00
  2.184895e+01    7.828335e+00
  2.186482e+01    8.472178e+00
  2.188070e+01    8.878578e+00
  2.189657e+01    8.926309e+00
  2.191245e+01    8.750369e+00
  2.192832e+01    8.195868e+00
  2.194420e+01    7.447814e+00
  2.196007e+01    6.606671e+00
  2.197595e+01    5.674595e+00
  2.199183e+01    4.833247e+00
  2.200770e+01    4.144026e+00
  2.202358e+01    3.604018e+00
  2.203945e+01    3.178405e+00
  2.205533e+01    2.847814e+00
  2.207120e+01    2.559766e+00
  2.208708e+01    2.326249e+00
  2.210296e+01    2.132920e+00
  2.211883e+01    1.969884e+00
  2.213471e+01    1.861383e+00
  2.215058e+01    1.754114e+00
  2.216646e+01    1.699295e+00
  2.218233e+01    1.602004e+00
  2.219821e+01    1.530100e+00
  2.221408e+01    1.477104e+00
  2.222996e+01    1.421035e+00
  2.224584e+01    1.418974e+00
  2.226171e+01    1.397531e+00
  2.227759e+01    1.346370e+00
  2.229346e+01    1.332370e+00
  2.230934e+01    1.313017e+00
  2.232521e+01    1.267847e+00
  2.234109e+01    1.249678e+00
  2.235696e+01    1.227815e+00
  2.237284e+01    1.229687e+00
  2.238872e+01    1.226613e+00
  2.240459e+01    1.208408e+00
  2.242047e+01    1.191019e+00
  2.243634e+01    1.198608e+00
  2.245222e+01    1.175909e+00
  2.246809e+01    1.155961e+00
  2.248397e+01    1.151562e+00
  2.249984e+01    1.129181e+00
  2.251572e+01    1.137523e+00
  2.253160e+01    1.126800e+00
  2.254747e+01    1.127040e+00
  2.256335e+01    1.113450e+00
  2.257922e+01    1.110714e+00
  2.259510e+01    1.093962e+00
  2.261097e+01    1.101369e+00
  2.262685e+01    1.107591e+00
  2.264272e+01    1.105845e+00
  2.265860e+01    1.095503e+00
  2.267448e+01    1.089054e+00
  2.269035e+01    1.113075e+00
  2.270623e+01    1.078807e+00
  2.272210e+01    1.068672e+00
  2.273798e+01    1.083122e+00
  2.275385e+01    1.094490e+00
  2.276973e+01    1.049986e+00
  2.278560e+01    1.042550e+00
  2.280148e+01    1.060947e+00
  2.281736e+01    1.059090e+00
  2.283323e+01    1.062598e+00
  2.284911e+01    1.060396e+00
  2.286498e+01    1.055036e+00
  2.288086e+01    1.072890e+00
  2.289673e+01    1.050643e+00
  2.291261e+01    1.049163e+00
  2.292848e+01    1.053249e+00
  2.294436e+01    1.049330e+00
  2.296024e+01    1.035681e+00
  2.297611e+01    1.037393e+00
  2.299199e+01    1.031176e+00
  2.300786e+01    1.017095e+00
  2.302374e+01    1.017791e+00
  2.303961e+01    1.020781e+00
  2.305549e+01    1.031285e+00
  2.307137e+01    1.012665e+00
  2.308724e+01    1.002007e+00
  2.310312e+01    1.007132e+00
  2.311899e+01    1.014909e+00
  2.313487e+01    1.021971e+00
  2.315074e+01    1.014391e+00
  2.316662e+01    9.996769e-01
  2.318249e+01    1.004132e+00
  2.319837e+01    1.010854e+00
  2.321425e+01    9.993153e-01
  2.323012e+01    9.871471e-01
  2.324600e+01    9.827483e-01
  2.326187e+01    9.893281e-01
  2.327775e+01    1.015302e+00
  2.329362e+01    1.014204e+00
  2.330950e+01    9.954396e-01
  2.332537e+01    9.704998e-01
  2.334125e+01    9.790266e-01
  2.335713e+01    9.754840e-01
  2.337300e+01    9.910581e-01
  2.338888e+01    9.735027e-01
  2.340475e+01    9.770059e-01
  2.342063e+01    9.619684e-01
  2.343650e+01    9.776787e-01
  2.345238e+01    9.827335e-01
  2.346825e+01    9.772982e-01
  2.348413e+01    9.503926e-01
  2.350001e+01    9.399893e-01
  2.351588e+01    9.752657e-01
  2.353176e+01    9.541398e-01
  2.354763e+01    9.464821e-01
  2.356351e+01    9.369512e-01
  2.357938e+01    9.574075e-01
  2.359526e+01    9.631284e-01
  2.361113e+01    9.643990e-01
  2.362701e+01    9.825962e-01
  2.364289e+01    9.638340e-01
  2.365876e+01    9.635166e-01
  2.367464e+01    9.642001e-01
  2.369051e+01    9.513701e-01
  2.370639e+01    9.275904e-01
  2.372226e+01    9.233454e-01
  2.373814e+01    9.223986e-01
  2.375401e+01    9.174482e-01
  2.376989e+01    9.190217e-01
  2.378577e+01    9.214987e-01
  2.380164e+01    9.044732e-01
  2.381752e+01    9.131257e-01
  2.383339e+01    9.188151e-01
  2.384927e+01    9.142932e-01
  2.386514e+01    9.144204e-01
  2.388102e+01    9.058773e-01
  2.389689e+01    8.993716e-01
  2.391277e+01    9.122766e-01
  2.392865e+01    9.100152e-01
  2.394452e+01    8.944685e-01
  2.396040e+01    9.059854e-01
  2.397627e+01    9.155674e-01
  2.399215e+01    9.031191e-01
  2.400802e+01    9.006394e-01
  2.402390e+01    8.889688e-01
  2.403978e+01    8.994979e-01
  2.405565e+01    9.004850e-01
  2.407153e+01    8.973412e-01
  2.408740e+01    8.733927e-01
  2.410328e+01    8.879148e-01
  2.411915e+01    8.686703e-01
  2.413503e+01    8.576710e-01
  2.415090e+01    8.759519e-01
  2.416678e+01    8.832456e-01
  2.418266e+01    8.750764e-01
  2.419853e+01    8.931439e-01
  2.421441e+01    8.832821e-01
  2.423028e+01    8.764998e-01
  2.424616e+01    8.705411e-01
  2.426203e+01    9.068403e-01
  2.427791e+01    9.176190e-01
  2.429378e+01    9.146473e-01
  2.430966e+01    8.848746e-01
  2.432554e+01    8.776574e-01
  2.434141e+01    8.882751e-01
  2.435729e+01    8.886223e-01
  2.437316e+01    8.835200e-01
  2.438904e+01    8.894137e-01
  2.440491e+01    8.970800e-01
  2.442079e+01    8.841789e-01
  2.443666e+01    9.111599e-01
  2.445254e+01    8.949378e-01
  2.446842e+01    8.981723e-01
  2.448429e+01    8.953739e-01
  2.450017e+01    8.771076e-01
  2.451604e+01    8.647258e-01
  2.453192e+01    9.012868e-01
  2.454779e+01    9.054719e-01
  2.456367e+01    8.929225e-01
  2.457954e+01    8.947117e-01
  2.459542e+01    8.990065e-01
  2.461130e+01    8.882897e-01
  2.462717e+01    8.830405e-01
  2.464305e+01    8.962857e-01
  2.465892e+01    8.839937e-01
  2.467480e+01    8.938808e-01
  2.469067e+01    8.919585e-01
  2.470655e+01    8.814920e-01
  2.472242e+01    9.035724e-01
  2.473830e+01    8.742365e-01
  2.475418e+01    8.949745e-01
  2.477005e+01    9.104097e-01
  2.478593e+01    9.028528e-01
  2.480180e+01    8.933420e-01
  2.481768e+01    8.762146e-01
  2.483355e+01    9.100876e-01
  2.484943e+01    9.003627e-01
  2.486530e+01    9.095539e-01
  2.488118e+01    8.896826e-01
  2.489706e+01    8.830310e-01
  2.491293e+01    8.913823e-01
  2.492881e+01    8.773040e-01
  2.494468e+01    8.898085e-01
  2.496056e+01    8.960881e-01
  2.497643e+01    8.893992e-01
  2.499231e+01    9.045657e-01
  2.500819e+01    8.833460e-01
  2.502406e+01    8.860095e-01
  2.503994e+01    8.976054e-01
  2.505581e+01    8.836881e-01
  2.507169e+01    8.798588e-01
  2.508756e+01    9.120791e-01
  2.510344e+01    9.097962e-01
  2.511931e+01    9.029388e-01
  2.513519e+01    9.087549e-01
  2.515107e+01    9.084350e-01
  2.516694e+01    9.103951e-01
  2.518282e+01    9.142311e-01
  2.519869e+01    9.320806e-01
  2.521457e+01    9.224977e-01
  2.523044e+01    9.381532e-01
  2.524632e+01    9.440224e-01
  2.526219e+01    9.597088e-01
  2.527807e+01    9.666619e-01
  2.529395e+01    9.711807e-01
  2.530982e+01    9.627469e-01
  2.532570e+01    9.591988e-01
  2.534157e+01    9.583946e-01
  2.535745e+01    9.661900e-01
  2.537332e+01    9.879873e-01
  2.538920e+01    1.017342e+00
  2.540507e+01    1.012025e+00
  2.542095e+01    1.014114e+00
  2.543683e+01    1.010860e+00
  2.545270e+01    1.019755e+00
  2.546858e+01    1.028639e+00
  2.548445e+01    1.060104e+00
  2.550033e+01    1.059180e+00
  2.551620e+01    1.068458e+00
  2.553208e+01    1.100275e+00
  2.554795e+01    1.115867e+00
  2.556383e+01    1.123700e+00
  2.557971e+01    1.137394e+00
  2.559558e+01    1.174559e+00
  2.561146e+01    1.208836e+00
  2.562733e+01    1.236606e+00
  2.564321e+01    1.304338e+00
  2.565908e+01    1.363781e+00
  2.567496e+01    1.415737e+00
  2.569083e+01    1.495591e+00
  2.570671e+01    1.601390e+00
  2.572259e+01    1.718470e+00
  2.573846e+01    1.876171e+00
  2.575434e+01    2.046386e+00
  2.577021e+01    2.290625e+00
  2.578609e+01    2.561613e+00
  2.580196e+01    2.834642e+00
  2.581784e+01    3.247709e+00
  2.583371e+01    3.670039e+00
  2.584959e+01    4.185968e+00
  2.586547e+01    4.774312e+00
  2.588134e+01    5.301734e+00
  2.589722e+01    5.839204e+00
  2.591309e+01    6.407779e+00
  2.592897e+01    6.888027e+00
  2.594484e+01    7.107671e+00
  2.596072e+01    7.145175e+00
  2.597660e+01    6.996884e+00
  2.599247e+01    6.526766e+00
  2.600835e+01    5.904786e+00
  2.602422e+01    5.257298e+00
  2.604010e+01    4.569560e+00
  2.605597e+01    3.908964e+00
  2.607185e+01    3.414044e+00
  2.608772e+01    2.988657e+00
  2.610360e+01    2.646535e+00
  2.611948e+01    2.346832e+00
  2.613535e+01    2.127413e+00
  2.615123e+01    1.931563e+00
  2.616710e+01    1.787562e+00
  2.618298e+01    1.654606e+00
  2.619885e+01    1.571669e+00
  2.621473e+01    1.477368e+00
  2.623060e+01    1.407120e+00
  2.624648e+01    1.338247e+00
  2.626236e+01    1.315395e+00
  2.627823e+01    1.276495e+00
  2.629411e+01    1.216312e+00
  2.630998e+01    1.185968e+00
  2.632586e+01    1.151992e+00
  2.634173e+01    1.108587e+00
  2.635761e+01    1.095941e+00
  2.637348e+01    1.081476e+00
  2.638936e+01    1.079976e+00
  2.640524e+01    1.046220e+00
  2.642111e+01    1.046579e+00
  2.643699e+01    1.046301e+00
  2.645286e+01    1.038419e+00
  2.646874e+01    1.036930e+00
  2.648461e+01    1.026743e+00
  2.650049e+01    1.035075e+00
  2.651636e+01    1.030336e+00
  2.653224e+01    1.013942e+00
  2.654812e+01    1.006445e+00
  2.656399e+01    1.007462e+00
  2.657987e+01    9.809574e-01
  2.659574e+01    9.897817e-01
  2.661162e+01    9.900293e-01
  2.662749e+01    9.658538e-01
  2.664337e+01    9.569605e-01
  2.665924e+01    9.694352e-01
  2.667512e+01    9.673170e-01
  2.669100e+01    9.703292e-01
  2.670687e+01    9.729715e-01
  2.672275e+01    9.704600e-01
  2.673862e+01    9.845467e-01
  2.675450e+01    9.853736e-01
  2.677037e+01    9.646907e-01
  2.678625e+01    9.795218e-01
  2.680212e+01    9.900942e-01
  2.681800e+01    9.768783e-01
  2.683388e+01    9.752781e-01
  2.684975e+01    9.914287e-01
  2.686563e+01    9.934078e-01
  2.688150e+01    9.896057e-01
  2.689738e+01    9.886880e-01
  2.691325e+01    9.916440e-01
  2.692913e+01    1.003678e+00
  2.694501e+01    1.013133e+00
  2.696088e+01    1.035704e+00
  2.697676e+01    1.077376e+00
  2.699263e+01    1.105983e+00
  2.700851e+01    1.121030e+00
  2.702438e+01    1.159412e+00
  2.704026e+01    1.211625e+00
  2.705613e+01    1.229088e+00
  2.707201e+01    1.327524e+00
  2.708789e+01    1.402498e+00
  2.710376e+01    1.494105e+00
  2.711964e+01    1.637810e+00
  2.713551e+01    1.742979e+00
  2.715139e+01    1.864564e+00
  2.716726e+01    1.995283e+00
  2.718314e+01    2.085313e+00
  2.719901e+01    2.159415e+00
  2.721489e+01    2.160672e+00
  2.723077e+01    2.147809e+00
  2.724664e+01    2.074116e+00
  2.726252e+01    1.952878e+00
  2.727839e+01    1.847339e+00
  2.729427e+01    1.711286e+00
  2.731014e+01    1.566445e+00
  2.732602e+01    1.434234e+00
  2.734189e+01    1.373345e+00
  2.735777e+01    1.307163e+00
  2.737365e+01    1.214865e+00
  2.738952e+01    1.138047e+00
  2.740540e+01    1.122263e+00
  2.742127e+01    1.082348e+00
  2.743715e+01    1.059293e+00
  2.745302e+01    1.056307e+00
  2.746890e+01    1.010214e+00
  2.748477e+01    9.757193e-01
  2.750065e+01    9.949593e-01
  2.751653e+01    9.728001e-01
  2.753240e+01    9.745408e-01
  2.754828e+01    9.492480e-01
  2.756415e+01    9.517297e-01
  2.758003e+01    9.595904e-01
  2.759590e+01    9.497002e-01
  2.761178e+01    9.285166e-01
  2.762765e+01    9.077804e-01
  2.764353e+01    9.148551e-01
  2.765941e+01    9.136236e-01
  2.767528e+01    9.331509e-01
  2.769116e+01    9.208680e-01
  2.770703e+01    9.127835e-01
  2.772291e+01    9.100891e-01
  2.773878e+01    9.058802e-01
  2.775466e+01    9.164814e-01
  2.777054e+01    9.068915e-01
  2.778641e+01    8.852499e-01
  2.780229e+01    8.806104e-01
  2.781816e+01    8.911779e-01
  2.783404e+01    9.060285e-01
  2.784991e+01    8.877010e-01
  2.786579e+01    8.685123e-01
  2.788166e+01    8.885120e-01
  2.789754e+01    8.952803e-01
  2.791342e+01    8.875413e-01
  2.792929e+01    8.843234e-01
  2.794517e+01    8.798373e-01
  2.796104e+01    8.663896e-01
  2.797692e+01    8.828613e-01
  2.799279e+01    8.690966e-01
  2.800867e+01    8.545911e-01
  2.802454e+01    8.651216e-01
  2.804042e+01    8.630180e-01
  2.805630e+01    8.634385e-01
  2.807217e+01    8.667163e-01
  2.808805e+01    8.580507e-01
  2.810392e+01    8.588948e-01
  2.811980e+01    8.640824e-01
  2.813567e+01    8.550207e-01
  2.815155e+01    8.343207e-01
  2.816742e+01    8.460019e-01
  2.818330e+01    8.507900e-01
  2.819918e+01    8.521909e-01
  2.821505e+01    8.741605e-01
  2.823093e+01    8.617729e-01
  2.824680e+01    8.583971e-01
  2.826268e+01    8.520340e-01
  2.827855e+01    8.309321e-01
  2.829443e+01    8.436129e-01
  2.831030e+01    8.462216e-01
  2.832618e+01    8.468446e-01
  2.834206e+01    8.401127e-01
  2.835793e+01    8.528497e-01
  2.837381e+01    8.577688e-01
  2.838968e+01    8.518806e-01
  2.840556e+01    8.360670e-01
  2.842143e+01    8.530531e-01
  2.843731e+01    8.662385e-01
  2.845318e+01    8.422421e-01
  2.846906e+01    8.318729e-01
  2.848494e+01    8.308961e-01
  2.850081e+01    8.398829e-01
  2.851669e+01    8.404117e-01
  2.853256e+01    8.251626e-01
  2.854844e+01    8.319522e-01
  2.856431e+01    8.497195e-01
  2.858019e+01    8.482577e-01
  2.859606e+01    8.172122e-01
  2.861194e+01    8.277340e-01
  2.862782e+01    8.158509e-01
  2.864369e+01    8.186179e-01
  2.865957e+01    8.413707e-01
  2.867544e+01    8.464838e-01
  2.869132e+01    8.477113e-01
  2.870719e+01    8.486226e-01
  2.872307e+01    8.432389e-01
  2.873895e+01    8.430838e-01
  2.875482e+01    8.138013e-01
  2.877070e+01    8.386106e-01
  2.878657e+01    8.323280e-01
  2.880245e+01    8.374615e-01
  2.881832e+01    8.249930e-01
  2.883420e+01    8.217881e-01
  2.885007e+01    8.209001e-01
  2.886595e+01    8.290234e-01
  2.888183e+01    8.381082e-01
  2.889770e+01    8.184825e-01
  2.891358e+01    8.280352e-01
  2.892945e+01    8.222049e-01
  2.894533e+01    8.249765e-01
  2.896120e+01    8.082290e-01
  2.897708e+01    7.988971e-01
  2.899295e+01    8.124185e-01
  2.900883e+01    8.187451e-01
  2.902471e+01    8.242938e-01
  2.904058e+01    8.380286e-01
  2.905646e+01    8.300777e-01
  2.907233e+01    8.071197e-01
  2.908821e+01    7.966146e-01
  2.910408e+01    8.282259e-01
  2.911996e+01    8.323577e-01
  2.913583e+01    8.198181e-01
  2.915171e+01    8.100665e-01
  2.916759e+01    8.281836e-01
  2.918346e+01    8.172543e-01
  2.919934e+01    8.276646e-01
  2.921521e+01    8.155600e-01
  2.923109e+01    8.224256e-01
  2.924696e+01    8.093007e-01
  2.926284e+01    8.228034e-01
  2.927871e+01    8.123720e-01
  2.929459e+01    7.835897e-01
  2.931047e+01    7.762218e-01
  2.932634e+01    8.045910e-01
  2.934222e+01    8.172916e-01
  2.935809e+01    8.186896e-01
  2.937397e+01    7.916207e-01
  2.938984e+01    7.992012e-01
  2.940572e+01    8.104731e-01
  2.942159e+01    8.276098e-01
  2.943747e+01    8.107927e-01
  2.945335e+01    8.003407e-01
  2.946922e+01    8.035284e-01
  2.948510e+01    8.025079e-01
  2.950097e+01    7.928960e-01
  2.951685e+01    8.005364e-01
  2.953272e+01    7.836646e-01
  2.954860e+01    7.847062e-01
  2.956447e+01    8.302085e-01
  2.958035e+01    8.060547e-01
  2.959623e+01    8.075057e-01
  2.961210e+01    8.227553e-01
  2.962798e+01    7.937621e-01
  2.964385e+01    8.065134e-01
  2.965973e+01    7.977790e-01
  2.967560e+01    8.055407e-01
  2.969148e+01    8.155831e-01
  2.970736e+01    7.979128e-01
  2.972323e+01    7.886543e-01
  2.973911e+01    7.840824e-01
  2.975498e+01    7.928942e-01
  2.977086e+01    7.997082e-01
  2.978673e+01    8.078675e-01
  2.980261e+01    7.987608e-01
  2.981848e+01    8.002531e-01
  2.983436e+01    8.290298e-01
  2.985024e+01    8.286596e-01
  2.986611e+01    7.961717e-01
  2.988199e+01    7.891607e-01
  2.989786e+01    7.861996e-01
  2.991374e+01    7.887774e-01
  2.992961e+01    8.124720e-01
  2.994549e+01    7.860031e-01
  2.996136e+01    7.739811e-01
  2.997724e+01    7.913505e-01
  2.999312e+01    8.060343e-01
  3.000899e+01    8.058170e-01
  3.002487e+01    7.975628e-01
  3.004074e+01    7.864777e-01
  3.005662e+01    8.175395e-01
  3.007249e+01    8.111271e-01
  3.008837e+01    8.223251e-01
  3.010424e+01    7.921198e-01
  3.012012e+01    7.963911e-01
  3.013600e+01    8.060763e-01
  3.015187e+01    7.966816e-01
  3.016775e+01    7.852439e-01
  3.018362e+01    7.945979e-01
  3.019950e+01    7.846339e-01
  3.021537e+01    7.933307e-01
  3.023125e+01    7.808850e-01
  3.024712e+01    7.850267e-01
  3.026300e+01    7.861437e-01
  3.027888e+01    8.079155e-01
  3.029475e+01    7.828981e-01
  3.031063e+01    7.855901e-01
  3.032650e+01    8.191245e-01
  3.034238e+01    8.091066e-01
  3.035825e+01    8.072042e-01
  3.037413e+01    8.172728e-01
  3.039000e+01    7.920796e-01
  3.040588e+01    7.630661e-01
  3.042176e+01    7.846523e-01
  3.043763e+01    8.086224e-01
  3.045351e+01    7.959495e-01
  3.046938e+01    7.806538e-01
  3.048526e+01    7.690609e-01
  3.050113e+01    7.786871e-01
  3.051701e+01    7.974289e-01
  3.053288e+01    7.981631e-01
  3.054876e+01    7.859284e-01
  3.056464e+01    7.837169e-01
  3.058051e+01    7.859496e-01
  3.059639e+01    7.958380e-01
  3.061226e+01    7.857490e-01
  3.062814e+01    7.755892e-01
  3.064401e+01    7.904646e-01
  3.065989e+01    7.987739e-01
  3.067577e+01    7.845856e-01
  3.069164e+01    7.720258e-01
  3.070752e+01    7.784057e-01
  3.072339e+01    7.858800e-01
  3.073927e+01    7.741886e-01
  3.075514e+01    7.818384e-01
  3.077102e+01    7.692249e-01
  3.078689e+01    7.733300e-01
  3.080277e+01    7.754357e-01
  3.081865e+01    7.746542e-01
  3.083452e+01    7.747160e-01
  3.085040e+01    7.702558e-01
  3.086627e+01    7.788773e-01
  3.088215e+01    7.925760e-01
  3.089802e+01    7.836802e-01
  3.091390e+01    7.800395e-01
  3.092977e+01    7.881110e-01
  3.094565e+01    8.055533e-01
  3.096153e+01    8.027921e-01
  3.097740e+01    7.816414e-01
  3.099328e+01    7.953518e-01
  3.100915e+01    7.973630e-01
  3.102503e+01    7.952374e-01
  3.104090e+01    8.186120e-01
  3.105678e+01    8.160023e-01
  3.107265e+01    8.010443e-01
  3.108853e+01    7.857289e-01
  3.110441e+01    8.010297e-01
  3.112028e+01    8.095386e-01
  3.113616e+01    7.876356e-01
  3.115203e+01    7.878865e-01
  3.116791e+01    8.045781e-01
  3.118378e+01    7.976155e-01
  3.119966e+01    8.049727e-01
  3.121553e+01    8.145747e-01
  3.123141e+01    7.983483e-01
  3.124729e+01    7.985992e-01
  3.126316e+01    8.239672e-01
  3.127904e+01    8.150966e-01
  3.129491e+01    7.845376e-01
  3.131079e+01    7.986261e-01
  3.132666e+01    8.059569e-01
  3.134254e+01    8.147632e-01
  3.135841e+01    7.953500e-01
  3.137429e+01    7.801918e-01
  3.139017e+01    7.953559e-01
  3.140604e+01    8.009398e-01
  3.142192e+01    8.069397e-01
  3.143779e+01    8.276557e-01
  3.145367e+01    8.245617e-01
  3.146954e+01    8.123822e-01
  3.148542e+01    8.361433e-01
  3.150129e+01    8.441354e-01
  3.151717e+01    8.316770e-01
  3.153305e+01    8.321084e-01
  3.154892e+01    8.371992e-01
  3.156480e+01    8.590143e-01
  3.158067e+01    8.902886e-01
  3.159655e+01    8.862665e-01
  3.161242e+01    9.045709e-01
  3.162830e+01    9.030368e-01
  3.164418e+01    9.302405e-01
  3.166005e+01    9.344636e-01
  3.167593e+01    9.685611e-01
  3.169180e+01    1.006203e+00
  3.170768e+01    1.039008e+00
  3.172355e+01    1.064735e+00
  3.173943e+01    1.147100e+00
  3.175530e+01    1.210030e+00
  3.177118e+01    1.274900e+00
  3.178706e+01    1.362599e+00
  3.180293e+01    1.468797e+00
  3.181881e+01    1.583156e+00
  3.183468e+01    1.731931e+00
  3.185056e+01    1.865500e+00
  3.186643e+01    1.972413e+00
  3.188231e+01    2.073287e+00
  3.189818e+01    2.109835e+00
  3.191406e+01    2.094133e+00
  3.192994e+01    2.049359e+00
  3.194581e+01    1.931421e+00
  3.196169e+01    1.812090e+00
  3.197756e+01    1.701798e+00
  3.199344e+01    1.564544e+00
  3.200931e+01    1.435974e+00
  3.202519e+01    1.321381e+00
  3.204106e+01    1.252225e+00
  3.205694e+01    1.192205e+00
  3.207282e+01    1.114281e+00
  3.208869e+01    1.021581e+00
  3.210457e+01    9.883068e-01
  3.212044e+01    9.878539e-01
  3.213632e+01    9.347861e-01
  3.215219e+01    8.984839e-01
  3.216807e+01    9.023738e-01
  3.218394e+01    8.596421e-01
  3.219982e+01    8.474429e-01
  3.221570e+01    8.385655e-01
  3.223157e+01    8.245976e-01
  3.224745e+01    8.201972e-01
  3.226332e+01    8.258922e-01
  3.227920e+01    8.221927e-01
  3.229507e+01    8.124228e-01
  3.231095e+01    8.188537e-01
  3.232682e+01    8.084227e-01
  3.234270e+01    7.963657e-01
  3.235858e+01    7.849778e-01
  3.237445e+01    7.899107e-01
  3.239033e+01    8.008319e-01
  3.240620e+01    8.113499e-01
  3.242208e+01    8.014987e-01
  3.243795e+01    7.818412e-01
  3.245383e+01    7.880203e-01
  3.246970e+01    7.830498e-01
  3.248558e+01    7.835633e-01
  3.250146e+01    7.770303e-01
  3.251733e+01    7.740249e-01
  3.253321e+01    7.907745e-01
  3.254908e+01    7.939609e-01
