# == pyFAI calibration ==
# Distance Sample to Detector: 0.3999999939076516 m
# PONI: 9.750e-02, 1.135e-01 m
# Rotations: -0.000175 0.000000 -0.000000 rad
# 
# == Fit2d calibration ==
# Distance Sample-beamCenter: 400.000 mm
# Center: x=1514.000, y=1300.000 pix
# Tilt: 0.010 deg  TiltPlanRot: 0.010 deg
# 
# Detector Detector	 Spline= None	 PixelSize= 7.500e-05, 7.500e-05 m
#    Detector has a mask: False 
#    Detector has a dark current: False 
#    detector has a flat field: False 
# 
# Wavelength: 6.888e-11 m
# Mask applied: user provided
# Dark current applied: False
# Flat field applied: False
# Polarization factor: 0.99
# Normalization factor: 1.0
# --> /home/myspot/data/2024_07_Rosario/Ru-CGO-ex/2024-07-27_003_Ru-CGO-ex_Reaction_dwell_000023_data_000174.dat
#       q_nm^-1             I 
  2.003187e-02    7.712225e-02
  3.590745e-02    9.850383e-02
  5.178302e-02    1.163935e-01
  6.765859e-02    1.627145e-01
  8.353417e-02    2.610560e-01
  9.940974e-02    1.397526e-01
  1.152853e-01    2.295097e-02
  1.311609e-01    8.043215e-02
  1.470365e-01    5.954511e-02
  1.629120e-01    5.649010e-02
  1.787876e-01    1.009375e-01
  1.946632e-01    6.241118e-02
  2.105388e-01    7.486423e-02
  2.264143e-01    8.068489e-02
  2.422899e-01    4.941757e-02
  2.581655e-01    1.025328e-01
  2.740411e-01    8.644921e-02
  2.899166e-01    6.463482e-02
  3.057922e-01    6.428000e-02
  3.216678e-01    4.534059e-02
  3.375433e-01    5.678539e-02
  3.534189e-01    2.064798e-02
  3.692945e-01    2.197932e-02
  3.851701e-01    1.954417e-02
  4.010456e-01    2.222005e-02
  4.169212e-01    2.609523e-02
  4.327968e-01    3.556823e-02
  4.486724e-01    3.292058e-02
  4.645479e-01    5.327062e-02
  4.804235e-01    4.367172e-02
  4.962991e-01    3.631046e-02
  5.121747e-01    3.935761e-02
  5.280502e-01    2.740682e-02
  5.439258e-01    2.856221e-02
  5.598014e-01    1.881321e-02
  5.756770e-01    1.604928e-02
  5.915525e-01    2.178981e-02
  6.074281e-01    4.271235e-02
  6.233037e-01    3.962847e-02
  6.391793e-01    4.482784e-02
  6.550548e-01    3.479465e-02
  6.709304e-01    4.299920e-02
  6.868060e-01    4.780109e-02
  7.026815e-01    3.414301e-02
  7.185571e-01    5.104337e-02
  7.344327e-01    5.475429e-02
  7.503083e-01    6.310517e-02
  7.661838e-01    8.839998e-02
  7.820594e-01    1.394648e-01
  7.979350e-01    1.575265e-01
  8.138106e-01    2.332794e-01
  8.296861e-01    2.792461e-01
  8.455617e-01    3.447865e-01
  8.614373e-01    3.702329e-01
  8.773129e-01    4.756976e-01
  8.931884e-01    5.120345e-01
  9.090640e-01    5.125809e-01
  9.249396e-01    6.897106e-01
  9.408152e-01    7.553983e-01
  9.566907e-01    8.777723e-01
  9.725663e-01    1.021841e+00
  9.884419e-01    1.092793e+00
  1.004317e+00    1.151806e+00
  1.020193e+00    1.225032e+00
  1.036069e+00    1.313727e+00
  1.051944e+00    1.375053e+00
  1.067820e+00    1.432367e+00
  1.083695e+00    1.459808e+00
  1.099571e+00    1.541268e+00
  1.115446e+00    1.638487e+00
  1.131322e+00    1.734291e+00
  1.147198e+00    1.666260e+00
  1.163073e+00    1.617748e+00
  1.178949e+00    1.642521e+00
  1.194824e+00    1.700116e+00
  1.210700e+00    1.991879e+00
  1.226575e+00    2.139416e+00
  1.242451e+00    2.242948e+00
  1.258327e+00    2.499790e+00
  1.274202e+00    2.567112e+00
  1.290078e+00    2.698722e+00
  1.305953e+00    2.727487e+00
  1.321829e+00    2.661761e+00
  1.337705e+00    2.826904e+00
  1.353580e+00    2.720129e+00
  1.369456e+00    2.836314e+00
  1.385331e+00    2.871542e+00
  1.401207e+00    2.796664e+00
  1.417082e+00    2.748128e+00
  1.432958e+00    2.768749e+00
  1.448834e+00    2.919727e+00
  1.464709e+00    2.955798e+00
  1.480585e+00    3.074593e+00
  1.496460e+00    3.051703e+00
  1.512336e+00    2.977262e+00
  1.528211e+00    2.937944e+00
  1.544087e+00    3.122380e+00
  1.559963e+00    3.311378e+00
  1.575838e+00    3.218127e+00
  1.591714e+00    2.935413e+00
  1.607589e+00    3.076118e+00
  1.623465e+00    3.247210e+00
  1.639340e+00    3.234837e+00
  1.655216e+00    3.254077e+00
  1.671092e+00    3.076682e+00
  1.686967e+00    3.037085e+00
  1.702843e+00    3.086298e+00
  1.718718e+00    3.078576e+00
  1.734594e+00    2.937651e+00
  1.750469e+00    3.007611e+00
  1.766345e+00    2.971083e+00
  1.782221e+00    2.976837e+00
  1.798096e+00    3.108004e+00
  1.813972e+00    3.023796e+00
  1.829847e+00    2.896661e+00
  1.845723e+00    2.993008e+00
  1.861598e+00    2.990985e+00
  1.877474e+00    3.023457e+00
  1.893350e+00    3.034674e+00
  1.909225e+00    2.982180e+00
  1.925101e+00    3.009974e+00
  1.940976e+00    3.161543e+00
  1.956852e+00    3.063935e+00
  1.972727e+00    3.063761e+00
  1.988603e+00    3.186208e+00
  2.004479e+00    3.071777e+00
  2.020354e+00    3.007174e+00
  2.036230e+00    3.033687e+00
  2.052105e+00    2.975787e+00
  2.067981e+00    3.073794e+00
  2.083856e+00    3.025675e+00
  2.099732e+00    2.963996e+00
  2.115608e+00    3.006490e+00
  2.131483e+00    3.006726e+00
  2.147359e+00    3.127553e+00
  2.163234e+00    3.030955e+00
  2.179110e+00    2.986335e+00
  2.194985e+00    3.055543e+00
  2.210861e+00    3.029692e+00
  2.226737e+00    3.132508e+00
  2.242612e+00    3.002360e+00
  2.258488e+00    2.987959e+00
  2.274363e+00    2.981235e+00
  2.290239e+00    3.086446e+00
  2.306115e+00    3.100346e+00
  2.321990e+00    3.084241e+00
  2.337866e+00    3.057333e+00
  2.353741e+00    2.955755e+00
  2.369617e+00    3.067676e+00
  2.385492e+00    3.196559e+00
  2.401368e+00    3.135176e+00
  2.417244e+00    3.066235e+00
  2.433119e+00    3.142529e+00
  2.448995e+00    3.128081e+00
  2.464870e+00    3.170882e+00
  2.480746e+00    3.130218e+00
  2.496621e+00    3.079293e+00
  2.512497e+00    3.199880e+00
  2.528373e+00    3.128736e+00
  2.544248e+00    3.104753e+00
  2.560124e+00    3.100969e+00
  2.575999e+00    3.135768e+00
  2.591875e+00    3.197007e+00
  2.607750e+00    3.208781e+00
  2.623626e+00    3.180592e+00
  2.639502e+00    3.177998e+00
  2.655377e+00    3.171834e+00
  2.671253e+00    3.163251e+00
  2.687128e+00    3.092039e+00
  2.703004e+00    3.105434e+00
  2.718879e+00    3.226523e+00
  2.734755e+00    3.237125e+00
  2.750631e+00    3.107460e+00
  2.766506e+00    3.205176e+00
  2.782382e+00    3.205769e+00
  2.798257e+00    3.239754e+00
  2.814133e+00    3.249697e+00
  2.830008e+00    3.213627e+00
  2.845884e+00    3.126696e+00
  2.861760e+00    3.154644e+00
  2.877635e+00    3.331546e+00
  2.893511e+00    3.309713e+00
  2.909386e+00    3.272163e+00
  2.925262e+00    3.196379e+00
  2.941137e+00    3.242982e+00
  2.957013e+00    3.298272e+00
  2.972889e+00    3.431217e+00
  2.988764e+00    3.317863e+00
  3.004640e+00    3.305578e+00
  3.020515e+00    3.461676e+00
  3.036391e+00    3.414331e+00
  3.052266e+00    3.255285e+00
  3.068142e+00    3.253767e+00
  3.084018e+00    3.283851e+00
  3.099893e+00    3.216385e+00
  3.115769e+00    3.344252e+00
  3.131644e+00    3.383354e+00
  3.147520e+00    3.314291e+00
  3.163395e+00    3.331354e+00
  3.179271e+00    3.456715e+00
  3.195147e+00    3.399538e+00
  3.211022e+00    3.300894e+00
  3.226898e+00    3.404195e+00
  3.242773e+00    3.359940e+00
  3.258649e+00    3.385334e+00
  3.274525e+00    3.364910e+00
  3.290400e+00    3.429524e+00
  3.306276e+00    3.308244e+00
  3.322151e+00    3.339538e+00
  3.338027e+00    3.366182e+00
  3.353902e+00    3.343032e+00
  3.369778e+00    3.362276e+00
  3.385654e+00    3.354727e+00
  3.401529e+00    3.409950e+00
  3.417405e+00    3.258066e+00
  3.433280e+00    3.314594e+00
  3.449156e+00    3.424621e+00
  3.465031e+00    3.381356e+00
  3.480907e+00    3.322323e+00
  3.496783e+00    3.331574e+00
  3.512658e+00    3.272674e+00
  3.528534e+00    3.436050e+00
  3.544409e+00    3.431476e+00
  3.560285e+00    3.413492e+00
  3.576160e+00    3.383788e+00
  3.592036e+00    3.475514e+00
  3.607912e+00    3.419467e+00
  3.623787e+00    3.363563e+00
  3.639663e+00    3.441773e+00
  3.655538e+00    3.379416e+00
  3.671414e+00    3.382684e+00
  3.687289e+00    3.478277e+00
  3.703165e+00    3.429729e+00
  3.719041e+00    3.345848e+00
  3.734916e+00    3.431270e+00
  3.750792e+00    3.443754e+00
  3.766667e+00    3.459592e+00
  3.782543e+00    3.442927e+00
  3.798418e+00    3.498635e+00
  3.814294e+00    3.510227e+00
  3.830170e+00    3.448538e+00
  3.846045e+00    3.511517e+00
  3.861921e+00    3.469378e+00
  3.877796e+00    3.440409e+00
  3.893672e+00    3.480441e+00
  3.909547e+00    3.426213e+00
  3.925423e+00    3.454874e+00
  3.941299e+00    3.445733e+00
  3.957174e+00    3.548520e+00
  3.973050e+00    3.488418e+00
  3.988925e+00    3.563807e+00
  4.004801e+00    3.500149e+00
  4.020676e+00    3.531909e+00
  4.036552e+00    3.410752e+00
  4.052428e+00    3.459472e+00
  4.068303e+00    3.459617e+00
  4.084179e+00    3.462360e+00
  4.100054e+00    3.503465e+00
  4.115930e+00    3.482038e+00
  4.131806e+00    3.422782e+00
  4.147681e+00    3.461407e+00
  4.163557e+00    3.498978e+00
  4.179432e+00    3.429812e+00
  4.195308e+00    3.510887e+00
  4.211183e+00    3.455094e+00
  4.227059e+00    3.412999e+00
  4.242935e+00    3.404608e+00
  4.258810e+00    3.405691e+00
  4.274686e+00    3.484972e+00
  4.290561e+00    3.475453e+00
  4.306437e+00    3.514669e+00
  4.322312e+00    3.467579e+00
  4.338188e+00    3.562040e+00
  4.354064e+00    3.591736e+00
  4.369939e+00    3.591921e+00
  4.385815e+00    3.485969e+00
  4.401690e+00    3.508857e+00
  4.417566e+00    3.562252e+00
  4.433441e+00    3.510074e+00
  4.449317e+00    3.496030e+00
  4.465193e+00    3.523909e+00
  4.481068e+00    3.620098e+00
  4.496944e+00    3.642247e+00
  4.512819e+00    3.564960e+00
  4.528695e+00    3.497133e+00
  4.544570e+00    3.571070e+00
  4.560446e+00    3.578327e+00
  4.576322e+00    3.570382e+00
  4.592197e+00    3.599269e+00
  4.608073e+00    3.541758e+00
  4.623948e+00    3.581336e+00
  4.639824e+00    3.582070e+00
  4.655699e+00    3.582355e+00
  4.671575e+00    3.605032e+00
  4.687451e+00    3.468213e+00
  4.703326e+00    3.527440e+00
  4.719202e+00    3.586670e+00
  4.735077e+00    3.508574e+00
  4.750953e+00    3.576471e+00
  4.766828e+00    3.543143e+00
  4.782704e+00    3.599989e+00
  4.798580e+00    3.627251e+00
  4.814455e+00    3.574896e+00
  4.830331e+00    3.541108e+00
  4.846206e+00    3.588351e+00
  4.862082e+00    3.635694e+00
  4.877957e+00    3.644200e+00
  4.893833e+00    3.577658e+00
  4.909709e+00    3.574342e+00
  4.925584e+00    3.604047e+00
  4.941460e+00    3.567576e+00
  4.957335e+00    3.662317e+00
  4.973211e+00    3.600145e+00
  4.989086e+00    3.641206e+00
  5.004962e+00    3.550314e+00
  5.020838e+00    3.492585e+00
  5.036713e+00    3.600561e+00
  5.052589e+00    3.657508e+00
  5.068464e+00    3.570747e+00
  5.084340e+00    3.573012e+00
  5.100216e+00    3.553462e+00
  5.116091e+00    3.549383e+00
  5.131967e+00    3.566149e+00
  5.147842e+00    3.585224e+00
  5.163718e+00    3.597133e+00
  5.179593e+00    3.572933e+00
  5.195469e+00    3.668885e+00
  5.211345e+00    3.695908e+00
  5.227220e+00    3.637181e+00
  5.243096e+00    3.602676e+00
  5.258971e+00    3.592480e+00
  5.274847e+00    3.594060e+00
  5.290722e+00    3.674015e+00
  5.306598e+00    3.679873e+00
  5.322474e+00    3.545452e+00
  5.338349e+00    3.526957e+00
  5.354225e+00    3.572374e+00
  5.370100e+00    3.620684e+00
  5.385976e+00    3.663342e+00
  5.401851e+00    3.603116e+00
  5.417727e+00    3.609124e+00
  5.433603e+00    3.660310e+00
  5.449478e+00    3.572073e+00
  5.465354e+00    3.558072e+00
  5.481229e+00    3.559532e+00
  5.497105e+00    3.562069e+00
  5.512980e+00    3.527686e+00
  5.528856e+00    3.523355e+00
  5.544732e+00    3.578761e+00
  5.560607e+00    3.572925e+00
  5.576483e+00    3.498295e+00
  5.592358e+00    3.528504e+00
  5.608234e+00    3.564037e+00
  5.624109e+00    3.603495e+00
  5.639985e+00    3.551785e+00
  5.655861e+00    3.479619e+00
  5.671736e+00    3.471412e+00
  5.687612e+00    3.497663e+00
  5.703487e+00    3.495548e+00
  5.719363e+00    3.518505e+00
  5.735238e+00    3.587991e+00
  5.751114e+00    3.555698e+00
  5.766990e+00    3.486479e+00
  5.782865e+00    3.565207e+00
  5.798741e+00    3.618788e+00
  5.814616e+00    3.658784e+00
  5.830492e+00    3.543465e+00
  5.846367e+00    3.484533e+00
  5.862243e+00    3.534798e+00
  5.878119e+00    3.485938e+00
  5.893994e+00    3.485278e+00
  5.909870e+00    3.505798e+00
  5.925745e+00    3.488289e+00
  5.941621e+00    3.420048e+00
  5.957497e+00    3.426590e+00
  5.973372e+00    3.505228e+00
  5.989248e+00    3.420286e+00
  6.005123e+00    3.427373e+00
  6.020999e+00    3.421257e+00
  6.036874e+00    3.424766e+00
  6.052750e+00    3.426765e+00
  6.068626e+00    3.566506e+00
  6.084501e+00    3.587558e+00
  6.100377e+00    3.570364e+00
  6.116252e+00    3.545091e+00
  6.132128e+00    3.554852e+00
  6.148003e+00    3.623400e+00
  6.163879e+00    3.492460e+00
  6.179755e+00    3.470197e+00
  6.195630e+00    3.541225e+00
  6.211506e+00    3.561778e+00
  6.227381e+00    3.527591e+00
  6.243257e+00    3.550138e+00
  6.259132e+00    3.566056e+00
  6.275008e+00    3.453108e+00
  6.290884e+00    3.528634e+00
  6.306759e+00    3.526080e+00
  6.322635e+00    3.463939e+00
  6.338510e+00    3.511238e+00
  6.354386e+00    3.547090e+00
  6.370261e+00    3.594553e+00
  6.386137e+00    3.618455e+00
  6.402013e+00    3.559604e+00
  6.417888e+00    3.508388e+00
  6.433764e+00    3.444437e+00
  6.449639e+00    3.491498e+00
  6.465515e+00    3.468168e+00
  6.481390e+00    3.523747e+00
  6.497266e+00    3.523397e+00
  6.513142e+00    3.440915e+00
  6.529017e+00    3.490500e+00
  6.544893e+00    3.495188e+00
  6.560768e+00    3.497668e+00
  6.576644e+00    3.529574e+00
  6.592519e+00    3.506694e+00
  6.608395e+00    3.514257e+00
  6.624271e+00    3.540140e+00
  6.640146e+00    3.498960e+00
  6.656022e+00    3.488027e+00
  6.671897e+00    3.450868e+00
  6.687773e+00    3.433368e+00
  6.703648e+00    3.491859e+00
  6.719524e+00    3.508011e+00
  6.735400e+00    3.552891e+00
  6.751275e+00    3.525584e+00
  6.767151e+00    3.484936e+00
  6.783026e+00    3.508352e+00
  6.798902e+00    3.457597e+00
  6.814777e+00    3.480286e+00
  6.830653e+00    3.492019e+00
  6.846529e+00    3.535933e+00
  6.862404e+00    3.587837e+00
  6.878280e+00    3.433092e+00
  6.894155e+00    3.463248e+00
  6.910031e+00    3.525177e+00
  6.925907e+00    3.498222e+00
  6.941782e+00    3.511221e+00
  6.957658e+00    3.446067e+00
  6.973533e+00    3.485769e+00
  6.989409e+00    3.484902e+00
  7.005284e+00    3.431448e+00
  7.021160e+00    3.458348e+00
  7.037036e+00    3.537029e+00
  7.052911e+00    3.524383e+00
  7.068787e+00    3.412892e+00
  7.084662e+00    3.419389e+00
  7.100538e+00    3.426389e+00
  7.116413e+00    3.477831e+00
  7.132289e+00    3.458359e+00
  7.148165e+00    3.454383e+00
  7.164040e+00    3.478021e+00
  7.179916e+00    3.489798e+00
  7.195791e+00    3.523432e+00
  7.211667e+00    3.565780e+00
  7.227542e+00    3.505383e+00
  7.243418e+00    3.498873e+00
  7.259294e+00    3.493058e+00
  7.275169e+00    3.427617e+00
  7.291045e+00    3.364936e+00
  7.306920e+00    3.390567e+00
  7.322796e+00    3.456167e+00
  7.338671e+00    3.449918e+00
  7.354547e+00    3.358243e+00
  7.370423e+00    3.332356e+00
  7.386298e+00    3.318916e+00
  7.402174e+00    3.408359e+00
  7.418049e+00    3.441318e+00
  7.433925e+00    3.486634e+00
  7.449800e+00    3.421877e+00
  7.465676e+00    3.424471e+00
  7.481552e+00    3.391695e+00
  7.497427e+00    3.348012e+00
  7.513303e+00    3.442624e+00
  7.529178e+00    3.492304e+00
  7.545054e+00    3.475788e+00
  7.560929e+00    3.410435e+00
  7.576805e+00    3.444735e+00
  7.592681e+00    3.445228e+00
  7.608556e+00    3.444432e+00
  7.624432e+00    3.439993e+00
  7.640307e+00    3.396499e+00
  7.656183e+00    3.419383e+00
  7.672058e+00    3.438507e+00
  7.687934e+00    3.382576e+00
  7.703810e+00    3.356507e+00
  7.719685e+00    3.358142e+00
  7.735561e+00    3.441310e+00
  7.751436e+00    3.372908e+00
  7.767312e+00    3.380346e+00
  7.783187e+00    3.381138e+00
  7.799063e+00    3.396159e+00
  7.814939e+00    3.440296e+00
  7.830814e+00    3.422358e+00
  7.846690e+00    3.467409e+00
  7.862565e+00    3.425646e+00
  7.878441e+00    3.413289e+00
  7.894317e+00    3.399909e+00
  7.910192e+00    3.416608e+00
  7.926068e+00    3.338340e+00
  7.941943e+00    3.352740e+00
  7.957819e+00    3.383318e+00
  7.973694e+00    3.373777e+00
  7.989570e+00    3.384847e+00
  8.005446e+00    3.391006e+00
  8.021321e+00    3.402882e+00
  8.037197e+00    3.356396e+00
  8.053072e+00    3.369880e+00
  8.068948e+00    3.342982e+00
  8.084823e+00    3.349831e+00
  8.100699e+00    3.351184e+00
  8.116575e+00    3.400680e+00
  8.132450e+00    3.396738e+00
  8.148326e+00    3.473678e+00
  8.164201e+00    3.479348e+00
  8.180077e+00    3.468546e+00
  8.195952e+00    3.409565e+00
  8.211828e+00    3.453522e+00
  8.227704e+00    3.462889e+00
  8.243579e+00    3.383482e+00
  8.259455e+00    3.434309e+00
  8.275330e+00    3.352350e+00
  8.291206e+00    3.404235e+00
  8.307081e+00    3.389993e+00
  8.322957e+00    3.412409e+00
  8.338833e+00    3.343228e+00
  8.354708e+00    3.344937e+00
  8.370584e+00    3.394988e+00
  8.386459e+00    3.389762e+00
  8.402335e+00    3.357440e+00
  8.418210e+00    3.343447e+00
  8.434086e+00    3.384634e+00
  8.449962e+00    3.285042e+00
  8.465837e+00    3.378760e+00
  8.481713e+00    3.347518e+00
  8.497588e+00    3.323178e+00
  8.513464e+00    3.370116e+00
  8.529339e+00    3.289803e+00
  8.545215e+00    3.339102e+00
  8.561091e+00    3.349004e+00
  8.576966e+00    3.308599e+00
  8.592842e+00    3.284094e+00
  8.608717e+00    3.253126e+00
  8.624593e+00    3.302099e+00
  8.640468e+00    3.302030e+00
  8.656344e+00    3.297827e+00
  8.672220e+00    3.330409e+00
  8.688095e+00    3.299938e+00
  8.703971e+00    3.239005e+00
  8.719846e+00    3.306246e+00
  8.735722e+00    3.334717e+00
  8.751598e+00    3.233101e+00
  8.767473e+00    3.193435e+00
  8.783349e+00    3.270929e+00
  8.799224e+00    3.308082e+00
  8.815100e+00    3.264332e+00
  8.830975e+00    3.290844e+00
  8.846851e+00    3.231406e+00
  8.862727e+00    3.184509e+00
  8.878602e+00    3.253109e+00
  8.894478e+00    3.290334e+00
  8.910353e+00    3.280136e+00
  8.926229e+00    3.304585e+00
  8.942104e+00    3.318542e+00
  8.957980e+00    3.293877e+00
  8.973856e+00    3.257284e+00
  8.989731e+00    3.258528e+00
  9.005607e+00    3.214799e+00
  9.021482e+00    3.245019e+00
  9.037358e+00    3.215561e+00
  9.053233e+00    3.250398e+00
  9.069109e+00    3.209630e+00
  9.084985e+00    3.167547e+00
  9.100860e+00    3.247407e+00
  9.116736e+00    3.279796e+00
  9.132611e+00    3.243204e+00
  9.148487e+00    3.216504e+00
  9.164362e+00    3.181403e+00
  9.180238e+00    3.172424e+00
  9.196114e+00    3.215433e+00
  9.211989e+00    3.210282e+00
  9.227865e+00    3.261577e+00
  9.243740e+00    3.180843e+00
  9.259616e+00    3.161118e+00
  9.275491e+00    3.212335e+00
  9.291367e+00    3.216894e+00
  9.307243e+00    3.233718e+00
  9.323118e+00    3.242552e+00
  9.338994e+00    3.197972e+00
  9.354869e+00    3.239243e+00
  9.370745e+00    3.184348e+00
  9.386620e+00    3.214349e+00
  9.402496e+00    3.173904e+00
  9.418372e+00    3.196043e+00
  9.434247e+00    3.268168e+00
  9.450123e+00    3.154258e+00
  9.465998e+00    3.180089e+00
  9.481874e+00    3.172134e+00
  9.497749e+00    3.165750e+00
  9.513625e+00    3.136763e+00
  9.529501e+00    3.163485e+00
  9.545376e+00    3.192293e+00
  9.561252e+00    3.148400e+00
  9.577127e+00    3.105636e+00
  9.593003e+00    3.148074e+00
  9.608878e+00    3.142566e+00
  9.624754e+00    3.192629e+00
  9.640630e+00    3.174452e+00
  9.656505e+00    3.105981e+00
  9.672381e+00    3.137224e+00
  9.688256e+00    3.113530e+00
  9.704132e+00    3.201789e+00
  9.720008e+00    3.140436e+00
  9.735883e+00    3.104595e+00
  9.751759e+00    3.151755e+00
  9.767634e+00    3.178497e+00
  9.783510e+00    3.151462e+00
  9.799385e+00    3.123236e+00
  9.815261e+00    3.091621e+00
  9.831137e+00    3.099538e+00
  9.847012e+00    3.070074e+00
  9.862888e+00    3.118697e+00
  9.878763e+00    3.109488e+00
  9.894639e+00    3.081464e+00
  9.910514e+00    3.087684e+00
  9.926390e+00    3.094101e+00
  9.942266e+00    3.076552e+00
  9.958141e+00    3.081298e+00
  9.974017e+00    3.098300e+00
  9.989892e+00    3.083224e+00
  1.000577e+01    3.028974e+00
  1.002164e+01    3.039358e+00
  1.003752e+01    3.087017e+00
  1.005339e+01    3.117275e+00
  1.006927e+01    3.109265e+00
  1.008515e+01    3.082745e+00
  1.010102e+01    3.042054e+00
  1.011690e+01    3.011095e+00
  1.013277e+01    3.065183e+00
  1.014865e+01    3.055868e+00
  1.016452e+01    3.041919e+00
  1.018040e+01    3.035125e+00
  1.019627e+01    3.002365e+00
  1.021215e+01    3.010434e+00
  1.022803e+01    3.028639e+00
  1.024390e+01    2.995200e+00
  1.025978e+01    2.994071e+00
  1.027565e+01    3.010721e+00
  1.029153e+01    2.977618e+00
  1.030740e+01    2.953770e+00
  1.032328e+01    2.984033e+00
  1.033915e+01    2.975598e+00
  1.035503e+01    2.973100e+00
  1.037091e+01    2.956315e+00
  1.038678e+01    2.965545e+00
  1.040266e+01    2.992612e+00
  1.041853e+01    2.986664e+00
  1.043441e+01    3.010052e+00
  1.045028e+01    2.978684e+00
  1.046616e+01    2.944050e+00
  1.048204e+01    2.936794e+00
  1.049791e+01    2.974692e+00
  1.051379e+01    2.957502e+00
  1.052966e+01    2.948694e+00
  1.054554e+01    2.934511e+00
  1.056141e+01    2.937536e+00
  1.057729e+01    2.951313e+00
  1.059316e+01    2.959000e+00
  1.060904e+01    2.923637e+00
  1.062492e+01    2.964962e+00
  1.064079e+01    2.997150e+00
  1.065667e+01    2.922938e+00
  1.067254e+01    2.919148e+00
  1.068842e+01    2.954363e+00
  1.070429e+01    2.925571e+00
  1.072017e+01    2.943417e+00
  1.073604e+01    2.944809e+00
  1.075192e+01    2.918394e+00
  1.076780e+01    2.929482e+00
  1.078367e+01    2.915848e+00
  1.079955e+01    2.909442e+00
  1.081542e+01    2.888402e+00
  1.083130e+01    2.924877e+00
  1.084717e+01    2.900510e+00
  1.086305e+01    2.927282e+00
  1.087892e+01    2.908055e+00
  1.089480e+01    2.869210e+00
  1.091068e+01    2.824853e+00
  1.092655e+01    2.877716e+00
  1.094243e+01    2.864870e+00
  1.095830e+01    2.874578e+00
  1.097418e+01    2.905261e+00
  1.099005e+01    2.849489e+00
  1.100593e+01    2.820537e+00
  1.102180e+01    2.837809e+00
  1.103768e+01    2.868155e+00
  1.105356e+01    2.881500e+00
  1.106943e+01    2.870023e+00
  1.108531e+01    2.862604e+00
  1.110118e+01    2.852555e+00
  1.111706e+01    2.814239e+00
  1.113293e+01    2.795520e+00
  1.114881e+01    2.832693e+00
  1.116468e+01    2.815612e+00
  1.118056e+01    2.823426e+00
  1.119644e+01    2.791280e+00
  1.121231e+01    2.800504e+00
  1.122819e+01    2.822510e+00
  1.124406e+01    2.794543e+00
  1.125994e+01    2.836124e+00
  1.127581e+01    2.821682e+00
  1.129169e+01    2.786901e+00
  1.130756e+01    2.790272e+00
  1.132344e+01    2.759162e+00
  1.133932e+01    2.757774e+00
  1.135519e+01    2.808714e+00
  1.137107e+01    2.836026e+00
  1.138694e+01    2.804692e+00
  1.140282e+01    2.793422e+00
  1.141869e+01    2.822333e+00
  1.143457e+01    2.775721e+00
  1.145045e+01    2.784465e+00
  1.146632e+01    2.833631e+00
  1.148220e+01    2.773142e+00
  1.149807e+01    2.754337e+00
  1.151395e+01    2.745637e+00
  1.152982e+01    2.778213e+00
  1.154570e+01    2.734126e+00
  1.156157e+01    2.751503e+00
  1.157745e+01    2.736212e+00
  1.159333e+01    2.739040e+00
  1.160920e+01    2.730462e+00
  1.162508e+01    2.757797e+00
  1.164095e+01    2.723352e+00
  1.165683e+01    2.769996e+00
  1.167270e+01    2.781121e+00
  1.168858e+01    2.744452e+00
  1.170445e+01    2.770005e+00
  1.172033e+01    2.728789e+00
  1.173621e+01    2.738077e+00
  1.175208e+01    2.678759e+00
  1.176796e+01    2.686066e+00
  1.178383e+01    2.699266e+00
  1.179971e+01    2.714109e+00
  1.181558e+01    2.739739e+00
  1.183146e+01    2.686591e+00
  1.184733e+01    2.689026e+00
  1.186321e+01    2.710413e+00
  1.187909e+01    2.671594e+00
  1.189496e+01    2.699934e+00
  1.191084e+01    2.657018e+00
  1.192671e+01    2.635463e+00
  1.194259e+01    2.639125e+00
  1.195846e+01    2.671185e+00
  1.197434e+01    2.674949e+00
  1.199021e+01    2.677312e+00
  1.200609e+01    2.661924e+00
  1.202197e+01    2.681907e+00
  1.203784e+01    2.721353e+00
  1.205372e+01    2.682341e+00
  1.206959e+01    2.652211e+00
  1.208547e+01    2.644830e+00
  1.210134e+01    2.637435e+00
  1.211722e+01    2.631348e+00
  1.213309e+01    2.621430e+00
  1.214897e+01    2.657489e+00
  1.216485e+01    2.639915e+00
  1.218072e+01    2.665486e+00
  1.219660e+01    2.666037e+00
  1.221247e+01    2.669928e+00
  1.222835e+01    2.608086e+00
  1.224422e+01    2.641457e+00
  1.226010e+01    2.644061e+00
  1.227597e+01    2.646642e+00
  1.229185e+01    2.682957e+00
  1.230773e+01    2.656270e+00
  1.232360e+01    2.670397e+00
  1.233948e+01    2.709454e+00
  1.235535e+01    2.645465e+00
  1.237123e+01    2.642634e+00
  1.238710e+01    2.632829e+00
  1.240298e+01    2.672354e+00
  1.241886e+01    2.666576e+00
  1.243473e+01    2.662706e+00
  1.245061e+01    2.651814e+00
  1.246648e+01    2.618692e+00
  1.248236e+01    2.637179e+00
  1.249823e+01    2.659274e+00
  1.251411e+01    2.665952e+00
  1.252998e+01    2.657968e+00
  1.254586e+01    2.672577e+00
  1.256174e+01    2.695400e+00
  1.257761e+01    2.671361e+00
  1.259349e+01    2.674711e+00
  1.260936e+01    2.707498e+00
  1.262524e+01    2.675856e+00
  1.264111e+01    2.736752e+00
  1.265699e+01    2.765632e+00
  1.267286e+01    2.792503e+00
  1.268874e+01    2.777345e+00
  1.270462e+01    2.820049e+00
  1.272049e+01    2.804202e+00
  1.273637e+01    2.854187e+00
  1.275224e+01    2.880750e+00
  1.276812e+01    2.921798e+00
  1.278399e+01    2.918729e+00
  1.279987e+01    2.966934e+00
  1.281574e+01    3.005618e+00
  1.283162e+01    3.059152e+00
  1.284750e+01    3.202634e+00
  1.286337e+01    3.291306e+00
  1.287925e+01    3.361990e+00
  1.289512e+01    3.439137e+00
  1.291100e+01    3.576838e+00
  1.292687e+01    3.778148e+00
  1.294275e+01    3.985057e+00
  1.295862e+01    4.330282e+00
  1.297450e+01    4.776000e+00
  1.299038e+01    5.271114e+00
  1.300625e+01    5.864206e+00
  1.302213e+01    6.664633e+00
  1.303800e+01    7.657306e+00
  1.305388e+01    8.826006e+00
  1.306975e+01    1.014535e+01
  1.308563e+01    1.140483e+01
  1.310150e+01    1.255745e+01
  1.311738e+01    1.374390e+01
  1.313326e+01    1.471252e+01
  1.314913e+01    1.549331e+01
  1.316501e+01    1.621441e+01
  1.318088e+01    1.623836e+01
  1.319676e+01    1.555180e+01
  1.321263e+01    1.417113e+01
  1.322851e+01    1.239692e+01
  1.324438e+01    1.058576e+01
  1.326026e+01    9.034453e+00
  1.327614e+01    7.656649e+00
  1.329201e+01    6.689983e+00
  1.330789e+01    5.839649e+00
  1.332376e+01    5.216223e+00
  1.333964e+01    4.806371e+00
  1.335551e+01    4.478729e+00
  1.337139e+01    4.073697e+00
  1.338727e+01    3.768254e+00
  1.340314e+01    3.577738e+00
  1.341902e+01    3.448715e+00
  1.343489e+01    3.313899e+00
  1.345077e+01    3.167324e+00
  1.346664e+01    3.055134e+00
  1.348252e+01    3.016082e+00
  1.349839e+01    2.952746e+00
  1.351427e+01    2.898965e+00
  1.353015e+01    2.843785e+00
  1.354602e+01    2.833880e+00
  1.356190e+01    2.796958e+00
  1.357777e+01    2.720125e+00
  1.359365e+01    2.682899e+00
  1.360952e+01    2.667120e+00
  1.362540e+01    2.630603e+00
  1.364127e+01    2.601282e+00
  1.365715e+01    2.561169e+00
  1.367303e+01    2.534955e+00
  1.368890e+01    2.559729e+00
  1.370478e+01    2.521875e+00
  1.372065e+01    2.517940e+00
  1.373653e+01    2.474226e+00
  1.375240e+01    2.430879e+00
  1.376828e+01    2.400037e+00
  1.378415e+01    2.402790e+00
  1.380003e+01    2.430488e+00
  1.381591e+01    2.397824e+00
  1.383178e+01    2.414323e+00
  1.384766e+01    2.426337e+00
  1.386353e+01    2.414576e+00
  1.387941e+01    2.397950e+00
  1.389528e+01    2.389441e+00
  1.391116e+01    2.366811e+00
  1.392703e+01    2.401242e+00
  1.394291e+01    2.362401e+00
  1.395879e+01    2.339790e+00
  1.397466e+01    2.313676e+00
  1.399054e+01    2.329965e+00
  1.400641e+01    2.350317e+00
  1.402229e+01    2.330804e+00
  1.403816e+01    2.271717e+00
  1.405404e+01    2.297003e+00
  1.406991e+01    2.297379e+00
  1.408579e+01    2.289592e+00
  1.410167e+01    2.280648e+00
  1.411754e+01    2.233052e+00
  1.413342e+01    2.255288e+00
  1.414929e+01    2.338056e+00
  1.416517e+01    2.304929e+00
  1.418104e+01    2.296118e+00
  1.419692e+01    2.251972e+00
  1.421279e+01    2.258222e+00
  1.422867e+01    2.241513e+00
  1.424455e+01    2.271685e+00
  1.426042e+01    2.246803e+00
  1.427630e+01    2.241746e+00
  1.429217e+01    2.239341e+00
  1.430805e+01    2.262847e+00
  1.432392e+01    2.246260e+00
  1.433980e+01    2.215920e+00
  1.435568e+01    2.214703e+00
  1.437155e+01    2.202648e+00
  1.438743e+01    2.246880e+00
  1.440330e+01    2.233800e+00
  1.441918e+01    2.216808e+00
  1.443505e+01    2.217081e+00
  1.445093e+01    2.221976e+00
  1.446680e+01    2.223647e+00
  1.448268e+01    2.166371e+00
  1.449856e+01    2.175846e+00
  1.451443e+01    2.143440e+00
  1.453031e+01    2.182648e+00
  1.454618e+01    2.211992e+00
  1.456206e+01    2.199835e+00
  1.457793e+01    2.156522e+00
  1.459381e+01    2.171516e+00
  1.460968e+01    2.174267e+00
  1.462556e+01    2.193284e+00
  1.464144e+01    2.194441e+00
  1.465731e+01    2.217237e+00
  1.467319e+01    2.234323e+00
  1.468906e+01    2.178647e+00
  1.470494e+01    2.161718e+00
  1.472081e+01    2.176343e+00
  1.473669e+01    2.179016e+00
  1.475256e+01    2.207638e+00
  1.476844e+01    2.231671e+00
  1.478432e+01    2.214526e+00
  1.480019e+01    2.162463e+00
  1.481607e+01    2.172872e+00
  1.483194e+01    2.176890e+00
  1.484782e+01    2.149932e+00
  1.486369e+01    2.115223e+00
  1.487957e+01    2.173446e+00
  1.489544e+01    2.220138e+00
  1.491132e+01    2.227583e+00
  1.492720e+01    2.247504e+00
  1.494307e+01    2.219287e+00
  1.495895e+01    2.270695e+00
  1.497482e+01    2.315503e+00
  1.499070e+01    2.302591e+00
  1.500657e+01    2.345132e+00
  1.502245e+01    2.447147e+00
  1.503832e+01    2.549033e+00
  1.505420e+01    2.681266e+00
  1.507008e+01    2.766082e+00
  1.508595e+01    2.949881e+00
  1.510183e+01    3.212443e+00
  1.511770e+01    3.473416e+00
  1.513358e+01    3.777951e+00
  1.514945e+01    4.093765e+00
  1.516533e+01    4.475639e+00
  1.518120e+01    4.807117e+00
  1.519708e+01    5.119939e+00
  1.521296e+01    5.345467e+00
  1.522883e+01    5.474380e+00
  1.524471e+01    5.676219e+00
  1.526058e+01    5.785368e+00
  1.527646e+01    5.578789e+00
  1.529233e+01    5.277549e+00
  1.530821e+01    5.019608e+00
  1.532409e+01    4.607494e+00
  1.533996e+01    4.164047e+00
  1.535584e+01    3.727225e+00
  1.537171e+01    3.421662e+00
  1.538759e+01    3.151696e+00
  1.540346e+01    2.860614e+00
  1.541934e+01    2.670242e+00
  1.543521e+01    2.569825e+00
  1.545109e+01    2.454918e+00
  1.546697e+01    2.384366e+00
  1.548284e+01    2.343553e+00
  1.549872e+01    2.296122e+00
  1.551459e+01    2.219234e+00
  1.553047e+01    2.154741e+00
  1.554634e+01    2.128095e+00
  1.556222e+01    2.099867e+00
  1.557809e+01    2.055876e+00
  1.559397e+01    2.036125e+00
  1.560985e+01    2.017543e+00
  1.562572e+01    2.027134e+00
  1.564160e+01    2.036111e+00
  1.565747e+01    1.983347e+00
  1.567335e+01    1.972237e+00
  1.568922e+01    2.000517e+00
  1.570510e+01    1.948744e+00
  1.572097e+01    1.946526e+00
  1.573685e+01    1.948525e+00
  1.575273e+01    1.965989e+00
  1.576860e+01    1.939151e+00
  1.578448e+01    1.928835e+00
  1.580035e+01    1.963964e+00
  1.581623e+01    1.892631e+00
  1.583210e+01    1.881245e+00
  1.584798e+01    1.918025e+00
  1.586385e+01    1.892267e+00
  1.587973e+01    1.911751e+00
  1.589561e+01    1.900513e+00
  1.591148e+01    1.878647e+00
  1.592736e+01    1.875264e+00
  1.594323e+01    1.890502e+00
  1.595911e+01    1.864729e+00
  1.597498e+01    1.868092e+00
  1.599086e+01    1.847676e+00
  1.600673e+01    1.848190e+00
  1.602261e+01    1.858182e+00
  1.603849e+01    1.884686e+00
  1.605436e+01    1.825343e+00
  1.607024e+01    1.802992e+00
  1.608611e+01    1.815170e+00
  1.610199e+01    1.829485e+00
  1.611786e+01    1.800118e+00
  1.613374e+01    1.803912e+00
  1.614961e+01    1.803092e+00
  1.616549e+01    1.799916e+00
  1.618137e+01    1.783539e+00
  1.619724e+01    1.804534e+00
  1.621312e+01    1.791205e+00
  1.622899e+01    1.790299e+00
  1.624487e+01    1.782059e+00
  1.626074e+01    1.785850e+00
  1.627662e+01    1.824029e+00
  1.629250e+01    1.810962e+00
  1.630837e+01    1.786942e+00
  1.632425e+01    1.775977e+00
  1.634012e+01    1.754618e+00
  1.635600e+01    1.786539e+00
  1.637187e+01    1.767499e+00
  1.638775e+01    1.768251e+00
  1.640362e+01    1.740884e+00
  1.641950e+01    1.725004e+00
  1.643538e+01    1.743818e+00
  1.645125e+01    1.752106e+00
  1.646713e+01    1.746764e+00
  1.648300e+01    1.759843e+00
  1.649888e+01    1.753127e+00
  1.651475e+01    1.740672e+00
  1.653063e+01    1.744214e+00
  1.654650e+01    1.724993e+00
  1.656238e+01    1.706993e+00
  1.657826e+01    1.697440e+00
  1.659413e+01    1.714153e+00
  1.661001e+01    1.709005e+00
  1.662588e+01    1.707798e+00
  1.664176e+01    1.722673e+00
  1.665763e+01    1.745516e+00
  1.667351e+01    1.725862e+00
  1.668938e+01    1.733773e+00
  1.670526e+01    1.679658e+00
  1.672114e+01    1.703325e+00
  1.673701e+01    1.690309e+00
  1.675289e+01    1.667290e+00
  1.676876e+01    1.684390e+00
  1.678464e+01    1.673138e+00
  1.680051e+01    1.674453e+00
  1.681639e+01    1.672620e+00
  1.683226e+01    1.659369e+00
  1.684814e+01    1.653805e+00
  1.686402e+01    1.664955e+00
  1.687989e+01    1.671344e+00
  1.689577e+01    1.652553e+00
  1.691164e+01    1.692065e+00
  1.692752e+01    1.662371e+00
  1.694339e+01    1.639692e+00
  1.695927e+01    1.644669e+00
  1.697514e+01    1.656123e+00
  1.699102e+01    1.640782e+00
  1.700690e+01    1.618619e+00
  1.702277e+01    1.644998e+00
  1.703865e+01    1.640061e+00
  1.705452e+01    1.640192e+00
  1.707040e+01    1.615014e+00
  1.708627e+01    1.620322e+00
  1.710215e+01    1.598194e+00
  1.711802e+01    1.630456e+00
  1.713390e+01    1.644172e+00
  1.714978e+01    1.638094e+00
  1.716565e+01    1.616169e+00
  1.718153e+01    1.617468e+00
  1.719740e+01    1.617229e+00
  1.721328e+01    1.606492e+00
  1.722915e+01    1.612876e+00
  1.724503e+01    1.594919e+00
  1.726091e+01    1.598975e+00
  1.727678e+01    1.572987e+00
  1.729266e+01    1.572401e+00
  1.730853e+01    1.562729e+00
  1.732441e+01    1.553258e+00
  1.734028e+01    1.537475e+00
  1.735616e+01    1.544986e+00
  1.737203e+01    1.582457e+00
  1.738791e+01    1.587864e+00
  1.740379e+01    1.581108e+00
  1.741966e+01    1.550874e+00
  1.743554e+01    1.572358e+00
  1.745141e+01    1.572606e+00
  1.746729e+01    1.597674e+00
  1.748316e+01    1.554082e+00
  1.749904e+01    1.569316e+00
  1.751491e+01    1.547824e+00
  1.753079e+01    1.567832e+00
  1.754667e+01    1.578917e+00
  1.756254e+01    1.566290e+00
  1.757842e+01    1.569873e+00
  1.759429e+01    1.550250e+00
  1.761017e+01    1.515502e+00
  1.762604e+01    1.524937e+00
  1.764192e+01    1.531452e+00
  1.765779e+01    1.542049e+00
  1.767367e+01    1.532046e+00
  1.768955e+01    1.489885e+00
  1.770542e+01    1.511513e+00
  1.772130e+01    1.540028e+00
  1.773717e+01    1.542731e+00
  1.775305e+01    1.537616e+00
  1.776892e+01    1.500609e+00
  1.778480e+01    1.515208e+00
  1.780067e+01    1.522038e+00
  1.781655e+01    1.522988e+00
  1.783243e+01    1.512831e+00
  1.784830e+01    1.548905e+00
  1.786418e+01    1.526261e+00
  1.788005e+01    1.532558e+00
  1.789593e+01    1.526306e+00
  1.791180e+01    1.541880e+00
  1.792768e+01    1.504276e+00
  1.794355e+01    1.485913e+00
  1.795943e+01    1.481272e+00
  1.797531e+01    1.488526e+00
  1.799118e+01    1.485929e+00
  1.800706e+01    1.480938e+00
  1.802293e+01    1.501857e+00
  1.803881e+01    1.505694e+00
  1.805468e+01    1.488566e+00
  1.807056e+01    1.471025e+00
  1.808643e+01    1.500236e+00
  1.810231e+01    1.506669e+00
  1.811819e+01    1.475075e+00
  1.813406e+01    1.475452e+00
  1.814994e+01    1.465845e+00
  1.816581e+01    1.446956e+00
  1.818169e+01    1.436281e+00
  1.819756e+01    1.418707e+00
  1.821344e+01    1.440173e+00
  1.822932e+01    1.447432e+00
  1.824519e+01    1.474204e+00
  1.826107e+01    1.479404e+00
  1.827694e+01    1.474919e+00
  1.829282e+01    1.472012e+00
  1.830869e+01    1.456303e+00
  1.832457e+01    1.426009e+00
  1.834044e+01    1.409775e+00
  1.835632e+01    1.455517e+00
  1.837220e+01    1.451821e+00
  1.838807e+01    1.434061e+00
  1.840395e+01    1.434092e+00
  1.841982e+01    1.419236e+00
  1.843570e+01    1.415263e+00
  1.845157e+01    1.445092e+00
  1.846745e+01    1.433882e+00
  1.848332e+01    1.401804e+00
  1.849920e+01    1.425562e+00
  1.851508e+01    1.420667e+00
  1.853095e+01    1.421429e+00
  1.854683e+01    1.405161e+00
  1.856270e+01    1.394193e+00
  1.857858e+01    1.393352e+00
  1.859445e+01    1.421020e+00
  1.861033e+01    1.425848e+00
  1.862620e+01    1.425647e+00
  1.864208e+01    1.419841e+00
  1.865796e+01    1.408564e+00
  1.867383e+01    1.389937e+00
  1.868971e+01    1.394804e+00
  1.870558e+01    1.369684e+00
  1.872146e+01    1.359387e+00
  1.873733e+01    1.371961e+00
  1.875321e+01    1.386539e+00
  1.876908e+01    1.380050e+00
  1.878496e+01    1.392386e+00
  1.880084e+01    1.395122e+00
  1.881671e+01    1.385020e+00
  1.883259e+01    1.374156e+00
  1.884846e+01    1.391933e+00
  1.886434e+01    1.415840e+00
  1.888021e+01    1.417812e+00
  1.889609e+01    1.401638e+00
  1.891196e+01    1.389346e+00
  1.892784e+01    1.380812e+00
  1.894372e+01    1.373122e+00
  1.895959e+01    1.364099e+00
  1.897547e+01    1.370343e+00
  1.899134e+01    1.367766e+00
  1.900722e+01    1.361872e+00
  1.902309e+01    1.401001e+00
  1.903897e+01    1.363571e+00
  1.905484e+01    1.345739e+00
  1.907072e+01    1.374500e+00
  1.908660e+01    1.359989e+00
  1.910247e+01    1.342602e+00
  1.911835e+01    1.346905e+00
  1.913422e+01    1.369791e+00
  1.915010e+01    1.362722e+00
  1.916597e+01    1.357617e+00
  1.918185e+01    1.348124e+00
  1.919773e+01    1.333151e+00
  1.921360e+01    1.336950e+00
  1.922948e+01    1.345866e+00
  1.924535e+01    1.351862e+00
  1.926123e+01    1.338882e+00
  1.927710e+01    1.332244e+00
  1.929298e+01    1.336428e+00
  1.930885e+01    1.310622e+00
  1.932473e+01    1.338292e+00
  1.934061e+01    1.362550e+00
  1.935648e+01    1.357529e+00
  1.937236e+01    1.341895e+00
  1.938823e+01    1.324260e+00
  1.940411e+01    1.339029e+00
  1.941998e+01    1.314538e+00
  1.943586e+01    1.308531e+00
  1.945173e+01    1.330520e+00
  1.946761e+01    1.344133e+00
  1.948349e+01    1.334225e+00
  1.949936e+01    1.320644e+00
  1.951524e+01    1.317373e+00
  1.953111e+01    1.332041e+00
  1.954699e+01    1.318808e+00
  1.956286e+01    1.305766e+00
  1.957874e+01    1.303368e+00
  1.959461e+01    1.304166e+00
  1.961049e+01    1.300189e+00
  1.962637e+01    1.301169e+00
  1.964224e+01    1.285422e+00
  1.965812e+01    1.281602e+00
  1.967399e+01    1.306049e+00
  1.968987e+01    1.321916e+00
  1.970574e+01    1.311705e+00
  1.972162e+01    1.288790e+00
  1.973749e+01    1.271637e+00
  1.975337e+01    1.289427e+00
  1.976925e+01    1.271176e+00
  1.978512e+01    1.253947e+00
  1.980100e+01    1.274363e+00
  1.981687e+01    1.285318e+00
  1.983275e+01    1.300157e+00
  1.984862e+01    1.309264e+00
  1.986450e+01    1.277668e+00
  1.988037e+01    1.277825e+00
  1.989625e+01    1.285835e+00
  1.991213e+01    1.300696e+00
  1.992800e+01    1.258185e+00
  1.994388e+01    1.254889e+00
  1.995975e+01    1.251472e+00
  1.997563e+01    1.258146e+00
  1.999150e+01    1.304552e+00
  2.000738e+01    1.273917e+00
  2.002325e+01    1.246829e+00
  2.003913e+01    1.236140e+00
  2.005501e+01    1.244166e+00
  2.007088e+01    1.286095e+00
  2.008676e+01    1.285884e+00
  2.010263e+01    1.257163e+00
  2.011851e+01    1.246498e+00
  2.013438e+01    1.269903e+00
  2.015026e+01    1.252331e+00
  2.016614e+01    1.266867e+00
  2.018201e+01    1.277890e+00
  2.019789e+01    1.224612e+00
  2.021376e+01    1.239571e+00
  2.022964e+01    1.252872e+00
  2.024551e+01    1.238560e+00
  2.026139e+01    1.249631e+00
  2.027726e+01    1.255038e+00
  2.029314e+01    1.249909e+00
  2.030902e+01    1.269370e+00
  2.032489e+01    1.248757e+00
  2.034077e+01    1.237214e+00
  2.035664e+01    1.229996e+00
  2.037252e+01    1.250427e+00
  2.038839e+01    1.253814e+00
  2.040427e+01    1.234186e+00
  2.042014e+01    1.224905e+00
  2.043602e+01    1.216729e+00
  2.045190e+01    1.221920e+00
  2.046777e+01    1.212896e+00
  2.048365e+01    1.219579e+00
  2.049952e+01    1.211863e+00
  2.051540e+01    1.233712e+00
  2.053127e+01    1.208014e+00
  2.054715e+01    1.213368e+00
  2.056302e+01    1.219242e+00
  2.057890e+01    1.218249e+00
  2.059478e+01    1.217618e+00
  2.061065e+01    1.224383e+00
  2.062653e+01    1.223920e+00
  2.064240e+01    1.212287e+00
  2.065828e+01    1.228599e+00
  2.067415e+01    1.219606e+00
  2.069003e+01    1.209999e+00
  2.070590e+01    1.221503e+00
  2.072178e+01    1.193740e+00
  2.073766e+01    1.216229e+00
  2.075353e+01    1.204010e+00
  2.076941e+01    1.216210e+00
  2.078528e+01    1.213572e+00
  2.080116e+01    1.217594e+00
  2.081703e+01    1.221025e+00
  2.083291e+01    1.212259e+00
  2.084878e+01    1.214110e+00
  2.086466e+01    1.218284e+00
  2.088054e+01    1.204102e+00
  2.089641e+01    1.212405e+00
  2.091229e+01    1.219718e+00
  2.092816e+01    1.209558e+00
  2.094404e+01    1.200972e+00
  2.095991e+01    1.197894e+00
  2.097579e+01    1.184942e+00
  2.099166e+01    1.176272e+00
  2.100754e+01    1.197725e+00
  2.102342e+01    1.191462e+00
  2.103929e+01    1.210055e+00
  2.105517e+01    1.217551e+00
  2.107104e+01    1.199676e+00
  2.108692e+01    1.233838e+00
  2.110279e+01    1.253012e+00
  2.111867e+01    1.210949e+00
  2.113455e+01    1.203166e+00
  2.115042e+01    1.219790e+00
  2.116630e+01    1.235655e+00
  2.118217e+01    1.215892e+00
  2.119805e+01    1.221171e+00
  2.121392e+01    1.241701e+00
  2.122980e+01    1.222538e+00
  2.124567e+01    1.211413e+00
  2.126155e+01    1.222848e+00
  2.127743e+01    1.206231e+00
  2.129330e+01    1.224717e+00
  2.130918e+01    1.258826e+00
  2.132505e+01    1.239111e+00
  2.134093e+01    1.249104e+00
  2.135680e+01    1.242305e+00
  2.137268e+01    1.260363e+00
  2.138855e+01    1.277689e+00
  2.140443e+01    1.320335e+00
  2.142031e+01    1.325835e+00
  2.143618e+01    1.347127e+00
  2.145206e+01    1.322055e+00
  2.146793e+01    1.327655e+00
  2.148381e+01    1.315715e+00
  2.149968e+01    1.366321e+00
  2.151556e+01    1.415157e+00
  2.153143e+01    1.455501e+00
  2.154731e+01    1.501688e+00
  2.156319e+01    1.519258e+00
  2.157906e+01    1.602724e+00
  2.159494e+01    1.706039e+00
  2.161081e+01    1.767922e+00
  2.162669e+01    1.858035e+00
  2.164256e+01    1.957724e+00
  2.165844e+01    2.117410e+00
  2.167431e+01    2.318810e+00
  2.169019e+01    2.474513e+00
  2.170607e+01    2.745334e+00
  2.172194e+01    3.095634e+00
  2.173782e+01    3.521954e+00
  2.175369e+01    3.979516e+00
  2.176957e+01    4.537779e+00
  2.178544e+01    5.157269e+00
  2.180132e+01    5.838048e+00
  2.181719e+01    6.479245e+00
  2.183307e+01    7.109758e+00
  2.184895e+01    7.789263e+00
  2.186482e+01    8.329221e+00
  2.188070e+01    8.689831e+00
  2.189657e+01    8.862572e+00
  2.191245e+01    8.666589e+00
  2.192832e+01    8.142477e+00
  2.194420e+01    7.422197e+00
  2.196007e+01    6.528479e+00
  2.197595e+01    5.606526e+00
  2.199183e+01    4.809928e+00
  2.200770e+01    4.104649e+00
  2.202358e+01    3.596779e+00
  2.203945e+01    3.144089e+00
  2.205533e+01    2.780636e+00
  2.207120e+01    2.521993e+00
  2.208708e+01    2.304624e+00
  2.210296e+01    2.128672e+00
  2.211883e+01    1.959836e+00
  2.213471e+01    1.821339e+00
  2.215058e+01    1.729804e+00
  2.216646e+01    1.641684e+00
  2.218233e+01    1.608613e+00
  2.219821e+01    1.533593e+00
  2.221408e+01    1.475306e+00
  2.222996e+01    1.425928e+00
  2.224584e+01    1.395107e+00
  2.226171e+01    1.356534e+00
  2.227759e+01    1.313777e+00
  2.229346e+01    1.270213e+00
  2.230934e+01    1.247028e+00
  2.232521e+01    1.265839e+00
  2.234109e+01    1.249344e+00
  2.235696e+01    1.222243e+00
  2.237284e+01    1.218387e+00
  2.238872e+01    1.206809e+00
  2.240459e+01    1.175901e+00
  2.242047e+01    1.188727e+00
  2.243634e+01    1.181468e+00
  2.245222e+01    1.138746e+00
  2.246809e+01    1.140837e+00
  2.248397e+01    1.140452e+00
  2.249984e+01    1.127592e+00
  2.251572e+01    1.123403e+00
  2.253160e+01    1.116591e+00
  2.254747e+01    1.099587e+00
  2.256335e+01    1.083033e+00
  2.257922e+01    1.102370e+00
  2.259510e+01    1.099710e+00
  2.261097e+01    1.095833e+00
  2.262685e+01    1.100533e+00
  2.264272e+01    1.095372e+00
  2.265860e+01    1.059549e+00
  2.267448e+01    1.080529e+00
  2.269035e+01    1.089966e+00
  2.270623e+01    1.073291e+00
  2.272210e+01    1.041563e+00
  2.273798e+01    1.060071e+00
  2.275385e+01    1.052864e+00
  2.276973e+01    1.037850e+00
  2.278560e+01    1.037339e+00
  2.280148e+01    1.062834e+00
  2.281736e+01    1.036644e+00
  2.283323e+01    1.026536e+00
  2.284911e+01    1.018244e+00
  2.286498e+01    1.025109e+00
  2.288086e+01    1.035109e+00
  2.289673e+01    1.006564e+00
  2.291261e+01    1.016168e+00
  2.292848e+01    1.016640e+00
  2.294436e+01    1.010969e+00
  2.296024e+01    1.006815e+00
  2.297611e+01    1.019036e+00
  2.299199e+01    1.000847e+00
  2.300786e+01    1.001521e+00
  2.302374e+01    1.017129e+00
  2.303961e+01    1.012214e+00
  2.305549e+01    1.010052e+00
  2.307137e+01    1.015439e+00
  2.308724e+01    1.007303e+00
  2.310312e+01    9.870749e-01
  2.311899e+01    9.746205e-01
  2.313487e+01    9.564829e-01
  2.315074e+01    9.686474e-01
  2.316662e+01    9.814825e-01
  2.318249e+01    9.921982e-01
  2.319837e+01    9.862252e-01
  2.321425e+01    9.768122e-01
  2.323012e+01    9.793217e-01
  2.324600e+01    9.788936e-01
  2.326187e+01    9.587409e-01
  2.327775e+01    9.540263e-01
  2.329362e+01    9.609941e-01
  2.330950e+01    9.662508e-01
  2.332537e+01    9.700645e-01
  2.334125e+01    9.590611e-01
  2.335713e+01    9.612402e-01
  2.337300e+01    9.665549e-01
  2.338888e+01    9.657432e-01
  2.340475e+01    9.570892e-01
  2.342063e+01    9.591151e-01
  2.343650e+01    9.380783e-01
  2.345238e+01    9.459982e-01
  2.346825e+01    9.356648e-01
  2.348413e+01    9.499440e-01
  2.350001e+01    9.593664e-01
  2.351588e+01    9.469483e-01
  2.353176e+01    9.269364e-01
  2.354763e+01    9.446912e-01
  2.356351e+01    9.666451e-01
  2.357938e+01    9.434387e-01
  2.359526e+01    9.199054e-01
  2.361113e+01    9.290122e-01
  2.362701e+01    9.363897e-01
  2.364289e+01    9.271153e-01
  2.365876e+01    9.438215e-01
  2.367464e+01    9.330074e-01
  2.369051e+01    9.381220e-01
  2.370639e+01    9.376832e-01
  2.372226e+01    9.269407e-01
  2.373814e+01    9.281727e-01
  2.375401e+01    9.195783e-01
  2.376989e+01    9.203750e-01
  2.378577e+01    9.076239e-01
  2.380164e+01    8.924362e-01
  2.381752e+01    8.982159e-01
  2.383339e+01    9.201177e-01
  2.384927e+01    9.174240e-01
  2.386514e+01    8.989788e-01
  2.388102e+01    9.042448e-01
  2.389689e+01    8.894849e-01
  2.391277e+01    8.936188e-01
  2.392865e+01    8.944947e-01
  2.394452e+01    8.806260e-01
  2.396040e+01    8.917924e-01
  2.397627e+01    9.048417e-01
  2.399215e+01    8.919261e-01
  2.400802e+01    8.829793e-01
  2.402390e+01    8.944770e-01
  2.403978e+01    8.963814e-01
  2.405565e+01    9.020464e-01
  2.407153e+01    8.956738e-01
  2.408740e+01    8.679902e-01
  2.410328e+01    8.677328e-01
  2.411915e+01    8.787627e-01
  2.413503e+01    8.650134e-01
  2.415090e+01    8.700644e-01
  2.416678e+01    8.695515e-01
  2.418266e+01    8.777999e-01
  2.419853e+01    8.625328e-01
  2.421441e+01    8.668297e-01
  2.423028e+01    8.740631e-01
  2.424616e+01    8.708469e-01
  2.426203e+01    8.822845e-01
  2.427791e+01    8.896604e-01
  2.429378e+01    8.719347e-01
  2.430966e+01    8.730886e-01
  2.432554e+01    8.705965e-01
  2.434141e+01    8.801791e-01
  2.435729e+01    8.626218e-01
  2.437316e+01    8.949733e-01
  2.438904e+01    8.865314e-01
  2.440491e+01    8.902181e-01
  2.442079e+01    8.767489e-01
  2.443666e+01    8.702630e-01
  2.445254e+01    8.633888e-01
  2.446842e+01    8.726052e-01
  2.448429e+01    8.836831e-01
  2.450017e+01    8.693724e-01
  2.451604e+01    8.857595e-01
  2.453192e+01    8.846585e-01
  2.454779e+01    8.950011e-01
  2.456367e+01    9.075060e-01
  2.457954e+01    8.881296e-01
  2.459542e+01    8.689490e-01
  2.461130e+01    8.735032e-01
  2.462717e+01    8.651919e-01
  2.464305e+01    8.682224e-01
  2.465892e+01    8.528377e-01
  2.467480e+01    8.655493e-01
  2.469067e+01    8.861440e-01
  2.470655e+01    8.878782e-01
  2.472242e+01    8.796369e-01
  2.473830e+01    8.696576e-01
  2.475418e+01    8.787473e-01
  2.477005e+01    8.868908e-01
  2.478593e+01    8.808555e-01
  2.480180e+01    8.837995e-01
  2.481768e+01    8.609229e-01
  2.483355e+01    8.686563e-01
  2.484943e+01    8.813825e-01
  2.486530e+01    8.873106e-01
  2.488118e+01    9.062045e-01
  2.489706e+01    8.823295e-01
  2.491293e+01    8.730767e-01
  2.492881e+01    8.815290e-01
  2.494468e+01    8.666406e-01
  2.496056e+01    8.778957e-01
  2.497643e+01    8.524277e-01
  2.499231e+01    8.618417e-01
  2.500819e+01    8.871145e-01
  2.502406e+01    8.895034e-01
  2.503994e+01    8.944018e-01
  2.505581e+01    9.146059e-01
  2.507169e+01    8.788800e-01
  2.508756e+01    8.612394e-01
  2.510344e+01    8.826039e-01
  2.511931e+01    8.965905e-01
  2.513519e+01    8.908939e-01
  2.515107e+01    8.988702e-01
  2.516694e+01    9.058530e-01
  2.518282e+01    9.096901e-01
  2.519869e+01    9.144371e-01
  2.521457e+01    9.164512e-01
  2.523044e+01    9.299750e-01
  2.524632e+01    9.289522e-01
  2.526219e+01    9.317089e-01
  2.527807e+01    9.301386e-01
  2.529395e+01    9.337460e-01
  2.530982e+01    9.522245e-01
  2.532570e+01    9.513244e-01
  2.534157e+01    9.642349e-01
  2.535745e+01    9.604678e-01
  2.537332e+01    9.654940e-01
  2.538920e+01    9.591481e-01
  2.540507e+01    9.877345e-01
  2.542095e+01    9.834294e-01
  2.543683e+01    9.917462e-01
  2.545270e+01    1.005546e+00
  2.546858e+01    1.013727e+00
  2.548445e+01    1.033127e+00
  2.550033e+01    1.038680e+00
  2.551620e+01    1.079895e+00
  2.553208e+01    1.098279e+00
  2.554795e+01    1.093993e+00
  2.556383e+01    1.114692e+00
  2.557971e+01    1.141233e+00
  2.559558e+01    1.197930e+00
  2.561146e+01    1.207621e+00
  2.562733e+01    1.230721e+00
  2.564321e+01    1.290662e+00
  2.565908e+01    1.328656e+00
  2.567496e+01    1.380678e+00
  2.569083e+01    1.493510e+00
  2.570671e+01    1.576428e+00
  2.572259e+01    1.687917e+00
  2.573846e+01    1.848947e+00
  2.575434e+01    2.013723e+00
  2.577021e+01    2.216272e+00
  2.578609e+01    2.474222e+00
  2.580196e+01    2.783046e+00
  2.581784e+01    3.158342e+00
  2.583371e+01    3.613322e+00
  2.584959e+01    4.096080e+00
  2.586547e+01    4.681666e+00
  2.588134e+01    5.293072e+00
  2.589722e+01    5.811714e+00
  2.591309e+01    6.264046e+00
  2.592897e+01    6.751365e+00
  2.594484e+01    7.071537e+00
  2.596072e+01    7.110619e+00
  2.597660e+01    6.888714e+00
  2.599247e+01    6.512449e+00
  2.600835e+01    5.917930e+00
  2.602422e+01    5.250495e+00
  2.604010e+01    4.561791e+00
  2.605597e+01    3.946520e+00
  2.607185e+01    3.433700e+00
  2.608772e+01    3.013956e+00
  2.610360e+01    2.627143e+00
  2.611948e+01    2.322875e+00
  2.613535e+01    2.108388e+00
  2.615123e+01    1.933272e+00
  2.616710e+01    1.796384e+00
  2.618298e+01    1.652119e+00
  2.619885e+01    1.541947e+00
  2.621473e+01    1.452519e+00
  2.623060e+01    1.367916e+00
  2.624648e+01    1.332359e+00
  2.626236e+01    1.278204e+00
  2.627823e+01    1.242421e+00
  2.629411e+01    1.181248e+00
  2.630998e+01    1.172321e+00
  2.632586e+01    1.161095e+00
  2.634173e+01    1.127696e+00
  2.635761e+01    1.115958e+00
  2.637348e+01    1.078782e+00
  2.638936e+01    1.061083e+00
  2.640524e+01    1.043252e+00
  2.642111e+01    1.019153e+00
  2.643699e+01    1.019803e+00
  2.645286e+01    1.016019e+00
  2.646874e+01    1.011035e+00
  2.648461e+01    1.010214e+00
  2.650049e+01    1.005545e+00
  2.651636e+01    1.008314e+00
  2.653224e+01    9.896337e-01
  2.654812e+01    9.963582e-01
  2.656399e+01    1.001060e+00
  2.657987e+01    9.911289e-01
  2.659574e+01    9.919146e-01
  2.661162e+01    9.739369e-01
  2.662749e+01    9.811518e-01
  2.664337e+01    9.806544e-01
  2.665924e+01    9.446836e-01
  2.667512e+01    9.440868e-01
  2.669100e+01    9.515121e-01
  2.670687e+01    9.516401e-01
  2.672275e+01    9.536871e-01
  2.673862e+01    9.756538e-01
  2.675450e+01    9.834391e-01
  2.677037e+01    9.684528e-01
  2.678625e+01    9.638101e-01
  2.680212e+01    9.670517e-01
  2.681800e+01    9.641833e-01
  2.683388e+01    9.552438e-01
  2.684975e+01    9.726579e-01
  2.686563e+01    9.682258e-01
  2.688150e+01    9.646959e-01
  2.689738e+01    9.833292e-01
  2.691325e+01    9.916147e-01
  2.692913e+01    9.856127e-01
  2.694501e+01    9.977890e-01
  2.696088e+01    1.040203e+00
  2.697676e+01    1.053894e+00
  2.699263e+01    1.054208e+00
  2.700851e+01    1.089287e+00
  2.702438e+01    1.148739e+00
  2.704026e+01    1.161720e+00
  2.705613e+01    1.225876e+00
  2.707201e+01    1.291406e+00
  2.708789e+01    1.350931e+00
  2.710376e+01    1.479521e+00
  2.711964e+01    1.603820e+00
  2.713551e+01    1.739535e+00
  2.715139e+01    1.840923e+00
  2.716726e+01    1.943094e+00
  2.718314e+01    2.064086e+00
  2.719901e+01    2.149684e+00
  2.721489e+01    2.137756e+00
  2.723077e+01    2.098592e+00
  2.724664e+01    2.016797e+00
  2.726252e+01    1.933354e+00
  2.727839e+01    1.805395e+00
  2.729427e+01    1.680900e+00
  2.731014e+01    1.560377e+00
  2.732602e+01    1.440076e+00
  2.734189e+01    1.355422e+00
  2.735777e+01    1.254582e+00
  2.737365e+01    1.211289e+00
  2.738952e+01    1.141476e+00
  2.740540e+01    1.102243e+00
  2.742127e+01    1.058454e+00
  2.743715e+01    1.060821e+00
  2.745302e+01    1.034831e+00
  2.746890e+01    1.013350e+00
  2.748477e+01    1.001576e+00
  2.750065e+01    9.659027e-01
  2.751653e+01    9.837496e-01
  2.753240e+01    9.594867e-01
  2.754828e+01    9.355374e-01
  2.756415e+01    9.197687e-01
  2.758003e+01    9.256007e-01
  2.759590e+01    9.394023e-01
  2.761178e+01    9.174944e-01
  2.762765e+01    9.072306e-01
  2.764353e+01    9.108227e-01
  2.765941e+01    9.315141e-01
  2.767528e+01    9.201000e-01
  2.769116e+01    8.942332e-01
  2.770703e+01    8.784653e-01
  2.772291e+01    8.681152e-01
  2.773878e+01    8.712903e-01
  2.775466e+01    8.811668e-01
  2.777054e+01    8.858991e-01
  2.778641e+01    8.812254e-01
  2.780229e+01    8.763276e-01
  2.781816e+01    8.617901e-01
  2.783404e+01    8.760090e-01
  2.784991e+01    8.707748e-01
  2.786579e+01    8.701144e-01
  2.788166e+01    8.355259e-01
  2.789754e+01    8.583768e-01
  2.791342e+01    8.711757e-01
  2.792929e+01    8.612394e-01
  2.794517e+01    8.552937e-01
  2.796104e+01    8.539817e-01
  2.797692e+01    8.641658e-01
  2.799279e+01    8.653878e-01
  2.800867e+01    8.639042e-01
  2.802454e+01    8.647041e-01
  2.804042e+01    8.777061e-01
  2.805630e+01    8.491628e-01
  2.807217e+01    8.401726e-01
  2.808805e+01    8.364697e-01
  2.810392e+01    8.622302e-01
  2.811980e+01    8.558415e-01
  2.813567e+01    8.606166e-01
  2.815155e+01    8.234268e-01
  2.816742e+01    8.165310e-01
  2.818330e+01    8.394525e-01
  2.819918e+01    8.407274e-01
  2.821505e+01    8.288756e-01
  2.823093e+01    8.412251e-01
  2.824680e+01    8.409618e-01
  2.826268e+01    8.268706e-01
  2.827855e+01    8.354186e-01
  2.829443e+01    8.456548e-01
  2.831030e+01    8.341836e-01
  2.832618e+01    8.507720e-01
  2.834206e+01    8.335310e-01
  2.835793e+01    8.283126e-01
  2.837381e+01    8.242835e-01
  2.838968e+01    8.498018e-01
  2.840556e+01    8.455018e-01
  2.842143e+01    8.335556e-01
  2.843731e+01    8.443526e-01
  2.845318e+01    8.407076e-01
  2.846906e+01    8.465431e-01
  2.848494e+01    8.572383e-01
  2.850081e+01    8.443912e-01
  2.851669e+01    8.181537e-01
  2.853256e+01    8.029257e-01
  2.854844e+01    7.997935e-01
  2.856431e+01    8.105263e-01
  2.858019e+01    8.244668e-01
  2.859606e+01    8.359095e-01
  2.861194e+01    8.206494e-01
  2.862782e+01    8.318397e-01
  2.864369e+01    8.399490e-01
  2.865957e+01    8.188026e-01
  2.867544e+01    8.187991e-01
  2.869132e+01    8.032773e-01
  2.870719e+01    8.076971e-01
  2.872307e+01    8.205256e-01
  2.873895e+01    8.317519e-01
  2.875482e+01    8.272854e-01
  2.877070e+01    8.097911e-01
  2.878657e+01    8.180509e-01
  2.880245e+01    8.325254e-01
  2.881832e+01    8.303769e-01
  2.883420e+01    8.389034e-01
  2.885007e+01    8.160632e-01
  2.886595e+01    8.152266e-01
  2.888183e+01    8.359472e-01
  2.889770e+01    8.183783e-01
  2.891358e+01    8.245227e-01
  2.892945e+01    8.317929e-01
  2.894533e+01    8.032492e-01
  2.896120e+01    8.041521e-01
  2.897708e+01    8.094636e-01
  2.899295e+01    7.730779e-01
  2.900883e+01    8.185170e-01
  2.902471e+01    8.234406e-01
  2.904058e+01    8.196697e-01
  2.905646e+01    8.071805e-01
  2.907233e+01    8.190078e-01
  2.908821e+01    7.972693e-01
  2.910408e+01    8.029545e-01
  2.911996e+01    8.208832e-01
  2.913583e+01    8.209001e-01
  2.915171e+01    8.145869e-01
  2.916759e+01    8.077502e-01
  2.918346e+01    7.969078e-01
  2.919934e+01    7.994440e-01
  2.921521e+01    8.125530e-01
  2.923109e+01    7.995914e-01
  2.924696e+01    7.984016e-01
  2.926284e+01    7.918243e-01
  2.927871e+01    7.998452e-01
  2.929459e+01    8.026898e-01
  2.931047e+01    8.092507e-01
  2.932634e+01    8.093904e-01
  2.934222e+01    7.915628e-01
  2.935809e+01    7.910404e-01
  2.937397e+01    7.891934e-01
  2.938984e+01    7.956703e-01
  2.940572e+01    7.968401e-01
  2.942159e+01    8.141292e-01
  2.943747e+01    8.027469e-01
  2.945335e+01    7.898694e-01
  2.946922e+01    8.098081e-01
  2.948510e+01    8.057803e-01
  2.950097e+01    8.009509e-01
  2.951685e+01    7.770023e-01
  2.953272e+01    7.843328e-01
  2.954860e+01    8.020113e-01
  2.956447e+01    8.177990e-01
  2.958035e+01    8.037849e-01
  2.959623e+01    7.987925e-01
  2.961210e+01    7.935616e-01
  2.962798e+01    7.666337e-01
  2.964385e+01    7.707533e-01
  2.965973e+01    7.897670e-01
  2.967560e+01    8.096722e-01
  2.969148e+01    7.960867e-01
  2.970736e+01    7.890809e-01
  2.972323e+01    7.915812e-01
  2.973911e+01    8.038756e-01
  2.975498e+01    7.879036e-01
  2.977086e+01    7.758150e-01
  2.978673e+01    7.794685e-01
  2.980261e+01    7.867444e-01
  2.981848e+01    7.759579e-01
  2.983436e+01    7.761371e-01
  2.985024e+01    7.645237e-01
  2.986611e+01    7.877174e-01
  2.988199e+01    7.817259e-01
  2.989786e+01    7.900953e-01
  2.991374e+01    7.969999e-01
  2.992961e+01    7.767180e-01
  2.994549e+01    7.843186e-01
  2.996136e+01    7.994897e-01
  2.997724e+01    7.829264e-01
  2.999312e+01    7.973692e-01
  3.000899e+01    7.966433e-01
  3.002487e+01    7.986283e-01
  3.004074e+01    8.053468e-01
  3.005662e+01    8.005140e-01
  3.007249e+01    7.882766e-01
  3.008837e+01    7.908694e-01
  3.010424e+01    8.008510e-01
  3.012012e+01    8.003563e-01
  3.013600e+01    7.969818e-01
  3.015187e+01    7.757016e-01
  3.016775e+01    7.746071e-01
  3.018362e+01    7.701429e-01
  3.019950e+01    7.834642e-01
  3.021537e+01    7.775101e-01
  3.023125e+01    7.502585e-01
  3.024712e+01    7.571311e-01
  3.026300e+01    7.764114e-01
  3.027888e+01    7.911514e-01
  3.029475e+01    7.671121e-01
  3.031063e+01    7.656018e-01
  3.032650e+01    7.813427e-01
  3.034238e+01    7.840177e-01
  3.035825e+01    7.717702e-01
  3.037413e+01    7.779176e-01
  3.039000e+01    7.813607e-01
  3.040588e+01    7.758468e-01
  3.042176e+01    7.823812e-01
  3.043763e+01    7.656614e-01
  3.045351e+01    7.544262e-01
  3.046938e+01    7.732673e-01
  3.048526e+01    7.849587e-01
  3.050113e+01    7.660778e-01
  3.051701e+01    7.641920e-01
  3.053288e+01    7.772973e-01
  3.054876e+01    7.773712e-01
  3.056464e+01    7.702149e-01
  3.058051e+01    7.663877e-01
  3.059639e+01    7.746480e-01
  3.061226e+01    7.793274e-01
  3.062814e+01    7.810022e-01
  3.064401e+01    7.720116e-01
  3.065989e+01    7.673382e-01
  3.067577e+01    7.801301e-01
  3.069164e+01    7.712043e-01
  3.070752e+01    7.849261e-01
  3.072339e+01    7.829250e-01
  3.073927e+01    7.661131e-01
  3.075514e+01    7.832800e-01
  3.077102e+01    7.878594e-01
  3.078689e+01    7.776839e-01
  3.080277e+01    7.460509e-01
  3.081865e+01    7.535180e-01
  3.083452e+01    7.535338e-01
  3.085040e+01    7.670875e-01
  3.086627e+01    7.853708e-01
  3.088215e+01    7.661600e-01
  3.089802e+01    7.708260e-01
  3.091390e+01    7.683119e-01
  3.092977e+01    7.679778e-01
  3.094565e+01    7.636955e-01
  3.096153e+01    7.770033e-01
  3.097740e+01    7.806157e-01
  3.099328e+01    7.760056e-01
  3.100915e+01    7.855516e-01
  3.102503e+01    7.661840e-01
  3.104090e+01    7.715771e-01
  3.105678e+01    7.755049e-01
  3.107265e+01    7.722616e-01
  3.108853e+01    7.697142e-01
  3.110441e+01    7.785140e-01
  3.112028e+01    8.159454e-01
  3.113616e+01    8.024553e-01
  3.115203e+01    7.752540e-01
  3.116791e+01    7.699131e-01
  3.118378e+01    7.873593e-01
  3.119966e+01    7.704424e-01
  3.121553e+01    7.683743e-01
  3.123141e+01    7.817242e-01
  3.124729e+01    7.708467e-01
  3.126316e+01    7.774724e-01
  3.127904e+01    7.750960e-01
  3.129491e+01    7.752839e-01
  3.131079e+01    7.821140e-01
  3.132666e+01    7.832832e-01
  3.134254e+01    8.088083e-01
  3.135841e+01    7.853198e-01
  3.137429e+01    7.639192e-01
  3.139017e+01    8.040692e-01
  3.140604e+01    7.940340e-01
  3.142192e+01    7.767110e-01
  3.143779e+01    7.849844e-01
  3.145367e+01    8.017297e-01
  3.146954e+01    7.956018e-01
  3.148542e+01    8.062606e-01
  3.150129e+01    8.278885e-01
  3.151717e+01    8.394476e-01
  3.153305e+01    8.244542e-01
  3.154892e+01    8.385466e-01
  3.156480e+01    8.678836e-01
  3.158067e+01    8.548690e-01
  3.159655e+01    8.854597e-01
  3.161242e+01    8.966629e-01
  3.162830e+01    8.676527e-01
  3.164418e+01    8.957277e-01
  3.166005e+01    9.247194e-01
  3.167593e+01    9.643677e-01
  3.169180e+01    9.846779e-01
  3.170768e+01    9.848761e-01
  3.172355e+01    1.024164e+00
  3.173943e+01    1.100349e+00
  3.175530e+01    1.178907e+00
  3.177118e+01    1.239446e+00
  3.178706e+01    1.311401e+00
  3.180293e+01    1.433599e+00
  3.181881e+01    1.551082e+00
  3.183468e+01    1.704005e+00
  3.185056e+01    1.825821e+00
  3.186643e+01    1.935753e+00
  3.188231e+01    2.002707e+00
  3.189818e+01    2.066166e+00
  3.191406e+01    2.060770e+00
  3.192994e+01    2.029274e+00
  3.194581e+01    1.934191e+00
  3.196169e+01    1.819187e+00
  3.197756e+01    1.654441e+00
  3.199344e+01    1.544461e+00
  3.200931e+01    1.412017e+00
  3.202519e+01    1.313496e+00
  3.204106e+01    1.211163e+00
  3.205694e+01    1.129793e+00
  3.207282e+01    1.100114e+00
  3.208869e+01    1.043665e+00
  3.210457e+01    1.010576e+00
  3.212044e+01    9.836679e-01
  3.213632e+01    9.426150e-01
  3.215219e+01    8.784879e-01
  3.216807e+01    8.927941e-01
  3.218394e+01    8.754776e-01
  3.219982e+01    8.733445e-01
  3.221570e+01    8.615357e-01
  3.223157e+01    8.405566e-01
  3.224745e+01    8.461041e-01
  3.226332e+01    8.273066e-01
  3.227920e+01    8.033709e-01
  3.229507e+01    7.916026e-01
  3.231095e+01    7.977520e-01
  3.232682e+01    8.101749e-01
  3.234270e+01    8.079139e-01
  3.235858e+01    7.970037e-01
  3.237445e+01    7.831150e-01
  3.239033e+01    7.594803e-01
  3.240620e+01    7.732000e-01
  3.242208e+01    7.773688e-01
  3.243795e+01    7.744841e-01
  3.245383e+01    7.667773e-01
  3.246970e+01    7.789501e-01
  3.248558e+01    7.856753e-01
  3.250146e+01    7.802557e-01
  3.251733e+01    7.804857e-01
  3.253321e+01    7.824575e-01
  3.254908e+01    7.469034e-01
