# == pyFAI calibration ==
# Distance Sample to Detector: 0.3999999939076516 m
# PONI: 9.750e-02, 1.135e-01 m
# Rotations: -0.000175 0.000000 -0.000000 rad
# 
# == Fit2d calibration ==
# Distance Sample-beamCenter: 400.000 mm
# Center: x=1514.000, y=1300.000 pix
# Tilt: 0.010 deg  TiltPlanRot: 0.010 deg
# 
# Detector Detector	 Spline= None	 PixelSize= 7.500e-05, 7.500e-05 m
#    Detector has a mask: False 
#    Detector has a dark current: False 
#    detector has a flat field: False 
# 
# Wavelength: 6.888e-11 m
# Mask applied: user provided
# Dark current applied: False
# Flat field applied: False
# Polarization factor: 0.99
# Normalization factor: 1.0
# --> /home/myspot/data/2024_07_Rosario/Ru-CGO-ex/2024-07-27_003_Ru-CGO-ex_Reaction_dwell_000023_data_000054.dat
#       q_nm^-1             I 
  2.003187e-02    0.000000e+00
  3.590745e-02    0.000000e+00
  5.178302e-02    7.387542e-02
  6.765859e-02    1.657322e-01
  8.353417e-02    2.055596e-01
  9.940974e-02    7.919901e-02
  1.152853e-01    6.501801e-02
  1.311609e-01    5.027018e-02
  1.470365e-01    5.630890e-02
  1.629120e-01    7.621270e-02
  1.787876e-01    2.378647e-02
  1.946632e-01    5.226080e-02
  2.105388e-01    4.695478e-02
  2.264143e-01    6.907476e-03
  2.422899e-01    1.455680e-02
  2.581655e-01    4.488036e-02
  2.740411e-01    3.528644e-02
  2.899166e-01    6.052294e-02
  3.057922e-01    6.580091e-02
  3.216678e-01    1.608884e-02
  3.375433e-01    5.828075e-02
  3.534189e-01    3.031189e-02
  3.692945e-01    3.374418e-02
  3.851701e-01    3.908150e-02
  4.010456e-01    3.846614e-02
  4.169212e-01    4.757812e-02
  4.327968e-01    2.735999e-02
  4.486724e-01    2.376955e-02
  4.645479e-01    3.129325e-02
  4.804235e-01    3.338734e-02
  4.962991e-01    3.929278e-02
  5.121747e-01    5.798285e-02
  5.280502e-01    4.293237e-02
  5.439258e-01    1.254242e-02
  5.598014e-01    3.111254e-02
  5.756770e-01    4.665501e-02
  5.915525e-01    3.593958e-02
  6.074281e-01    3.209146e-02
  6.233037e-01    4.737245e-02
  6.391793e-01    2.681270e-02
  6.550548e-01    3.748398e-02
  6.709304e-01    1.952859e-02
  6.868060e-01    3.697257e-02
  7.026815e-01    5.237169e-02
  7.185571e-01    1.806927e-02
  7.344327e-01    2.288002e-02
  7.503083e-01    8.304654e-02
  7.661838e-01    6.714209e-02
  7.820594e-01    1.241775e-01
  7.979350e-01    2.519187e-01
  8.138106e-01    2.792247e-01
  8.296861e-01    2.765539e-01
  8.455617e-01    3.545644e-01
  8.614373e-01    3.989379e-01
  8.773129e-01    4.599983e-01
  8.931884e-01    4.900514e-01
  9.090640e-01    6.561851e-01
  9.249396e-01    7.704000e-01
  9.408152e-01    7.739678e-01
  9.566907e-01    8.098148e-01
  9.725663e-01    1.003456e+00
  9.884419e-01    1.148341e+00
  1.004317e+00    1.083679e+00
  1.020193e+00    1.226504e+00
  1.036069e+00    1.283881e+00
  1.051944e+00    1.298274e+00
  1.067820e+00    1.356708e+00
  1.083695e+00    1.474412e+00
  1.099571e+00    1.461343e+00
  1.115446e+00    1.524718e+00
  1.131322e+00    1.682119e+00
  1.147198e+00    1.744615e+00
  1.163073e+00    1.801088e+00
  1.178949e+00    1.875691e+00
  1.194824e+00    1.834460e+00
  1.210700e+00    2.024696e+00
  1.226575e+00    2.243557e+00
  1.242451e+00    2.398717e+00
  1.258327e+00    2.503440e+00
  1.274202e+00    2.441270e+00
  1.290078e+00    2.543057e+00
  1.305953e+00    2.702826e+00
  1.321829e+00    2.693031e+00
  1.337705e+00    2.782865e+00
  1.353580e+00    2.730077e+00
  1.369456e+00    2.823515e+00
  1.385331e+00    2.979482e+00
  1.401207e+00    2.923079e+00
  1.417082e+00    2.947305e+00
  1.432958e+00    3.034473e+00
  1.448834e+00    3.025240e+00
  1.464709e+00    2.991004e+00
  1.480585e+00    3.045529e+00
  1.496460e+00    3.201343e+00
  1.512336e+00    3.018747e+00
  1.528211e+00    3.190045e+00
  1.544087e+00    3.268649e+00
  1.559963e+00    3.233374e+00
  1.575838e+00    3.159940e+00
  1.591714e+00    3.020840e+00
  1.607589e+00    2.941512e+00
  1.623465e+00    3.014630e+00
  1.639340e+00    3.160814e+00
  1.655216e+00    3.204058e+00
  1.671092e+00    3.179015e+00
  1.686967e+00    3.087158e+00
  1.702843e+00    2.934071e+00
  1.718718e+00    3.132886e+00
  1.734594e+00    3.230534e+00
  1.750469e+00    3.178360e+00
  1.766345e+00    3.016861e+00
  1.782221e+00    2.960272e+00
  1.798096e+00    2.985668e+00
  1.813972e+00    3.080241e+00
  1.829847e+00    3.134423e+00
  1.845723e+00    3.114828e+00
  1.861598e+00    3.029141e+00
  1.877474e+00    2.974175e+00
  1.893350e+00    3.102879e+00
  1.909225e+00    3.045125e+00
  1.925101e+00    3.077022e+00
  1.940976e+00    2.946672e+00
  1.956852e+00    2.995547e+00
  1.972727e+00    3.156483e+00
  1.988603e+00    3.118841e+00
  2.004479e+00    3.096656e+00
  2.020354e+00    2.987758e+00
  2.036230e+00    3.026354e+00
  2.052105e+00    3.088656e+00
  2.067981e+00    3.215605e+00
  2.083856e+00    3.144717e+00
  2.099732e+00    3.102703e+00
  2.115608e+00    3.151086e+00
  2.131483e+00    2.938755e+00
  2.147359e+00    2.986197e+00
  2.163234e+00    3.088572e+00
  2.179110e+00    3.080594e+00
  2.194985e+00    3.094199e+00
  2.210861e+00    3.101125e+00
  2.226737e+00    3.086775e+00
  2.242612e+00    3.090712e+00
  2.258488e+00    3.177032e+00
  2.274363e+00    3.164004e+00
  2.290239e+00    3.050062e+00
  2.306115e+00    3.101231e+00
  2.321990e+00    3.125829e+00
  2.337866e+00    3.167154e+00
  2.353741e+00    3.099147e+00
  2.369617e+00    3.133425e+00
  2.385492e+00    3.171059e+00
  2.401368e+00    3.260124e+00
  2.417244e+00    3.220833e+00
  2.433119e+00    3.192714e+00
  2.448995e+00    3.132844e+00
  2.464870e+00    3.159839e+00
  2.480746e+00    3.165765e+00
  2.496621e+00    3.111456e+00
  2.512497e+00    3.185514e+00
  2.528373e+00    3.295099e+00
  2.544248e+00    3.200045e+00
  2.560124e+00    3.185476e+00
  2.575999e+00    3.213408e+00
  2.591875e+00    3.217567e+00
  2.607750e+00    3.185604e+00
  2.623626e+00    3.221489e+00
  2.639502e+00    3.178054e+00
  2.655377e+00    3.216877e+00
  2.671253e+00    3.279340e+00
  2.687128e+00    3.258459e+00
  2.703004e+00    3.239835e+00
  2.718879e+00    3.188098e+00
  2.734755e+00    3.223276e+00
  2.750631e+00    3.159189e+00
  2.766506e+00    3.312126e+00
  2.782382e+00    3.314634e+00
  2.798257e+00    3.223228e+00
  2.814133e+00    3.178523e+00
  2.830008e+00    3.255867e+00
  2.845884e+00    3.245352e+00
  2.861760e+00    3.296147e+00
  2.877635e+00    3.293493e+00
  2.893511e+00    3.200799e+00
  2.909386e+00    3.231382e+00
  2.925262e+00    3.299005e+00
  2.941137e+00    3.266713e+00
  2.957013e+00    3.355365e+00
  2.972889e+00    3.300463e+00
  2.988764e+00    3.316464e+00
  3.004640e+00    3.246786e+00
  3.020515e+00    3.305518e+00
  3.036391e+00    3.426113e+00
  3.052266e+00    3.378439e+00
  3.068142e+00    3.292148e+00
  3.084018e+00    3.406699e+00
  3.099893e+00    3.404809e+00
  3.115769e+00    3.413508e+00
  3.131644e+00    3.382193e+00
  3.147520e+00    3.396076e+00
  3.163395e+00    3.383750e+00
  3.179271e+00    3.439333e+00
  3.195147e+00    3.429880e+00
  3.211022e+00    3.435942e+00
  3.226898e+00    3.377777e+00
  3.242773e+00    3.382674e+00
  3.258649e+00    3.325101e+00
  3.274525e+00    3.439708e+00
  3.290400e+00    3.437891e+00
  3.306276e+00    3.412086e+00
  3.322151e+00    3.441468e+00
  3.338027e+00    3.374513e+00
  3.353902e+00    3.397405e+00
  3.369778e+00    3.519013e+00
  3.385654e+00    3.423197e+00
  3.401529e+00    3.348330e+00
  3.417405e+00    3.443370e+00
  3.433280e+00    3.442304e+00
  3.449156e+00    3.312509e+00
  3.465031e+00    3.375890e+00
  3.480907e+00    3.437936e+00
  3.496783e+00    3.515706e+00
  3.512658e+00    3.462964e+00
  3.528534e+00    3.392132e+00
  3.544409e+00    3.410575e+00
  3.560285e+00    3.513188e+00
  3.576160e+00    3.503966e+00
  3.592036e+00    3.465699e+00
  3.607912e+00    3.384583e+00
  3.623787e+00    3.432145e+00
  3.639663e+00    3.518435e+00
  3.655538e+00    3.476003e+00
  3.671414e+00    3.451302e+00
  3.687289e+00    3.375479e+00
  3.703165e+00    3.340826e+00
  3.719041e+00    3.446285e+00
  3.734916e+00    3.514078e+00
  3.750792e+00    3.568703e+00
  3.766667e+00    3.640157e+00
  3.782543e+00    3.565475e+00
  3.798418e+00    3.608791e+00
  3.814294e+00    3.517755e+00
  3.830170e+00    3.387908e+00
  3.846045e+00    3.434249e+00
  3.861921e+00    3.533008e+00
  3.877796e+00    3.528024e+00
  3.893672e+00    3.525943e+00
  3.909547e+00    3.594767e+00
  3.925423e+00    3.596727e+00
  3.941299e+00    3.507636e+00
  3.957174e+00    3.487346e+00
  3.973050e+00    3.477246e+00
  3.988925e+00    3.452928e+00
  4.004801e+00    3.481222e+00
  4.020676e+00    3.563629e+00
  4.036552e+00    3.490383e+00
  4.052428e+00    3.504741e+00
  4.068303e+00    3.538346e+00
  4.084179e+00    3.535790e+00
  4.100054e+00    3.593125e+00
  4.115930e+00    3.633427e+00
  4.131806e+00    3.625922e+00
  4.147681e+00    3.626294e+00
  4.163557e+00    3.625805e+00
  4.179432e+00    3.637293e+00
  4.195308e+00    3.652428e+00
  4.211183e+00    3.594047e+00
  4.227059e+00    3.534051e+00
  4.242935e+00    3.483176e+00
  4.258810e+00    3.599644e+00
  4.274686e+00    3.652834e+00
  4.290561e+00    3.566961e+00
  4.306437e+00    3.549244e+00
  4.322312e+00    3.609438e+00
  4.338188e+00    3.587048e+00
  4.354064e+00    3.544971e+00
  4.369939e+00    3.616644e+00
  4.385815e+00    3.713439e+00
  4.401690e+00    3.685131e+00
  4.417566e+00    3.623863e+00
  4.433441e+00    3.622937e+00
  4.449317e+00    3.605239e+00
  4.465193e+00    3.592233e+00
  4.481068e+00    3.509302e+00
  4.496944e+00    3.515760e+00
  4.512819e+00    3.691808e+00
  4.528695e+00    3.614061e+00
  4.544570e+00    3.538849e+00
  4.560446e+00    3.629483e+00
  4.576322e+00    3.632349e+00
  4.592197e+00    3.607403e+00
  4.608073e+00    3.599869e+00
  4.623948e+00    3.569508e+00
  4.639824e+00    3.518530e+00
  4.655699e+00    3.512406e+00
  4.671575e+00    3.577059e+00
  4.687451e+00    3.611474e+00
  4.703326e+00    3.540149e+00
  4.719202e+00    3.565431e+00
  4.735077e+00    3.628487e+00
  4.750953e+00    3.654827e+00
  4.766828e+00    3.664355e+00
  4.782704e+00    3.637438e+00
  4.798580e+00    3.595273e+00
  4.814455e+00    3.569972e+00
  4.830331e+00    3.593998e+00
  4.846206e+00    3.656084e+00
  4.862082e+00    3.662272e+00
  4.877957e+00    3.682009e+00
  4.893833e+00    3.608320e+00
  4.909709e+00    3.645402e+00
  4.925584e+00    3.696063e+00
  4.941460e+00    3.727528e+00
  4.957335e+00    3.701021e+00
  4.973211e+00    3.666430e+00
  4.989086e+00    3.680744e+00
  5.004962e+00    3.663621e+00
  5.020838e+00    3.642453e+00
  5.036713e+00    3.678047e+00
  5.052589e+00    3.653102e+00
  5.068464e+00    3.626410e+00
  5.084340e+00    3.593488e+00
  5.100216e+00    3.638789e+00
  5.116091e+00    3.653416e+00
  5.131967e+00    3.690989e+00
  5.147842e+00    3.670557e+00
  5.163718e+00    3.631345e+00
  5.179593e+00    3.623440e+00
  5.195469e+00    3.585606e+00
  5.211345e+00    3.606515e+00
  5.227220e+00    3.671502e+00
  5.243096e+00    3.651704e+00
  5.258971e+00    3.642269e+00
  5.274847e+00    3.689619e+00
  5.290722e+00    3.655819e+00
  5.306598e+00    3.636709e+00
  5.322474e+00    3.602201e+00
  5.338349e+00    3.592554e+00
  5.354225e+00    3.620502e+00
  5.370100e+00    3.653083e+00
  5.385976e+00    3.687100e+00
  5.401851e+00    3.631516e+00
  5.417727e+00    3.631673e+00
  5.433603e+00    3.586627e+00
  5.449478e+00    3.667778e+00
  5.465354e+00    3.719296e+00
  5.481229e+00    3.621280e+00
  5.497105e+00    3.499607e+00
  5.512980e+00    3.466865e+00
  5.528856e+00    3.593018e+00
  5.544732e+00    3.621217e+00
  5.560607e+00    3.610676e+00
  5.576483e+00    3.589759e+00
  5.592358e+00    3.607989e+00
  5.608234e+00    3.639375e+00
  5.624109e+00    3.602618e+00
  5.639985e+00    3.555983e+00
  5.655861e+00    3.565811e+00
  5.671736e+00    3.603773e+00
  5.687612e+00    3.569318e+00
  5.703487e+00    3.555248e+00
  5.719363e+00    3.567100e+00
  5.735238e+00    3.617806e+00
  5.751114e+00    3.567851e+00
  5.766990e+00    3.578146e+00
  5.782865e+00    3.603790e+00
  5.798741e+00    3.530121e+00
  5.814616e+00    3.597027e+00
  5.830492e+00    3.583027e+00
  5.846367e+00    3.558635e+00
  5.862243e+00    3.492451e+00
  5.878119e+00    3.567472e+00
  5.893994e+00    3.677293e+00
  5.909870e+00    3.604857e+00
  5.925745e+00    3.586112e+00
  5.941621e+00    3.591569e+00
  5.957497e+00    3.599590e+00
  5.973372e+00    3.529606e+00
  5.989248e+00    3.533118e+00
  6.005123e+00    3.517895e+00
  6.020999e+00    3.509016e+00
  6.036874e+00    3.468590e+00
  6.052750e+00    3.532338e+00
  6.068626e+00    3.642884e+00
  6.084501e+00    3.610525e+00
  6.100377e+00    3.599405e+00
  6.116252e+00    3.653855e+00
  6.132128e+00    3.588971e+00
  6.148003e+00    3.626029e+00
  6.163879e+00    3.636223e+00
  6.179755e+00    3.606776e+00
  6.195630e+00    3.596632e+00
  6.211506e+00    3.574448e+00
  6.227381e+00    3.613380e+00
  6.243257e+00    3.564144e+00
  6.259132e+00    3.550491e+00
  6.275008e+00    3.551793e+00
  6.290884e+00    3.517776e+00
  6.306759e+00    3.587955e+00
  6.322635e+00    3.554086e+00
  6.338510e+00    3.480272e+00
  6.354386e+00    3.511095e+00
  6.370261e+00    3.514219e+00
  6.386137e+00    3.566012e+00
  6.402013e+00    3.605609e+00
  6.417888e+00    3.589414e+00
  6.433764e+00    3.650228e+00
  6.449639e+00    3.594548e+00
  6.465515e+00    3.540167e+00
  6.481390e+00    3.515552e+00
  6.497266e+00    3.477197e+00
  6.513142e+00    3.536652e+00
  6.529017e+00    3.556384e+00
  6.544893e+00    3.568513e+00
  6.560768e+00    3.655742e+00
  6.576644e+00    3.569522e+00
  6.592519e+00    3.596209e+00
  6.608395e+00    3.582741e+00
  6.624271e+00    3.515769e+00
  6.640146e+00    3.474929e+00
  6.656022e+00    3.591798e+00
  6.671897e+00    3.546930e+00
  6.687773e+00    3.512349e+00
  6.703648e+00    3.496518e+00
  6.719524e+00    3.573369e+00
  6.735400e+00    3.526628e+00
  6.751275e+00    3.548676e+00
  6.767151e+00    3.494737e+00
  6.783026e+00    3.553939e+00
  6.798902e+00    3.567970e+00
  6.814777e+00    3.548316e+00
  6.830653e+00    3.533636e+00
  6.846529e+00    3.597800e+00
  6.862404e+00    3.549258e+00
  6.878280e+00    3.568710e+00
  6.894155e+00    3.539046e+00
  6.910031e+00    3.538564e+00
  6.925907e+00    3.586678e+00
  6.941782e+00    3.529431e+00
  6.957658e+00    3.511215e+00
  6.973533e+00    3.471224e+00
  6.989409e+00    3.511603e+00
  7.005284e+00    3.508708e+00
  7.021160e+00    3.546705e+00
  7.037036e+00    3.583577e+00
  7.052911e+00    3.580792e+00
  7.068787e+00    3.580093e+00
  7.084662e+00    3.554764e+00
  7.100538e+00    3.478691e+00
  7.116413e+00    3.497689e+00
  7.132289e+00    3.514373e+00
  7.148165e+00    3.528605e+00
  7.164040e+00    3.444516e+00
  7.179916e+00    3.456898e+00
  7.195791e+00    3.501385e+00
  7.211667e+00    3.498322e+00
  7.227542e+00    3.566542e+00
  7.243418e+00    3.551076e+00
  7.259294e+00    3.575150e+00
  7.275169e+00    3.566379e+00
  7.291045e+00    3.546533e+00
  7.306920e+00    3.581956e+00
  7.322796e+00    3.513272e+00
  7.338671e+00    3.551176e+00
  7.354547e+00    3.579091e+00
  7.370423e+00    3.414784e+00
  7.386298e+00    3.467804e+00
  7.402174e+00    3.505609e+00
  7.418049e+00    3.524582e+00
  7.433925e+00    3.558324e+00
  7.449800e+00    3.550632e+00
  7.465676e+00    3.549998e+00
  7.481552e+00    3.551701e+00
  7.497427e+00    3.414497e+00
  7.513303e+00    3.533259e+00
  7.529178e+00    3.540741e+00
  7.545054e+00    3.508169e+00
  7.560929e+00    3.546041e+00
  7.576805e+00    3.472895e+00
  7.592681e+00    3.545919e+00
  7.608556e+00    3.478223e+00
  7.624432e+00    3.447599e+00
  7.640307e+00    3.493679e+00
  7.656183e+00    3.546557e+00
  7.672058e+00    3.481288e+00
  7.687934e+00    3.437188e+00
  7.703810e+00    3.370780e+00
  7.719685e+00    3.439598e+00
  7.735561e+00    3.519015e+00
  7.751436e+00    3.529036e+00
  7.767312e+00    3.450383e+00
  7.783187e+00    3.370876e+00
  7.799063e+00    3.391728e+00
  7.814939e+00    3.390184e+00
  7.830814e+00    3.380687e+00
  7.846690e+00    3.384767e+00
  7.862565e+00    3.424972e+00
  7.878441e+00    3.436602e+00
  7.894317e+00    3.400409e+00
  7.910192e+00    3.440395e+00
  7.926068e+00    3.480575e+00
  7.941943e+00    3.485887e+00
  7.957819e+00    3.440600e+00
  7.973694e+00    3.476544e+00
  7.989570e+00    3.385029e+00
  8.005446e+00    3.332689e+00
  8.021321e+00    3.452820e+00
  8.037197e+00    3.465750e+00
  8.053072e+00    3.403157e+00
  8.068948e+00    3.315748e+00
  8.084823e+00    3.385953e+00
  8.100699e+00    3.449005e+00
  8.116575e+00    3.481881e+00
  8.132450e+00    3.499025e+00
  8.148326e+00    3.528370e+00
  8.164201e+00    3.439317e+00
  8.180077e+00    3.383473e+00
  8.195952e+00    3.470919e+00
  8.211828e+00    3.442585e+00
  8.227704e+00    3.454411e+00
  8.243579e+00    3.476271e+00
  8.259455e+00    3.327383e+00
  8.275330e+00    3.330261e+00
  8.291206e+00    3.394656e+00
  8.307081e+00    3.444861e+00
  8.322957e+00    3.464015e+00
  8.338833e+00    3.464204e+00
  8.354708e+00    3.420552e+00
  8.370584e+00    3.442085e+00
  8.386459e+00    3.407594e+00
  8.402335e+00    3.443677e+00
  8.418210e+00    3.404678e+00
  8.434086e+00    3.411613e+00
  8.449962e+00    3.456900e+00
  8.465837e+00    3.408798e+00
  8.481713e+00    3.339568e+00
  8.497588e+00    3.369679e+00
  8.513464e+00    3.420274e+00
  8.529339e+00    3.347372e+00
  8.545215e+00    3.341808e+00
  8.561091e+00    3.355474e+00
  8.576966e+00    3.419825e+00
  8.592842e+00    3.375790e+00
  8.608717e+00    3.348079e+00
  8.624593e+00    3.374768e+00
  8.640468e+00    3.387775e+00
  8.656344e+00    3.322434e+00
  8.672220e+00    3.291802e+00
  8.688095e+00    3.323964e+00
  8.703971e+00    3.314253e+00
  8.719846e+00    3.318005e+00
  8.735722e+00    3.338996e+00
  8.751598e+00    3.351458e+00
  8.767473e+00    3.279076e+00
  8.783349e+00    3.277905e+00
  8.799224e+00    3.291200e+00
  8.815100e+00    3.328563e+00
  8.830975e+00    3.298004e+00
  8.846851e+00    3.299269e+00
  8.862727e+00    3.358308e+00
  8.878602e+00    3.324778e+00
  8.894478e+00    3.305423e+00
  8.910353e+00    3.281254e+00
  8.926229e+00    3.266952e+00
  8.942104e+00    3.308306e+00
  8.957980e+00    3.308317e+00
  8.973856e+00    3.320230e+00
  8.989731e+00    3.295856e+00
  9.005607e+00    3.283106e+00
  9.021482e+00    3.280018e+00
  9.037358e+00    3.310010e+00
  9.053233e+00    3.233475e+00
  9.069109e+00    3.254099e+00
  9.084985e+00    3.260590e+00
  9.100860e+00    3.243789e+00
  9.116736e+00    3.272877e+00
  9.132611e+00    3.228450e+00
  9.148487e+00    3.231021e+00
  9.164362e+00    3.304055e+00
  9.180238e+00    3.234439e+00
  9.196114e+00    3.201724e+00
  9.211989e+00    3.217760e+00
  9.227865e+00    3.183468e+00
  9.243740e+00    3.237273e+00
  9.259616e+00    3.252858e+00
  9.275491e+00    3.263770e+00
  9.291367e+00    3.196420e+00
  9.307243e+00    3.112870e+00
  9.323118e+00    3.199139e+00
  9.338994e+00    3.241404e+00
  9.354869e+00    3.218441e+00
  9.370745e+00    3.206449e+00
  9.386620e+00    3.227833e+00
  9.402496e+00    3.261760e+00
  9.418372e+00    3.277301e+00
  9.434247e+00    3.200807e+00
  9.450123e+00    3.203175e+00
  9.465998e+00    3.261022e+00
  9.481874e+00    3.232233e+00
  9.497749e+00    3.199170e+00
  9.513625e+00    3.163266e+00
  9.529501e+00    3.208557e+00
  9.545376e+00    3.265806e+00
  9.561252e+00    3.210078e+00
  9.577127e+00    3.174250e+00
  9.593003e+00    3.216125e+00
  9.608878e+00    3.203524e+00
  9.624754e+00    3.214411e+00
  9.640630e+00    3.235280e+00
  9.656505e+00    3.182063e+00
  9.672381e+00    3.163318e+00
  9.688256e+00    3.168411e+00
  9.704132e+00    3.196928e+00
  9.720008e+00    3.157866e+00
  9.735883e+00    3.161640e+00
  9.751759e+00    3.140143e+00
  9.767634e+00    3.159694e+00
  9.783510e+00    3.165609e+00
  9.799385e+00    3.165190e+00
  9.815261e+00    3.176981e+00
  9.831137e+00    3.163523e+00
  9.847012e+00    3.125307e+00
  9.862888e+00    3.138641e+00
  9.878763e+00    3.087095e+00
  9.894639e+00    3.133708e+00
  9.910514e+00    3.137717e+00
  9.926390e+00    3.126394e+00
  9.942266e+00    3.087876e+00
  9.958141e+00    3.112893e+00
  9.974017e+00    3.099810e+00
  9.989892e+00    3.146204e+00
  1.000577e+01    3.129874e+00
  1.002164e+01    3.118088e+00
  1.003752e+01    3.084008e+00
  1.005339e+01    3.083012e+00
  1.006927e+01    3.125572e+00
  1.008515e+01    3.122580e+00
  1.010102e+01    3.131430e+00
  1.011690e+01    3.107961e+00
  1.013277e+01    3.143906e+00
  1.014865e+01    3.151619e+00
  1.016452e+01    3.053393e+00
  1.018040e+01    3.006391e+00
  1.019627e+01    3.065479e+00
  1.021215e+01    3.091057e+00
  1.022803e+01    3.069473e+00
  1.024390e+01    3.028666e+00
  1.025978e+01    3.061802e+00
  1.027565e+01    2.987383e+00
  1.029153e+01    2.982139e+00
  1.030740e+01    3.042880e+00
  1.032328e+01    3.101786e+00
  1.033915e+01    3.077174e+00
  1.035503e+01    2.992743e+00
  1.037091e+01    3.019022e+00
  1.038678e+01    3.026430e+00
  1.040266e+01    3.042862e+00
  1.041853e+01    2.995385e+00
  1.043441e+01    2.970674e+00
  1.045028e+01    3.040564e+00
  1.046616e+01    2.989054e+00
  1.048204e+01    3.009400e+00
  1.049791e+01    3.010438e+00
  1.051379e+01    3.008251e+00
  1.052966e+01    3.005785e+00
  1.054554e+01    3.039497e+00
  1.056141e+01    3.019976e+00
  1.057729e+01    2.951523e+00
  1.059316e+01    2.997573e+00
  1.060904e+01    2.997380e+00
  1.062492e+01    3.041703e+00
  1.064079e+01    3.044201e+00
  1.065667e+01    2.984933e+00
  1.067254e+01    2.965464e+00
  1.068842e+01    3.041195e+00
  1.070429e+01    2.997249e+00
  1.072017e+01    2.967371e+00
  1.073604e+01    2.930139e+00
  1.075192e+01    2.898366e+00
  1.076780e+01    2.945511e+00
  1.078367e+01    2.983279e+00
  1.079955e+01    2.958795e+00
  1.081542e+01    2.979777e+00
  1.083130e+01    2.952110e+00
  1.084717e+01    2.915880e+00
  1.086305e+01    2.925365e+00
  1.087892e+01    2.978992e+00
  1.089480e+01    2.893286e+00
  1.091068e+01    2.863213e+00
  1.092655e+01    2.886712e+00
  1.094243e+01    2.895365e+00
  1.095830e+01    2.912482e+00
  1.097418e+01    2.905919e+00
  1.099005e+01    2.893817e+00
  1.100593e+01    2.921079e+00
  1.102180e+01    2.908345e+00
  1.103768e+01    2.919546e+00
  1.105356e+01    2.927262e+00
  1.106943e+01    2.896575e+00
  1.108531e+01    2.850734e+00
  1.110118e+01    2.893509e+00
  1.111706e+01    2.901298e+00
  1.113293e+01    2.865945e+00
  1.114881e+01    2.886851e+00
  1.116468e+01    2.869390e+00
  1.118056e+01    2.849519e+00
  1.119644e+01    2.883426e+00
  1.121231e+01    2.812445e+00
  1.122819e+01    2.856415e+00
  1.124406e+01    2.823052e+00
  1.125994e+01    2.817408e+00
  1.127581e+01    2.825150e+00
  1.129169e+01    2.842293e+00
  1.130756e+01    2.853897e+00
  1.132344e+01    2.826320e+00
  1.133932e+01    2.854959e+00
  1.135519e+01    2.873520e+00
  1.137107e+01    2.868814e+00
  1.138694e+01    2.813584e+00
  1.140282e+01    2.800144e+00
  1.141869e+01    2.773371e+00
  1.143457e+01    2.772676e+00
  1.145045e+01    2.779524e+00
  1.146632e+01    2.829989e+00
  1.148220e+01    2.839796e+00
  1.149807e+01    2.820479e+00
  1.151395e+01    2.767768e+00
  1.152982e+01    2.807039e+00
  1.154570e+01    2.757886e+00
  1.156157e+01    2.780874e+00
  1.157745e+01    2.765942e+00
  1.159333e+01    2.759416e+00
  1.160920e+01    2.783607e+00
  1.162508e+01    2.791668e+00
  1.164095e+01    2.791803e+00
  1.165683e+01    2.719209e+00
  1.167270e+01    2.737679e+00
  1.168858e+01    2.765113e+00
  1.170445e+01    2.796688e+00
  1.172033e+01    2.791071e+00
  1.173621e+01    2.743299e+00
  1.175208e+01    2.775149e+00
  1.176796e+01    2.748666e+00
  1.178383e+01    2.734483e+00
  1.179971e+01    2.761047e+00
  1.181558e+01    2.763222e+00
  1.183146e+01    2.731358e+00
  1.184733e+01    2.692697e+00
  1.186321e+01    2.756025e+00
  1.187909e+01    2.733065e+00
  1.189496e+01    2.778393e+00
  1.191084e+01    2.746459e+00
  1.192671e+01    2.716669e+00
  1.194259e+01    2.756311e+00
  1.195846e+01    2.729682e+00
  1.197434e+01    2.693303e+00
  1.199021e+01    2.734345e+00
  1.200609e+01    2.695661e+00
  1.202197e+01    2.697027e+00
  1.203784e+01    2.746270e+00
  1.205372e+01    2.696947e+00
  1.206959e+01    2.690183e+00
  1.208547e+01    2.717842e+00
  1.210134e+01    2.666349e+00
  1.211722e+01    2.671140e+00
  1.213309e+01    2.707388e+00
  1.214897e+01    2.727474e+00
  1.216485e+01    2.675837e+00
  1.218072e+01    2.669243e+00
  1.219660e+01    2.728973e+00
  1.221247e+01    2.659149e+00
  1.222835e+01    2.679615e+00
  1.224422e+01    2.699093e+00
  1.226010e+01    2.665759e+00
  1.227597e+01    2.677779e+00
  1.229185e+01    2.687982e+00
  1.230773e+01    2.694649e+00
  1.232360e+01    2.706166e+00
  1.233948e+01    2.729784e+00
  1.235535e+01    2.713357e+00
  1.237123e+01    2.707943e+00
  1.238710e+01    2.743581e+00
  1.240298e+01    2.728660e+00
  1.241886e+01    2.713079e+00
  1.243473e+01    2.691834e+00
  1.245061e+01    2.708188e+00
  1.246648e+01    2.677546e+00
  1.248236e+01    2.679865e+00
  1.249823e+01    2.623689e+00
  1.251411e+01    2.678247e+00
  1.252998e+01    2.705716e+00
  1.254586e+01    2.702875e+00
  1.256174e+01    2.694335e+00
  1.257761e+01    2.762386e+00
  1.259349e+01    2.765791e+00
  1.260936e+01    2.779315e+00
  1.262524e+01    2.748207e+00
  1.264111e+01    2.775969e+00
  1.265699e+01    2.754667e+00
  1.267286e+01    2.759956e+00
  1.268874e+01    2.788763e+00
  1.270462e+01    2.814521e+00
  1.272049e+01    2.830673e+00
  1.273637e+01    2.844723e+00
  1.275224e+01    2.884726e+00
  1.276812e+01    2.929475e+00
  1.278399e+01    2.976373e+00
  1.279987e+01    3.003871e+00
  1.281574e+01    3.064912e+00
  1.283162e+01    3.121649e+00
  1.284750e+01    3.188715e+00
  1.286337e+01    3.254402e+00
  1.287925e+01    3.356533e+00
  1.289512e+01    3.466342e+00
  1.291100e+01    3.646309e+00
  1.292687e+01    3.825543e+00
  1.294275e+01    4.081954e+00
  1.295862e+01    4.404767e+00
  1.297450e+01    4.724147e+00
  1.299038e+01    5.203459e+00
  1.300625e+01    5.846346e+00
  1.302213e+01    6.590303e+00
  1.303800e+01    7.490380e+00
  1.305388e+01    8.693258e+00
  1.306975e+01    1.005818e+01
  1.308563e+01    1.129311e+01
  1.310150e+01    1.251321e+01
  1.311738e+01    1.368790e+01
  1.313326e+01    1.466849e+01
  1.314913e+01    1.548262e+01
  1.316501e+01    1.610357e+01
  1.318088e+01    1.614136e+01
  1.319676e+01    1.566096e+01
  1.321263e+01    1.435353e+01
  1.322851e+01    1.248839e+01
  1.324438e+01    1.072666e+01
  1.326026e+01    9.107481e+00
  1.327614e+01    7.796749e+00
  1.329201e+01    6.801028e+00
  1.330789e+01    6.021708e+00
  1.332376e+01    5.424575e+00
  1.333964e+01    4.864008e+00
  1.335551e+01    4.468739e+00
  1.337139e+01    4.111523e+00
  1.338727e+01    3.886125e+00
  1.340314e+01    3.674731e+00
  1.341902e+01    3.458265e+00
  1.343489e+01    3.337346e+00
  1.345077e+01    3.229648e+00
  1.346664e+01    3.111448e+00
  1.348252e+01    3.038594e+00
  1.349839e+01    2.977981e+00
  1.351427e+01    2.921861e+00
  1.353015e+01    2.853410e+00
  1.354602e+01    2.813504e+00
  1.356190e+01    2.810338e+00
  1.357777e+01    2.743165e+00
  1.359365e+01    2.719964e+00
  1.360952e+01    2.698682e+00
  1.362540e+01    2.662193e+00
  1.364127e+01    2.627271e+00
  1.365715e+01    2.599456e+00
  1.367303e+01    2.574725e+00
  1.368890e+01    2.581370e+00
  1.370478e+01    2.554044e+00
  1.372065e+01    2.548238e+00
  1.373653e+01    2.539904e+00
  1.375240e+01    2.497311e+00
  1.376828e+01    2.463357e+00
  1.378415e+01    2.506253e+00
  1.380003e+01    2.474345e+00
  1.381591e+01    2.456217e+00
  1.383178e+01    2.430941e+00
  1.384766e+01    2.447856e+00
  1.386353e+01    2.416434e+00
  1.387941e+01    2.426123e+00
  1.389528e+01    2.421192e+00
  1.391116e+01    2.396415e+00
  1.392703e+01    2.324501e+00
  1.394291e+01    2.369223e+00
  1.395879e+01    2.405178e+00
  1.397466e+01    2.396524e+00
  1.399054e+01    2.394015e+00
  1.400641e+01    2.340786e+00
  1.402229e+01    2.339058e+00
  1.403816e+01    2.318569e+00
  1.405404e+01    2.372603e+00
  1.406991e+01    2.361743e+00
  1.408579e+01    2.333967e+00
  1.410167e+01    2.322463e+00
  1.411754e+01    2.303807e+00
  1.413342e+01    2.330533e+00
  1.414929e+01    2.342219e+00
  1.416517e+01    2.327518e+00
  1.418104e+01    2.302225e+00
  1.419692e+01    2.305906e+00
  1.421279e+01    2.326830e+00
  1.422867e+01    2.293409e+00
  1.424455e+01    2.272157e+00
  1.426042e+01    2.266689e+00
  1.427630e+01    2.253323e+00
  1.429217e+01    2.278288e+00
  1.430805e+01    2.311055e+00
  1.432392e+01    2.234264e+00
  1.433980e+01    2.239531e+00
  1.435568e+01    2.265266e+00
  1.437155e+01    2.227634e+00
  1.438743e+01    2.203861e+00
  1.440330e+01    2.207654e+00
  1.441918e+01    2.235835e+00
  1.443505e+01    2.278014e+00
  1.445093e+01    2.261883e+00
  1.446680e+01    2.223307e+00
  1.448268e+01    2.205767e+00
  1.449856e+01    2.224221e+00
  1.451443e+01    2.228007e+00
  1.453031e+01    2.217562e+00
  1.454618e+01    2.178073e+00
  1.456206e+01    2.199413e+00
  1.457793e+01    2.183860e+00
  1.459381e+01    2.219126e+00
  1.460968e+01    2.239953e+00
  1.462556e+01    2.190266e+00
  1.464144e+01    2.239114e+00
  1.465731e+01    2.258605e+00
  1.467319e+01    2.231998e+00
  1.468906e+01    2.213924e+00
  1.470494e+01    2.182055e+00
  1.472081e+01    2.198898e+00
  1.473669e+01    2.238394e+00
  1.475256e+01    2.227430e+00
  1.476844e+01    2.236240e+00
  1.478432e+01    2.216753e+00
  1.480019e+01    2.177621e+00
  1.481607e+01    2.201474e+00
  1.483194e+01    2.219083e+00
  1.484782e+01    2.201453e+00
  1.486369e+01    2.211600e+00
  1.487957e+01    2.268573e+00
  1.489544e+01    2.226178e+00
  1.491132e+01    2.191734e+00
  1.492720e+01    2.245375e+00
  1.494307e+01    2.300975e+00
  1.495895e+01    2.313741e+00
  1.497482e+01    2.344166e+00
  1.499070e+01    2.378377e+00
  1.500657e+01    2.411519e+00
  1.502245e+01    2.519396e+00
  1.503832e+01    2.614512e+00
  1.505420e+01    2.712893e+00
  1.507008e+01    2.818437e+00
  1.508595e+01    2.992014e+00
  1.510183e+01    3.182064e+00
  1.511770e+01    3.429242e+00
  1.513358e+01    3.785467e+00
  1.514945e+01    4.159779e+00
  1.516533e+01    4.525833e+00
  1.518120e+01    4.809330e+00
  1.519708e+01    5.119911e+00
  1.521296e+01    5.373224e+00
  1.522883e+01    5.569829e+00
  1.524471e+01    5.717260e+00
  1.526058e+01    5.751691e+00
  1.527646e+01    5.672470e+00
  1.529233e+01    5.461966e+00
  1.530821e+01    5.091841e+00
  1.532409e+01    4.608000e+00
  1.533996e+01    4.148402e+00
  1.535584e+01    3.776516e+00
  1.537171e+01    3.436005e+00
  1.538759e+01    3.168255e+00
  1.540346e+01    2.988647e+00
  1.541934e+01    2.787113e+00
  1.543521e+01    2.639582e+00
  1.545109e+01    2.507067e+00
  1.546697e+01    2.454035e+00
  1.548284e+01    2.356815e+00
  1.549872e+01    2.263487e+00
  1.551459e+01    2.264014e+00
  1.553047e+01    2.213335e+00
  1.554634e+01    2.198202e+00
  1.556222e+01    2.185066e+00
  1.557809e+01    2.140891e+00
  1.559397e+01    2.101382e+00
  1.560985e+01    2.131432e+00
  1.562572e+01    2.104048e+00
  1.564160e+01    2.058473e+00
  1.565747e+01    2.054264e+00
  1.567335e+01    2.019210e+00
  1.568922e+01    2.004557e+00
  1.570510e+01    1.998791e+00
  1.572097e+01    1.963310e+00
  1.573685e+01    1.932547e+00
  1.575273e+01    1.969831e+00
  1.576860e+01    1.948270e+00
  1.578448e+01    1.937873e+00
  1.580035e+01    1.934807e+00
  1.581623e+01    1.923906e+00
  1.583210e+01    1.901720e+00
  1.584798e+01    1.921658e+00
  1.586385e+01    1.894791e+00
  1.587973e+01    1.877836e+00
  1.589561e+01    1.899045e+00
  1.591148e+01    1.939907e+00
  1.592736e+01    1.934973e+00
  1.594323e+01    1.871893e+00
  1.595911e+01    1.874447e+00
  1.597498e+01    1.843048e+00
  1.599086e+01    1.847425e+00
  1.600673e+01    1.867502e+00
  1.602261e+01    1.880746e+00
  1.603849e+01    1.827631e+00
  1.605436e+01    1.817754e+00
  1.607024e+01    1.838963e+00
  1.608611e+01    1.808609e+00
  1.610199e+01    1.817990e+00
  1.611786e+01    1.818830e+00
  1.613374e+01    1.871612e+00
  1.614961e+01    1.851107e+00
  1.616549e+01    1.818860e+00
  1.618137e+01    1.839485e+00
  1.619724e+01    1.838861e+00
  1.621312e+01    1.791693e+00
  1.622899e+01    1.791871e+00
  1.624487e+01    1.815912e+00
  1.626074e+01    1.851183e+00
  1.627662e+01    1.827721e+00
  1.629250e+01    1.853451e+00
  1.630837e+01    1.830751e+00
  1.632425e+01    1.817355e+00
  1.634012e+01    1.802045e+00
  1.635600e+01    1.761256e+00
  1.637187e+01    1.778180e+00
  1.638775e+01    1.780599e+00
  1.640362e+01    1.759151e+00
  1.641950e+01    1.750147e+00
  1.643538e+01    1.737799e+00
  1.645125e+01    1.763228e+00
  1.646713e+01    1.783308e+00
  1.648300e+01    1.763860e+00
  1.649888e+01    1.769660e+00
  1.651475e+01    1.775765e+00
  1.653063e+01    1.774512e+00
  1.654650e+01    1.705599e+00
  1.656238e+01    1.714391e+00
  1.657826e+01    1.762229e+00
  1.659413e+01    1.754300e+00
  1.661001e+01    1.769414e+00
  1.662588e+01    1.767498e+00
  1.664176e+01    1.743420e+00
  1.665763e+01    1.737947e+00
  1.667351e+01    1.720299e+00
  1.668938e+01    1.734700e+00
  1.670526e+01    1.716902e+00
  1.672114e+01    1.684739e+00
  1.673701e+01    1.681727e+00
  1.675289e+01    1.720024e+00
  1.676876e+01    1.709780e+00
  1.678464e+01    1.724329e+00
  1.680051e+01    1.705998e+00
  1.681639e+01    1.695891e+00
  1.683226e+01    1.700835e+00
  1.684814e+01    1.711593e+00
  1.686402e+01    1.727485e+00
  1.687989e+01    1.712176e+00
  1.689577e+01    1.698370e+00
  1.691164e+01    1.710523e+00
  1.692752e+01    1.657856e+00
  1.694339e+01    1.674380e+00
  1.695927e+01    1.629475e+00
  1.697514e+01    1.690628e+00
  1.699102e+01    1.687899e+00
  1.700690e+01    1.711137e+00
  1.702277e+01    1.721585e+00
  1.703865e+01    1.684932e+00
  1.705452e+01    1.657747e+00
  1.707040e+01    1.645743e+00
  1.708627e+01    1.637891e+00
  1.710215e+01    1.645881e+00
  1.711802e+01    1.653421e+00
  1.713390e+01    1.676317e+00
  1.714978e+01    1.654903e+00
  1.716565e+01    1.647679e+00
  1.718153e+01    1.649331e+00
  1.719740e+01    1.609986e+00
  1.721328e+01    1.631661e+00
  1.722915e+01    1.639553e+00
  1.724503e+01    1.625289e+00
  1.726091e+01    1.604777e+00
  1.727678e+01    1.571923e+00
  1.729266e+01    1.595861e+00
  1.730853e+01    1.632549e+00
  1.732441e+01    1.612783e+00
  1.734028e+01    1.596347e+00
  1.735616e+01    1.590425e+00
  1.737203e+01    1.624327e+00
  1.738791e+01    1.613545e+00
  1.740379e+01    1.572056e+00
  1.741966e+01    1.609344e+00
  1.743554e+01    1.603129e+00
  1.745141e+01    1.600028e+00
  1.746729e+01    1.601145e+00
  1.748316e+01    1.590473e+00
  1.749904e+01    1.594202e+00
  1.751491e+01    1.564065e+00
  1.753079e+01    1.586721e+00
  1.754667e+01    1.587417e+00
  1.756254e+01    1.570781e+00
  1.757842e+01    1.553570e+00
  1.759429e+01    1.563114e+00
  1.761017e+01    1.551173e+00
  1.762604e+01    1.570633e+00
  1.764192e+01    1.581852e+00
  1.765779e+01    1.551944e+00
  1.767367e+01    1.556829e+00
  1.768955e+01    1.545179e+00
  1.770542e+01    1.568692e+00
  1.772130e+01    1.581882e+00
  1.773717e+01    1.549044e+00
  1.775305e+01    1.557713e+00
  1.776892e+01    1.542809e+00
  1.778480e+01    1.549448e+00
  1.780067e+01    1.518468e+00
  1.781655e+01    1.539893e+00
  1.783243e+01    1.535269e+00
  1.784830e+01    1.532909e+00
  1.786418e+01    1.534299e+00
  1.788005e+01    1.538231e+00
  1.789593e+01    1.526670e+00
  1.791180e+01    1.533345e+00
  1.792768e+01    1.553714e+00
  1.794355e+01    1.546402e+00
  1.795943e+01    1.504032e+00
  1.797531e+01    1.488197e+00
  1.799118e+01    1.484344e+00
  1.800706e+01    1.470929e+00
  1.802293e+01    1.490829e+00
  1.803881e+01    1.524255e+00
  1.805468e+01    1.521450e+00
  1.807056e+01    1.503166e+00
  1.808643e+01    1.491841e+00
  1.810231e+01    1.490611e+00
  1.811819e+01    1.469404e+00
  1.813406e+01    1.460571e+00
  1.814994e+01    1.476103e+00
  1.816581e+01    1.481072e+00
  1.818169e+01    1.471993e+00
  1.819756e+01    1.462919e+00
  1.821344e+01    1.479341e+00
  1.822932e+01    1.491102e+00
  1.824519e+01    1.475439e+00
  1.826107e+01    1.492571e+00
  1.827694e+01    1.495459e+00
  1.829282e+01    1.459662e+00
  1.830869e+01    1.482477e+00
  1.832457e+01    1.484990e+00
  1.834044e+01    1.465309e+00
  1.835632e+01    1.465388e+00
  1.837220e+01    1.467143e+00
  1.838807e+01    1.444760e+00
  1.840395e+01    1.463811e+00
  1.841982e+01    1.474357e+00
  1.843570e+01    1.449500e+00
  1.845157e+01    1.456406e+00
  1.846745e+01    1.465868e+00
  1.848332e+01    1.434359e+00
  1.849920e+01    1.436505e+00
  1.851508e+01    1.425643e+00
  1.853095e+01    1.430197e+00
  1.854683e+01    1.451683e+00
  1.856270e+01    1.468063e+00
  1.857858e+01    1.445561e+00
  1.859445e+01    1.448456e+00
  1.861033e+01    1.417887e+00
  1.862620e+01    1.416903e+00
  1.864208e+01    1.423392e+00
  1.865796e+01    1.435986e+00
  1.867383e+01    1.416041e+00
  1.868971e+01    1.393081e+00
  1.870558e+01    1.405650e+00
  1.872146e+01    1.431343e+00
  1.873733e+01    1.425370e+00
  1.875321e+01    1.407461e+00
  1.876908e+01    1.435523e+00
  1.878496e+01    1.401734e+00
  1.880084e+01    1.385040e+00
  1.881671e+01    1.389676e+00
  1.883259e+01    1.416694e+00
  1.884846e+01    1.421196e+00
  1.886434e+01    1.375853e+00
  1.888021e+01    1.397729e+00
  1.889609e+01    1.425110e+00
  1.891196e+01    1.427816e+00
  1.892784e+01    1.426806e+00
  1.894372e+01    1.387446e+00
  1.895959e+01    1.394015e+00
  1.897547e+01    1.409136e+00
  1.899134e+01    1.392031e+00
  1.900722e+01    1.378656e+00
  1.902309e+01    1.373542e+00
  1.903897e+01    1.364003e+00
  1.905484e+01    1.369569e+00
  1.907072e+01    1.383731e+00
  1.908660e+01    1.378236e+00
  1.910247e+01    1.373575e+00
  1.911835e+01    1.371010e+00
  1.913422e+01    1.387504e+00
  1.915010e+01    1.396755e+00
  1.916597e+01    1.381796e+00
  1.918185e+01    1.355461e+00
  1.919773e+01    1.381362e+00
  1.921360e+01    1.371732e+00
  1.922948e+01    1.332106e+00
  1.924535e+01    1.338644e+00
  1.926123e+01    1.354357e+00
  1.927710e+01    1.341542e+00
  1.929298e+01    1.323413e+00
  1.930885e+01    1.356703e+00
  1.932473e+01    1.372485e+00
  1.934061e+01    1.340619e+00
  1.935648e+01    1.323044e+00
  1.937236e+01    1.362111e+00
  1.938823e+01    1.367978e+00
  1.940411e+01    1.346030e+00
  1.941998e+01    1.343752e+00
  1.943586e+01    1.330297e+00
  1.945173e+01    1.329881e+00
  1.946761e+01    1.362238e+00
  1.948349e+01    1.332396e+00
  1.949936e+01    1.328922e+00
  1.951524e+01    1.349348e+00
  1.953111e+01    1.334222e+00
  1.954699e+01    1.318180e+00
  1.956286e+01    1.305271e+00
  1.957874e+01    1.326410e+00
  1.959461e+01    1.326046e+00
  1.961049e+01    1.307081e+00
  1.962637e+01    1.297705e+00
  1.964224e+01    1.329682e+00
  1.965812e+01    1.305905e+00
  1.967399e+01    1.312645e+00
  1.968987e+01    1.331849e+00
  1.970574e+01    1.313567e+00
  1.972162e+01    1.301626e+00
  1.973749e+01    1.335671e+00
  1.975337e+01    1.310437e+00
  1.976925e+01    1.294116e+00
  1.978512e+01    1.296347e+00
  1.980100e+01    1.310974e+00
  1.981687e+01    1.296378e+00
  1.983275e+01    1.305524e+00
  1.984862e+01    1.290961e+00
  1.986450e+01    1.297332e+00
  1.988037e+01    1.292980e+00
  1.989625e+01    1.281292e+00
  1.991213e+01    1.289928e+00
  1.992800e+01    1.277863e+00
  1.994388e+01    1.288382e+00
  1.995975e+01    1.314532e+00
  1.997563e+01    1.294312e+00
  1.999150e+01    1.274833e+00
  2.000738e+01    1.267537e+00
  2.002325e+01    1.277534e+00
  2.003913e+01    1.275198e+00
  2.005501e+01    1.286962e+00
  2.007088e+01    1.255229e+00
  2.008676e+01    1.275830e+00
  2.010263e+01    1.270810e+00
  2.011851e+01    1.254842e+00
  2.013438e+01    1.271301e+00
  2.015026e+01    1.263892e+00
  2.016614e+01    1.256462e+00
  2.018201e+01    1.278219e+00
  2.019789e+01    1.267774e+00
  2.021376e+01    1.277936e+00
  2.022964e+01    1.279155e+00
  2.024551e+01    1.276051e+00
  2.026139e+01    1.268747e+00
  2.027726e+01    1.251133e+00
  2.029314e+01    1.257209e+00
  2.030902e+01    1.252288e+00
  2.032489e+01    1.262051e+00
  2.034077e+01    1.214164e+00
  2.035664e+01    1.213334e+00
  2.037252e+01    1.245976e+00
  2.038839e+01    1.260941e+00
  2.040427e+01    1.247297e+00
  2.042014e+01    1.259133e+00
  2.043602e+01    1.253012e+00
  2.045190e+01    1.228906e+00
  2.046777e+01    1.245653e+00
  2.048365e+01    1.248032e+00
  2.049952e+01    1.241163e+00
  2.051540e+01    1.239411e+00
  2.053127e+01    1.261081e+00
  2.054715e+01    1.218253e+00
  2.056302e+01    1.224023e+00
  2.057890e+01    1.232142e+00
  2.059478e+01    1.217401e+00
  2.061065e+01    1.218606e+00
  2.062653e+01    1.247379e+00
  2.064240e+01    1.243697e+00
  2.065828e+01    1.224754e+00
  2.067415e+01    1.212478e+00
  2.069003e+01    1.227898e+00
  2.070590e+01    1.245130e+00
  2.072178e+01    1.229863e+00
  2.073766e+01    1.217858e+00
  2.075353e+01    1.229150e+00
  2.076941e+01    1.215517e+00
  2.078528e+01    1.230984e+00
  2.080116e+01    1.228099e+00
  2.081703e+01    1.237302e+00
  2.083291e+01    1.217291e+00
  2.084878e+01    1.213593e+00
  2.086466e+01    1.200311e+00
  2.088054e+01    1.202172e+00
  2.089641e+01    1.219283e+00
  2.091229e+01    1.231380e+00
  2.092816e+01    1.230215e+00
  2.094404e+01    1.246332e+00
  2.095991e+01    1.230970e+00
  2.097579e+01    1.223819e+00
  2.099166e+01    1.214274e+00
  2.100754e+01    1.222881e+00
  2.102342e+01    1.225298e+00
  2.103929e+01    1.237234e+00
  2.105517e+01    1.237240e+00
  2.107104e+01    1.249737e+00
  2.108692e+01    1.242895e+00
  2.110279e+01    1.227724e+00
  2.111867e+01    1.232341e+00
  2.113455e+01    1.241296e+00
  2.115042e+01    1.227717e+00
  2.116630e+01    1.231460e+00
  2.118217e+01    1.235316e+00
  2.119805e+01    1.239647e+00
  2.121392e+01    1.237876e+00
  2.122980e+01    1.237202e+00
  2.124567e+01    1.252508e+00
  2.126155e+01    1.269332e+00
  2.127743e+01    1.248798e+00
  2.129330e+01    1.271596e+00
  2.130918e+01    1.278203e+00
  2.132505e+01    1.243283e+00
  2.134093e+01    1.253742e+00
  2.135680e+01    1.285398e+00
  2.137268e+01    1.283730e+00
  2.138855e+01    1.286546e+00
  2.140443e+01    1.309049e+00
  2.142031e+01    1.329796e+00
  2.143618e+01    1.359451e+00
  2.145206e+01    1.344785e+00
  2.146793e+01    1.370258e+00
  2.148381e+01    1.406378e+00
  2.149968e+01    1.441202e+00
  2.151556e+01    1.446445e+00
  2.153143e+01    1.438459e+00
  2.154731e+01    1.484048e+00
  2.156319e+01    1.547006e+00
  2.157906e+01    1.596170e+00
  2.159494e+01    1.701731e+00
  2.161081e+01    1.783702e+00
  2.162669e+01    1.861157e+00
  2.164256e+01    2.002635e+00
  2.165844e+01    2.101834e+00
  2.167431e+01    2.250378e+00
  2.169019e+01    2.475459e+00
  2.170607e+01    2.769140e+00
  2.172194e+01    3.088351e+00
  2.173782e+01    3.511544e+00
  2.175369e+01    3.905711e+00
  2.176957e+01    4.468749e+00
  2.178544e+01    5.132540e+00
  2.180132e+01    5.731473e+00
  2.181719e+01    6.390937e+00
  2.183307e+01    7.081138e+00
  2.184895e+01    7.699180e+00
  2.186482e+01    8.256889e+00
  2.188070e+01    8.659203e+00
  2.189657e+01    8.860876e+00
  2.191245e+01    8.684860e+00
  2.192832e+01    8.271221e+00
  2.194420e+01    7.506474e+00
  2.196007e+01    6.599819e+00
  2.197595e+01    5.772207e+00
  2.199183e+01    4.915685e+00
  2.200770e+01    4.190916e+00
  2.202358e+01    3.644474e+00
  2.203945e+01    3.233908e+00
  2.205533e+01    2.864656e+00
  2.207120e+01    2.561574e+00
  2.208708e+01    2.346146e+00
  2.210296e+01    2.130478e+00
  2.211883e+01    1.988736e+00
  2.213471e+01    1.873321e+00
  2.215058e+01    1.773943e+00
  2.216646e+01    1.692796e+00
  2.218233e+01    1.618583e+00
  2.219821e+01    1.528529e+00
  2.221408e+01    1.485316e+00
  2.222996e+01    1.483736e+00
  2.224584e+01    1.431106e+00
  2.226171e+01    1.381167e+00
  2.227759e+01    1.357341e+00
  2.229346e+01    1.313749e+00
  2.230934e+01    1.294969e+00
  2.232521e+01    1.275801e+00
  2.234109e+01    1.264055e+00
  2.235696e+01    1.237181e+00
  2.237284e+01    1.239152e+00
  2.238872e+01    1.231385e+00
  2.240459e+01    1.226481e+00
  2.242047e+01    1.210754e+00
  2.243634e+01    1.185131e+00
  2.245222e+01    1.180939e+00
  2.246809e+01    1.148271e+00
  2.248397e+01    1.159431e+00
  2.249984e+01    1.142750e+00
  2.251572e+01    1.125929e+00
  2.253160e+01    1.132107e+00
  2.254747e+01    1.142290e+00
  2.256335e+01    1.139173e+00
  2.257922e+01    1.120167e+00
  2.259510e+01    1.115304e+00
  2.261097e+01    1.085870e+00
  2.262685e+01    1.085382e+00
  2.264272e+01    1.080373e+00
  2.265860e+01    1.076666e+00
  2.267448e+01    1.071267e+00
  2.269035e+01    1.068425e+00
  2.270623e+01    1.048654e+00
  2.272210e+01    1.047719e+00
  2.273798e+01    1.066287e+00
  2.275385e+01    1.058933e+00
  2.276973e+01    1.061551e+00
  2.278560e+01    1.074189e+00
  2.280148e+01    1.065768e+00
  2.281736e+01    1.040066e+00
  2.283323e+01    1.058782e+00
  2.284911e+01    1.047909e+00
  2.286498e+01    1.018852e+00
  2.288086e+01    1.023135e+00
  2.289673e+01    1.038351e+00
  2.291261e+01    1.047825e+00
  2.292848e+01    1.049624e+00
  2.294436e+01    1.057564e+00
  2.296024e+01    1.037509e+00
  2.297611e+01    1.028861e+00
  2.299199e+01    1.034675e+00
  2.300786e+01    1.024979e+00
  2.302374e+01    1.010276e+00
  2.303961e+01    9.972014e-01
  2.305549e+01    1.009229e+00
  2.307137e+01    1.005221e+00
  2.308724e+01    1.016361e+00
  2.310312e+01    1.007602e+00
  2.311899e+01    1.002141e+00
  2.313487e+01    1.005291e+00
  2.315074e+01    1.005700e+00
  2.316662e+01    1.012354e+00
  2.318249e+01    1.000196e+00
  2.319837e+01    9.888926e-01
  2.321425e+01    9.835503e-01
  2.323012e+01    9.781932e-01
  2.324600e+01    9.936678e-01
  2.326187e+01    9.909056e-01
  2.327775e+01    9.908690e-01
  2.329362e+01    9.886163e-01
  2.330950e+01    9.827457e-01
  2.332537e+01    9.768262e-01
  2.334125e+01    9.630212e-01
  2.335713e+01    9.754536e-01
  2.337300e+01    9.720041e-01
  2.338888e+01    9.643325e-01
  2.340475e+01    9.804756e-01
  2.342063e+01    9.993582e-01
  2.343650e+01    9.887449e-01
  2.345238e+01    9.709080e-01
  2.346825e+01    9.781539e-01
  2.348413e+01    9.596118e-01
  2.350001e+01    9.559523e-01
  2.351588e+01    9.439892e-01
  2.353176e+01    9.363278e-01
  2.354763e+01    9.440812e-01
  2.356351e+01    9.658225e-01
  2.357938e+01    9.521965e-01
  2.359526e+01    9.534187e-01
  2.361113e+01    9.557928e-01
  2.362701e+01    9.591650e-01
  2.364289e+01    9.555855e-01
  2.365876e+01    9.285706e-01
  2.367464e+01    9.357669e-01
  2.369051e+01    9.472561e-01
  2.370639e+01    9.361450e-01
  2.372226e+01    9.362814e-01
  2.373814e+01    9.354872e-01
  2.375401e+01    9.275253e-01
  2.376989e+01    9.255140e-01
  2.378577e+01    9.168580e-01
  2.380164e+01    9.164708e-01
  2.381752e+01    9.228366e-01
  2.383339e+01    9.234748e-01
  2.384927e+01    9.375516e-01
  2.386514e+01    9.288255e-01
  2.388102e+01    9.094755e-01
  2.389689e+01    9.041937e-01
  2.391277e+01    9.019808e-01
  2.392865e+01    9.065056e-01
  2.394452e+01    9.086030e-01
  2.396040e+01    9.141752e-01
  2.397627e+01    9.063200e-01
  2.399215e+01    8.950549e-01
  2.400802e+01    8.866798e-01
  2.402390e+01    8.815753e-01
  2.403978e+01    8.896432e-01
  2.405565e+01    8.769279e-01
  2.407153e+01    8.752429e-01
  2.408740e+01    8.976362e-01
  2.410328e+01    9.042247e-01
  2.411915e+01    8.867790e-01
  2.413503e+01    8.912549e-01
  2.415090e+01    8.936475e-01
  2.416678e+01    8.731511e-01
  2.418266e+01    8.865718e-01
  2.419853e+01    8.837957e-01
  2.421441e+01    8.926404e-01
  2.423028e+01    8.751165e-01
  2.424616e+01    8.708371e-01
  2.426203e+01    9.014632e-01
  2.427791e+01    8.924604e-01
  2.429378e+01    9.050872e-01
  2.430966e+01    9.132141e-01
  2.432554e+01    9.180914e-01
  2.434141e+01    8.974134e-01
  2.435729e+01    9.001425e-01
  2.437316e+01    8.959781e-01
  2.438904e+01    8.866187e-01
  2.440491e+01    8.934395e-01
  2.442079e+01    8.802412e-01
  2.443666e+01    8.748788e-01
  2.445254e+01    8.978912e-01
  2.446842e+01    8.912016e-01
  2.448429e+01    9.012851e-01
  2.450017e+01    8.846173e-01
  2.451604e+01    8.911245e-01
  2.453192e+01    9.022085e-01
  2.454779e+01    9.019655e-01
  2.456367e+01    8.991368e-01
  2.457954e+01    9.079298e-01
  2.459542e+01    8.769057e-01
  2.461130e+01    8.969332e-01
  2.462717e+01    8.921968e-01
  2.464305e+01    9.159284e-01
  2.465892e+01    9.149287e-01
  2.467480e+01    8.925219e-01
  2.469067e+01    8.867867e-01
  2.470655e+01    8.768190e-01
  2.472242e+01    8.935586e-01
  2.473830e+01    8.892662e-01
  2.475418e+01    8.882040e-01
  2.477005e+01    9.085191e-01
  2.478593e+01    8.814088e-01
  2.480180e+01    8.747056e-01
  2.481768e+01    8.996409e-01
  2.483355e+01    9.191672e-01
  2.484943e+01    9.031577e-01
  2.486530e+01    8.755480e-01
  2.488118e+01    8.741669e-01
  2.489706e+01    8.865902e-01
  2.491293e+01    9.078791e-01
  2.492881e+01    9.384670e-01
  2.494468e+01    9.079208e-01
  2.496056e+01    8.976700e-01
  2.497643e+01    8.792605e-01
  2.499231e+01    8.655481e-01
  2.500819e+01    8.885248e-01
  2.502406e+01    9.054378e-01
  2.503994e+01    8.964243e-01
  2.505581e+01    8.978477e-01
  2.507169e+01    8.802296e-01
  2.508756e+01    8.888649e-01
  2.510344e+01    9.279169e-01
  2.511931e+01    9.298114e-01
  2.513519e+01    9.141963e-01
  2.515107e+01    9.182850e-01
  2.516694e+01    9.232189e-01
  2.518282e+01    9.130490e-01
  2.519869e+01    9.325123e-01
  2.521457e+01    9.179070e-01
  2.523044e+01    9.106106e-01
  2.524632e+01    9.331312e-01
  2.526219e+01    9.419952e-01
  2.527807e+01    9.648830e-01
  2.529395e+01    9.508206e-01
  2.530982e+01    9.564216e-01
  2.532570e+01    9.813212e-01
  2.534157e+01    9.871349e-01
  2.535745e+01    9.635182e-01
  2.537332e+01    9.800538e-01
  2.538920e+01    9.986595e-01
  2.540507e+01    9.796006e-01
  2.542095e+01    1.008404e+00
  2.543683e+01    1.008556e+00
  2.545270e+01    1.014611e+00
  2.546858e+01    1.014848e+00
  2.548445e+01    1.023067e+00
  2.550033e+01    1.075368e+00
  2.551620e+01    1.101469e+00
  2.553208e+01    1.105688e+00
  2.554795e+01    1.112553e+00
  2.556383e+01    1.134438e+00
  2.557971e+01    1.172009e+00
  2.559558e+01    1.189285e+00
  2.561146e+01    1.203704e+00
  2.562733e+01    1.235683e+00
  2.564321e+01    1.314439e+00
  2.565908e+01    1.353669e+00
  2.567496e+01    1.384314e+00
  2.569083e+01    1.478794e+00
  2.570671e+01    1.562907e+00
  2.572259e+01    1.681089e+00
  2.573846e+01    1.841416e+00
  2.575434e+01    2.010476e+00
  2.577021e+01    2.217443e+00
  2.578609e+01    2.456311e+00
  2.580196e+01    2.754662e+00
  2.581784e+01    3.121950e+00
  2.583371e+01    3.542106e+00
  2.584959e+01    4.088740e+00
  2.586547e+01    4.619642e+00
  2.588134e+01    5.162855e+00
  2.589722e+01    5.724254e+00
  2.591309e+01    6.296800e+00
  2.592897e+01    6.679850e+00
  2.594484e+01    6.949576e+00
  2.596072e+01    7.077885e+00
  2.597660e+01    6.945570e+00
  2.599247e+01    6.561779e+00
  2.600835e+01    6.012050e+00
  2.602422e+01    5.347493e+00
  2.604010e+01    4.618009e+00
  2.605597e+01    4.038196e+00
  2.607185e+01    3.476256e+00
  2.608772e+01    3.018569e+00
  2.610360e+01    2.692470e+00
  2.611948e+01    2.379620e+00
  2.613535e+01    2.162368e+00
  2.615123e+01    1.937504e+00
  2.616710e+01    1.812658e+00
  2.618298e+01    1.672631e+00
  2.619885e+01    1.583251e+00
  2.621473e+01    1.530673e+00
  2.623060e+01    1.460537e+00
  2.624648e+01    1.339742e+00
  2.626236e+01    1.298299e+00
  2.627823e+01    1.254636e+00
  2.629411e+01    1.205370e+00
  2.630998e+01    1.166198e+00
  2.632586e+01    1.156221e+00
  2.634173e+01    1.125460e+00
  2.635761e+01    1.111513e+00
  2.637348e+01    1.092157e+00
  2.638936e+01    1.047138e+00
  2.640524e+01    1.038501e+00
  2.642111e+01    1.044283e+00
  2.643699e+01    1.040778e+00
  2.645286e+01    1.019749e+00
  2.646874e+01    1.002996e+00
  2.648461e+01    1.013314e+00
  2.650049e+01    1.005178e+00
  2.651636e+01    9.949697e-01
  2.653224e+01    1.020389e+00
  2.654812e+01    9.958419e-01
  2.656399e+01    9.820406e-01
  2.657987e+01    9.975878e-01
  2.659574e+01    9.917741e-01
  2.661162e+01    9.779873e-01
  2.662749e+01    9.738435e-01
  2.664337e+01    9.636561e-01
  2.665924e+01    9.669096e-01
  2.667512e+01    9.583225e-01
  2.669100e+01    9.393944e-01
  2.670687e+01    9.702934e-01
  2.672275e+01    9.717349e-01
  2.673862e+01    9.569054e-01
  2.675450e+01    9.579872e-01
  2.677037e+01    9.712092e-01
  2.678625e+01    9.685341e-01
  2.680212e+01    9.826759e-01
  2.681800e+01    9.532698e-01
  2.683388e+01    9.420662e-01
  2.684975e+01    9.609988e-01
  2.686563e+01    9.895234e-01
  2.688150e+01    9.775104e-01
  2.689738e+01    9.911831e-01
  2.691325e+01    1.016607e+00
  2.692913e+01    1.027625e+00
  2.694501e+01    1.016021e+00
  2.696088e+01    1.036209e+00
  2.697676e+01    1.055349e+00
  2.699263e+01    1.069530e+00
  2.700851e+01    1.106806e+00
  2.702438e+01    1.156320e+00
  2.704026e+01    1.215624e+00
  2.705613e+01    1.250470e+00
  2.707201e+01    1.310404e+00
  2.708789e+01    1.399943e+00
  2.710376e+01    1.481314e+00
  2.711964e+01    1.581966e+00
  2.713551e+01    1.716527e+00
  2.715139e+01    1.837807e+00
  2.716726e+01    1.929651e+00
  2.718314e+01    2.043791e+00
  2.719901e+01    2.130755e+00
  2.721489e+01    2.176099e+00
  2.723077e+01    2.127648e+00
  2.724664e+01    2.084285e+00
  2.726252e+01    1.954121e+00
  2.727839e+01    1.826233e+00
  2.729427e+01    1.705437e+00
  2.731014e+01    1.558221e+00
  2.732602e+01    1.466477e+00
  2.734189e+01    1.360364e+00
  2.735777e+01    1.283706e+00
  2.737365e+01    1.207586e+00
  2.738952e+01    1.149828e+00
  2.740540e+01    1.123747e+00
  2.742127e+01    1.094867e+00
  2.743715e+01    1.058182e+00
  2.745302e+01    1.019799e+00
  2.746890e+01    1.043038e+00
  2.748477e+01    1.032519e+00
  2.750065e+01    9.829262e-01
  2.751653e+01    9.638242e-01
  2.753240e+01    9.703722e-01
  2.754828e+01    9.520363e-01
  2.756415e+01    9.382390e-01
  2.758003e+01    9.455407e-01
  2.759590e+01    9.424642e-01
  2.761178e+01    9.095913e-01
  2.762765e+01    8.911782e-01
  2.764353e+01    9.121449e-01
  2.765941e+01    9.096859e-01
  2.767528e+01    8.978827e-01
  2.769116e+01    9.008908e-01
  2.770703e+01    8.983486e-01
  2.772291e+01    8.854473e-01
  2.773878e+01    8.932185e-01
  2.775466e+01    8.992410e-01
  2.777054e+01    8.971831e-01
  2.778641e+01    8.844993e-01
  2.780229e+01    8.945823e-01
  2.781816e+01    9.143895e-01
  2.783404e+01    8.965131e-01
  2.784991e+01    9.011670e-01
  2.786579e+01    8.877428e-01
  2.788166e+01    8.825767e-01
  2.789754e+01    8.883161e-01
  2.791342e+01    8.797601e-01
  2.792929e+01    9.033893e-01
  2.794517e+01    8.842369e-01
  2.796104e+01    8.714364e-01
  2.797692e+01    8.569057e-01
  2.799279e+01    8.867770e-01
  2.800867e+01    8.966697e-01
  2.802454e+01    8.786387e-01
  2.804042e+01    8.699176e-01
  2.805630e+01    8.608603e-01
  2.807217e+01    8.548514e-01
  2.808805e+01    8.573514e-01
  2.810392e+01    8.669352e-01
  2.811980e+01    8.829120e-01
  2.813567e+01    8.509272e-01
  2.815155e+01    8.363959e-01
  2.816742e+01    8.539295e-01
  2.818330e+01    8.602712e-01
  2.819918e+01    8.480353e-01
  2.821505e+01    8.621888e-01
  2.823093e+01    8.565394e-01
  2.824680e+01    8.491447e-01
  2.826268e+01    8.330461e-01
  2.827855e+01    8.708327e-01
  2.829443e+01    8.584912e-01
  2.831030e+01    8.537965e-01
  2.832618e+01    8.496843e-01
  2.834206e+01    8.416603e-01
  2.835793e+01    8.453405e-01
  2.837381e+01    8.564095e-01
  2.838968e+01    8.584297e-01
  2.840556e+01    8.585095e-01
  2.842143e+01    8.477806e-01
  2.843731e+01    8.367042e-01
  2.845318e+01    8.449879e-01
  2.846906e+01    8.438409e-01
  2.848494e+01    8.340750e-01
  2.850081e+01    8.429229e-01
  2.851669e+01    8.542742e-01
  2.853256e+01    8.450115e-01
  2.854844e+01    8.315203e-01
  2.856431e+01    8.129116e-01
  2.858019e+01    8.377919e-01
  2.859606e+01    8.577802e-01
  2.861194e+01    8.505347e-01
  2.862782e+01    8.279510e-01
  2.864369e+01    8.284245e-01
  2.865957e+01    8.582242e-01
  2.867544e+01    8.508560e-01
  2.869132e+01    8.538231e-01
  2.870719e+01    8.452805e-01
  2.872307e+01    8.191293e-01
  2.873895e+01    8.219540e-01
  2.875482e+01    8.060304e-01
  2.877070e+01    8.122324e-01
  2.878657e+01    8.146207e-01
  2.880245e+01    8.109505e-01
  2.881832e+01    8.292266e-01
  2.883420e+01    8.297579e-01
  2.885007e+01    8.316532e-01
  2.886595e+01    8.102598e-01
  2.888183e+01    8.143758e-01
  2.889770e+01    8.158705e-01
  2.891358e+01    8.099399e-01
  2.892945e+01    8.191515e-01
  2.894533e+01    8.348386e-01
  2.896120e+01    8.329481e-01
  2.897708e+01    8.038561e-01
  2.899295e+01    8.306120e-01
  2.900883e+01    8.235845e-01
  2.902471e+01    8.184256e-01
  2.904058e+01    8.221809e-01
  2.905646e+01    8.091272e-01
  2.907233e+01    7.933200e-01
  2.908821e+01    8.005067e-01
  2.910408e+01    8.297961e-01
  2.911996e+01    7.892451e-01
  2.913583e+01    8.015478e-01
  2.915171e+01    8.321520e-01
  2.916759e+01    8.218652e-01
  2.918346e+01    8.053649e-01
  2.919934e+01    7.989764e-01
  2.921521e+01    8.207420e-01
  2.923109e+01    7.993721e-01
  2.924696e+01    8.059790e-01
  2.926284e+01    8.141308e-01
  2.927871e+01    8.110724e-01
  2.929459e+01    8.031374e-01
  2.931047e+01    8.196981e-01
  2.932634e+01    8.380781e-01
  2.934222e+01    8.153588e-01
  2.935809e+01    8.315731e-01
  2.937397e+01    7.981682e-01
  2.938984e+01    7.845371e-01
  2.940572e+01    7.944074e-01
  2.942159e+01    8.131103e-01
  2.943747e+01    7.954894e-01
  2.945335e+01    7.915508e-01
  2.946922e+01    7.935805e-01
  2.948510e+01    8.113235e-01
  2.950097e+01    8.139302e-01
  2.951685e+01    8.006524e-01
  2.953272e+01    7.953899e-01
  2.954860e+01    8.061919e-01
  2.956447e+01    7.922802e-01
  2.958035e+01    7.967857e-01
  2.959623e+01    7.834757e-01
  2.961210e+01    8.180295e-01
  2.962798e+01    8.151568e-01
  2.964385e+01    8.070283e-01
  2.965973e+01    8.114176e-01
  2.967560e+01    8.043676e-01
  2.969148e+01    7.937638e-01
  2.970736e+01    7.923512e-01
  2.972323e+01    7.976946e-01
  2.973911e+01    7.985486e-01
  2.975498e+01    7.794098e-01
  2.977086e+01    7.823705e-01
  2.978673e+01    7.822801e-01
  2.980261e+01    7.842539e-01
  2.981848e+01    7.973360e-01
  2.983436e+01    7.897016e-01
  2.985024e+01    7.673760e-01
  2.986611e+01    7.891206e-01
  2.988199e+01    7.900059e-01
  2.989786e+01    7.860807e-01
  2.991374e+01    8.018286e-01
  2.992961e+01    7.864352e-01
  2.994549e+01    8.075407e-01
  2.996136e+01    8.132498e-01
  2.997724e+01    8.141165e-01
  2.999312e+01    8.179723e-01
  3.000899e+01    7.840391e-01
  3.002487e+01    7.903705e-01
  3.004074e+01    7.953269e-01
  3.005662e+01    7.925602e-01
  3.007249e+01    7.966356e-01
  3.008837e+01    8.219329e-01
  3.010424e+01    8.020262e-01
  3.012012e+01    7.804023e-01
  3.013600e+01    8.206184e-01
  3.015187e+01    7.872238e-01
  3.016775e+01    7.980710e-01
  3.018362e+01    7.973184e-01
  3.019950e+01    7.844934e-01
  3.021537e+01    8.031462e-01
  3.023125e+01    8.090702e-01
  3.024712e+01    7.779678e-01
  3.026300e+01    7.728975e-01
  3.027888e+01    7.957869e-01
  3.029475e+01    7.990984e-01
  3.031063e+01    7.938249e-01
  3.032650e+01    7.711843e-01
  3.034238e+01    7.819855e-01
  3.035825e+01    7.634366e-01
  3.037413e+01    7.702590e-01
  3.039000e+01    7.715797e-01
  3.040588e+01    7.790810e-01
  3.042176e+01    7.987328e-01
  3.043763e+01    8.186421e-01
  3.045351e+01    8.016745e-01
  3.046938e+01    7.920234e-01
  3.048526e+01    7.819993e-01
  3.050113e+01    8.019210e-01
  3.051701e+01    7.905336e-01
  3.053288e+01    7.831675e-01
  3.054876e+01    7.750377e-01
  3.056464e+01    7.846928e-01
  3.058051e+01    7.950198e-01
  3.059639e+01    7.813308e-01
  3.061226e+01    7.680486e-01
  3.062814e+01    7.951322e-01
  3.064401e+01    8.111193e-01
  3.065989e+01    7.913179e-01
  3.067577e+01    7.811758e-01
  3.069164e+01    7.651672e-01
  3.070752e+01    7.916425e-01
  3.072339e+01    7.943237e-01
  3.073927e+01    7.968729e-01
  3.075514e+01    8.160032e-01
  3.077102e+01    7.622654e-01
  3.078689e+01    7.796701e-01
  3.080277e+01    7.968839e-01
  3.081865e+01    7.908904e-01
  3.083452e+01    7.914183e-01
  3.085040e+01    7.751139e-01
  3.086627e+01    7.912655e-01
  3.088215e+01    8.166244e-01
  3.089802e+01    7.876332e-01
  3.091390e+01    7.779778e-01
  3.092977e+01    7.852935e-01
  3.094565e+01    7.778523e-01
  3.096153e+01    7.589768e-01
  3.097740e+01    7.735398e-01
  3.099328e+01    7.730257e-01
  3.100915e+01    7.855146e-01
  3.102503e+01    7.962051e-01
  3.104090e+01    7.901359e-01
  3.105678e+01    7.783471e-01
  3.107265e+01    7.720755e-01
  3.108853e+01    7.714865e-01
  3.110441e+01    7.776965e-01
  3.112028e+01    7.719374e-01
  3.113616e+01    7.606584e-01
  3.115203e+01    7.950954e-01
  3.116791e+01    8.008485e-01
  3.118378e+01    8.058597e-01
  3.119966e+01    8.041457e-01
  3.121553e+01    7.935846e-01
  3.123141e+01    7.840943e-01
  3.124729e+01    7.754487e-01
  3.126316e+01    8.051712e-01
  3.127904e+01    7.973611e-01
  3.129491e+01    7.960478e-01
  3.131079e+01    8.031455e-01
  3.132666e+01    7.937661e-01
  3.134254e+01    7.696490e-01
  3.135841e+01    7.599486e-01
  3.137429e+01    7.796102e-01
  3.139017e+01    7.991301e-01
  3.140604e+01    8.091549e-01
  3.142192e+01    8.036098e-01
  3.143779e+01    8.253691e-01
  3.145367e+01    8.185815e-01
  3.146954e+01    8.158038e-01
  3.148542e+01    8.244277e-01
  3.150129e+01    8.341812e-01
  3.151717e+01    8.330076e-01
  3.153305e+01    8.298340e-01
  3.154892e+01    8.359866e-01
  3.156480e+01    8.492893e-01
  3.158067e+01    8.694296e-01
  3.159655e+01    8.680737e-01
  3.161242e+01    8.972304e-01
  3.162830e+01    9.074941e-01
  3.164418e+01    9.112061e-01
  3.166005e+01    9.215157e-01
  3.167593e+01    9.489676e-01
  3.169180e+01    1.000728e+00
  3.170768e+01    1.014162e+00
  3.172355e+01    1.052272e+00
  3.173943e+01    1.128570e+00
  3.175530e+01    1.159443e+00
  3.177118e+01    1.236090e+00
  3.178706e+01    1.328313e+00
  3.180293e+01    1.431411e+00
  3.181881e+01    1.559521e+00
  3.183468e+01    1.652637e+00
  3.185056e+01    1.848649e+00
  3.186643e+01    1.910162e+00
  3.188231e+01    2.002618e+00
  3.189818e+01    2.066793e+00
  3.191406e+01    2.083472e+00
  3.192994e+01    1.995708e+00
  3.194581e+01    1.912124e+00
  3.196169e+01    1.826093e+00
  3.197756e+01    1.688080e+00
  3.199344e+01    1.571813e+00
  3.200931e+01    1.427410e+00
  3.202519e+01    1.298285e+00
  3.204106e+01    1.235872e+00
  3.205694e+01    1.197198e+00
  3.207282e+01    1.100735e+00
  3.208869e+01    1.049758e+00
  3.210457e+01    1.012530e+00
  3.212044e+01    9.779437e-01
  3.213632e+01    9.453072e-01
  3.215219e+01    8.995514e-01
  3.216807e+01    8.863880e-01
  3.218394e+01    8.956441e-01
  3.219982e+01    8.586247e-01
  3.221570e+01    8.531770e-01
  3.223157e+01    8.479757e-01
  3.224745e+01    8.310804e-01
  3.226332e+01    8.279612e-01
  3.227920e+01    8.337976e-01
  3.229507e+01    8.304604e-01
  3.231095e+01    8.079679e-01
  3.232682e+01    8.018253e-01
  3.234270e+01    7.851372e-01
  3.235858e+01    8.014777e-01
  3.237445e+01    8.035505e-01
  3.239033e+01    8.017710e-01
  3.240620e+01    7.781444e-01
  3.242208e+01    7.793532e-01
  3.243795e+01    7.994813e-01
  3.245383e+01    7.868070e-01
  3.246970e+01    7.759618e-01
  3.248558e+01    7.718562e-01
  3.250146e+01    7.754290e-01
  3.251733e+01    7.886797e-01
  3.253321e+01    8.004724e-01
  3.254908e+01    7.746280e-01
