# == pyFAI calibration ==
# Distance Sample to Detector: 0.3999999939076516 m
# PONI: 9.750e-02, 1.135e-01 m
# Rotations: -0.000175 0.000000 -0.000000 rad
# 
# == Fit2d calibration ==
# Distance Sample-beamCenter: 400.000 mm
# Center: x=1514.000, y=1300.000 pix
# Tilt: 0.010 deg  TiltPlanRot: 0.010 deg
# 
# Detector Detector	 Spline= None	 PixelSize= 7.500e-05, 7.500e-05 m
#    Detector has a mask: False 
#    Detector has a dark current: False 
#    detector has a flat field: False 
# 
# Wavelength: 6.888e-11 m
# Mask applied: user provided
# Dark current applied: False
# Flat field applied: False
# Polarization factor: 0.99
# Normalization factor: 1.0
# --> /home/myspot/data/2024_07_Rosario/Ru-CGO-ex/2024-07-27_003_Ru-CGO-ex_Reaction_dwell_000023_data_000012.dat
#       q_nm^-1             I 
  2.003187e-02    2.195846e-01
  3.590745e-02    6.421730e-02
  5.178302e-02    4.782190e-02
  6.765859e-02    4.253472e-02
  8.353417e-02    3.071987e-02
  9.940974e-02    1.411427e-01
  1.152853e-01    7.718137e-02
  1.311609e-01    3.070066e-02
  1.470365e-01    5.147893e-02
  1.629120e-01    1.348834e-02
  1.787876e-01    0.000000e+00
  1.946632e-01    3.931614e-03
  2.105388e-01    5.749640e-02
  2.264143e-01    4.046485e-02
  2.422899e-01    3.299356e-03
  2.581655e-01    1.298886e-02
  2.740411e-01    3.779271e-02
  2.899166e-01    3.815549e-02
  3.057922e-01    3.175502e-02
  3.216678e-01    3.821892e-02
  3.375433e-01    9.329570e-02
  3.534189e-01    5.630253e-02
  3.692945e-01    3.959013e-02
  3.851701e-01    3.408997e-02
  4.010456e-01    4.137642e-02
  4.169212e-01    2.215422e-02
  4.327968e-01    2.001148e-02
  4.486724e-01    3.021860e-02
  4.645479e-01    4.045431e-02
  4.804235e-01    3.956089e-02
  4.962991e-01    2.824835e-02
  5.121747e-01    3.688755e-02
  5.280502e-01    6.049544e-02
  5.439258e-01    7.458670e-02
  5.598014e-01    2.389541e-02
  5.756770e-01    3.032376e-02
  5.915525e-01    3.829058e-02
  6.074281e-01    4.803380e-02
  6.233037e-01    5.337707e-02
  6.391793e-01    8.377244e-02
  6.550548e-01    4.645108e-02
  6.709304e-01    1.767469e-02
  6.868060e-01    3.049218e-02
  7.026815e-01    5.396167e-02
  7.185571e-01    4.705121e-02
  7.344327e-01    4.913625e-02
  7.503083e-01    7.477913e-02
  7.661838e-01    4.665707e-02
  7.820594e-01    1.046798e-01
  7.979350e-01    1.127378e-01
  8.138106e-01    2.101877e-01
  8.296861e-01    3.586123e-01
  8.455617e-01    3.922708e-01
  8.614373e-01    4.607631e-01
  8.773129e-01    4.960354e-01
  8.931884e-01    5.470764e-01
  9.090640e-01    5.756885e-01
  9.249396e-01    6.933450e-01
  9.408152e-01    8.274411e-01
  9.566907e-01    8.397358e-01
  9.725663e-01    8.881059e-01
  9.884419e-01    1.101789e+00
  1.004317e+00    1.214821e+00
  1.020193e+00    1.241460e+00
  1.036069e+00    1.329606e+00
  1.051944e+00    1.402981e+00
  1.067820e+00    1.440679e+00
  1.083695e+00    1.462066e+00
  1.099571e+00    1.452827e+00
  1.115446e+00    1.507292e+00
  1.131322e+00    1.467601e+00
  1.147198e+00    1.525220e+00
  1.163073e+00    1.665624e+00
  1.178949e+00    1.726700e+00
  1.194824e+00    1.809321e+00
  1.210700e+00    1.937893e+00
  1.226575e+00    2.216736e+00
  1.242451e+00    2.422170e+00
  1.258327e+00    2.553690e+00
  1.274202e+00    2.563261e+00
  1.290078e+00    2.550052e+00
  1.305953e+00    2.617410e+00
  1.321829e+00    2.725698e+00
  1.337705e+00    2.726568e+00
  1.353580e+00    2.917744e+00
  1.369456e+00    2.818671e+00
  1.385331e+00    2.798380e+00
  1.401207e+00    2.826133e+00
  1.417082e+00    2.809007e+00
  1.432958e+00    2.830669e+00
  1.448834e+00    2.871565e+00
  1.464709e+00    3.097758e+00
  1.480585e+00    3.200054e+00
  1.496460e+00    3.121270e+00
  1.512336e+00    3.136323e+00
  1.528211e+00    3.123859e+00
  1.544087e+00    3.074772e+00
  1.559963e+00    3.149609e+00
  1.575838e+00    3.210008e+00
  1.591714e+00    3.264563e+00
  1.607589e+00    3.203668e+00
  1.623465e+00    3.117859e+00
  1.639340e+00    3.240872e+00
  1.655216e+00    3.223588e+00
  1.671092e+00    3.128009e+00
  1.686967e+00    3.191858e+00
  1.702843e+00    3.071676e+00
  1.718718e+00    3.018466e+00
  1.734594e+00    3.139899e+00
  1.750469e+00    3.051515e+00
  1.766345e+00    3.170675e+00
  1.782221e+00    3.077161e+00
  1.798096e+00    3.021149e+00
  1.813972e+00    3.226386e+00
  1.829847e+00    3.189827e+00
  1.845723e+00    3.046469e+00
  1.861598e+00    2.994642e+00
  1.877474e+00    2.950993e+00
  1.893350e+00    3.130388e+00
  1.909225e+00    3.016346e+00
  1.925101e+00    3.093450e+00
  1.940976e+00    2.952556e+00
  1.956852e+00    3.059699e+00
  1.972727e+00    3.037253e+00
  1.988603e+00    2.987906e+00
  2.004479e+00    3.031902e+00
  2.020354e+00    3.011318e+00
  2.036230e+00    3.191283e+00
  2.052105e+00    3.141396e+00
  2.067981e+00    3.103440e+00
  2.083856e+00    3.062517e+00
  2.099732e+00    3.051192e+00
  2.115608e+00    3.120940e+00
  2.131483e+00    3.073547e+00
  2.147359e+00    3.151139e+00
  2.163234e+00    3.148459e+00
  2.179110e+00    3.132099e+00
  2.194985e+00    3.109729e+00
  2.210861e+00    3.090063e+00
  2.226737e+00    3.043925e+00
  2.242612e+00    3.062871e+00
  2.258488e+00    3.105283e+00
  2.274363e+00    3.145210e+00
  2.290239e+00    3.116679e+00
  2.306115e+00    3.218476e+00
  2.321990e+00    3.148668e+00
  2.337866e+00    3.133775e+00
  2.353741e+00    3.073867e+00
  2.369617e+00    3.123775e+00
  2.385492e+00    3.256651e+00
  2.401368e+00    3.150113e+00
  2.417244e+00    3.180755e+00
  2.433119e+00    3.187350e+00
  2.448995e+00    3.140242e+00
  2.464870e+00    3.164361e+00
  2.480746e+00    3.105692e+00
  2.496621e+00    3.190714e+00
  2.512497e+00    3.224327e+00
  2.528373e+00    3.084548e+00
  2.544248e+00    3.120683e+00
  2.560124e+00    3.261414e+00
  2.575999e+00    3.211081e+00
  2.591875e+00    3.191404e+00
  2.607750e+00    3.270708e+00
  2.623626e+00    3.309383e+00
  2.639502e+00    3.176451e+00
  2.655377e+00    3.254564e+00
  2.671253e+00    3.291167e+00
  2.687128e+00    3.172647e+00
  2.703004e+00    3.195882e+00
  2.718879e+00    3.261155e+00
  2.734755e+00    3.140710e+00
  2.750631e+00    3.108638e+00
  2.766506e+00    3.255796e+00
  2.782382e+00    3.292432e+00
  2.798257e+00    3.251900e+00
  2.814133e+00    3.317276e+00
  2.830008e+00    3.372685e+00
  2.845884e+00    3.384974e+00
  2.861760e+00    3.322396e+00
  2.877635e+00    3.275807e+00
  2.893511e+00    3.316619e+00
  2.909386e+00    3.292635e+00
  2.925262e+00    3.319447e+00
  2.941137e+00    3.316777e+00
  2.957013e+00    3.328254e+00
  2.972889e+00    3.351943e+00
  2.988764e+00    3.410058e+00
  3.004640e+00    3.439117e+00
  3.020515e+00    3.335111e+00
  3.036391e+00    3.415382e+00
  3.052266e+00    3.416467e+00
  3.068142e+00    3.347613e+00
  3.084018e+00    3.376673e+00
  3.099893e+00    3.357572e+00
  3.115769e+00    3.406180e+00
  3.131644e+00    3.376252e+00
  3.147520e+00    3.333915e+00
  3.163395e+00    3.392074e+00
  3.179271e+00    3.472246e+00
  3.195147e+00    3.370249e+00
  3.211022e+00    3.387748e+00
  3.226898e+00    3.311206e+00
  3.242773e+00    3.353965e+00
  3.258649e+00    3.488111e+00
  3.274525e+00    3.504955e+00
  3.290400e+00    3.489057e+00
  3.306276e+00    3.472203e+00
  3.322151e+00    3.452827e+00
  3.338027e+00    3.379281e+00
  3.353902e+00    3.350982e+00
  3.369778e+00    3.389324e+00
  3.385654e+00    3.387650e+00
  3.401529e+00    3.446849e+00
  3.417405e+00    3.445937e+00
  3.433280e+00    3.499192e+00
  3.449156e+00    3.505746e+00
  3.465031e+00    3.499512e+00
  3.480907e+00    3.479853e+00
  3.496783e+00    3.476579e+00
  3.512658e+00    3.494312e+00
  3.528534e+00    3.442562e+00
  3.544409e+00    3.402365e+00
  3.560285e+00    3.471153e+00
  3.576160e+00    3.378860e+00
  3.592036e+00    3.405057e+00
  3.607912e+00    3.384366e+00
  3.623787e+00    3.455363e+00
  3.639663e+00    3.535622e+00
  3.655538e+00    3.559335e+00
  3.671414e+00    3.526183e+00
  3.687289e+00    3.462217e+00
  3.703165e+00    3.480535e+00
  3.719041e+00    3.433000e+00
  3.734916e+00    3.448252e+00
  3.750792e+00    3.484409e+00
  3.766667e+00    3.490465e+00
  3.782543e+00    3.517017e+00
  3.798418e+00    3.461565e+00
  3.814294e+00    3.514531e+00
  3.830170e+00    3.509432e+00
  3.846045e+00    3.467528e+00
  3.861921e+00    3.491867e+00
  3.877796e+00    3.530421e+00
  3.893672e+00    3.669503e+00
  3.909547e+00    3.488214e+00
  3.925423e+00    3.509576e+00
  3.941299e+00    3.527843e+00
  3.957174e+00    3.438976e+00
  3.973050e+00    3.548654e+00
  3.988925e+00    3.575083e+00
  4.004801e+00    3.539194e+00
  4.020676e+00    3.592513e+00
  4.036552e+00    3.582719e+00
  4.052428e+00    3.558082e+00
  4.068303e+00    3.561901e+00
  4.084179e+00    3.552517e+00
  4.100054e+00    3.548799e+00
  4.115930e+00    3.583631e+00
  4.131806e+00    3.591215e+00
  4.147681e+00    3.503981e+00
  4.163557e+00    3.594072e+00
  4.179432e+00    3.550649e+00
  4.195308e+00    3.539313e+00
  4.211183e+00    3.564070e+00
  4.227059e+00    3.540725e+00
  4.242935e+00    3.540446e+00
  4.258810e+00    3.500879e+00
  4.274686e+00    3.519852e+00
  4.290561e+00    3.542719e+00
  4.306437e+00    3.569480e+00
  4.322312e+00    3.645196e+00
  4.338188e+00    3.635988e+00
  4.354064e+00    3.642822e+00
  4.369939e+00    3.623501e+00
  4.385815e+00    3.584327e+00
  4.401690e+00    3.658565e+00
  4.417566e+00    3.630310e+00
  4.433441e+00    3.525381e+00
  4.449317e+00    3.492458e+00
  4.465193e+00    3.547814e+00
  4.481068e+00    3.647942e+00
  4.496944e+00    3.594108e+00
  4.512819e+00    3.498277e+00
  4.528695e+00    3.580422e+00
  4.544570e+00    3.631233e+00
  4.560446e+00    3.657472e+00
  4.576322e+00    3.670850e+00
  4.592197e+00    3.738706e+00
  4.608073e+00    3.698361e+00
  4.623948e+00    3.655035e+00
  4.639824e+00    3.726500e+00
  4.655699e+00    3.712179e+00
  4.671575e+00    3.685895e+00
  4.687451e+00    3.746269e+00
  4.703326e+00    3.673292e+00
  4.719202e+00    3.557686e+00
  4.735077e+00    3.643957e+00
  4.750953e+00    3.641699e+00
  4.766828e+00    3.607952e+00
  4.782704e+00    3.632893e+00
  4.798580e+00    3.685363e+00
  4.814455e+00    3.616912e+00
  4.830331e+00    3.604030e+00
  4.846206e+00    3.658919e+00
  4.862082e+00    3.662702e+00
  4.877957e+00    3.654866e+00
  4.893833e+00    3.660221e+00
  4.909709e+00    3.736782e+00
  4.925584e+00    3.662901e+00
  4.941460e+00    3.663837e+00
  4.957335e+00    3.815846e+00
  4.973211e+00    3.742332e+00
  4.989086e+00    3.665895e+00
  5.004962e+00    3.724884e+00
  5.020838e+00    3.720208e+00
  5.036713e+00    3.584571e+00
  5.052589e+00    3.594829e+00
  5.068464e+00    3.579381e+00
  5.084340e+00    3.677979e+00
  5.100216e+00    3.600183e+00
  5.116091e+00    3.627935e+00
  5.131967e+00    3.727362e+00
  5.147842e+00    3.745258e+00
  5.163718e+00    3.679454e+00
  5.179593e+00    3.706695e+00
  5.195469e+00    3.678017e+00
  5.211345e+00    3.592781e+00
  5.227220e+00    3.599391e+00
  5.243096e+00    3.576995e+00
  5.258971e+00    3.705053e+00
  5.274847e+00    3.723892e+00
  5.290722e+00    3.644789e+00
  5.306598e+00    3.661797e+00
  5.322474e+00    3.661364e+00
  5.338349e+00    3.724791e+00
  5.354225e+00    3.730839e+00
  5.370100e+00    3.706203e+00
  5.385976e+00    3.632581e+00
  5.401851e+00    3.674215e+00
  5.417727e+00    3.715617e+00
  5.433603e+00    3.682147e+00
  5.449478e+00    3.616195e+00
  5.465354e+00    3.689567e+00
  5.481229e+00    3.742485e+00
  5.497105e+00    3.624129e+00
  5.512980e+00    3.591300e+00
  5.528856e+00    3.698129e+00
  5.544732e+00    3.569052e+00
  5.560607e+00    3.562171e+00
  5.576483e+00    3.716528e+00
  5.592358e+00    3.633132e+00
  5.608234e+00    3.595514e+00
  5.624109e+00    3.704515e+00
  5.639985e+00    3.721564e+00
  5.655861e+00    3.586370e+00
  5.671736e+00    3.603843e+00
  5.687612e+00    3.636967e+00
  5.703487e+00    3.583297e+00
  5.719363e+00    3.583271e+00
  5.735238e+00    3.602383e+00
  5.751114e+00    3.686464e+00
  5.766990e+00    3.668662e+00
  5.782865e+00    3.594110e+00
  5.798741e+00    3.663248e+00
  5.814616e+00    3.652291e+00
  5.830492e+00    3.627815e+00
  5.846367e+00    3.618098e+00
  5.862243e+00    3.572830e+00
  5.878119e+00    3.552486e+00
  5.893994e+00    3.531839e+00
  5.909870e+00    3.612223e+00
  5.925745e+00    3.518258e+00
  5.941621e+00    3.497746e+00
  5.957497e+00    3.579758e+00
  5.973372e+00    3.546793e+00
  5.989248e+00    3.626900e+00
  6.005123e+00    3.606865e+00
  6.020999e+00    3.566858e+00
  6.036874e+00    3.500901e+00
  6.052750e+00    3.529415e+00
  6.068626e+00    3.503037e+00
  6.084501e+00    3.504141e+00
  6.100377e+00    3.514785e+00
  6.116252e+00    3.614730e+00
  6.132128e+00    3.580878e+00
  6.148003e+00    3.555957e+00
  6.163879e+00    3.710423e+00
  6.179755e+00    3.663415e+00
  6.195630e+00    3.643423e+00
  6.211506e+00    3.629571e+00
  6.227381e+00    3.531373e+00
  6.243257e+00    3.529482e+00
  6.259132e+00    3.639793e+00
  6.275008e+00    3.589015e+00
  6.290884e+00    3.525432e+00
  6.306759e+00    3.547593e+00
  6.322635e+00    3.610372e+00
  6.338510e+00    3.591102e+00
  6.354386e+00    3.530736e+00
  6.370261e+00    3.547272e+00
  6.386137e+00    3.524748e+00
  6.402013e+00    3.497817e+00
  6.417888e+00    3.503401e+00
  6.433764e+00    3.541835e+00
  6.449639e+00    3.508476e+00
  6.465515e+00    3.539428e+00
  6.481390e+00    3.514598e+00
  6.497266e+00    3.510652e+00
  6.513142e+00    3.543192e+00
  6.529017e+00    3.596264e+00
  6.544893e+00    3.569077e+00
  6.560768e+00    3.564734e+00
  6.576644e+00    3.556092e+00
  6.592519e+00    3.571993e+00
  6.608395e+00    3.537335e+00
  6.624271e+00    3.583509e+00
  6.640146e+00    3.532775e+00
  6.656022e+00    3.527163e+00
  6.671897e+00    3.530738e+00
  6.687773e+00    3.531997e+00
  6.703648e+00    3.539530e+00
  6.719524e+00    3.561107e+00
  6.735400e+00    3.540271e+00
  6.751275e+00    3.610151e+00
  6.767151e+00    3.573223e+00
  6.783026e+00    3.605118e+00
  6.798902e+00    3.563634e+00
  6.814777e+00    3.552544e+00
  6.830653e+00    3.567820e+00
  6.846529e+00    3.486709e+00
  6.862404e+00    3.463852e+00
  6.878280e+00    3.502397e+00
  6.894155e+00    3.536481e+00
  6.910031e+00    3.542843e+00
  6.925907e+00    3.552177e+00
  6.941782e+00    3.500953e+00
  6.957658e+00    3.580787e+00
  6.973533e+00    3.546337e+00
  6.989409e+00    3.509436e+00
  7.005284e+00    3.483656e+00
  7.021160e+00    3.541420e+00
  7.037036e+00    3.592047e+00
  7.052911e+00    3.539297e+00
  7.068787e+00    3.485771e+00
  7.084662e+00    3.515632e+00
  7.100538e+00    3.493134e+00
  7.116413e+00    3.464016e+00
  7.132289e+00    3.493519e+00
  7.148165e+00    3.489155e+00
  7.164040e+00    3.584085e+00
  7.179916e+00    3.548326e+00
  7.195791e+00    3.555113e+00
  7.211667e+00    3.594106e+00
  7.227542e+00    3.555302e+00
  7.243418e+00    3.472602e+00
  7.259294e+00    3.601617e+00
  7.275169e+00    3.548226e+00
  7.291045e+00    3.558169e+00
  7.306920e+00    3.608156e+00
  7.322796e+00    3.518228e+00
  7.338671e+00    3.529342e+00
  7.354547e+00    3.466213e+00
  7.370423e+00    3.480035e+00
  7.386298e+00    3.460032e+00
  7.402174e+00    3.433665e+00
  7.418049e+00    3.537041e+00
  7.433925e+00    3.497281e+00
  7.449800e+00    3.495849e+00
  7.465676e+00    3.530917e+00
  7.481552e+00    3.489932e+00
  7.497427e+00    3.419922e+00
  7.513303e+00    3.460290e+00
  7.529178e+00    3.458416e+00
  7.545054e+00    3.510717e+00
  7.560929e+00    3.541587e+00
  7.576805e+00    3.490530e+00
  7.592681e+00    3.441183e+00
  7.608556e+00    3.517677e+00
  7.624432e+00    3.465516e+00
  7.640307e+00    3.416965e+00
  7.656183e+00    3.465181e+00
  7.672058e+00    3.431994e+00
  7.687934e+00    3.404980e+00
  7.703810e+00    3.445396e+00
  7.719685e+00    3.460886e+00
  7.735561e+00    3.407133e+00
  7.751436e+00    3.467103e+00
  7.767312e+00    3.490572e+00
  7.783187e+00    3.525278e+00
  7.799063e+00    3.577641e+00
  7.814939e+00    3.484542e+00
  7.830814e+00    3.392784e+00
  7.846690e+00    3.448094e+00
  7.862565e+00    3.442803e+00
  7.878441e+00    3.444895e+00
  7.894317e+00    3.422911e+00
  7.910192e+00    3.436117e+00
  7.926068e+00    3.429093e+00
  7.941943e+00    3.450692e+00
  7.957819e+00    3.451479e+00
  7.973694e+00    3.457302e+00
  7.989570e+00    3.473825e+00
  8.005446e+00    3.414496e+00
  8.021321e+00    3.402847e+00
  8.037197e+00    3.349532e+00
  8.053072e+00    3.353284e+00
  8.068948e+00    3.379617e+00
  8.084823e+00    3.432024e+00
  8.100699e+00    3.504431e+00
  8.116575e+00    3.433994e+00
  8.132450e+00    3.472323e+00
  8.148326e+00    3.417444e+00
  8.164201e+00    3.424639e+00
  8.180077e+00    3.426213e+00
  8.195952e+00    3.424340e+00
  8.211828e+00    3.464847e+00
  8.227704e+00    3.444527e+00
  8.243579e+00    3.487836e+00
  8.259455e+00    3.484225e+00
  8.275330e+00    3.443400e+00
  8.291206e+00    3.440840e+00
  8.307081e+00    3.415531e+00
  8.322957e+00    3.367490e+00
  8.338833e+00    3.437616e+00
  8.354708e+00    3.469691e+00
  8.370584e+00    3.399941e+00
  8.386459e+00    3.471400e+00
  8.402335e+00    3.351575e+00
  8.418210e+00    3.329318e+00
  8.434086e+00    3.323295e+00
  8.449962e+00    3.392211e+00
  8.465837e+00    3.428847e+00
  8.481713e+00    3.383883e+00
  8.497588e+00    3.372861e+00
  8.513464e+00    3.386134e+00
  8.529339e+00    3.337982e+00
  8.545215e+00    3.389739e+00
  8.561091e+00    3.442578e+00
  8.576966e+00    3.418498e+00
  8.592842e+00    3.362145e+00
  8.608717e+00    3.400825e+00
  8.624593e+00    3.428005e+00
  8.640468e+00    3.352308e+00
  8.656344e+00    3.274918e+00
  8.672220e+00    3.356718e+00
  8.688095e+00    3.371140e+00
  8.703971e+00    3.319762e+00
  8.719846e+00    3.344609e+00
  8.735722e+00    3.343347e+00
  8.751598e+00    3.353090e+00
  8.767473e+00    3.333001e+00
  8.783349e+00    3.342344e+00
  8.799224e+00    3.338692e+00
  8.815100e+00    3.331023e+00
  8.830975e+00    3.308968e+00
  8.846851e+00    3.296263e+00
  8.862727e+00    3.353692e+00
  8.878602e+00    3.309816e+00
  8.894478e+00    3.301602e+00
  8.910353e+00    3.370701e+00
  8.926229e+00    3.352317e+00
  8.942104e+00    3.294152e+00
  8.957980e+00    3.253380e+00
  8.973856e+00    3.283960e+00
  8.989731e+00    3.307156e+00
  9.005607e+00    3.322954e+00
  9.021482e+00    3.310212e+00
  9.037358e+00    3.330144e+00
  9.053233e+00    3.333063e+00
  9.069109e+00    3.328450e+00
  9.084985e+00    3.261439e+00
  9.100860e+00    3.323327e+00
  9.116736e+00    3.279210e+00
  9.132611e+00    3.218135e+00
  9.148487e+00    3.249371e+00
  9.164362e+00    3.298804e+00
  9.180238e+00    3.295278e+00
  9.196114e+00    3.238951e+00
  9.211989e+00    3.264068e+00
  9.227865e+00    3.249906e+00
  9.243740e+00    3.233551e+00
  9.259616e+00    3.248667e+00
  9.275491e+00    3.282862e+00
  9.291367e+00    3.293029e+00
  9.307243e+00    3.277142e+00
  9.323118e+00    3.242897e+00
  9.338994e+00    3.210033e+00
  9.354869e+00    3.223152e+00
  9.370745e+00    3.214368e+00
  9.386620e+00    3.268680e+00
  9.402496e+00    3.274241e+00
  9.418372e+00    3.217878e+00
  9.434247e+00    3.218832e+00
  9.450123e+00    3.233540e+00
  9.465998e+00    3.280949e+00
  9.481874e+00    3.250326e+00
  9.497749e+00    3.183082e+00
  9.513625e+00    3.181186e+00
  9.529501e+00    3.201665e+00
  9.545376e+00    3.233214e+00
  9.561252e+00    3.214435e+00
  9.577127e+00    3.161317e+00
  9.593003e+00    3.231696e+00
  9.608878e+00    3.258549e+00
  9.624754e+00    3.188065e+00
  9.640630e+00    3.179631e+00
  9.656505e+00    3.275181e+00
  9.672381e+00    3.265900e+00
  9.688256e+00    3.153070e+00
  9.704132e+00    3.173380e+00
  9.720008e+00    3.164542e+00
  9.735883e+00    3.200776e+00
  9.751759e+00    3.213655e+00
  9.767634e+00    3.178321e+00
  9.783510e+00    3.125253e+00
  9.799385e+00    3.219083e+00
  9.815261e+00    3.208934e+00
  9.831137e+00    3.162220e+00
  9.847012e+00    3.182113e+00
  9.862888e+00    3.169757e+00
  9.878763e+00    3.134324e+00
  9.894639e+00    3.154763e+00
  9.910514e+00    3.107542e+00
  9.926390e+00    3.201071e+00
  9.942266e+00    3.164706e+00
  9.958141e+00    3.079120e+00
  9.974017e+00    3.163536e+00
  9.989892e+00    3.167637e+00
  1.000577e+01    3.095224e+00
  1.002164e+01    3.114226e+00
  1.003752e+01    3.151239e+00
  1.005339e+01    3.191501e+00
  1.006927e+01    3.187759e+00
  1.008515e+01    3.176535e+00
  1.010102e+01    3.096900e+00
  1.011690e+01    3.115159e+00
  1.013277e+01    3.180903e+00
  1.014865e+01    3.139848e+00
  1.016452e+01    3.092207e+00
  1.018040e+01    3.099657e+00
  1.019627e+01    3.055695e+00
  1.021215e+01    3.123271e+00
  1.022803e+01    3.101887e+00
  1.024390e+01    3.099524e+00
  1.025978e+01    3.082787e+00
  1.027565e+01    3.124605e+00
  1.029153e+01    3.086039e+00
  1.030740e+01    3.063305e+00
  1.032328e+01    3.125635e+00
  1.033915e+01    3.107217e+00
  1.035503e+01    3.004223e+00
  1.037091e+01    3.050226e+00
  1.038678e+01    3.064578e+00
  1.040266e+01    3.094633e+00
  1.041853e+01    3.081095e+00
  1.043441e+01    3.095221e+00
  1.045028e+01    3.040437e+00
  1.046616e+01    3.016504e+00
  1.048204e+01    3.037996e+00
  1.049791e+01    3.043093e+00
  1.051379e+01    3.023492e+00
  1.052966e+01    3.072337e+00
  1.054554e+01    3.064084e+00
  1.056141e+01    3.027668e+00
  1.057729e+01    3.016885e+00
  1.059316e+01    2.990167e+00
  1.060904e+01    2.992555e+00
  1.062492e+01    3.053169e+00
  1.064079e+01    3.034636e+00
  1.065667e+01    2.941811e+00
  1.067254e+01    2.967740e+00
  1.068842e+01    2.973733e+00
  1.070429e+01    2.934628e+00
  1.072017e+01    2.987611e+00
  1.073604e+01    3.012606e+00
  1.075192e+01    2.978671e+00
  1.076780e+01    2.940371e+00
  1.078367e+01    2.972949e+00
  1.079955e+01    2.969935e+00
  1.081542e+01    2.963953e+00
  1.083130e+01    2.943943e+00
  1.084717e+01    2.981730e+00
  1.086305e+01    2.949418e+00
  1.087892e+01    2.964327e+00
  1.089480e+01    2.984076e+00
  1.091068e+01    2.971231e+00
  1.092655e+01    2.906780e+00
  1.094243e+01    2.902917e+00
  1.095830e+01    2.894676e+00
  1.097418e+01    2.921147e+00
  1.099005e+01    2.878453e+00
  1.100593e+01    2.857011e+00
  1.102180e+01    2.897782e+00
  1.103768e+01    2.952537e+00
  1.105356e+01    2.921400e+00
  1.106943e+01    2.905139e+00
  1.108531e+01    2.945329e+00
  1.110118e+01    2.895711e+00
  1.111706e+01    2.925625e+00
  1.113293e+01    2.881258e+00
  1.114881e+01    2.892778e+00
  1.116468e+01    2.916588e+00
  1.118056e+01    2.873957e+00
  1.119644e+01    2.891136e+00
  1.121231e+01    2.857728e+00
  1.122819e+01    2.860893e+00
  1.124406e+01    2.878387e+00
  1.125994e+01    2.870633e+00
  1.127581e+01    2.908893e+00
  1.129169e+01    2.865342e+00
  1.130756e+01    2.882606e+00
  1.132344e+01    2.826959e+00
  1.133932e+01    2.866406e+00
  1.135519e+01    2.857902e+00
  1.137107e+01    2.856678e+00
  1.138694e+01    2.797196e+00
  1.140282e+01    2.814259e+00
  1.141869e+01    2.798605e+00
  1.143457e+01    2.828766e+00
  1.145045e+01    2.832933e+00
  1.146632e+01    2.765721e+00
  1.148220e+01    2.742922e+00
  1.149807e+01    2.802930e+00
  1.151395e+01    2.810049e+00
  1.152982e+01    2.809643e+00
  1.154570e+01    2.776811e+00
  1.156157e+01    2.783304e+00
  1.157745e+01    2.813957e+00
  1.159333e+01    2.804984e+00
  1.160920e+01    2.851030e+00
  1.162508e+01    2.784702e+00
  1.164095e+01    2.773510e+00
  1.165683e+01    2.818079e+00
  1.167270e+01    2.792114e+00
  1.168858e+01    2.797789e+00
  1.170445e+01    2.770895e+00
  1.172033e+01    2.708841e+00
  1.173621e+01    2.708661e+00
  1.175208e+01    2.744695e+00
  1.176796e+01    2.820205e+00
  1.178383e+01    2.761226e+00
  1.179971e+01    2.731500e+00
  1.181558e+01    2.761876e+00
  1.183146e+01    2.714662e+00
  1.184733e+01    2.729099e+00
  1.186321e+01    2.754637e+00
  1.187909e+01    2.712687e+00
  1.189496e+01    2.735985e+00
  1.191084e+01    2.706440e+00
  1.192671e+01    2.700660e+00
  1.194259e+01    2.715976e+00
  1.195846e+01    2.690746e+00
  1.197434e+01    2.744483e+00
  1.199021e+01    2.790568e+00
  1.200609e+01    2.724951e+00
  1.202197e+01    2.718672e+00
  1.203784e+01    2.724901e+00
  1.205372e+01    2.755831e+00
  1.206959e+01    2.755312e+00
  1.208547e+01    2.711141e+00
  1.210134e+01    2.704187e+00
  1.211722e+01    2.733803e+00
  1.213309e+01    2.755185e+00
  1.214897e+01    2.741123e+00
  1.216485e+01    2.705846e+00
  1.218072e+01    2.723004e+00
  1.219660e+01    2.676680e+00
  1.221247e+01    2.671317e+00
  1.222835e+01    2.711382e+00
  1.224422e+01    2.707947e+00
  1.226010e+01    2.720923e+00
  1.227597e+01    2.690513e+00
  1.229185e+01    2.706005e+00
  1.230773e+01    2.721896e+00
  1.232360e+01    2.704452e+00
  1.233948e+01    2.654976e+00
  1.235535e+01    2.647309e+00
  1.237123e+01    2.707662e+00
  1.238710e+01    2.697924e+00
  1.240298e+01    2.703088e+00
  1.241886e+01    2.711926e+00
  1.243473e+01    2.705304e+00
  1.245061e+01    2.727402e+00
  1.246648e+01    2.708779e+00
  1.248236e+01    2.724760e+00
  1.249823e+01    2.758554e+00
  1.251411e+01    2.711210e+00
  1.252998e+01    2.702513e+00
  1.254586e+01    2.757702e+00
  1.256174e+01    2.750463e+00
  1.257761e+01    2.748274e+00
  1.259349e+01    2.715949e+00
  1.260936e+01    2.740818e+00
  1.262524e+01    2.805768e+00
  1.264111e+01    2.774524e+00
  1.265699e+01    2.759787e+00
  1.267286e+01    2.797624e+00
  1.268874e+01    2.857752e+00
  1.270462e+01    2.842054e+00
  1.272049e+01    2.868827e+00
  1.273637e+01    2.896206e+00
  1.275224e+01    2.920055e+00
  1.276812e+01    2.957364e+00
  1.278399e+01    2.961570e+00
  1.279987e+01    2.982507e+00
  1.281574e+01    3.049570e+00
  1.283162e+01    3.077764e+00
  1.284750e+01    3.196145e+00
  1.286337e+01    3.286840e+00
  1.287925e+01    3.379740e+00
  1.289512e+01    3.499098e+00
  1.291100e+01    3.657727e+00
  1.292687e+01    3.826924e+00
  1.294275e+01    4.086524e+00
  1.295862e+01    4.376201e+00
  1.297450e+01    4.772195e+00
  1.299038e+01    5.240419e+00
  1.300625e+01    5.886176e+00
  1.302213e+01    6.703259e+00
  1.303800e+01    7.658309e+00
  1.305388e+01    8.792411e+00
  1.306975e+01    1.017128e+01
  1.308563e+01    1.139485e+01
  1.310150e+01    1.266298e+01
  1.311738e+01    1.385921e+01
  1.313326e+01    1.488857e+01
  1.314913e+01    1.568451e+01
  1.316501e+01    1.615687e+01
  1.318088e+01    1.626046e+01
  1.319676e+01    1.567893e+01
  1.321263e+01    1.436100e+01
  1.322851e+01    1.245927e+01
  1.324438e+01    1.054044e+01
  1.326026e+01    9.010234e+00
  1.327614e+01    7.758638e+00
  1.329201e+01    6.746601e+00
  1.330789e+01    5.918904e+00
  1.332376e+01    5.293162e+00
  1.333964e+01    4.814342e+00
  1.335551e+01    4.411015e+00
  1.337139e+01    4.083395e+00
  1.338727e+01    3.865313e+00
  1.340314e+01    3.671041e+00
  1.341902e+01    3.494383e+00
  1.343489e+01    3.355941e+00
  1.345077e+01    3.270416e+00
  1.346664e+01    3.171780e+00
  1.348252e+01    3.095977e+00
  1.349839e+01    2.953277e+00
  1.351427e+01    2.867702e+00
  1.353015e+01    2.862494e+00
  1.354602e+01    2.784475e+00
  1.356190e+01    2.739008e+00
  1.357777e+01    2.781219e+00
  1.359365e+01    2.767411e+00
  1.360952e+01    2.695952e+00
  1.362540e+01    2.691007e+00
  1.364127e+01    2.666667e+00
  1.365715e+01    2.637823e+00
  1.367303e+01    2.599778e+00
  1.368890e+01    2.572770e+00
  1.370478e+01    2.559071e+00
  1.372065e+01    2.535284e+00
  1.373653e+01    2.517838e+00
  1.375240e+01    2.506306e+00
  1.376828e+01    2.477525e+00
  1.378415e+01    2.476554e+00
  1.380003e+01    2.436282e+00
  1.381591e+01    2.433338e+00
  1.383178e+01    2.483347e+00
  1.384766e+01    2.497907e+00
  1.386353e+01    2.482696e+00
  1.387941e+01    2.413016e+00
  1.389528e+01    2.419719e+00
  1.391116e+01    2.415919e+00
  1.392703e+01    2.357445e+00
  1.394291e+01    2.363216e+00
  1.395879e+01    2.356712e+00
  1.397466e+01    2.342259e+00
  1.399054e+01    2.375443e+00
  1.400641e+01    2.371715e+00
  1.402229e+01    2.345716e+00
  1.403816e+01    2.370705e+00
  1.405404e+01    2.350890e+00
  1.406991e+01    2.375779e+00
  1.408579e+01    2.334640e+00
  1.410167e+01    2.311961e+00
  1.411754e+01    2.339010e+00
  1.413342e+01    2.347569e+00
  1.414929e+01    2.288413e+00
  1.416517e+01    2.283235e+00
  1.418104e+01    2.290858e+00
  1.419692e+01    2.245008e+00
  1.421279e+01    2.301467e+00
  1.422867e+01    2.272107e+00
  1.424455e+01    2.292073e+00
  1.426042e+01    2.332314e+00
  1.427630e+01    2.298307e+00
  1.429217e+01    2.257252e+00
  1.430805e+01    2.291045e+00
  1.432392e+01    2.311024e+00
  1.433980e+01    2.287297e+00
  1.435568e+01    2.239626e+00
  1.437155e+01    2.269003e+00
  1.438743e+01    2.273846e+00
  1.440330e+01    2.289146e+00
  1.441918e+01    2.251290e+00
  1.443505e+01    2.226437e+00
  1.445093e+01    2.250931e+00
  1.446680e+01    2.231308e+00
  1.448268e+01    2.261392e+00
  1.449856e+01    2.281938e+00
  1.451443e+01    2.257996e+00
  1.453031e+01    2.251174e+00
  1.454618e+01    2.263488e+00
  1.456206e+01    2.209732e+00
  1.457793e+01    2.222982e+00
  1.459381e+01    2.197881e+00
  1.460968e+01    2.236529e+00
  1.462556e+01    2.188437e+00
  1.464144e+01    2.185680e+00
  1.465731e+01    2.198918e+00
  1.467319e+01    2.194820e+00
  1.468906e+01    2.204973e+00
  1.470494e+01    2.232600e+00
  1.472081e+01    2.255570e+00
  1.473669e+01    2.193885e+00
  1.475256e+01    2.199516e+00
  1.476844e+01    2.243608e+00
  1.478432e+01    2.211222e+00
  1.480019e+01    2.174914e+00
  1.481607e+01    2.159464e+00
  1.483194e+01    2.214247e+00
  1.484782e+01    2.241483e+00
  1.486369e+01    2.240383e+00
  1.487957e+01    2.240006e+00
  1.489544e+01    2.215438e+00
  1.491132e+01    2.249379e+00
  1.492720e+01    2.281333e+00
  1.494307e+01    2.309115e+00
  1.495895e+01    2.300798e+00
  1.497482e+01    2.313749e+00
  1.499070e+01    2.365397e+00
  1.500657e+01    2.448099e+00
  1.502245e+01    2.516194e+00
  1.503832e+01    2.631183e+00
  1.505420e+01    2.729441e+00
  1.507008e+01    2.833467e+00
  1.508595e+01    2.935724e+00
  1.510183e+01    3.131934e+00
  1.511770e+01    3.423862e+00
  1.513358e+01    3.786941e+00
  1.514945e+01    4.154607e+00
  1.516533e+01    4.529638e+00
  1.518120e+01    4.907494e+00
  1.519708e+01    5.127347e+00
  1.521296e+01    5.365126e+00
  1.522883e+01    5.544381e+00
  1.524471e+01    5.681307e+00
  1.526058e+01    5.749998e+00
  1.527646e+01    5.752290e+00
  1.529233e+01    5.424369e+00
  1.530821e+01    5.051327e+00
  1.532409e+01    4.670724e+00
  1.533996e+01    4.151595e+00
  1.535584e+01    3.735210e+00
  1.537171e+01    3.442310e+00
  1.538759e+01    3.129491e+00
  1.540346e+01    2.928489e+00
  1.541934e+01    2.788958e+00
  1.543521e+01    2.704769e+00
  1.545109e+01    2.502612e+00
  1.546697e+01    2.427265e+00
  1.548284e+01    2.327978e+00
  1.549872e+01    2.287603e+00
  1.551459e+01    2.249267e+00
  1.553047e+01    2.232167e+00
  1.554634e+01    2.210483e+00
  1.556222e+01    2.155932e+00
  1.557809e+01    2.116775e+00
  1.559397e+01    2.095778e+00
  1.560985e+01    2.093430e+00
  1.562572e+01    2.111166e+00
  1.564160e+01    2.078502e+00
  1.565747e+01    2.057122e+00
  1.567335e+01    2.000535e+00
  1.568922e+01    1.996165e+00
  1.570510e+01    1.987555e+00
  1.572097e+01    1.968561e+00
  1.573685e+01    1.995592e+00
  1.575273e+01    1.992205e+00
  1.576860e+01    1.976137e+00
  1.578448e+01    1.943917e+00
  1.580035e+01    1.947516e+00
  1.581623e+01    1.933832e+00
  1.583210e+01    1.929441e+00
  1.584798e+01    1.922280e+00
  1.586385e+01    1.901610e+00
  1.587973e+01    1.935128e+00
  1.589561e+01    1.942528e+00
  1.591148e+01    1.943856e+00
  1.592736e+01    1.906715e+00
  1.594323e+01    1.915665e+00
  1.595911e+01    1.921843e+00
  1.597498e+01    1.908963e+00
  1.599086e+01    1.904855e+00
  1.600673e+01    1.846950e+00
  1.602261e+01    1.875508e+00
  1.603849e+01    1.907236e+00
  1.605436e+01    1.868994e+00
  1.607024e+01    1.854585e+00
  1.608611e+01    1.848831e+00
  1.610199e+01    1.848530e+00
  1.611786e+01    1.828917e+00
  1.613374e+01    1.876172e+00
  1.614961e+01    1.851709e+00
  1.616549e+01    1.843304e+00
  1.618137e+01    1.822402e+00
  1.619724e+01    1.843474e+00
  1.621312e+01    1.817020e+00
  1.622899e+01    1.813037e+00
  1.624487e+01    1.813342e+00
  1.626074e+01    1.823275e+00
  1.627662e+01    1.812741e+00
  1.629250e+01    1.843833e+00
  1.630837e+01    1.865322e+00
  1.632425e+01    1.812776e+00
  1.634012e+01    1.804679e+00
  1.635600e+01    1.789588e+00
  1.637187e+01    1.780195e+00
  1.638775e+01    1.774640e+00
  1.640362e+01    1.759554e+00
  1.641950e+01    1.786395e+00
  1.643538e+01    1.759780e+00
  1.645125e+01    1.774683e+00
  1.646713e+01    1.765013e+00
  1.648300e+01    1.741303e+00
  1.649888e+01    1.753802e+00
  1.651475e+01    1.760391e+00
  1.653063e+01    1.764116e+00
  1.654650e+01    1.775505e+00
  1.656238e+01    1.775268e+00
  1.657826e+01    1.786179e+00
  1.659413e+01    1.770594e+00
  1.661001e+01    1.750247e+00
  1.662588e+01    1.722165e+00
  1.664176e+01    1.718401e+00
  1.665763e+01    1.755818e+00
  1.667351e+01    1.725382e+00
  1.668938e+01    1.729363e+00
  1.670526e+01    1.698735e+00
  1.672114e+01    1.677807e+00
  1.673701e+01    1.696241e+00
  1.675289e+01    1.722995e+00
  1.676876e+01    1.671392e+00
  1.678464e+01    1.676946e+00
  1.680051e+01    1.706357e+00
  1.681639e+01    1.704323e+00
  1.683226e+01    1.701220e+00
  1.684814e+01    1.703010e+00
  1.686402e+01    1.700876e+00
  1.687989e+01    1.696511e+00
  1.689577e+01    1.711811e+00
  1.691164e+01    1.672678e+00
  1.692752e+01    1.665794e+00
  1.694339e+01    1.672478e+00
  1.695927e+01    1.657212e+00
  1.697514e+01    1.684900e+00
  1.699102e+01    1.677207e+00
  1.700690e+01    1.667825e+00
  1.702277e+01    1.651444e+00
  1.703865e+01    1.662884e+00
  1.705452e+01    1.676243e+00
  1.707040e+01    1.682193e+00
  1.708627e+01    1.661652e+00
  1.710215e+01    1.659401e+00
  1.711802e+01    1.657546e+00
  1.713390e+01    1.633695e+00
  1.714978e+01    1.638069e+00
  1.716565e+01    1.643009e+00
  1.718153e+01    1.624084e+00
  1.719740e+01    1.611790e+00
  1.721328e+01    1.647630e+00
  1.722915e+01    1.639422e+00
  1.724503e+01    1.610314e+00
  1.726091e+01    1.637605e+00
  1.727678e+01    1.608502e+00
  1.729266e+01    1.624881e+00
  1.730853e+01    1.609864e+00
  1.732441e+01    1.596916e+00
  1.734028e+01    1.596033e+00
  1.735616e+01    1.597848e+00
  1.737203e+01    1.637137e+00
  1.738791e+01    1.608134e+00
  1.740379e+01    1.573393e+00
  1.741966e+01    1.581839e+00
  1.743554e+01    1.553167e+00
  1.745141e+01    1.575844e+00
  1.746729e+01    1.579205e+00
  1.748316e+01    1.597262e+00
  1.749904e+01    1.599324e+00
  1.751491e+01    1.572641e+00
  1.753079e+01    1.578345e+00
  1.754667e+01    1.586101e+00
  1.756254e+01    1.578541e+00
  1.757842e+01    1.569423e+00
  1.759429e+01    1.556146e+00
  1.761017e+01    1.586718e+00
  1.762604e+01    1.604294e+00
  1.764192e+01    1.563816e+00
  1.765779e+01    1.555101e+00
  1.767367e+01    1.566918e+00
  1.768955e+01    1.577872e+00
  1.770542e+01    1.567806e+00
  1.772130e+01    1.553707e+00
  1.773717e+01    1.571006e+00
  1.775305e+01    1.551413e+00
  1.776892e+01    1.542655e+00
  1.778480e+01    1.554136e+00
  1.780067e+01    1.551148e+00
  1.781655e+01    1.520614e+00
  1.783243e+01    1.539373e+00
  1.784830e+01    1.543829e+00
  1.786418e+01    1.535792e+00
  1.788005e+01    1.542675e+00
  1.789593e+01    1.549082e+00
  1.791180e+01    1.537376e+00
  1.792768e+01    1.540260e+00
  1.794355e+01    1.516631e+00
  1.795943e+01    1.518096e+00
  1.797531e+01    1.524134e+00
  1.799118e+01    1.508810e+00
  1.800706e+01    1.511170e+00
  1.802293e+01    1.524280e+00
  1.803881e+01    1.529524e+00
  1.805468e+01    1.522501e+00
  1.807056e+01    1.515250e+00
  1.808643e+01    1.518643e+00
  1.810231e+01    1.497863e+00
  1.811819e+01    1.489800e+00
  1.813406e+01    1.499538e+00
  1.814994e+01    1.480965e+00
  1.816581e+01    1.485495e+00
  1.818169e+01    1.520654e+00
  1.819756e+01    1.500388e+00
  1.821344e+01    1.474290e+00
  1.822932e+01    1.457362e+00
  1.824519e+01    1.495231e+00
  1.826107e+01    1.500309e+00
  1.827694e+01    1.467418e+00
  1.829282e+01    1.467433e+00
  1.830869e+01    1.431047e+00
  1.832457e+01    1.445022e+00
  1.834044e+01    1.469281e+00
  1.835632e+01    1.476344e+00
  1.837220e+01    1.442200e+00
  1.838807e+01    1.468096e+00
  1.840395e+01    1.461157e+00
  1.841982e+01    1.456588e+00
  1.843570e+01    1.488167e+00
  1.845157e+01    1.482227e+00
  1.846745e+01    1.464736e+00
  1.848332e+01    1.438426e+00
  1.849920e+01    1.435313e+00
  1.851508e+01    1.414155e+00
  1.853095e+01    1.428835e+00
  1.854683e+01    1.457305e+00
  1.856270e+01    1.403654e+00
  1.857858e+01    1.425614e+00
  1.859445e+01    1.428103e+00
  1.861033e+01    1.411677e+00
  1.862620e+01    1.412231e+00
  1.864208e+01    1.423639e+00
  1.865796e+01    1.401388e+00
  1.867383e+01    1.423495e+00
  1.868971e+01    1.412397e+00
  1.870558e+01    1.431651e+00
  1.872146e+01    1.424155e+00
  1.873733e+01    1.452806e+00
  1.875321e+01    1.439126e+00
  1.876908e+01    1.426991e+00
  1.878496e+01    1.432509e+00
  1.880084e+01    1.441947e+00
  1.881671e+01    1.457168e+00
  1.883259e+01    1.467605e+00
  1.884846e+01    1.422035e+00
  1.886434e+01    1.420942e+00
  1.888021e+01    1.383062e+00
  1.889609e+01    1.385488e+00
  1.891196e+01    1.390431e+00
  1.892784e+01    1.416795e+00
  1.894372e+01    1.394763e+00
  1.895959e+01    1.396339e+00
  1.897547e+01    1.388601e+00
  1.899134e+01    1.362871e+00
  1.900722e+01    1.387490e+00
  1.902309e+01    1.367308e+00
  1.903897e+01    1.358520e+00
  1.905484e+01    1.355148e+00
  1.907072e+01    1.385209e+00
  1.908660e+01    1.387089e+00
  1.910247e+01    1.369189e+00
  1.911835e+01    1.344376e+00
  1.913422e+01    1.366999e+00
  1.915010e+01    1.358900e+00
  1.916597e+01    1.381446e+00
  1.918185e+01    1.373896e+00
  1.919773e+01    1.370520e+00
  1.921360e+01    1.366216e+00
  1.922948e+01    1.394861e+00
  1.924535e+01    1.379378e+00
  1.926123e+01    1.362330e+00
  1.927710e+01    1.359194e+00
  1.929298e+01    1.346774e+00
  1.930885e+01    1.362314e+00
  1.932473e+01    1.340822e+00
  1.934061e+01    1.333870e+00
  1.935648e+01    1.364150e+00
  1.937236e+01    1.372316e+00
  1.938823e+01    1.351276e+00
  1.940411e+01    1.342051e+00
  1.941998e+01    1.334538e+00
  1.943586e+01    1.330811e+00
  1.945173e+01    1.332772e+00
  1.946761e+01    1.334524e+00
  1.948349e+01    1.352565e+00
  1.949936e+01    1.361339e+00
  1.951524e+01    1.347690e+00
  1.953111e+01    1.343070e+00
  1.954699e+01    1.326836e+00
  1.956286e+01    1.329689e+00
  1.957874e+01    1.347968e+00
  1.959461e+01    1.349463e+00
  1.961049e+01    1.325776e+00
  1.962637e+01    1.322128e+00
  1.964224e+01    1.307880e+00
  1.965812e+01    1.313118e+00
  1.967399e+01    1.308274e+00
  1.968987e+01    1.331554e+00
  1.970574e+01    1.314244e+00
  1.972162e+01    1.307299e+00
  1.973749e+01    1.326522e+00
  1.975337e+01    1.327543e+00
  1.976925e+01    1.310817e+00
  1.978512e+01    1.283791e+00
  1.980100e+01    1.273549e+00
  1.981687e+01    1.288492e+00
  1.983275e+01    1.297201e+00
  1.984862e+01    1.324218e+00
  1.986450e+01    1.314735e+00
  1.988037e+01    1.295565e+00
  1.989625e+01    1.295770e+00
  1.991213e+01    1.305977e+00
  1.992800e+01    1.318736e+00
  1.994388e+01    1.316511e+00
  1.995975e+01    1.294092e+00
  1.997563e+01    1.286826e+00
  1.999150e+01    1.302669e+00
  2.000738e+01    1.301306e+00
  2.002325e+01    1.296848e+00
  2.003913e+01    1.290392e+00
  2.005501e+01    1.286630e+00
  2.007088e+01    1.270159e+00
  2.008676e+01    1.287102e+00
  2.010263e+01    1.262236e+00
  2.011851e+01    1.245591e+00
  2.013438e+01    1.260959e+00
  2.015026e+01    1.268939e+00
  2.016614e+01    1.287885e+00
  2.018201e+01    1.261332e+00
  2.019789e+01    1.277398e+00
  2.021376e+01    1.305021e+00
  2.022964e+01    1.270471e+00
  2.024551e+01    1.253030e+00
  2.026139e+01    1.263452e+00
  2.027726e+01    1.281904e+00
  2.029314e+01    1.253282e+00
  2.030902e+01    1.259434e+00
  2.032489e+01    1.284774e+00
  2.034077e+01    1.302225e+00
  2.035664e+01    1.250315e+00
  2.037252e+01    1.243599e+00
  2.038839e+01    1.251057e+00
  2.040427e+01    1.250933e+00
  2.042014e+01    1.250559e+00
  2.043602e+01    1.256159e+00
  2.045190e+01    1.222899e+00
  2.046777e+01    1.261907e+00
  2.048365e+01    1.255993e+00
  2.049952e+01    1.245425e+00
  2.051540e+01    1.231092e+00
  2.053127e+01    1.251589e+00
  2.054715e+01    1.264601e+00
  2.056302e+01    1.240424e+00
  2.057890e+01    1.232724e+00
  2.059478e+01    1.236583e+00
  2.061065e+01    1.229893e+00
  2.062653e+01    1.220888e+00
  2.064240e+01    1.237197e+00
  2.065828e+01    1.223970e+00
  2.067415e+01    1.220087e+00
  2.069003e+01    1.216726e+00
  2.070590e+01    1.228225e+00
  2.072178e+01    1.206406e+00
  2.073766e+01    1.175646e+00
  2.075353e+01    1.233263e+00
  2.076941e+01    1.261745e+00
  2.078528e+01    1.228341e+00
  2.080116e+01    1.243328e+00
  2.081703e+01    1.231878e+00
  2.083291e+01    1.226765e+00
  2.084878e+01    1.228507e+00
  2.086466e+01    1.209721e+00
  2.088054e+01    1.212275e+00
  2.089641e+01    1.236214e+00
  2.091229e+01    1.220054e+00
  2.092816e+01    1.215851e+00
  2.094404e+01    1.249276e+00
  2.095991e+01    1.237800e+00
  2.097579e+01    1.229913e+00
  2.099166e+01    1.216265e+00
  2.100754e+01    1.237221e+00
  2.102342e+01    1.214724e+00
  2.103929e+01    1.240208e+00
  2.105517e+01    1.255110e+00
  2.107104e+01    1.253912e+00
  2.108692e+01    1.251835e+00
  2.110279e+01    1.222081e+00
  2.111867e+01    1.220128e+00
  2.113455e+01    1.234035e+00
  2.115042e+01    1.225270e+00
  2.116630e+01    1.221312e+00
  2.118217e+01    1.196891e+00
  2.119805e+01    1.235607e+00
  2.121392e+01    1.242200e+00
  2.122980e+01    1.238806e+00
  2.124567e+01    1.237345e+00
  2.126155e+01    1.268132e+00
  2.127743e+01    1.265653e+00
  2.129330e+01    1.238521e+00
  2.130918e+01    1.235981e+00
  2.132505e+01    1.250887e+00
  2.134093e+01    1.259306e+00
  2.135680e+01    1.271968e+00
  2.137268e+01    1.259747e+00
  2.138855e+01    1.279112e+00
  2.140443e+01    1.307290e+00
  2.142031e+01    1.315227e+00
  2.143618e+01    1.341100e+00
  2.145206e+01    1.367431e+00
  2.146793e+01    1.382738e+00
  2.148381e+01    1.396802e+00
  2.149968e+01    1.409183e+00
  2.151556e+01    1.425705e+00
  2.153143e+01    1.450498e+00
  2.154731e+01    1.507801e+00
  2.156319e+01    1.577859e+00
  2.157906e+01    1.607038e+00
  2.159494e+01    1.651283e+00
  2.161081e+01    1.727679e+00
  2.162669e+01    1.831030e+00
  2.164256e+01    1.969965e+00
  2.165844e+01    2.120672e+00
  2.167431e+01    2.238463e+00
  2.169019e+01    2.462001e+00
  2.170607e+01    2.748765e+00
  2.172194e+01    3.117866e+00
  2.173782e+01    3.519433e+00
  2.175369e+01    3.997830e+00
  2.176957e+01    4.570686e+00
  2.178544e+01    5.204753e+00
  2.180132e+01    5.801195e+00
  2.181719e+01    6.446767e+00
  2.183307e+01    7.087738e+00
  2.184895e+01    7.686860e+00
  2.186482e+01    8.247000e+00
  2.188070e+01    8.668194e+00
  2.189657e+01    8.911814e+00
  2.191245e+01    8.805848e+00
  2.192832e+01    8.238951e+00
  2.194420e+01    7.559998e+00
  2.196007e+01    6.653671e+00
  2.197595e+01    5.749328e+00
  2.199183e+01    4.880777e+00
  2.200770e+01    4.153910e+00
  2.202358e+01    3.595607e+00
  2.203945e+01    3.167472e+00
  2.205533e+01    2.846328e+00
  2.207120e+01    2.559609e+00
  2.208708e+01    2.336537e+00
  2.210296e+01    2.135185e+00
  2.211883e+01    1.988464e+00
  2.213471e+01    1.886927e+00
  2.215058e+01    1.784756e+00
  2.216646e+01    1.691527e+00
  2.218233e+01    1.561361e+00
  2.219821e+01    1.526647e+00
  2.221408e+01    1.513459e+00
  2.222996e+01    1.457148e+00
  2.224584e+01    1.441329e+00
  2.226171e+01    1.384955e+00
  2.227759e+01    1.364706e+00
  2.229346e+01    1.333100e+00
  2.230934e+01    1.291179e+00
  2.232521e+01    1.281994e+00
  2.234109e+01    1.260791e+00
  2.235696e+01    1.261419e+00
  2.237284e+01    1.234989e+00
  2.238872e+01    1.228393e+00
  2.240459e+01    1.190808e+00
  2.242047e+01    1.197835e+00
  2.243634e+01    1.180946e+00
  2.245222e+01    1.198130e+00
  2.246809e+01    1.159184e+00
  2.248397e+01    1.158263e+00
  2.249984e+01    1.147022e+00
  2.251572e+01    1.141145e+00
  2.253160e+01    1.137319e+00
  2.254747e+01    1.153895e+00
  2.256335e+01    1.137299e+00
  2.257922e+01    1.124081e+00
  2.259510e+01    1.099341e+00
  2.261097e+01    1.104217e+00
  2.262685e+01    1.096594e+00
  2.264272e+01    1.084432e+00
  2.265860e+01    1.093943e+00
  2.267448e+01    1.087951e+00
  2.269035e+01    1.065672e+00
  2.270623e+01    1.067966e+00
  2.272210e+01    1.068760e+00
  2.273798e+01    1.073610e+00
  2.275385e+01    1.082619e+00
  2.276973e+01    1.068429e+00
  2.278560e+01    1.059792e+00
  2.280148e+01    1.058066e+00
  2.281736e+01    1.058719e+00
  2.283323e+01    1.050223e+00
  2.284911e+01    1.048444e+00
  2.286498e+01    1.038200e+00
  2.288086e+01    1.043932e+00
  2.289673e+01    1.032342e+00
  2.291261e+01    1.025587e+00
  2.292848e+01    1.019845e+00
  2.294436e+01    1.027880e+00
  2.296024e+01    1.037146e+00
  2.297611e+01    1.027344e+00
  2.299199e+01    1.022243e+00
  2.300786e+01    1.024291e+00
  2.302374e+01    1.018526e+00
  2.303961e+01    1.001891e+00
  2.305549e+01    9.960204e-01
  2.307137e+01    1.019319e+00
  2.308724e+01    1.025866e+00
  2.310312e+01    1.009253e+00
  2.311899e+01    1.001240e+00
  2.313487e+01    9.829354e-01
  2.315074e+01    9.951124e-01
  2.316662e+01    9.908442e-01
  2.318249e+01    1.004983e+00
  2.319837e+01    9.961186e-01
  2.321425e+01    9.954797e-01
  2.323012e+01    9.931947e-01
  2.324600e+01    9.873908e-01
  2.326187e+01    9.809164e-01
  2.327775e+01    9.850908e-01
  2.329362e+01    1.005129e+00
  2.330950e+01    9.757417e-01
  2.332537e+01    9.741064e-01
  2.334125e+01    9.696569e-01
  2.335713e+01    9.527385e-01
  2.337300e+01    9.877780e-01
  2.338888e+01    9.792231e-01
  2.340475e+01    9.688573e-01
  2.342063e+01    9.594256e-01
  2.343650e+01    9.682005e-01
  2.345238e+01    9.709448e-01
  2.346825e+01    9.610912e-01
  2.348413e+01    9.539627e-01
  2.350001e+01    9.739159e-01
  2.351588e+01    9.541292e-01
  2.353176e+01    9.615981e-01
  2.354763e+01    9.663934e-01
  2.356351e+01    9.860250e-01
  2.357938e+01    9.690097e-01
  2.359526e+01    9.568728e-01
  2.361113e+01    9.551674e-01
  2.362701e+01    9.522278e-01
  2.364289e+01    9.535045e-01
  2.365876e+01    9.302080e-01
  2.367464e+01    9.383786e-01
  2.369051e+01    9.308721e-01
  2.370639e+01    9.209072e-01
  2.372226e+01    9.126123e-01
  2.373814e+01    9.339802e-01
  2.375401e+01    9.350633e-01
  2.376989e+01    9.249497e-01
  2.378577e+01    9.076369e-01
  2.380164e+01    8.957724e-01
  2.381752e+01    9.084744e-01
  2.383339e+01    9.125807e-01
  2.384927e+01    9.052366e-01
  2.386514e+01    9.034638e-01
  2.388102e+01    9.282557e-01
  2.389689e+01    9.315945e-01
  2.391277e+01    9.363497e-01
  2.392865e+01    9.060192e-01
  2.394452e+01    9.006571e-01
  2.396040e+01    9.096154e-01
  2.397627e+01    9.004801e-01
  2.399215e+01    9.126310e-01
  2.400802e+01    8.961951e-01
  2.402390e+01    9.006459e-01
  2.403978e+01    8.989117e-01
  2.405565e+01    8.962250e-01
  2.407153e+01    8.930842e-01
  2.408740e+01    8.898888e-01
  2.410328e+01    8.833832e-01
  2.411915e+01    8.874152e-01
  2.413503e+01    8.777839e-01
  2.415090e+01    9.134074e-01
  2.416678e+01    9.040293e-01
  2.418266e+01    8.682488e-01
  2.419853e+01    8.804982e-01
  2.421441e+01    8.788670e-01
  2.423028e+01    8.676071e-01
  2.424616e+01    8.824196e-01
  2.426203e+01    8.938505e-01
  2.427791e+01    9.086170e-01
  2.429378e+01    9.006559e-01
  2.430966e+01    9.191949e-01
  2.432554e+01    9.083973e-01
  2.434141e+01    8.913703e-01
  2.435729e+01    9.067131e-01
  2.437316e+01    8.959945e-01
  2.438904e+01    9.015385e-01
  2.440491e+01    8.929287e-01
  2.442079e+01    8.858010e-01
  2.443666e+01    8.865215e-01
  2.445254e+01    8.861899e-01
  2.446842e+01    8.700902e-01
  2.448429e+01    8.937508e-01
  2.450017e+01    9.123060e-01
  2.451604e+01    9.071612e-01
  2.453192e+01    8.767597e-01
  2.454779e+01    8.768610e-01
  2.456367e+01    9.248967e-01
  2.457954e+01    9.069709e-01
  2.459542e+01    8.906448e-01
  2.461130e+01    9.036657e-01
  2.462717e+01    8.913041e-01
  2.464305e+01    8.813912e-01
  2.465892e+01    8.902479e-01
  2.467480e+01    8.911561e-01
  2.469067e+01    9.020306e-01
  2.470655e+01    9.016447e-01
  2.472242e+01    8.946782e-01
  2.473830e+01    8.930511e-01
  2.475418e+01    8.899046e-01
  2.477005e+01    8.949347e-01
  2.478593e+01    8.965331e-01
  2.480180e+01    8.960404e-01
  2.481768e+01    8.901858e-01
  2.483355e+01    8.811661e-01
  2.484943e+01    8.897420e-01
  2.486530e+01    9.095553e-01
  2.488118e+01    9.111062e-01
  2.489706e+01    9.013968e-01
  2.491293e+01    9.179523e-01
  2.492881e+01    8.950151e-01
  2.494468e+01    9.005660e-01
  2.496056e+01    9.045547e-01
  2.497643e+01    9.037367e-01
  2.499231e+01    8.931181e-01
  2.500819e+01    9.112114e-01
  2.502406e+01    9.005446e-01
  2.503994e+01    8.971894e-01
  2.505581e+01    9.071269e-01
  2.507169e+01    9.092878e-01
  2.508756e+01    8.962039e-01
  2.510344e+01    8.903363e-01
  2.511931e+01    8.934766e-01
  2.513519e+01    9.149666e-01
  2.515107e+01    9.175887e-01
  2.516694e+01    9.205627e-01
  2.518282e+01    9.177523e-01
  2.519869e+01    9.308921e-01
  2.521457e+01    9.483016e-01
  2.523044e+01    9.389440e-01
  2.524632e+01    9.405704e-01
  2.526219e+01    9.429984e-01
  2.527807e+01    9.271290e-01
  2.529395e+01    9.590355e-01
  2.530982e+01    9.694001e-01
  2.532570e+01    9.513800e-01
  2.534157e+01    9.663183e-01
  2.535745e+01    9.693046e-01
  2.537332e+01    9.776362e-01
  2.538920e+01    9.693009e-01
  2.540507e+01    9.808183e-01
  2.542095e+01    1.004089e+00
  2.543683e+01    1.000971e+00
  2.545270e+01    1.001804e+00
  2.546858e+01    1.041062e+00
  2.548445e+01    1.058814e+00
  2.550033e+01    1.055675e+00
  2.551620e+01    1.063979e+00
  2.553208e+01    1.085733e+00
  2.554795e+01    1.110328e+00
  2.556383e+01    1.161287e+00
  2.557971e+01    1.175796e+00
  2.559558e+01    1.186134e+00
  2.561146e+01    1.214915e+00
  2.562733e+01    1.255470e+00
  2.564321e+01    1.311946e+00
  2.565908e+01    1.364362e+00
  2.567496e+01    1.419977e+00
  2.569083e+01    1.483849e+00
  2.570671e+01    1.619977e+00
  2.572259e+01    1.724620e+00
  2.573846e+01    1.842714e+00
  2.575434e+01    2.023438e+00
  2.577021e+01    2.214903e+00
  2.578609e+01    2.484944e+00
  2.580196e+01    2.772341e+00
  2.581784e+01    3.134917e+00
  2.583371e+01    3.572619e+00
  2.584959e+01    4.086831e+00
  2.586547e+01    4.651816e+00
  2.588134e+01    5.218223e+00
  2.589722e+01    5.816314e+00
  2.591309e+01    6.356133e+00
  2.592897e+01    6.791747e+00
  2.594484e+01    7.070382e+00
  2.596072e+01    7.135081e+00
  2.597660e+01    6.904432e+00
  2.599247e+01    6.571677e+00
  2.600835e+01    6.010375e+00
  2.602422e+01    5.366534e+00
  2.604010e+01    4.652554e+00
  2.605597e+01    3.976470e+00
  2.607185e+01    3.454897e+00
  2.608772e+01    3.026244e+00
  2.610360e+01    2.682672e+00
  2.611948e+01    2.375758e+00
  2.613535e+01    2.151416e+00
  2.615123e+01    1.974685e+00
  2.616710e+01    1.806550e+00
  2.618298e+01    1.690887e+00
  2.619885e+01    1.587462e+00
  2.621473e+01    1.521577e+00
  2.623060e+01    1.424573e+00
  2.624648e+01    1.361303e+00
  2.626236e+01    1.305317e+00
  2.627823e+01    1.261390e+00
  2.629411e+01    1.218315e+00
  2.630998e+01    1.162510e+00
  2.632586e+01    1.152508e+00
  2.634173e+01    1.137989e+00
  2.635761e+01    1.095362e+00
  2.637348e+01    1.051126e+00
  2.638936e+01    1.091776e+00
  2.640524e+01    1.071526e+00
  2.642111e+01    1.067528e+00
  2.643699e+01    1.068694e+00
  2.645286e+01    1.052392e+00
  2.646874e+01    1.010985e+00
  2.648461e+01    1.001170e+00
  2.650049e+01    1.004753e+00
  2.651636e+01    1.013544e+00
  2.653224e+01    9.920142e-01
  2.654812e+01    9.930056e-01
  2.656399e+01    9.848855e-01
  2.657987e+01    9.942583e-01
  2.659574e+01    9.924325e-01
  2.661162e+01    9.936731e-01
  2.662749e+01    9.904431e-01
  2.664337e+01    9.668957e-01
  2.665924e+01    9.585806e-01
  2.667512e+01    9.609790e-01
  2.669100e+01    9.403386e-01
  2.670687e+01    9.573279e-01
  2.672275e+01    9.797825e-01
  2.673862e+01    9.721457e-01
  2.675450e+01    9.609613e-01
  2.677037e+01    9.810094e-01
  2.678625e+01    1.018916e+00
  2.680212e+01    1.000118e+00
  2.681800e+01    9.801884e-01
  2.683388e+01    9.883491e-01
  2.684975e+01    9.935589e-01
  2.686563e+01    9.846656e-01
  2.688150e+01    1.008752e+00
  2.689738e+01    1.009374e+00
  2.691325e+01    1.009669e+00
  2.692913e+01    1.021491e+00
  2.694501e+01    1.008851e+00
  2.696088e+01    1.045955e+00
  2.697676e+01    1.062045e+00
  2.699263e+01    1.070917e+00
  2.700851e+01    1.110686e+00
  2.702438e+01    1.151815e+00
  2.704026e+01    1.203961e+00
  2.705613e+01    1.239539e+00
  2.707201e+01    1.301180e+00
  2.708789e+01    1.401076e+00
  2.710376e+01    1.485011e+00
  2.711964e+01    1.598943e+00
  2.713551e+01    1.741802e+00
  2.715139e+01    1.845667e+00
  2.716726e+01    1.969538e+00
  2.718314e+01    2.061709e+00
  2.719901e+01    2.138700e+00
  2.721489e+01    2.157287e+00
  2.723077e+01    2.136747e+00
  2.724664e+01    2.098511e+00
  2.726252e+01    1.971470e+00
  2.727839e+01    1.851788e+00
  2.729427e+01    1.738123e+00
  2.731014e+01    1.585718e+00
  2.732602e+01    1.460500e+00
  2.734189e+01    1.340316e+00
  2.735777e+01    1.288354e+00
  2.737365e+01    1.235103e+00
  2.738952e+01    1.206146e+00
  2.740540e+01    1.139441e+00
  2.742127e+01    1.074835e+00
  2.743715e+01    1.045366e+00
  2.745302e+01    1.032389e+00
  2.746890e+01    1.019207e+00
  2.748477e+01    9.993419e-01
  2.750065e+01    9.709426e-01
  2.751653e+01    9.518760e-01
  2.753240e+01    9.622580e-01
  2.754828e+01    9.498904e-01
  2.756415e+01    9.485951e-01
  2.758003e+01    9.346477e-01
  2.759590e+01    9.324888e-01
  2.761178e+01    9.247025e-01
  2.762765e+01    9.139801e-01
  2.764353e+01    9.145340e-01
  2.765941e+01    9.167500e-01
  2.767528e+01    9.021223e-01
  2.769116e+01    9.038992e-01
  2.770703e+01    9.046765e-01
  2.772291e+01    9.094750e-01
  2.773878e+01    9.023867e-01
  2.775466e+01    8.749086e-01
  2.777054e+01    8.669171e-01
  2.778641e+01    8.773068e-01
  2.780229e+01    8.916210e-01
  2.781816e+01    8.769620e-01
  2.783404e+01    8.755678e-01
  2.784991e+01    8.683410e-01
  2.786579e+01    8.787143e-01
  2.788166e+01    8.934070e-01
  2.789754e+01    8.719617e-01
  2.791342e+01    8.649614e-01
  2.792929e+01    8.710783e-01
  2.794517e+01    8.777601e-01
  2.796104e+01    8.682466e-01
  2.797692e+01    8.817090e-01
  2.799279e+01    8.620674e-01
  2.800867e+01    8.732582e-01
  2.802454e+01    8.831522e-01
  2.804042e+01    8.660270e-01
  2.805630e+01    8.798358e-01
  2.807217e+01    8.912771e-01
  2.808805e+01    8.576363e-01
  2.810392e+01    8.753678e-01
  2.811980e+01    8.936517e-01
  2.813567e+01    8.865744e-01
  2.815155e+01    8.574787e-01
  2.816742e+01    8.480931e-01
  2.818330e+01    8.418206e-01
  2.819918e+01    8.605899e-01
  2.821505e+01    8.493280e-01
  2.823093e+01    8.567459e-01
  2.824680e+01    8.560133e-01
  2.826268e+01    8.583205e-01
  2.827855e+01    8.646984e-01
  2.829443e+01    8.402634e-01
  2.831030e+01    8.272263e-01
  2.832618e+01    8.436232e-01
  2.834206e+01    8.361790e-01
  2.835793e+01    8.375693e-01
  2.837381e+01    8.403757e-01
  2.838968e+01    8.116797e-01
  2.840556e+01    8.278404e-01
  2.842143e+01    8.564450e-01
  2.843731e+01    8.527995e-01
  2.845318e+01    8.485363e-01
  2.846906e+01    8.352020e-01
  2.848494e+01    8.448002e-01
  2.850081e+01    8.434434e-01
  2.851669e+01    8.484181e-01
  2.853256e+01    8.348997e-01
  2.854844e+01    8.265687e-01
  2.856431e+01    8.467125e-01
  2.858019e+01    8.469310e-01
  2.859606e+01    8.462973e-01
  2.861194e+01    8.333609e-01
  2.862782e+01    8.235476e-01
  2.864369e+01    8.183521e-01
  2.865957e+01    8.308514e-01
  2.867544e+01    8.326284e-01
  2.869132e+01    8.173579e-01
  2.870719e+01    8.445346e-01
  2.872307e+01    8.203484e-01
  2.873895e+01    8.315220e-01
  2.875482e+01    8.143847e-01
  2.877070e+01    7.982733e-01
  2.878657e+01    8.218638e-01
  2.880245e+01    8.404289e-01
  2.881832e+01    8.523917e-01
  2.883420e+01    8.360524e-01
  2.885007e+01    8.266169e-01
  2.886595e+01    8.414923e-01
  2.888183e+01    8.481036e-01
  2.889770e+01    8.404641e-01
  2.891358e+01    8.089029e-01
  2.892945e+01    8.210839e-01
  2.894533e+01    8.401051e-01
  2.896120e+01    8.398351e-01
  2.897708e+01    8.180348e-01
  2.899295e+01    8.301644e-01
  2.900883e+01    8.303697e-01
  2.902471e+01    8.202892e-01
  2.904058e+01    8.341057e-01
  2.905646e+01    8.203852e-01
  2.907233e+01    8.276232e-01
  2.908821e+01    8.188275e-01
  2.910408e+01    8.283596e-01
  2.911996e+01    8.235355e-01
  2.913583e+01    8.131105e-01
  2.915171e+01    7.869682e-01
  2.916759e+01    7.994954e-01
  2.918346e+01    8.244104e-01
  2.919934e+01    8.342353e-01
  2.921521e+01    8.019577e-01
  2.923109e+01    8.036657e-01
  2.924696e+01    8.198240e-01
  2.926284e+01    8.293692e-01
  2.927871e+01    8.021232e-01
  2.929459e+01    7.986240e-01
  2.931047e+01    8.125285e-01
  2.932634e+01    7.954055e-01
  2.934222e+01    8.216325e-01
  2.935809e+01    8.107359e-01
  2.937397e+01    8.058211e-01
  2.938984e+01    7.970945e-01
  2.940572e+01    7.978299e-01
  2.942159e+01    7.745008e-01
  2.943747e+01    7.771978e-01
  2.945335e+01    7.988332e-01
  2.946922e+01    8.172765e-01
  2.948510e+01    8.168447e-01
  2.950097e+01    8.379729e-01
  2.951685e+01    8.133011e-01
  2.953272e+01    7.982302e-01
  2.954860e+01    8.239197e-01
  2.956447e+01    8.247940e-01
  2.958035e+01    8.138619e-01
  2.959623e+01    8.087829e-01
  2.961210e+01    7.982282e-01
  2.962798e+01    8.231284e-01
  2.964385e+01    8.050814e-01
  2.965973e+01    8.044000e-01
  2.967560e+01    8.134209e-01
  2.969148e+01    7.912807e-01
  2.970736e+01    7.964985e-01
  2.972323e+01    7.840647e-01
  2.973911e+01    7.786446e-01
  2.975498e+01    7.922714e-01
  2.977086e+01    8.040227e-01
  2.978673e+01    8.052879e-01
  2.980261e+01    7.909151e-01
  2.981848e+01    7.812465e-01
  2.983436e+01    7.999493e-01
  2.985024e+01    8.088159e-01
  2.986611e+01    7.995382e-01
  2.988199e+01    8.079770e-01
  2.989786e+01    8.016543e-01
  2.991374e+01    7.850240e-01
  2.992961e+01    7.797192e-01
  2.994549e+01    7.971092e-01
  2.996136e+01    8.001413e-01
  2.997724e+01    8.058175e-01
  2.999312e+01    8.115058e-01
  3.000899e+01    8.085949e-01
  3.002487e+01    8.104764e-01
  3.004074e+01    8.265218e-01
  3.005662e+01    7.974925e-01
  3.007249e+01    7.996387e-01
  3.008837e+01    8.227905e-01
  3.010424e+01    8.141018e-01
  3.012012e+01    7.996208e-01
  3.013600e+01    8.030274e-01
  3.015187e+01    8.078396e-01
  3.016775e+01    8.021272e-01
  3.018362e+01    7.782458e-01
  3.019950e+01    7.701269e-01
  3.021537e+01    8.025872e-01
  3.023125e+01    8.070607e-01
  3.024712e+01    8.090611e-01
  3.026300e+01    7.922809e-01
  3.027888e+01    7.683423e-01
  3.029475e+01    7.705353e-01
  3.031063e+01    8.126421e-01
  3.032650e+01    7.988670e-01
  3.034238e+01    7.943091e-01
  3.035825e+01    7.836481e-01
  3.037413e+01    7.905865e-01
  3.039000e+01    7.813765e-01
  3.040588e+01    7.835560e-01
  3.042176e+01    7.843068e-01
  3.043763e+01    8.109211e-01
  3.045351e+01    8.129764e-01
  3.046938e+01    7.722892e-01
  3.048526e+01    7.769169e-01
  3.050113e+01    7.856540e-01
  3.051701e+01    8.081005e-01
  3.053288e+01    8.043297e-01
  3.054876e+01    7.853950e-01
  3.056464e+01    7.715017e-01
  3.058051e+01    8.004862e-01
  3.059639e+01    7.709684e-01
  3.061226e+01    7.765239e-01
  3.062814e+01    7.689033e-01
  3.064401e+01    7.664277e-01
  3.065989e+01    7.803487e-01
  3.067577e+01    7.896912e-01
  3.069164e+01    7.873335e-01
  3.070752e+01    7.972016e-01
  3.072339e+01    7.838484e-01
  3.073927e+01    7.731001e-01
  3.075514e+01    7.780074e-01
  3.077102e+01    7.897230e-01
  3.078689e+01    7.928928e-01
  3.080277e+01    7.707500e-01
  3.081865e+01    7.857200e-01
  3.083452e+01    7.789596e-01
  3.085040e+01    7.566283e-01
  3.086627e+01    7.613476e-01
  3.088215e+01    7.799845e-01
  3.089802e+01    8.065196e-01
  3.091390e+01    7.837889e-01
  3.092977e+01    7.808008e-01
  3.094565e+01    7.603884e-01
  3.096153e+01    7.765638e-01
  3.097740e+01    7.996702e-01
  3.099328e+01    8.091320e-01
  3.100915e+01    8.068500e-01
  3.102503e+01    8.084559e-01
  3.104090e+01    8.027792e-01
  3.105678e+01    7.945598e-01
  3.107265e+01    7.749296e-01
  3.108853e+01    8.111848e-01
  3.110441e+01    8.024147e-01
  3.112028e+01    7.953131e-01
  3.113616e+01    8.060193e-01
  3.115203e+01    7.748163e-01
  3.116791e+01    7.752506e-01
  3.118378e+01    7.865320e-01
  3.119966e+01    8.032593e-01
  3.121553e+01    7.990448e-01
  3.123141e+01    7.801775e-01
  3.124729e+01    7.912203e-01
  3.126316e+01    7.936056e-01
  3.127904e+01    7.658018e-01
  3.129491e+01    7.795578e-01
  3.131079e+01    8.104567e-01
  3.132666e+01    8.068879e-01
  3.134254e+01    8.154475e-01
  3.135841e+01    7.982566e-01
  3.137429e+01    7.780869e-01
  3.139017e+01    8.034010e-01
  3.140604e+01    8.201314e-01
  3.142192e+01    8.263493e-01
  3.143779e+01    8.348174e-01
  3.145367e+01    8.130489e-01
  3.146954e+01    8.146899e-01
  3.148542e+01    8.083344e-01
  3.150129e+01    8.008204e-01
  3.151717e+01    8.265467e-01
  3.153305e+01    8.358411e-01
  3.154892e+01    8.353946e-01
  3.156480e+01    8.563775e-01
  3.158067e+01    8.842750e-01
  3.159655e+01    8.726020e-01
  3.161242e+01    8.784279e-01
  3.162830e+01    9.054992e-01
  3.164418e+01    9.089553e-01
  3.166005e+01    9.113486e-01
  3.167593e+01    9.421552e-01
  3.169180e+01    9.888256e-01
  3.170768e+01    1.024767e+00
  3.172355e+01    1.057951e+00
  3.173943e+01    1.085657e+00
  3.175530e+01    1.163214e+00
  3.177118e+01    1.264883e+00
  3.178706e+01    1.344276e+00
  3.180293e+01    1.431139e+00
  3.181881e+01    1.576260e+00
  3.183468e+01    1.671622e+00
  3.185056e+01    1.803110e+00
  3.186643e+01    1.926150e+00
  3.188231e+01    2.036866e+00
  3.189818e+01    2.090801e+00
  3.191406e+01    2.109039e+00
  3.192994e+01    2.048156e+00
  3.194581e+01    1.932031e+00
  3.196169e+01    1.880762e+00
  3.197756e+01    1.725174e+00
  3.199344e+01    1.549185e+00
  3.200931e+01    1.438883e+00
  3.202519e+01    1.340517e+00
  3.204106e+01    1.210853e+00
  3.205694e+01    1.164057e+00
  3.207282e+01    1.098350e+00
  3.208869e+01    1.022631e+00
  3.210457e+01    9.816974e-01
  3.212044e+01    9.584388e-01
  3.213632e+01    9.322162e-01
  3.215219e+01    9.261941e-01
  3.216807e+01    9.084654e-01
  3.218394e+01    8.643603e-01
  3.219982e+01    8.595285e-01
  3.221570e+01    8.879430e-01
  3.223157e+01    8.432255e-01
  3.224745e+01    8.100376e-01
  3.226332e+01    8.159789e-01
  3.227920e+01    8.289202e-01
  3.229507e+01    8.192402e-01
  3.231095e+01    7.970151e-01
  3.232682e+01    8.063280e-01
  3.234270e+01    7.830058e-01
  3.235858e+01    7.774589e-01
  3.237445e+01    8.265777e-01
  3.239033e+01    8.250624e-01
  3.240620e+01    8.097509e-01
  3.242208e+01    7.524842e-01
  3.243795e+01    7.751369e-01
  3.245383e+01    7.756281e-01
  3.246970e+01    7.492714e-01
  3.248558e+01    7.863253e-01
  3.250146e+01    7.612511e-01
  3.251733e+01    7.665951e-01
  3.253321e+01    7.653909e-01
  3.254908e+01    7.623492e-01
