# == pyFAI calibration ==
# Distance Sample to Detector: 0.3999999939076516 m
# PONI: 9.750e-02, 1.135e-01 m
# Rotations: -0.000175 0.000000 -0.000000 rad
# 
# == Fit2d calibration ==
# Distance Sample-beamCenter: 400.000 mm
# Center: x=1514.000, y=1300.000 pix
# Tilt: 0.010 deg  TiltPlanRot: 0.010 deg
# 
# Detector Detector	 Spline= None	 PixelSize= 7.500e-05, 7.500e-05 m
#    Detector has a mask: False 
#    Detector has a dark current: False 
#    detector has a flat field: False 
# 
# Wavelength: 6.888e-11 m
# Mask applied: user provided
# Dark current applied: False
# Flat field applied: False
# Polarization factor: 0.99
# Normalization factor: 1.0
# --> /home/myspot/data/2024_07_Rosario/Ru-CGO-ex/2024-07-27_003_Ru-CGO-ex_Reaction_dwell_000023_data_000016.dat
#       q_nm^-1             I 
  2.003187e-02    9.939197e-02
  3.590745e-02    2.962451e-01
  5.178302e-02    2.328101e-01
  6.765859e-02    1.016883e-01
  8.353417e-02    1.008196e-01
  9.940974e-02    1.507646e-01
  1.152853e-01    6.863071e-02
  1.311609e-01    2.051406e-04
  1.470365e-01    4.700136e-02
  1.629120e-01    9.338296e-02
  1.787876e-01    4.857132e-02
  1.946632e-01    2.068124e-02
  2.105388e-01    3.728186e-02
  2.264143e-01    3.389975e-02
  2.422899e-01    5.905874e-02
  2.581655e-01    1.488064e-02
  2.740411e-01    0.000000e+00
  2.899166e-01    5.428764e-03
  3.057922e-01    3.276558e-02
  3.216678e-01    4.646033e-02
  3.375433e-01    5.503816e-02
  3.534189e-01    4.220695e-02
  3.692945e-01    2.757927e-02
  3.851701e-01    6.248724e-02
  4.010456e-01    5.518455e-02
  4.169212e-01    2.616111e-02
  4.327968e-01    5.189931e-02
  4.486724e-01    3.039917e-02
  4.645479e-01    4.219203e-02
  4.804235e-01    4.949936e-02
  4.962991e-01    4.695760e-02
  5.121747e-01    4.042243e-02
  5.280502e-01    4.778413e-02
  5.439258e-01    3.453837e-02
  5.598014e-01    1.973200e-02
  5.756770e-01    4.997562e-02
  5.915525e-01    6.240083e-02
  6.074281e-01    6.044979e-02
  6.233037e-01    3.063020e-02
  6.391793e-01    3.419296e-02
  6.550548e-01    3.667554e-02
  6.709304e-01    3.075180e-02
  6.868060e-01    3.028378e-02
  7.026815e-01    5.206813e-02
  7.185571e-01    5.734302e-02
  7.344327e-01    6.202266e-02
  7.503083e-01    5.046638e-02
  7.661838e-01    5.360686e-02
  7.820594e-01    1.094774e-01
  7.979350e-01    1.528972e-01
  8.138106e-01    2.089158e-01
  8.296861e-01    3.459745e-01
  8.455617e-01    3.863313e-01
  8.614373e-01    4.660112e-01
  8.773129e-01    5.310324e-01
  8.931884e-01    5.513054e-01
  9.090640e-01    6.492147e-01
  9.249396e-01    7.326511e-01
  9.408152e-01    7.721923e-01
  9.566907e-01    8.491615e-01
  9.725663e-01    1.057715e+00
  9.884419e-01    1.198127e+00
  1.004317e+00    1.242640e+00
  1.020193e+00    1.329892e+00
  1.036069e+00    1.336299e+00
  1.051944e+00    1.362911e+00
  1.067820e+00    1.489907e+00
  1.083695e+00    1.478899e+00
  1.099571e+00    1.484420e+00
  1.115446e+00    1.536012e+00
  1.131322e+00    1.623529e+00
  1.147198e+00    1.644890e+00
  1.163073e+00    1.603104e+00
  1.178949e+00    1.688079e+00
  1.194824e+00    1.726015e+00
  1.210700e+00    1.983362e+00
  1.226575e+00    2.210760e+00
  1.242451e+00    2.367474e+00
  1.258327e+00    2.373130e+00
  1.274202e+00    2.578432e+00
  1.290078e+00    2.730610e+00
  1.305953e+00    2.517844e+00
  1.321829e+00    2.639048e+00
  1.337705e+00    2.732733e+00
  1.353580e+00    2.738021e+00
  1.369456e+00    2.753330e+00
  1.385331e+00    2.745579e+00
  1.401207e+00    2.862257e+00
  1.417082e+00    2.908911e+00
  1.432958e+00    2.829088e+00
  1.448834e+00    2.851187e+00
  1.464709e+00    3.037266e+00
  1.480585e+00    3.080055e+00
  1.496460e+00    2.910375e+00
  1.512336e+00    3.011863e+00
  1.528211e+00    3.073643e+00
  1.544087e+00    3.254472e+00
  1.559963e+00    3.210665e+00
  1.575838e+00    3.122056e+00
  1.591714e+00    3.141900e+00
  1.607589e+00    3.196897e+00
  1.623465e+00    3.181370e+00
  1.639340e+00    3.122868e+00
  1.655216e+00    3.194227e+00
  1.671092e+00    3.106380e+00
  1.686967e+00    3.165678e+00
  1.702843e+00    3.164484e+00
  1.718718e+00    3.110217e+00
  1.734594e+00    3.169423e+00
  1.750469e+00    3.124184e+00
  1.766345e+00    3.098305e+00
  1.782221e+00    2.939560e+00
  1.798096e+00    3.002099e+00
  1.813972e+00    3.230477e+00
  1.829847e+00    3.040255e+00
  1.845723e+00    3.008107e+00
  1.861598e+00    3.076433e+00
  1.877474e+00    3.203949e+00
  1.893350e+00    3.196579e+00
  1.909225e+00    3.125634e+00
  1.925101e+00    3.071211e+00
  1.940976e+00    2.954942e+00
  1.956852e+00    2.977875e+00
  1.972727e+00    3.043026e+00
  1.988603e+00    3.090050e+00
  2.004479e+00    3.073772e+00
  2.020354e+00    3.068256e+00
  2.036230e+00    3.010749e+00
  2.052105e+00    3.011873e+00
  2.067981e+00    3.059815e+00
  2.083856e+00    3.154100e+00
  2.099732e+00    3.083745e+00
  2.115608e+00    3.010079e+00
  2.131483e+00    2.922883e+00
  2.147359e+00    3.059679e+00
  2.163234e+00    3.062440e+00
  2.179110e+00    3.117243e+00
  2.194985e+00    2.995512e+00
  2.210861e+00    3.088085e+00
  2.226737e+00    3.103848e+00
  2.242612e+00    3.184175e+00
  2.258488e+00    3.106208e+00
  2.274363e+00    3.113237e+00
  2.290239e+00    3.115329e+00
  2.306115e+00    3.048467e+00
  2.321990e+00    3.091605e+00
  2.337866e+00    3.168598e+00
  2.353741e+00    3.191388e+00
  2.369617e+00    3.058266e+00
  2.385492e+00    3.075933e+00
  2.401368e+00    3.010318e+00
  2.417244e+00    3.154781e+00
  2.433119e+00    3.140451e+00
  2.448995e+00    3.123301e+00
  2.464870e+00    3.142085e+00
  2.480746e+00    3.198035e+00
  2.496621e+00    3.165380e+00
  2.512497e+00    3.222927e+00
  2.528373e+00    3.259351e+00
  2.544248e+00    3.306851e+00
  2.560124e+00    3.276676e+00
  2.575999e+00    3.384285e+00
  2.591875e+00    3.307432e+00
  2.607750e+00    3.188904e+00
  2.623626e+00    3.158221e+00
  2.639502e+00    3.194685e+00
  2.655377e+00    3.345018e+00
  2.671253e+00    3.318448e+00
  2.687128e+00    3.322485e+00
  2.703004e+00    3.254326e+00
  2.718879e+00    3.287965e+00
  2.734755e+00    3.318891e+00
  2.750631e+00    3.321599e+00
  2.766506e+00    3.271588e+00
  2.782382e+00    3.254501e+00
  2.798257e+00    3.320334e+00
  2.814133e+00    3.325079e+00
  2.830008e+00    3.310335e+00
  2.845884e+00    3.390709e+00
  2.861760e+00    3.255502e+00
  2.877635e+00    3.268764e+00
  2.893511e+00    3.320752e+00
  2.909386e+00    3.250912e+00
  2.925262e+00    3.261522e+00
  2.941137e+00    3.309966e+00
  2.957013e+00    3.320539e+00
  2.972889e+00    3.165259e+00
  2.988764e+00    3.240605e+00
  3.004640e+00    3.308335e+00
  3.020515e+00    3.302545e+00
  3.036391e+00    3.317582e+00
  3.052266e+00    3.298886e+00
  3.068142e+00    3.438112e+00
  3.084018e+00    3.363393e+00
  3.099893e+00    3.336089e+00
  3.115769e+00    3.311894e+00
  3.131644e+00    3.349144e+00
  3.147520e+00    3.427285e+00
  3.163395e+00    3.301980e+00
  3.179271e+00    3.245518e+00
  3.195147e+00    3.251005e+00
  3.211022e+00    3.412087e+00
  3.226898e+00    3.490652e+00
  3.242773e+00    3.416476e+00
  3.258649e+00    3.388067e+00
  3.274525e+00    3.272492e+00
  3.290400e+00    3.417923e+00
  3.306276e+00    3.475454e+00
  3.322151e+00    3.483945e+00
  3.338027e+00    3.383055e+00
  3.353902e+00    3.409266e+00
  3.369778e+00    3.470313e+00
  3.385654e+00    3.440030e+00
  3.401529e+00    3.399001e+00
  3.417405e+00    3.405682e+00
  3.433280e+00    3.467209e+00
  3.449156e+00    3.471377e+00
  3.465031e+00    3.516313e+00
  3.480907e+00    3.444701e+00
  3.496783e+00    3.398572e+00
  3.512658e+00    3.386048e+00
  3.528534e+00    3.422601e+00
  3.544409e+00    3.467106e+00
  3.560285e+00    3.455412e+00
  3.576160e+00    3.478682e+00
  3.592036e+00    3.481497e+00
  3.607912e+00    3.436524e+00
  3.623787e+00    3.390751e+00
  3.639663e+00    3.424909e+00
  3.655538e+00    3.507144e+00
  3.671414e+00    3.558270e+00
  3.687289e+00    3.516159e+00
  3.703165e+00    3.538747e+00
  3.719041e+00    3.519509e+00
  3.734916e+00    3.439676e+00
  3.750792e+00    3.444292e+00
  3.766667e+00    3.432414e+00
  3.782543e+00    3.445296e+00
  3.798418e+00    3.423518e+00
  3.814294e+00    3.508788e+00
  3.830170e+00    3.439501e+00
  3.846045e+00    3.421549e+00
  3.861921e+00    3.487308e+00
  3.877796e+00    3.504380e+00
  3.893672e+00    3.558784e+00
  3.909547e+00    3.556724e+00
  3.925423e+00    3.492231e+00
  3.941299e+00    3.456361e+00
  3.957174e+00    3.472990e+00
  3.973050e+00    3.542134e+00
  3.988925e+00    3.567064e+00
  4.004801e+00    3.509196e+00
  4.020676e+00    3.522240e+00
  4.036552e+00    3.520906e+00
  4.052428e+00    3.408446e+00
  4.068303e+00    3.513177e+00
  4.084179e+00    3.558273e+00
  4.100054e+00    3.536587e+00
  4.115930e+00    3.591763e+00
  4.131806e+00    3.602495e+00
  4.147681e+00    3.554260e+00
  4.163557e+00    3.531957e+00
  4.179432e+00    3.529854e+00
  4.195308e+00    3.494092e+00
  4.211183e+00    3.535037e+00
  4.227059e+00    3.597201e+00
  4.242935e+00    3.546292e+00
  4.258810e+00    3.482120e+00
  4.274686e+00    3.512377e+00
  4.290561e+00    3.591734e+00
  4.306437e+00    3.543036e+00
  4.322312e+00    3.612285e+00
  4.338188e+00    3.647469e+00
  4.354064e+00    3.634724e+00
  4.369939e+00    3.562392e+00
  4.385815e+00    3.548462e+00
  4.401690e+00    3.536764e+00
  4.417566e+00    3.552069e+00
  4.433441e+00    3.505121e+00
  4.449317e+00    3.625170e+00
  4.465193e+00    3.686962e+00
  4.481068e+00    3.620417e+00
  4.496944e+00    3.610108e+00
  4.512819e+00    3.678499e+00
  4.528695e+00    3.720558e+00
  4.544570e+00    3.628252e+00
  4.560446e+00    3.653784e+00
  4.576322e+00    3.619660e+00
  4.592197e+00    3.510962e+00
  4.608073e+00    3.582450e+00
  4.623948e+00    3.642859e+00
  4.639824e+00    3.741559e+00
  4.655699e+00    3.706851e+00
  4.671575e+00    3.709155e+00
  4.687451e+00    3.672250e+00
  4.703326e+00    3.638580e+00
  4.719202e+00    3.576420e+00
  4.735077e+00    3.620190e+00
  4.750953e+00    3.655956e+00
  4.766828e+00    3.585491e+00
  4.782704e+00    3.584514e+00
  4.798580e+00    3.673558e+00
  4.814455e+00    3.669257e+00
  4.830331e+00    3.611485e+00
  4.846206e+00    3.544867e+00
  4.862082e+00    3.617055e+00
  4.877957e+00    3.641441e+00
  4.893833e+00    3.635683e+00
  4.909709e+00    3.641596e+00
  4.925584e+00    3.516073e+00
  4.941460e+00    3.581170e+00
  4.957335e+00    3.609509e+00
  4.973211e+00    3.606817e+00
  4.989086e+00    3.689521e+00
  5.004962e+00    3.703206e+00
  5.020838e+00    3.697444e+00
  5.036713e+00    3.701078e+00
  5.052589e+00    3.619367e+00
  5.068464e+00    3.569913e+00
  5.084340e+00    3.687496e+00
  5.100216e+00    3.715928e+00
  5.116091e+00    3.688921e+00
  5.131967e+00    3.617734e+00
  5.147842e+00    3.633958e+00
  5.163718e+00    3.674875e+00
  5.179593e+00    3.715802e+00
  5.195469e+00    3.595076e+00
  5.211345e+00    3.651625e+00
  5.227220e+00    3.654562e+00
  5.243096e+00    3.683326e+00
  5.258971e+00    3.632393e+00
  5.274847e+00    3.665256e+00
  5.290722e+00    3.733440e+00
  5.306598e+00    3.703036e+00
  5.322474e+00    3.703966e+00
  5.338349e+00    3.714078e+00
  5.354225e+00    3.680414e+00
  5.370100e+00    3.618528e+00
  5.385976e+00    3.658265e+00
  5.401851e+00    3.679172e+00
  5.417727e+00    3.674316e+00
  5.433603e+00    3.627377e+00
  5.449478e+00    3.581296e+00
  5.465354e+00    3.566936e+00
  5.481229e+00    3.586277e+00
  5.497105e+00    3.685620e+00
  5.512980e+00    3.669235e+00
  5.528856e+00    3.641296e+00
  5.544732e+00    3.681542e+00
  5.560607e+00    3.600205e+00
  5.576483e+00    3.613129e+00
  5.592358e+00    3.629943e+00
  5.608234e+00    3.620325e+00
  5.624109e+00    3.620202e+00
  5.639985e+00    3.572799e+00
  5.655861e+00    3.583993e+00
  5.671736e+00    3.527782e+00
  5.687612e+00    3.567374e+00
  5.703487e+00    3.570333e+00
  5.719363e+00    3.606346e+00
  5.735238e+00    3.565055e+00
  5.751114e+00    3.598611e+00
  5.766990e+00    3.605385e+00
  5.782865e+00    3.657550e+00
  5.798741e+00    3.584437e+00
  5.814616e+00    3.584580e+00
  5.830492e+00    3.617016e+00
  5.846367e+00    3.646755e+00
  5.862243e+00    3.574828e+00
  5.878119e+00    3.493417e+00
  5.893994e+00    3.603050e+00
  5.909870e+00    3.632177e+00
  5.925745e+00    3.496824e+00
  5.941621e+00    3.506920e+00
  5.957497e+00    3.599725e+00
  5.973372e+00    3.554898e+00
  5.989248e+00    3.534228e+00
  6.005123e+00    3.538562e+00
  6.020999e+00    3.546218e+00
  6.036874e+00    3.545750e+00
  6.052750e+00    3.506520e+00
  6.068626e+00    3.533651e+00
  6.084501e+00    3.620245e+00
  6.100377e+00    3.490746e+00
  6.116252e+00    3.535447e+00
  6.132128e+00    3.554537e+00
  6.148003e+00    3.561125e+00
  6.163879e+00    3.659036e+00
  6.179755e+00    3.613106e+00
  6.195630e+00    3.543375e+00
  6.211506e+00    3.486643e+00
  6.227381e+00    3.535410e+00
  6.243257e+00    3.505323e+00
  6.259132e+00    3.589479e+00
  6.275008e+00    3.610198e+00
  6.290884e+00    3.587006e+00
  6.306759e+00    3.577034e+00
  6.322635e+00    3.564607e+00
  6.338510e+00    3.601954e+00
  6.354386e+00    3.575966e+00
  6.370261e+00    3.546523e+00
  6.386137e+00    3.569750e+00
  6.402013e+00    3.586854e+00
  6.417888e+00    3.548541e+00
  6.433764e+00    3.482393e+00
  6.449639e+00    3.439220e+00
  6.465515e+00    3.528302e+00
  6.481390e+00    3.568668e+00
  6.497266e+00    3.591161e+00
  6.513142e+00    3.546811e+00
  6.529017e+00    3.524182e+00
  6.544893e+00    3.579895e+00
  6.560768e+00    3.589389e+00
  6.576644e+00    3.587480e+00
  6.592519e+00    3.629888e+00
  6.608395e+00    3.621984e+00
  6.624271e+00    3.662589e+00
  6.640146e+00    3.625532e+00
  6.656022e+00    3.598994e+00
  6.671897e+00    3.620553e+00
  6.687773e+00    3.524395e+00
  6.703648e+00    3.585908e+00
  6.719524e+00    3.609553e+00
  6.735400e+00    3.572384e+00
  6.751275e+00    3.634919e+00
  6.767151e+00    3.596811e+00
  6.783026e+00    3.576358e+00
  6.798902e+00    3.560498e+00
  6.814777e+00    3.484473e+00
  6.830653e+00    3.643567e+00
  6.846529e+00    3.640469e+00
  6.862404e+00    3.646228e+00
  6.878280e+00    3.654634e+00
  6.894155e+00    3.585190e+00
  6.910031e+00    3.535954e+00
  6.925907e+00    3.511653e+00
  6.941782e+00    3.505249e+00
  6.957658e+00    3.498078e+00
  6.973533e+00    3.473657e+00
  6.989409e+00    3.487393e+00
  7.005284e+00    3.544332e+00
  7.021160e+00    3.577774e+00
  7.037036e+00    3.476586e+00
  7.052911e+00    3.491538e+00
  7.068787e+00    3.555700e+00
  7.084662e+00    3.552100e+00
  7.100538e+00    3.498026e+00
  7.116413e+00    3.540411e+00
  7.132289e+00    3.512643e+00
  7.148165e+00    3.486488e+00
  7.164040e+00    3.481836e+00
  7.179916e+00    3.549579e+00
  7.195791e+00    3.527849e+00
  7.211667e+00    3.533028e+00
  7.227542e+00    3.496968e+00
  7.243418e+00    3.511237e+00
  7.259294e+00    3.538980e+00
  7.275169e+00    3.505803e+00
  7.291045e+00    3.477997e+00
  7.306920e+00    3.446584e+00
  7.322796e+00    3.431921e+00
  7.338671e+00    3.540774e+00
  7.354547e+00    3.545391e+00
  7.370423e+00    3.547707e+00
  7.386298e+00    3.551270e+00
  7.402174e+00    3.549317e+00
  7.418049e+00    3.587229e+00
  7.433925e+00    3.533101e+00
  7.449800e+00    3.539405e+00
  7.465676e+00    3.585940e+00
  7.481552e+00    3.500215e+00
  7.497427e+00    3.507873e+00
  7.513303e+00    3.512127e+00
  7.529178e+00    3.559263e+00
  7.545054e+00    3.518538e+00
  7.560929e+00    3.478848e+00
  7.576805e+00    3.404265e+00
  7.592681e+00    3.464851e+00
  7.608556e+00    3.435951e+00
  7.624432e+00    3.469705e+00
  7.640307e+00    3.506617e+00
  7.656183e+00    3.451805e+00
  7.672058e+00    3.565486e+00
  7.687934e+00    3.474590e+00
  7.703810e+00    3.475785e+00
  7.719685e+00    3.487138e+00
  7.735561e+00    3.486544e+00
  7.751436e+00    3.414344e+00
  7.767312e+00    3.468758e+00
  7.783187e+00    3.417611e+00
  7.799063e+00    3.391916e+00
  7.814939e+00    3.430982e+00
  7.830814e+00    3.468730e+00
  7.846690e+00    3.397862e+00
  7.862565e+00    3.384500e+00
  7.878441e+00    3.454908e+00
  7.894317e+00    3.516839e+00
  7.910192e+00    3.467655e+00
  7.926068e+00    3.432475e+00
  7.941943e+00    3.358425e+00
  7.957819e+00    3.393163e+00
  7.973694e+00    3.460199e+00
  7.989570e+00    3.447994e+00
  8.005446e+00    3.417331e+00
  8.021321e+00    3.430170e+00
  8.037197e+00    3.421184e+00
  8.053072e+00    3.366778e+00
  8.068948e+00    3.400072e+00
  8.084823e+00    3.438097e+00
  8.100699e+00    3.461289e+00
  8.116575e+00    3.517906e+00
  8.132450e+00    3.492682e+00
  8.148326e+00    3.471622e+00
  8.164201e+00    3.411250e+00
  8.180077e+00    3.391297e+00
  8.195952e+00    3.466535e+00
  8.211828e+00    3.524027e+00
  8.227704e+00    3.452724e+00
  8.243579e+00    3.407799e+00
  8.259455e+00    3.423351e+00
  8.275330e+00    3.429285e+00
  8.291206e+00    3.399979e+00
  8.307081e+00    3.388666e+00
  8.322957e+00    3.371002e+00
  8.338833e+00    3.375202e+00
  8.354708e+00    3.402071e+00
  8.370584e+00    3.399419e+00
  8.386459e+00    3.412432e+00
  8.402335e+00    3.404310e+00
  8.418210e+00    3.374771e+00
  8.434086e+00    3.397971e+00
  8.449962e+00    3.335588e+00
  8.465837e+00    3.351422e+00
  8.481713e+00    3.319780e+00
  8.497588e+00    3.326850e+00
  8.513464e+00    3.344836e+00
  8.529339e+00    3.323656e+00
  8.545215e+00    3.259739e+00
  8.561091e+00    3.392783e+00
  8.576966e+00    3.407063e+00
  8.592842e+00    3.355070e+00
  8.608717e+00    3.386286e+00
  8.624593e+00    3.324299e+00
  8.640468e+00    3.332888e+00
  8.656344e+00    3.369086e+00
  8.672220e+00    3.321336e+00
  8.688095e+00    3.352397e+00
  8.703971e+00    3.323087e+00
  8.719846e+00    3.342714e+00
  8.735722e+00    3.338892e+00
  8.751598e+00    3.275625e+00
  8.767473e+00    3.269207e+00
  8.783349e+00    3.343905e+00
  8.799224e+00    3.319810e+00
  8.815100e+00    3.280150e+00
  8.830975e+00    3.317214e+00
  8.846851e+00    3.350512e+00
  8.862727e+00    3.364408e+00
  8.878602e+00    3.364657e+00
  8.894478e+00    3.301599e+00
  8.910353e+00    3.292143e+00
  8.926229e+00    3.304593e+00
  8.942104e+00    3.256463e+00
  8.957980e+00    3.351971e+00
  8.973856e+00    3.353000e+00
  8.989731e+00    3.282263e+00
  9.005607e+00    3.298552e+00
  9.021482e+00    3.274417e+00
  9.037358e+00    3.323877e+00
  9.053233e+00    3.323448e+00
  9.069109e+00    3.281382e+00
  9.084985e+00    3.279462e+00
  9.100860e+00    3.293567e+00
  9.116736e+00    3.220323e+00
  9.132611e+00    3.214506e+00
  9.148487e+00    3.309542e+00
  9.164362e+00    3.253608e+00
  9.180238e+00    3.261903e+00
  9.196114e+00    3.246714e+00
  9.211989e+00    3.284905e+00
  9.227865e+00    3.183086e+00
  9.243740e+00    3.189048e+00
  9.259616e+00    3.188520e+00
  9.275491e+00    3.189197e+00
  9.291367e+00    3.223701e+00
  9.307243e+00    3.246796e+00
  9.323118e+00    3.267646e+00
  9.338994e+00    3.236930e+00
  9.354869e+00    3.181891e+00
  9.370745e+00    3.250506e+00
  9.386620e+00    3.250796e+00
  9.402496e+00    3.235861e+00
  9.418372e+00    3.252063e+00
  9.434247e+00    3.294963e+00
  9.450123e+00    3.191918e+00
  9.465998e+00    3.199801e+00
  9.481874e+00    3.217367e+00
  9.497749e+00    3.174113e+00
  9.513625e+00    3.207675e+00
  9.529501e+00    3.167525e+00
  9.545376e+00    3.215831e+00
  9.561252e+00    3.215679e+00
  9.577127e+00    3.232568e+00
  9.593003e+00    3.250181e+00
  9.608878e+00    3.227793e+00
  9.624754e+00    3.223658e+00
  9.640630e+00    3.203902e+00
  9.656505e+00    3.160928e+00
  9.672381e+00    3.192665e+00
  9.688256e+00    3.262045e+00
  9.704132e+00    3.239229e+00
  9.720008e+00    3.217591e+00
  9.735883e+00    3.238820e+00
  9.751759e+00    3.196835e+00
  9.767634e+00    3.161599e+00
  9.783510e+00    3.202109e+00
  9.799385e+00    3.149903e+00
  9.815261e+00    3.129024e+00
  9.831137e+00    3.161380e+00
  9.847012e+00    3.115596e+00
  9.862888e+00    3.082299e+00
  9.878763e+00    3.127861e+00
  9.894639e+00    3.163329e+00
  9.910514e+00    3.150989e+00
  9.926390e+00    3.130116e+00
  9.942266e+00    3.144324e+00
  9.958141e+00    3.114629e+00
  9.974017e+00    3.077383e+00
  9.989892e+00    3.094644e+00
  1.000577e+01    3.072517e+00
  1.002164e+01    3.083333e+00
  1.003752e+01    3.073428e+00
  1.005339e+01    3.072889e+00
  1.006927e+01    3.095013e+00
  1.008515e+01    3.014359e+00
  1.010102e+01    3.012375e+00
  1.011690e+01    3.043926e+00
  1.013277e+01    3.068606e+00
  1.014865e+01    3.118121e+00
  1.016452e+01    3.094099e+00
  1.018040e+01    3.119922e+00
  1.019627e+01    3.068375e+00
  1.021215e+01    3.091428e+00
  1.022803e+01    3.062373e+00
  1.024390e+01    3.105689e+00
  1.025978e+01    3.081197e+00
  1.027565e+01    3.067231e+00
  1.029153e+01    3.026554e+00
  1.030740e+01    3.025374e+00
  1.032328e+01    3.078515e+00
  1.033915e+01    3.102483e+00
  1.035503e+01    3.064652e+00
  1.037091e+01    3.034181e+00
  1.038678e+01    3.054988e+00
  1.040266e+01    3.046595e+00
  1.041853e+01    3.040617e+00
  1.043441e+01    3.006451e+00
  1.045028e+01    3.026522e+00
  1.046616e+01    3.001825e+00
  1.048204e+01    3.003661e+00
  1.049791e+01    2.990780e+00
  1.051379e+01    2.943913e+00
  1.052966e+01    2.999312e+00
  1.054554e+01    2.961015e+00
  1.056141e+01    2.938642e+00
  1.057729e+01    2.997157e+00
  1.059316e+01    3.015320e+00
  1.060904e+01    2.991203e+00
  1.062492e+01    2.956276e+00
  1.064079e+01    2.934770e+00
  1.065667e+01    2.944571e+00
  1.067254e+01    2.960270e+00
  1.068842e+01    3.014431e+00
  1.070429e+01    3.026759e+00
  1.072017e+01    2.956325e+00
  1.073604e+01    2.914946e+00
  1.075192e+01    2.941394e+00
  1.076780e+01    3.006418e+00
  1.078367e+01    2.960447e+00
  1.079955e+01    2.949992e+00
  1.081542e+01    2.988983e+00
  1.083130e+01    3.010586e+00
  1.084717e+01    2.947239e+00
  1.086305e+01    2.897918e+00
  1.087892e+01    2.911183e+00
  1.089480e+01    2.950614e+00
  1.091068e+01    2.957343e+00
  1.092655e+01    2.952927e+00
  1.094243e+01    2.887170e+00
  1.095830e+01    2.885442e+00
  1.097418e+01    2.916954e+00
  1.099005e+01    2.911940e+00
  1.100593e+01    2.893879e+00
  1.102180e+01    2.876415e+00
  1.103768e+01    2.907673e+00
  1.105356e+01    2.890815e+00
  1.106943e+01    2.846720e+00
  1.108531e+01    2.885093e+00
  1.110118e+01    2.892909e+00
  1.111706e+01    2.863254e+00
  1.113293e+01    2.898950e+00
  1.114881e+01    2.870089e+00
  1.116468e+01    2.850703e+00
  1.118056e+01    2.861187e+00
  1.119644e+01    2.838664e+00
  1.121231e+01    2.881098e+00
  1.122819e+01    2.864573e+00
  1.124406e+01    2.838207e+00
  1.125994e+01    2.840022e+00
  1.127581e+01    2.845660e+00
  1.129169e+01    2.834276e+00
  1.130756e+01    2.848527e+00
  1.132344e+01    2.862091e+00
  1.133932e+01    2.871515e+00
  1.135519e+01    2.844147e+00
  1.137107e+01    2.842622e+00
  1.138694e+01    2.759854e+00
  1.140282e+01    2.752546e+00
  1.141869e+01    2.791645e+00
  1.143457e+01    2.867702e+00
  1.145045e+01    2.821313e+00
  1.146632e+01    2.794254e+00
  1.148220e+01    2.819414e+00
  1.149807e+01    2.795739e+00
  1.151395e+01    2.785156e+00
  1.152982e+01    2.732167e+00
  1.154570e+01    2.783265e+00
  1.156157e+01    2.804151e+00
  1.157745e+01    2.804819e+00
  1.159333e+01    2.756331e+00
  1.160920e+01    2.743225e+00
  1.162508e+01    2.800668e+00
  1.164095e+01    2.761894e+00
  1.165683e+01    2.753921e+00
  1.167270e+01    2.745704e+00
  1.168858e+01    2.771542e+00
  1.170445e+01    2.780925e+00
  1.172033e+01    2.748218e+00
  1.173621e+01    2.750978e+00
  1.175208e+01    2.746003e+00
  1.176796e+01    2.733204e+00
  1.178383e+01    2.716827e+00
  1.179971e+01    2.765181e+00
  1.181558e+01    2.793883e+00
  1.183146e+01    2.753901e+00
  1.184733e+01    2.720196e+00
  1.186321e+01    2.751703e+00
  1.187909e+01    2.747836e+00
  1.189496e+01    2.753963e+00
  1.191084e+01    2.734517e+00
  1.192671e+01    2.742729e+00
  1.194259e+01    2.741274e+00
  1.195846e+01    2.758353e+00
  1.197434e+01    2.699077e+00
  1.199021e+01    2.694693e+00
  1.200609e+01    2.681448e+00
  1.202197e+01    2.702810e+00
  1.203784e+01    2.728773e+00
  1.205372e+01    2.702454e+00
  1.206959e+01    2.675301e+00
  1.208547e+01    2.718903e+00
  1.210134e+01    2.701147e+00
  1.211722e+01    2.707823e+00
  1.213309e+01    2.700603e+00
  1.214897e+01    2.668331e+00
  1.216485e+01    2.728940e+00
  1.218072e+01    2.682448e+00
  1.219660e+01    2.667520e+00
  1.221247e+01    2.698040e+00
  1.222835e+01    2.730072e+00
  1.224422e+01    2.692874e+00
  1.226010e+01    2.638424e+00
  1.227597e+01    2.685803e+00
  1.229185e+01    2.688241e+00
  1.230773e+01    2.714317e+00
  1.232360e+01    2.709837e+00
  1.233948e+01    2.718891e+00
  1.235535e+01    2.715084e+00
  1.237123e+01    2.718454e+00
  1.238710e+01    2.675624e+00
  1.240298e+01    2.711041e+00
  1.241886e+01    2.695398e+00
  1.243473e+01    2.703925e+00
  1.245061e+01    2.706395e+00
  1.246648e+01    2.727047e+00
  1.248236e+01    2.693858e+00
  1.249823e+01    2.716094e+00
  1.251411e+01    2.747957e+00
  1.252998e+01    2.776741e+00
  1.254586e+01    2.739089e+00
  1.256174e+01    2.757774e+00
  1.257761e+01    2.750891e+00
  1.259349e+01    2.753024e+00
  1.260936e+01    2.743534e+00
  1.262524e+01    2.755026e+00
  1.264111e+01    2.835557e+00
  1.265699e+01    2.829203e+00
  1.267286e+01    2.821108e+00
  1.268874e+01    2.854274e+00
  1.270462e+01    2.833798e+00
  1.272049e+01    2.833260e+00
  1.273637e+01    2.864311e+00
  1.275224e+01    2.862208e+00
  1.276812e+01    2.896587e+00
  1.278399e+01    2.996696e+00
  1.279987e+01    3.000356e+00
  1.281574e+01    3.016385e+00
  1.283162e+01    3.082727e+00
  1.284750e+01    3.199108e+00
  1.286337e+01    3.247596e+00
  1.287925e+01    3.352818e+00
  1.289512e+01    3.508135e+00
  1.291100e+01    3.655263e+00
  1.292687e+01    3.891757e+00
  1.294275e+01    4.049610e+00
  1.295862e+01    4.344231e+00
  1.297450e+01    4.757025e+00
  1.299038e+01    5.321783e+00
  1.300625e+01    5.966170e+00
  1.302213e+01    6.749731e+00
  1.303800e+01    7.639546e+00
  1.305388e+01    8.902853e+00
  1.306975e+01    1.026215e+01
  1.308563e+01    1.152931e+01
  1.310150e+01    1.271951e+01
  1.311738e+01    1.378416e+01
  1.313326e+01    1.483037e+01
  1.314913e+01    1.556213e+01
  1.316501e+01    1.618041e+01
  1.318088e+01    1.636098e+01
  1.319676e+01    1.570883e+01
  1.321263e+01    1.426724e+01
  1.322851e+01    1.251652e+01
  1.324438e+01    1.078496e+01
  1.326026e+01    9.165652e+00
  1.327614e+01    7.836476e+00
  1.329201e+01    6.802515e+00
  1.330789e+01    6.045278e+00
  1.332376e+01    5.400763e+00
  1.333964e+01    4.836776e+00
  1.335551e+01    4.464075e+00
  1.337139e+01    4.134059e+00
  1.338727e+01    3.861574e+00
  1.340314e+01    3.683616e+00
  1.341902e+01    3.478782e+00
  1.343489e+01    3.354329e+00
  1.345077e+01    3.274371e+00
  1.346664e+01    3.126414e+00
  1.348252e+01    3.031760e+00
  1.349839e+01    2.991582e+00
  1.351427e+01    2.941313e+00
  1.353015e+01    2.858068e+00
  1.354602e+01    2.817677e+00
  1.356190e+01    2.768420e+00
  1.357777e+01    2.733669e+00
  1.359365e+01    2.688659e+00
  1.360952e+01    2.685412e+00
  1.362540e+01    2.656690e+00
  1.364127e+01    2.616059e+00
  1.365715e+01    2.625579e+00
  1.367303e+01    2.573461e+00
  1.368890e+01    2.579512e+00
  1.370478e+01    2.547153e+00
  1.372065e+01    2.526534e+00
  1.373653e+01    2.526945e+00
  1.375240e+01    2.477582e+00
  1.376828e+01    2.438005e+00
  1.378415e+01    2.451274e+00
  1.380003e+01    2.492505e+00
  1.381591e+01    2.464790e+00
  1.383178e+01    2.475944e+00
  1.384766e+01    2.430601e+00
  1.386353e+01    2.449622e+00
  1.387941e+01    2.446399e+00
  1.389528e+01    2.399749e+00
  1.391116e+01    2.385506e+00
  1.392703e+01    2.377197e+00
  1.394291e+01    2.358008e+00
  1.395879e+01    2.390506e+00
  1.397466e+01    2.436199e+00
  1.399054e+01    2.397768e+00
  1.400641e+01    2.379477e+00
  1.402229e+01    2.367925e+00
  1.403816e+01    2.370242e+00
  1.405404e+01    2.338310e+00
  1.406991e+01    2.338099e+00
  1.408579e+01    2.346221e+00
  1.410167e+01    2.312279e+00
  1.411754e+01    2.317530e+00
  1.413342e+01    2.284270e+00
  1.414929e+01    2.330788e+00
  1.416517e+01    2.334908e+00
  1.418104e+01    2.276180e+00
  1.419692e+01    2.306201e+00
  1.421279e+01    2.302447e+00
  1.422867e+01    2.314300e+00
  1.424455e+01    2.339142e+00
  1.426042e+01    2.260499e+00
  1.427630e+01    2.282269e+00
  1.429217e+01    2.303419e+00
  1.430805e+01    2.243454e+00
  1.432392e+01    2.250621e+00
  1.433980e+01    2.263946e+00
  1.435568e+01    2.242061e+00
  1.437155e+01    2.270988e+00
  1.438743e+01    2.272703e+00
  1.440330e+01    2.236215e+00
  1.441918e+01    2.222545e+00
  1.443505e+01    2.231748e+00
  1.445093e+01    2.234348e+00
  1.446680e+01    2.239228e+00
  1.448268e+01    2.188638e+00
  1.449856e+01    2.183256e+00
  1.451443e+01    2.188764e+00
  1.453031e+01    2.199579e+00
  1.454618e+01    2.224312e+00
  1.456206e+01    2.239303e+00
  1.457793e+01    2.227111e+00
  1.459381e+01    2.187757e+00
  1.460968e+01    2.214742e+00
  1.462556e+01    2.200354e+00
  1.464144e+01    2.186952e+00
  1.465731e+01    2.186406e+00
  1.467319e+01    2.196335e+00
  1.468906e+01    2.177509e+00
  1.470494e+01    2.213773e+00
  1.472081e+01    2.202877e+00
  1.473669e+01    2.169176e+00
  1.475256e+01    2.186207e+00
  1.476844e+01    2.196314e+00
  1.478432e+01    2.207954e+00
  1.480019e+01    2.189411e+00
  1.481607e+01    2.207392e+00
  1.483194e+01    2.194494e+00
  1.484782e+01    2.203824e+00
  1.486369e+01    2.232409e+00
  1.487957e+01    2.200805e+00
  1.489544e+01    2.213506e+00
  1.491132e+01    2.248817e+00
  1.492720e+01    2.237538e+00
  1.494307e+01    2.267957e+00
  1.495895e+01    2.303410e+00
  1.497482e+01    2.331919e+00
  1.499070e+01    2.405622e+00
  1.500657e+01    2.451181e+00
  1.502245e+01    2.501273e+00
  1.503832e+01    2.576091e+00
  1.505420e+01    2.697407e+00
  1.507008e+01    2.822644e+00
  1.508595e+01    3.004134e+00
  1.510183e+01    3.251437e+00
  1.511770e+01    3.507429e+00
  1.513358e+01    3.840362e+00
  1.514945e+01    4.187127e+00
  1.516533e+01    4.557241e+00
  1.518120e+01    4.834280e+00
  1.519708e+01    5.143454e+00
  1.521296e+01    5.404987e+00
  1.522883e+01    5.591945e+00
  1.524471e+01    5.706386e+00
  1.526058e+01    5.786229e+00
  1.527646e+01    5.731609e+00
  1.529233e+01    5.487625e+00
  1.530821e+01    5.121543e+00
  1.532409e+01    4.695936e+00
  1.533996e+01    4.239984e+00
  1.535584e+01    3.775510e+00
  1.537171e+01    3.393277e+00
  1.538759e+01    3.136410e+00
  1.540346e+01    2.947163e+00
  1.541934e+01    2.771480e+00
  1.543521e+01    2.643507e+00
  1.545109e+01    2.534960e+00
  1.546697e+01    2.451499e+00
  1.548284e+01    2.340269e+00
  1.549872e+01    2.305848e+00
  1.551459e+01    2.236684e+00
  1.553047e+01    2.222235e+00
  1.554634e+01    2.179730e+00
  1.556222e+01    2.160270e+00
  1.557809e+01    2.142370e+00
  1.559397e+01    2.068389e+00
  1.560985e+01    2.071416e+00
  1.562572e+01    2.071428e+00
  1.564160e+01    2.033135e+00
  1.565747e+01    2.033038e+00
  1.567335e+01    2.027609e+00
  1.568922e+01    2.017719e+00
  1.570510e+01    2.029234e+00
  1.572097e+01    2.001216e+00
  1.573685e+01    1.962570e+00
  1.575273e+01    1.971541e+00
  1.576860e+01    2.008250e+00
  1.578448e+01    1.953158e+00
  1.580035e+01    1.956625e+00
  1.581623e+01    1.929101e+00
  1.583210e+01    1.946526e+00
  1.584798e+01    1.919906e+00
  1.586385e+01    1.922082e+00
  1.587973e+01    1.937981e+00
  1.589561e+01    1.961818e+00
  1.591148e+01    1.935684e+00
  1.592736e+01    1.908959e+00
  1.594323e+01    1.895729e+00
  1.595911e+01    1.869032e+00
  1.597498e+01    1.855580e+00
  1.599086e+01    1.873833e+00
  1.600673e+01    1.897625e+00
  1.602261e+01    1.849009e+00
  1.603849e+01    1.849305e+00
  1.605436e+01    1.868151e+00
  1.607024e+01    1.894833e+00
  1.608611e+01    1.853525e+00
  1.610199e+01    1.825430e+00
  1.611786e+01    1.842079e+00
  1.613374e+01    1.846169e+00
  1.614961e+01    1.823162e+00
  1.616549e+01    1.837988e+00
  1.618137e+01    1.849185e+00
  1.619724e+01    1.816963e+00
  1.621312e+01    1.804454e+00
  1.622899e+01    1.833630e+00
  1.624487e+01    1.825609e+00
  1.626074e+01    1.829710e+00
  1.627662e+01    1.805270e+00
  1.629250e+01    1.789658e+00
  1.630837e+01    1.767208e+00
  1.632425e+01    1.799474e+00
  1.634012e+01    1.828903e+00
  1.635600e+01    1.823191e+00
  1.637187e+01    1.809096e+00
  1.638775e+01    1.778559e+00
  1.640362e+01    1.773222e+00
  1.641950e+01    1.751682e+00
  1.643538e+01    1.769197e+00
  1.645125e+01    1.781276e+00
  1.646713e+01    1.786182e+00
  1.648300e+01    1.765956e+00
  1.649888e+01    1.761362e+00
  1.651475e+01    1.762610e+00
  1.653063e+01    1.737252e+00
  1.654650e+01    1.730214e+00
  1.656238e+01    1.738228e+00
  1.657826e+01    1.750078e+00
  1.659413e+01    1.725243e+00
  1.661001e+01    1.720578e+00
  1.662588e+01    1.746801e+00
  1.664176e+01    1.737358e+00
  1.665763e+01    1.739115e+00
  1.667351e+01    1.739191e+00
  1.668938e+01    1.712062e+00
  1.670526e+01    1.727751e+00
  1.672114e+01    1.712390e+00
  1.673701e+01    1.714429e+00
  1.675289e+01    1.736378e+00
  1.676876e+01    1.749256e+00
  1.678464e+01    1.722433e+00
  1.680051e+01    1.681570e+00
  1.681639e+01    1.663282e+00
  1.683226e+01    1.704175e+00
  1.684814e+01    1.742821e+00
  1.686402e+01    1.717442e+00
  1.687989e+01    1.707297e+00
  1.689577e+01    1.712667e+00
  1.691164e+01    1.675794e+00
  1.692752e+01    1.682684e+00
  1.694339e+01    1.711088e+00
  1.695927e+01    1.685776e+00
  1.697514e+01    1.657154e+00
  1.699102e+01    1.676218e+00
  1.700690e+01    1.660314e+00
  1.702277e+01    1.647787e+00
  1.703865e+01    1.688297e+00
  1.705452e+01    1.677505e+00
  1.707040e+01    1.671080e+00
  1.708627e+01    1.659968e+00
  1.710215e+01    1.638961e+00
  1.711802e+01    1.660581e+00
  1.713390e+01    1.632786e+00
  1.714978e+01    1.657018e+00
  1.716565e+01    1.677355e+00
  1.718153e+01    1.641875e+00
  1.719740e+01    1.660329e+00
  1.721328e+01    1.643681e+00
  1.722915e+01    1.652853e+00
  1.724503e+01    1.654093e+00
  1.726091e+01    1.608778e+00
  1.727678e+01    1.623168e+00
  1.729266e+01    1.656232e+00
  1.730853e+01    1.645181e+00
  1.732441e+01    1.648551e+00
  1.734028e+01    1.611125e+00
  1.735616e+01    1.604623e+00
  1.737203e+01    1.624885e+00
  1.738791e+01    1.618997e+00
  1.740379e+01    1.599046e+00
  1.741966e+01    1.569200e+00
  1.743554e+01    1.582982e+00
  1.745141e+01    1.620645e+00
  1.746729e+01    1.585649e+00
  1.748316e+01    1.582235e+00
  1.749904e+01    1.597077e+00
  1.751491e+01    1.581075e+00
  1.753079e+01    1.580851e+00
  1.754667e+01    1.591982e+00
  1.756254e+01    1.575857e+00
  1.757842e+01    1.580109e+00
  1.759429e+01    1.596419e+00
  1.761017e+01    1.598792e+00
  1.762604e+01    1.563835e+00
  1.764192e+01    1.552677e+00
  1.765779e+01    1.562510e+00
  1.767367e+01    1.569379e+00
  1.768955e+01    1.551858e+00
  1.770542e+01    1.551529e+00
  1.772130e+01    1.581281e+00
  1.773717e+01    1.550360e+00
  1.775305e+01    1.557343e+00
  1.776892e+01    1.578743e+00
  1.778480e+01    1.540728e+00
  1.780067e+01    1.553228e+00
  1.781655e+01    1.541777e+00
  1.783243e+01    1.549126e+00
  1.784830e+01    1.521091e+00
  1.786418e+01    1.519494e+00
  1.788005e+01    1.552489e+00
  1.789593e+01    1.548518e+00
  1.791180e+01    1.524668e+00
  1.792768e+01    1.551296e+00
  1.794355e+01    1.555272e+00
  1.795943e+01    1.517410e+00
  1.797531e+01    1.534325e+00
  1.799118e+01    1.546716e+00
  1.800706e+01    1.528376e+00
  1.802293e+01    1.509691e+00
  1.803881e+01    1.530578e+00
  1.805468e+01    1.539011e+00
  1.807056e+01    1.514367e+00
  1.808643e+01    1.510953e+00
  1.810231e+01    1.518325e+00
  1.811819e+01    1.490934e+00
  1.813406e+01    1.496974e+00
  1.814994e+01    1.479786e+00
  1.816581e+01    1.489576e+00
  1.818169e+01    1.488420e+00
  1.819756e+01    1.487201e+00
  1.821344e+01    1.484096e+00
  1.822932e+01    1.503356e+00
  1.824519e+01    1.501137e+00
  1.826107e+01    1.478097e+00
  1.827694e+01    1.458113e+00
  1.829282e+01    1.466074e+00
  1.830869e+01    1.454696e+00
  1.832457e+01    1.438229e+00
  1.834044e+01    1.449558e+00
  1.835632e+01    1.472485e+00
  1.837220e+01    1.448682e+00
  1.838807e+01    1.460298e+00
  1.840395e+01    1.444554e+00
  1.841982e+01    1.447655e+00
  1.843570e+01    1.474819e+00
  1.845157e+01    1.433692e+00
  1.846745e+01    1.431627e+00
  1.848332e+01    1.467030e+00
  1.849920e+01    1.440858e+00
  1.851508e+01    1.447073e+00
  1.853095e+01    1.436951e+00
  1.854683e+01    1.452044e+00
  1.856270e+01    1.458243e+00
  1.857858e+01    1.456102e+00
  1.859445e+01    1.424204e+00
  1.861033e+01    1.416094e+00
  1.862620e+01    1.425896e+00
  1.864208e+01    1.421617e+00
  1.865796e+01    1.429358e+00
  1.867383e+01    1.428871e+00
  1.868971e+01    1.418666e+00
  1.870558e+01    1.422514e+00
  1.872146e+01    1.417850e+00
  1.873733e+01    1.433623e+00
  1.875321e+01    1.407558e+00
  1.876908e+01    1.460229e+00
  1.878496e+01    1.433942e+00
  1.880084e+01    1.396407e+00
  1.881671e+01    1.416253e+00
  1.883259e+01    1.434355e+00
  1.884846e+01    1.393151e+00
  1.886434e+01    1.370241e+00
  1.888021e+01    1.378522e+00
  1.889609e+01    1.367201e+00
  1.891196e+01    1.354696e+00
  1.892784e+01    1.349548e+00
  1.894372e+01    1.361720e+00
  1.895959e+01    1.349755e+00
  1.897547e+01    1.361844e+00
  1.899134e+01    1.384561e+00
  1.900722e+01    1.389915e+00
  1.902309e+01    1.397804e+00
  1.903897e+01    1.406893e+00
  1.905484e+01    1.384108e+00
  1.907072e+01    1.359640e+00
  1.908660e+01    1.360015e+00
  1.910247e+01    1.363632e+00
  1.911835e+01    1.374063e+00
  1.913422e+01    1.362360e+00
  1.915010e+01    1.353479e+00
  1.916597e+01    1.344194e+00
  1.918185e+01    1.361186e+00
  1.919773e+01    1.346192e+00
  1.921360e+01    1.363091e+00
  1.922948e+01    1.365638e+00
  1.924535e+01    1.350731e+00
  1.926123e+01    1.358940e+00
  1.927710e+01    1.341451e+00
  1.929298e+01    1.339449e+00
  1.930885e+01    1.339451e+00
  1.932473e+01    1.354379e+00
  1.934061e+01    1.349677e+00
  1.935648e+01    1.337237e+00
  1.937236e+01    1.369117e+00
  1.938823e+01    1.340577e+00
  1.940411e+01    1.325509e+00
  1.941998e+01    1.350232e+00
  1.943586e+01    1.366591e+00
  1.945173e+01    1.352696e+00
  1.946761e+01    1.348752e+00
  1.948349e+01    1.342494e+00
  1.949936e+01    1.351335e+00
  1.951524e+01    1.355325e+00
  1.953111e+01    1.329685e+00
  1.954699e+01    1.327508e+00
  1.956286e+01    1.315820e+00
  1.957874e+01    1.295432e+00
  1.959461e+01    1.366413e+00
  1.961049e+01    1.359647e+00
  1.962637e+01    1.313596e+00
  1.964224e+01    1.330065e+00
  1.965812e+01    1.353308e+00
  1.967399e+01    1.316663e+00
  1.968987e+01    1.325174e+00
  1.970574e+01    1.347940e+00
  1.972162e+01    1.332966e+00
  1.973749e+01    1.325650e+00
  1.975337e+01    1.310774e+00
  1.976925e+01    1.291774e+00
  1.978512e+01    1.295565e+00
  1.980100e+01    1.307249e+00
  1.981687e+01    1.314352e+00
  1.983275e+01    1.313437e+00
  1.984862e+01    1.294781e+00
  1.986450e+01    1.295888e+00
  1.988037e+01    1.288900e+00
  1.989625e+01    1.273641e+00
  1.991213e+01    1.283552e+00
  1.992800e+01    1.278315e+00
  1.994388e+01    1.292693e+00
  1.995975e+01    1.290254e+00
  1.997563e+01    1.286903e+00
  1.999150e+01    1.281227e+00
  2.000738e+01    1.279617e+00
  2.002325e+01    1.265916e+00
  2.003913e+01    1.284926e+00
  2.005501e+01    1.304687e+00
  2.007088e+01    1.291104e+00
  2.008676e+01    1.281948e+00
  2.010263e+01    1.268590e+00
  2.011851e+01    1.262971e+00
  2.013438e+01    1.271679e+00
  2.015026e+01    1.270546e+00
  2.016614e+01    1.267347e+00
  2.018201e+01    1.255043e+00
  2.019789e+01    1.276535e+00
  2.021376e+01    1.264395e+00
  2.022964e+01    1.254069e+00
  2.024551e+01    1.268868e+00
  2.026139e+01    1.263629e+00
  2.027726e+01    1.268418e+00
  2.029314e+01    1.269109e+00
  2.030902e+01    1.246904e+00
  2.032489e+01    1.247011e+00
  2.034077e+01    1.239310e+00
  2.035664e+01    1.248899e+00
  2.037252e+01    1.261764e+00
  2.038839e+01    1.253731e+00
  2.040427e+01    1.267763e+00
  2.042014e+01    1.251478e+00
  2.043602e+01    1.222133e+00
  2.045190e+01    1.224193e+00
  2.046777e+01    1.240181e+00
  2.048365e+01    1.230730e+00
  2.049952e+01    1.231614e+00
  2.051540e+01    1.246348e+00
  2.053127e+01    1.229544e+00
  2.054715e+01    1.253899e+00
  2.056302e+01    1.260730e+00
  2.057890e+01    1.246906e+00
  2.059478e+01    1.251347e+00
  2.061065e+01    1.251233e+00
  2.062653e+01    1.214271e+00
  2.064240e+01    1.205365e+00
  2.065828e+01    1.240947e+00
  2.067415e+01    1.223185e+00
  2.069003e+01    1.220227e+00
  2.070590e+01    1.224209e+00
  2.072178e+01    1.228755e+00
  2.073766e+01    1.225899e+00
  2.075353e+01    1.216977e+00
  2.076941e+01    1.214978e+00
  2.078528e+01    1.220085e+00
  2.080116e+01    1.234336e+00
  2.081703e+01    1.257900e+00
  2.083291e+01    1.226507e+00
  2.084878e+01    1.227962e+00
  2.086466e+01    1.229142e+00
  2.088054e+01    1.211761e+00
  2.089641e+01    1.233659e+00
  2.091229e+01    1.247312e+00
  2.092816e+01    1.222574e+00
  2.094404e+01    1.210309e+00
  2.095991e+01    1.230588e+00
  2.097579e+01    1.241975e+00
  2.099166e+01    1.243772e+00
  2.100754e+01    1.212416e+00
  2.102342e+01    1.222514e+00
  2.103929e+01    1.212847e+00
  2.105517e+01    1.225318e+00
  2.107104e+01    1.237598e+00
  2.108692e+01    1.250691e+00
  2.110279e+01    1.249069e+00
  2.111867e+01    1.212921e+00
  2.113455e+01    1.224261e+00
  2.115042e+01    1.222194e+00
  2.116630e+01    1.229001e+00
  2.118217e+01    1.233504e+00
  2.119805e+01    1.244630e+00
  2.121392e+01    1.234950e+00
  2.122980e+01    1.252013e+00
  2.124567e+01    1.247650e+00
  2.126155e+01    1.254581e+00
  2.127743e+01    1.265895e+00
  2.129330e+01    1.260404e+00
  2.130918e+01    1.253579e+00
  2.132505e+01    1.266856e+00
  2.134093e+01    1.290744e+00
  2.135680e+01    1.280275e+00
  2.137268e+01    1.302620e+00
  2.138855e+01    1.291887e+00
  2.140443e+01    1.312339e+00
  2.142031e+01    1.320876e+00
  2.143618e+01    1.338652e+00
  2.145206e+01    1.357914e+00
  2.146793e+01    1.386557e+00
  2.148381e+01    1.396234e+00
  2.149968e+01    1.409904e+00
  2.151556e+01    1.434145e+00
  2.153143e+01    1.464764e+00
  2.154731e+01    1.502985e+00
  2.156319e+01    1.556296e+00
  2.157906e+01    1.618563e+00
  2.159494e+01    1.658275e+00
  2.161081e+01    1.761180e+00
  2.162669e+01    1.859577e+00
  2.164256e+01    1.951275e+00
  2.165844e+01    2.083724e+00
  2.167431e+01    2.294652e+00
  2.169019e+01    2.517436e+00
  2.170607e+01    2.758440e+00
  2.172194e+01    3.093854e+00
  2.173782e+01    3.518742e+00
  2.175369e+01    3.973414e+00
  2.176957e+01    4.557072e+00
  2.178544e+01    5.237080e+00
  2.180132e+01    5.850551e+00
  2.181719e+01    6.467539e+00
  2.183307e+01    7.092999e+00
  2.184895e+01    7.741961e+00
  2.186482e+01    8.307983e+00
  2.188070e+01    8.708811e+00
  2.189657e+01    8.873881e+00
  2.191245e+01    8.760420e+00
  2.192832e+01    8.283922e+00
  2.194420e+01    7.534140e+00
  2.196007e+01    6.664771e+00
  2.197595e+01    5.746931e+00
  2.199183e+01    4.916510e+00
  2.200770e+01    4.167420e+00
  2.202358e+01    3.626245e+00
  2.203945e+01    3.200908e+00
  2.205533e+01    2.872406e+00
  2.207120e+01    2.563025e+00
  2.208708e+01    2.358494e+00
  2.210296e+01    2.160340e+00
  2.211883e+01    2.024352e+00
  2.213471e+01    1.871057e+00
  2.215058e+01    1.765406e+00
  2.216646e+01    1.665782e+00
  2.218233e+01    1.592526e+00
  2.219821e+01    1.523498e+00
  2.221408e+01    1.498441e+00
  2.222996e+01    1.450331e+00
  2.224584e+01    1.421227e+00
  2.226171e+01    1.397855e+00
  2.227759e+01    1.339741e+00
  2.229346e+01    1.310120e+00
  2.230934e+01    1.272616e+00
  2.232521e+01    1.279338e+00
  2.234109e+01    1.272878e+00
  2.235696e+01    1.257533e+00
  2.237284e+01    1.241329e+00
  2.238872e+01    1.232903e+00
  2.240459e+01    1.222380e+00
  2.242047e+01    1.211380e+00
  2.243634e+01    1.181076e+00
  2.245222e+01    1.173185e+00
  2.246809e+01    1.158281e+00
  2.248397e+01    1.143981e+00
  2.249984e+01    1.129333e+00
  2.251572e+01    1.144965e+00
  2.253160e+01    1.130018e+00
  2.254747e+01    1.118782e+00
  2.256335e+01    1.127276e+00
  2.257922e+01    1.132536e+00
  2.259510e+01    1.106108e+00
  2.261097e+01    1.087291e+00
  2.262685e+01    1.075193e+00
  2.264272e+01    1.069886e+00
  2.265860e+01    1.076240e+00
  2.267448e+01    1.064022e+00
  2.269035e+01    1.079165e+00
  2.270623e+01    1.102693e+00
  2.272210e+01    1.084431e+00
  2.273798e+01    1.085945e+00
  2.275385e+01    1.088488e+00
  2.276973e+01    1.070796e+00
  2.278560e+01    1.032593e+00
  2.280148e+01    1.038544e+00
  2.281736e+01    1.051854e+00
  2.283323e+01    1.049564e+00
  2.284911e+01    1.042860e+00
  2.286498e+01    1.057819e+00
  2.288086e+01    1.069845e+00
  2.289673e+01    1.043676e+00
  2.291261e+01    1.027929e+00
  2.292848e+01    1.019670e+00
  2.294436e+01    1.045298e+00
  2.296024e+01    1.039487e+00
  2.297611e+01    1.009687e+00
  2.299199e+01    1.009141e+00
  2.300786e+01    1.029857e+00
  2.302374e+01    1.016064e+00
  2.303961e+01    1.015642e+00
  2.305549e+01    1.037431e+00
  2.307137e+01    1.042881e+00
  2.308724e+01    1.015903e+00
  2.310312e+01    1.010869e+00
  2.311899e+01    1.009717e+00
  2.313487e+01    1.013323e+00
  2.315074e+01    1.000485e+00
  2.316662e+01    1.006405e+00
  2.318249e+01    9.980253e-01
  2.319837e+01    1.000722e+00
  2.321425e+01    1.005304e+00
  2.323012e+01    9.922115e-01
  2.324600e+01    1.004511e+00
  2.326187e+01    9.861100e-01
  2.327775e+01    9.910443e-01
  2.329362e+01    9.979591e-01
  2.330950e+01    9.849136e-01
  2.332537e+01    9.818621e-01
  2.334125e+01    9.859774e-01
  2.335713e+01    9.972907e-01
  2.337300e+01    9.850105e-01
  2.338888e+01    9.795320e-01
  2.340475e+01    9.708239e-01
  2.342063e+01    9.636942e-01
  2.343650e+01    9.506095e-01
  2.345238e+01    9.710681e-01
  2.346825e+01    9.704884e-01
  2.348413e+01    9.619119e-01
  2.350001e+01    9.597930e-01
  2.351588e+01    9.424080e-01
  2.353176e+01    9.712893e-01
  2.354763e+01    9.597528e-01
  2.356351e+01    9.550427e-01
  2.357938e+01    9.662234e-01
  2.359526e+01    9.737754e-01
  2.361113e+01    9.606637e-01
  2.362701e+01    9.744341e-01
  2.364289e+01    9.754178e-01
  2.365876e+01    9.829925e-01
  2.367464e+01    9.567487e-01
  2.369051e+01    9.446430e-01
  2.370639e+01    9.389315e-01
  2.372226e+01    9.192646e-01
  2.373814e+01    9.343394e-01
  2.375401e+01    9.298308e-01
  2.376989e+01    9.202652e-01
  2.378577e+01    9.330803e-01
  2.380164e+01    9.079267e-01
  2.381752e+01    9.089926e-01
  2.383339e+01    9.076629e-01
  2.384927e+01    9.086588e-01
  2.386514e+01    9.101261e-01
  2.388102e+01    9.321989e-01
  2.389689e+01    9.323786e-01
  2.391277e+01    9.232686e-01
  2.392865e+01    9.256519e-01
  2.394452e+01    9.166418e-01
  2.396040e+01    9.060465e-01
  2.397627e+01    9.159787e-01
  2.399215e+01    8.949068e-01
  2.400802e+01    8.973304e-01
  2.402390e+01    8.975434e-01
  2.403978e+01    8.939864e-01
  2.405565e+01    8.879610e-01
  2.407153e+01    8.739392e-01
  2.408740e+01    8.926324e-01
  2.410328e+01    8.837534e-01
  2.411915e+01    8.869879e-01
  2.413503e+01    8.776219e-01
  2.415090e+01    8.769500e-01
  2.416678e+01    9.054781e-01
  2.418266e+01    8.991412e-01
  2.419853e+01    8.842314e-01
  2.421441e+01    8.863800e-01
  2.423028e+01    8.544055e-01
  2.424616e+01    8.519937e-01
  2.426203e+01    8.783357e-01
  2.427791e+01    9.100915e-01
  2.429378e+01    8.953102e-01
  2.430966e+01    8.979741e-01
  2.432554e+01    9.004998e-01
  2.434141e+01    8.872293e-01
  2.435729e+01    9.013364e-01
  2.437316e+01    9.037633e-01
  2.438904e+01    8.783576e-01
  2.440491e+01    8.908599e-01
  2.442079e+01    8.998460e-01
  2.443666e+01    8.912709e-01
  2.445254e+01    8.684867e-01
  2.446842e+01    8.747645e-01
  2.448429e+01    8.968616e-01
  2.450017e+01    9.145128e-01
  2.451604e+01    9.171558e-01
  2.453192e+01    9.105549e-01
  2.454779e+01    8.968182e-01
  2.456367e+01    8.814659e-01
  2.457954e+01    9.078878e-01
  2.459542e+01    8.945981e-01
  2.461130e+01    8.753127e-01
  2.462717e+01    8.829638e-01
  2.464305e+01    8.914047e-01
  2.465892e+01    8.959713e-01
  2.467480e+01    9.141232e-01
  2.469067e+01    8.931428e-01
  2.470655e+01    8.913874e-01
  2.472242e+01    8.947659e-01
  2.473830e+01    8.913962e-01
  2.475418e+01    9.048288e-01
  2.477005e+01    8.986311e-01
  2.478593e+01    8.859362e-01
  2.480180e+01    8.794075e-01
  2.481768e+01    8.833011e-01
  2.483355e+01    8.740630e-01
  2.484943e+01    8.970487e-01
  2.486530e+01    8.985990e-01
  2.488118e+01    8.916484e-01
  2.489706e+01    9.176156e-01
  2.491293e+01    8.948783e-01
  2.492881e+01    8.911620e-01
  2.494468e+01    8.762544e-01
  2.496056e+01    8.816328e-01
  2.497643e+01    8.966548e-01
  2.499231e+01    9.133251e-01
  2.500819e+01    9.126834e-01
  2.502406e+01    8.730874e-01
  2.503994e+01    8.725116e-01
  2.505581e+01    8.679093e-01
  2.507169e+01    8.872701e-01
  2.508756e+01    9.192006e-01
  2.510344e+01    9.162961e-01
  2.511931e+01    9.171209e-01
  2.513519e+01    8.918109e-01
  2.515107e+01    9.174383e-01
  2.516694e+01    9.379167e-01
  2.518282e+01    9.189402e-01
  2.519869e+01    9.093253e-01
  2.521457e+01    9.307726e-01
  2.523044e+01    9.370680e-01
  2.524632e+01    9.512807e-01
  2.526219e+01    9.558122e-01
  2.527807e+01    9.481176e-01
  2.529395e+01    9.451889e-01
  2.530982e+01    9.543594e-01
  2.532570e+01    9.523612e-01
  2.534157e+01    9.645373e-01
  2.535745e+01    9.634718e-01
  2.537332e+01    9.854341e-01
  2.538920e+01    9.891616e-01
  2.540507e+01    9.937478e-01
  2.542095e+01    9.907603e-01
  2.543683e+01    1.012281e+00
  2.545270e+01    1.011606e+00
  2.546858e+01    1.031147e+00
  2.548445e+01    1.034975e+00
  2.550033e+01    1.052763e+00
  2.551620e+01    1.063768e+00
  2.553208e+01    1.088418e+00
  2.554795e+01    1.125209e+00
  2.556383e+01    1.125617e+00
  2.557971e+01    1.161071e+00
  2.559558e+01    1.201119e+00
  2.561146e+01    1.222663e+00
  2.562733e+01    1.263765e+00
  2.564321e+01    1.313989e+00
  2.565908e+01    1.355799e+00
  2.567496e+01    1.416821e+00
  2.569083e+01    1.502007e+00
  2.570671e+01    1.586550e+00
  2.572259e+01    1.716390e+00
  2.573846e+01    1.855258e+00
  2.575434e+01    1.984705e+00
  2.577021e+01    2.228146e+00
  2.578609e+01    2.465901e+00
  2.580196e+01    2.796302e+00
  2.581784e+01    3.165687e+00
  2.583371e+01    3.607777e+00
  2.584959e+01    4.096064e+00
  2.586547e+01    4.632784e+00
  2.588134e+01    5.192239e+00
  2.589722e+01    5.775083e+00
  2.591309e+01    6.292368e+00
  2.592897e+01    6.714717e+00
  2.594484e+01    7.070704e+00
  2.596072e+01    7.126132e+00
  2.597660e+01    6.963959e+00
  2.599247e+01    6.689725e+00
  2.600835e+01    6.101851e+00
  2.602422e+01    5.364884e+00
  2.604010e+01    4.602044e+00
  2.605597e+01    4.019176e+00
  2.607185e+01    3.512354e+00
  2.608772e+01    3.048221e+00
  2.610360e+01    2.692964e+00
  2.611948e+01    2.385212e+00
  2.613535e+01    2.170074e+00
  2.615123e+01    1.927997e+00
  2.616710e+01    1.811249e+00
  2.618298e+01    1.686716e+00
  2.619885e+01    1.588044e+00
  2.621473e+01    1.485690e+00
  2.623060e+01    1.391349e+00
  2.624648e+01    1.342079e+00
  2.626236e+01    1.324481e+00
  2.627823e+01    1.252547e+00
  2.629411e+01    1.225546e+00
  2.630998e+01    1.179711e+00
  2.632586e+01    1.143373e+00
  2.634173e+01    1.107922e+00
  2.635761e+01    1.100745e+00
  2.637348e+01    1.085157e+00
  2.638936e+01    1.097639e+00
  2.640524e+01    1.048189e+00
  2.642111e+01    1.047702e+00
  2.643699e+01    1.045359e+00
  2.645286e+01    1.042081e+00
  2.646874e+01    1.021277e+00
  2.648461e+01    1.002257e+00
  2.650049e+01    1.024642e+00
  2.651636e+01    1.007012e+00
  2.653224e+01    9.785291e-01
  2.654812e+01    9.812042e-01
  2.656399e+01    9.837056e-01
  2.657987e+01    9.903472e-01
  2.659574e+01    9.797731e-01
  2.661162e+01    9.911198e-01
  2.662749e+01    1.000215e+00
  2.664337e+01    9.853181e-01
  2.665924e+01    9.711636e-01
  2.667512e+01    9.665185e-01
  2.669100e+01    9.559277e-01
  2.670687e+01    9.756790e-01
  2.672275e+01    9.627879e-01
  2.673862e+01    9.468403e-01
  2.675450e+01    9.583088e-01
  2.677037e+01    9.926333e-01
  2.678625e+01    9.765216e-01
  2.680212e+01    9.817351e-01
  2.681800e+01    9.888099e-01
  2.683388e+01    9.896294e-01
  2.684975e+01    9.774905e-01
  2.686563e+01    9.898599e-01
  2.688150e+01    1.000180e+00
  2.689738e+01    9.971757e-01
  2.691325e+01    1.002985e+00
  2.692913e+01    1.035545e+00
  2.694501e+01    1.027792e+00
  2.696088e+01    1.048971e+00
  2.697676e+01    1.051167e+00
  2.699263e+01    1.061944e+00
  2.700851e+01    1.097875e+00
  2.702438e+01    1.161154e+00
  2.704026e+01    1.194720e+00
  2.705613e+01    1.235857e+00
  2.707201e+01    1.329528e+00
  2.708789e+01    1.366557e+00
  2.710376e+01    1.488469e+00
  2.711964e+01    1.589929e+00
  2.713551e+01    1.712371e+00
  2.715139e+01    1.868009e+00
  2.716726e+01    2.000077e+00
  2.718314e+01    2.115134e+00
  2.719901e+01    2.132242e+00
  2.721489e+01    2.165500e+00
  2.723077e+01    2.195936e+00
  2.724664e+01    2.104862e+00
  2.726252e+01    1.948297e+00
  2.727839e+01    1.832261e+00
  2.729427e+01    1.700068e+00
  2.731014e+01    1.576771e+00
  2.732602e+01    1.462478e+00
  2.734189e+01    1.344319e+00
  2.735777e+01    1.290202e+00
  2.737365e+01    1.260458e+00
  2.738952e+01    1.195934e+00
  2.740540e+01    1.151431e+00
  2.742127e+01    1.084089e+00
  2.743715e+01    1.035872e+00
  2.745302e+01    1.028101e+00
  2.746890e+01    1.014669e+00
  2.748477e+01    9.815838e-01
  2.750065e+01    9.818416e-01
  2.751653e+01    9.728549e-01
  2.753240e+01    9.828660e-01
  2.754828e+01    9.820449e-01
  2.756415e+01    9.671483e-01
  2.758003e+01    9.488546e-01
  2.759590e+01    9.219608e-01
  2.761178e+01    9.312718e-01
  2.762765e+01    9.309870e-01
  2.764353e+01    9.320436e-01
  2.765941e+01    9.121864e-01
  2.767528e+01    8.978573e-01
  2.769116e+01    9.152255e-01
  2.770703e+01    9.276750e-01
  2.772291e+01    9.040864e-01
  2.773878e+01    8.779095e-01
  2.775466e+01    8.956483e-01
  2.777054e+01    8.835411e-01
  2.778641e+01    8.771058e-01
  2.780229e+01    9.077482e-01
  2.781816e+01    9.048840e-01
  2.783404e+01    8.947680e-01
  2.784991e+01    8.774448e-01
  2.786579e+01    8.996536e-01
  2.788166e+01    8.728594e-01
  2.789754e+01    8.764106e-01
  2.791342e+01    8.805371e-01
  2.792929e+01    8.806722e-01
  2.794517e+01    8.839424e-01
  2.796104e+01    8.669744e-01
  2.797692e+01    8.573416e-01
  2.799279e+01    8.683268e-01
  2.800867e+01    8.575677e-01
  2.802454e+01    8.658504e-01
  2.804042e+01    8.612163e-01
  2.805630e+01    8.516560e-01
  2.807217e+01    8.536601e-01
  2.808805e+01    8.642743e-01
  2.810392e+01    8.585148e-01
  2.811980e+01    8.639538e-01
  2.813567e+01    8.714619e-01
  2.815155e+01    8.580691e-01
  2.816742e+01    8.552970e-01
  2.818330e+01    8.158293e-01
  2.819918e+01    8.407688e-01
  2.821505e+01    8.553487e-01
  2.823093e+01    8.551213e-01
  2.824680e+01    8.520805e-01
  2.826268e+01    8.562587e-01
  2.827855e+01    8.698808e-01
  2.829443e+01    8.607669e-01
  2.831030e+01    8.629106e-01
  2.832618e+01    8.710499e-01
  2.834206e+01    8.489826e-01
  2.835793e+01    8.311155e-01
  2.837381e+01    8.201258e-01
  2.838968e+01    8.170233e-01
  2.840556e+01    8.138011e-01
  2.842143e+01    8.355911e-01
  2.843731e+01    8.373433e-01
  2.845318e+01    8.592266e-01
  2.846906e+01    8.452497e-01
  2.848494e+01    8.530346e-01
  2.850081e+01    8.415114e-01
  2.851669e+01    8.244630e-01
  2.853256e+01    8.439705e-01
  2.854844e+01    8.309804e-01
  2.856431e+01    8.233770e-01
  2.858019e+01    8.127624e-01
  2.859606e+01    8.120403e-01
  2.861194e+01    8.455038e-01
  2.862782e+01    8.390822e-01
  2.864369e+01    8.415148e-01
  2.865957e+01    8.324317e-01
  2.867544e+01    8.092217e-01
  2.869132e+01    8.014717e-01
  2.870719e+01    8.385657e-01
  2.872307e+01    8.714389e-01
  2.873895e+01    8.529198e-01
  2.875482e+01    8.505885e-01
  2.877070e+01    8.423595e-01
  2.878657e+01    8.185573e-01
  2.880245e+01    8.282782e-01
  2.881832e+01    8.235750e-01
  2.883420e+01    7.919564e-01
  2.885007e+01    8.073598e-01
  2.886595e+01    8.059465e-01
  2.888183e+01    8.200941e-01
  2.889770e+01    8.220381e-01
  2.891358e+01    8.135889e-01
  2.892945e+01    8.057883e-01
  2.894533e+01    8.204197e-01
  2.896120e+01    8.079643e-01
  2.897708e+01    8.150258e-01
  2.899295e+01    8.025573e-01
  2.900883e+01    8.060961e-01
  2.902471e+01    8.076553e-01
  2.904058e+01    8.099630e-01
  2.905646e+01    8.067029e-01
  2.907233e+01    8.135643e-01
  2.908821e+01    8.285400e-01
  2.910408e+01    8.127777e-01
  2.911996e+01    8.281661e-01
  2.913583e+01    8.163511e-01
  2.915171e+01    8.260888e-01
  2.916759e+01    8.391098e-01
  2.918346e+01    8.281178e-01
  2.919934e+01    8.059081e-01
  2.921521e+01    7.962731e-01
  2.923109e+01    8.013360e-01
  2.924696e+01    8.025019e-01
  2.926284e+01    8.055569e-01
  2.927871e+01    8.151575e-01
  2.929459e+01    8.149201e-01
  2.931047e+01    8.259873e-01
  2.932634e+01    8.205808e-01
  2.934222e+01    8.094410e-01
  2.935809e+01    7.958300e-01
  2.937397e+01    7.955374e-01
  2.938984e+01    7.997014e-01
  2.940572e+01    8.310589e-01
  2.942159e+01    8.047193e-01
  2.943747e+01    7.895676e-01
  2.945335e+01    7.983122e-01
  2.946922e+01    8.003043e-01
  2.948510e+01    8.086680e-01
  2.950097e+01    8.007804e-01
  2.951685e+01    8.069471e-01
  2.953272e+01    7.825958e-01
  2.954860e+01    7.947392e-01
  2.956447e+01    8.002212e-01
  2.958035e+01    7.918019e-01
  2.959623e+01    7.836616e-01
  2.961210e+01    7.966905e-01
  2.962798e+01    7.963521e-01
  2.964385e+01    7.826197e-01
  2.965973e+01    8.003944e-01
  2.967560e+01    8.051202e-01
  2.969148e+01    8.094120e-01
  2.970736e+01    7.866716e-01
  2.972323e+01    8.124927e-01
  2.973911e+01    8.227171e-01
  2.975498e+01    8.031211e-01
  2.977086e+01    7.970436e-01
  2.978673e+01    7.945455e-01
  2.980261e+01    7.970982e-01
  2.981848e+01    7.800049e-01
  2.983436e+01    7.762705e-01
  2.985024e+01    7.649846e-01
  2.986611e+01    7.820215e-01
  2.988199e+01    8.014157e-01
  2.989786e+01    7.962627e-01
  2.991374e+01    7.846717e-01
  2.992961e+01    7.867404e-01
  2.994549e+01    7.949559e-01
  2.996136e+01    8.078530e-01
  2.997724e+01    7.957414e-01
  2.999312e+01    7.917979e-01
  3.000899e+01    7.860886e-01
  3.002487e+01    8.093825e-01
  3.004074e+01    8.307054e-01
  3.005662e+01    8.038484e-01
  3.007249e+01    7.961810e-01
  3.008837e+01    7.837155e-01
  3.010424e+01    8.000590e-01
  3.012012e+01    8.115480e-01
  3.013600e+01    8.010142e-01
  3.015187e+01    7.845985e-01
  3.016775e+01    8.048577e-01
  3.018362e+01    8.151863e-01
  3.019950e+01    7.960481e-01
  3.021537e+01    7.741609e-01
  3.023125e+01    7.933769e-01
  3.024712e+01    8.002084e-01
  3.026300e+01    7.822666e-01
  3.027888e+01    7.731690e-01
  3.029475e+01    8.015465e-01
  3.031063e+01    7.907209e-01
  3.032650e+01    8.028486e-01
  3.034238e+01    7.958671e-01
  3.035825e+01    7.848473e-01
  3.037413e+01    7.865893e-01
  3.039000e+01    7.880019e-01
  3.040588e+01    7.746161e-01
  3.042176e+01    7.734134e-01
  3.043763e+01    7.794921e-01
  3.045351e+01    7.808380e-01
  3.046938e+01    7.844607e-01
  3.048526e+01    7.914881e-01
  3.050113e+01    7.839988e-01
  3.051701e+01    7.813270e-01
  3.053288e+01    7.794983e-01
  3.054876e+01    7.866298e-01
  3.056464e+01    7.634320e-01
  3.058051e+01    7.808366e-01
  3.059639e+01    7.867771e-01
  3.061226e+01    7.720752e-01
  3.062814e+01    7.759929e-01
  3.064401e+01    7.861342e-01
  3.065989e+01    7.706453e-01
  3.067577e+01    7.670878e-01
  3.069164e+01    7.644153e-01
  3.070752e+01    8.019197e-01
  3.072339e+01    7.955943e-01
  3.073927e+01    7.803106e-01
  3.075514e+01    7.796847e-01
  3.077102e+01    7.807035e-01
  3.078689e+01    7.871299e-01
  3.080277e+01    7.804357e-01
  3.081865e+01    7.920367e-01
  3.083452e+01    7.817782e-01
  3.085040e+01    7.974840e-01
  3.086627e+01    7.957683e-01
  3.088215e+01    7.942070e-01
  3.089802e+01    7.893921e-01
  3.091390e+01    7.678236e-01
  3.092977e+01    7.783586e-01
  3.094565e+01    7.752082e-01
  3.096153e+01    7.781144e-01
  3.097740e+01    7.658875e-01
  3.099328e+01    7.625758e-01
  3.100915e+01    7.851819e-01
  3.102503e+01    8.020486e-01
  3.104090e+01    8.025296e-01
  3.105678e+01    7.984320e-01
  3.107265e+01    7.810591e-01
  3.108853e+01    7.852701e-01
  3.110441e+01    7.746480e-01
  3.112028e+01    7.788706e-01
  3.113616e+01    7.863209e-01
  3.115203e+01    8.209519e-01
  3.116791e+01    8.040650e-01
  3.118378e+01    8.028393e-01
  3.119966e+01    8.061340e-01
  3.121553e+01    7.814702e-01
  3.123141e+01    8.021351e-01
  3.124729e+01    8.010063e-01
  3.126316e+01    7.949440e-01
  3.127904e+01    7.913694e-01
  3.129491e+01    7.893435e-01
  3.131079e+01    7.838341e-01
  3.132666e+01    7.861671e-01
  3.134254e+01    8.123284e-01
  3.135841e+01    8.283365e-01
  3.137429e+01    8.107582e-01
  3.139017e+01    8.170187e-01
  3.140604e+01    8.203253e-01
  3.142192e+01    8.019194e-01
  3.143779e+01    8.193710e-01
  3.145367e+01    8.050926e-01
  3.146954e+01    8.128661e-01
  3.148542e+01    8.277979e-01
  3.150129e+01    8.520063e-01
  3.151717e+01    8.367565e-01
  3.153305e+01    8.342580e-01
  3.154892e+01    8.449310e-01
  3.156480e+01    8.624802e-01
  3.158067e+01    8.529238e-01
  3.159655e+01    8.858706e-01
  3.161242e+01    8.992324e-01
  3.162830e+01    9.015723e-01
  3.164418e+01    9.052881e-01
  3.166005e+01    9.237396e-01
  3.167593e+01    9.670753e-01
  3.169180e+01    1.002231e+00
  3.170768e+01    1.012447e+00
  3.172355e+01    1.058110e+00
  3.173943e+01    1.113153e+00
  3.175530e+01    1.181429e+00
  3.177118e+01    1.253396e+00
  3.178706e+01    1.361869e+00
  3.180293e+01    1.440357e+00
  3.181881e+01    1.572769e+00
  3.183468e+01    1.721431e+00
  3.185056e+01    1.811661e+00
  3.186643e+01    1.954817e+00
  3.188231e+01    2.035176e+00
  3.189818e+01    2.094257e+00
  3.191406e+01    2.075768e+00
  3.192994e+01    2.066619e+00
  3.194581e+01    1.947339e+00
  3.196169e+01    1.813382e+00
  3.197756e+01    1.694199e+00
  3.199344e+01    1.574780e+00
  3.200931e+01    1.467583e+00
  3.202519e+01    1.338933e+00
  3.204106e+01    1.255560e+00
  3.205694e+01    1.196372e+00
  3.207282e+01    1.143214e+00
  3.208869e+01    1.062510e+00
  3.210457e+01    1.013618e+00
  3.212044e+01    9.682795e-01
  3.213632e+01    9.304975e-01
  3.215219e+01    9.070368e-01
  3.216807e+01    8.956962e-01
  3.218394e+01    8.871893e-01
  3.219982e+01    8.717282e-01
  3.221570e+01    8.592595e-01
  3.223157e+01    8.320176e-01
  3.224745e+01    8.603698e-01
  3.226332e+01    8.450842e-01
  3.227920e+01    8.189389e-01
  3.229507e+01    8.257800e-01
  3.231095e+01    8.227640e-01
  3.232682e+01    8.281557e-01
  3.234270e+01    8.226365e-01
  3.235858e+01    8.256254e-01
  3.237445e+01    8.012119e-01
  3.239033e+01    7.949172e-01
  3.240620e+01    7.890121e-01
  3.242208e+01    7.710010e-01
  3.243795e+01    7.937316e-01
  3.245383e+01    8.037907e-01
  3.246970e+01    7.943099e-01
  3.248558e+01    7.753501e-01
  3.250146e+01    7.522694e-01
  3.251733e+01    7.642702e-01
  3.253321e+01    7.830840e-01
  3.254908e+01    7.750623e-01
